
Integration time [ms]: 120,000
Averaging Nr. [scans]: 13
Smoothing Nr. [pixels]: 0
Data measured with spectrometer [name]: 2009305U1
Wave   ;Sample   ;Dark     ;Reference;Reflectance
[nm]   ;[counts] ;[counts] ;[counts] ;[%]

 175,72;  202,575;  188,260;  191,032;516,40515
 176,32;  212,957;  224,410;  220,873; 0,00000
 176,92;  245,153;  232,797;  240,423;162,02021
 177,52;  254,470;  239,797;  253,164;109,77338
 178,12;  224,672;  226,102;  208,578; 0,00000
 178,72;  246,417;  255,947;  239,478; 0,00000
 179,32;  246,486;  240,102;  239,368; 0,00000
 179,92;  250,415;  233,873;  234,772; 0,00000
 180,52;  233,866;  231,570;  253,930;10,26965
 181,12;  249,904;  244,488;  238,404; 0,00000
 181,73;  266,822;  262,027;  251,328; 0,00000
 182,33;  340,761;  322,568;  321,283; 0,00000
 182,93;  268,588;  258,259;  259,299;993,06476
 183,53;  234,182;  241,408;  225,007; 0,00000
 184,13;  230,390;  230,793;  223,348; 0,00000
 184,73;  267,779;  261,100;  267,377;106,39193
 185,33;  245,233;  229,461;  330,588;15,59619
 185,93;  259,597;  233,150;  351,317;22,38112
 186,53;  279,979;  243,690;  377,755;27,06776
 187,13;  296,605;  267,616;  401,255;21,69194
 187,73;  263,245;  225,381;  357,645;28,62708
 188,33;  257,289;  231,764;  359,112;20,04308
 188,93;  278,186;  240,452;  371,007;28,90284
 189,53;  279,409;  237,678;  366,423;32,41355
 190,13;  318,884;  265,826;  401,940;38,98090
 190,73;  257,086;  214,522;  345,202;32,57127
 191,34;  280,302;  252,219;  374,280;23,00738
 191,94;  259,098;  231,686;  356,499;21,96236
 192,54;  275,322;  233,926;  381,714;28,00999
 193,14;  276,646;  255,847;  373,580;17,66610
 193,74;  276,908;  243,385;  375,282;25,41599
 194,34;  284,483;  240,155;  375,352;32,78780
 194,94;  239,148;  215,155;  344,253;18,58529
 195,54;  212,170;  171,538;  318,943;27,56469
 196,14;  248,457;  217,541;  352,884;22,84263
 196,74;  237,024;  216,229;  339,632;16,85122
 197,34;  225,843;  187,081;  333,058;26,55312
 197,94;  263,583;  208,309;  357,667;37,00744
 198,54;  256,524;  230,464;  369,533;18,73941
 199,14;  221,907;  202,467;  365,217;11,94467
 199,74;  222,020;  188,851;  355,466;19,90725
 200,34;  221,427;  190,236;  375,136;16,86916
 200,94;  250,381;  230,311;  409,207;11,21849
 201,54;  238,879;  202,158;  419,775;16,87406
 202,14;  267,808;  240,776;  448,835;12,99263
 202,74;  243,920;  208,236;  445,607;15,03313
 203,34;  242,189;  187,546;  478,231;18,79795
 203,94;  201,143;  165,391;  477,928;11,43920
 204,54;  270,737;  230,771;  557,401;12,23586
 205,14;  244,359;  189,159;  568,328;14,55821
 205,74;  284,578;  231,777;  642,194;12,86526
 206,34;  257,378;  191,545;  673,542;13,65843
 206,94;  269,934;  210,237;  710,931;11,92298
 207,54;  235,663;  174,621;  749,837;10,61194
 208,14;  261,446;  194,006;  823,309;10,71655
 208,74;  279,644;  206,236;  906,545;10,48227
 209,34;  279,495;  198,851;  975,821;10,37924
 209,94;  303,490;  205,159; 1073,894;11,31891
 210,54;  296,668;  203,468; 1163,194; 9,71106
 211,14;  316,956;  206,082; 1275,318;10,36949
 211,73;  308,187;  203,697; 1392,580; 8,78892
 212,33;  328,652;  217,773; 1454,727; 8,96390
 212,93;  326,264;  192,620; 1576,969; 9,65390
 213,53;  312,757;  170,928; 1611,410; 9,84595
 214,13;  338,389;  188,855; 1679,996;10,02816
 214,73;  308,962;  176,468; 1722,219; 8,57149
 215,33;  308,337;  159,390; 1733,894; 9,45991
 215,93;  345,949;  190,777; 1870,147; 9,23991
 216,53;  309,644;  149,928; 1930,504; 8,96991
 217,13;  383,926;  208,392; 2155,785; 9,01381
 217,73;  387,791;  185,854; 2334,646; 9,39770
 218,33;  361,778;  145,701; 2528,040; 9,06994
 218,93;  423,966;  178,320; 2794,897; 9,38807
 219,53;  447,737;  175,009; 3069,444; 9,42251
 220,13;  461,000;  154,702; 3320,505; 9,67522
 220,73;  513,640;  177,390; 3675,855; 9,61136
 221,32;  554,413;  181,005; 4080,007; 9,57702
 221,92;  611,806;  179,471; 4448,636;10,12691
 222,52;  641,275;  166,469; 4854,044;10,12903
 223,12;  682,999;  166,008; 5197,330;10,27545
 223,72;  753,804;  191,469; 5620,888;10,35719
 224,32;  783,854;  185,008; 5935,261;10,41426
 224,92;  828,682;  173,239; 6231,405;10,81917
 225,52;  887,817;  192,390; 6568,027;10,90756
 226,12;  930,958;  183,545; 6855,570;11,20218
 226,72;  946,437;  164,084; 7133,076;11,22621
 227,31; 1003,419;  155,930; 7458,375;11,60556
 227,91; 1090,473;  186,544; 7817,044;11,84626
 228,51; 1129,716;  175,927; 8164,301;11,93971
 229,11; 1196,568;  166,468; 8499,371;12,36184
 229,71; 1244,594;  173,082; 8828,865;12,37915
 230,31; 1298,715;  159,547; 9191,543;12,61258
 230,91; 1351,588;  161,464; 9447,266;12,81660
 231,51; 1420,388;  151,854; 9776,021;13,18072
 232,10; 1476,873;  151,701;10112,665;13,30365
 232,70; 1563,791;  189,386;10284,967;13,61393
 233,30; 1632,148;  184,930;10562,860;13,94515
 233,90; 1654,361;  161,930;10634,082;14,25142
 234,50; 1705,840;  177,931;10782,132;14,40853
 235,10; 1745,452;  176,700;10893,482;14,63827
 235,70; 1820,966;  179,467;10947,597;15,24405
 236,29; 1854,793;  174,774;10875,157;15,70055
 236,89; 1853,032;  163,311;10803,451;15,88063
 237,49; 1881,179;  182,468;10763,065;16,05496
 238,09; 1863,378;  165,468;10595,465;16,27910
 238,69; 1888,493;  191,925;10346,595;16,70726
 239,29; 1823,966;  166,006;10067,372;16,74476
 239,89; 1837,665;  169,388; 9849,922;17,23332
 240,48; 1762,591;  175,468; 9436,456;17,13773
 241,08; 1740,685;  160,160; 9185,460;17,51217
 241,68; 1729,690;  192,391; 8843,392;17,77019
 242,28; 1682,356;  158,007; 8565,309;18,13125
 242,88; 1663,810;  209,393; 8230,322;18,13277
 243,48; 1627,605;  199,853; 8013,354;18,27288
 244,07; 1599,531;  181,236; 7835,804;18,52874
 244,67; 1567,134;  188,545; 7635,116;18,51307
 245,27; 1537,417;  187,620; 7538,964;18,36124
 245,87; 1524,398;  198,778; 7465,459;18,24244
 246,47; 1501,282;  182,235; 7394,051;18,29008
 247,06; 1498,957;  170,929; 7473,098;18,18676
 247,66; 1505,505;  177,545; 7528,223;18,06582
 248,26; 1539,685;  204,620; 7649,178;17,93343
 248,86; 1526,970;  193,774; 7851,780;17,40918
 249,46; 1529,736;  148,777; 8038,618;17,50301
 250,05; 1592,672;  193,622; 8381,418;17,08702
 250,65; 1614,005;  158,158; 8642,640;17,15894
 251,25; 1658,314;  170,621; 9137,081;16,59176
 251,85; 1711,715;  174,080; 9729,024;16,09256
 252,44; 1787,241;  144,697;10270,305;16,22168
 253,04; 1881,486;  186,467;10972,701;15,71465
 253,64; 1925,354;  141,773;11593,426;15,57487
 254,24; 2047,943;  193,160;12498,938;15,07246
 254,84; 2127,121;  171,084;13398,156;14,78813
 255,43; 2262,861;  175,236;14232,155;14,85123
 256,03; 2347,385;  173,927;15090,790;14,57048
 256,63; 2485,245;  186,311;16121,134;14,42711
 257,23; 2517,249;  163,619;16865,215;14,09225
 257,82; 2631,217;  184,617;17785,184;13,90068
 258,42; 2649,678;  141,386;18538,523;13,63414
 259,02; 2839,979;  188,851;19404,408;13,79678
 259,62; 2855,560;  171,924;20013,536;13,52529
 260,21; 2917,866;  180,005;20446,656;13,50919
 260,81; 2951,347;  175,776;20939,686;13,36728
 261,41; 2953,669;  161,540;21348,639;13,17844
 262,01; 3071,496;  195,692;21745,537;13,34489
 262,60; 3037,018;  159,772;22088,138;13,12111
 263,20; 3070,526;  173,081;22406,441;13,03197
 263,80; 3105,604;  185,846;22576,552;13,04005
 264,40; 3065,600;  159,770;22635,554;12,92872
 264,99; 3129,803;  177,923;22873,727;13,00628
 265,59; 3108,092;  169,690;22986,235;12,87838
 266,19; 3139,025;  151,923;23173,571;12,97519
 266,78; 3196,866;  198,691;23313,249;12,97094
 267,38; 3158,056;  180,998;23225,991;12,91846
 267,98; 3166,862;  170,999;23273,748;12,96756
 268,58; 3170,038;  176,460;23341,058;12,92307
 269,17; 3173,222;  169,612;23247,520;13,01509
 269,77; 3179,783;  185,772;23104,975;13,06333
 270,37; 3144,604;  159,846;23034,665;13,04823
 270,96; 3161,823;  211,386;22877,757;13,01680
 271,56; 3134,226;  175,618;22703,894;13,13286
 272,16; 3112,031;  181,617;22485,318;13,13869
 272,75; 3101,882;  173,540;22347,937;13,20596
 273,35; 3134,710;  175,464;22343,010;13,34945
 273,95; 3145,302;  178,540;22331,725;13,39204
 274,54; 3124,165;  162,775;22448,895;13,28805
 275,14; 3240,773;  186,848;22732,619;13,54545
 275,74; 3213,981;  151,771;22757,986;13,54588
 276,33; 3321,371;  194,541;23139,769;13,62736
 276,93; 3357,052;  189,006;23493,651;13,59405
 277,53; 3451,291;  175,313;23943,637;13,78296
 278,12; 3543,172;  159,388;24522,641;13,88889
 278,72; 3650,019;  198,082;25049,538;13,89028
 279,32; 3759,209;  166,851;25603,285;14,12289
 279,91; 3891,707;  167,927;26140,914;14,33713
 280,51; 4014,816;  171,236;26717,785;14,47864
 281,11; 4160,689;  166,389;27408,135;14,66242
 281,70; 4278,928;  158,158;27854,830;14,87822
 282,30; 4379,765;  149,618;28400,894;14,97329
 282,90; 4490,892;  171,003;28765,457;15,10743
 283,49; 4669,362;  189,002;29327,182;15,37625
 284,09; 4805,530;  202,311;29720,168;15,59469
 284,69; 4940,761;  202,697;30055,598;15,87137
 285,28; 5073,571;  186,927;30425,072;16,16053
 285,88; 5224,004;  219,155;30550,573;16,50054
 286,47; 5334,086;  181,618;30628,362;16,92289
 287,07; 5489,481;  207,620;30770,805;17,28178
 287,67; 5660,374;  196,699;30819,200;17,84203
 288,26; 5781,503;  172,543;30800,315;18,31332
 288,86; 5923,096;  157,465;30903,297;18,75256
 289,46; 6143,625;  193,850;30940,721;19,35083
 290,05; 6371,816;  177,775;31098,678;20,03189
 290,65; 6589,172;  177,926;31293,056;20,60492
 291,24; 6836,761;  185,851;31413,870;21,29789
 291,84; 7123,322;  190,234;31527,211;22,12430
 292,44; 7334,980;  183,930;31619,198;22,74849
 293,03; 7639,675;  237,851;31807,212;23,44623
 293,63; 7825,566;  169,080;31969,525;24,07666
 294,22; 8056,928;  199,927;32062,332;24,65916
 294,82; 8219,510;  175,231;32052,163;25,23542
 295,41; 8279,159;  172,619;31769,137;25,65643
 296,01; 8474,012;  207,463;31764,345;26,19571
 296,61; 8543,178;  191,081;31442,501;26,72549
 297,20; 8553,592;  192,001;31183,213;26,98052
 297,80; 8586,848;  181,468;31055,544;27,22472
 298,39; 8566,407;  167,542;30706,947;27,50173
 298,99; 8635,841;  191,540;30486,766;27,87337
 299,58; 8579,482;  191,468;30353,097;27,81022
 300,18; 8676,129;  208,006;30076,989;28,35089
 300,78; 8606,187;  169,313;29818,241;28,45592
 301,37; 8621,287;  193,923;29790,504;28,47412
 301,97; 8658,684;  196,543;29891,096;28,49729
 302,56; 8650,448;  166,310;29794,349;28,63550
 303,16; 8602,783;  173,310;29747,165;28,50312
 303,75; 8612,224;  177,005;29704,147;28,56768
 304,35; 8692,108;  171,162;29945,807;28,61813
 304,94; 8738,901;  179,620;30022,782;28,68088
 305,54; 8766,413;  199,159;29908,315;28,83708
 306,13; 8699,189;  150,700;29919,965;28,71582
 306,73; 8627,722;  158,469;29661,222;28,70666
 307,33; 8641,283;  201,314;29617,230;28,69184
 307,92; 8655,847;  177,466;29728,606;28,69054
 308,52; 8703,393;  165,310;30129,008;28,49476
 309,11; 8884,270;  177,463;30600,279;28,61933
 309,71; 8959,736;  149,923;30889,426;28,65958
 310,30; 8928,227;  158,235;31107,064;28,33707
 310,90; 9071,458;  189,620;31395,141;28,46239
 311,49; 9033,666;  180,697;31519,743;28,24901
 312,09; 9047,301;  152,852;31647,999;28,24070
 312,68; 9175,449;  217,005;32025,256;28,16390
 313,28; 9130,001;  153,466;32217,913;27,99529
 313,87; 9148,617;  148,004;32290,642;28,00210
 314,47; 9203,293;  165,001;32560,795;27,89958
 315,06; 9167,200;  152,312;32629,744;27,75739
 315,66; 9216,301;  161,083;32887,229;27,66967
 316,25; 9085,421;  142,233;32772,640;27,40753
 316,85; 9073,115;  145,775;32723,291;27,40338
 317,44; 9078,822;  162,770;32979,557;27,16918
 318,04; 9022,371;  142,542;33009,774;27,01727
 318,63; 8946,039;  153,469;32982,266;26,78310
 319,22; 8936,204;  177,310;33207,071;26,51819
 319,82; 8858,747;  171,542;33200,582;26,30172
 320,41; 8780,670;  178,234;33238,536;26,02044
 321,01; 8685,549;  187,313;33272,351;25,68604
 321,60; 8729,195;  174,927;33443,038;25,71312
 322,20; 8588,142;  177,466;33333,061;25,36729
 322,79; 8597,748;  202,082;33485,172;25,22502
 323,39; 8476,809;  165,469;33530,501;24,91033
 323,98; 8402,798;  153,620;33516,545;24,72558
 324,58; 8326,479;  168,079;33435,205;24,52391
 325,17; 8216,032;  177,618;33278,600;24,28452
 325,76; 8153,024;  187,927;33051,152;24,23711
 326,36; 7963,215;  145,313;32763,607;23,96784
 326,95; 7905,046;  186,619;32466,503;23,91095
 327,55; 7696,770;  156,850;32186,170;23,54068
 328,14; 7563,582;  155,391;31749,720;23,44785
 328,74; 7442,027;  195,618;31376,561;23,23987
 329,33; 7221,929;  178,852;31015,425;22,84001
 329,92; 7094,103;  158,463;30489,273;22,86665
 330,52; 6914,057;  177,468;29925,383;22,64558
 331,11; 6762,589;  170,542;29424,081;22,53419
 331,71; 6635,784;  174,542;28887,606;22,50279
 332,30; 6409,055;  182,312;28506,244;21,98404
 332,89; 6303,291;  218,928;27953,719;21,93766
 333,49; 6105,286;  188,081;27460,316;21,69681
 334,08; 5983,914;  176,696;27081,896;21,58400
 334,68; 5879,942;  171,003;26621,410;21,58356
 335,27; 5764,813;  183,161;26314,649;21,35987
 335,86; 5649,820;  223,311;26075,312;20,99067
 336,46; 5556,030;  193,699;25908,643;20,85298
 337,05; 5448,494;  168,542;25732,918;20,65355
 337,65; 5355,720;  162,850;25569,915;20,43869
 338,24; 5375,925;  219,466;25604,877;20,31268
 338,83; 5267,594;  188,390;25458,290;20,09982
 339,43; 5205,792;  171,310;25412,557;19,94545
 340,02; 5149,339;  172,464;25321,790;19,78930
 340,61; 5127,884;  166,851;25444,701;19,62601
 341,21; 5095,027;  204,157;25448,022;19,37449
 341,80; 5080,204;  171,080;25342,271;19,50295
 342,40; 5025,957;  182,083;25467,180;19,15703
 342,99; 5019,061;  180,698;25574,489;19,05333
 343,58; 5015,314;  175,929;25701,271;18,95914
 344,18; 4990,663;  183,467;25830,755;18,74348
 344,77; 4980,620;  168,772;26136,507;18,53010
 345,36; 5009,969;  149,850;26424,657;18,49726
 345,96; 5049,101;  199,698;26729,203;18,27928
 346,55; 5091,026;  160,546;27003,111;18,36814
 347,14; 5091,369;  158,160;27333,078;18,15354
 347,74; 5110,810;  153,548;27683,830;18,00658
 348,33; 5197,158;  173,778;28344,770;17,83175
 348,92; 5282,915;  176,857;28888,277;17,78407
 349,52; 5363,304;  143,548;29276,465;17,91704
 350,11; 5365,656;  173,464;29496,100;17,70711
 350,70; 5313,395;  165,774;29591,495;17,49361
 351,29; 5260,463;  167,230;29365,086;17,44386
 351,89; 5257,723;  179,924;29396,697;17,37974
 352,48; 5204,137;  150,235;29408,135;17,27363
 353,07; 5196,098;  175,391;29301,061;17,23808
 353,67; 5157,272;  182,857;29268,573;17,10261
 354,26; 5084,224;  176,007;29055,737;16,99537
 354,85; 5047,527;  170,698;28908,882;16,96986
 355,45; 4979,684;  153,926;28663,239;16,92695
 356,04; 4949,446;  161,238;28584,853;16,84588
 356,63; 4953,571;  195,696;28511,190;16,80308
 357,22; 4872,885;  178,692;28361,920;16,65598
 357,82; 4822,917;  176,462;28098,443;16,64085
 358,41; 4825,028;  188,927;28014,345;16,66139
 359,00; 4744,955;  166,310;27765,985;16,58949
 359,60; 4766,685;  180,159;27791,911;16,61077
 360,19; 4721,293;  174,084;27611,971;16,57274
 360,78; 4683,471;  177,773;27378,597;16,56457
 361,37; 4613,507;  168,080;27240,693;16,42038
 361,97; 4670,150;  183,235;27141,751;16,64378
 362,56; 4562,610;  165,156;26829,884;16,49165
 363,15; 4504,313;  209,773;26604,363;16,27053
 363,74; 4484,185;  175,463;26267,856;16,51332
 364,34; 4434,986;  205,926;25900,000;16,45928
 364,93; 4308,782;  164,694;25431,083;16,40158
 365,52; 4262,435;  149,927;25138,389;16,45763
 366,11; 4223,810;  167,926;24863,643;16,42343
 366,71; 4135,127;  153,926;24456,994;16,38147
 367,30; 4131,951;  168,619;24175,263;16,50931
 367,89; 4130,636;  213,544;23987,128;16,47665
 368,48; 4065,257;  189,925;23639,355;16,52634
 369,07; 3987,395;  174,235;23231,803;16,53756
 369,67; 4003,728;  202,771;22888,593;16,75477
 370,26; 3913,929;  170,389;22698,609;16,61711
 370,85; 3903,041;  177,773;22478,961;16,70435
 371,44; 3829,096;  179,465;22229,877;16,55130
 372,03; 3815,995;  153,695;22038,966;16,73409
 372,63; 3753,630;  150,850;21657,334;16,75206
 373,22; 3748,526;  166,312;21462,867;16,82063
 373,81; 3731,186;  148,157;21068,918;17,12667
 374,40; 3690,591;  162,006;20908,917;17,00776
 374,99; 3655,113;  166,465;20615,301;17,06038
 375,59; 3617,550;  152,083;20347,587;17,15960
 376,18; 3655,657;  190,696;20264,920;17,26075
 376,77; 3610,128;  186,773;20125,702;17,16920
 377,36; 3667,706;  205,619;19963,063;17,52295
 377,95; 3573,430;  181,003;19718,878;17,36334
 378,55; 3600,396;  163,621;19545,659;17,73175
 379,14; 3625,928;  177,004;19552,173;17,80075
 379,73; 3594,118;  176,388;19375,377;17,80162
 380,32; 3614,928;  190,312;19468,102;17,76457
 380,91; 3588,280;  157,232;19352,830;17,87414
 381,50; 3652,031;  188,848;19199,057;18,21749
 382,10; 3618,467;  157,850;19163,486;18,20837
 382,69; 3645,593;  151,773;19078,044;18,46016
 383,28; 3670,117;  190,079;19065,371;18,43700
 383,87; 3643,330;  164,387;18997,516;18,47246
 384,46; 3651,383;  157,077;18908,985;18,63440
 385,05; 3706,484;  193,387;18894,860;18,78514
 385,64; 3701,964;  166,233;18855,797;18,91821
 386,24; 3691,311;  144,462;18790,871;19,02162
 386,83; 3785,985;  195,616;18864,359;19,23198
 387,42; 3798,190;  185,695;18993,065;19,20787
 388,01; 3866,260;  184,999;19167,441;19,39298
 388,60; 3950,940;  184,616;19384,728;19,61616
 389,19; 4002,584;  170,304;19650,927;19,67226
 389,78; 4063,218;  172,228;19769,403;19,85485
 390,37; 4242,509;  229,461;20281,999;20,01267
 390,96; 4271,093;  180,077;20375,492;20,25715
 391,56; 4321,583;  182,457;20481,112;20,39114
 392,15; 4365,394;  163,305;20748,919;20,41275
 392,74; 4448,446;  144,685;20872,859;20,76285
 393,33; 4539,316;  166,303;21235,744;20,75524
 393,92; 4641,512;  172,607;21599,493;20,85653
 394,51; 4706,099;  156,226;21745,211;21,07497
 395,10; 4805,899;  203,449;22005,912;21,10977
 395,69; 4847,239;  189,834;22082,050;21,27425
 396,28; 4915,730;  194,370;22278,926;21,37856
 396,87; 4984,352;  189,674;22327,851;21,65796
 397,46; 5006,346;  194,903;22395,976;21,67212
 398,06; 5118,692;  204,746;22698,731;21,84560
 398,65; 5176,655;  188,200;22681,367;22,17765
 399,24; 5226,528;  200,352;22887,404;22,15438
 399,83; 5232,755;  182,110;22749,864;22,37992
 400,42; 5371,011;  220,254;23035,427;22,57601
 401,01; 5364,433;  189,781;23094,134;22,59244
 401,60; 5448,743;  211,766;23119,590;22,86108
 402,19; 5490,929;  217,369;23112,094;23,03395
 402,78; 5501,676;  228,889;23019,193;23,13610
 403,37; 5546,664;  216,025;22874,577;23,52595
 403,96; 5538,464;  206,927;22765,566;23,63412
 404,55; 5548,370;  221,981;22707,621;23,68796
 405,14; 5570,632;  204,344;22516,338;24,05113
 405,73; 5549,682;  224,473;22495,027;23,91144
 406,32; 5595,413;  221,687;22330,563;24,30574
 406,91; 5562,322;  218,052;22106,316;24,41614
 407,50; 5571,944;  221,658;22007,485;24,55856
 408,09; 5514,424;  192,651;21694,036;24,75084
 408,68; 5534,140;  215,338;21519,842;24,96562
 409,27; 5507,665;  197,652;21360,402;25,09131
 409,86; 5528,503;  207,437;21233,055;25,30754
 410,45; 5577,068;  238,449;21169,855;25,50531
 411,04; 5572,218;  249,770;21139,912;25,47828
 411,63; 5517,981;  229,633;20851,355;25,64455
 412,22; 5537,489;  228,725;20634,154;26,01643
 412,81; 5456,248;  242,654;20402,820;25,86087
 413,40; 5412,801;  254,122;20116,361;25,97229
 413,99; 5415,270;  297,197;19840,419;26,18848
 414,58; 5287,321;  222,814;19381,613;26,43436
 415,17; 5269,746;  226,423;19244,223;26,51896
 415,76; 5266,204;  226,878;19048,351;26,77434
 416,35; 5269,699;  219,728;18952,438;26,95804
 416,94; 5302,901;  247,187;18919,791;27,07557
 417,53; 5431,199;  224,577;19198,185;27,44139
 418,12; 5462,250;  221,502;19256,610;27,53201
 418,71; 5588,928;  240,738;19628,350;27,58560
 419,30; 5641,757;  227,656;19681,062;27,83112
 419,89; 5720,007;  214,888;19818,661;28,08193
 420,48; 5852,742;  238,353;20128,335;28,22722
 421,07; 5882,734;  247,508;20203,804;28,23783
 421,66; 5917,116;  220,434;20201,298;28,51069
 422,25; 5911,446;  218,210;20172,872;28,53086
 422,84; 6010,877;  246,980;20160,447;28,94472
 423,43; 5930,491;  237,593;19881,303;28,98077
 424,02; 5900,328;  259,671;19663,157;29,07033
 424,60; 5788,252;  222,986;19315,964;29,14823
 425,19; 5730,295;  251,982;19050,908;29,14162
 425,78; 5745,087;  248,136;18934,501;29,41691
 426,37; 5747,704;  254,216;18845,491;29,54874
 426,96; 5742,125;  241,293;18690,278;29,81645
 427,55; 5776,001;  224,528;18531,259;30,32476
 428,14; 5680,708;  225,914;18339,747;30,11397
 428,73; 5681,122;  233,142;18150,342;30,40643
 429,32; 5715,595;  245,754;18147,086;30,55550
 429,91; 5761,864;  261,603;18179,330;30,69731
 430,50; 5705,309;  256,682;17992,998;30,72017
 431,08; 5711,736;  259,684;17864,964;30,96828
 431,67; 5685,697;  294,533;17761,465;30,86497
 432,26; 5688,653;  310,073;17587,962;31,12984
 432,85; 5591,426;  324,380;17315,996;30,99791
 433,44; 5528,998;  331,383;16930,504;31,31259
 434,03; 5436,204;  354,387;16581,647;31,31655
 434,62; 5304,134;  319,460;16216,459;31,35607
 435,21; 5297,643;  330,380;16033,955;31,63142
 435,79; 5238,145;  332,154;15856,794;31,60131
 436,38; 5258,287;  310,927;15766,789;32,00960
 436,97; 5235,392;  314,466;15676,846;32,03231
 437,56; 5191,423;  305,164;15540,304;32,07229
 438,15; 5177,191;  288,778;15421,443;32,30372
 438,74; 5227,015;  296,086;15440,861;32,55861
 439,33; 5254,381;  275,470;15433,036;32,84769
 439,91; 5248,061;  243,088;15478,979;32,84989
 440,50; 5316,301;  296,011;15560,986;32,88764
 441,09; 5379,390;  299,938;15607,794;33,18200
 441,68; 5352,329;  277,018;15662,066;32,98859
 442,27; 5357,988;  253,786;15654,574;33,14248
 442,86; 5384,541;  238,716;15607,961;33,48131
 443,44; 5413,558;  248,714;15637,417;33,56257
 444,03; 5493,708;  310,023;15701,546;33,67883
 444,62; 5403,237;  250,870;15600,811;33,56604
 445,21; 5398,232;  267,946;15432,377;33,83105
 445,80; 5399,841;  281,873;15344,067;33,97891
 446,39; 5356,800;  299,410;15123,963;34,11496
 446,97; 5272,726;  246,722;14874,932;34,35830
 447,56; 5180,638;  254,879;14755,921;33,96831
 448,15; 5197,219;  252,645;14532,562;34,62607
 448,74; 5106,405;  264,492;14244,737;34,63397
 449,33; 5040,334;  261,879;14123,571;34,47238
 449,91; 5015,215;  252,652;13966,166;34,72898
 450,50; 4912,572;  248,343;13744,298;34,56020
 451,09; 4979,323;  266,882;13684,832;35,12042
 451,68; 4941,926;  280,345;13522,457;35,20270
 452,26; 4906,217;  278,578;13547,812;34,87495
 452,85; 4863,727;  273,807;13364,749;35,06180
 453,44; 4890,473;  271,120;13391,559;35,20731
 454,03; 4872,444;  258,733;13374,937;35,17566
 454,61; 4850,699;  235,736;13373,868;35,12648
 455,20; 4983,470;  287,891;13551,847;35,40104
 455,79; 4965,780;  275,658;13551,548;35,32812
 456,38; 5008,988;  278,433;13579,250;35,56590
 456,97; 5011,222;  264,509;13634,166;35,50363
 457,55; 5036,513;  259,665;13642,373;35,69419
 458,14; 5067,566;  282,431;13601,600;35,92667
 458,73; 5008,817;  277,357;13568,451;35,59872
 459,31; 5073,851;  297,745;13654,538;35,75788
 459,90; 5124,551;  313,205;13694,602;35,95548
 460,49; 5189,098;  329,896;13738,558;36,23927
 461,08; 5181,820;  267,362;13809,923;36,28899
 461,66; 5184,837;  285,899;13893,722;36,00090
 462,25; 5236,006;  271,132;14016,723;36,11976
 462,84; 5298,200;  305,208;14005,694;36,44391
 463,43; 5228,710;  247,674;13967,110;36,30642
 464,01; 5286,575;  280,522;13983,519;36,53254
 464,60; 5280,352;  319,365;13979,188;36,31809
 465,19; 5193,069;  248,677;13709,314;36,73223
 465,77; 5149,514;  274,755;13711,515;36,27927
 466,36; 5185,950;  298,751;13589,768;36,77069
 466,95; 5042,357;  269,982;13266,515;36,72037
 467,53; 4952,171;  276,526;12990,901;36,77448
 468,12; 4857,701;  299,988;12772,094;36,54325
 468,71; 4795,929;  287,985;12587,940;36,65009
 469,29; 4704,819;  265,604;12368,158;36,67999
 469,88; 4596,150;  265,682;12051,222;36,74391
 470,47; 4721,799;  314,300;12243,422;36,94739
 471,06; 4660,899;  289,070;12169,589;36,79830
 471,64; 4710,066;  293,761;12260,548;36,90468
 472,23; 4671,468;  255,767;12284,308;36,71019
 472,81; 4745,900;  251,534;12391,804;37,02032
 473,40; 4783,925;  273,459;12489,961;36,92109
 473,99; 4900,635;  354,998;12720,662;36,76015
 474,57; 4884,517;  276,690;12800,256;36,79326
 475,16; 4963,588;  291,073;12949,077;36,91353
 475,75; 5012,424;  299,538;13052,077;36,95645
 476,33; 5061,643;  299,925;13155,518;37,04005
 476,92; 5085,559;  304,306;13162,129;37,18555
 477,51; 5103,760;  304,155;13255,104;37,05987
 478,09; 5083,334;  303,309;13252,200;36,91456
 478,68; 5088,982;  299,002;13219,379;37,07307
 479,27; 5126,745;  320,308;13271,124;37,11301
 479,85; 5100,738;  288,848;13239,870;37,15451
 480,44; 5144,213;  283,157;13366,235;37,15530
 481,02; 5707,387;  290,005;14754,419;37,45317
 481,61; 6433,834;  325,850;16683,557;37,34010
 482,20; 6820,586;  317,543;17730,327;37,34637
 482,78; 7099,942;  348,310;18494,941;37,20598
 483,37; 7296,746;  335,854;18984,669;37,32619
 483,95; 7389,511;  353,470;19260,097;37,21468
 484,54; 7498,992;  369,773;19392,478;37,47742
 485,13; 7425,337;  332,088;19375,073;37,24862
 485,71; 7307,458;  309,856;19113,433;37,21421
 486,30; 7248,956;  357,395;18821,298;37,32451
 486,88; 7157,228;  370,011;18444,864;37,55061
 487,47; 6849,038;  364,088;17768,276;37,26086
 488,05; 6569,446;  355,936;16968,991;37,40137
 488,64; 6109,453;  353,784;15692,364;37,52413
 489,23; 5418,913;  361,705;13908,077;37,33256
 489,81; 4637,741;  352,168;11955,421;36,93424
 490,40; 4407,280;  318,014;11421,657;36,82815
 490,98; 4304,761;  295,861;11187,985;36,80549
 491,57; 4281,574;  328,552;11109,257;36,66756
 492,15; 4241,630;  303,862;11034,039;36,69807
 492,74; 4244,198;  314,320;10925,792;37,03423
 493,32; 4197,711;  332,015;10825,227;36,83996
 493,91; 4140,287;  300,478;10721,071;36,84827
 494,50; 4123,416;  311,790;10703,486;36,67954
 495,08; 4078,212;  291,175;10638,266;36,60002
 495,67; 4106,060;  326,940;10584,531;36,84218
 496,25; 4014,460;  277,250;10557,794;36,35226
 496,84; 4025,404;  275,170;10500,201;36,67699
 497,42; 4013,976;  272,250;10466,406;36,70462
 498,01; 4012,201;  308,248;10427,105;36,60446
 498,59; 3957,587;  266,558;10334,408;36,66154
 499,18; 3943,065;  264,402;10265,002;36,78443
 499,76; 3903,813;  287,327;10243,240;36,32501
 500,35; 3808,000;  276,099;10056,250;36,11295
 500,93; 3812,953;  259,481; 9968,316;36,60040
 501,52; 3815,311;  266,097; 9884,961;36,89848
 502,10; 3779,897;  281,177; 9934,100;36,24519
 502,69; 3693,496;  259,948; 9763,568;36,12884
 503,27; 3641,208;  252,713; 9606,114;36,22741
 503,86; 3617,337;  259,870; 9496,559;36,34924
 504,44; 3539,053;  247,795; 9379,008;36,04404
 505,03; 3422,447;  231,718; 9135,436;35,83591
 505,61; 3406,767;  251,564; 9042,821;35,89024
 506,19; 3328,442;  272,410; 8919,817;35,34044
 506,78; 3265,688;  232,336; 8719,356;35,74107
 507,36; 3210,378;  254,564; 8571,746;35,53866
 507,95; 3173,078;  257,338; 8427,565;35,68739
 508,53; 3135,865;  241,875; 8388,713;35,52286
 509,12; 3050,395;  263,491; 8199,757;35,11606
 509,70; 3058,002;  277,569; 8024,683;35,88992
 510,29; 2993,328;  274,724; 7912,708;35,59322
 510,87; 2894,539;  238,567; 7741,088;35,40106
 511,46; 2846,100;  253,414; 7570,645;35,43262
 512,04; 2793,337;  250,646; 7473,356;35,20411
 512,62; 2734,137;  245,875; 7322,433;35,16203
 513,21; 2659,736;  237,570; 7160,798;34,98608
 513,79; 2639,911;  237,113; 7046,664;35,28570
 514,38; 2551,973;  230,650; 6937,217;34,61269
 514,96; 2546,100;  271,727; 6821,508;34,72441
 515,54; 2484,897;  230,958; 6697,648;34,85459
 516,13; 2462,951;  262,497; 6637,101;34,51907
 516,71; 2392,405;  239,345; 6444,079;34,70028
 517,30; 2346,397;  234,809; 6385,554;34,33061
 517,88; 2311,777;  255,808; 6315,627;33,92789
 518,46; 2249,013;  241,425; 6188,138;33,75963
 519,05; 2237,942;  248,811; 6157,963;33,66187
 519,63; 2252,190;  250,194; 6109,772;34,16621
 520,22; 2227,079;  253,197; 6020,861;34,22324
 520,80; 2178,482;  239,890; 5976,604;33,79272
 521,38; 2169,643;  275,118; 5973,970;33,24397
 521,97; 2137,872;  241,122; 5909,274;33,46328
 522,55; 2128,845;  249,660; 5887,376;33,33237
 523,13; 2104,207;  233,969; 5889,875;33,06699
 523,72; 2100,316;  250,040; 5842,673;33,08417
 524,30; 2183,534;  258,816; 6010,167;33,46549
 524,89; 2125,044;  225,199; 6014,248;32,81791
 525,47; 2189,675;  252,586; 6105,089;33,09846
 526,05; 2157,277;  216,048; 6127,663;32,83753
 526,64; 2204,956;  245,434; 6251,934;32,62336
 527,22; 2234,245;  265,586; 6371,874;32,23986
 527,80; 2289,155;  292,049; 6477,417;32,28759
 528,39; 2250,151;  237,127; 6572,541;31,77415
 528,97; 2305,626;  238,511; 6705,850;31,96237
 529,55; 2366,225;  261,354; 6871,423;31,84341
 530,14; 2434,093;  276,666; 7049,828;31,85258
 530,72; 2438,431;  251,049; 7155,484;31,68083
 531,30; 2441,419;  234,589; 7274,494;31,34744
 531,89; 2465,631;  258,666; 7329,638;31,21163
 532,47; 2532,854;  284,744; 7367,872;31,73894
 533,05; 2503,273;  283,203; 7460,398;30,93228
 533,63; 2550,021;  288,513; 7504,575;31,33992
 534,22; 2501,741;  251,744; 7557,781;30,79640
 534,80; 2561,932;  282,439; 7624,205;31,04830
 535,38; 2592,695;  352,282; 7757,212;30,25570
 535,97; 2520,677;  269,359; 7665,361;30,43966
 536,55; 2582,883;  320,054; 7738,914;30,50103
 537,13; 2529,618;  315,820; 7763,976;29,72276
 537,71; 2557,369;  360,358; 7797,618;29,54059
 538,30; 2567,895;  375,360; 7853,904;29,31767
 538,88; 2609,997;  412,979; 7969,256;29,07540
 539,46; 2668,444;  474,900; 8121,076;28,68811
 540,05; 2690,870;  487,055; 8267,185;28,32619
 540,63; 2734,702;  529,747; 8429,026;27,91337
 541,21; 2758,481;  565,902; 8567,890;27,40043
 541,79; 2768,233;  608,210; 8638,880;26,89716
 542,38; 2802,313;  637,516; 8826,904;26,43417
 542,96; 2845,890;  640,981; 8990,841;26,40654
 543,54; 2905,703;  654,595; 9152,882;26,48896
 544,12; 2912,622;  639,441; 9316,540;26,19747
 544,70; 2897,152;  606,827; 9383,128;26,09670
 545,29; 2955,127;  609,439; 9530,274;26,29449
 545,87; 2967,079;  604,826; 9507,342;26,53467
 546,45; 2926,154;  556,978; 9574,439;26,27321
 547,03; 2940,047;  520,286; 9587,665;26,68644
 547,62; 2967,147;  491,133; 9758,186;26,71846
 548,20; 3001,419;  497,981; 9886,142;26,66591
 548,78; 3025,693;  456,754; 9964,744;27,01874
 549,36; 3077,055;  423,984;10197,228;27,14627
 549,94; 3059,260;  388,980;10269,440;27,02587
 550,53; 3116,552;  402,907;10455,739;26,99384
 551,11; 3112,576;  366,139;10633,732;26,74860
 551,69; 3187,213;  370,753;10900,806;26,74687
 552,27; 3212,289;  337,060;11133,021;26,63245
 552,85; 3304,617;  340,832;11487,328;26,58939
 553,44; 3359,399;  336,061;11749,436;26,48943
 554,02; 3447,671;  357,216;12100,310;26,31721
 554,60; 3448,355;  289,832;12357,816;26,17275
 555,18; 3588,883;  332,754;12654,911;26,42500
 555,76; 3594,988;  318,985;12952,815;25,93040
 556,34; 3720,709;  312,756;13377,508;26,08509
 556,93; 3804,974;  298,600;13673,035;26,21699
 557,51; 3828,301;  285,141;13978,537;25,87496
 558,09; 3947,177;  316,292;14352,367;25,86824
 558,67; 3978,637;  306,527;14678,948;25,54970
 559,25; 4078,089;  319,603;14952,243;25,68563
 559,83; 4117,742;  304,297;15233,088;25,54423
 560,41; 4153,306;  291,756;15567,263;25,27935
 561,00; 4251,578;  307,219;15895,804;25,30287
 561,58; 4291,215;  295,294;16100,832;25,28178
 562,16; 4337,296;  288,139;16420,784;25,09915
 562,74; 4391,467;  273,523;16733,363;25,01813
 563,32; 4446,860;  265,759;17138,608;24,78005
 563,90; 4542,415;  307,142;17441,068;24,71864
 564,48; 4628,518;  299,832;17811,095;24,71944
 565,06; 4779,175;  290,527;18441,061;24,73012
 565,65; 4875,273;  287,376;19066,758;24,43050
 566,23; 5051,913;  338,604;19715,164;24,32480
 566,81; 5162,899;  290,372;20393,994;24,23706
 567,39; 5356,887;  295,221;21244,127;24,16196
 567,97; 5481,510;  304,142;21778,226;24,10984
 568,55; 5661,479;  326,759;22585,878;23,96645
 569,13; 5759,583;  294,373;23217,961;23,84099
 569,71; 5965,798;  284,216;24067,688;23,88878
 570,29; 6144,467;  330,984;25005,357;23,56081
 570,87; 6293,246;  332,524;25684,447;23,51191
 571,45; 6389,334;  314,450;26317,295;23,36238
 572,03; 6434,159;  270,683;26711,575;23,31039
 572,61; 6592,742;  285,297;27360,047;23,29641
 573,20; 6699,989;  315,449;27919,651;23,12887
 573,78; 6781,099;  293,066;28598,728;22,92133
 574,36; 6828,533;  312,604;29027,362;22,69192
 574,94; 6966,661;  367,683;29348,869;22,76987
 575,52; 6904,147;  314,993;29622,985;22,48245
 576,10; 7075,880;  368,839;30101,802;22,55759
 576,68; 7133,516;  350,606;30665,907;22,37454
 577,26; 7199,913;  368,533;31195,417;22,16046
 577,84; 7307,728;  370,066;31790,538;22,08007
 578,42; 7371,182;  406,915;31996,906;22,04580
 579,00; 7323,493;  370,066;32069,155;21,93573
 579,58; 7333,861;  399,145;32314,777;21,72827
 580,16; 7310,658;  375,915;32434,378;21,63155
 580,74; 7252,938;  376,377;32448,444;21,44097
 581,32; 7205,368;  381,068;32557,110;21,20926
 581,90; 7212,843;  400,146;32515,932;21,21292
 582,48; 7197,513;  394,607;32594,883;21,12685
 583,06; 7142,539;  402,606;32782,310;20,81530
 583,64; 7224,489;  401,452;32858,398;21,02181
 584,22; 7108,080;  405,994;32602,494;20,81619
 584,80; 6996,467;  405,915;32445,241;20,57020
 585,38; 6857,473;  422,833;32054,582;20,34235
 585,96; 6844,738;  393,067;32147,397;20,31745
 586,54; 6784,021;  413,532;32050,345;20,13632
 587,12; 6806,047;  382,916;32247,541;20,15756
 587,70; 6758,018;  417,836;32301,539;19,88534
 588,28; 6728,242;  390,916;32379,522;19,81120
 588,86; 6655,346;  384,762;32493,734;19,52907
 589,44; 6668,597;  374,996;32468,964;19,60992
 590,02; 6593,461;  379,303;32622,004;19,27307
 590,59; 6579,283;  352,840;32890,283;19,13624
 591,17; 6642,386;  360,844;33036,886;19,22369
 591,75; 6604,412;  356,843;33156,882;19,04744
 592,33; 6587,701;  371,304;33354,211;18,84733
 592,91; 6623,653;  310,459;33555,089;18,99011
 593,49; 6589,006;  333,460;33842,587;18,66819
 594,07; 6603,576;  344,768;34059,679;18,56392
 594,65; 6631,636;  352,455;33987,463;18,66859
 595,23; 6627,166;  353,533;34362,009;18,44726
 595,81; 6573,429;  333,457;34528,224;18,24833
 596,39; 6613,307;  333,073;34613,281;18,32029
 596,97; 6595,404;  339,459;34856,464;18,12424
 597,55; 6591,822;  341,225;34775,216;18,15240
 598,12; 6500,577;  316,846;34640,725;18,01583
 598,70; 6488,413;  319,306;34828,743;17,87658
 599,28; 6488,056;  330,152;35007,719;17,75760
 599,86; 6469,246;  313,844;34973,927;17,75934
 600,44; 6440,852;  294,076;35219,777;17,59958
 601,02; 6470,393;  334,079;35207,156;17,59614
 601,60; 6356,227;  327,151;35108,636;17,33415
 602,18; 6315,007;  301,846;35161,284;17,24974
 602,75; 6312,995;  303,072;35169,082;17,23720
 603,33; 6279,843;  319,229;35224,113;17,07673
 603,91; 6242,573;  313,001;35227,234;16,98325
 604,49; 6224,694;  330,229;35311,501;16,85034
 605,07; 6148,991;  326,074;35312,786;16,64323
 605,65; 6160,658;  353,384;35453,683;16,54480
 606,23; 6157,545;  395,147;35653,718;16,34326
 606,80; 6140,131;  462,303;35590,688;16,16308
 607,38; 6098,157;  492,693;35651,676;15,94319
 607,96; 6128,854;  550,149;35737,319;15,85437
 608,54; 6075,409;  623,230;35673,519;15,55530
 609,12; 6024,388;  603,611;35783,818;15,40860
 609,70; 6060,865;  649,229;35832,813;15,38114
 610,27; 6011,691;  652,149;35920,081;15,19665
 610,85; 5982,775;  664,305;35938,074;15,07769
 611,43; 5950,327;  661,921;35914,162;15,00162
 612,01; 5812,425;  632,996;35657,077;14,78819
 612,59; 5821,010;  630,306;35736,539;14,78571
 613,16; 5752,713;  593,917;35683,581;14,70175
 613,74; 5694,178;  564,460;35521,319;14,67442
 614,32; 5666,635;  528,153;35566,018;14,66551
 614,90; 5610,675;  470,459;35343,594;14,73976
 615,48; 5536,139;  428,610;35089,336;14,73578
 616,05; 5494,822;  397,224;35099,324;14,68959
 616,63; 5471,966;  402,454;34784,311;14,74473
 617,21; 5398,913;  402,764;34824,960;14,51432
 617,79; 5371,651;  378,919;34725,299;14,53642
 618,36; 5320,588;  389,997;34671,700;14,38258
 618,94; 5250,678;  333,764;34370,147;14,44605
 619,52; 5171,541;  353,839;34089,679;14,28066
 620,10; 5144,280;  342,611;34056,956;14,24221
 620,67; 5119,455;  344,762;33898,672;14,22991
 621,25; 5074,294;  370,689;33852,516;14,04823
 621,83; 5005,533;  345,764;33770,420;13,94111
 622,41; 5022,211;  389,610;33837,758;13,85010
 622,98; 4917,844;  363,454;33668,096;13,67494
 623,56; 4921,174;  353,377;33540,488;13,76377
 624,14; 4864,064;  325,536;33369,870;13,73466
 624,72; 4846,727;  345,533;33240,633;13,68348
 625,29; 4794,047;  315,916;33394,233;13,53797
 625,87; 4814,746;  365,150;33393,232;13,47216
 626,45; 4739,210;  315,684;33170,425;13,46389
 627,02; 4674,479;  332,842;33123,946;13,24029
 627,60; 4661,884;  312,460;33135,253;13,25123
 628,18; 4642,465;  302,995;33174,356;13,20137
 628,76; 4619,432;  302,993;33091,623;13,16444
 629,33; 4614,510;  324,379;33200,941;13,04921
 629,91; 4579,049;  321,918;33119,956;12,97983
 630,49; 4592,315;  334,686;33238,877;12,93947
 631,06; 4551,645;  324,839;33363,193;12,79363
 631,64; 4541,260;  331,377;33310,413;12,76533
 632,22; 4481,069;  294,684;33229,231;12,71123
 632,79; 4494,019;  313,607;33484,975;12,60247
 633,37; 4528,557;  295,227;33515,567;12,74319
 633,95; 4491,839;  298,607;33615,584;12,58587
 634,52; 4453,220;  283,533;33701,571;12,47736
 635,10; 4440,271;  292,764;33721,334;12,40707
 635,68; 4453,309;  286,068;33895,120;12,39916
 636,25; 4393,416;  269,528;33825,119;12,28972
 636,83; 4425,201;  269,993;34157,007;12,26195
 637,41; 4383,345;  273,068;34157,441;12,13030
 637,98; 4412,005;  305,837;34289,462;12,08278
 638,56; 4402,936;  302,143;34357,566;12,04153
 639,13; 4344,685;  275,300;34443,400;11,90990
 639,71; 4388,613;  325,147;34583,409;11,86127
 640,29; 4285,543;  257,070;34377,977;11,80646
 640,86; 4297,288;  265,378;34505,459;11,77541
 641,44; 4262,571;  279,917;34433,864;11,66089
 642,02; 4298,009;  294,455;34588,884;11,67406
 642,59; 4265,754;  276,840;34663,058;11,60033
 643,17; 4257,191;  268,532;34715,540;11,57912
 643,74; 4226,321;  270,071;34605,329;11,52241
 644,32; 4241,758;  292,763;34656,350;11,49180
 644,89; 4213,811;  282,994;34640,985;11,44076
 645,47; 4184,017;  302,994;34616,005;11,31065
 646,05; 4155,378;  293,610;34608,026;11,25407
 646,62; 4150,046;  283,840;34572,969;11,27531
 647,20; 4152,944;  281,994;34689,451;11,25032
 647,77; 4070,382;  259,148;34582,548;11,10389
 648,35; 4063,819;  254,610;34426,953;11,14705
 648,92; 4031,949;  289,764;34584,434;10,91186
 649,50; 3983,078;  244,687;34387,685;10,94922
 650,08; 3919,746;  257,225;34360,244;10,73958
 650,65; 3953,645;  260,379;34672,110;10,73258
 651,23; 3989,852;  245,149;35465,054;10,63235
 651,80; 4094,520;  253,841;36224,920;10,67713
 652,38; 4140,419;  262,149;36596,940;10,67371
 652,95; 4177,549;  237,918;36848,499;10,76091
 653,53; 4161,601;  256,611;37080,519;10,60450
 654,10; 4220,115;  292,380;37233,693;10,63237
 654,68; 4170,014;  246,995;37266,483;10,59717
 655,25; 4153,606;  243,380;37201,272;10,58022
 655,83; 4127,351;  242,842;37430,369;10,44573
 656,40; 4165,403;  269,534;37324,466;10,51377
 656,98; 4131,917;  258,611;37258,641;10,46839
 657,55; 4105,970;  260,073;37055,353;10,45215
 658,13; 4045,100;  248,996;36718,219;10,40906
 658,70; 3983,691;  269,688;36423,778;10,27270
 659,28; 3886,205;  255,073;35604,183;10,27220
 659,85; 3799,720;  265,227;34891,895;10,20743
 660,43; 3804,618;  273,304;34953,839;10,18241
 661,00; 3785,902;  243,150;35105,090;10,16223
 661,58; 3801,339;  247,227;35396,956;10,11135
 662,15; 3794,161;  244,381;35524,746;10,06163
 662,73; 3856,060;  310,073;35886,997; 9,96710
 663,30; 3840,036;  251,766;36023,017;10,03116
 663,88; 3848,396;  257,150;36221,268; 9,98564
 664,45; 3802,603;  259,304;36345,750; 9,81892
 665,03; 3885,886;  247,535;36732,462; 9,97220
 665,60; 3936,247;  326,228;37169,790; 9,79824
 666,17; 3907,684;  257,459;37191,272; 9,88315
 666,75; 3892,198;  252,151;37496,523; 9,77342
 667,32; 3941,943;  279,766;37793,389; 9,76226
 667,90; 3951,534;  266,997;37992,563; 9,76668
 668,47; 3922,049;  271,305;38275,968; 9,60604
 669,05; 3962,409;  254,613;38491,373; 9,69694
 669,62; 3927,846;  241,305;38653,008; 9,59744
 670,19; 3931,745;  241,767;38690,567; 9,59712
 670,77; 3958,721;  255,382;38869,587; 9,59061
 671,34; 3925,928;  251,305;38826,454; 9,52588
 671,92; 3971,673;  238,152;39184,243; 9,58638
 672,49; 3969,648;  272,459;39123,802; 9,51625
 673,06; 3914,470;  212,767;39219,361; 9,48994
 673,64; 3914,061;  223,844;39275,227; 9,44965
 674,21; 3894,960;  235,614;39186,401; 9,39480
 674,79; 3932,782;  263,306;39349,267; 9,38822
 675,36; 3985,604;  276,537;39505,595; 9,45490
 675,93; 3894,811;  227,229;39329,231; 9,37952
 676,51; 3907,325;  265,306;39550,559; 9,27070
 677,08; 3951,532;  256,383;39663,502; 9,37686
 677,65; 3934,430;  243,383;39751,830; 9,34243
 678,23; 3949,406;  251,614;40022,850; 9,29765
 678,80; 3959,305;  253,153;40032,409; 9,31680
 679,38; 3964,435;  245,307;40115,352; 9,32813
 679,95; 3987,257;  257,153;40459,911; 9,27823
 680,52; 4011,771;  239,153;40731,393; 9,31689
 681,10; 4031,978;  255,691;41077,028; 9,25077
 681,67; 4074,492;  263,845;41356,279; 9,27335
 682,24; 4044,083;  231,768;41411,915; 9,25765
 682,82; 4135,828;  234,384;41947,858; 9,35296
 683,39; 4135,573;  276,999;42202,032; 9,20351
 683,96; 4179,241;  254,846;42377,822; 9,31652
 684,54; 4177,140;  230,769;42724,457; 9,28696
 685,11; 4233,270;  273,000;43057,862; 9,25624
 685,68; 4250,322;  248,461;43332,651; 9,28847
 686,25; 4234,683;  238,538;43518,364; 9,23327
 686,83; 4240,120;  239,231;43610,846; 9,22467
 687,40; 4300,403;  232,154;43866,097; 9,32359
 687,97; 4354,610;  268,154;44327,425; 9,27491
 688,55; 4320,355;  218,154;44330,599; 9,29942
 689,12; 4310,331;  212,385;44561,619; 9,24017
 689,69; 4346,230;  220,846;44695,101; 9,27589
 690,26; 4375,205;  234,847;44697,121; 9,31207
 690,84; 4349,412;  234,385;44863,680; 9,22046
 691,41; 4375,926;  261,462;44960,084; 9,20490
 691,98; 4410,979;  249,693;45226,028; 9,25217
 692,56; 4390,724;  237,616;45337,356; 9,20872
 693,13; 4430,931;  302,539;45392,145; 9,15597
 693,70; 4418,060;  262,462;45500,165; 9,18614
 694,27; 4442,728;  232,770;45653,570; 9,26879
 694,84; 4422,473;  232,232;45790,744; 9,19749
 695,42; 4447,295;  289,078;45798,995; 9,13695
 695,99; 4487,194;  248,924;46022,169; 9,25927
 696,56; 4431,170;  250,694;45882,420; 9,16134
 697,13; 4518,453;  259,232;46260,748; 9,25887
 697,71; 4471,506;  224,848;46288,538; 9,21910
 698,28; 4518,943;  250,155;46692,866; 9,19151
 698,85; 4482,535;  206,463;46700,193; 9,19709
 699,42; 4546,972;  219,232;46809,829; 9,28887
 699,99; 4560,717;  257,156;46980,234; 9,21078
 700,57; 4573,693;  249,386;46888,100; 9,27192
 701,14; 4576,515;  239,002;47039,813; 9,26803
 701,71; 4602,106;  253,848;47261,679; 9,25007
 702,28; 4615,082;  244,002;47341,930; 9,28083
 702,85; 4625,442;  253,079;47365,643; 9,28067
 703,43; 4651,726;  268,079;47528,201; 9,27557
 704,00; 4678,394;  279,002;47766,606; 9,26429
 704,57; 4684,369;  263,079;47766,011; 9,30740
 705,14; 4738,422;  282,541;48108,570; 9,31685
 705,71; 4715,552;  286,233;48083,667; 9,26685
 706,28; 4744,451;  261,772;47955,379; 9,39891
 706,86; 4799,426;  302,464;48164,630; 9,39565
 707,43; 4778,710;  306,234;48130,958; 9,35181
 708,00; 4759,070;  294,695;48135,440; 9,33174
 708,57; 4767,738;  260,541;48105,614; 9,42040
 709,14; 4837,560;  288,849;48148,327; 9,50431
 709,71; 4829,613;  269,926;48357,424; 9,48206
 710,28; 4863,897;  272,926;48525,521; 9,51445
 710,86; 4870,949;  266,926;48618,772; 9,52192
 711,43; 4919,617;  290,234;48594,177; 9,58386
 712,00; 4931,824;  267,850;48651,812; 9,63950
 712,57; 4967,107;  287,542;48726,140; 9,66082
 713,14; 4976,083;  257,619;48840,468; 9,71220
 713,71; 4948,674;  269,542;48676,950; 9,66615
 714,28; 4987,804;  265,081;48751,893; 9,74022
 714,85; 4989,395;  241,004;48550,683; 9,82907
 715,42; 5028,371;  258,312;48729,241; 9,84107
 716,00; 5108,193;  311,081;48896,646; 9,87353
 716,57; 5072,246;  250,466;49013,513; 9,88818
 717,14; 5090,683;  233,158;48930,994; 9,97483
 717,71; 5099,428;  227,158;49031,553; 9,98326
 718,28; 5188,865;  268,389;49097,727;10,07688
 718,85; 5166,610;  238,158;49183,055;10,06939
 719,42; 5185,125;  260,928;49361,075;10,02888
 719,99; 5182,254;  244,851;49265,019;10,07219
 720,56; 5211,768;  256,389;49440,346;10,07519
 721,13; 5266,283;  248,159;49581,828;10,17180
 721,70; 5220,720;  232,390;49450,002;10,13525
 722,27; 5268,927;  257,467;49351,330;10,20792
 722,84; 5336,441;  293,697;49525,504;10,24286
 723,41; 5310,032;  241,082;49513,524;10,28760
 723,98; 5300,854;  260,698;49721,468;10,19021
 724,55; 5374,522;  266,390;49713,411;10,33052
 725,12; 5334,498;  203,313;49721,354;10,36225
 725,69; 5407,320;  239,621;49901,605;10,40574
 726,27; 5387,142;  256,390;49959,779;10,32274
 726,84; 5454,733;  263,775;50291,261;10,37621
 727,41; 5478,478;  256,390;50250,743;10,44535
 727,98; 5543,684;  265,929;50505,840;10,50511
 728,55; 5582,429;  289,314;50426,399;10,55729
 729,12; 5533,251;  228,006;50565,957;10,53926
 729,69; 5625,073;  274,929;50800,824;10,58892
 730,26; 5627,741;  268,622;50876,998;10,58939
 730,82; 5640,871;  256,929;50642,403;10,68550
 731,39; 5683,616;  255,852;50879,115;10,72188
 731,96; 5717,284;  238,468;51237,597;10,74296
 732,53; 5748,414;  272,237;51323,463;10,72683
 733,10; 5800,851;  278,314;51434,330;10,79548
 733,67; 5806,750;  258,545;51656,504;10,79460
 734,24; 5802,572;  243,622;51308,986;10,88595
 734,81; 5885,778;  269,930;51450,467;10,97263
 735,38; 5814,985;  263,468;51176,949;10,90382
 735,95; 5852,499;  246,776;51183,662;11,00523
 736,52; 5881,783;  268,545;51265,605;11,00698
 737,09; 5873,220;  267,853;50929,471;11,06433
 737,66; 5912,427;  303,392;51058,261;11,05123
 738,23; 5948,018;  277,007;51168,973;11,14323
 738,80; 6046,532;  311,469;51444,993;11,21586
 739,37; 6031,739;  288,238;51629,552;11,18690
 739,94; 6050,561;  272,084;51594,419;11,25918
 740,51; 6163,075;  351,469;51751,593;11,30660
 741,07; 6105,666;  265,777;51608,305;11,37437
 741,64; 6178,949;  280,777;51832,633;11,44124
 742,21; 6161,156;  258,469;51879,115;11,43474
 742,78; 6140,978;  236,162;51746,520;11,46336
 743,35; 6233,800;  251,470;51908,155;11,58094
 743,92; 6268,930;  300,393;52145,329;11,51229
 744,49; 6263,213;  272,700;52005,119;11,57980
 745,06; 6296,650;  252,624;51929,370;11,69583
 745,63; 6290,395;  238,854;51907,159;11,71229
 746,19; 6304,987;  252,162;51980,949;11,70108
 746,76; 6368,347;  265,932;51939,353;11,80958
 747,33; 6416,861;  264,778;51974,835;11,89727
 747,90; 6451,299;  273,778;52208,009;11,89489
 748,47; 6426,890;  271,701;52144,183;11,86600
 749,04; 6496,712;  271,470;52129,819;12,00432
 749,61; 6530,995;  291,086;52025,916;12,06133
 750,17; 6547,048;  286,240;52168,859;12,06726
 750,74; 6550,793;  271,932;52000,957;12,13798
 751,31; 6545,461;  252,163;51940,592;12,17545
 751,88; 6545,360;  237,855;51827,074;12,22640
 752,45; 6627,874;  259,932;52112,556;12,28085
 753,02; 6594,850;  271,009;51839,345;12,26303
 753,58; 6635,672;  247,625;51722,519;12,41002
 754,15; 6666,955;  258,163;51863,309;12,41890
 754,72; 6619,162;  239,548;51584,713;12,42496
 755,29; 6628,291;  246,471;51476,426;12,45720
 755,86; 6716,190;  262,779;51546,908;12,58364
 756,42; 6795,012;  262,318;51534,928;12,74110
 756,99; 6699,065;  220,471;51381,717;12,66309
 757,56; 6737,579;  241,087;51421,661;12,69328
 758,13; 6723,324;  198,702;51274,373;12,77442
 758,70; 6806,608;  228,010;51322,778;12,87529
 759,26; 6802,430;  222,318;51420,568;12,85222
 759,83; 6852,021;  232,164;51531,126;12,90447
 760,40; 6819,150;  217,549;51386,454;12,90159
 760,97; 6864,511;  197,703;51441,244;13,01005
 761,53; 6852,487;  186,164;51057,187;13,10436
 762,10; 6846,539;  186,780;51068,976;13,08858
 762,67; 6930,746;  223,857;51064,766;13,19191
 763,24; 6820,722;  184,549;50673,940;13,14370
 763,80; 6907,928;  216,703;50865,422;13,21105
 764,37; 6893,827;  221,549;50747,211;13,20572
 764,94; 6899,572;  202,088;50275,770;13,37526
 765,50; 6867,471;  206,934;50332,405;13,28773
 766,07; 6927,370;  251,396;50402,426;13,31174
 766,64; 6929,576;  211,396;50035,061;13,48391
 767,21; 6934,706;  214,627;50003,466;13,49716
 767,77; 7002,605;  236,473;49955,025;13,60887
 768,34; 6966,196;  243,473;49880,968;13,54364
 768,91; 7025,326;  255,627;49750,142;13,67767
 769,47; 7019,378;  249,781;49773,162;13,66950
 770,04; 7030,200;  244,243;49757,952;13,70521
 770,61; 7020,099;  229,704;49299,203;13,83832
 771,18; 7009,998;  224,704;49269,531;13,83488
 771,74; 7065,359;  242,089;49485,474;13,85622
 772,31; 7056,642;  245,089;49168,648;13,92285
 772,88; 7053,310;  219,474;49048,130;13,99554
 773,44; 7036,901;  223,320;48829,073;14,01806
 774,01; 7101,185;  236,397;48924,247;14,09959
 774,58; 7114,468;  222,705;48550,190;14,26055
 775,14; 7165,059;  215,474;48706,211;14,33178
 775,71; 7130,804;  226,782;48668,000;14,25237
 776,27; 7213,088;  270,628;48617,328;14,35974
 776,84; 7296,064;  292,090;48585,271;14,50303
 777,41; 7209,732;  242,090;48367,830;14,47799
 777,97; 7136,015;  234,321;48133,389;14,40883
 778,54; 7244,991;  236,552;48140,178;14,63029
 779,11; 7276,890;  264,013;48163,583;14,64079
 779,67; 7262,173;  233,475;48114,988;14,67936
 780,24; 7256,072;  244,244;47944,931;14,69964
 780,80; 7275,202;  261,706;47863,105;14,73380
 781,37; 7285,101;  251,090;47772,895;14,80165
 781,94; 7302,846;  239,398;47618,299;14,90842
 782,50; 7315,822;  255,629;47480,012;14,95031
 783,07; 7352,951;  276,475;47663,263;14,93344
 783,63; 7301,312;  222,706;47381,129;15,01027
 784,20; 7348,210;  262,398;47373,457;15,04066
 784,77; 7331,032;  251,168;47123,939;15,10443
 785,33; 7340,624;  214,860;46988,113;15,23470
 785,90; 7383,676;  236,706;47031,210;15,27310
 786,46; 7389,344;  255,707;46798,846;15,32694
 787,03; 7429,397;  228,553;46779,251;15,46882
 787,59; 7434,758;  231,322;46570,886;15,54489
 788,16; 7490,118;  246,322;46619,291;15,62073
 788,73; 7422,248;  259,091;46442,004;15,51040
 789,29; 7467,300;  252,553;46130,793;15,72586
 789,86; 7493,430;  255,707;46001,659;15,82156
 790,42; 7466,867;  253,476;45925,526;15,79388
 790,99; 7485,074;  255,784;45600,931;15,94281
 791,55; 7491,665;  238,476;45557,258;16,00482
 792,12; 7507,948;  254,323;45499,663;16,03176
 792,68; 7510,770;  247,323;45235,991;16,14506
 793,25; 7478,054;  262,861;44989,011;16,13193
 793,81; 7528,107;  299,246;44741,032;16,26591
 794,38; 7429,852;  228,015;44555,052;16,24705
 794,94; 7497,289;  233,708;44329,457;16,47229
 795,51; 7437,188;  252,554;44151,477;16,36631
 796,07; 7466,010;  241,093;43886,036;16,55385
 796,64; 7490,139;  255,785;43947,364;16,55778
 797,20; 7453,115;  240,939;43487,615;16,67683
 797,77; 7401,937;  225,939;43314,327;16,65413
 798,33; 7416,451;  235,324;43127,963;16,74210
 798,90; 7447,043;  264,939;42981,214;16,81351
 799,46; 7371,095;  252,401;42522,772;16,84086
 800,03; 7348,071;  250,708;42570,485;16,77079
 800,59; 7363,816;  264,247;42334,890;16,87535
 801,15; 7364,407;  259,709;42172,064;16,95132
 801,72; 7319,998;  258,709;41768,699;17,01106
 802,28; 7306,974;  272,247;41590,027;17,02591
 802,85; 7286,642;  248,324;41492,047;17,06519
 803,41; 7301,849;  249,940;41365,375;17,15149
 803,98; 7215,132;  245,632;40917,857;17,13577
 804,54; 7208,031;  249,863;40654,800;17,22108
 805,11; 7218,545;  245,478;40385,513;17,37185
 805,67; 7268,829;  271,402;40373,687;17,44895
 806,23; 7198,805;  250,863;39949,246;17,50183
 806,80; 7179,319;  270,940;39863,343;17,44875
 807,36; 7243,833;  275,863;39837,132;17,61311
 807,93; 7265,578;  277,402;39479,229;17,82615
 808,49; 7208,400;  243,633;39212,634;17,87258
 809,05; 7168,376;  234,479;38990,731;17,89104
 809,62; 7233,352;  268,171;38935,829;18,01294
 810,18; 7236,481;  269,248;38906,695;18,03233
 810,74; 7202,149;  233,325;38588,638;18,16912
 811,31; 7197,202;  228,864;38424,351;18,24388
 811,87; 7243,101;  244,710;38288,063;18,39583
 812,44; 7258,692;  273,633;38373,314;18,33364
 813,00; 7179,283;  206,787;38039,181;18,42996
 813,56; 7266,951;  253,249;38181,509;18,49202
 814,13; 7289,004;  251,480;37965,760;18,66011
 814,69; 7265,826;  238,864;37852,780;18,68181
 815,25; 7267,571;  218,249;37402,646;18,95774
 815,82; 7309,547;  261,326;37384,359;18,98611
 816,38; 7313,446;  280,711;37139,917;19,08000
 816,94; 7205,498;  240,249;36894,322;19,00266
 817,51; 7247,013;  218,865;36704,727;19,26266
 818,07; 7201,142;  230,173;36415,901;19,26442
 818,63; 7237,964;  254,942;36180,614;19,43742
 819,20; 7211,094;  246,480;36215,942;19,36257
 819,76; 7146,608;  219,788;35852,269;19,43962
 820,32; 7170,430;  270,019;35838,290;19,40047
 820,89; 7167,098;  259,250;35614,002;19,53867
 821,45; 7137,997;  228,865;35311,484;19,69389
 822,01; 7121,434;  259,635;35122,427;19,68230
 822,57; 7109,949;  251,866;34968,601;19,75440
 823,14; 7121,386;  222,327;34700,083;20,01017
 823,70; 7080,131;  230,943;34547,565;19,95881
 824,26; 7130,953;  227,866;34396,508;20,20299
 824,82; 7109,852;  253,481;34222,990;20,18390
 825,39; 7056,212;  232,481;34046,626;20,18011
 825,95; 7064,496;  253,251;34014,107;20,17498
 826,51; 7085,164;  249,635;33684,589;20,44426
 827,08; 7109,293;  283,251;33766,917;20,38619
 827,64; 7080,192;  262,020;33493,629;20,51713
 828,20; 7049,860;  227,943;33295,342;20,63034
 828,76; 7106,221;  259,174;33225,670;20,76971
 829,32; 7126,427;  262,867;33137,690;20,87786
 829,89; 7106,019;  219,790;32910,787;21,06460
 830,45; 7141,379;  234,482;32956,500;21,10780
 831,01; 7101,278;  240,636;32782,443;21,08255
 831,57; 7158,792;  246,944;32631,925;21,34276
 832,14; 7126,076;  232,790;32640,407;21,27057
 832,70; 7111,897;  229,482;32405,196;21,39009
 833,26; 7104,412;  203,021;32310,601;21,49458
 833,82; 7148,618;  237,021;32244,621;21,59361
 834,38; 7150,594;  230,637;32262,103;21,60362
 834,95; 7135,108;  228,406;32021,738;21,72374
 835,51; 7097,084;  209,252;32014,759;21,65610
 836,07; 7204,906;  239,252;32037,548;21,90575
 836,63; 7226,805;  246,406;32006,568;21,97847
 837,19; 7185,704;  232,022;31925,819;21,94020
 837,75; 7172,910;  205,175;31619,455;22,18015
 838,32; 7221,809;  259,329;31716,398;22,13328
 838,88; 7238,554;  244,253;31750,495;22,19973
 839,44; 7226,376;  251,945;31666,669;22,20115
 840,00; 7238,890;  222,099;31582,459;22,37472
 840,56; 7207,328;  219,330;31365,941;22,43582
 841,12; 7235,765;  221,253;31319,115;22,55625
 841,68; 7194,664;  208,022;31134,366;22,59123
 842,25; 7229,101;  221,484;31143,694;22,66208
 842,81; 7215,539;  214,792;30940,714;22,78450
 843,37; 7226,207;  203,407;30873,965;22,89753
 843,93; 7278,952;  230,023;30895,062;22,98686
 844,49; 7290,466;  241,176;30817,621;23,05464
 845,05; 7242,903;  191,869;30641,333;23,15651
 845,61; 7296,264;  236,023;30743,046;23,14300
 846,17; 7274,932;  219,407;30596,374;23,22656
 846,73; 7298,061;  227,561;30595,932;23,28245
 847,29; 7281,499;  206,869;30359,029;23,46309
 847,86; 7300,244;  216,638;30319,050;23,53169
 848,42; 7276,450;  217,023;30150,147;23,58400
 848,98; 7313,580;  227,177;30061,782;23,75229
 849,54; 7331,017;  216,408;30169,341;23,75263
 850,10; 7291,070;  226,793;29957,669;23,76074
 850,66; 7264,123;  215,331;29826,612;23,80441
 851,22; 7252,483;  210,485;29781,863;23,81356
 851,78; 7325,459;  256,254;29847,268;23,88970
 852,34; 7298,512;  231,793;29662,827;24,01111
 852,90; 7299,795;  221,024;29433,847;24,23173
 853,46; 7282,925;  213,870;29369,406;24,24601
 854,02; 7325,208;  235,562;29330,041;24,36767
 854,58; 7294,338;  221,178;29076,908;24,51215
 855,14; 7271,314;  202,870;29011,774;24,53562
 855,70; 7284,520;  188,563;28872,333;24,73858
 856,26; 7296,727;  231,255;28706,968;24,81227
 856,82; 7283,395;  217,871;28629,527;24,86840
 857,38; 7309,217;  232,717;28545,316;24,99417
 857,94; 7296,193;  217,332;28447,567;25,07546
 858,50; 7262,476;  230,794;28301,511;25,04988
 859,06; 7228,144;  227,179;28141,608;25,08010
 859,62; 7275,043;  235,563;28086,013;25,27600
 860,18; 7268,865;  213,948;27986,956;25,40206
 860,74; 7236,148;  192,179;27894,284;25,42756
 861,30; 7158,047;  197,333;27648,150;25,35704
 861,86; 7256,331;  257,410;27749,786;25,45768
 862,42; 7214,691;  225,410;27556,652;25,57250
 862,98; 7263,744;  251,025;27538,519;25,69939
 863,54; 7231,643;  219,718;27348,924;25,84641
 864,10; 7272,003;  214,179;27380,867;25,97970
 864,66; 7192,364;  202,410;27150,964;25,93814
 865,22; 7174,878;  219,872;27017,446;25,95386
 865,78; 7192,315;  227,410;26862,620;26,14924
 866,34; 7189,291;  210,180;26878,871;26,16968
 866,90; 7210,421;  234,103;26742,660;26,31723
 867,45; 7155,858;  228,180;26529,757;26,33940
 868,01; 7122,372;  216,334;26471,008;26,30403
 868,57; 7115,040;  218,488;26288,105;26,45437
 869,13; 7032,170;  207,257;26107,741;26,35052
 869,69; 7093,607;  227,180;26073,992;26,56586
 870,25; 7086,737;  198,334;25914,166;26,78662
 870,81; 7120,559;  219,488;25913,494;26,85868
 871,37; 7108,304;  222,103;25892,207;26,82576
 871,93; 7097,972;  239,565;25735,996;26,89948
 872,49; 7083,409;  245,104;25502,785;27,07416
 873,04; 7054,616;  209,104;25358,575;27,21931
 873,60; 7030,592;  206,181;25287,364;27,20929
 874,16; 7025,721;  232,950;25104,769;27,31112
 874,72; 7066,337;  215,488;25067,231;27,56687
 875,28; 7042,567;  229,335;25103,385;27,39093
 875,84; 7038,337;  226,719;24948,615;27,55297
 876,40; 7065,260;  207,796;24922,462;27,74654
 876,95; 7082,260;  225,950;24930,846;27,75284
 877,51; 7097,644;  245,181;24925,077;27,76537
 878,07; 7135,490;  261,950;24869,846;27,93226
 878,63; 7105,644;  213,565;24810,769;28,01977
 879,19; 7115,644;  237,104;24839,154;27,95922
 879,75; 7154,413;  216,565;24854,615;28,15908
 880,30; 7128,413;  214,719;24934,077;27,96875
 880,86; 7240,106;  257,104;25041,077;28,17547
 881,42; 7203,337;  210,258;25074,385;28,12517
 881,98; 7266,567;  234,335;25065,231;28,32049
 882,54; 7277,490;  211,488;25246,000;28,22504
 883,09; 7360,952;  236,181;25284,000;28,44468
 883,65; 7378,337;  210,258;25268,769;28,60537
 884,21; 7540,106;  242,565;25458,538;28,94015
 884,77; 7498,337;  206,181;25488,000;28,84348
 885,32; 7566,413;  218,488;25703,385;28,83247
 885,88; 7638,721;  252,104;25821,308;28,88873
 886,44; 7682,875;  225,488;25889,615;29,05763
 887,00; 7711,567;  238,027;25979,154;29,03346
 887,56; 7747,106;  221,412;25981,385;29,21468
 888,11; 7805,798;  223,412;26086,385;29,31754
 888,67; 7878,413;  256,258;26192,538;29,38801
 889,23; 7873,337;  226,719;26160,769;29,48486
 889,79; 7874,183;  202,104;26091,769;29,63375
 890,34; 7914,029;  224,258;26095,769;29,72293
 890,90; 7983,337;  283,104;26182,154;29,73172
 891,46; 7949,644;  223,719;26152,923;29,79623
 892,01; 7939,337;  248,719;26115,308;29,73186
 892,57; 7981,644;  255,873;26060,923;29,93899
 893,13; 7892,721;  233,642;25861,692;29,88553
 893,69; 7936,721;  220,873;25798,000;30,16699
 894,24; 7901,029;  230,488;25735,077;30,07514
 894,80; 7980,260;  240,950;25538,231;30,59344
 895,36; 7929,260;  222,796;25436,769;30,56426
 895,91; 7862,644;  223,565;25247,000;30,52770
 896,47; 7867,029;  229,027;25147,692;30,65173
 897,03; 7801,952;  218,873;25030,692;30,56237
 897,58; 7818,337;  234,335;24921,923;30,71990
 898,14; 7786,567;  230,873;24745,923;30,82064
 898,70; 7704,490;  209,258;24557,846;30,78303
 899,25; 7749,567;  227,950;24569,846;30,89988
 899,81; 7782,183;  241,412;24388,769;31,22814
 900,37; 7674,260;  196,642;24264,385;31,06904
 900,92; 7726,644;  234,027;24253,615;31,19378
 901,48; 7702,337;  221,104;24082,846;31,35242
 902,03; 7667,260;  218,642;23990,692;31,33351
 902,59; 7671,106;  215,488;23932,077;31,43630
 903,15; 7682,260;  236,950;23759,000;31,65247
 903,70; 7617,567;  222,950;23520,769;31,73953
 904,26; 7631,413;  217,027;23439,000;31,92832
 904,82; 7608,106;  230,565;23476,231;31,73727
 905,37; 7637,029;  234,642;23271,923;32,13221
 905,93; 7595,337;  217,796;23153,077;32,16678
 906,48; 7590,721;  222,104;23146,385;32,14329
 907,04; 7662,106;  239,104;23028,769;32,57179
 907,60; 7534,952;  218,642;22823,769;32,36571
 908,15; 7522,952;  223,950;22778,308;32,36183
 908,71; 7599,337;  245,412;22727,385;32,71032
 909,26; 7536,952;  218,181;22645,385;32,63345
 909,82; 7553,490;  242,719;22468,077;32,89383
 910,37; 7553,952;  260,719;22397,538;32,94616
 910,93; 7479,567;  212,335;22187,385;33,07038
 911,48; 7443,644;  203,412;22062,769;33,12189
 912,04; 7449,106;  217,258;22000,154;33,19966
 912,60; 7434,029;  227,642;21990,462;33,11330
 913,15; 7458,106;  228,335;21811,846;33,49673
 913,71; 7356,106;  213,027;21601,692;33,39656
 914,26; 7367,106;  201,027;21594,231;33,49699
 914,82; 7360,721;  225,873;21515,923;33,51259
 915,37; 7365,260;  216,873;21474,077;33,62807
 915,93; 7380,413;  258,412;21337,846;33,78649
 916,48; 7285,337;  218,104;21185,308;33,70613
 917,04; 7330,413;  241,719;21087,923;34,00472
 917,59; 7317,260;  254,258;21035,538;33,98733
 918,15; 7246,029;  195,181;20857,231;34,12463
 918,70; 7226,875;  214,258;20725,923;34,18843
 919,26; 7219,798;  228,258;20759,538;34,05311
 919,81; 7197,106;  212,335;20535,231;34,36898
 920,37; 7161,721;  221,488;20466,462;34,28126
 920,92; 7193,798;  235,642;20381,308;34,53922
 921,48; 7118,260;  199,181;20238,000;34,52838
 922,03; 7098,337;  217,488;20179,538;34,46965
 922,59; 7068,260;  207,412;20045,923;34,58348
 923,14; 7071,490;  219,335;19965,308;34,70154
 923,69; 7034,106;  237,565;19844,462;34,66403
 924,25; 7061,567;  232,950;19874,231;34,76666
 924,80; 6971,798;  229,873;19695,769;34,63455
 925,36; 6959,029;  215,181;19641,000;34,71590
 925,91; 6926,952;  220,950;19470,077;34,83795
 926,47; 6908,106;  191,796;19447,846;34,87896
 927,02; 6933,644;  245,335;19319,538;35,06469
 927,57; 6869,567;  216,565;19132,615;35,17120
 928,13; 6855,721;  209,335;19102,615;35,17857
 928,68; 6893,183;  209,873;19068,077;35,43980
 929,24; 6800,798;  186,950;18903,154;35,33755
 929,79; 6821,567;  205,181;18749,462;35,67885
 930,34; 6772,644;  214,873;18672,923;35,52797
 930,90; 6792,875;  205,104;18569,154;35,87319
 931,45; 6760,337;  222,258;18575,769;35,62304
 932,01; 6807,029;  222,950;18471,923;36,07917
 932,56; 6751,106;  227,027;18341,846;36,01515
 933,11; 6755,183;  236,565;18302,308;36,08275
 933,67; 6730,798;  211,104;18164,385;36,31478
 934,22; 6735,952;  228,258;18116,385;36,37996
 934,77; 6687,029;  234,950;18054,538;36,20779
 935,33; 6713,952;  223,950;17880,462;36,75699
 935,88; 6649,567;  234,950;17859,000;36,39695
 936,43; 6651,567;  215,488;17766,077;36,67158
 936,99; 6642,106;  219,565;17629,154;36,89082
 937,54; 6648,567;  203,873;17455,231;37,35761
 938,09; 6602,567;  221,642;17464,538;37,00611
 938,65; 6595,029;  224,796;17387,231;37,11730
 939,20; 6530,875;  197,950;17305,538;37,01822
 939,75; 6532,875;  199,719;17178,154;37,30118
 940,31; 6538,029;  203,642;17127,308;37,42916
 940,86; 6530,721;  222,488;17076,769;37,42807
 941,41; 6578,260;  285,258;16921,077;37,82803
 941,96; 6520,721;  206,412;16901,692;37,82092
 942,52; 6487,567;  209,104;16811,231;37,81722
 943,07; 6447,260;  191,181;16720,692;37,84794
 943,62; 6432,721;  202,412;16572,846;38,05830
 944,18; 6424,952;  186,950;16549,077;38,12464
 944,73; 6426,183;  220,488;16471,231;38,18714
 945,28; 6345,260;  179,488;16238,462;38,39455
 945,83; 6392,337;  203,181;16281,769;38,49315
 946,39; 6379,106;  212,565;16275,538;38,38978
 946,94; 6347,798;  222,027;16181,077;38,38431
 947,49; 6319,413;  199,719;16089,231;38,51405
 948,04; 6339,567;  230,027;16042,231;38,63813
 948,59; 6318,337;  226,488;15986,846;38,65298
 949,15; 6286,721;  202,181;15877,077;38,81710
 949,70; 6275,260;  201,027;15815,385;38,90159
 950,25; 6230,337;  230,412;15687,615;38,81637
 950,80; 6214,567;  187,642;15695,538;38,86359
 951,36; 6170,721;  187,258;15531,308;38,99533
 951,91; 6236,106;  217,719;15578,462;39,18031
 952,46; 6147,567;  187,719;15322,154;39,37939
 953,01; 6171,337;  226,027;15402,385;39,17481
 953,56; 6112,567;  197,642;15262,846;39,26216
 954,11; 6141,567;  214,719;15186,000;39,58812
 954,67; 6083,106;  205,181;15120,538;39,40854
 955,22; 6054,337;  184,027;14942,923;39,77472
 955,77; 6062,413;  226,719;14970,615;39,58041
 956,32; 6062,567;  252,412;14885,769;39,70487
 956,87; 5953,798;  207,104;14778,769;39,43746
 957,42; 5965,106;  198,412;14712,615;39,73139
 957,98; 5932,413;  196,335;14608,769;39,79951
 958,53; 5994,260;  231,873;14586,385;40,14338
 959,08; 5891,567;  194,950;14485,615;39,86251
 959,63; 5826,413;  203,412;14371,231;39,68855
 960,18; 5881,798;  232,335;14404,154;39,86407
 960,73; 5861,413;  208,565;14290,769;40,14179
 961,28; 5778,952;  186,412;14175,615;39,97755
 961,83; 5831,183;  225,258;14118,308;40,35057
 962,39; 5763,952;  190,642;13989,154;40,39066
 962,94; 5795,337;  220,488;13965,462;40,55918
 963,49; 5729,875;  205,104;13809,231;40,61099
 964,04; 5752,798;  224,950;13855,077;40,55610
 964,59; 5671,413;  189,258;13704,846;40,56172
 965,14; 5708,106;  220,873;13630,077;40,92139
 965,69; 5698,567;  206,181;13612,462;40,96876
 966,24; 5631,337;  214,181;13478,692;40,83947
 966,79; 5611,721;  217,412;13381,923;40,97615
 967,34; 5564,183;  193,258;13295,538;40,99229
 967,89; 5569,413;  195,488;13286,538;41,05037
 968,44; 5579,875;  212,258;13162,538;41,44788
 968,99; 5562,029;  214,873;13079,769;41,56392
 969,55; 5534,183;  222,719;13075,923;41,32404
 970,10; 5482,567;  219,873;12964,923;41,29206
 970,65; 5488,875;  229,181;12913,077;41,46750
 971,20; 5473,183;  205,873;12780,154;41,88955
 971,75; 5453,029;  186,873;12637,308;42,29696
 972,30; 5424,567;  209,950;12610,462;42,05163
 972,85; 5435,490;  202,027;12480,154;42,62428
 973,40; 5400,952;  209,104;12370,154;42,69243
 973,95; 5395,644;  211,488;12308,538;42,85471
 974,50; 5415,106;  230,027;12304,308;42,94317
 975,05; 5377,413;  217,412;12175,462;43,15086
 975,60; 5405,260;  227,796;12128,538;43,50538
 976,15; 5364,490;  212,873;12036,154;43,57181
 976,70; 5362,183;  221,335;11990,692;43,67994
 977,25; 5352,952;  221,719;11916,923;43,87468
 977,80; 5291,106;  209,181;11752,538;44,02467
 978,35; 5265,721;  220,719;11651,000;44,13717
 978,89; 5220,337;  200,950;11582,538;44,10093
 979,44; 5245,106;  213,488;11540,692;44,42065
 979,99; 5155,413;  206,335;11445,462;44,03437
 980,54; 5238,567;  229,719;11341,462;45,07707
 981,09; 5179,490;  227,412;11285,692;44,78163
 981,64; 5123,952;  221,027;11144,692;44,88352
 982,19; 5147,106;  249,565;11117,846;45,06270
 982,74; 5098,183;  227,335;11010,769;45,16973
 983,29; 5011,413;  209,565;10892,615;44,94829
 983,84; 4981,029;  217,873;10746,308;45,24087
 984,39; 4988,721;  269,488;10738,538;45,07795
 984,94; 4930,106;  193,642;10578,846;45,60780
 985,49; 4924,029;  243,258;10563,846;45,35372
 986,03; 4928,413;  237,796;10448,923;45,93633
 986,58; 4881,721;  258,719;10339,462;45,85974
 987,13; 4807,490;  225,488;10240,154;45,75292
 987,68; 4793,413;  233,950;10120,692;46,11694
 988,23; 4776,260;  229,873;10080,846;46,15165
 988,78; 4700,721;  217,258;10014,077;45,76448
 989,33; 4687,183;  234,488; 9855,846;46,27927
 989,88; 4700,260;  240,565; 9836,462;46,47502
 990,42; 4618,106;  217,027; 9720,077;46,31228
 990,97; 4565,029;  217,181; 9595,385;46,36120
 991,52; 4559,644;  243,642; 9496,231;46,64643
 992,07; 4554,875;  251,258; 9446,846;46,80089
 992,62; 4500,183;  232,412; 9340,538;46,85674
 993,17; 4456,798;  227,258; 9286,154;46,68936
 993,71; 4435,721;  222,642; 9164,231;47,11779
 994,26; 4386,029;  212,873; 9036,000;47,29792
 994,81; 4392,183;  247,412; 9032,231;47,18106
 995,36; 4315,413;  212,335; 8858,462;47,45569
 995,91; 4326,337;  227,642; 8838,538;47,59893
 996,45; 4248,952;  222,104; 8726,308;47,35126
 997,00; 4223,106;  197,873; 8618,154;47,80402
 997,55; 4222,029;  227,027; 8578,385;47,83656
 998,10; 4200,413;  256,258; 8453,692;48,11451
 998,65; 4133,875;  215,335; 8365,462;48,07950
 999,19; 4127,260;  239,565; 8279,154;48,35688
 999,74; 4115,721;  260,719; 8182,769;48,66167
1000,29; 4052,337;  244,950; 8119,923;48,34793
1000,84; 3989,337;  208,642; 7979,538;48,65197
1001,38; 3963,875;  230,335; 7906,308;48,63931
1001,93; 3956,567;  234,950; 7885,692;48,64387
1002,48; 3909,183;  206,642; 7711,000;49,33854
1003,03; 3879,183;  227,104; 7758,846;48,48916
1003,57; 3870,413;  236,565; 7587,385;49,43460
1004,12; 3876,106;  253,258; 7494,077;50,03368
1004,67; 3801,413;  219,642; 7450,769;49,53268
1005,22; 3755,106;  208,488; 7283,692;50,12742
1005,76; 3685,106;  214,258; 7178,538;49,83785
1006,31; 3675,490;  247,642; 7171,385;49,50860
1006,86; 3618,567;  214,412; 6999,231;50,17312
1007,40; 3592,413;  207,950; 6929,077;50,35560
1007,95; 3577,183;  220,565; 6885,231;50,36438
1008,50; 3480,875;  224,796; 6739,231;49,98252
1009,04; 3459,798;  228,104; 6675,154;50,12671
1009,59; 3417,490;  234,565; 6526,692;50,58584
1010,14; 3348,183;  211,335; 6464,846;50,16139
1010,68; 3329,644;  225,258; 6382,769;50,41625
1011,23; 3266,567;  216,027; 6227,000;50,74953
1011,78; 3271,260;  234,258; 6193,154;50,96585
1012,32; 3222,413;  229,258; 6099,769;50,98629
1012,87; 3203,413;  240,565; 6102,615;50,54287
1013,42; 3159,952;  208,027; 5991,615;51,03968
1013,96; 3144,490;  244,104; 5981,846;50,54926
1014,51; 3074,106;  186,104; 5891,692;50,61707
1015,06; 3082,183;  198,873; 5874,615;50,80057
1015,60; 3165,029;  265,104; 5948,077;51,02831
1016,15; 3104,413;  211,950; 5894,385;50,90183
1016,69; 3144,798;  223,565; 5911,231;51,36084
1017,24; 3111,413;  192,027; 5917,769;50,98704
1017,79; 3187,567;  244,335; 5945,154;51,62824
1018,33; 3167,260;  205,642; 5950,231;51,55491
1018,88; 3212,183;  237,258; 6016,692;51,47433
1019,42; 3217,106;  223,335; 5982,154;51,98585
1019,97; 3210,106;  209,027; 5999,923;51,82408
1020,51; 3255,337;  237,104; 6019,000;52,20143
1021,06; 3201,644;  205,642; 6009,077;51,62463
1021,61; 3178,721;  193,335; 5971,846;51,66359
1022,15; 3172,183;  180,027; 5951,077;51,84768
1022,70; 3214,875;  210,335; 5900,308;52,80412
1023,24; 3199,952;  196,796; 5892,077;52,73060
1023,79; 3195,337;  221,181; 5877,769;52,57861
1024,33; 3155,029;  213,488; 5796,000;52,69206
1024,88; 3155,567;  216,796; 5746,000;53,14999
1025,42; 3079,721;  219,104; 5599,000;53,17235
1025,97; 3049,567;  213,565; 5583,692;52,81071
1026,51; 2952,798;  171,642; 5441,615;52,77362
1027,06; 2974,644;  206,488; 5398,154;53,31923
1027,60; 2912,183;  219,719; 5305,231;52,94381
1028,15; 2917,644;  221,796; 5265,846;53,44610
1028,69; 2823,490;  196,642; 5087,615;53,70809
1029,24; 2815,875;  211,488; 5082,692;53,46495
1029,78; 2744,029;  205,104; 4956,077;53,44010
1030,33; 2697,029;  190,950; 4822,923;54,10392
1030,87; 2663,029;  196,104; 4851,308;52,99285
1031,42; 2644,721;  192,488; 4772,308;53,54431
1031,96; 2649,106;  214,719; 4699,462;54,28153
1032,51; 2577,875;  190,719; 4611,308;54,00086
1033,05; 2592,029;  217,642; 4587,923;54,33030
1033,60; 2491,490;  170,104; 4450,769;54,22957
1034,14; 2483,106;  201,181; 4417,846;54,11681
1034,69; 2453,952;  211,412; 4387,154;53,70399
1035,23; 2399,029;  205,104; 4293,692;53,65972
1035,77; 2420,490;  203,412; 4215,231;55,26368
1036,32; 2353,183;  184,642; 4177,923;54,30473
1036,86; 2372,952;  208,104; 4109,231;55,49289
1037,41; 2326,644;  217,873; 4066,077;54,79884
1037,95; 2274,952;  181,565; 4006,538;54,72945
1038,50; 2278,721;  197,873; 3958,462;55,33304
1039,04; 2278,567;  223,335; 3928,769;55,46536
1039,58; 2214,875;  194,412; 3855,000;55,19505
1040,13; 2226,029;  209,642; 3777,846;56,50985
1040,67; 2220,644;  233,027; 3757,846;56,38920
1041,21; 2183,798;  228,027; 3721,077;55,99036
1041,76; 2127,106;  185,258; 3618,154;56,56588
1042,30; 2114,875;  205,181; 3569,077;56,77031
1042,85; 2093,721;  203,027; 3537,769;56,69686
1043,39; 2038,644;  203,335; 3485,077;55,92485
1043,93; 2045,106;  221,719; 3464,923;56,22177
1044,48; 2004,952;  211,796; 3401,615;56,21497
1045,02; 1984,490;  204,796; 3327,538;56,99139
1045,56; 1995,260;  231,181; 3315,231;57,20007
1046,11; 1971,029;  219,181; 3292,769;56,99683
1046,65; 1927,260;  220,642; 3224,077;56,82219
1047,19; 1931,952;  192,488; 3170,231;58,41551
1047,74; 1869,029;  183,258; 3096,385;57,86810
1048,28; 1860,260;  198,873; 3065,615;57,95382
1048,82; 1848,029;  228,488; 3054,846;57,30132
1049,37; 1841,644;  215,642; 2970,923;59,01402
1049,91; 1800,644;  197,488; 2944,385;58,36245
1050,45; 1794,337;  217,104; 2946,077;57,79583
1050,99; 1741,413;  210,488; 2879,077;57,36834
1051,54; 1720,644;  202,950; 2820,846;57,97381
1052,08; 1735,721;  233,258; 2792,231;58,71353
1052,62; 1695,721;  219,488; 2780,231;57,64862
1053,16; 1653,644;  210,027; 2699,538;57,98797
1053,71; 1667,644;  210,796; 2701,154;58,49955
1054,25; 1639,721;  231,488; 2645,462;58,33672
1054,79; 1625,875;  219,873; 2617,231;58,64798
1055,33; 1580,260;  190,642; 2513,769;59,81668
1055,88; 1567,106;  221,873; 2539,154;58,05221
1056,42; 1563,490;  226,412; 2507,154;58,62472
1056,96; 1546,721;  221,258; 2475,615;58,79561
1057,50; 1526,567;  215,565; 2434,846;59,07328
1058,05; 1482,798;  215,335; 2397,231;58,09000
1058,59; 1497,337;  240,412; 2335,538;59,99279
1059,13; 1417,260;  200,642; 2290,923;58,20354
1059,67; 1442,721;  226,181; 2308,615;58,41914
1060,21; 1409,567;  214,335; 2240,231;58,99773
1060,76; 1398,798;  223,796; 2227,769;58,63362
1061,30; 1390,567;  234,488; 2208,462;58,56609
1061,84; 1345,260;  215,181; 2163,615;57,99932
1062,38; 1322,875;  197,950; 2118,538;58,57189
1062,92; 1355,106;  251,565; 2124,538;58,91918
1063,46; 1321,798;  237,104; 2083,308;58,75268
1064,01; 1288,413;  209,027; 2045,154;58,78605
1064,55; 1279,490;  227,873; 2009,231;59,03460
1065,09; 1242,490;  197,642; 1970,769;58,92686
1065,63; 1279,721;  247,027; 1987,154;59,34591
1066,17; 1258,413;  237,027; 1958,231;59,34140
1066,71; 1240,644;  239,181; 1928,077;59,29692
1067,25; 1213,952;  213,950; 1876,692;60,14173
1067,80; 1213,952;  232,796; 1891,615;59,14784
1068,34; 1221,721;  241,873; 1867,692;60,26796
1068,88; 1175,644;  223,488; 1805,769;60,17616
1069,42; 1194,798;  244,104; 1836,538;59,70068
1069,96; 1157,721;  203,796; 1778,462;60,57954
1070,50; 1174,875;  252,950; 1790,154;59,97415
1071,04; 1120,183;  208,258; 1720,000;60,32278
1071,58; 1118,183;  222,027; 1711,923;60,14887
1072,12; 1098,029;  213,258; 1714,462;58,93744
1072,66; 1111,644;  218,181; 1674,462;61,35242
1073,21; 1107,490;  232,719; 1692,231;59,93588
1073,75; 1091,952;  225,104; 1652,077;60,74733
1074,29; 1065,413;  239,335; 1613,615;60,10990
1074,83; 1076,644;  247,181; 1623,385;60,27185
1075,37; 1054,337;  239,873; 1593,000;60,19121
1075,91; 1060,106;  238,719; 1559,462;62,19128
1076,45; 1032,029;  225,950; 1549,846;60,88686
1076,99; 1032,183;  232,950; 1527,077;61,75845
1077,53;  983,875;  211,796; 1491,769;60,31993
1078,07; 1003,029;  232,488; 1502,769;60,65906
1078,61;  992,721;  218,719; 1458,769;62,41699
1079,15;  962,490;  222,873; 1460,692;59,75164
1079,69;  977,337;  238,796; 1427,769;62,11582
1080,23;  971,952;  245,258; 1426,923;61,49746
1080,77;  976,567;  270,565; 1448,077;59,95711
1081,31;  945,260;  218,027; 1377,000;62,74802
1081,85;  951,644;  236,950; 1402,846;61,29999
1082,39;  924,567;  232,181; 1352,154;61,82171
1082,93;  932,875;  233,488; 1352,615;62,49394
1083,47;  899,952;  211,104; 1306,000;62,91447
1084,01;  906,952;  243,488; 1335,154;60,77535
1084,55;  880,798;  218,027; 1301,615;61,16447
1085,09;  884,490;  232,642; 1288,692;61,72511
1085,63;  858,029;  224,104; 1279,846;60,04543
1086,17;  854,337;  227,565; 1238,000;62,02986
1086,71;  852,644;  218,565; 1226,769;62,89193
1087,24;  892,644;  249,488; 1243,615;64,69554
1087,78;  848,798;  227,796; 1227,000;62,14967
1088,32;  814,413;  215,642; 1171,615;62,63473
1088,86;  862,260;  247,181; 1195,846;64,83623
1089,40;  816,798;  229,181; 1187,923;61,29043
1089,94;  790,183;  205,565; 1135,000;62,90032
1090,48;  809,106;  227,104; 1167,615;61,88142
1091,02;  805,029;  242,873; 1144,538;62,34638
1091,56;  784,413;  223,642; 1136,154;61,45360
1092,10;  758,875;  213,104; 1098,846;61,61737
1092,63;  809,106;  245,181; 1131,308;63,63930
1093,17;  776,952;  237,181; 1092,231;63,12744
1093,71;  758,260;  228,719; 1072,923;62,72660
1094,25;  773,183;  243,719; 1082,308;63,13746
1094,79;  742,490;  227,719; 1049,077;62,67320
1095,33;  737,029;  230,258; 1032,000;63,20873
1095,87;  717,106;  229,565; 1010,462;62,43345
1096,40;  694,029;  212,950; 1001,538;61,00506
1096,94;  723,106;  237,181; 1012,615;62,66486
1097,48;  707,183;  228,873;  996,615;62,30080
1098,02;  697,798;  221,027;  976,769;63,08647
1098,56;  670,567;  194,488;  948,462;63,14269
1099,10;  673,029;  199,181;  928,154;65,00214
1099,63;  675,337;  203,719;  937,538;64,26887
1100,17;  684,952;  232,873;  944,154;63,55842
1100,71;  688,029;  248,258;  936,615;63,88701

