
Integration time [ms]: 120,000
Averaging Nr. [scans]: 13
Smoothing Nr. [pixels]: 0
Data measured with spectrometer [name]: 2009305U1
Wave   ;Sample   ;Dark     ;Reference;Reflectance
[nm]   ;[counts] ;[counts] ;[counts] ;[%]

 175,72;  185,901;  188,260;  191,032;-85,10225
 176,32;  223,413;  224,410;  220,873; 0,00000
 176,92;  247,992;  232,797;  240,423;199,25045
 177,52;  245,657;  239,797;  253,164;43,84010
 178,12;  238,833;  226,102;  208,578; 0,00000
 178,72;  250,412;  255,947;  239,478; 0,00000
 179,32;  240,403;  240,102;  239,368; 0,00000
 179,92;  244,920;  233,873;  234,772; 0,00000
 180,52;  241,518;  231,570;  253,930;44,49259
 181,12;  248,355;  244,488;  238,404; 0,00000
 181,73;  271,995;  262,027;  251,328; 0,00000
 182,33;  331,120;  322,568;  321,283; 0,00000
 182,93;  261,386;  258,259;  259,299;300,62275
 183,53;  233,204;  241,408;  225,007; 0,00000
 184,13;  243,073;  230,793;  223,348; 0,00000
 184,73;  266,528;  261,100;  267,377;86,47663
 185,33;  250,980;  229,461;  330,588;21,27955
 185,93;  259,571;  233,150;  351,317;22,35842
 186,53;  274,078;  243,690;  377,755;22,66622
 187,13;  289,343;  267,616;  401,255;16,25774
 187,73;  274,943;  225,381;  357,645;37,47203
 188,33;  263,011;  231,764;  359,112;24,53631
 188,93;  280,102;  240,452;  371,007;30,37054
 189,53;  279,081;  237,678;  366,423;32,15833
 190,13;  305,725;  265,826;  401,940;29,31298
 190,73;  246,360;  214,522;  345,202;24,36304
 191,34;  284,789;  252,219;  374,280;26,68351
 191,94;  262,833;  231,686;  356,499;24,95490
 192,54;  274,478;  233,926;  381,714;27,43913
 193,14;  282,667;  255,847;  373,580;22,78065
 193,74;  280,961;  243,385;  375,282;28,48943
 194,34;  282,562;  240,155;  375,352;31,36670
 194,94;  242,934;  215,155;  344,253;21,51805
 195,54;  229,467;  171,538;  318,943;39,29926
 196,14;  240,898;  217,541;  352,884;17,25785
 196,74;  244,495;  216,229;  339,632;22,90529
 197,34;  220,363;  187,081;  333,058;22,79920
 197,94;  259,481;  208,309;  357,667;34,26140
 198,54;  254,811;  230,464;  369,533;17,50720
 199,14;  240,359;  202,467;  365,217;23,28237
 199,74;  224,169;  188,851;  355,466;21,19706
 200,34;  230,454;  190,236;  375,136;21,75139
 200,94;  267,016;  230,311;  409,207;20,51722
 201,54;  244,212;  202,158;  419,775;19,32464
 202,14;  271,057;  240,776;  448,835;14,55402
 202,74;  241,826;  208,236;  445,607;14,15082
 203,34;  225,082;  187,546;  478,231;12,91306
 203,94;  210,491;  165,391;  477,928;14,43034
 204,54;  283,347;  230,771;  557,401;16,09659
 205,14;  237,195;  189,159;  568,328;12,66871
 205,74;  302,770;  231,777;  642,194;17,29784
 206,34;  256,313;  191,545;  673,542;13,43752
 206,94;  274,217;  210,237;  710,931;12,77842
 207,54;  264,509;  174,621;  749,837;15,62670
 208,14;  279,938;  194,006;  823,309;13,65504
 208,74;  282,775;  206,236;  906,545;10,92932
 209,34;  292,117;  198,851;  975,821;12,00376
 209,94;  306,256;  205,159; 1073,894;11,63725
 210,54;  308,582;  203,468; 1163,194;10,95250
 211,14;  328,482;  206,082; 1275,318;11,44742
 211,73;  327,731;  203,697; 1392,580;10,43283
 212,33;  347,590;  217,773; 1454,727;10,49494
 212,93;  342,155;  192,620; 1576,969;10,80179
 213,53;  319,200;  170,928; 1611,410;10,29323
 214,13;  339,289;  188,855; 1679,996;10,08852
 214,73;  330,287;  176,468; 1722,219; 9,95111
 215,33;  326,025;  159,390; 1733,894;10,58335
 215,93;  358,822;  190,777; 1870,147;10,00644
 216,53;  325,678;  149,928; 1930,504; 9,87042
 217,13;  395,998;  208,392; 2155,785; 9,63370
 217,73;  393,442;  185,854; 2334,646; 9,66070
 218,33;  374,247;  145,701; 2528,040; 9,59331
 218,93;  434,220;  178,320; 2794,897; 9,77996
 219,53;  459,364;  175,009; 3069,444; 9,82420
 220,13;  455,372;  154,702; 3320,505; 9,49744
 220,73;  511,338;  177,390; 3675,855; 9,54555
 221,32;  566,082;  181,005; 4080,007; 9,87631
 221,92;  608,009;  179,471; 4448,636;10,03797
 222,52;  625,785;  166,469; 4854,044; 9,79858
 223,12;  688,523;  166,008; 5197,330;10,38524
 223,72;  729,256;  191,469; 5620,888; 9,90505
 224,32;  771,783;  185,008; 5935,261;10,20434
 224,92;  816,994;  173,239; 6231,405;10,62623
 225,52;  868,412;  192,390; 6568,027;10,60320
 226,12;  913,793;  183,545; 6855,570;10,94492
 226,72;  935,101;  164,084; 7133,076;11,06354
 227,31;  981,081;  155,930; 7458,375;11,29966
 227,91; 1071,352;  186,544; 7817,044;11,59567
 228,51; 1089,297;  175,927; 8164,301;11,43374
 229,11; 1172,451;  166,468; 8499,371;12,07241
 229,71; 1240,940;  173,082; 8828,865;12,33693
 230,31; 1302,771;  159,547; 9191,543;12,65749
 230,91; 1359,403;  161,464; 9447,266;12,90075
 231,51; 1416,652;  151,854; 9776,021;13,14190
 232,10; 1497,421;  151,701;10112,665;13,50993
 232,70; 1567,024;  189,386;10284,967;13,64595
 233,30; 1664,469;  184,930;10562,860;14,25658
 233,90; 1718,987;  161,930;10634,082;14,86854
 234,50; 1761,796;  177,931;10782,132;14,93621
 235,10; 1836,917;  176,700;10893,482;15,49174
 235,70; 1907,608;  179,467;10947,597;16,04867
 236,29; 1946,221;  174,774;10875,157;16,55499
 236,89; 1955,171;  163,311;10803,451;16,84057
 237,49; 2008,090;  182,468;10763,065;17,25443
 238,09; 2027,621;  165,468;10595,465;17,85382
 238,69; 2046,323;  191,925;10346,595;18,26153
 239,29; 2049,494;  166,006;10067,372;19,02250
 239,89; 2019,961;  169,388; 9849,922;19,11643
 240,48; 1986,908;  175,468; 9436,456;19,55990
 241,08; 1983,812;  160,160; 9185,460;20,20601
 241,68; 1946,020;  192,391; 8843,392;20,27083
 242,28; 1934,895;  158,007; 8565,309;21,13505
 242,88; 1919,330;  209,393; 8230,322;21,31843
 243,48; 1897,049;  199,853; 8013,354;21,72133
 244,07; 1849,331;  181,236; 7835,804;21,79215
 244,67; 1873,558;  188,545; 7635,116;22,62804
 245,27; 1829,962;  187,620; 7538,964;22,34070
 245,87; 1846,972;  198,778; 7465,459;22,68152
 246,47; 1829,443;  182,235; 7394,051;22,84041
 247,06; 1820,791;  170,929; 7473,098;22,59414
 247,66; 1848,302;  177,545; 7528,223;22,72929
 248,26; 1927,791;  204,620; 7649,178;23,14672
 248,86; 1917,987;  193,774; 7851,780;22,51517
 249,46; 1904,535;  148,777; 8038,618;22,25340
 250,05; 2044,750;  193,622; 8381,418;22,60838
 250,65; 2016,219;  158,158; 8642,640;21,89952
 251,25; 2081,510;  170,621; 9137,081;21,31152
 251,85; 2206,084;  174,080; 9729,024;21,26652
 252,44; 2254,524;  144,697;10270,305;20,83654
 253,04; 2405,491;  186,467;10972,701;20,57275
 253,64; 2432,312;  141,773;11593,426;20,00182
 254,24; 2602,709;  193,160;12498,938;19,58063
 254,84; 2686,919;  171,084;13398,156;19,02035
 255,43; 2828,692;  175,236;14232,155;18,87652
 256,03; 2898,050;  173,927;15090,790;18,26204
 256,63; 3034,151;  186,311;16121,134;17,87180
 257,23; 3089,243;  163,619;16865,215;17,51703
 257,82; 3204,483;  184,617;17785,184;17,15778
 258,42; 3239,886;  141,386;18538,523;16,84230
 259,02; 3332,825;  188,851;19404,408;16,36161
 259,62; 3362,195;  171,924;20013,536;16,07869
 260,21; 3393,303;  180,005;20446,656;15,85510
 260,81; 3391,096;  175,776;20939,686;15,48514
 261,41; 3377,454;  161,540;21348,639;15,17864
 262,01; 3416,854;  195,692;21745,537;14,94749
 262,60; 3345,550;  159,772;22088,138;14,52811
 263,20; 3327,526;  173,081;22406,441;14,18789
 263,80; 3310,111;  185,846;22576,552;13,95340
 264,40; 3254,366;  159,770;22635,554;13,76858
 264,99; 3259,296;  177,923;22873,727;13,57684
 265,59; 3188,042;  169,690;22986,235;13,22878
 266,19; 3165,613;  151,923;23173,571;13,09068
 266,78; 3182,750;  198,691;23313,249;12,90987
 267,38; 3116,732;  180,998;23225,991;12,73914
 267,98; 3065,678;  170,999;23273,748;12,52959
 268,58; 3082,250;  176,460;23341,058;12,54410
 269,17; 3032,158;  169,612;23247,520;12,40384
 269,77; 3022,573;  185,772;23104,975;12,37740
 270,37; 2945,706;  159,846;23034,665;12,17872
 270,96; 2979,704;  211,386;22877,757;12,21333
 271,56; 2930,900;  175,618;22703,894;12,23032
 272,16; 2896,264;  181,617;22485,318;12,17129
 272,75; 2879,356;  173,540;22347,937;12,20243
 273,35; 2878,298;  175,464;22343,010;12,19276
 273,95; 2876,551;  178,540;22331,725;12,17888
 274,54; 2865,160;  162,775;22448,895;12,12587
 275,14; 2951,908;  186,848;22732,619;12,26421
 275,74; 2938,910;  151,771;22757,986;12,32909
 276,33; 3031,542;  194,541;23139,769;12,36423
 276,93; 3075,389;  189,006;23493,651;12,38544
 277,53; 3156,801;  175,313;23943,637;12,54396
 278,12; 3216,185;  159,388;24522,641;12,54675
 278,72; 3369,283;  198,082;25049,538;12,76063
 279,32; 3461,305;  166,851;25603,285;12,95171
 279,91; 3569,306;  167,927;26140,914;13,09583
 280,51; 3706,257;  171,236;26717,785;13,31631
 281,11; 3862,593;  166,389;27408,135;13,56816
 281,70; 3939,046;  158,158;27854,830;13,65105
 282,30; 4079,823;  149,618;28400,894;13,91160
 282,90; 4197,484;  171,003;28765,457;14,08134
 283,49; 4374,647;  189,002;29327,182;14,36481
 284,09; 4500,251;  202,311;29720,168;14,56047
 284,69; 4619,156;  202,697;30055,598;14,79407
 285,28; 4772,287;  186,927;30425,072;15,16416
 285,88; 4959,772;  219,155;30550,573;15,62939
 286,47; 5095,982;  181,618;30628,362;16,14085
 287,07; 5214,110;  207,620;30770,805;16,38079
 287,67; 5386,280;  196,699;30819,200;16,94695
 288,26; 5561,895;  172,543;30800,315;17,59629
 288,86; 5737,897;  157,465;30903,297;18,15021
 289,46; 5985,157;  193,850;30940,721;18,83543
 290,05; 6239,008;  177,775;31098,678;19,60238
 290,65; 6540,511;  177,926;31293,056;20,44852
 291,24; 6831,330;  185,851;31413,870;21,28050
 291,84; 7166,074;  190,234;31527,211;22,26073
 292,44; 7412,982;  183,930;31619,198;22,99663
 293,03; 7798,473;  237,851;31807,212;23,94924
 293,63; 8043,387;  169,080;31969,525;24,76163
 294,22; 8351,142;  199,927;32062,332;25,58255
 294,82; 8586,437;  175,231;32052,163;26,38650
 295,41; 8719,046;  172,619;31769,137;27,04863
 296,01; 8958,301;  207,463;31764,345;27,73037
 296,61; 9067,817;  191,081;31442,501;28,40426
 297,20; 9164,357;  192,001;31183,213;28,95129
 297,80; 9283,535;  181,468;31055,544;29,48126
 298,39; 9346,776;  167,542;30706,947;30,05702
 298,99; 9397,878;  191,540;30486,766;30,38874
 299,58; 9476,133;  191,468;30353,097;30,78303
 300,18; 9517,254;  208,006;30076,989;31,16694
 300,78; 9555,405;  169,313;29818,241;31,65744
 301,37; 9628,292;  193,923;29790,504;31,87655
 301,97; 9757,290;  196,543;29891,096;32,19697
 302,56; 9734,254;  166,310;29794,349;32,29354
 303,16; 9796,323;  173,310;29747,165;32,53892
 303,75; 9911,312;  177,005;29704,147;32,96732
 304,35;10089,626;  171,162;29945,807;33,31178
 304,94;10098,746;  179,620;30022,782;33,23752
 305,54;10182,390;  199,159;29908,315;33,60321
 306,13;10157,179;  150,700;29919,965;33,61346
 306,73;10148,490;  158,469;29661,222;33,86132
 307,33;10214,024;  201,314;29617,230;34,03841
 307,92;10255,955;  177,466;29728,606;34,10525
 308,52;10474,692;  165,310;30129,008;34,40624
 309,11;10661,005;  177,463;30600,279;34,45947
 309,71;10748,249;  149,923;30889,426;34,47787
 310,30;10899,710;  158,235;31107,064;34,70721
 310,90;11030,786;  189,620;31395,141;34,74118
 311,49;11117,905;  180,697;31519,743;34,89962
 312,09;11151,812;  152,852;31647,999;34,92272
 312,68;11415,816;  217,005;32025,256;35,20725
 313,28;11332,340;  153,466;32217,913;34,86377
 313,87;11409,474;  148,004;32290,642;35,03592
 314,47;11589,137;  165,001;32560,795;35,26426
 315,06;11598,160;  152,312;32629,744;35,24247
 315,66;11685,274;  161,083;32887,229;35,21402
 316,25;11605,973;  142,233;32772,640;35,13208
 316,85;11602,171;  145,775;32723,291;35,16657
 317,44;11633,645;  162,770;32979,557;34,95429
 318,04;11624,659;  142,542;33009,774;34,93485
 318,63;11564,346;  153,469;32982,266;34,75874
 319,22;11630,306;  177,310;33207,071;34,67478
 319,82;11641,765;  171,542;33200,582;34,72769
 320,41;11548,013;  178,234;33238,536;34,39103
 321,01;11507,198;  187,313;33272,351;34,21451
 321,60;11535,374;  174,927;33443,038;34,14816
 322,20;11447,027;  177,466;33333,061;33,98992
 322,79;11419,401;  202,082;33485,172;33,70276
 323,39;11375,924;  165,469;33530,501;33,59941
 323,98;11248,467;  153,620;33516,545;33,25502
 324,58;11264,241;  168,079;33435,205;33,35474
 325,17;11127,978;  177,618;33278,600;33,08168
 325,76;10997,182;  187,927;33051,152;32,89164
 326,36;10883,629;  145,313;32763,607;32,92114
 326,95;10708,774;  186,619;32466,503;32,59663
 327,55;10554,088;  156,850;32186,170;32,46163
 328,14;10337,052;  155,391;31749,720;32,22623
 328,74;10225,983;  195,618;31376,561;32,16825
 329,33;10066,875;  178,852;31015,425;32,06590
 329,92; 9845,153;  158,463;30489,273;31,93680
 330,52; 9550,692;  177,468;29925,383;31,50885
 331,11; 9385,077;  170,542;29424,081;31,49887
 331,71; 9160,383;  174,542;28887,606;31,29530
 332,30; 8950,285;  182,312;28506,244;30,95606
 332,89; 8768,763;  218,928;27953,719;30,82711
 333,49; 8515,323;  188,081;27460,316;30,53377
 334,08; 8372,155;  176,696;27081,896;30,46050
 334,68; 8144,339;  171,003;26621,410;30,14447
 335,27; 8042,783;  183,161;26314,649;30,07721
 335,86; 7921,154;  223,311;26075,312;29,77658
 336,46; 7797,393;  193,699;25908,643;29,56917
 337,05; 7673,287;  168,542;25732,918;29,35626
 337,65; 7587,734;  162,850;25569,915;29,22370
 338,24; 7589,590;  219,466;25604,877;29,03291
 338,83; 7455,959;  188,390;25458,290;28,75979
 339,43; 7416,429;  171,310;25412,557;28,70349
 340,02; 7352,343;  172,464;25321,790;28,54899
 340,61; 7303,227;  166,851;25444,701;28,23174
 341,21; 7272,752;  204,157;25448,022;28,00124
 341,80; 7235,903;  171,080;25342,271;28,06710
 342,40; 7218,446;  182,083;25467,180;27,82810
 342,99; 7184,763;  180,698;25574,489;27,58180
 343,58; 7206,337;  175,929;25701,271;27,54286
 344,18; 7217,162;  183,467;25830,755;27,42471
 344,77; 7203,697;  168,772;26136,507;27,09102
 345,36; 7264,620;  149,850;26424,657;27,07830
 345,96; 7334,896;  199,698;26729,203;26,89533
 346,55; 7350,534;  160,546;27003,111;26,78577
 347,14; 7376,092;  158,160;27333,078;26,56101
 347,74; 7425,773;  153,548;27683,830;26,41537
 348,33; 7616,559;  173,778;28344,770;26,42002
 348,92; 7697,344;  176,857;28888,277;26,19337
 349,52; 7720,223;  143,548;29276,465;26,00726
 350,11; 7771,257;  173,464;29496,100;25,91102
 350,70; 7732,965;  165,774;29591,495;25,71625
 351,29; 7626,115;  167,230;29365,086;25,54600
 351,89; 7637,456;  179,924;29396,697;25,52483
 352,48; 7582,935;  150,235;29408,135;25,40408
 353,07; 7528,845;  175,391;29301,061;25,24733
 353,67; 7460,102;  182,857;29268,573;25,02000
 354,26; 7356,641;  176,007;29055,737;24,86392
 354,85; 7308,356;  170,698;28908,882;24,83684
 355,45; 7251,443;  153,926;28663,239;24,89543
 356,04; 7189,823;  161,238;28584,853;24,72798
 356,63; 7150,922;  195,696;28511,190;24,56332
 357,22; 7032,830;  178,692;28361,920;24,31992
 357,82; 7019,530;  176,462;28098,443;24,50782
 358,41; 6927,639;  188,927;28014,345;24,21783
 359,00; 6837,901;  166,310;27765,985;24,17272
 359,60; 6792,965;  180,159;27791,911;23,94924
 360,19; 6700,074;  174,084;27611,971;23,78459
 360,78; 6666,021;  177,773;27378,597;23,85313
 361,37; 6620,831;  168,080;27240,693;23,83498
 361,97; 6565,747;  183,235;27141,751;23,67531
 362,56; 6445,513;  165,156;26829,884;23,55305
 363,15; 6369,545;  209,773;26604,363;23,33725
 363,74; 6275,034;  175,463;26267,856;23,37682
 364,34; 6206,542;  205,926;25900,000;23,35409
 364,93; 6096,591;  164,694;25431,083;23,47742
 365,52; 5958,000;  149,927;25138,389;23,24302
 366,11; 5894,219;  167,926;24863,643;23,18739
 366,71; 5795,845;  153,926;24456,994;23,21484
 367,30; 5725,754;  168,619;24175,263;23,14832
 367,89; 5696,228;  213,544;23987,128;23,06208
 368,48; 5593,423;  189,925;23639,355;23,04320
 369,07; 5494,812;  174,235;23231,803;23,07518
 369,67; 5428,299;  202,771;22888,593;23,03433
 370,26; 5388,047;  170,389;22698,609;23,16054
 370,85; 5323,990;  177,773;22478,961;23,07598
 371,44; 5276,071;  179,465;22229,877;23,11342
 372,03; 5215,168;  153,695;22038,966;23,12730
 372,63; 5110,517;  150,850;21657,334;23,06126
 373,22; 5067,930;  166,312;21462,867;23,01601
 373,81; 4995,518;  148,157;21068,918;23,17010
 374,40; 4957,677;  162,006;20908,917;23,11511
 374,99; 4889,263;  166,465;20615,301;23,09568
 375,59; 4865,776;  152,083;20347,587;23,34031
 376,18; 4871,278;  190,696;20264,920;23,31638
 376,77; 4823,039;  186,773;20125,702;23,25233
 377,36; 4818,959;  205,619;19963,063;23,34988
 377,95; 4746,388;  181,003;19718,878;23,36685
 378,55; 4746,813;  163,621;19545,659;23,64660
 379,14; 4741,411;  177,004;19552,173;23,55802
 379,73; 4726,316;  176,388;19375,377;23,69879
 380,32; 4762,911;  190,312;19468,102;23,71952
 380,91; 4694,458;  157,232;19352,830;23,63680
 381,50; 4749,477;  188,848;19199,057;23,99042
 382,10; 4710,219;  157,850;19163,486;23,95273
 382,69; 4746,457;  151,773;19078,044;24,27675
 383,28; 4784,815;  190,079;19065,371;24,34259
 383,87; 4735,794;  164,387;18997,516;24,27322
 384,46; 4732,622;  157,077;18908,985;24,40042
 385,05; 4806,236;  193,387;18894,860;24,66570
 385,64; 4793,834;  166,233;18855,797;24,76035
 386,24; 4815,925;  144,462;18790,871;25,05288
 386,83; 4827,577;  195,616;18864,359;24,81132
 387,42; 4873,685;  185,695;18993,065;24,92635
 388,01; 4955,798;  184,999;19167,441;25,13270
 388,60; 5057,354;  184,616;19384,728;25,37870
 389,19; 5114,334;  170,304;19650,927;25,37922
 389,78; 5237,394;  172,228;19769,403;25,84641
 390,37; 5390,051;  229,461;20281,999;25,73535
 390,96; 5446,084;  180,077;20375,492;26,07526
 391,56; 5481,122;  182,457;20481,112;26,10352
 392,15; 5599,141;  163,305;20748,919;26,40600
 392,74; 5632,214;  144,685;20872,859;26,47377
 393,33; 5797,907;  166,303;21235,744;26,72878
 393,92; 5871,702;  172,607;21599,493;26,59787
 394,51; 5964,144;  156,226;21745,211;26,90222
 395,10; 6081,286;  203,449;22005,912;26,95951
 395,69; 6216,063;  189,834;22082,050;27,52681
 396,28; 6236,143;  194,370;22278,926;27,35746
 396,87; 6253,455;  189,674;22327,851;27,39061
 397,46; 6385,321;  194,903;22395,976;27,88342
 398,06; 6488,332;  204,746;22698,731;27,93452
 398,65; 6481,698;  188,200;22681,367;27,97960
 399,24; 6610,073;  200,352;22887,404;28,25277
 399,83; 6608,473;  182,110;22749,864;28,47586
 400,42; 6734,155;  220,254;23035,427;28,55074
 401,01; 6816,111;  189,781;23094,134;28,93044
 401,60; 6839,168;  211,766;23119,590;28,93073
 402,19; 6906,049;  217,369;23112,094;29,21494
 402,78; 6951,411;  228,889;23019,193;29,49729
 403,37; 6935,247;  216,025;22874,577;29,65424
 403,96; 6925,032;  206,927;22765,566;29,78063
 404,55; 6954,032;  221,981;22707,621;29,93934
 405,14; 6946,260;  204,344;22516,338;30,21655
 405,73; 7002,439;  224,473;22495,027;30,43465
 406,32; 7042,496;  221,687;22330,563;30,85100
 406,91; 7005,060;  218,052;22106,316;31,00752
 407,50; 7004,415;  221,658;22007,485;31,13380
 408,09; 6952,015;  192,651;21694,036;31,43688
 408,68; 6979,557;  215,338;21519,842;31,75018
 409,27; 6951,374;  197,652;21360,402;31,91325
 409,86; 6959,667;  207,437;21233,055;32,11430
 410,45; 7046,266;  238,449;21169,855;32,52441
 411,04; 7016,705;  249,770;21139,912;32,39296
 411,63; 6976,232;  229,633;20851,355;32,71598
 412,22; 6954,452;  228,725;20634,154;32,96048
 412,81; 6885,955;  242,654;20402,820;32,95261
 413,40; 6848,227;  254,122;20116,361;33,19920
 413,99; 6838,906;  297,197;19840,419;33,47303
 414,58; 6730,763;  222,814;19381,613;33,96846
 415,17; 6685,073;  226,423;19244,223;33,96108
 415,76; 6695,890;  226,878;19048,351;34,37038
 416,35; 6669,479;  219,728;18952,438;34,43042
 416,94; 6765,003;  247,187;18919,791;34,90577
 417,53; 6851,640;  224,577;19198,185;34,92780
 418,12; 6892,958;  221,502;19256,610;35,04817
 418,71; 7096,293;  240,738;19628,350;35,36049
 419,30; 7197,587;  227,656;19681,062;35,82885
 419,89; 7257,629;  214,888;19818,661;35,92543
 420,48; 7431,728;  238,353;20128,335;36,16582
 421,07; 7536,278;  247,508;20203,804;36,52366
 421,66; 7503,768;  220,434;20201,298;36,45155
 422,25; 7594,126;  218,210;20172,872;36,96337
 422,84; 7641,582;  246,980;20160,447;37,13368
 423,43; 7565,597;  237,593;19881,303;37,30458
 424,02; 7504,762;  259,671;19663,157;37,33912
 424,60; 7349,740;  222,986;19315,964;37,32657
 425,19; 7335,477;  251,982;19050,908;37,68032
 425,78; 7353,609;  248,136;18934,501;38,02491
 426,37; 7336,440;  254,216;18845,491;38,09435
 426,96; 7345,174;  241,293;18690,278;38,50553
 427,55; 7286,461;  224,528;18531,259;38,57561
 428,14; 7236,854;  225,914;18339,747;38,70489
 428,73; 7222,682;  233,142;18150,342;39,01023
 429,32; 7258,144;  245,754;18147,086;39,17245
 429,91; 7297,671;  261,603;18179,330;39,26875
 430,50; 7266,058;  256,682;17992,998;39,51991
 431,08; 7229,732;  259,684;17864,964;39,59067
 431,67; 7235,161;  294,533;17761,465;39,73582
 432,26; 7179,652;  310,073;17587,962;39,75936
 432,85; 7091,608;  324,380;17315,996;39,82686
 433,44; 7009,331;  331,383;16930,504;40,23073
 434,03; 6871,999;  354,387;16581,647;40,16459
 434,62; 6735,561;  319,460;16216,459;40,36045
 435,21; 6735,160;  330,380;16033,955;40,78549
 435,79; 6643,978;  332,154;15856,794;40,65681
 436,38; 6649,113;  310,927;15766,789;41,00830
 436,97; 6645,799;  314,466;15676,846;41,21323
 437,56; 6580,665;  305,164;15540,304;41,19096
 438,15; 6540,778;  288,778;15421,443;41,31460
 438,74; 6575,802;  296,086;15440,861;41,46457
 439,33; 6598,030;  275,470;15433,036;41,71224
 439,91; 6625,759;  243,088;15478,979;41,89234
 440,50; 6699,789;  296,011;15560,986;41,95079
 441,09; 6781,439;  299,938;15607,794;42,34102
 441,68; 6752,181;  277,018;15662,066;42,08738
 442,27; 6781,422;  253,786;15654,574;42,38508
 442,86; 6794,771;  238,716;15607,961;42,65697
 443,44; 6805,673;  248,714;15637,417;42,60891
 444,03; 6883,026;  310,023;15701,546;42,70535
 444,62; 6830,709;  250,870;15600,811;42,86556
 445,21; 6805,635;  267,946;15432,377;43,11200
 445,80; 6815,092;  281,873;15344,067;43,37495
 446,39; 6691,997;  299,410;15123,963;43,12162
 446,97; 6604,812;  246,722;14874,932;43,46458
 447,56; 6522,293;  254,879;14755,921;43,22043
 448,15; 6445,146;  252,645;14532,562;43,36510
 448,74; 6351,134;  264,492;14244,737;43,53745
 449,33; 6332,633;  261,879;14123,571;43,79519
 449,91; 6246,589;  252,652;13966,166;43,70825
 450,50; 6132,807;  248,343;13744,298;43,60168
 451,09; 6121,518;  266,882;13684,832;43,63286
 451,68; 6098,630;  280,345;13522,457;43,93774
 452,26; 6082,055;  278,578;13547,812;43,73634
 452,85; 6030,100;  273,807;13364,749;43,97157
 453,44; 6028,174;  271,120;13391,559;43,87851
 454,03; 6046,061;  258,733;13374,937;44,12350
 454,61; 5984,736;  235,736;13373,868;43,75813
 455,20; 6144,797;  287,891;13551,847;44,15655
 455,79; 6104,326;  275,658;13551,548;43,90416
 456,38; 6160,305;  278,433;13579,250;44,22188
 456,97; 6164,318;  264,509;13634,166;44,12835
 457,55; 6214,936;  259,665;13642,373;44,49975
 458,14; 6211,454;  282,431;13601,600;44,51496
 458,73; 6206,191;  277,357;13568,451;44,60757
 459,31; 6187,164;  297,745;13654,538;44,09306
 459,90; 6276,883;  313,205;13694,602;44,56693
 460,49; 6322,969;  329,896;13738,558;44,69553
 461,08; 6292,871;  267,362;13809,923;44,49313
 461,66; 6350,139;  285,899;13893,722;44,56437
 462,25; 6392,554;  271,132;14016,723;44,53371
 462,84; 6470,742;  305,208;14005,694;45,00230
 463,43; 6393,915;  247,674;13967,110;44,79952
 464,01; 6418,592;  280,522;13983,519;44,79363
 464,60; 6422,079;  319,365;13979,188;44,67637
 465,19; 6255,158;  248,677;13709,314;44,62256
 465,77; 6293,660;  274,755;13711,515;44,79432
 466,36; 6266,156;  298,751;13589,768;44,89803
 466,95; 6119,596;  269,982;13266,515;45,00903
 467,53; 5975,699;  276,526;12990,901;44,82464
 468,12; 5906,113;  299,988;12772,094;44,94930
 468,71; 5750,895;  287,985;12587,940;44,41407
 469,29; 5659,034;  265,604;12368,158;44,56440
 469,88; 5567,783;  265,682;12051,222;44,98819
 470,47; 5673,967;  314,300;12243,422;44,92927
 471,06; 5631,695;  289,070;12169,589;44,96963
 471,64; 5671,411;  293,761;12260,548;44,93812
 472,23; 5614,118;  255,767;12284,308;44,54698
 472,81; 5663,333;  251,534;12391,804;44,57726
 473,40; 5725,661;  273,459;12489,961;44,62982
 473,99; 5912,605;  354,998;12720,662;44,94386
 474,57; 5873,703;  276,690;12800,256;44,69185
 475,16; 5949,377;  291,073;12949,077;44,70139
 475,75; 5974,552;  299,538;13052,077;44,50105
 476,33; 6020,184;  299,925;13155,518;44,49627
 476,92; 6062,875;  304,306;13162,129;44,78650
 477,51; 6085,142;  304,155;13255,104;44,63755
 478,09; 6076,490;  303,309;13252,200;44,58437
 478,68; 6032,979;  299,002;13219,379;44,37934
 479,27; 6097,346;  320,308;13271,124;44,60752
 479,85; 6076,416;  288,848;13239,870;44,68811
 480,44; 6091,750;  283,157;13366,235;44,39776
 481,02; 6692,158;  290,005;14754,419;44,26141
 481,61; 7533,151;  325,850;16683,557;44,06058
 482,20; 8017,825;  317,543;17730,327;44,22200
 482,78; 8433,136;  348,310;18494,941;44,55277
 483,37; 8622,306;  335,854;18984,669;44,43420
 483,95; 8727,735;  353,470;19260,097;44,29275
 484,54; 8813,973;  369,773;19392,478;44,39011
 485,13; 8744,530;  332,088;19375,073;44,17607
 485,71; 8651,426;  309,856;19113,433;44,36161
 486,30; 8558,390;  357,395;18821,298;44,41637
 486,88; 8404,254;  370,011;18444,864;44,44984
 487,47; 8090,503;  364,088;17768,276;44,39400
 488,05; 7674,463;  355,936;16968,991;44,05287
 488,64; 7119,962;  353,784;15692,364;44,11215
 489,23; 6351,825;  361,705;13908,077;44,21936
 489,81; 5435,171;  352,168;11955,421;43,80671
 490,40; 5168,595;  318,014;11421,657;43,68459
 490,98; 5043,386;  295,861;11187,985;43,58677
 491,57; 5032,203;  328,552;11109,257;43,63028
 492,15; 4985,364;  303,862;11034,039;43,62931
 492,74; 4955,770;  314,320;10925,792;43,73992
 493,32; 4887,243;  332,015;10825,227;43,41119
 493,91; 4892,421;  300,478;10721,071;44,06604
 494,50; 4838,340;  311,790;10703,486;43,55930
 495,08; 4779,966;  291,175;10638,266;43,38216
 495,67; 4778,397;  326,940;10584,531;43,39671
 496,25; 4709,830;  277,250;10557,794;43,11620
 496,84; 4755,495;  275,170;10500,201;43,81723
 497,42; 4700,719;  272,250;10466,406;43,44125
 498,01; 4687,488;  308,248;10427,105;43,27801
 498,59; 4654,436;  266,558;10334,408;43,58306
 499,18; 4618,297;  264,402;10265,002;43,53634
 499,76; 4624,496;  287,327;10243,240;43,56375
 500,35; 4473,239;  276,099;10056,250;42,91488
 500,93; 4480,914;  259,481; 9968,316;43,48033
 501,52; 4450,615;  266,097; 9884,961;43,50325
 502,10; 4435,653;  281,177; 9934,100;43,03853
 502,69; 4358,981;  259,948; 9763,568;43,13128
 503,27; 4282,606;  252,713; 9606,114;43,08478
 503,86; 4251,850;  259,870; 9496,559;43,21873
 504,44; 4164,291;  247,795; 9379,008;42,89130
 505,03; 4050,609;  231,718; 9135,436;42,89097
 505,61; 4042,498;  251,564; 9042,821;43,12165
 506,19; 3967,825;  272,410; 8919,817;42,73437
 506,78; 3831,624;  232,336; 8719,356;42,40932
 507,36; 3792,446;  254,564; 8571,746;42,53703
 507,95; 3769,199;  257,338; 8427,565;42,98364
 508,53; 3671,255;  241,875; 8388,713;42,09462
 509,12; 3624,554;  263,491; 8199,757;42,35069
 509,70; 3579,680;  277,569; 8024,683;42,62376
 510,29; 3502,433;  274,724; 7912,708;42,25866
 510,87; 3388,850;  238,567; 7741,088;41,98966
 511,46; 3333,002;  253,414; 7570,645;42,08680
 512,04; 3285,211;  250,646; 7473,356;42,01422
 512,62; 3231,658;  245,875; 7322,433;42,19259
 513,21; 3152,623;  237,570; 7160,798;42,10540
 513,79; 3071,785;  237,113; 7046,664;41,62789
 514,38; 3011,104;  230,650; 6937,217;41,45867
 514,96; 3007,515;  271,727; 6821,508;41,76916
 515,54; 2889,240;  230,958; 6697,648;41,10730
 516,13; 2910,397;  262,497; 6637,101;41,53827
 516,71; 2840,544;  239,345; 6444,079;41,92281
 517,30; 2779,979;  234,809; 6385,554;41,37987
 517,88; 2773,272;  255,808; 6315,627;41,54354
 518,46; 2679,499;  241,425; 6188,138;40,99869
 519,05; 2678,459;  248,811; 6157,963;41,11670
 519,63; 2616,497;  250,194; 6109,772;40,38350
 520,22; 2609,615;  253,197; 6020,861;40,85567
 520,80; 2584,193;  239,890; 5976,604;40,86492
 521,38; 2580,565;  275,118; 5973,970;40,45459
 521,97; 2519,845;  241,122; 5909,274;40,20222
 522,55; 2520,122;  249,660; 5887,376;40,27273
 523,13; 2496,416;  233,969; 5889,875;40,00148
 523,72; 2515,254;  250,040; 5842,673;40,50353
 524,30; 2580,457;  258,816; 6010,167;40,36688
 524,89; 2554,423;  225,199; 6014,248;40,23501
 525,47; 2601,414;  252,586; 6105,089;40,13373
 526,05; 2588,890;  216,048; 6127,663;40,13863
 526,64; 2645,943;  245,434; 6251,934;39,96519
 527,22; 2687,517;  265,586; 6371,874;39,66290
 527,80; 2731,205;  292,049; 6477,417;39,43430
 528,39; 2751,442;  237,127; 6572,541;39,68668
 528,97; 2802,255;  238,511; 6705,850;39,64140
 529,55; 2885,744;  261,354; 6871,423;39,70291
 530,14; 2966,445;  276,666; 7049,828;39,71231
 530,72; 2984,295;  251,049; 7155,484;39,58682
 531,30; 2985,485;  234,589; 7274,494;39,07575
 531,89; 3044,772;  258,666; 7329,638;39,40202
 532,47; 3079,051;  284,744; 7367,872;39,45019
 533,05; 3074,472;  283,203; 7460,398;38,89081
 533,63; 3116,865;  288,513; 7504,575;39,19523
 534,22; 3113,204;  251,744; 7557,781;39,16568
 534,80; 3158,171;  282,439; 7624,205;39,16948
 535,38; 3217,940;  352,282; 7757,212;38,69933
 535,97; 3112,343;  269,359; 7665,361;38,43947
 536,55; 3197,990;  320,054; 7738,914;38,79216
 537,13; 3144,055;  315,820; 7763,976;37,97228
 537,71; 3167,553;  360,358; 7797,618;37,74502
 538,30; 3177,647;  375,360; 7853,904;37,47102
 538,88; 3203,995;  412,979; 7969,256;36,93639
 539,46; 3270,832;  474,900; 8121,076;36,56642
 540,05; 3306,813;  487,055; 8267,185;36,24307
 540,63; 3407,500;  529,747; 8429,026;36,43057
 541,21; 3421,685;  565,902; 8567,890;35,68842
 541,79; 3441,357;  608,210; 8638,880;35,27908
 542,38; 3523,465;  637,516; 8826,904;35,24010
 542,96; 3563,838;  640,981; 8990,841;35,00486
 543,54; 3639,578;  654,595; 9152,882;35,12453
 544,12; 3637,161;  639,441; 9316,540;34,54748
 544,70; 3673,653;  606,827; 9383,128;34,94440
 545,29; 3754,285;  609,439; 9530,274;35,25282
 545,87; 3713,665;  604,826; 9507,342;34,92090
 546,45; 3673,066;  556,978; 9574,439;34,55615
 547,03; 3765,734;  520,286; 9587,665;35,79256
 547,62; 3737,982;  491,133; 9758,186;35,03647
 548,20; 3830,500;  497,981; 9886,142;35,49705
 548,78; 3844,101;  456,754; 9964,744;35,62632
 549,36; 3900,200;  423,984;10197,228;35,56870
 549,94; 3910,446;  388,980;10269,440;35,64071
 550,53; 3944,028;  402,907;10455,739;35,22511
 551,11; 4008,047;  366,139;10633,732;35,46993
 551,69; 4094,503;  370,753;10900,806;35,36307
 552,27; 4139,000;  337,060;11133,021;35,21632
 552,85; 4272,237;  340,832;11487,328;35,27032
 553,44; 4326,990;  336,061;11749,436;34,96712
 554,02; 4473,547;  357,216;12100,310;35,05321
 554,60; 4536,154;  289,832;12357,816;35,18667
 555,18; 4642,026;  332,754;12654,911;34,97173
 555,76; 4747,942;  318,985;12952,815;35,05633
 556,34; 4856,322;  312,756;13377,508;34,77728
 556,93; 4980,974;  298,600;13673,035;35,00988
 557,51; 5036,614;  285,141;13978,537;34,69901
 558,09; 5178,097;  316,292;14352,367;34,63792
 558,67; 5289,974;  306,527;14678,948;34,67368
 559,25; 5372,443;  319,603;14952,243;34,53129
 559,83; 5448,314;  304,297;15233,088;34,45702
 560,41; 5554,186;  291,756;15567,263;34,45012
 561,00; 5643,225;  307,219;15895,804;34,23021
 561,58; 5705,776;  295,294;16100,832;34,23156
 562,16; 5741,154;  288,139;16420,784;33,80112
 562,74; 5840,424;  273,523;16733,363;33,82111
 563,32; 5958,427;  265,759;17138,608;33,73863
 563,90; 6066,830;  307,142;17441,068;33,61569
 564,48; 6151,203;  299,832;17811,095;33,41490
 565,06; 6334,185;  290,527;18441,061;33,29741
 565,65; 6521,538;  287,376;19066,758;33,19684
 566,23; 6787,794;  338,604;19715,164;33,28346
 566,81; 6902,787;  290,372;20393,994;32,89166
 567,39; 7161,497;  295,221;21244,127;32,77630
 567,97; 7372,427;  304,142;21778,226;32,91542
 568,55; 7560,037;  326,759;22585,878;32,49580
 569,13; 7769,625;  294,373;23217,961;32,60943
 569,71; 8051,190;  284,216;24067,688;32,65702
 570,29; 8355,154;  330,984;25005,357;32,52026
 570,87; 8535,453;  332,524;25684,447;32,35624
 571,45; 8681,431;  314,450;26317,295;32,17717
 572,03; 8815,572;  270,683;26711,575;32,31695
 572,61; 8937,910;  285,297;27360,047;31,95824
 573,20; 9166,542;  315,449;27919,651;32,06430
 573,78; 9294,899;  293,066;28598,728;31,80223
 574,36; 9390,521;  312,604;29027,362;31,61412
 574,94; 9529,647;  367,683;29348,869;31,61349
 575,52; 9489,571;  314,993;29622,985;31,30401
 576,10; 9708,990;  368,839;30101,802;31,41346
 576,68; 9790,157;  350,606;30665,907;31,13791
 577,26; 9967,270;  368,533;31195,417;31,13755
 577,84;10054,423;  370,066;31790,538;30,82181
 578,42;10107,994;  406,915;31996,906;30,70934
 579,00;10069,678;  370,066;32069,155;30,59902
 579,58;10052,698;  399,145;32314,777;30,24710
 580,16;10057,884;  375,915;32434,378;30,20098
 580,74;10074,335;  376,377;32448,444;30,23802
 581,32;10000,461;  381,068;32557,110;29,89614
 581,90; 9945,910;  400,146;32515,932;29,72297
 582,48; 9933,279;  394,607;32594,883;29,62295
 583,06; 9914,539;  402,606;32782,310;29,37622
 583,64; 9906,550;  401,452;32858,398;29,28525
 584,22; 9834,390;  405,994;32602,494;29,28392
 584,80; 9682,670;  405,915;32445,241;28,95428
 585,38; 9522,307;  422,833;32054,582;28,76690
 585,96; 9442,800;  393,067;32147,397;28,49921
 586,54; 9455,987;  413,532;32050,345;28,58207
 587,12; 9425,246;  382,916;32247,541;28,37733
 587,70; 9454,481;  417,836;32301,539;28,34252
 588,28; 9351,129;  390,916;32379,522;28,01064
 588,86; 9337,660;  384,762;32493,734;27,88285
 589,44; 9292,896;  374,996;32468,964;27,78684
 590,02; 9299,089;  379,303;32622,004;27,66451
 590,59; 9230,782;  352,840;32890,283;27,28531
 591,17; 9307,286;  360,844;33036,886;27,37921
 591,75; 9250,180;  356,843;33156,882;27,11380
 592,33; 9314,331;  371,304;33354,211;27,11413
 592,91; 9292,038;  310,459;33555,089;27,01663
 593,49; 9331,956;  333,460;33842,587;26,85386
 594,07; 9309,290;  344,768;34059,679;26,58919
 594,65; 9271,160;  352,455;33987,463;26,51614
 595,23; 9351,325;  353,533;34362,009;26,45750
 595,81; 9318,333;  333,457;34528,224;26,27559
 596,39; 9331,301;  333,073;34613,281;26,24905
 596,97; 9348,863;  339,459;34856,464;26,10135
 597,55; 9246,014;  341,225;34775,216;25,86046
 598,12; 9208,272;  316,846;34640,725;25,90449
 598,70; 9169,451;  319,306;34828,743;25,64558
 599,28; 9179,405;  330,152;35007,719;25,51867
 599,86; 9103,965;  313,844;34973,927;25,36093
 600,44; 9110,244;  294,076;35219,777;25,24264
 601,02; 9099,115;  334,079;35207,156;25,13410
 601,60; 9036,154;  327,151;35108,636;25,03919
 602,18; 8972,995;  301,846;35161,284;24,87461
 602,75; 8958,574;  303,072;35169,082;24,82504
 603,33; 8908,118;  319,229;35224,113;24,60655
 603,91; 8865,355;  313,001;35227,234;24,49532
 604,49; 8788,440;  330,229;35311,501;24,17926
 605,07; 8774,600;  326,074;35312,786;24,14782
 605,65; 8735,535;  353,384;35453,683;23,88057
 606,23; 8789,096;  395,147;35653,718;23,80683
 606,80; 8712,785;  462,303;35590,688;23,48665
 607,38; 8639,828;  492,693;35651,676;23,17227
 607,96; 8637,888;  550,149;35737,319;22,98491
 608,54; 8663,130;  623,230;35673,519;22,93819
 609,12; 8562,969;  603,611;35783,818;22,62454
 609,70; 8541,960;  649,229;35832,813;22,43299
 610,27; 8511,781;  652,149;35920,081;22,28549
 610,85; 8539,242;  664,305;35938,074;22,32519
 611,43; 8444,980;  661,921;35914,162;22,07819
 612,01; 8349,473;  632,996;35657,077;22,03192
 612,59; 8316,334;  630,306;35736,539;21,89363
 613,16; 8227,333;  593,917;35683,581;21,75403
 613,74; 8127,456;  564,460;35521,319;21,63523
 614,32; 8080,212;  528,153;35566,018;21,55399
 614,90; 8039,322;  470,459;35343,594;21,70399
 615,48; 7900,486;  428,610;35089,336;21,55718
 616,05; 7848,724;  397,224;35099,324;21,47276
 616,63; 7766,578;  402,454;34784,311;21,41863
 617,21; 7698,771;  402,764;34824,960;21,19564
 617,79; 7640,188;  378,919;34725,299;21,14129
 618,36; 7599,657;  389,997;34671,700;21,03064
 618,94; 7461,428;  333,764;34370,147;20,94131
 619,52; 7390,793;  353,839;34089,679;20,85898
 620,10; 7299,559;  342,611;34056,956;20,63498
 620,67; 7269,609;  344,762;33898,672;20,63797
 621,25; 7208,990;  370,689;33852,516;20,42392
 621,83; 7184,592;  345,764;33770,420;20,46043
 622,41; 7155,337;  389,610;33837,758;20,22751
 622,98; 7091,681;  363,454;33668,096;20,20207
 623,56; 7017,216;  353,377;33540,488;20,07960
 624,14; 6917,741;  325,536;33369,870;19,94958
 624,72; 6908,552;  345,533;33240,633;19,95136
 625,29; 6848,939;  315,916;33394,233;19,75017
 625,87; 6844,901;  365,150;33393,232;19,61892
 626,45; 6740,833;  315,684;33170,425;19,55623
 627,02; 6704,341;  332,842;33123,946;19,43057
 627,60; 6656,501;  312,460;33135,253;19,32816
 628,18; 6608,892;  302,995;33174,356;19,18356
 628,76; 6593,824;  302,993;33091,623;19,18601
 629,33; 6595,903;  324,379;33200,941;19,07597
 629,91; 6544,790;  321,918;33119,956;18,97330
 630,49; 6549,673;  334,686;33238,877;18,88813
 631,06; 6523,592;  324,839;33363,193;18,76229
 631,64; 6478,976;  331,377;33310,413;18,64093
 632,22; 6451,010;  294,684;33229,231;18,69261
 632,79; 6443,041;  313,607;33484,975;18,47809
 633,37; 6452,458;  295,227;33515,567;18,53452
 633,95; 6424,684;  298,607;33615,584;18,38725
 634,52; 6416,039;  283,533;33701,571;18,35089
 635,10; 6405,837;  292,764;33721,334;18,28697
 635,68; 6355,020;  286,068;33895,120;18,05749
 636,25; 6325,159;  269,528;33825,119;18,04656
 636,83; 6313,132;  269,993;34157,007;17,83320
 637,41; 6282,022;  273,068;34157,441;17,73370
 637,98; 6337,207;  305,837;34289,462;17,74787
 638,56; 6285,176;  302,143;34357,566;17,56852
 639,13; 6204,128;  275,300;34443,400;17,35194
 639,71; 6274,028;  325,147;34583,409;17,36481
 640,29; 6109,420;  257,070;34377,977;17,15180
 640,86; 6161,787;  265,378;34505,459;17,22078
 641,44; 6165,462;  279,917;34433,864;17,23240
 642,02; 6119,444;  294,455;34588,884;16,98523
 642,59; 6116,734;  276,840;34663,058;16,98324
 643,17; 6044,255;  268,532;34715,540;16,76698
 643,74; 6049,391;  270,071;34605,329;16,83203
 644,32; 6026,451;  292,763;34656,350;16,68536
 644,89; 5991,510;  282,994;34640,985;16,61481
 645,47; 5984,185;  302,994;34616,005;16,55696
 646,05; 5906,475;  293,610;34608,026;16,35716
 646,62; 5896,611;  283,840;34572,969;16,36895
 647,20; 5866,209;  281,994;34689,451;16,22967
 647,77; 5802,192;  259,148;34582,548;16,14946
 648,35; 5760,790;  254,610;34426,953;16,11297
 648,92; 5730,233;  289,764;34584,434;15,86389
 649,50; 5722,139;  244,687;34387,685;16,04268
 650,08; 5666,660;  257,225;34360,244;15,86204
 650,65; 5720,181;  260,379;34672,110;15,86611
 651,23; 5796,702;  245,149;35465,054;15,76254
 651,80; 5884,607;  253,841;36224,920;15,65359
 652,38; 5985,436;  262,149;36596,940;15,75153
 652,95; 5999,111;  237,918;36848,499;15,73641
 653,53; 5965,170;  256,611;37080,519;15,50232
 654,10; 6041,537;  292,380;37233,693;15,56295
 654,68; 5931,981;  246,995;37266,483;15,35674
 655,25; 5947,271;  243,380;37201,272;15,43349
 655,83; 5965,638;  242,842;37430,369;15,38902
 656,40; 5920,082;  269,534;37324,466;15,24911
 656,98; 5891,295;  258,611;37258,641;15,22346
 657,55; 5817,047;  260,073;37055,353;15,10241
 658,13; 5762,799;  248,996;36718,219;15,11906
 658,70; 5670,397;  269,688;36423,778;14,93803
 659,28; 5526,610;  255,073;35604,183;14,91279
 659,85; 5408,977;  265,227;34891,895;14,85488
 660,43; 5337,498;  273,304;34953,839;14,60241
 661,00; 5355,865;  243,150;35105,090;14,66561
 661,58; 5374,694;  247,227;35396,956;14,58750
 662,15; 5392,522;  244,381;35524,746;14,59209
 662,73; 5427,120;  310,073;35886,997;14,38305
 663,30; 5414,487;  251,766;36023,017;14,43260
 663,88; 5421,469;  257,150;36221,268;14,35964
 664,45; 5442,298;  259,304;36345,750;14,36272
 665,03; 5428,588;  247,535;36732,462;14,20053
 665,60; 5540,724;  326,228;37169,790;14,15307
 666,17; 5487,861;  257,459;37191,272;14,16155
 666,75; 5510,536;  252,151;37496,523;14,11860
 667,32; 5541,980;  279,766;37793,389;14,02747
 667,90; 5558,808;  266,997;37992,563;14,02712
 668,47; 5576,867;  271,305;38275,968;13,96029
 669,05; 5572,004;  254,613;38491,373;13,90649
 669,62; 5574,909;  241,305;38653,008;13,88536
 670,19; 5577,276;  241,767;38690,567;13,87692
 670,77; 5584,028;  255,382;38869,587;13,79970
 671,34; 5564,011;  251,305;38826,454;13,77235
 671,92; 5584,224;  238,152;39184,243;13,72685
 672,49; 5614,745;  272,459;39123,802;13,75058
 673,06; 5521,112;  212,767;39219,361;13,60884
 673,64; 5521,171;  223,844;39275,227;13,56502
 674,21; 5503,230;  235,614;39186,401;13,52378
 674,79; 5562,751;  263,306;39349,267;13,55844
 675,36; 5536,272;  276,537;39505,595;13,40775
 675,93; 5439,024;  227,229;39329,231;13,32872
 676,51; 5518,545;  265,306;39550,559;13,37204
 677,08; 5481,758;  256,383;39663,502;13,25998
 677,65; 5490,741;  243,383;39751,830;13,28161
 678,23; 5493,338;  251,614;40022,850;13,17969
 678,80; 5506,936;  253,153;40032,409;13,20734
 679,38; 5468,765;  245,307;40115,352;13,10121
 679,95; 5498,747;  257,153;40459,911;13,03790
 680,52; 5472,653;  239,153;40731,393;12,92470
 681,10; 5561,943;  255,691;41077,028;12,99872
 681,67; 5565,541;  263,845;41356,279;12,90188
 682,24; 5541,523;  231,768;41411,915;12,89397
 682,82; 5622,352;  234,384;41947,858;12,91661
 683,39; 5672,180;  276,999;42202,032;12,86864
 683,96; 5683,009;  254,846;42377,822;12,88647
 684,54; 5706,299;  230,769;42724,457;12,88551
 685,11; 5786,435;  273,000;43057,862;12,88642
 685,68; 5824,418;  248,461;43332,651;12,94200
 686,25; 5762,631;  238,538;43518,364;12,76367
 686,83; 5770,383;  239,231;43610,846;12,75293
 687,40; 5808,365;  232,154;43866,097;12,77953
 687,97; 5844,040;  268,154;44327,425;12,65542
 688,55; 5828,022;  218,154;44330,599;12,71720
 689,12; 5826,697;  212,385;44561,619;12,65932
 689,69; 5869,064;  220,846;44695,101;12,69997
 690,26; 5872,893;  234,847;44697,121;12,68052
 690,84; 5877,721;  234,385;44863,680;12,64491
 691,41; 5872,781;  261,462;44960,084;12,55367
 691,98; 5898,456;  249,693;45226,028;12,55941
 692,56; 5883,592;  237,616;45337,356;12,51887
 693,13; 5908,882;  302,539;45392,145;12,43378
 693,70; 5892,864;  262,462;45500,165;12,44626
 694,27; 5883,924;  232,770;45653,570;12,44177
 694,84; 5888,060;  232,232;45790,744;12,41443
 695,42; 5968,889;  289,078;45798,995;12,48038
 695,99; 5910,410;  248,924;46022,169;12,36855
 696,56; 5899,931;  250,694;45882,420;12,38006
 697,13; 5948,605;  259,232;46260,748;12,36779
 697,71; 5923,126;  224,848;46288,538;12,37043
 698,28; 5979,416;  250,155;46692,866;12,33619
 698,85; 5933,014;  206,463;46700,193;12,31682
 699,42; 5936,535;  219,232;46809,829;12,27137
 699,99; 6002,902;  257,156;46980,234;12,29745
 700,57; 6003,038;  249,386;46888,100;12,33664
 701,14; 5998,098;  239,002;47039,813;12,30555
 701,71; 6047,773;  253,848;47261,679;12,32545
 702,28; 5976,370;  244,002;47341,930;12,17117
 702,85; 5987,353;  253,079;47365,643;12,17143
 703,43; 6043,720;  268,079;47528,201;12,22096
 704,00; 6089,702;  279,002;47766,606;12,23625
 704,57; 6041,916;  263,079;47766,011;12,16522
 705,14; 6064,436;  282,541;48108,570;12,08943
 705,71; 6086,880;  286,233;48083,667;12,13590
 706,28; 6081,401;  261,772;47955,379;12,20212
 706,86; 6130,922;  302,464;48164,630;12,17759
 707,43; 6104,136;  306,234;48130,958;12,12323
 708,00; 6149,349;  294,695;48135,440;12,23780
 708,57; 6098,639;  260,541;48105,614;12,20209
 709,14; 6129,467;  288,849;48148,327;12,20368
 709,71; 6159,065;  269,926;48357,424;12,24672
 710,28; 6147,971;  272,926;48525,521;12,17560
 710,86; 6139,107;  266,926;48618,772;12,14469
 711,43; 6177,320;  290,234;48594,177;12,18759
 712,00; 6162,995;  267,850;48651,812;12,18409
 712,57; 6206,824;  287,542;48726,140;12,22018
 713,14; 6223,883;  257,619;48840,468;12,28060
 713,71; 6244,866;  269,542;48676,950;12,34382
 714,28; 6240,386;  265,081;48751,893;12,32357
 714,85; 6181,215;  241,004;48550,683;12,29611
 715,42; 6193,967;  258,312;48729,241;12,24580
 716,00; 6319,488;  311,081;48896,646;12,36665
 716,57; 6283,393;  250,466;49013,513;12,37192
 717,14; 6220,991;  233,158;48930,994;12,29589
 717,71; 6253,820;  227,158;49031,553;12,34860
 718,28; 6307,725;  268,389;49097,727;12,36825
 718,85; 6258,708;  238,158;49183,055;12,30067
 719,42; 6312,228;  260,928;49361,075;12,32440
 719,99; 6289,519;  244,851;49265,019;12,33098
 720,56; 6310,886;  256,389;49440,346;12,30990
 721,13; 6334,407;  248,159;49581,828;12,33690
 721,70; 6332,851;  232,390;49450,002;12,39487
 722,27; 6345,756;  257,467;49351,330;12,40132
 722,84; 6387,277;  293,697;49525,504;12,37732
 723,41; 6353,798;  241,082;49513,524;12,40595
 723,98; 6380,011;  260,698;49721,468;12,37205
 724,55; 6444,378;  266,390;49713,411;12,49416
 725,12; 6372,976;  203,313;49721,354;12,45942
 725,69; 6449,266;  239,621;49901,605;12,50382
 726,27; 6416,172;  256,390;49959,779;12,39308
 726,84; 6503,770;  263,775;50291,261;12,47313
 727,41; 6544,213;  256,390;50250,743;12,57707
 727,98; 6621,581;  265,929;50505,840;12,65060
 728,55; 6606,101;  289,314;50426,399;12,59903
 729,12; 6583,084;  228,006;50565,957;12,62482
 729,69; 6634,297;  274,929;50800,824;12,58635
 730,26; 6633,972;  268,622;50876,998;12,57766
 730,82; 6646,339;  256,929;50642,403;12,68106
 731,39; 6649,014;  255,852;50879,115;12,62890
 731,96; 6724,227;  238,468;51237,597;12,71739
 732,53; 6781,056;  272,237;51323,463;12,74958
 733,10; 6833,653;  278,314;51434,330;12,81441
 733,67; 6864,482;  258,545;51656,504;12,85253
 734,24; 6780,618;  243,622;51308,986;12,80123
 734,81; 6866,370;  269,930;51450,467;12,88857
 735,38; 6799,660;  263,468;51176,949;12,83784
 735,95; 6808,566;  246,776;51183,662;12,88220
 736,52; 6877,317;  268,545;51265,605;12,95912
 737,09; 6816,530;  267,853;50929,471;12,92631
 737,66; 6903,744;  303,392;51058,261;13,00437
 738,23; 6896,803;  277,007;51168,973;13,00755
 738,80; 7000,170;  311,469;51444,993;13,08085
 739,37; 6987,076;  288,238;51629,552;13,04765
 739,94; 6977,289;  272,084;51594,419;13,06489
 740,51; 7121,964;  351,469;51751,593;13,17214
 741,07; 7026,946;  265,777;51608,305;13,16875
 741,64; 7100,621;  280,777;51832,633;13,22909
 742,21; 7055,757;  258,469;51879,115;13,16777
 742,78; 7083,124;  236,162;51746,520;13,29240
 743,35; 7118,568;  251,470;51908,155;13,29373
 743,92; 7201,781;  300,393;52145,329;13,31160
 744,49; 7228,456;  272,700;52005,119;13,44564
 745,06; 7188,054;  252,624;51929,370;13,42080
 745,63; 7221,267;  238,854;51907,159;13,51392
 746,19; 7234,942;  252,162;51980,949;13,49883
 746,76; 7264,924;  265,932;51939,353;13,54467
 747,33; 7269,368;  264,778;51974,835;13,54590
 747,90; 7322,351;  273,778;52208,009;13,57211
 748,47; 7332,103;  271,701;52144,183;13,61107
 749,04; 7319,162;  271,470;52129,819;13,59027
 749,61; 7345,298;  291,086;52025,916;13,63533
 750,17; 7381,050;  286,240;52168,859;13,67473
 750,74; 7399,571;  271,932;52000,957;13,77880
 751,31; 7424,553;  252,163;51940,592;13,87620
 751,88; 7401,074;  237,855;51827,074;13,88511
 752,45; 7460,903;  259,932;52112,556;13,88738
 753,02; 7447,039;  271,009;51839,345;13,91557
 753,58; 7450,098;  247,625;51722,519;13,99221
 754,15; 7535,158;  258,163;51863,309;14,10130
 754,72; 7480,448;  239,548;51584,713;14,10240
 755,29; 7482,123;  246,471;51476,426;14,12387
 755,86; 7525,182;  262,779;51546,908;14,16111
 756,42; 7605,318;  262,318;51534,928;14,32149
 756,99; 7543,916;  220,471;51381,717;14,31444
 757,56; 7548,283;  241,087;51421,661;14,27728
 758,13; 7604,650;  198,702;51274,373;14,49995
 758,70; 7683,094;  228,010;51322,778;14,59070
 759,26; 7683,077;  222,318;51420,568;14,57229
 759,83; 7686,059;  232,164;51531,126;14,53030
 760,40; 7666,349;  217,549;51386,454;14,55728
 760,97; 7686,332;  197,703;51441,244;14,61380
 761,53; 7675,314;  186,164;51057,187;14,72184
 762,10; 7698,066;  186,780;51068,976;14,76211
 762,67; 7734,279;  223,857;51064,766;14,77240
 763,24; 7649,492;  184,549;50673,940;14,78517
 763,80; 7665,782;  216,703;50865,422;14,70734
 764,37; 7748,919;  221,549;50747,211;14,89811
 764,94; 7696,132;  202,088;50275,770;14,96603
 765,50; 7694,422;  206,934;50332,405;14,93749
 766,07; 7746,405;  251,396;50402,426;14,94488
 766,64; 7744,925;  211,396;50035,061;15,12038
 767,21; 7725,062;  214,627;50003,466;15,08458
 767,77; 7774,198;  236,473;49955,025;15,16079
 768,34; 7796,257;  243,473;49880,968;15,21589
 768,91; 7797,778;  255,627;49750,142;15,23836
 769,47; 7819,069;  249,781;49773,162;15,28427
 770,04; 7863,205;  244,243;49757,952;15,38758
 770,61; 7803,187;  229,704;49299,203;15,43420
 771,18; 7826,939;  224,704;49269,531;15,50058
 771,74; 7890,614;  242,089;49485,474;15,53209
 772,31; 7912,981;  245,089;49168,648;15,67321
 772,88; 7887,348;  219,474;49048,130;15,70364
 773,44; 7838,792;  223,320;48829,073;15,66784
 774,01; 7912,851;  236,397;48924,247;15,76667
 774,58; 7896,141;  222,705;48550,190;15,87800
 775,14; 7931,355;  215,474;48706,211;15,91207
 775,71; 7968,722;  226,782;48668,000;15,98213
 776,27; 8023,858;  270,628;48617,328;16,03673
 776,84; 8026,071;  292,090;48585,271;16,01464
 777,41; 8041,054;  242,090;48367,830;16,20539
 777,97; 7988,651;  234,321;48133,389;16,18890
 778,54; 8035,865;  236,552;48140,178;16,28126
 779,11; 8059,386;  264,013;48163,583;16,27441
 779,67; 8074,829;  233,475;48114,988;16,37658
 780,24; 8081,581;  244,244;47944,931;16,43024
 780,80; 8118,102;  261,706;47863,105;16,50455
 781,37; 8136,315;  251,090;47772,895;16,59286
 781,94; 8075,759;  239,398;47618,299;16,53977
 782,50; 8140,357;  255,629;47480,012;16,69631
 783,07; 8167,032;  276,475;47663,263;16,65139
 783,63; 8186,476;  222,706;47381,129;16,88727
 784,20; 8233,458;  262,398;47373,457;16,91972
 784,77; 8190,210;  251,168;47123,939;16,93743
 785,33; 8162,731;  214,860;46988,113;16,99234
 785,90; 8260,559;  236,706;47031,210;17,14700
 786,46; 8248,927;  255,707;46798,846;17,17379
 787,03; 8248,371;  228,553;46779,251;17,22814
 787,59; 8242,815;  231,322;46570,886;17,28867
 788,16; 8293,259;  246,322;46619,291;17,35264
 788,73; 8301,933;  259,091;46442,004;17,41519
 789,29; 8263,608;  252,553;46130,793;17,46156
 789,86; 8335,744;  255,707;46001,659;17,66285
 790,42; 8342,573;  253,476;45925,526;17,71126
 790,99; 8224,555;  255,784;45600,931;17,57359
 791,55; 8288,230;  238,476;45557,258;17,76251
 792,12; 8320,290;  254,323;45499,663;17,82718
 792,68; 8290,041;  247,323;45235,991;17,87721
 793,25; 8273,408;  262,861;44989,011;17,91021
 793,81; 8317,621;  299,246;44741,032;18,04242
 794,38; 8247,296;  228,015;44555,052;18,09117
 794,94; 8272,971;  233,708;44329,457;18,23138
 795,51; 8284,723;  252,554;44151,477;18,29696
 796,07; 8219,859;  241,093;43886,036;18,28108
 796,64; 8278,303;  255,785;43947,364;18,36170
 797,20; 8232,747;  240,939;43487,615;18,47959
 797,77; 8168,960;  225,939;43314,327;18,43425
 798,33; 8186,173;  235,324;43127,963;18,53663
 798,90; 8203,233;  264,939;42981,214;18,58377
 799,46; 8136,523;  252,401;42522,772;18,65165
 800,03; 8149,967;  250,708;42570,485;18,66564
 800,59; 8149,334;  264,247;42334,890;18,74249
 801,15; 8191,547;  259,709;42172,064;18,92482
 801,72; 8174,683;  258,709;41768,699;19,07005
 802,28; 8158,435;  272,247;41590,027;19,08667
 802,85; 8129,110;  248,324;41492,047;19,10784
 803,41; 8135,323;  249,940;41365,375;19,17864
 803,98; 8084,767;  245,632;40917,857;19,27393
 804,54; 8079,442;  249,863;40654,800;19,37778
 805,11; 8071,578;  245,478;40385,513;19,49699
 805,67; 8086,714;  271,402;40373,687;19,48845
 806,23; 8063,389;  250,863;39949,246;19,67971
 806,80; 8114,449;  270,940;39863,343;19,81064
 807,36; 8105,123;  275,863;39837,132;19,79021
 807,93; 8106,875;  277,402;39479,229;19,97221
 808,49; 7993,473;  243,633;39212,634;19,88719
 809,05; 8000,455;  234,479;38990,731;20,03800
 809,62; 8058,745;  268,171;38935,829;20,14752
 810,18; 8073,882;  269,248;38906,695;20,19966
 810,74; 8055,633;  233,325;38588,638;20,39433
 811,31; 8020,154;  228,864;38424,351;20,39846
 811,87; 8034,829;  244,710;38288,063;20,47695
 812,44; 8058,350;  273,633;38373,314;20,43250
 813,00; 8030,717;  206,787;38039,181;20,68050
 813,56; 8085,699;  253,249;38181,509;20,65070
 814,13; 8061,913;  251,480;37965,760;20,70948
 814,69; 8036,972;  238,864;37852,780;20,73198
 815,25; 8026,878;  218,249;37402,646;20,99974
 815,82; 8056,322;  261,326;37384,359;20,99773
 816,38; 8064,689;  280,711;37139,917;21,11814
 816,94; 8031,517;  240,249;36894,322;21,25621
 817,51; 7979,654;  218,865;36704,727;21,27067
 818,07; 7980,482;  230,173;36415,901;21,41814
 818,63; 7961,311;  254,942;36180,614;21,45087
 819,20; 7993,524;  246,480;36215,942;21,53784
 819,76; 7852,506;  219,788;35852,269;21,42068
 820,32; 7940,720;  270,019;35838,290;21,56613
 820,89; 7914,010;  259,250;35614,002;21,65129
 821,45; 7865,608;  228,865;35311,484;21,76788
 822,01; 7860,052;  259,635;35122,427;21,80094
 822,57; 7887,419;  251,866;34968,601;21,99387
 823,14; 7885,786;  222,327;34700,083;22,22725
 823,70; 7848,845;  230,943;34547,565;22,19887
 824,26; 7838,443;  227,866;34396,508;22,27357
 824,82; 7889,810;  253,481;34222,990;22,47995
 825,39; 7770,023;  232,481;34046,626;22,29109
 825,95; 7833,467;  253,251;34014,107;22,45268
 826,51; 7824,065;  249,635;33684,589;22,65422
 827,08; 7861,586;  283,251;33766,917;22,63293
 827,64; 7859,184;  262,020;33493,629;22,86126
 828,20; 7818,474;  227,943;33295,342;22,95473
 828,76; 7835,687;  259,174;33225,670;22,98246
 829,32; 7827,439;  262,867;33137,690;23,01023
 829,89; 7795,114;  219,790;32910,787;23,17251
 830,45; 7793,634;  234,482;32956,500;23,10112
 831,01; 7811,232;  240,636;32782,443;23,26422
 831,57; 7813,061;  246,944;32631,925;23,36304
 832,14; 7805,736;  232,790;32640,407;23,36780
 832,70; 7825,180;  229,482;32405,196;23,60693
 833,26; 7783,701;  203,021;32310,601;23,61025
 833,82; 7827,914;  237,021;32244,621;23,71591
 834,38; 7857,435;  230,637;32262,103;23,81033
 834,95; 7828,340;  228,406;32021,738;23,90418
 835,51; 7815,169;  209,252;32014,759;23,91384
 836,07; 7850,920;  239,252;32037,548;23,93735
 836,63; 7877,364;  246,406;32006,568;24,02682
 837,19; 7917,347;  232,022;31925,819;24,24867
 837,75; 7841,175;  205,175;31619,455;24,30742
 838,32; 7921,543;  259,329;31716,398;24,35768
 838,88; 7904,679;  244,253;31750,495;24,31399
 839,44; 7935,431;  251,945;31666,669;24,45823
 840,00; 7957,798;  222,099;31582,459;24,66712
 840,56; 7926,549;  219,330;31365,941;24,74497
 841,12; 7937,686;  221,253;31319,115;24,81339
 841,68; 7854,514;  208,022;31134,366;24,72485
 842,25; 7956,035;  221,484;31143,694;25,01293
 842,81; 7926,018;  214,792;30940,714;25,09681
 843,37; 7949,308;  203,407;30873,965;25,25517
 843,93; 7982,444;  230,023;30895,062;25,28098
 844,49; 7986,965;  241,176;30817,621;25,33253
 845,05; 7951,947;  191,869;30641,333;25,48511
 845,61; 8082,391;  236,023;30743,046;25,71988
 846,17; 8012,297;  219,407;30596,374;25,65394
 846,73; 8058,895;  227,561;30595,932;25,78780
 847,29; 8054,262;  206,869;30359,029;26,02597
 847,86; 8020,936;  216,638;30319,050;25,92582
 848,42; 8024,150;  217,023;30150,147;26,08190
 848,98; 8032,363;  227,177;30061,782;26,16152
 849,54; 8060,807;  216,408;30169,341;26,18908
 850,10; 8028,943;  226,793;29957,669;26,24259
 850,66; 8044,926;  215,331;29826,612;26,44126
 851,22; 8018,908;  210,485;29781,863;26,40534
 851,78; 8090,506;  256,254;29847,268;26,47510
 852,34; 8023,950;  231,793;29662,827;26,47599
 852,90; 8033,779;  221,024;29433,847;26,74426
 853,46; 7954,838;  213,870;29369,406;26,55059
 854,02; 8023,205;  235,562;29330,041;26,76674
 854,58; 8009,726;  221,178;29076,908;26,99134
 855,14; 8028,016;  202,870;29011,774;27,16225
 855,70; 8019,768;  188,563;28872,333;27,30187
 856,26; 8010,673;  231,255;28706,968;27,31948
 856,82; 8027,733;  217,871;28629,527;27,48823
 857,38; 8074,869;  232,717;28545,316;27,69845
 857,94; 8066,390;  217,332;28447,567;27,80373
 858,50; 8036,141;  230,794;28301,511;27,80601
 859,06; 7994,278;  227,179;28141,608;27,82467
 859,62; 8064,799;  235,563;28086,013;28,11170
 860,18; 8058,858;  213,948;27986,956;28,24653
 860,74; 8007,379;  192,179;27894,284;28,21157
 861,30; 8011,208;  197,333;27648,150;28,46500
 861,86; 8056,267;  257,410;27749,786;28,36734
 862,42; 7991,403;  225,410;27556,652;28,41434
 862,98; 8098,770;  251,025;27538,519;28,75949
 863,54; 8013,291;  219,718;27348,924;28,72761
 864,10; 8032,043;  214,179;27380,867;28,77739
 864,66; 8009,102;  202,410;27150,964;28,96887
 865,22; 8019,315;  219,872;27017,446;29,10504
 865,78; 7996,529;  227,410;26862,620;29,16860
 866,34; 8008,588;  210,180;26878,871;29,24181
 866,90; 8048,417;  234,103;26742,660;29,47846
 867,45; 8052,938;  228,180;26529,757;29,75015
 868,01; 8010,228;  216,334;26471,008;29,68574
 868,57; 8004,979;  218,488;26288,105;29,86807
 869,13; 7967,654;  207,257;26107,741;29,96236
 869,69; 8004,944;  227,180;26073,992;30,09177
 870,25; 7983,927;  198,334;25914,166;30,27548
 870,81; 8016,371;  219,488;25913,494;30,34514
 871,37; 7961,276;  222,103;25892,207;30,14858
 871,93; 7956,182;  239,565;25735,996;30,26548
 872,49; 7938,241;  245,104;25502,785;30,45860
 873,04; 7942,070;  209,104;25358,575;30,74803
 873,60; 7923,129;  206,181;25287,364;30,76788
 874,16; 7885,265;  232,950;25104,769;30,76701
 874,72; 7950,035;  215,488;25067,231;31,12275
 875,28; 7936,496;  229,335;25103,385;30,98475
 875,84; 7886,727;  226,719;24948,615;30,98471
 876,40; 7982,342;  207,796;24922,462;31,45722
 876,95; 7943,727;  225,950;24930,846;31,23987
 877,51; 7958,650;  245,181;24925,077;31,25406
 878,07; 8005,573;  261,950;24869,846;31,46804
 878,63; 7966,881;  213,565;24810,769;31,52113
 879,19; 8056,035;  237,104;24839,154;31,78162
 879,75; 8066,573;  216,565;24854,615;31,86132
 880,30; 8066,112;  214,719;24934,077;31,76212
 880,86; 8164,727;  257,104;25041,077;31,90620
 881,42; 8095,804;  210,258;25074,385;31,71455
 881,98; 8172,727;  234,335;25065,231;31,96982
 882,54; 8233,112;  211,488;25246,000;32,04226
 883,09; 8281,188;  236,181;25284,000;32,11860
 883,65; 8317,573;  210,258;25268,769;32,35354
 884,21; 8407,804;  242,565;25458,538;32,38122
 884,77; 8380,650;  206,181;25488,000;32,33339
 885,32; 8453,881;  218,488;25703,385;32,31480
 885,88; 8557,112;  252,104;25821,308;32,48051
 886,44; 8563,188;  225,488;25889,615;32,48776
 887,00; 8579,265;  238,027;25979,154;32,40433
 887,56; 8651,804;  221,412;25981,385;32,72671
 888,11; 8689,650;  223,412;26086,385;32,73498
 888,67; 8720,188;  256,258;26192,538;32,63356
 889,23; 8760,958;  226,719;26160,769;32,90747
 889,79; 8708,727;  202,104;26091,769;32,85722
 890,34; 8779,727;  224,258;26095,769;33,06907
 890,90; 8822,573;  283,104;26182,154;32,97213
 891,46; 8742,958;  223,719;26152,923;32,85577
 892,01; 8794,265;  248,719;26115,308;33,03701
 892,57; 8808,496;  255,873;26060,923;33,14321
 893,13; 8719,035;  233,642;25861,692;33,10979
 893,69; 8761,112;  220,873;25798,000;33,39014
 894,24; 8737,419;  230,488;25735,077;33,35451
 894,80; 8754,727;  240,950;25538,231;33,65491
 895,36; 8722,496;  222,796;25436,769;33,71028
 895,91; 8698,881;  223,565;25247,000;33,86951
 896,47; 8685,958;  229,027;25147,692;33,93814
 897,03; 8651,496;  218,873;25030,692;33,98632
 897,58; 8634,804;  234,335;24921,923;34,02710
 898,14; 8656,419;  230,873;24745,923;34,36887
 898,70; 8577,804;  209,258;24557,846;34,36974
 899,25; 8638,035;  227,950;24569,846;34,54983
 899,81; 8601,188;  241,412;24388,769;34,61984
 900,37; 8511,419;  196,642;24264,385;34,54739
 900,92; 8585,881;  234,027;24253,615;34,77101
 901,48; 8535,188;  221,104;24082,846;34,84274
 902,03; 8518,342;  218,642;23990,692;34,91369
 902,59; 8493,419;  215,488;23932,077;34,90355
 903,15; 8504,881;  236,950;23759,000;35,14970
 903,70; 8432,419;  222,950;23520,769;35,23707
 904,26; 8431,496;  217,027;23439,000;35,37369
 904,82; 8496,419;  230,565;23476,231;35,55869
 905,37; 8479,342;  234,642;23271,923;35,78851
 905,93; 8389,958;  217,796;23153,077;35,63140
 906,48; 8429,727;  222,104;23146,385;35,80319
 907,04; 8451,727;  239,104;23028,769;36,03661
 907,60; 8410,958;  218,642;22823,769;36,24096
 908,15; 8365,496;  223,950;22778,308;36,09744
 908,71; 8395,419;  245,412;22727,385;36,25130
 909,26; 8368,727;  218,181;22645,385;36,34223
 909,82; 8396,419;  242,719;22468,077;36,68647
 910,37; 8439,727;  260,719;22397,538;36,94753
 910,93; 8338,188;  212,335;22187,385;36,97764
 911,48; 8300,035;  203,412;22062,769;37,03962
 912,04; 8273,419;  217,258;22000,154;36,98389
 912,60; 8348,573;  227,642;21990,462;37,31562
 913,15; 8257,419;  228,335;21811,846;37,20008
 913,71; 8260,804;  213,027;21601,692;37,62636
 914,26; 8222,035;  201,027;21594,231;37,49325
 914,82; 8195,265;  225,873;21515,923;37,43247
 915,37; 8234,650;  216,873;21474,077;37,71793
 915,93; 8222,573;  258,412;21337,846;37,78167
 916,48; 8175,188;  218,104;21185,308;37,95015
 917,04; 8190,496;  241,719;21087,923;38,13057
 917,59; 8175,265;  254,258;21035,538;38,11607
 918,15; 8101,265;  195,181;20857,231;38,26380
 918,70; 8086,881;  214,258;20725,923;38,38120
 919,26; 8097,342;  228,258;20759,538;38,32730
 919,81; 8003,342;  212,335;20535,231;38,33611
 920,37; 8056,573;  221,488;20466,462;38,70138
 920,92; 8024,958;  235,642;20381,308;38,66497
 921,48; 7922,881;  199,181;20238,000;38,54369
 922,03; 7955,265;  217,488;20179,538;38,76244
 922,59; 7963,112;  207,412;20045,923;39,09416
 923,14; 7863,188;  219,335;19965,308;38,71095
 923,69; 7933,496;  237,565;19844,462;39,25114
 924,25; 7955,573;  232,950;19874,231;39,31833
 924,80; 7892,265;  229,873;19695,769;39,36316
 925,36; 7848,496;  215,181;19641,000;39,29469
 925,91; 7821,265;  220,950;19470,077;39,48395
 926,47; 7785,650;  191,796;19447,846;39,43620
 927,02; 7883,265;  245,335;19319,538;40,04325
 927,57; 7761,881;  216,565;19132,615;39,88843
 928,13; 7733,342;  209,335;19102,615;39,82372
 928,68; 7732,419;  209,873;19068,077;39,89005
 929,24; 7650,650;  186,950;18903,154;39,87828
 929,79; 7660,573;  205,181;18749,462;40,20319
 930,34; 7602,112;  214,873;18672,923;40,02177
 930,90; 7637,958;  205,104;18569,154;40,47503
 931,45; 7632,573;  222,258;18575,769;40,37546
 932,01; 7658,881;  222,950;18471,923;40,74712
 932,56; 7618,342;  227,027;18341,846;40,80259
 933,11; 7611,958;  236,565;18302,308;40,82529
 933,67; 7556,650;  211,104;18164,385;40,91478
 934,22; 7522,881;  228,258;18116,385;40,77913
 934,77; 7503,881;  234,950;18054,538;40,79180
 935,33; 7497,881;  223,950;17880,462;41,19687
 935,88; 7509,804;  234,950;17859,000;41,27799
 936,43; 7470,035;  215,488;17766,077;41,33506
 936,99; 7430,650;  219,565;17629,154;41,42019
 937,54; 7405,496;  203,873;17455,231;41,74525
 938,09; 7374,496;  221,642;17464,538;41,48290
 938,65; 7335,573;  224,796;17387,231;41,43222
 939,20; 7315,265;  197,950;17305,538;41,60327
 939,75; 7328,188;  199,719;17178,154;41,98543
 940,31; 7281,727;  203,642;17127,308;41,82359
 940,86; 7266,112;  222,488;17076,769;41,79130
 941,41; 7335,112;  285,258;16921,077;42,37756
 941,96; 7249,727;  206,412;16901,692;42,18746
 942,52; 7225,265;  209,104;16811,231;42,26062
 943,07; 7161,342;  191,181;16720,692;42,16798
 943,62; 7134,650;  202,412;16572,846;42,34609
 944,18; 7098,804;  186,950;16549,077;42,24300
 944,73; 7103,496;  220,488;16471,231;42,35504
 945,28; 7052,804;  179,488;16238,462;42,80047
 945,83; 7090,112;  203,181;16281,769;42,83293
 946,39; 7089,188;  212,565;16275,538;42,81040
 946,94; 7079,804;  222,027;16181,077;42,97108
 947,49; 7019,112;  199,719;16089,231;42,91757
 948,04; 7074,958;  230,027;16042,231;43,28891
 948,59; 7054,035;  226,488;15986,846;43,32101
 949,15; 7030,958;  202,181;15877,077;43,56505
 949,70; 6974,342;  201,027;15815,385;43,37876
 950,25; 6954,958;  230,412;15687,615;43,50429
 950,80; 6907,727;  187,642;15695,538;43,33331
 951,36; 6882,112;  187,258;15531,308;43,63160
 951,91; 6933,265;  217,719;15578,462;43,71889
 952,46; 6823,419;  187,719;15322,154;43,84505
 953,01; 6891,650;  226,027;15402,385;43,92110
 953,56; 6834,035;  197,642;15262,846;44,05113
 954,11; 6849,727;  214,719;15186,000;44,31824
 954,67; 6819,804;  205,181;15120,538;44,34773
 955,22; 6808,573;  184,027;14942,923;44,88511
 955,77; 6840,496;  226,719;14970,615;44,85773
 956,32; 6828,035;  252,412;14885,769;44,93585
 956,87; 6726,342;  207,104;14778,769;44,73914
 957,42; 6722,496;  198,412;14712,615;44,94966
 957,98; 6702,112;  196,335;14608,769;45,14003
 958,53; 6719,573;  231,873;14586,385;45,19624
 959,08; 6697,650;  194,950;14485,615;45,50313
 959,63; 6645,650;  203,412;14371,231;45,47093
 960,18; 6652,573;  232,335;14404,154;45,30285
 960,73; 6659,650;  208,565;14290,769;45,81019
 961,28; 6591,573;  186,412;14175,615;45,78646
 961,83; 6621,573;  225,258;14118,308;46,03968
 962,39; 6559,881;  190,642;13989,154;46,15888
 962,94; 6550,188;  220,488;13965,462;46,05102
 963,49; 6497,342;  205,104;13809,231;46,25242
 964,04; 6514,188;  224,950;13855,077;46,14219
 964,59; 6468,188;  189,258;13704,846;46,45695
 965,14; 6472,188;  220,873;13630,077;46,61959
 965,69; 6430,342;  206,181;13612,462;46,42721
 966,24; 6388,496;  214,181;13478,692;46,54763
 966,79; 6359,573;  217,412;13381,923;46,65696
 967,34; 6292,112;  193,258;13295,538;46,54803
 967,89; 6292,188;  195,488;13286,538;46,57151
 968,44; 6309,958;  212,258;13162,538;47,08547
 968,99; 6330,265;  214,873;13079,769;47,53550
 969,55; 6262,496;  222,719;13075,923;46,99044
 970,10; 6252,265;  219,873;12964,923;47,33126
 970,65; 6201,573;  229,181;12913,077;47,08642
 971,20; 6161,804;  205,873;12780,154;47,36598
 971,75; 6096,958;  186,873;12637,308;47,46890
 972,30; 6089,958;  209,950;12610,462;47,41746
 972,85; 6056,650;  202,027;12480,154;47,68336
 973,40; 6039,958;  209,104;12370,154;47,94696
 973,95; 6026,265;  211,488;12308,538;48,06773
 974,50; 6009,958;  230,027;12304,308;47,86977
 975,05; 6004,804;  217,412;12175,462;48,39746
 975,60; 5996,419;  227,796;12128,538;48,47280
 976,15; 5965,419;  212,873;12036,154;48,65440
 976,70; 5967,419;  221,335;11990,692;48,82241
 977,25; 5917,804;  221,719;11916,923;48,70445
 977,80; 5882,804;  209,181;11752,538;49,15054
 978,35; 5831,419;  220,719;11651,000;49,08628
 978,89; 5828,650;  200,950;11582,538;49,44565
 979,44; 5804,265;  213,488;11540,692;49,35708
 979,99; 5713,881;  206,335;11445,462;49,00333
 980,54; 5750,881;  229,719;11341,462;49,68763
 981,09; 5683,727;  227,412;11285,692;49,34144
 981,64; 5661,573;  221,027;11144,692;49,80513
 982,19; 5690,804;  249,565;11117,846;50,06531
 982,74; 5605,804;  227,335;11010,769;49,87714
 983,29; 5556,573;  209,565;10892,615;50,05132
 983,84; 5553,188;  217,873;10746,308;50,67530
 984,39; 5575,342;  269,488;10738,538;50,68133
 984,94; 5443,804;  193,642;10578,846;50,55425
 985,49; 5460,573;  243,258;10563,846;50,55250
 986,03; 5439,112;  237,796;10448,923;50,93772
 986,58; 5377,958;  258,719;10339,462;50,78236
 987,13; 5342,573;  225,488;10240,154;51,09591
 987,68; 5316,188;  233,950;10120,692;51,40458
 988,23; 5284,419;  229,873;10080,846;51,31012
 988,78; 5198,035;  217,258;10014,077;50,84076
 989,33; 5201,573;  234,488; 9855,846;51,62561
 989,88; 5206,035;  240,565; 9836,462;51,74576
 990,42; 5134,958;  217,027; 9720,077;51,75108
 990,97; 5069,650;  217,181; 9595,385;51,74199
 991,52; 5067,035;  243,642; 9496,231;52,13019
 992,07; 5018,188;  251,258; 9446,846;51,83932
 992,62; 4940,727;  232,412; 9340,538;51,69356
 993,17; 4910,265;  227,258; 9286,154;51,69513
 993,71; 4885,881;  222,642; 9164,231;52,15224
 994,26; 4802,265;  212,873; 9036,000;52,01549
 994,81; 4785,342;  247,412; 9032,231;51,65651
 995,36; 4756,112;  212,335; 8858,462;52,55274
 995,91; 4693,342;  227,642; 8838,538;51,86104
 996,45; 4674,188;  222,104; 8726,308;52,35157
 997,00; 4590,496;  197,873; 8618,154;52,16718
 997,55; 4639,265;  227,027; 8578,385;52,83259
 998,10; 4560,881;  256,258; 8453,692;52,51183
 998,65; 4540,035;  215,335; 8365,462;53,06298
 999,19; 4509,419;  239,565; 8279,154;53,11035
 999,74; 4462,342;  260,719; 8182,769;53,03707
1000,29; 4445,265;  244,950; 8119,923;53,33752
1000,84; 4396,419;  208,642; 7979,538;53,89053
1001,38; 4347,881;  230,335; 7906,308;53,64201
1001,93; 4361,188;  234,950; 7885,692;53,93252
1002,48; 4230,035;  206,642; 7711,000;53,61408
1003,03; 4233,958;  227,104; 7758,846;53,19956
1003,57; 4226,727;  236,565; 7587,385;54,28186
1004,12; 4190,342;  253,258; 7494,077;54,37347
1004,67; 4126,804;  219,642; 7450,769;54,03254
1005,22; 4066,342;  208,488; 7283,692;54,52640
1005,76; 3983,881;  214,258; 7178,538;54,12796
1006,31; 3988,650;  247,642; 7171,385;54,03158
1006,86; 3903,265;  214,412; 6999,231;54,36923
1007,40; 3866,265;  207,950; 6929,077;54,43009
1007,95; 3820,496;  220,565; 6885,231;54,01518
1008,50; 3768,573;  224,796; 6739,231;54,39884
1009,04; 3736,881;  228,104; 6675,154;54,42453
1009,59; 3686,727;  234,565; 6526,692;54,86478
1010,14; 3606,112;  211,335; 6464,846;54,28593
1010,68; 3554,804;  225,258; 6382,769;54,07292
1011,23; 3543,112;  216,027; 6227,000;55,35018
1011,78; 3500,112;  234,258; 6193,154;54,80636
1012,32; 3438,650;  229,258; 6099,769;54,66972
1012,87; 3459,804;  240,565; 6102,615;54,91660
1013,42; 3342,958;  208,027; 5991,615;54,20390
1013,96; 3388,727;  244,104; 5981,846;54,80593
1014,51; 3286,112;  186,104; 5891,692;54,33283
1015,06; 3319,650;  198,873; 5874,615;54,98447
1015,60; 3390,342;  265,104; 5948,077;54,99302
1016,15; 3336,342;  211,950; 5894,385;54,98334
1016,69; 3358,112;  223,565; 5911,231;55,11130
1017,24; 3349,496;  192,027; 5917,769;55,14515
1017,79; 3425,881;  244,335; 5945,154;55,80858
1018,33; 3373,573;  205,642; 5950,231;55,14635
1018,88; 3437,573;  237,258; 6016,692;55,37419
1019,42; 3411,035;  223,335; 5982,154;55,35336
1019,97; 3416,804;  209,027; 5999,923;55,39345
1020,51; 3424,881;  237,104; 6019,000;55,13376
1021,06; 3390,650;  205,642; 6009,077;54,88143
1021,61; 3408,573;  193,335; 5971,846;55,64129
1022,15; 3358,650;  180,027; 5951,077;55,07877
1022,70; 3403,188;  210,335; 5900,308;56,11369
1023,24; 3327,804;  196,796; 5892,077;54,97548
1023,79; 3342,496;  221,181; 5877,769;55,18017
1024,33; 3313,881;  213,488; 5796,000;55,53759
1024,88; 3293,650;  216,796; 5746,000;55,64732
1025,42; 3262,419;  219,104; 5599,000;56,56829
1025,97; 3246,112;  213,565; 5583,692;56,47066
1026,51; 3148,804;  171,642; 5441,615;56,49292
1027,06; 3163,496;  206,488; 5398,154;56,95682
1027,60; 3112,573;  219,719; 5305,231;56,88423
1028,15; 3083,188;  221,796; 5265,846;56,72807
1028,69; 2996,035;  196,642; 5087,615;57,23590
1029,24; 2959,188;  211,488; 5082,692;56,40700
1029,78; 2929,265;  205,104; 4956,077;57,33902
1030,33; 2883,342;  190,950; 4822,923;58,12625
1030,87; 2867,958;  196,104; 4851,308;57,39499
1031,42; 2803,342;  192,488; 4772,308;57,00779
1031,96; 2788,958;  214,719; 4699,462;57,39992
1032,51; 2767,035;  190,719; 4611,308;58,27992
1033,05; 2730,881;  217,642; 4587,923;57,50748
1033,60; 2661,342;  170,104; 4450,769;58,19746
1034,14; 2654,112;  201,181; 4417,846;58,17229
1034,69; 2634,881;  211,412; 4387,154;58,03685
1035,23; 2589,419;  205,104; 4293,692;58,31635
1035,77; 2559,265;  203,412; 4215,231;58,72283
1036,32; 2508,727;  184,642; 4177,923;58,19988
1036,86; 2514,958;  208,104; 4109,231;59,13301
1037,41; 2472,727;  217,873; 4066,077;58,59497
1037,95; 2434,419;  181,565; 4006,538;58,89855
1038,50; 2404,573;  197,873; 3958,462;58,67965
1039,04; 2417,265;  223,335; 3928,769;59,20846
1039,58; 2335,881;  194,412; 3855,000;58,50068
1040,13; 2330,881;  209,642; 3777,846;59,44835
1040,67; 2324,727;  233,027; 3757,846;59,34205
1041,21; 2305,727;  228,027; 3721,077;59,48097
1041,76; 2218,419;  185,258; 3618,154;59,22584
1042,30; 2216,573;  205,181; 3569,077;59,79353
1042,85; 2211,265;  203,027; 3537,769;60,22170
1043,39; 2152,727;  203,335; 3485,077;59,40114
1043,93; 2160,112;  221,719; 3464,923;59,76782
1044,48; 2127,112;  211,796; 3401,615;60,04464
1045,02; 2074,188;  204,796; 3327,538;59,86380
1045,56; 2059,958;  231,181; 3315,231;59,29790
1046,11; 2043,265;  219,181; 3292,769;59,34707
1046,65; 2008,496;  220,642; 3224,077;59,52698
1047,19; 2012,112;  192,488; 3170,231;61,10747
1047,74; 1934,727;  183,258; 3096,385;60,12334
1048,28; 1954,496;  198,873; 3065,615;61,24105
1048,82; 1963,881;  228,488; 3054,846;61,40031
1049,37; 1919,188;  215,642; 2970,923;61,82841
1049,91; 1887,265;  197,488; 2944,385;61,51586
1050,45; 1867,496;  217,104; 2946,077;60,47668
1050,99; 1825,496;  210,488; 2879,077;60,51917
1051,54; 1787,035;  202,950; 2820,846;60,50983
1052,08; 1796,496;  233,258; 2792,231;61,08851
1052,62; 1768,419;  219,488; 2780,231;60,48757
1053,16; 1717,573;  210,027; 2699,538;60,55590
1053,71; 1700,496;  210,796; 2701,154;59,81872
1054,25; 1710,035;  231,488; 2645,462;61,24949
1054,79; 1686,496;  219,873; 2617,231;61,17665
1055,33; 1644,188;  190,642; 2513,769;62,56852
1055,88; 1664,342;  221,873; 2539,154;62,24836
1056,42; 1647,265;  226,412; 2507,154;62,29787
1056,96; 1605,650;  221,258; 2475,615;61,40961
1057,50; 1593,727;  215,565; 2434,846;62,09947
1058,05; 1566,650;  215,335; 2397,231;61,93308
1058,59; 1536,188;  240,412; 2335,538;61,84718
1059,13; 1480,496;  200,642; 2290,923;61,22880
1059,67; 1522,419;  226,181; 2308,615;62,24630
1060,21; 1475,573;  214,335; 2240,231;62,25583
1060,76; 1469,958;  223,796; 2227,769;62,18454
1061,30; 1451,881;  234,488; 2208,462;61,67218
1061,84; 1419,573;  215,181; 2163,615;61,81333
1062,38; 1389,188;  197,950; 2118,538;62,02466
1062,92; 1418,804;  251,565; 2124,538;62,32009
1063,46; 1377,035;  237,104; 2083,308;61,74458
1064,01; 1351,650;  209,027; 2045,154;62,23007
1064,55; 1340,496;  227,873; 2009,231;62,45927
1065,09; 1286,112;  197,642; 1970,769;61,38699
1065,63; 1339,573;  247,027; 1987,154;62,78543
1066,17; 1318,727;  237,027; 1958,231;62,84555
1066,71; 1299,573;  239,181; 1928,077;62,78612
1067,25; 1263,112;  213,950; 1876,692;63,09826
1067,80; 1269,265;  232,796; 1891,615;62,48235
1068,34; 1268,188;  241,873; 1867,692;63,12605
1068,88; 1229,188;  223,488; 1805,769;63,56015
1069,42; 1245,573;  244,104; 1836,538;62,88919
1069,96; 1197,881;  203,796; 1778,462;63,12990
1070,50; 1237,804;  252,950; 1790,154;64,06788
1071,04; 1171,881;  208,258; 1720,000;63,74255
1071,58; 1180,419;  222,027; 1711,923;64,32611
1072,12; 1158,804;  213,258; 1714,462;62,98586
1072,66; 1147,958;  218,181; 1674,462;63,84599
1073,21; 1156,419;  232,719; 1692,231;63,28830
1073,75; 1127,727;  225,104; 1652,077;63,25439
1074,29; 1118,650;  239,335; 1613,615;63,98368
1074,83; 1120,342;  247,181; 1623,385;63,44711
1075,37; 1115,035;  239,873; 1593,000;64,67697
1075,91; 1103,112;  238,719; 1559,462;65,44746
1076,45; 1078,958;  225,950; 1549,846;64,43162
1076,99; 1072,804;  232,950; 1527,077;64,89733
1077,53; 1038,265;  211,796; 1491,769;64,56927
1078,07; 1037,804;  232,488; 1502,769;63,39664
1078,61; 1031,958;  218,719; 1458,769;65,58110
1079,15; 1002,035;  222,873; 1460,692;62,94631
1079,69;  998,727;  238,796; 1427,769;63,91488
1080,23; 1009,265;  245,258; 1426,923;64,65516
1080,77; 1015,035;  270,565; 1448,077;63,22394
1081,31;  973,112;  218,027; 1377,000;65,15118
1081,85;  996,188;  236,950; 1402,846;65,12059
1082,39;  966,342;  232,181; 1352,154;65,55171
1082,93;  959,112;  233,488; 1352,615;64,83832
1083,47;  932,419;  211,104; 1306,000;65,87980
1084,01;  944,112;  243,488; 1335,154;64,17929
1084,55;  909,035;  218,027; 1301,615;63,77031
1085,09;  918,496;  232,642; 1288,692;64,94521
1085,63;  914,342;  224,104; 1279,846;65,37945
1086,17;  888,881;  227,565; 1238,000;65,44861
1086,71;  875,342;  218,565; 1226,769;65,14327
1087,24;  913,804;  249,488; 1243,615;66,82400
1087,78;  884,804;  227,796; 1227,000;65,75312
1088,32;  854,035;  215,642; 1171,615;66,77932
1088,86;  864,419;  247,181; 1195,846;65,06388
1089,40;  852,881;  229,181; 1187,923;65,05398
1089,94;  808,881;  205,565; 1135,000;64,91208
1090,48;  795,958;  227,104; 1167,615;60,48345
1091,02;  823,496;  242,873; 1144,538;64,39452
1091,56;  813,881;  223,642; 1136,154;64,68285
1092,10;  778,573;  213,104; 1098,846;63,84128
1092,63;  821,342;  245,181; 1131,308;65,02020
1093,17;  799,342;  237,181; 1092,231;65,74604
1093,71;  781,112;  228,719; 1072,923;65,43352
1094,25;  798,112;  243,719; 1082,308;66,11018
1094,79;  775,573;  227,719; 1049,077;66,70101
1095,33;  758,727;  230,258; 1032,000;65,91510
1095,87;  741,342;  229,565; 1010,462;65,53713
1096,40;  716,573;  212,950; 1001,538;63,86387
1096,94;  741,958;  237,181; 1012,615;65,09600
1097,48;  730,112;  228,873;  996,615;65,28733
1098,02;  699,573;  221,027;  976,769;63,32134
1098,56;  676,112;  194,488;  948,462;63,87802
1099,10;  681,342;  199,181;  928,154;66,14257
1099,63;  691,650;  203,719;  937,538;66,49196
1100,17;  693,650;  232,873;  944,154;64,78130
1100,71;  716,958;  248,258;  936,615;68,08960

