
Integration time [ms]: 120,000
Averaging Nr. [scans]: 13
Smoothing Nr. [pixels]: 0
Data measured with spectrometer [name]: 2009305U1
Wave   ;Sample   ;Dark     ;Reference;Reflectance
[nm]   ;[counts] ;[counts] ;[counts] ;[%]

 175,72;  194,577;  188,260;  191,032;227,89325
 176,32;  221,112;  224,410;  220,873; 0,00000
 176,92;  242,912;  232,797;  240,423;132,63365
 177,52;  242,031;  239,797;  253,164;16,70996
 178,12;  218,347;  226,102;  208,578; 0,00000
 178,72;  254,364;  255,947;  239,478; 0,00000
 179,32;  244,174;  240,102;  239,368; 0,00000
 179,92;  233,848;  233,873;  234,772; 0,00000
 180,52;  231,519;  231,570;  253,930;-0,22715
 181,12;  244,982;  244,488;  238,404; 0,00000
 181,73;  254,957;  262,027;  251,328; 0,00000
 182,33;  323,840;  322,568;  321,283; 0,00000
 182,93;  259,896;  258,259;  259,299;157,44304
 183,53;  233,976;  241,408;  225,007; 0,00000
 184,13;  235,552;  230,793;  223,348; 0,00000
 184,73;  263,843;  261,100;  267,377;43,69559
 185,33;  251,182;  229,461;  330,588;21,47944
 185,93;  258,757;  233,150;  351,317;21,67013
 186,53;  273,032;  243,690;  377,755;21,88634
 187,13;  293,995;  267,616;  401,255;19,73896
 187,73;  264,482;  225,381;  357,645;29,56265
 188,33;  271,150;  231,764;  359,112;30,92734
 188,93;  278,086;  240,452;  371,007;28,82654
 189,53;  286,966;  237,678;  366,423;38,28347
 190,13;  314,622;  265,826;  401,940;35,84970
 190,73;  249,327;  214,522;  345,202;26,63382
 191,34;  285,100;  252,219;  374,280;26,93756
 191,94;  256,534;  231,686;  356,499;19,90837
 192,54;  279,355;  233,926;  381,714;30,73891
 193,14;  279,693;  255,847;  373,580;20,25454
 193,74;  278,286;  243,385;  375,282;26,46084
 194,34;  275,566;  240,155;  375,352;26,19224
 194,94;  242,482;  215,155;  344,253;21,16768
 195,54;  213,865;  171,538;  318,943;28,71470
 196,14;  249,103;  217,541;  352,884;23,32027
 196,74;  249,299;  216,229;  339,632;26,79829
 197,34;  223,983;  187,081;  333,058;25,27908
 197,94;  251,851;  208,309;  357,667;29,15265
 198,54;  256,781;  230,464;  369,533;18,92385
 199,14;  240,292;  202,467;  365,217;23,24168
 199,74;  223,658;  188,851;  355,466;20,89035
 200,34;  220,907;  190,236;  375,136;16,58763
 200,94;  253,955;  230,311;  409,207;13,21655
 201,54;  243,991;  202,158;  419,775;19,22309
 202,14;  274,294;  240,776;  448,835;16,11006
 202,74;  256,192;  208,236;  445,607;20,20296
 203,34;  238,555;  187,546;  478,231;17,54785
 203,94;  220,889;  165,391;  477,928;17,75732
 204,54;  280,480;  230,771;  557,401;15,21886
 205,14;  239,355;  189,159;  568,328;13,23847
 205,74;  306,671;  231,777;  642,194;18,24827
 206,34;  269,837;  191,545;  673,542;16,24339
 206,94;  284,454;  210,237;  710,931;14,82290
 207,54;  274,525;  174,621;  749,837;17,36808
 208,14;  297,145;  194,006;  823,309;16,38926
 208,74;  306,889;  206,236;  906,545;14,37270
 209,34;  306,955;  198,851;  975,821;13,91355
 209,94;  324,057;  205,159; 1073,894;13,68631
 210,54;  349,235;  203,468; 1163,194;15,18832
 211,14;  359,634;  206,082; 1275,318;14,36091
 211,73;  377,746;  203,697; 1392,580;14,63977
 212,33;  402,282;  217,773; 1454,727;14,91643
 212,93;  397,928;  192,620; 1576,969;14,83063
 213,53;  379,639;  170,928; 1611,410;14,48896
 214,13;  415,913;  188,855; 1679,996;15,22715
 214,73;  404,909;  176,468; 1722,219;14,77867
 215,33;  401,749;  159,390; 1733,894;15,39274
 215,93;  445,527;  190,777; 1870,147;15,16939
 216,53;  448,721;  149,928; 1930,504;16,78073
 217,13;  508,663;  208,392; 2155,785;15,41912
 217,73;  521,796;  185,854; 2334,646;15,63400
 218,33;  527,902;  145,701; 2528,040;16,04310
 218,93;  620,856;  178,320; 2794,897;16,91280
 219,53;  662,498;  175,009; 3069,444;16,84230
 220,13;  705,776;  154,702; 3320,505;17,40707
 220,73;  792,787;  177,390; 3675,855;17,59050
 221,32;  879,428;  181,005; 4080,007;17,91286
 221,92;  944,204;  179,471; 4448,636;17,91294
 222,52; 1005,877;  166,469; 4854,044;17,90709
 223,12; 1071,357;  166,008; 5197,330;17,99427
 223,72; 1195,184;  191,469; 5620,888;18,48660
 224,32; 1237,924;  185,008; 5935,261;18,31078
 224,92; 1268,588;  173,239; 6231,405;18,08053
 225,52; 1377,819;  192,390; 6568,027;18,59311
 226,12; 1414,821;  183,545; 6855,570;18,45431
 226,72; 1439,298;  164,084; 7133,076;18,29840
 227,31; 1526,808;  155,930; 7458,375;18,77286
 227,91; 1589,979;  186,544; 7817,044;18,39243
 228,51; 1655,320;  175,927; 8164,301;18,51932
 229,11; 1731,293;  166,468; 8499,371;18,77887
 229,71; 1782,611;  173,082; 8828,865;18,59484
 230,31; 1826,173;  159,547; 9191,543;18,45246
 230,91; 1874,308;  161,464; 9447,266;18,44583
 231,51; 1920,613;  151,854; 9776,021;18,37831
 232,10; 1983,162;  151,701;10112,665;18,38638
 232,70; 2033,105;  189,386;10284,967;18,26263
 233,30; 2094,816;  184,930;10562,860;18,40334
 233,90; 2075,941;  161,930;10634,082;18,27715
 234,50; 2103,291;  177,931;10782,132;18,15658
 235,10; 2070,511;  176,700;10893,482;17,67145
 235,70; 2113,907;  179,467;10947,597;17,96449
 236,29; 2111,913;  174,774;10875,157;18,10346
 236,89; 2054,754;  163,311;10803,451;17,77649
 237,49; 2029,115;  182,468;10763,065;17,45314
 238,09; 1991,684;  165,468;10595,465;17,50926
 238,69; 1938,853;  191,925;10346,595;17,20319
 239,29; 1867,857;  166,006;10067,372;17,18805
 239,89; 1791,245;  169,388; 9849,922;16,75379
 240,48; 1707,578;  175,468; 9436,456;16,54370
 241,08; 1632,271;  160,160; 9185,460;16,31094
 241,68; 1600,428;  192,391; 8843,392;16,27601
 242,28; 1504,581;  158,007; 8565,309;16,01671
 242,88; 1486,894;  209,393; 8230,322;15,92709
 243,48; 1411,134;  199,853; 8013,354;15,50241
 244,07; 1338,873;  181,236; 7835,804;15,12348
 244,67; 1318,183;  188,545; 7635,116;15,16990
 245,27; 1276,054;  187,620; 7538,964;14,80592
 245,87; 1268,298;  198,778; 7465,459;14,71814
 246,47; 1255,929;  182,235; 7394,051;14,88798
 247,06; 1222,305;  170,929; 7473,098;14,39813
 247,66; 1239,808;  177,545; 7528,223;14,45123
 248,26; 1286,741;  204,620; 7649,178;14,53573
 248,86; 1308,352;  193,774; 7851,780;14,55442
 249,46; 1313,248;  148,777; 8038,618;14,75912
 250,05; 1375,078;  193,622; 8381,418;14,42948
 250,65; 1458,151;  158,158; 8642,640;15,32201
 251,25; 1532,632;  170,621; 9137,081;15,19007
 251,85; 1610,048;  174,080; 9729,024;15,02853
 252,44; 1694,322;  144,697;10270,305;15,30402
 253,04; 1870,249;  186,467;10972,701;15,61047
 253,64; 1950,003;  141,773;11593,426;15,79012
 254,24; 2194,175;  193,160;12498,938;16,26077
 254,84; 2345,402;  171,084;13398,156;16,43839
 255,43; 2518,759;  175,236;14232,155;16,67167
 256,03; 2695,406;  173,927;15090,790;16,90355
 256,63; 2908,572;  186,311;16121,134;17,08372
 257,23; 3080,624;  163,619;16865,215;17,46543
 257,82; 3289,152;  184,617;17785,184;17,63883
 258,42; 3446,033;  141,386;18538,523;17,96284
 259,02; 3692,331;  188,851;19404,408;18,23252
 259,62; 3849,217;  171,924;20013,536;18,53324
 260,21; 4007,029;  180,005;20446,656;18,88335
 260,81; 4154,475;  175,776;20939,686;19,16161
 261,41; 4266,739;  161,540;21348,639;19,37594
 262,01; 4450,935;  195,692;21745,537;19,74605
 262,60; 4502,778;  159,772;22088,138;19,80542
 263,20; 4641,828;  173,081;22406,441;20,09929
 263,80; 4727,632;  185,846;22576,552;20,28425
 264,40; 4799,223;  159,770;22635,554;20,64201
 264,99; 4914,998;  177,923;22873,727;20,87203
 265,59; 5010,243;  169,690;22986,235;21,21510
 266,19; 5061,690;  151,923;23173,571;21,32674
 266,78; 5139,351;  198,691;23313,249;21,37467
 267,38; 5173,675;  180,998;23225,991;21,66491
 267,98; 5183,082;  170,999;23273,748;21,69475
 268,58; 5258,185;  176,460;23341,058;21,93746
 269,17; 5291,876;  169,612;23247,520;22,19553
 269,77; 5243,159;  185,772;23104,975;22,06616
 270,37; 5248,695;  159,846;23034,665;22,24651
 270,96; 5270,907;  211,386;22877,757;22,32170
 271,56; 5253,312;  175,618;22703,894;22,53920
 272,16; 5202,811;  181,617;22485,318;22,51283
 272,75; 5181,095;  173,540;22347,937;22,58260
 273,35; 5191,324;  175,464;22343,010;22,62705
 273,95; 5186,075;  178,540;22331,725;22,60413
 274,54; 5228,006;  162,775;22448,895;22,72819
 275,14; 5336,579;  186,848;22732,619;22,84123
 275,74; 5307,470;  151,771;22757,986;22,80656
 276,33; 5461,732;  194,541;23139,769;22,95549
 276,93; 5553,515;  189,006;23493,651;23,01905
 277,53; 5677,894;  175,313;23943,637;23,15090
 278,12; 5773,869;  159,388;24522,641;23,04487
 278,72; 5969,630;  198,082;25049,538;23,22419
 279,32; 6087,905;  166,851;25603,285;23,27785
 279,91; 6248,858;  167,927;26140,914;23,41252
 280,51; 6429,995;  171,236;26717,785;23,57654
 281,11; 6648,137;  166,389;27408,135;23,79344
 281,70; 6734,445;  158,158;27854,830;23,74396
 282,30; 6937,774;  149,618;28400,894;24,02778
 282,90; 7105,115;  171,003;28765,457;24,24985
 283,49; 7300,305;  189,002;29327,182;24,40545
 284,09; 7429,147;  202,311;29720,168;24,48293
 284,69; 7590,112;  202,697;30055,598;24,74605
 285,28; 7767,936;  186,927;30425,072;25,07101
 285,88; 7930,614;  219,155;30550,573;25,42400
 286,47; 7942,519;  181,618;30628,362;25,49009
 287,07; 8160,001;  207,620;30770,805;26,01948
 287,67; 8277,596;  196,699;30819,200;26,38875
 288,26; 8354,453;  172,543;30800,315;26,71402
 288,86; 8508,806;  157,465;30903,297;27,16251
 289,46; 8697,357;  193,850;30940,721;27,65650
 290,05; 8868,959;  177,775;31098,678;28,10780
 290,65; 9085,135;  177,926;31293,056;28,62662
 291,24; 9306,664;  185,851;31413,870;29,20715
 291,84; 9553,110;  190,234;31527,211;29,87805
 292,44; 9704,980;  183,930;31619,198;30,28779
 293,03; 9981,957;  237,851;31807,212;30,86571
 293,63;10038,471;  169,080;31969,525;31,03539
 294,22;10278,766;  199,927;32062,332;31,63239
 294,82;10351,554;  175,231;32052,163;31,92378
 295,41;10366,137;  172,619;31769,137;32,26152
 296,01;10420,692;  207,463;31764,345;32,36451
 296,61;10401,130;  191,081;31442,501;32,67067
 297,20;10355,648;  192,001;31183,213;32,79525
 297,80;10293,146;  181,468;31055,544;32,75135
 298,39;10140,432;  167,542;30706,947;32,65581
 298,99;10157,782;  191,540;30486,766;32,89707
 299,58;10060,664;  191,468;30353,097;32,72103
 300,18; 9978,935;  208,006;30076,989;32,71263
 300,78; 9811,557;  169,313;29818,241;32,52139
 301,37; 9806,513;  193,923;29790,504;32,47872
 301,97; 9783,252;  196,543;29891,096;32,28440
 302,56; 9690,899;  166,310;29794,349;32,14721
 303,16; 9604,761;  173,310;29747,165;31,89118
 303,75; 9539,936;  177,005;29704,147;31,70957
 304,35; 9532,132;  171,162;29945,807;31,43940
 304,94; 9535,045;  179,620;30022,782;31,34864
 305,54; 9520,812;  199,159;29908,315;31,37637
 306,13; 9386,415;  150,700;29919,965;31,02433
 306,73; 9215,860;  158,469;29661,222;30,70015
 307,33; 9123,452;  201,314;29617,230;30,33099
 307,92; 9079,678;  177,466;29728,606;30,12477
 308,52; 9154,324;  165,310;30129,008;29,99968
 309,11; 9232,414;  177,463;30600,279;29,76368
 309,71; 9170,488;  149,923;30889,426;29,34519
 310,30; 9186,703;  158,235;31107,064;29,17224
 310,90; 9229,856;  189,620;31395,141;28,96999
 311,49; 9201,775;  180,697;31519,743;28,78543
 312,09; 9112,887;  152,852;31647,999;28,44894
 312,68; 9205,870;  217,005;32025,256;28,25954
 313,28; 9144,447;  153,466;32217,913;28,04034
 313,87; 9017,741;  148,004;32290,642;27,59493
 314,47; 9045,278;  165,001;32560,795;27,41182
 315,06; 9001,058;  152,312;32629,744;27,24583
 315,66; 8917,656;  161,083;32887,229;26,75712
 316,25; 8799,150;  142,233;32772,640;26,53021
 316,85; 8708,036;  145,775;32723,291;26,28273
 317,44; 8697,865;  162,770;32979,557;26,00832
 318,04; 8560,067;  142,542;33009,774;25,61069
 318,63; 8491,566;  153,469;32982,266;25,39873
 319,22; 8415,140;  177,310;33207,071;24,94063
 319,82; 8343,619;  171,542;33200,582;24,74210
 320,41; 8205,116;  178,234;33238,536;24,27952
 321,01; 8097,671;  187,313;33272,351;23,90917
 321,60; 8012,565;  174,927;33443,038;23,55901
 322,20; 7860,394;  177,466;33333,061;23,17234
 322,79; 7834,918;  202,082;33485,172;22,93308
 323,39; 7735,440;  165,469;33530,501;22,68834
 323,98; 7616,043;  153,620;33516,545;22,36741
 324,58; 7500,184;  168,079;33435,205;22,04009
 325,17; 7437,188;  177,618;33278,600;21,93159
 325,76; 7245,578;  187,927;33051,152;21,47583
 326,36; 7129,089;  145,313;32763,607;21,41061
 326,95; 6953,926;  186,619;32466,503;20,96447
 327,55; 6828,840;  156,850;32186,170;20,83088
 328,14; 6673,640;  155,391;31749,720;20,63107
 328,74; 6520,303;  195,618;31376,561;20,28382
 329,33; 6404,234;  178,852;31015,425;20,18831
 329,92; 6207,437;  158,463;30489,273;19,94333
 330,52; 5999,015;  177,468;29925,383;19,56960
 331,11; 5909,426;  170,542;29424,081;19,61774
 331,71; 5740,242;  174,542;28887,606;19,38386
 332,30; 5558,122;  182,312;28506,244;18,97974
 332,89; 5474,306;  218,928;27953,719;18,94868
 333,49; 5283,248;  188,081;27460,316;18,68262
 334,08; 5159,595;  176,696;27081,896;18,52021
 334,68; 5011,407;  171,003;26621,410;18,29992
 335,27; 4925,360;  183,161;26314,649;18,14745
 335,86; 4858,272;  223,311;26075,312;17,92883
 336,46; 4770,076;  193,699;25908,643;17,79657
 337,05; 4671,859;  168,542;25732,918;17,61559
 337,65; 4622,960;  162,850;25569,915;17,55461
 338,24; 4627,846;  219,466;25604,877;17,36580
 338,83; 4521,317;  188,390;25458,290;17,14659
 339,43; 4471,866;  171,310;25412,557;17,03781
 340,02; 4448,174;  172,464;25321,790;17,00129
 340,61; 4426,274;  166,851;25444,701;16,85042
 341,21; 4403,534;  204,157;25448,022;16,63524
 341,80; 4382,797;  171,080;25342,271;16,73229
 342,40; 4369,255;  182,083;25467,180;16,55984
 342,99; 4359,999;  180,698;25574,489;16,45796
 343,58; 4364,234;  175,929;25701,271;16,40842
 344,18; 4387,421;  183,467;25830,755;16,39142
 344,77; 4395,977;  168,772;26136,507;16,27868
 345,36; 4402,772;  149,850;26424,657;16,18631
 345,96; 4467,955;  199,698;26729,203;16,08872
 346,55; 4494,771;  160,546;27003,111;16,14684
 347,14; 4568,298;  158,160;27333,078;16,22871
 347,74; 4582,627;  153,548;27683,830;16,08803
 348,33; 4706,710;  173,778;28344,770;16,09078
 348,92; 4830,187;  176,857;28888,277;16,20725
 349,52; 4869,122;  143,548;29276,465;16,22073
 350,11; 4921,252;  173,464;29496,100;16,19155
 350,70; 4919,385;  165,774;29591,495;16,15461
 351,29; 4901,630;  167,230;29365,086;16,21489
 351,89; 4930,553;  179,924;29396,697;16,25994
 352,48; 4883,803;  150,235;29408,135;16,17877
 353,07; 4928,370;  175,391;29301,061;16,31886
 353,67; 4923,620;  182,857;29268,573;16,29928
 354,26; 4918,621;  176,007;29055,737;16,42195
 354,85; 4894,694;  170,698;28908,882;16,43805
 355,45; 4900,350;  153,926;28663,239;16,64868
 356,04; 4909,557;  161,238;28584,853;16,70554
 356,63; 4933,026;  195,696;28511,190;16,73052
 357,22; 4887,345;  178,692;28361,920;16,70729
 357,82; 4863,699;  176,462;28098,443;16,78691
 358,41; 4908,694;  188,927;28014,345;16,96207
 359,00; 4899,804;  166,310;27765,985;17,15054
 359,60; 4933,062;  180,159;27791,911;17,21334
 360,19; 4917,724;  174,084;27611,971;17,28865
 360,78; 4943,008;  177,773;27378,597;17,51872
 361,37; 4930,220;  168,080;27240,693;17,59025
 361,97; 4976,367;  183,235;27141,751;17,77966
 362,56; 4926,949;  165,156;26829,884;17,85802
 363,15; 4964,110;  209,773;26604,363;18,01254
 363,74; 4907,811;  175,463;26267,856;18,13689
 364,34; 4887,424;  205,926;25900,000;18,22015
 364,93; 4805,964;  164,694;25431,083;18,36934
 365,52; 4835,349;  149,927;25138,389;18,75034
 366,11; 4834,356;  167,926;24863,643;18,89571
 366,71; 4761,217;  153,926;24456,994;18,95765
 367,30; 4782,589;  168,619;24175,263;19,21956
 367,89; 4827,007;  213,544;23987,128;19,40584
 368,48; 4788,696;  189,925;23639,355;19,61144
 369,07; 4739,462;  174,235;23231,803;19,79925
 369,67; 4726,724;  202,771;22888,593;19,94176
 370,26; 4690,192;  170,389;22698,609;20,06285
 370,85; 4738,950;  177,773;22478,961;20,45262
 371,44; 4720,666;  179,465;22229,877;20,59463
 372,03; 4679,669;  153,695;22038,966;20,68046
 372,63; 4648,382;  150,850;21657,334;20,91245
 373,22; 4666,611;  166,312;21462,867;21,13158
 373,81; 4632,628;  148,157;21068,918;21,43550
 374,40; 4645,963;  162,006;20908,917;21,61265
 374,99; 4659,038;  166,465;20615,301;21,96982
 375,59; 4629,929;  152,083;20347,587;22,17249
 376,18; 4656,244;  190,696;20264,920;22,24518
 376,77; 4663,146;  186,773;20125,702;22,45042
 377,36; 4686,984;  205,619;19963,063;22,68191
 377,95; 4655,178;  181,003;19718,878;22,90001
 378,55; 4662,056;  163,621;19545,659;23,20930
 379,14; 4725,816;  177,004;19552,173;23,47753
 379,73; 4724,601;  176,388;19375,377;23,68986
 380,32; 4804,459;  190,312;19468,102;23,93504
 380,91; 4796,162;  157,232;19352,830;24,16663
 381,50; 4830,468;  188,848;19199,057;24,41646
 382,10; 4838,459;  157,850;19163,486;24,62748
 382,69; 4855,388;  151,773;19078,044;24,85231
 383,28; 4899,881;  190,079;19065,371;24,95221
 383,87; 4930,622;  164,387;18997,516;25,30771
 384,46; 4938,905;  157,077;18908,985;25,50049
 385,05; 5033,838;  193,387;18894,860;25,88273
 385,64; 5045,895;  166,233;18855,797;26,10902
 386,24; 5086,713;  144,462;18790,871;26,50511
 386,83; 5181,747;  195,616;18864,359;26,70845
 387,42; 5227,702;  185,695;18993,065;26,80868
 388,01; 5296,953;  184,999;19167,441;26,92991
 388,60; 5425,409;  184,616;19384,728;27,29564
 389,19; 5471,089;  170,304;19650,927;27,21055
 389,78; 5653,607;  172,228;19769,403;27,97025
 390,37; 5863,422;  229,461;20281,999;28,09600
 390,96; 5903,689;  180,077;20375,492;28,34115
 391,56; 5949,278;  182,457;20481,112;28,40987
 392,15; 6084,240;  163,305;20748,919;28,76249
 392,74; 6145,833;  144,685;20872,859;28,95165
 393,33; 6285,130;  166,303;21235,744;29,04124
 393,92; 6447,275;  172,607;21599,493;29,28409
 394,51; 6530,414;  156,226;21745,211;29,52518
 395,10; 6667,540;  203,449;22005,912;29,64845
 395,69; 6782,202;  189,834;22082,050;30,11284
 396,28; 6819,544;  194,370;22278,926;29,99913
 396,87; 6902,184;  189,674;22327,851;30,32097
 397,46; 6954,916;  194,903;22395,976;30,44904
 398,06; 7066,756;  204,746;22698,731;30,50598
 398,65; 7136,938;  188,200;22681,367;30,89266
 399,24; 7251,514;  200,352;22887,404;31,08012
 399,83; 7263,841;  182,110;22749,864;31,37986
 400,42; 7369,049;  220,254;23035,427;31,33351
 401,01; 7458,458;  189,781;23094,134;31,73491
 401,60; 7509,243;  211,766;23119,590;31,85583
 402,19; 7548,789;  217,369;23112,094;32,02231
 402,78; 7589,760;  228,889;23019,193;32,29826
 403,37; 7607,494;  216,025;22874,577;32,62110
 403,96; 7544,889;  206,927;22765,566;32,52839
 404,55; 7559,228;  221,981;22707,621;32,63081
 405,14; 7559,686;  204,344;22516,338;32,96587
 405,73; 7570,928;  224,473;22495,027;32,98730
 406,32; 7632,764;  221,687;22330,563;33,52082
 406,91; 7533,569;  218,052;22106,316;33,42210
 407,50; 7575,210;  221,658;22007,485;33,75383
 408,09; 7499,031;  192,651;21694,036;33,98097
 408,68; 7503,092;  215,338;21519,842;34,20757
 409,27; 7455,513;  197,652;21360,402;34,29545
 409,86; 7480,662;  207,437;21233,055;34,59220
 410,45; 7514,961;  238,449;21169,855;34,76361
 411,04; 7505,115;  249,770;21139,912;34,73095
 411,63; 7424,989;  229,633;20851,355;34,89212
 412,22; 7406,931;  228,725;20634,154;35,17792
 412,81; 7314,258;  242,654;20402,820;35,07711
 413,40; 7281,904;  254,122;20116,361;35,38263
 413,99; 7211,256;  297,197;19840,419;35,37829
 414,58; 7090,449;  222,814;19381,613;35,84585
 415,17; 7054,470;  226,423;19244,223;35,90345
 415,76; 7010,048;  226,878;19048,351;36,03952
 416,35; 6965,309;  219,728;18952,438;36,00964
 416,94; 7039,708;  247,187;18919,791;36,37693
 417,53; 7139,868;  224,577;19198,185;36,44689
 418,12; 7140,753;  221,502;19256,610;36,34995
 418,71; 7345,028;  240,738;19628,350;36,64345
 419,30; 7399,238;  227,656;19681,062;36,86543
 419,89; 7470,797;  214,888;19818,661;37,01282
 420,48; 7654,408;  238,353;20128,335;37,28538
 421,07; 7677,617;  247,508;20203,804;37,23190
 421,66; 7704,680;  220,434;20201,298;37,45707
 422,25; 7722,901;  218,210;20172,872;37,60871
 422,84; 7767,734;  246,980;20160,447;37,76717
 423,43; 7652,428;  237,593;19881,303;37,74661
 424,02; 7617,098;  259,671;19663,157;37,91807
 424,60; 7466,243;  222,986;19315,964;37,93676
 425,19; 7368,248;  251,982;19050,908;37,85464
 425,78; 7404,266;  248,136;18934,501;38,29600
 426,37; 7382,649;  254,216;18845,491;38,34289
 426,96; 7349,860;  241,293;18690,278;38,53094
 427,55; 7300,753;  224,528;18531,259;38,65368
 428,14; 7247,917;  225,914;18339,747;38,76597
 428,73; 7224,421;  233,142;18150,342;39,01993
 429,32; 7221,616;  245,754;18147,086;38,96840
 429,91; 7256,699;  261,603;18179,330;39,04009
 430,50; 7240,410;  256,682;17992,998;39,37530
 431,08; 7160,015;  259,684;17864,964;39,19467
 431,67; 7188,029;  294,533;17761,465;39,46599
 432,26; 7119,376;  310,073;17587,962;39,41050
 432,85; 6976,541;  324,380;17315,996;39,14966
 433,44; 6888,019;  331,383;16930,504;39,49990
 434,03; 6730,428;  354,387;16581,647;39,29216
 434,62; 6603,466;  319,460;16216,459;39,52951
 435,21; 6571,578;  330,380;16033,955;39,74380
 435,79; 6492,527;  332,154;15856,794;39,68126
 436,38; 6504,528;  310,927;15766,789;40,07282
 436,97; 6432,137;  314,466;15676,846;39,82241
 437,56; 6371,959;  305,164;15540,304;39,82106
 438,15; 6352,030;  288,778;15421,443;40,06731
 438,74; 6406,452;  296,086;15440,861;40,34636
 439,33; 6413,997;  275,470;15433,036;40,49810
 439,91; 6414,005;  243,088;15478,979;40,50250
 440,50; 6462,264;  296,011;15560,986;40,39478
 441,09; 6543,535;  299,938;15607,794;40,78688
 441,68; 6533,243;  277,018;15662,066;40,66432
 442,27; 6511,078;  253,786;15654,574;40,62969
 442,86; 6547,493;  238,716;15607,961;41,04806
 443,44; 6543,746;  248,714;15637,417;40,90684
 444,03; 6614,098;  310,023;15701,546;40,95810
 444,62; 6535,622;  250,870;15600,811;40,94317
 445,21; 6501,759;  267,946;15432,377;41,10813
 445,80; 6497,043;  281,873;15344,067;41,26338
 446,39; 6422,982;  299,410;15123,963;41,30696
 446,97; 6290,923;  246,722;14874,932;41,31880
 447,56; 6240,818;  254,879;14755,921;41,27937
 448,15; 6193,851;  252,645;14532,562;41,60532
 448,74; 6127,422;  264,492;14244,737;41,93725
 449,33; 6063,752;  261,879;14123,571;41,85545
 449,91; 5962,594;  252,652;13966,166;41,63734
 450,50; 5885,971;  248,343;13744,298;41,77272
 451,09; 5882,354;  266,882;13684,832;41,85045
 451,68; 5857,768;  280,345;13522,457;42,11883
 452,26; 5780,375;  278,578;13547,812;41,46281
 452,85; 5769,430;  273,807;13364,749;41,98035
 453,44; 5762,062;  271,120;13391,559;41,85029
 454,03; 5720,545;  258,733;13374,937;41,64172
 454,61; 5752,960;  235,736;13373,868;41,99398
 455,20; 5860,672;  287,891;13551,847;42,01447
 455,79; 5800,237;  275,658;13551,548;41,61363
 456,38; 5854,141;  278,433;13579,250;41,92004
 456,97; 5875,292;  264,509;13634,166;41,96654
 457,55; 5882,772;  259,665;13642,373;42,01771
 458,14; 5920,000;  282,431;13601,600;42,32673
 458,73; 5856,901;  277,357;13568,451;41,97957
 459,31; 5907,855;  297,745;13654,538;42,00192
 459,90; 5907,465;  313,205;13694,602;41,80625
 460,49; 6012,347;  329,896;13738,558;42,37896
 461,08; 5999,394;  267,362;13809,923;42,32606
 461,66; 6053,788;  285,899;13893,722;42,38657
 462,25; 6058,405;  271,132;14016,723;42,10276
 462,84; 6094,908;  305,208;14005,694;42,25908
 463,43; 6052,382;  247,674;13967,110;42,31011
 464,01; 6058,571;  280,522;13983,519;42,16631
 464,60; 6051,356;  319,365;13979,188;41,96241
 465,19; 5924,323;  248,677;13709,314;42,16477
 465,77; 5956,776;  274,755;13711,515;42,28713
 466,36; 5942,550;  298,751;13589,768;42,46326
 466,95; 5780,569;  269,982;13266,515;42,40043
 467,53; 5606,521;  276,526;12990,901;41,92101
 468,12; 5562,534;  299,988;12772,094;42,19453
 468,71; 5478,019;  287,985;12587,940;42,19556
 469,29; 5356,812;  265,604;12368,158;42,06722
 469,88; 5250,655;  265,682;12051,222;42,29736
 470,47; 5317,902;  314,300;12243,422;41,94443
 471,06; 5303,137;  289,070;12169,589;42,20411
 471,64; 5327,688;  293,761;12260,548;42,06581
 472,23; 5320,918;  255,767;12284,308;42,10944
 472,81; 5384,800;  251,534;12391,804;42,28297
 473,40; 5427,956;  273,459;12489,961;42,19291
 473,99; 5524,524;  354,998;12720,662;41,80548
 474,57; 5535,260;  276,690;12800,256;41,98940
 475,16; 5586,866;  291,073;12949,077;41,83750
 475,75; 5659,201;  299,538;13052,077;42,02820
 476,33; 5693,349;  299,925;13155,518;41,95391
 476,92; 5745,628;  304,306;13162,129;42,31916
 477,51; 5728,314;  304,155;13255,104;41,88233
 478,09; 5711,987;  303,309;13252,200;41,76943
 478,68; 5712,047;  299,002;13219,379;41,89541
 479,27; 5726,807;  320,308;13271,124;41,74640
 479,85; 5740,057;  288,848;13239,870;42,09095
 480,44; 5727,717;  283,157;13366,235;41,61529
 481,02; 6324,164;  290,005;14754,419;41,71727
 481,61; 7136,517;  325,850;16683,557;41,63583
 482,20; 7568,236;  317,543;17730,327;41,64006
 482,78; 7972,978;  348,310;18494,941;42,01699
 483,37; 8069,147;  335,854;18984,669;41,46801
 483,95; 8192,905;  353,470;19260,097;41,46395
 484,54; 8256,235;  369,773;19392,478;41,45815
 485,13; 8181,129;  332,088;19375,073;41,21749
 485,71; 8119,915;  309,856;19113,433;41,53497
 486,30; 8023,511;  357,395;18821,298;41,51948
 486,88; 7884,495;  370,011;18444,864;41,57425
 487,47; 7553,941;  364,088;17768,276;41,31105
 488,05; 7158,000;  355,936;16968,991;40,94409
 488,64; 6698,639;  353,784;15692,364;41,36533
 489,23; 5920,927;  361,705;13908,077;41,03845
 489,81; 5094,785;  352,168;11955,421;40,87317
 490,40; 4838,505;  318,014;11421,657;40,71178
 490,98; 4700,666;  295,861;11187,985;40,44028
 491,57; 4693,705;  328,552;11109,257;40,49042
 492,15; 4635,684;  303,862;11034,039;40,37047
 492,74; 4605,447;  314,320;10925,792;40,43856
 493,32; 4573,696;  332,015;10825,227;40,42309
 493,91; 4531,850;  300,478;10721,071;40,60586
 494,50; 4512,195;  311,790;10703,486;40,42079
 495,08; 4497,917;  291,175;10638,266;40,65628
 495,67; 4478,567;  326,940;10584,531;40,47370
 496,25; 4381,681;  277,250;10557,794;39,92427
 496,84; 4372,303;  275,170;10500,201;40,06964
 497,42; 4342,424;  272,250;10466,406;39,92654
 498,01; 4317,605;  308,248;10427,105;39,62263
 498,59; 4264,553;  266,558;10334,408;39,71052
 499,18; 4279,339;  264,402;10265,002;40,14697
 499,76; 4216,369;  287,327;10243,240;39,46441
 500,35; 4177,168;  276,099;10056,250;39,88762
 500,93; 4106,651;  259,481; 9968,316;39,62545
 501,52; 4081,866;  266,097; 9884,961;39,66964
 502,10; 4100,068;  281,177; 9934,100;39,56201
 502,69; 3991,276;  259,948; 9763,568;39,26218
 503,27; 3908,046;  252,713; 9606,114;39,08025
 503,86; 3895,196;  259,870; 9496,559;39,35745
 504,44; 3836,962;  247,795; 9379,008;39,30657
 505,03; 3689,745;  231,718; 9135,436;38,83801
 505,61; 3677,386;  251,564; 9042,821;38,96852
 506,19; 3638,462;  272,410; 8919,817;38,92556
 506,78; 3517,925;  232,336; 8719,356;38,71311
 507,36; 3466,515;  254,564; 8571,746;38,61826
 507,95; 3392,509;  257,338; 8427,565;38,37312
 508,53; 3361,147;  241,875; 8388,713;38,28813
 509,12; 3303,418;  263,491; 8199,757;38,30425
 509,70; 3256,138;  277,569; 8024,683;38,44747
 510,29; 3174,557;  274,724; 7912,708;37,96595
 510,87; 3090,118;  238,567; 7741,088;38,00790
 511,46; 3044,919;  253,414; 7570,645;38,14975
 512,04; 2968,208;  250,646; 7473,356;37,62525
 512,62; 2915,900;  245,875; 7322,433;37,73056
 513,21; 2825,100;  237,570; 7160,798;37,37462
 513,79; 2779,160;  237,113; 7046,664;37,33061
 514,38; 2730,626;  230,650; 6937,217;37,27654
 514,96; 2709,107;  271,727; 6821,508;37,21316
 515,54; 2623,590;  230,958; 6697,648;36,99933
 516,13; 2604,844;  262,497; 6637,101;36,74498
 516,71; 2525,940;  239,345; 6444,079;36,85243
 517,30; 2477,330;  234,809; 6385,554;36,45935
 517,88; 2455,970;  255,808; 6315,627;36,30739
 518,46; 2411,756;  241,425; 6188,138;36,49632
 519,05; 2384,570;  248,811; 6157,963;36,14325
 519,63; 2365,635;  250,194; 6109,772;36,10226
 520,22; 2361,281;  253,197; 6020,861;36,55005
 520,80; 2295,632;  239,890; 5976,604;35,83483
 521,38; 2314,214;  275,118; 5973,970;35,78081
 521,97; 2281,599;  241,122; 5909,274;35,99899
 522,55; 2242,095;  249,660; 5887,376;35,34116
 523,13; 2205,544;  233,969; 5889,875;34,85869
 523,72; 2188,550;  250,040; 5842,673;34,66185
 524,30; 2252,719;  258,816; 6010,167;34,66842
 524,89; 2214,719;  225,199; 6014,248;34,36695
 525,47; 2280,539;  252,586; 6105,089;34,65104
 526,05; 2241,731;  216,048; 6127,663;34,26614
 526,64; 2307,334;  245,434; 6251,934;34,32782
 527,22; 2344,236;  265,586; 6371,874;34,04115
 527,80; 2395,239;  292,049; 6477,417;34,00266
 528,39; 2370,255;  237,127; 6572,541;33,66991
 528,97; 2441,973;  238,511; 6705,850;34,07061
 529,55; 2485,188;  261,354; 6871,423;33,64313
 530,14; 2521,018;  276,666; 7049,828;33,13595
 530,72; 2524,492;  251,049; 7155,484;32,92728
 531,30; 2544,906;  234,589; 7274,494;32,81745
 531,89; 2597,416;  258,666; 7329,638;33,07537
 532,47; 2624,828;  284,744; 7367,872;33,03744
 533,05; 2627,643;  283,203; 7460,398;32,66513
 533,63; 2641,678;  288,513; 7504,575;32,61009
 534,22; 2639,029;  251,744; 7557,781;32,67550
 534,80; 2653,504;  282,439; 7624,205;32,29557
 535,38; 2710,838;  352,282; 7757,212;31,85116
 535,97; 2616,452;  269,359; 7665,361;31,73462
 536,55; 2673,023;  320,054; 7738,914;31,71604
 537,13; 2631,811;  315,820; 7763,976;31,09482
 537,71; 2641,460;  360,358; 7797,618;30,67127
 538,30; 2657,070;  375,360; 7853,904;30,51008
 538,88; 2680,855;  412,979; 7969,256;30,01315
 539,46; 2713,923;  474,900; 8121,076;29,28291
 540,05; 2737,088;  487,055; 8267,185;28,92025
 540,63; 2792,266;  529,747; 8429,026;28,64209
 541,21; 2812,503;  565,902; 8567,890;28,07553
 541,79; 2825,397;  608,210; 8638,880;27,60899
 542,38; 2864,892;  637,516; 8826,904;27,19831
 542,96; 2930,436;  640,981; 8990,841;27,41909
 543,54; 2960,244;  654,595; 9152,882;27,13075
 544,12; 2960,387;  639,441; 9316,540;26,74794
 544,70; 2971,070;  606,827; 9383,128;26,93895
 545,29; 3009,963;  609,439; 9530,274;26,90919
 545,87; 3006,166;  604,826; 9507,342;26,97373
 546,45; 3009,300;  556,978; 9574,439;27,19527
 547,03; 2996,043;  520,286; 9587,665;27,30399
 547,62; 3036,473;  491,133; 9758,186;27,46656
 548,20; 3060,870;  497,981; 9886,142;27,29916
 548,78; 3097,893;  456,754; 9964,744;27,77810
 549,36; 3110,644;  423,984;10197,228;27,48995
 549,94; 3138,097;  388,980;10269,440;27,82377
 550,53; 3204,199;  402,907;10455,739;27,86570
 551,11; 3208,530;  366,139;10633,732;27,68313
 551,69; 3286,298;  370,753;10900,806;27,68785
 552,27; 3287,984;  337,060;11133,021;27,33360
 552,85; 3390,934;  340,832;11487,328;27,36378
 553,44; 3447,688;  336,061;11749,436;27,26298
 554,02; 3542,595;  357,216;12100,310;27,12555
 554,60; 3576,636;  289,832;12357,816;27,23573
 555,18; 3685,615;  332,754;12654,911;27,21002
 555,76; 3741,455;  318,985;12952,815;27,08973
 556,34; 3853,944;  312,756;13377,508;27,10490
 556,93; 3920,605;  298,600;13673,035;27,08156
 557,51; 3978,184;  285,141;13978,537;26,96952
 558,09; 4065,408;  316,292;14352,367;26,71057
 558,67; 4153,758;  306,527;14678,948;26,76815
 559,25; 4173,395;  319,603;14952,243;26,33695
 559,83; 4205,395;  304,297;15233,088;26,13137
 560,41; 4292,119;  291,756;15567,263;26,18808
 561,00; 4374,556;  307,219;15895,804;26,09176
 561,58; 4370,359;  295,294;16100,832;25,78251
 562,16; 4451,497;  288,139;16420,784;25,80703
 562,74; 4476,099;  273,523;16733,363;25,53230
 563,32; 4588,414;  265,759;17138,608;25,61900
 563,90; 4657,388;  307,142;17441,068;25,38966
 564,48; 4748,447;  299,832;17811,095;25,40430
 565,06; 4867,437;  290,527;18441,061;25,21639
 565,65; 5002,414;  287,376;19066,758;25,10753
 566,23; 5184,830;  338,604;19715,164;25,01077
 566,81; 5278,875;  290,372;20393,994;24,81395
 567,39; 5452,024;  295,221;21244,127;24,61610
 567,97; 5580,158;  304,142;21778,226;24,56923
 568,55; 5759,453;  326,759;22585,878;24,40660
 569,13; 5851,070;  294,373;23217,961;24,24008
 569,71; 5998,978;  284,216;24067,688;24,02829
 570,29; 6243,149;  330,984;25005,357;23,96075
 570,87; 6361,204;  332,524;25684,447;23,77997
 571,45; 6428,720;  314,450;26317,295;23,51385
 572,03; 6458,686;  270,683;26711,575;23,40316
 572,61; 6595,843;  285,297;27360,047;23,30786
 573,20; 6760,838;  315,449;27919,651;23,34930
 573,78; 6847,275;  293,066;28598,728;23,15511
 574,36; 6885,435;  312,604;29027,362;22,89008
 574,94; 6957,964;  367,683;29348,869;22,73986
 575,52; 6915,952;  314,993;29622,985;22,52273
 576,10; 7030,609;  368,839;30101,802;22,40534
 576,68; 7099,950;  350,606;30665,907;22,26382
 577,26; 7227,969;  368,533;31195,417;22,25147
 577,84; 7274,776;  370,066;31790,538;21,97519
 578,42; 7345,976;  406,915;31996,906;21,96601
 579,00; 7238,520;  370,066;32069,155;21,66767
 579,58; 7253,266;  399,145;32314,777;21,47575
 580,16; 7210,903;  375,915;32434,378;21,32039
 580,74; 7175,258;  376,377;32448,444;21,19876
 581,32; 7204,198;  381,068;32557,110;21,20562
 581,90; 7127,370;  400,146;32515,932;20,94678
 582,48; 7125,533;  394,607;32594,883;20,90332
 583,06; 7102,059;  402,606;32782,310;20,69029
 583,64; 7060,396;  401,452;32858,398;20,51624
 584,22; 6961,456;  405,994;32602,494;20,36079
 584,80; 6886,678;  405,915;32445,241;20,22753
 585,38; 6771,661;  422,833;32054,582;20,07106
 585,96; 6759,370;  393,067;32147,397;20,04861
 586,54; 6682,919;  413,532;32050,345;19,81675
 587,12; 6674,522;  382,916;32247,541;19,74480
 587,70; 6708,033;  417,836;32301,539;19,72856
 588,28; 6658,926;  390,916;32379,522;19,59451
 588,86; 6638,458;  384,762;32493,734;19,47648
 589,44; 6595,485;  374,996;32468,964;19,38211
 590,02; 6630,319;  379,303;32622,004;19,38738
 590,59; 6575,231;  352,840;32890,283;19,12379
 591,17; 6532,281;  360,844;33036,886;18,88673
 591,75; 6574,766;  356,843;33156,882;18,95706
 592,33; 6586,927;  371,304;33354,211;18,84498
 592,91; 6546,989;  310,459;33555,089;18,75951
 593,49; 6559,054;  333,460;33842,587;18,57880
 594,07; 6593,366;  344,768;34059,679;18,53363
 594,65; 6554,471;  352,455;33987,463;18,43917
 595,23; 6584,064;  353,533;34362,009;18,32052
 595,81; 6584,649;  333,457;34528,224;18,28114
 596,39; 6521,898;  333,073;34613,281;18,05364
 596,97; 6540,961;  339,459;34856,464;17,96651
 597,55; 6498,440;  341,225;34775,216;17,88121
 598,12; 6443,177;  316,846;34640,725;17,84860
 598,70; 6413,387;  319,306;34828,743;17,65917
 599,28; 6455,815;  330,152;35007,719;17,66463
 599,86; 6447,782;  313,844;34973,927;17,69741
 600,44; 6357,809;  294,076;35219,777;17,36181
 601,02; 6367,373;  334,079;35207,156;17,30072
 601,60; 6312,223;  327,151;35108,636;17,20764
 602,18; 6263,697;  301,846;35161,284;17,10254
 602,75; 6244,909;  303,072;35169,082;17,04192
 603,33; 6241,075;  319,229;35224,113;16,96567
 603,91; 6163,116;  313,001;35227,234;16,75568
 604,49; 6132,435;  330,229;35311,501;16,58661
 605,07; 6087,862;  326,074;35312,786;16,46851
 605,65; 6052,880;  353,384;35453,683;16,23774
 606,23; 6075,761;  395,147;35653,718;16,11130
 606,80; 6039,803;  462,303;35590,688;15,87747
 607,38; 5996,007;  492,693;35651,676;15,65266
 607,96; 5999,731;  550,149;35737,319;15,48741
 608,54; 5972,928;  623,230;35673,519;15,26292
 609,12; 5909,462;  603,611;35783,818;15,08192
 609,70; 5925,513;  649,229;35832,813;14,99644
 610,27; 5873,165;  652,149;35920,081;14,80386
 610,85; 5888,600;  664,305;35938,074;14,81071
 611,43; 5850,527;  661,921;35914,162;14,71851
 612,01; 5764,728;  632,996;35657,077;14,65201
 612,59; 5770,422;  630,306;35736,539;14,64161
 613,16; 5705,562;  593,917;35683,581;14,56738
 613,74; 5648,733;  564,460;35521,319;14,54442
 614,32; 5589,582;  528,153;35566,018;14,44560
 614,90; 5557,952;  470,459;35343,594;14,58858
 615,48; 5460,147;  428,610;35089,336;14,51654
 616,05; 5446,014;  397,224;35099,324;14,54895
 616,63; 5412,497;  402,454;34784,311;14,57176
 617,21; 5385,381;  402,764;34824,960;14,47501
 617,79; 5311,187;  378,919;34725,299;14,36037
 618,36; 5265,757;  389,997;34671,700;14,22263
 618,94; 5197,545;  333,764;34370,147;14,28995
 619,52; 5124,261;  353,839;34089,679;14,14051
 620,10; 5112,765;  342,611;34056,956;14,14874
 620,67; 5035,232;  344,762;33898,672;13,97891
 621,25; 5046,439;  370,689;33852,516;13,96504
 621,83; 4961,637;  345,764;33770,420;13,80978
 622,41; 5022,724;  389,610;33837,758;13,85163
 622,98; 4932,425;  363,454;33668,096;13,71872
 623,56; 4933,709;  353,377;33540,488;13,80154
 624,14; 4852,096;  325,536;33369,870;13,69844
 624,72; 4806,195;  345,533;33240,633;13,56026
 625,29; 4789,983;  315,916;33394,233;13,52568
 625,87; 4822,754;  365,150;33393,232;13,49641
 626,45; 4756,201;  315,684;33170,425;13,51560
 627,02; 4711,864;  332,842;33123,946;13,35430
 627,60; 4682,429;  312,460;33135,253;13,31382
 628,18; 4689,769;  302,995;33174,356;13,34528
 628,76; 4648,319;  302,993;33091,623;13,25254
 629,33; 4640,759;  324,379;33200,941;13,12905
 629,91; 4623,072;  321,918;33119,956;13,11406
 630,49; 4613,558;  334,686;33238,877;13,00403
 631,06; 4661,535;  324,839;33363,193;13,12624
 631,64; 4594,095;  331,377;33310,413;12,92554
 632,22; 4542,213;  294,684;33229,231;12,89688
 632,79; 4604,640;  313,607;33484,975;12,93596
 633,37; 4583,661;  295,227;33515,567;12,90906
 633,95; 4598,562;  298,607;33615,584;12,90620
 634,52; 4582,892;  283,533;33701,571;12,86538
 635,10; 4579,044;  292,764;33721,334;12,82220
 635,68; 4610,996;  286,068;33895,120;12,86834
 636,25; 4537,534;  269,528;33825,119;12,71921
 636,83; 4585,857;  269,993;34157,007;12,73604
 637,41; 4573,488;  273,068;34157,441;12,69145
 637,98; 4611,238;  305,837;34289,462;12,66905
 638,56; 4619,324;  302,143;34357,566;12,67692
 639,13; 4575,449;  275,300;34443,400;12,58527
 639,71; 4633,914;  325,147;34583,409;12,57731
 640,29; 4575,232;  257,070;34377,977;12,65547
 640,86; 4563,393;  265,378;34505,459;12,55258
 641,44; 4545,630;  279,917;34433,864;12,48966
 642,02; 4544,560;  294,455;34588,884;12,39299
 642,59; 4569,721;  276,840;34663,058;12,48431
 643,17; 4542,958;  268,532;34715,540;12,40870
 643,74; 4540,042;  270,071;34605,329;12,43611
 644,32; 4550,202;  292,763;34656,350;12,38939
 644,89; 4536,286;  282,994;34640,985;12,37934
 645,47; 4553,524;  302,994;34616,005;12,38752
 646,05; 4539,377;  293,610;34608,026;12,37313
 646,62; 4462,691;  283,840;34572,969;12,18710
 647,20; 4525,083;  281,994;34689,451;12,33189
 647,77; 4462,551;  259,148;34582,548;12,24646
 648,35; 4453,558;  254,610;34426,953;12,28756
 648,92; 4438,872;  289,764;34584,434;12,09841
 649,50; 4410,802;  244,687;34387,685;12,20196
 650,08; 4410,040;  257,225;34360,244;12,17726
 650,65; 4478,739;  260,379;34672,110;12,25849
 651,23; 4468,592;  245,149;35465,054;11,99164
 651,80; 4634,829;  253,841;36224,920;12,17920
 652,38; 4670,682;  262,149;36596,940;12,13309
 652,95; 4676,843;  237,918;36848,499;12,12470
 653,53; 4710,542;  256,611;37080,519;12,09522
 654,10; 4793,856;  292,380;37233,693;12,18548
 654,68; 4722,555;  246,995;37266,483;12,08974
 655,25; 4731,178;  243,380;37201,272;12,14300
 655,83; 4726,723;  242,842;37430,369;12,05749
 656,40; 4782,653;  269,534;37324,466;12,17954
 656,98; 4755,121;  258,611;37258,641;12,15272
 657,55; 4702,820;  260,073;37055,353;12,07423
 658,13; 4655,981;  248,996;36718,219;12,08412
 658,70; 4660,218;  269,688;36423,778;12,14394
 659,28; 4554,148;  255,073;35604,183;12,16176
 659,85; 4469,386;  265,227;34891,895;12,14139
 660,43; 4483,392;  273,304;34953,839;12,13963
 661,00; 4464,245;  243,150;35105,090;12,10803
 661,58; 4519,868;  247,227;35396,956;12,15554
 662,15; 4517,028;  244,381;35524,746;12,11055
 662,73; 4593,189;  310,073;35886,997;12,03903
 663,30; 4587,426;  251,766;36023,017;12,12052
 663,88; 4629,125;  257,150;36221,268;12,15649
 664,45; 4631,286;  259,304;36345,750;12,11530
 665,03; 4709,447;  247,535;36732,462;12,22947
 665,60; 4789,992;  326,228;37169,790;12,11545
 666,17; 4732,153;  257,459;37191,272;12,11544
 666,75; 4824,929;  252,151;37496,523;12,27777
 667,32; 4847,089;  279,766;37793,389;12,17510
 667,90; 4889,481;  266,997;37992,563;12,25292
 668,47; 4939,487;  271,305;38275,968;12,28318
 669,05; 4933,263;  254,613;38491,373;12,23600
 669,62; 4911,501;  241,305;38653,008;12,15826
 670,19; 4984,662;  241,767;38690,567;12,33561
 670,77; 5009,515;  255,382;38869,587;12,31187
 671,34; 5018,444;  251,305;38826,454;12,35806
 671,92; 5026,759;  238,152;39184,243;12,29548
 672,49; 5066,766;  272,459;39123,802;12,34013
 673,06; 5038,311;  212,767;39219,361;12,37110
 673,64; 5058,241;  223,844;39275,227;12,37958
 674,21; 5047,171;  235,614;39186,401;12,35291
 674,79; 5123,639;  263,306;39349,267;12,43498
 675,36; 5143,492;  276,537;39505,595;12,40651
 675,93; 5120,037;  227,229;39329,231;12,51293
 676,51; 5204,044;  265,306;39550,559;12,57148
 677,08; 5171,820;  256,383;39663,502;12,47347
 677,65; 5239,519;  243,383;39751,830;12,64574
 678,23; 5252,449;  251,614;40022,850;12,57400
 678,80; 5268,071;  253,153;40032,409;12,60687
 679,38; 5308,770;  245,307;40115,352;12,69992
 679,95; 5363,085;  257,153;40459,911;12,70045
 680,52; 5397,245;  239,153;40731,393;12,73847
 681,10; 5508,252;  255,691;41077,028;12,86719
 681,67; 5546,566;  263,845;41356,279;12,85570
 682,24; 5541,266;  231,768;41411,915;12,89334
 682,82; 5659,888;  234,384;41947,858;13,00660
 683,39; 5781,664;  276,999;42202,032;13,12978
 683,96; 5763,671;  254,846;42377,822;13,07796
 684,54; 5801,677;  230,769;42724,457;13,10997
 685,11; 5872,146;  273,000;43057,862;13,08675
 685,68; 5923,614;  248,461;43332,651;13,17224
 686,25; 5919,159;  238,538;43518,364;13,12533
 686,83; 6001,704;  239,231;43610,846;13,28628
 687,40; 6070,404;  232,154;43866,097;13,38006
 687,97; 6136,257;  268,154;44327,425;13,31866
 688,55; 6163,648;  218,154;44330,599;13,47804
 689,12; 6192,039;  212,385;44561,619;13,48311
 689,69; 6220,969;  220,846;44695,101;13,49123
 690,26; 6266,976;  234,847;44697,121;13,56685
 690,84; 6316,137;  234,385;44863,680;13,62726
 691,41; 6335,297;  261,462;44960,084;13,58842
 691,98; 6386,535;  249,693;45226,028;13,64460
 692,56; 6457,849;  237,616;45337,356;13,79217
 693,13; 6530,625;  302,539;45392,145;13,81269
 693,70; 6555,786;  262,462;45500,165;13,91168
 694,27; 6580,177;  232,770;45653,570;13,97467
 694,84; 6597,723;  232,232;45790,744;13,97212
 695,42; 6690,191;  289,078;45798,995;14,06531
 695,99; 6698,813;  248,924;46022,169;14,09096
 696,56; 6722,666;  250,694;45882,420;14,18305
 697,13; 6793,827;  259,232;46260,748;14,20517
 697,71; 6820,756;  224,848;46288,538;14,31911
 698,28; 6918,609;  250,155;46692,866;14,35845
 698,85; 6899,308;  206,463;46700,193;14,39516
 699,42; 6941,777;  219,232;46809,829;14,42897
 699,99; 7014,630;  257,156;46980,234;14,46282
 700,57; 7059,637;  249,386;46888,100;14,60214
 701,14; 7131,951;  239,002;47039,813;14,72827
 701,71; 7136,342;  253,848;47261,679;14,64117
 702,28; 7173,503;  244,002;47341,930;14,71296
 702,85; 7213,125;  253,079;47365,643;14,77323
 703,43; 7302,132;  268,079;47528,201;14,88370
 704,00; 7385,216;  279,002;47766,606;14,96435
 704,57; 7385,299;  263,079;47766,011;14,99322
 705,14; 7402,306;  282,541;48108,570;14,88680
 705,71; 7494,928;  286,233;48083,667;15,08176
 706,28; 7516,320;  261,772;47955,379;15,21073
 706,86; 7536,096;  302,464;48164,630;15,11346
 707,43; 7588,487;  306,234;48130,958;15,22696
 708,00; 7618,648;  294,695;48135,440;15,30903
 708,57; 7630,039;  260,541;48105,614;15,40284
 709,14; 7684,431;  288,849;48148,327;15,45270
 709,71; 7676,284;  269,926;48357,424;15,40184
 710,28; 7720,367;  272,926;48525,521;15,43428
 710,86; 7807,220;  266,926;48618,772;15,59463
 711,43; 7899,919;  290,234;48594,177;15,75376
 712,00; 7890,772;  267,850;48651,812;15,75506
 712,57; 7966,779;  287,542;48726,140;15,85355
 713,14; 7974,555;  257,619;48840,468;15,88407
 713,71; 7957,562;  269,542;48676,950;15,88191
 714,28; 8072,569;  265,081;48751,893;16,10229
 714,85; 8027,729;  241,004;48550,683;16,11835
 715,42; 8109,582;  258,312;48729,241;16,19790
 716,00; 8207,820;  311,081;48896,646;16,25326
 716,57; 8186,134;  250,466;49013,513;16,27394
 717,14; 8204,064;  233,158;48930,994;16,36809
 717,71; 8279,686;  227,158;49031,553;16,49960
 718,28; 8339,462;  268,389;49097,727;16,52915
 718,85; 8362,546;  238,158;49183,055;16,59905
 719,42; 8376,168;  260,928;49361,075;16,52793
 719,99; 8421,867;  244,851;49265,019;16,68092
 720,56; 8519,951;  256,389;49440,346;16,80134
 721,13; 8536,265;  248,159;49581,828;16,80010
 721,70; 8562,195;  232,390;49450,002;16,92444
 722,27; 8622,894;  257,467;49351,330;17,03966
 722,84; 8735,516;  293,697;49525,504;17,14708
 723,41; 8706,216;  241,082;49513,524;17,18026
 723,98; 8790,069;  260,698;49721,468;17,24472
 724,55; 8858,306;  266,390;49713,411;17,37600
 725,12; 8784,159;  203,313;49721,354;17,32873
 725,69; 8883,012;  239,621;49901,605;17,40444
 726,27; 8972,788;  256,390;49959,779;17,53683
 726,84; 9058,487;  263,775;50291,261;17,57976
 727,41; 9059,955;  256,390;50250,743;17,60912
 727,98; 9147,193;  265,929;50505,840;17,67771
 728,55; 9223,584;  289,314;50426,399;17,81969
 729,12; 9183,130;  228,006;50565,957;17,79000
 729,69; 9346,059;  274,929;50800,824;17,95343
 730,26; 9369,066;  268,622;50876,998;17,98209
 730,82; 9411,688;  256,929;50642,403;18,16944
 731,39; 9458,311;  255,852;50879,115;18,17832
 731,96; 9549,010;  238,468;51237,597;18,25628
 732,53; 9641,478;  272,237;51323,463;18,35263
 733,10; 9704,869;  278,314;51434,330;18,42707
 733,67; 9799,184;  258,545;51656,504;18,56229
 734,24; 9723,344;  243,622;51308,986;18,56390
 734,81; 9844,044;  269,930;51450,467;18,70655
 735,38; 9771,973;  263,468;51176,949;18,67581
 735,95; 9848,826;  246,776;51183,662;18,85088
 736,52; 9881,295;  268,545;51265,605;18,84961
 737,09; 9888,378;  267,853;50929,471;18,98977
 737,66; 9998,539;  303,392;51058,261;19,10191
 738,23;10029,777;  277,007;51168,973;19,16367
 738,80;10162,322;  311,469;51444,993;19,26496
 739,37;10163,790;  288,238;51629,552;19,23510
 739,94;10176,335;  272,084;51594,419;19,29813
 740,51;10250,342;  351,469;51751,593;19,25846
 741,07;10230,349;  265,777;51608,305;19,40803
 741,64;10312,510;  280,777;51832,633;19,45950
 742,21;10394,901;  258,469;51879,115;19,63639
 742,78;10336,677;  236,162;51746,520;19,60871
 743,35;10398,299;  251,470;51908,155;19,64282
 743,92;10536,844;  300,393;52145,329;19,74436
 744,49;10526,467;  272,700;52005,119;19,82077
 745,06;10509,781;  252,624;51929,370;19,84869
 745,63;10568,172;  238,854;51907,159;19,99159
 746,19;10648,795;  252,162;51980,949;20,09835
 746,76;10679,340;  265,932;51939,353;20,15235
 747,33;10710,116;  264,778;51974,835;20,19982
 747,90;10834,584;  273,778;52208,009;20,33496
 748,47;10796,437;  271,701;52144,183;20,28963
 749,04;10867,521;  271,470;52129,819;20,43268
 749,61;10898,451;  291,086;52025,916;20,50333
 750,17;10923,534;  286,240;52168,859;20,50262
 750,74;11018,234;  271,932;52000,957;20,77422
 751,31;10977,163;  252,163;51940,592;20,74933
 751,88;10940,247;  237,855;51827,074;20,74540
 752,45;11163,331;  259,932;52112,556;21,02767
 753,02;11103,799;  271,009;51839,345;21,00667
 753,58;11148,267;  247,625;51722,519;21,17662
 754,15;11242,890;  258,163;51863,309;21,28611
 754,72;11187,512;  239,548;51584,713;21,32229
 755,29;11181,057;  246,471;51476,426;21,34413
 755,86;11303,218;  262,779;51546,908;21,52798
 756,42;11293,917;  262,318;51534,928;21,51558
 756,99;11256,308;  220,471;51381,717;21,57070
 757,56;11333,623;  241,087;51421,661;21,67333
 758,13;11314,937;  198,702;51274,373;21,76425
 758,70;11426,329;  228,010;51322,778;21,91676
 759,26;11489,951;  222,318;51420,568;22,00785
 759,83;11535,650;  232,164;51531,126;22,03453
 760,40;11591,580;  217,549;51386,454;22,22840
 760,97;11627,894;  197,703;51441,244;22,30562
 761,53;11611,209;  186,164;51057,187;22,45885
 762,10;11583,446;  186,780;51068,976;22,39814
 762,67;11655,222;  223,857;51064,766;22,48458
 763,24;11604,460;  184,549;50673,940;22,61844
 763,80;11686,543;  216,703;50865,422;22,64586
 764,37;11651,089;  221,549;50747,211;22,62126
 764,94;11568,634;  202,088;50275,770;22,69964
 765,50;11573,948;  206,934;50332,405;22,67712
 766,07;11741,724;  251,396;50402,426;22,91145
 766,64;11661,347;  211,396;50035,061;22,98095
 767,21;11665,276;  214,627;50003,466;22,99843
 767,77;11679,360;  236,473;49955,025;23,01533
 768,34;11665,598;  243,473;49880,968;23,01108
 768,91;11700,989;  255,627;49750,142;23,12451
 769,47;11738,227;  249,781;49773,162;23,19802
 770,04;11756,080;  244,243;49757,952;23,24980
 770,61;11689,086;  229,704;49299,203;23,35337
 771,18;11723,862;  224,704;49269,531;23,44622
 771,74;11788,254;  242,089;49485,474;23,44714
 772,31;11760,107;  245,089;49168,648;23,53675
 772,88;11799,498;  219,474;49048,130;23,71563
 773,44;11824,736;  223,320;48829,073;23,86840
 774,01;11868,896;  236,397;48924,247;23,89200
 774,58;11885,288;  222,705;48550,190;24,13240
 775,14;11907,141;  215,474;48706,211;24,11113
 775,71;11914,994;  226,782;48668,000;24,12865
 776,27;12045,693;  270,628;48617,328;24,35547
 776,84;12043,315;  292,090;48585,271;24,33309
 777,41;12071,552;  242,090;48367,830;24,58032
 777,97;12081,021;  234,321;48133,389;24,73263
 778,54;12093,258;  236,552;48140,178;24,75117
 779,11;12148,496;  264,013;48163,583;24,81125
 779,67;12127,656;  233,475;48114,988;24,84086
 780,24;12151,279;  244,244;47944,931;24,96198
 780,80;12246,593;  261,706;47863,105;25,17759
 781,37;12227,677;  251,090;47772,895;25,20230
 781,94;12218,453;  239,398;47618,299;25,28352
 782,50;12309,690;  255,629;47480,012;25,52508
 783,07;12318,620;  276,475;47663,263;25,41245
 783,63;12270,396;  222,706;47381,129;25,54727
 784,20;12359,634;  262,398;47373,457;25,67812
 784,77;12303,025;  251,168;47123,939;25,71185
 785,33;12299,263;  214,860;46988,113;25,83614
 785,90;12351,116;  236,706;47031,210;25,88853
 786,46;12387,046;  255,707;46798,846;26,06472
 787,03;12382,745;  228,553;46779,251;26,10958
 787,59;12397,598;  231,322;46570,886;26,25462
 788,16;12442,758;  246,322;46619,291;26,30074
 788,73;12387,919;  259,091;46442,004;26,26259
 789,29;12440,695;  252,553;46130,793;26,56628
 789,86;12452,240;  255,707;46001,659;26,66145
 790,42;12464,785;  253,476;45925,526;26,73694
 790,99;12381,638;  255,784;45600,931;26,74124
 791,55;12460,722;  238,476;45557,258;26,96949
 792,12;12449,883;  254,323;45499,663;26,95429
 792,68;12391,659;  247,323;45235,991;26,99421
 793,25;12372,435;  262,861;44989,011;27,07493
 793,81;12411,364;  299,246;44741,032;27,25390
 794,38;12302,602;  228,015;44555,052;27,23978
 794,94;12340,917;  233,708;44329,457;27,45663
 795,51;12384,231;  252,554;44151,477;27,63548
 796,07;12295,622;  241,093;43886,036;27,61953
 796,64;12370,937;  255,785;43947,364;27,72880
 797,20;12282,098;  240,939;43487,615;27,84297
 797,77;12257,566;  225,939;43314,327;27,92313
 798,33;12296,726;  235,324;43127,963;28,11998
 798,90;12299,195;  264,939;42981,214;28,17253
 799,46;12182,278;  252,401;42522,772;28,22279
 800,03;12306,593;  250,708;42570,485;28,48759
 800,59;12258,677;  264,247;42334,890;28,51021
 801,15;12280,837;  259,709;42172,064;28,68159
 801,72;12155,613;  258,709;41768,699;28,66034
 802,28;12177,928;  272,247;41590,027;28,81491
 802,85;12157,704;  248,324;41492,047;28,87562
 803,41;12130,941;  249,940;41365,375;28,89669
 803,98;12022,102;  245,632;40917,857;28,95457
 804,54;12004,801;  249,863;40654,800;29,09283
 805,11;12021,192;  245,478;40385,513;29,33658
 805,67;12020,199;  271,402;40373,687;29,29708
 806,23;11956,514;  250,863;39949,246;29,48647
 806,80;11968,521;  270,940;39863,343;29,54501
 807,36;12008,912;  275,863;39837,132;29,65792
 807,93;11983,534;  277,402;39479,229;29,86119
 808,49;11872,541;  243,633;39212,634;29,84143
 809,05;11864,702;  234,479;38990,731;30,00864
 809,62;11897,401;  268,171;38935,829;30,07482
 810,18;11911,715;  269,248;38906,695;30,13260
 810,74;11842,106;  233,325;38588,638;30,26642
 811,31;11864,882;  228,864;38424,351;30,46438
 811,87;11850,735;  244,710;38288,063;30,50737
 812,44;11911,358;  273,633;38373,314;30,54546
 813,00;11808,749;  206,787;38039,181;30,66674
 813,56;11915,448;  253,249;38181,509;30,74805
 814,13;11924,455;  251,480;37965,760;30,95108
 814,69;11830,923;  238,864;37852,780;30,81854
 815,25;11775,238;  218,249;37402,646;31,08021
 815,82;11833,475;  261,326;37384,359;31,17242
 816,38;11775,482;  280,711;37139,917;31,18562
 816,94;11732,027;  240,249;36894,322;31,35198
 817,51;11711,265;  218,865;36704,727;31,49823
 818,07;11686,579;  230,173;36415,901;31,66001
 818,63;11652,740;  254,942;36180,614;31,72605
 819,20;11715,824;  246,480;36215,942;31,88634
 819,76;11569,907;  219,788;35852,269;31,85329
 820,32;11613,837;  270,019;35838,290;31,89308
 820,89;11640,613;  259,250;35614,002;32,19189
 821,45;11544,312;  228,865;35311,484;32,25371
 822,01;11513,550;  259,635;35122,427;32,28059
 822,57;11497,095;  251,866;34968,601;32,39138
 823,14;11415,717;  222,327;34700,083;32,46554
 823,70;11382,339;  230,943;34547,565;32,49561
 824,26;11384,115;  227,866;34396,508;32,65055
 824,82;11425,815;  253,481;34222,990;32,88930
 825,39;11383,591;  232,481;34046,626;32,97765
 825,95;11325,597;  253,251;34014,107;32,79640
 826,51;11346,066;  249,635;33684,589;33,18811
 827,08;11402,457;  283,251;33766,917;33,20785
 827,64;11362,618;  262,020;33493,629;33,40373
 828,20;11294,394;  227,943;33295,342;33,46635
 828,76;11356,170;  259,174;33225,670;33,66144
 829,32;11365,869;  262,867;33137,690;33,77357
 829,89;11316,953;  219,790;32910,787;33,94562
 830,45;11313,267;  234,482;32956,500;33,85728
 831,01;11318,812;  240,636;32782,443;34,04290
 831,57;11288,896;  246,944;32631,925;34,09590
 832,14;11347,441;  232,790;32640,407;34,29642
 832,70;11295,602;  229,482;32405,196;34,39277
 833,26;11280,147;  203,021;32310,601;34,50003
 833,82;11360,308;  237,021;32244,621;34,75202
 834,38;11349,853;  230,637;32262,103;34,71342
 834,95;11310,244;  228,406;32021,738;34,85586
 835,51;11313,867;  209,252;32014,759;34,91413
 836,07;11393,027;  239,252;32037,548;35,07664
 836,63;11463,957;  246,406;32006,568;35,31956
 837,19;11426,195;  232,022;31925,819;35,31976
 837,75;11362,509;  205,175;31619,455;35,51676
 838,32;11462,054;  259,329;31716,398;35,61274
 838,88;11470,292;  244,253;31750,495;35,63116
 839,44;11485,299;  251,945;31666,669;35,75824
 840,00;11506,767;  222,099;31582,459;35,98386
 840,56;11425,235;  219,330;31365,941;35,97793
 841,12;11439,934;  221,253;31319,115;36,07541
 841,68;11391,403;  208,022;31134,366;36,16134
 842,25;11476,025;  221,484;31143,694;36,39630
 842,81;11392,801;  214,792;30940,714;36,37974
 843,37;11425,808;  203,407;30873,965;36,59014
 843,93;11474,738;  230,023;30895,062;36,66949
 844,49;11501,052;  241,176;30817,621;36,82533
 845,05;11470,366;  191,869;30641,333;37,04005
 845,61;11525,373;  236,023;30743,046;37,00574
 846,17;11486,611;  219,407;30596,374;37,09127
 846,73;11551,310;  227,561;30595,932;37,28797
 847,29;11502,932;  206,869;30359,029;37,46353
 847,86;11459,093;  216,638;30319,050;37,34735
 848,42;11437,099;  217,023;30150,147;37,48381
 848,98;11487,414;  227,177;30061,782;37,74220
 849,54;11520,575;  216,408;30169,341;37,73977
 850,10;11485,043;  226,793;29957,669;37,86720
 850,66;11482,665;  215,331;29826,612;38,05082
 851,22;11542,441;  210,485;29781,863;38,32069
 851,78;11587,679;  256,254;29847,268;38,29346
 852,34;11495,070;  231,793;29662,827;38,27007
 852,90;11512,000;  221,024;29433,847;38,65075
 853,46;11431,930;  213,870;29369,406;38,47660
 854,02;11504,629;  235,562;29330,041;38,73266
 854,58;11396,097;  221,178;29076,908;38,72686
 855,14;11418,719;  202,870;29011,774;38,93188
 855,70;11425,111;  188,563;28872,333;39,17389
 856,26;11397,502;  231,255;28706,968;39,21323
 856,82;11390,970;  217,871;28629,527;39,32576
 857,38;11407,977;  232,717;28545,316;39,47098
 857,94;11390,753;  217,332;28447,567;39,57962
 858,50;11379,145;  230,794;28301,511;39,71523
 859,06;11313,536;  227,179;28141,608;39,71551
 859,62;11375,158;  235,563;28086,013;39,99790
 860,18;11344,627;  213,948;27986,956;40,07732
 860,74;11350,633;  192,179;27894,284;40,28017
 861,30;11264,486;  197,333;27648,150;40,31630
 861,86;11339,724;  257,410;27749,786;40,31050
 862,42;11312,577;  225,410;27556,652;40,56591
 862,98;11407,507;  251,025;27538,519;40,88496
 863,54;11311,129;  219,718;27348,924;40,88366
 864,10;11420,443;  214,179;27380,867;41,25002
 864,66;11269,373;  202,410;27150,964;41,06700
 865,22;11305,072;  219,872;27017,446;41,36643
 865,78;11247,848;  227,410;26862,620;41,37545
 866,34;11248,317;  210,180;26878,871;41,38987
 866,90;11279,708;  234,103;26742,660;41,66807
 867,45;11236,330;  228,180;26529,757;41,85357
 868,01;11177,337;  216,334;26471,008;41,74877
 868,57;11163,267;  218,488;26288,105;41,98289
 869,13;11139,274;  207,257;26107,741;42,20777
 869,69;11110,126;  227,180;26073,992;42,10557
 870,25;11095,364;  198,334;25914,166;42,37479
 870,81;11107,294;  219,488;25913,494;42,37489
 871,37;11108,762;  222,103;25892,207;42,40988
 871,93;11053,077;  239,565;25735,996;42,41186
 872,49;11051,776;  245,104;25502,785;42,78568
 873,04;10960,244;  209,104;25358,575;42,74897
 873,60;10911,636;  206,181;25287,364;42,68321
 874,16;10954,104;  232,950;25104,769;43,10563
 874,72;10957,258;  215,488;25067,231;43,22341
 875,28;10915,104;  229,335;25103,385;42,95951
 875,84;10940,719;  226,719;24948,615;43,33810
 876,40;10973,642;  207,796;24922,462;43,56056
 876,95;10927,027;  225,950;24930,846;43,31561
 877,51;10956,796;  245,181;24925,077;43,40219
 878,07;11013,642;  261,950;24869,846;43,69204
 878,63;11021,335;  213,565;24810,769;43,93902
 879,19;11086,104;  237,104;24839,154;44,09795
 879,75;11112,258;  216,565;24854,615;44,22303
 880,30;11088,796;  214,719;24934,077;43,99013
 880,86;11197,950;  257,104;25041,077;44,14484
 881,42;11169,488;  210,258;25074,385;44,07648
 881,98;11238,258;  234,335;25065,231;44,31545
 882,54;11344,488;  211,488;25246,000;44,47061
 883,09;11372,873;  236,181;25284,000;44,46172
 883,65;11444,719;  210,258;25268,769;44,83292
 884,21;11587,335;  242,565;25458,538;44,99041
 884,77;11636,873;  206,181;25488,000;45,21309
 885,32;11712,027;  218,488;25703,385;45,09941
 885,88;11772,181;  252,104;25821,308;45,05450
 886,44;11849,181;  225,488;25889,615;45,29159
 887,00;11872,565;  238,027;25979,154;45,19825
 887,56;11918,950;  221,412;25981,385;45,40975
 888,11;11978,488;  223,412;26086,385;45,45138
 888,67;12104,258;  256,258;26192,538;45,68118
 889,23;12153,950;  226,719;26160,769;45,99062
 889,79;12078,565;  202,104;26091,769;45,87337
 890,34;12120,027;  224,258;26095,769;45,98019
 890,90;12222,950;  283,104;26182,154;46,10148
 891,46;12132,412;  223,719;26152,923;45,92772
 892,01;12163,873;  248,719;26115,308;46,06388
 892,57;12171,796;  255,873;26060,923;46,17671
 893,13;12072,488;  233,642;25861,692;46,19488
 893,69;12116,181;  220,873;25798,000;46,50760
 894,24;12109,950;  230,488;25735,077;46,57774
 894,80;12044,412;  240,950;25538,231;46,65901
 895,36;12032,950;  222,796;25436,769;46,83972
 895,91;11924,488;  223,565;25247,000;46,75986
 896,47;11953,027;  229,027;25147,692;47,04907
 897,03;11922,796;  218,873;25030,692;47,17076
 897,58;11915,488;  234,335;24921,923;47,31590
 898,14;11813,950;  230,873;24745,923;47,24884
 898,70;11731,873;  209,258;24557,846;47,32355
 899,25;11726,412;  227,950;24569,846;47,23733
 899,81;11730,950;  241,412;24388,769;47,58093
 900,37;11623,796;  196,642;24264,385;47,47913
 900,92;11650,027;  234,027;24253,615;47,52788
 901,48;11670,719;  221,104;24082,846;47,98315
 902,03;11641,642;  218,642;23990,692;48,05223
 902,59;11629,335;  215,488;23932,077;48,12600
 903,15;11599,488;  236,950;23759,000;48,30590
 903,70;11506,027;  222,950;23520,769;48,42976
 904,26;11480,181;  217,027;23439,000;48,50214
 904,82;11523,335;  230,565;23476,231;48,58011
 905,37;11515,335;  234,642;23271,923;48,96712
 905,93;11425,258;  217,796;23153,077;48,86560
 906,48;11504,027;  222,104;23146,385;49,21386
 907,04;11495,027;  239,104;23028,769;49,39047
 907,60;11382,181;  218,642;22823,769;49,38498
 908,15;11388,258;  223,950;22778,308;49,49956
 908,71;11449,104;  245,412;22727,385;49,83411
 909,26;11382,181;  218,181;22645,385;49,77883
 909,82;11371,488;  242,719;22468,077;50,07240
 910,37;11374,796;  260,719;22397,538;50,20630
 910,93;11316,488;  212,335;22187,385;50,53073
 911,48;11271,719;  203,412;22062,769;50,63419
 912,04;11241,335;  217,258;22000,154;50,60887
 912,60;11292,258;  227,642;21990,462;50,84183
 913,15;11235,950;  228,335;21811,846;51,00011
 913,71;11174,565;  213,027;21601,692;51,24929
 914,26;11224,796;  201,027;21594,231;51,52930
 914,82;11229,181;  225,873;21515,923;51,68286
 915,37;11216,335;  216,873;21474,077;51,74463
 915,93;11222,719;  258,412;21337,846;52,01424
 916,48;11145,950;  218,104;21185,308;52,11876
 917,04;11157,719;  241,719;21087,923;52,36445
 917,59;11100,873;  254,258;21035,538;52,19416
 918,15;11046,335;  195,181;20857,231;52,51731
 918,70;11058,565;  214,258;20725,923;52,86898
 919,26;11066,335;  228,258;20759,538;52,78812
 919,81;11024,027;  212,335;20535,231;53,19956
 920,37;10979,181;  221,488;20466,462;53,13760
 920,92;10973,488;  235,642;20381,308;53,30103
 921,48;10918,335;  199,181;20238,000;53,49194
 922,03;10950,488;  217,488;20179,538;53,76702
 922,59;10853,719;  207,412;20045,923;53,66485
 923,14;10823,719;  219,335;19965,308;53,70404
 923,69;10886,873;  237,565;19844,462;54,31409
 924,25;10812,412;  232,950;19874,231;53,86340
 924,80;10767,950;  229,873;19695,769;54,13610
 925,36;10709,335;  215,181;19641,000;54,02168
 925,91;10683,258;  220,950;19470,077;54,35212
 926,47;10702,258;  191,796;19447,846;54,58265
 927,02;10680,027;  245,335;19319,538;54,70578
 927,57;10680,565;  216,565;19132,615;55,31810
 928,13;10617,027;  209,335;19102,615;55,08674
 928,68;10533,104;  209,873;19068,077;54,74133
 929,24;10509,873;  186,950;18903,154;55,15500
 929,79;10490,642;  205,181;18749,462;55,46433
 930,34;10439,796;  214,873;18672,923;55,39547
 930,90;10451,488;  205,104;18569,154;55,79589
 931,45;10422,873;  222,258;18575,769;55,57855
 932,01;10403,258;  222,950;18471,923;55,78565
 932,56;10368,796;  227,027;18341,846;55,98604
 933,11;10375,027;  236,565;18302,308;56,11982
 933,67;10271,565;  211,104;18164,385;56,03690
 934,22;10281,335;  228,258;18116,385;56,19972
 934,77;10254,719;  234,950;18054,538;56,22896
 935,33;10204,642;  223,950;17880,462;56,52698
 935,88;10168,565;  234,950;17859,000;56,36398
 936,43;10157,027;  215,488;17766,077;56,64504
 936,99;10145,488;  219,565;17629,154;57,01412
 937,54;10028,335;  203,873;17455,231;56,94892
 938,09;10036,873;  221,642;17464,538;56,92333
 938,65; 9965,104;  224,796;17387,231;56,75365
 939,20; 9977,027;  197,950;17305,538;57,16222
 939,75; 9929,488;  199,719;17178,154;57,30663
 940,31; 9894,950;  203,642;17127,308;57,26483
 940,86; 9962,027;  222,488;17076,769;57,78673
 941,41; 9957,488;  285,258;16921,077;58,14099
 941,96; 9892,873;  206,412;16901,692;58,01916
 942,52; 9830,873;  209,104;16811,231;57,95504
 943,07; 9822,412;  191,181;16720,692;58,26688
 943,62; 9774,873;  202,412;16572,846;58,47408
 944,18; 9785,642;  186,950;16549,077;58,66409
 944,73; 9778,565;  220,488;16471,231;58,81625
 945,28; 9665,873;  179,488;16238,462;59,07217
 945,83; 9705,258;  203,181;16281,769;59,09771
 946,39; 9682,412;  212,565;16275,538;58,95450
 946,94; 9630,950;  222,027;16181,077;58,95666
 947,49; 9585,719;  199,719;16089,231;59,07041
 948,04; 9600,181;  230,027;16042,231;59,25900
 948,59; 9552,027;  226,488;15986,846;59,17086
 949,15; 9587,027;  202,181;15877,077;59,87182
 949,70; 9488,873;  201,027;15815,385;59,48273
 950,25; 9479,565;  230,412;15687,615;59,83717
 950,80; 9399,335;  187,642;15695,538;59,40001
 951,36; 9340,565;  187,258;15531,308;59,65379
 951,91; 9384,642;  217,719;15578,462;59,67760
 952,46; 9306,642;  187,719;15322,154;60,25282
 953,01; 9352,104;  226,027;15402,385;60,13351
 953,56; 9248,950;  197,642;15262,846;60,08088
 954,11; 9261,181;  214,719;15186,000;60,42544
 954,67; 9201,027;  205,181;15120,538;60,31264
 955,22; 9102,642;  184,027;14942,923;60,42874
 955,77; 9103,104;  226,719;14970,615;60,20379
 956,32; 9095,412;  252,412;14885,769;60,43042
 956,87; 9048,950;  207,104;14778,769;60,67835
 957,42; 8971,335;  198,412;14712,615;60,44371
 957,98; 8941,950;  196,335;14608,769;60,68104
 958,53; 9001,412;  231,873;14586,385;61,09256
 959,08; 8904,181;  194,950;14485,615;60,94349
 959,63; 8861,565;  203,412;14371,231;61,11141
 960,18; 8860,719;  232,335;14404,154;60,88410
 960,73; 8839,412;  208,565;14290,769;61,28903
 961,28; 8781,950;  186,412;14175,615;61,44409
 961,83; 8817,950;  225,258;14118,308;61,84885
 962,39; 8762,335;  190,642;13989,154;62,12041
 962,94; 8722,027;  220,488;13965,462;61,85198
 963,49; 8653,104;  205,104;13809,231;62,09880
 964,04; 8668,181;  224,950;13855,077;61,94536
 964,59; 8618,873;  189,258;13704,846;62,36958
 965,14; 8591,873;  220,873;13630,077;62,42727
 965,69; 8511,412;  206,181;13612,462;61,95030
 966,24; 8510,258;  214,181;13478,692;62,54340
 966,79; 8501,565;  217,412;13381,923;62,92792
 967,34; 8421,104;  193,258;13295,538;62,79705
 967,89; 8412,104;  195,488;13286,538;62,76514
 968,44; 8418,104;  212,258;13162,538;63,36423
 968,99; 8366,796;  214,873;13079,769;63,36563
 969,55; 8337,950;  222,719;13075,923;63,13780
 970,10; 8330,565;  219,873;12964,923;63,63798
 970,65; 8243,565;  229,181;12913,077;63,18551
 971,20; 8207,181;  205,873;12780,154;63,63233
 971,75; 8171,488;  186,873;12637,308;64,13122
 972,30; 8147,335;  209,950;12610,462;64,00853
 972,85; 8079,565;  202,027;12480,154;64,15912
 973,40; 8013,488;  209,104;12370,154;64,17525
 973,95; 8042,796;  211,488;12308,538;64,73733
 974,50; 8020,027;  230,027;12304,308;64,51730
 975,05; 7978,104;  217,412;12175,462;64,89931
 975,60; 7935,335;  227,796;12128,538;64,76519
 976,15; 7919,412;  212,873;12036,154;65,18105
 976,70; 7871,950;  221,335;11990,692;65,00453
 977,25; 7821,412;  221,719;11916,923;64,98127
 977,80; 7740,796;  209,181;11752,538;65,24631
 978,35; 7688,181;  220,719;11651,000;65,33052
 978,89; 7648,642;  200,950;11582,538;65,43632
 979,44; 7650,488;  213,488;11540,692;65,65610
 979,99; 7571,873;  206,335;11445,462;65,53479
 980,54; 7571,335;  229,719;11341,462;66,07079
 981,09; 7513,873;  227,412;11285,692;65,89145
 981,64; 7431,873;  221,027;11144,692;66,01123
 982,19; 7415,565;  249,565;11117,846;65,93499
 982,74; 7390,181;  227,335;11010,769;66,42453
 983,29; 7287,565;  209,565;10892,615;66,25449
 983,84; 7224,642;  217,873;10746,308;66,55091
 984,39; 7286,412;  269,488;10738,538;67,02540
 984,94; 7212,104;  193,642;10578,846;67,58136
 985,49; 7162,488;  243,258;10563,846;67,04299
 986,03; 7148,873;  237,796;10448,923;67,68182
 986,58; 7077,258;  258,719;10339,462;67,63925
 987,13; 6942,027;  225,488;10240,154;67,06703
 987,68; 6936,258;  233,950;10120,692;67,79086
 988,23; 6909,412;  229,873;10080,846;67,80587
 988,78; 6824,642;  217,258;10014,077;67,44418
 989,33; 6808,104;  234,488; 9855,846;68,32316
 989,88; 6800,181;  240,565; 9836,462;68,35855
 990,42; 6682,104;  217,027; 9720,077;68,03160
 990,97; 6629,104;  217,181; 9595,385;68,37048
 991,52; 6650,488;  243,642; 9496,231;69,24382
 992,07; 6546,181;  251,258; 9446,846;68,45590
 992,62; 6490,104;  232,412; 9340,538;68,70449
 993,17; 6430,950;  227,258; 9286,154;68,48177
 993,71; 6380,488;  222,642; 9164,231;68,86747
 994,26; 6282,719;  212,873; 9036,000;68,79473
 994,81; 6284,335;  247,412; 9032,231;68,71995
 995,36; 6197,873;  212,335; 8858,462;69,22797
 995,91; 6197,258;  227,642; 8838,538;69,32630
 996,45; 6105,950;  222,104; 8726,308;69,18750
 997,00; 6055,488;  197,873; 8618,154;69,56556
 997,55; 6032,027;  227,027; 8578,385;69,50966
 998,10; 5987,873;  256,258; 8453,692;69,91962
 998,65; 5944,412;  215,335; 8365,462;70,29433
 999,19; 5868,950;  239,565; 8279,154;70,02081
 999,74; 5830,796;  260,719; 8182,769;70,31105
1000,29; 5852,181;  244,950; 8119,923;71,20317
1000,84; 5749,258;  208,642; 7979,538;71,29957
1001,38; 5719,104;  230,335; 7906,308;71,50584
1001,93; 5720,488;  234,950; 7885,692;71,69943
1002,48; 5612,565;  206,642; 7711,000;72,03712
1003,03; 5601,027;  227,104; 7758,846;71,35033
1003,57; 5552,642;  236,565; 7587,385;72,31952
1004,12; 5516,104;  253,258; 7494,077;72,68302
1004,67; 5443,796;  219,642; 7450,769;72,24536
1005,22; 5367,104;  208,488; 7283,692;72,91119
1005,76; 5260,950;  214,258; 7178,538;72,46538
1006,31; 5278,335;  247,642; 7171,385;72,65857
1006,86; 5188,642;  214,412; 6999,231;73,31412
1007,40; 5142,796;  207,950; 6929,077;73,42290
1007,95; 5084,104;  220,565; 6885,231;72,97498
1008,50; 5003,181;  224,796; 6739,231;73,35072
1009,04; 4961,796;  228,104; 6675,154;73,42416
1009,59; 4906,950;  234,565; 6526,692;74,25763
1010,14; 4831,027;  211,335; 6464,846;73,87357
1010,68; 4748,181;  225,258; 6382,769;73,45375
1011,23; 4667,412;  216,027; 6227,000;74,05431
1011,78; 4653,104;  234,258; 6193,154;74,15545
1012,32; 4552,873;  229,258; 6099,769;73,64972
1012,87; 4584,488;  240,565; 6102,615;74,10246
1013,42; 4455,258;  208,027; 5991,615;73,43591
1013,96; 4515,104;  244,104; 5981,846;74,43694
1014,51; 4414,873;  186,104; 5891,692;74,11627
1015,06; 4463,488;  198,873; 5874,615;75,13758
1015,60; 4503,873;  265,104; 5948,077;74,58718
1016,15; 4468,181;  211,950; 5894,385;74,90154
1016,69; 4493,104;  223,565; 5911,231;75,06663
1017,24; 4487,104;  192,027; 5917,769;75,01345
1017,79; 4538,565;  244,335; 5945,154;75,32656
1018,33; 4503,181;  205,642; 5950,231;74,81021
1018,88; 4523,873;  237,258; 6016,692;74,17015
1019,42; 4550,181;  223,335; 5982,154;75,13426
1019,97; 4565,335;  209,027; 5999,923;75,22683
1020,51; 4606,258;  237,104; 6019,000;75,56611
1021,06; 4578,258;  205,642; 6009,077;75,34530
1021,61; 4545,027;  193,335; 5971,846;75,30819
1022,15; 4551,873;  180,027; 5951,077;75,75478
1022,70; 4547,642;  210,335; 5900,308;76,22721
1023,24; 4514,027;  196,796; 5892,077;75,80365
1023,79; 4520,104;  221,181; 5877,769;75,99851
1024,33; 4471,950;  213,488; 5796,000;76,28218
1024,88; 4440,642;  216,796; 5746,000;76,39158
1025,42; 4359,412;  219,104; 5599,000;76,95888
1025,97; 4325,181;  213,565; 5583,692;76,56458
1026,51; 4242,873;  171,642; 5441,615;77,25335
1027,06; 4203,488;  206,488; 5398,154;76,98878
1027,60; 4156,027;  219,719; 5305,231;77,40239
1028,15; 4090,719;  221,796; 5265,846;76,70271
1028,69; 4048,719;  196,642; 5087,615;78,75891
1029,24; 3962,488;  211,488; 5082,692;77,00355
1029,78; 3905,181;  205,104; 4956,077;77,88040
1030,33; 3821,027;  190,950; 4822,923;78,36999
1030,87; 3834,027;  196,104; 4851,308;78,14745
1031,42; 3707,027;  192,488; 4772,308;76,73968
1031,96; 3703,873;  214,719; 4699,462;77,80054
1032,51; 3626,258;  190,719; 4611,308;77,71677
1033,05; 3614,565;  217,642; 4587,923;77,72780
1033,60; 3508,027;  170,104; 4450,769;77,97673
1034,14; 3490,104;  201,181; 4417,846;77,99820
1034,69; 3439,719;  211,412; 4387,154;77,31099
1035,23; 3409,950;  205,104; 4293,692;78,38515
1035,77; 3371,027;  203,412; 4215,231;78,95708
1036,32; 3321,565;  184,642; 4177,923;78,55503
1036,86; 3287,565;  208,104; 4109,231;78,93774
1037,41; 3248,412;  217,873; 4066,077;78,75203
1037,95; 3185,104;  181,565; 4006,538;78,52443
1038,50; 3164,104;  197,873; 3958,462;78,87677
1039,04; 3108,719;  223,335; 3928,769;77,86899
1039,58; 3058,104;  194,412; 3855,000;78,23038
1040,13; 3031,565;  209,642; 3777,846;79,08525
1040,67; 3036,796;  233,027; 3757,846;79,54363
1041,21; 2974,642;  228,027; 3721,077;78,63086
1041,76; 2902,950;  185,258; 3618,154;79,16617
1042,30; 2883,873;  205,181; 3569,077;79,63065
1042,85; 2823,873;  203,027; 3537,769;78,59216
1043,39; 2783,104;  203,335; 3485,077;78,60974
1043,93; 2764,565;  221,719; 3464,923;78,40538
1044,48; 2744,412;  211,796; 3401,615;79,39683
1045,02; 2685,104;  204,796; 3327,538;79,42723
1045,56; 2706,181;  231,181; 3315,231;80,25162
1046,11; 2651,412;  219,181; 3292,769;79,13326
1046,65; 2612,873;  220,642; 3224,077;79,64984
1047,19; 2568,719;  192,488; 3170,231;79,79975
1047,74; 2522,181;  183,258; 3096,385;80,28909
1048,28; 2523,719;  198,873; 3065,615;81,09714
1048,82; 2521,796;  228,488; 3054,846;81,14004
1049,37; 2480,335;  215,642; 2970,923;82,19461
1049,91; 2444,642;  197,488; 2944,385;81,80702
1050,45; 2426,104;  217,104; 2946,077;80,94620
1050,99; 2363,104;  210,488; 2879,077;80,66494
1051,54; 2334,565;  202,950; 2820,846;81,42475
1052,08; 2327,335;  233,258; 2792,231;81,83271
1052,62; 2301,950;  219,488; 2780,231;81,32257
1053,16; 2268,104;  210,027; 2699,538;82,66991
1053,71; 2252,642;  210,796; 2701,154;81,99008
1054,25; 2216,027;  231,488; 2645,462;82,21046
1054,79; 2179,719;  219,873; 2617,231;81,75026
1055,33; 2149,873;  190,642; 2513,769;84,33593
1055,88; 2168,258;  221,873; 2539,154;83,99434
1056,42; 2123,642;  226,412; 2507,154;83,18479
1056,96; 2095,104;  221,258; 2475,615;83,12107
1057,50; 2050,565;  215,565; 2434,846;82,68445
1058,05; 2017,027;  215,335; 2397,231;82,57461
1058,59; 2011,335;  240,412; 2335,538;84,52581
1059,13; 1930,873;  200,642; 2290,923;82,77504
1059,67; 1955,719;  226,181; 2308,615;83,05367
1060,21; 1907,488;  214,335; 2240,231;83,57555
1060,76; 1891,565;  223,796; 2227,769;83,22314
1061,30; 1892,642;  234,488; 2208,462;84,00083
1061,84; 1834,642;  215,181; 2163,615;83,11603
1062,38; 1804,027;  197,950; 2118,538;83,62421
1062,92; 1828,950;  251,565; 2124,538;84,21822
1063,46; 1765,950;  237,104; 2083,308;82,81026
1064,01; 1750,027;  209,027; 2045,154;83,92666
1064,55; 1744,104;  227,873; 2009,231;85,11658
1065,09; 1699,412;  197,642; 1970,769;84,69609
1065,63; 1709,642;  247,027; 1987,154;84,05222
1066,17; 1660,873;  237,027; 1958,231;82,72385
1066,71; 1670,873;  239,181; 1928,077;84,77089
1067,25; 1638,796;  213,950; 1876,692;85,69254
1067,80; 1634,565;  232,796; 1891,615;84,50404
1068,34; 1624,719;  241,873; 1867,692;85,05534
1068,88; 1542,027;  223,488; 1805,769;83,33151
1069,42; 1597,565;  244,104; 1836,538;84,99323
1069,96; 1515,565;  203,796; 1778,462;83,30463
1070,50; 1551,488;  252,950; 1790,154;84,47406
1071,04; 1487,719;  208,258; 1720,000;84,63490
1071,58; 1489,488;  222,027; 1711,923;85,07046
1072,12; 1469,719;  213,258; 1714,462;83,69693
1072,66; 1480,565;  218,181; 1674,462;86,68552
1073,21; 1474,642;  232,719; 1692,231;85,09169
1073,75; 1437,488;  225,104; 1652,077;84,96198
1074,29; 1417,719;  239,335; 1613,615;85,74555
1074,83; 1415,104;  247,181; 1623,385;84,86556
1075,37; 1393,488;  239,873; 1593,000;85,25552
1075,91; 1380,181;  238,719; 1559,462;86,42576
1076,45; 1376,719;  225,950; 1549,846;86,92292
1076,99; 1338,412;  232,950; 1527,077;85,42142
1077,53; 1328,873;  211,796; 1491,769;87,27347
1078,07; 1324,488;  232,488; 1502,769;85,96525
1078,61; 1309,950;  218,719; 1458,769;87,99893
1079,15; 1270,412;  222,873; 1460,692;84,62774
1079,69; 1266,796;  238,796; 1427,769;86,46117
1080,23; 1276,181;  245,258; 1426,923;87,24323
1080,77; 1279,873;  270,565; 1448,077;85,71531
1081,31; 1224,565;  218,027; 1377,000;86,84744
1081,85; 1238,565;  236,950; 1402,846;85,90949
1082,39; 1202,258;  232,181; 1352,154;86,61609
1082,93; 1194,642;  233,488; 1352,615;85,88426
1083,47; 1183,027;  211,104; 1306,000;88,76852
1084,01; 1188,104;  243,488; 1335,154;86,52976
1084,55; 1158,565;  218,027; 1301,615;86,79849
1085,09; 1173,027;  232,642; 1288,692;89,04736
1085,63; 1135,335;  224,104; 1279,846;86,31185
1086,17; 1134,412;  227,565; 1238,000;89,74813
1086,71; 1110,181;  218,565; 1226,769;88,43602
1087,24; 1127,258;  249,488; 1243,615;88,29549
1087,78; 1114,181;  227,796; 1227,000;88,70909
1088,32; 1063,335;  215,642; 1171,615;88,67324
1088,86; 1094,950;  247,181; 1195,846;89,36441
1089,40; 1074,565;  229,181; 1187,923;88,17642
1089,94; 1036,565;  205,565; 1135,000;89,40919
1090,48; 1057,104;  227,104; 1167,615;88,24985
1091,02; 1041,104;  242,873; 1144,538;88,52849
1091,56; 1020,950;  223,642; 1136,154;87,37508
1092,10; 1001,950;  213,104; 1098,846;89,06046
1092,63; 1032,412;  245,181; 1131,308;88,83950
1093,17;  985,181;  237,181; 1092,231;87,48026
1093,71;  962,412;  228,719; 1072,923;86,90938
1094,25;  974,565;  243,719; 1082,308;87,15194
1094,79;  945,181;  227,719; 1049,077;87,35068
1095,33;  936,642;  230,258; 1032,000;88,10619
1095,87;  936,335;  229,565; 1010,462;90,50745
1096,40;  907,796;  212,950; 1001,538;88,11265
1096,94;  916,642;  237,181; 1012,615;87,62332
1097,48;  916,796;  228,873;  996,615;89,60338
1098,02;  890,642;  221,027;  976,769;88,60367
1098,56;  839,335;  194,488;  948,462;85,52642
1099,10;  835,488;  199,181;  928,154;87,28823
1099,63;  852,104;  203,719;  937,538;88,35754
1100,17;  867,027;  232,873;  944,154;89,15661
1100,71;  864,181;  248,258;  936,615;89,47718

