
Integration time [ms]: 120,000
Averaging Nr. [scans]: 13
Smoothing Nr. [pixels]: 0
Data measured with spectrometer [name]: 2009305U1
Wave   ;Sample   ;Dark     ;Reference;Reflectance
[nm]   ;[counts] ;[counts] ;[counts] ;[%]

 175,72;  195,757;  188,260;  191,032;270,44905
 176,32;  224,724;  224,410;  220,873; 0,00000
 176,92;  252,355;  232,797;  240,423;256,44968
 177,52;  253,211;  239,797;  253,164;100,35363
 178,12;  239,637;  226,102;  208,578; 0,00000
 178,72;  248,513;  255,947;  239,478; 0,00000
 179,32;  249,089;  240,102;  239,368; 0,00000
 179,92;  249,317;  233,873;  234,772; 0,00000
 180,52;  242,250;  231,570;  253,930;47,76303
 181,12;  241,719;  244,488;  238,404; 0,00000
 181,73;  269,605;  262,027;  251,328; 0,00000
 182,33;  337,416;  322,568;  321,283; 0,00000
 182,93;  267,592;  258,259;  259,299;897,35749
 183,53;  229,727;  241,408;  225,007; 0,00000
 184,13;  235,145;  230,793;  223,348; 0,00000
 184,73;  266,388;  261,100;  267,377;84,24617
 185,33;  275,622;  229,461;  330,588;45,64601
 185,93;  278,409;  233,150;  351,317;38,30070
 186,53;  295,617;  243,690;  377,755;38,73291
 187,13;  320,843;  267,616;  401,255;39,82914
 187,73;  277,761;  225,381;  357,645;39,60195
 188,33;  288,087;  231,764;  359,112;44,22759
 188,93;  298,776;  240,452;  371,007;44,67453
 189,53;  306,520;  237,678;  366,423;53,47120
 190,13;  334,038;  265,826;  401,940;50,11370
 190,73;  271,512;  214,522;  345,202;43,61003
 191,34;  311,648;  252,219;  374,280;48,68811
 191,94;  276,003;  231,686;  356,499;35,50666
 192,54;  294,290;  233,926;  381,714;40,84458
 193,14;  298,268;  255,847;  373,580;36,03169
 193,74;  292,100;  243,385;  375,282;36,93458
 194,34;  284,349;  240,155;  375,352;32,68823
 194,94;  254,649;  215,155;  344,253;30,59263
 195,54;  238,899;  171,538;  318,943;45,69813
 196,14;  264,697;  217,541;  352,884;34,84197
 196,74;  255,895;  216,229;  339,632;32,14353
 197,34;  235,581;  187,081;  333,058;33,22433
 197,94;  262,887;  208,309;  357,667;36,54167
 198,54;  274,446;  230,464;  369,533;31,62620
 199,14;  253,164;  202,467;  365,217;31,15015
 199,74;  254,859;  188,851;  355,466;39,61705
 200,34;  251,652;  190,236;  375,136;33,21581
 200,94;  278,591;  230,311;  409,207;26,98748
 201,54;  269,805;  202,158;  419,775;31,08546
 202,14;  298,298;  240,776;  448,835;27,64721
 202,74;  271,177;  208,236;  445,607;26,51588
 203,34;  266,627;  187,546;  478,231;27,20489
 203,94;  249,546;  165,391;  477,928;26,92626
 204,54;  320,459;  230,771;  557,401;27,45870
 205,14;  288,067;  189,159;  568,328;26,08540
 205,74;  337,466;  231,777;  642,194;25,75169
 206,34;  310,736;  191,545;  673,542;24,72866
 206,94;  331,709;  210,237;  710,931;24,26083
 207,54;  318,900;  174,621;  749,837;25,08252
 208,14;  341,904;  194,006;  823,309;23,50174
 208,74;  362,000;  206,236;  906,545;22,24215
 209,34;  371,675;  198,851;  975,821;22,24334
 209,94;  402,802;  205,159; 1073,894;22,75071
 210,54;  427,874;  203,468; 1163,194;23,38222
 211,14;  442,180;  206,082; 1275,318;22,08102
 211,73;  456,464;  203,697; 1392,580;21,26092
 212,33;  492,433;  217,773; 1454,727;22,20460
 212,93;  505,070;  192,620; 1576,969;22,57014
 213,53;  492,772;  170,928; 1611,410;22,34281
 214,13;  535,554;  188,855; 1679,996;23,25058
 214,73;  530,990;  176,468; 1722,219;22,93529
 215,33;  511,572;  159,390; 1733,894;22,36779
 215,93;  580,650;  190,777; 1870,147;23,21545
 216,53;  575,504;  149,928; 1930,504;23,90106
 217,13;  666,396;  208,392; 2155,785;23,51881
 217,73;  709,503;  185,854; 2334,646;24,36946
 218,33;  733,153;  145,701; 2528,040;24,65859
 218,93;  834,181;  178,320; 2794,897;25,06563
 219,53;  924,541;  175,009; 3069,444;25,89561
 220,13;  981,541;  154,702; 3320,505;26,11783
 220,73; 1071,886;  177,390; 3675,855;25,56825
 221,32; 1210,923;  181,005; 4080,007;26,41491
 221,92; 1295,588;  179,471; 4448,636;26,14367
 222,52; 1379,724;  166,469; 4854,044;25,88235
 223,12; 1524,657;  166,008; 5197,330;27,00382
 223,72; 1647,429;  191,469; 5620,888;26,81613
 224,32; 1731,172;  185,008; 5935,261;26,88863
 224,92; 1807,593;  173,239; 6231,405;26,97771
 225,52; 1881,020;  192,390; 6568,027;26,48567
 226,12; 1964,526;  183,545; 6855,570;26,69326
 226,72; 2057,148;  164,084; 7133,076;27,16410
 227,31; 2113,569;  155,930; 7458,375;26,80800
 227,91; 2225,676;  186,544; 7817,044;26,72343
 228,51; 2321,223;  175,927; 8164,301;26,85523
 229,11; 2429,081;  166,468; 8499,371;27,15276
 229,71; 2494,257;  173,082; 8828,865;26,81647
 230,31; 2593,825;  159,547; 9191,543;26,95171
 230,91; 2682,687;  161,464; 9447,266;27,15138
 231,51; 2733,924;  151,854; 9776,021;26,82903
 232,10; 2779,500;  151,701;10112,665;26,38097
 232,70; 2844,502;  189,386;10284,967;26,29979
 233,30; 2930,947;  184,930;10562,860;26,46016
 233,90; 2961,753;  161,930;10634,082;26,73589
 234,50; 2925,366;  177,931;10782,132;25,90893
 235,10; 2970,901;  176,700;10893,482;26,07313
 235,70; 2983,806;  179,467;10947,597;26,04295
 236,29; 2985,434;  174,774;10875,157;26,26691
 236,89; 2897,912;  163,311;10803,451;25,70079
 237,49; 2885,814;  182,468;10763,065;25,55003
 238,09; 2820,967;  165,468;10595,465;25,46021
 238,69; 2757,854;  191,925;10346,595;25,26846
 239,29; 2638,950;  166,006;10067,372;24,97579
 239,89; 2537,182;  169,388; 9849,922;24,45934
 240,48; 2432,773;  175,468; 9436,456;24,37435
 241,08; 2302,438;  160,160; 9185,460;23,73637
 241,68; 2240,455;  192,391; 8843,392;23,67430
 242,28; 2133,496;  158,007; 8565,309;23,49730
 242,88; 2075,403;  209,393; 8230,322;23,26426
 243,48; 1990,041;  199,853; 8013,354;22,91147
 244,07; 1886,174;  181,236; 7835,804;22,27347
 244,67; 1864,526;  188,545; 7635,116;22,50674
 245,27; 1798,387;  187,620; 7538,964;21,91120
 245,87; 1751,540;  198,778; 7465,459;21,36825
 246,47; 1744,350;  182,235; 7394,051;21,66050
 247,06; 1714,238;  170,929; 7473,098;21,13494
 247,66; 1749,786;  177,545; 7528,223;21,38907
 248,26; 1790,578;  204,620; 7649,178;21,30359
 248,86; 1803,126;  193,774; 7851,780;21,01530
 249,46; 1804,536;  148,777; 8038,618;20,98597
 250,05; 1917,151;  193,622; 8381,418;21,04998
 250,65; 1981,140;  158,158; 8642,640;21,48607
 251,25; 2070,298;  170,621; 9137,081;21,18647
 251,85; 2224,661;  174,080; 9729,024;21,46094
 252,44; 2328,806;  144,697;10270,305;21,57015
 253,04; 2535,117;  186,467;10972,701;21,77451
 253,64; 2668,256;  141,773;11593,426;22,06217
 254,24; 2944,917;  193,160;12498,938;22,36150
 254,84; 3146,921;  171,084;13398,156;22,49807
 255,43; 3404,525;  175,236;14232,155;22,97295
 256,03; 3640,959;  173,927;15090,790;23,24237
 256,63; 3952,256;  186,311;16121,134;23,63343
 257,23; 4168,360;  163,619;16865,215;23,97819
 257,82; 4436,951;  184,617;17785,184;24,16021
 258,42; 4673,158;  141,386;18538,523;24,63303
 259,02; 5014,170;  188,851;19404,408;25,11152
 259,62; 5210,709;  171,924;20013,536;25,39504
 260,21; 5393,364;  180,005;20446,656;25,72383
 260,81; 5628,981;  175,776;20939,686;26,26290
 261,41; 5825,359;  161,540;21348,639;26,73239
 262,01; 6013,732;  195,692;21745,537;26,99806
 262,60; 6125,360;  159,772;22088,138;27,20489
 263,20; 6279,210;  173,081;22406,441;27,46381
 263,80; 6491,017;  185,846;22576,552;28,15977
 264,40; 6578,211;  159,770;22635,554;28,55714
 264,99; 6668,930;  177,923;22873,727;28,60003
 265,59; 6779,698;  169,690;22986,235;28,97024
 266,19; 6894,097;  151,923;23173,571;29,28623
 266,78; 7008,551;  198,691;23313,249;29,46135
 267,38; 7057,146;  180,998;23225,991;29,83793
 267,98; 7111,173;  170,999;23273,748;30,04047
 268,58; 7237,952;  176,460;23341,058;30,48398
 269,17; 7260,189;  169,612;23247,520;30,72452
 269,77; 7197,420;  185,772;23104,975;30,59289
 270,37; 7264,752;  159,846;23034,665;31,05995
 270,96; 7317,392;  211,386;22877,757;31,35044
 271,56; 7191,908;  175,618;22703,894;31,14437
 272,16; 7231,369;  181,617;22485,318;31,60799
 272,75; 7222,242;  173,540;22347,937;31,78757
 273,35; 7202,192;  175,464;22343,010;31,69827
 273,95; 7250,014;  178,540;22331,725;31,92080
 274,54; 7296,820;  162,775;22448,895;32,01116
 275,14; 7432,025;  186,848;22732,619;32,13541
 275,74; 7459,967;  151,771;22757,986;32,32826
 276,33; 7610,052;  194,541;23139,769;32,31831
 276,93; 7755,730;  189,006;23493,651;32,46873
 277,53; 7918,361;  175,313;23943,637;32,57717
 278,12; 8101,778;  159,388;24522,641;32,59988
 278,72; 8376,331;  198,082;25049,538;32,90853
 279,32; 8579,608;  166,851;25603,285;33,07365
 279,91; 8787,698;  167,927;26140,914;33,18745
 280,51; 9038,655;  171,236;26717,785;33,40328
 281,11; 9296,043;  166,389;27408,135;33,51347
 281,70; 9487,644;  158,158;27854,830;33,68450
 282,30; 9733,754;  149,618;28400,894;33,92461
 282,90; 9964,233;  171,003;28765,457;34,24870
 283,49;10168,887;  189,002;29327,182;34,25020
 284,09;10426,367;  202,311;29720,168;34,63685
 284,69;10692,544;  202,697;30055,598;35,13845
 285,28;10890,979;  186,927;30425,072;35,39917
 285,88;11129,385;  219,155;30550,573;35,97006
 286,47;11237,845;  181,618;30628,362;36,31333
 287,07;11359,143;  207,620;30770,805;36,48678
 287,67;11584,426;  196,699;30819,200;37,18745
 288,26;11774,176;  172,543;30800,315;37,87946
 288,86;11959,427;  157,465;30903,297;38,38557
 289,46;12191,705;  193,850;30940,721;39,02138
 290,05;12414,910;  177,775;31098,678;39,57561
 290,65;12717,216;  177,926;31293,056;40,29965
 291,24;13030,578;  185,851;31413,870;41,13206
 291,84;13271,948;  190,234;31527,211;41,74530
 292,44;13552,824;  183,930;31619,198;42,52833
 293,03;13866,404;  237,851;31807,212;43,17019
 293,63;14138,192;  169,080;31969,525;43,92741
 294,22;14356,832;  199,927;32062,332;44,43137
 294,82;14570,582;  175,231;32052,163;45,15915
 295,41;14450,721;  172,619;31769,137;45,18885
 296,01;14558,218;  207,463;31764,345;45,47583
 296,61;14570,324;  191,081;31442,501;46,01149
 297,20;14475,556;  192,001;31183,213;46,08905
 297,80;14375,030;  181,468;31055,544;45,97243
 298,39;14270,815;  167,542;30706,947;46,18058
 298,99;14229,817;  191,540;30486,766;46,33825
 299,58;14109,138;  191,468;30353,097;46,14363
 300,18;14036,013;  208,006;30076,989;46,29554
 300,78;13872,565;  169,313;29818,241;46,21837
 301,37;13791,314;  193,923;29790,504;45,94244
 301,97;13745,049;  196,543;29891,096;45,62624
 302,56;13674,854;  166,310;29794,349;45,59379
 303,16;13509,001;  173,310;29747,165;45,09284
 303,75;13410,910;  177,005;29704,147;44,81946
 304,35;13493,633;  171,162;29945,807;44,74435
 304,94;13451,651;  179,620;30022,782;44,47260
 305,54;13321,461;  199,159;29908,315;44,16922
 306,13;13188,968;  150,700;29919,965;43,79775
 306,73;13031,225;  158,469;29661,222;43,63239
 307,33;12900,917;  201,314;29617,230;43,17256
 307,92;12857,983;  177,466;29728,606;42,91041
 308,52;12877,359;  165,310;30129,008;42,42483
 309,11;12983,783;  177,463;30600,279;42,09446
 309,71;13011,599;  149,923;30889,426;41,84087
 310,30;13044,571;  158,235;31107,064;41,63756
 310,90;13059,956;  189,620;31395,141;41,24378
 311,49;13002,581;  180,697;31519,743;40,91345
 312,09;12961,207;  152,852;31647,999;40,66771
 312,68;13030,618;  217,005;32025,256;40,28393
 313,28;12903,675;  153,466;32217,913;39,76432
 313,87;12844,949;  148,004;32290,642;39,50188
 314,47;12791,653;  165,001;32560,795;38,97621
 315,06;12747,775;  152,312;32629,744;38,78220
 315,66;12706,207;  161,083;32887,229;38,33364
 316,25;12485,453;  142,233;32772,640;37,82736
 316,85;12415,923;  145,775;32723,291;37,66447
 317,44;12288,369;  162,770;32979,557;36,94938
 318,04;12181,888;  142,542;33009,774;36,63024
 318,63;12054,937;  153,469;32982,266;36,25314
 319,22;11983,731;  177,310;33207,071;35,74480
 319,82;11837,627;  171,542;33200,582;35,32069
 320,41;11620,527;  178,234;33238,536;34,61037
 321,01;11503,522;  187,313;33272,351;34,20340
 321,60;11366,153;  174,927;33443,038;33,63950
 322,20;11260,585;  177,466;33333,061;33,42760
 322,79;11094,411;  202,082;33485,172;32,72632
 323,39;10970,928;  165,469;33530,501;32,38558
 323,98;10794,461;  153,620;33516,545;31,89421
 324,58;10666,841;  168,079;33435,205;31,55897
 325,17;10524,229;  177,618;33278,600;31,25772
 325,76;10328,444;  187,927;33051,152;30,85673
 326,36;10072,308;  145,313;32763,607;30,43383
 326,95; 9922,795;  186,619;32466,503;30,16174
 327,55; 9682,122;  156,850;32186,170;29,73923
 328,14; 9444,907;  155,391;31749,720;29,40248
 328,74; 9253,466;  195,618;31376,561;29,04931
 329,33; 9043,033;  178,852;31015,425;28,74568
 329,92; 8761,385;  158,463;30489,273;28,36364
 330,52; 8510,261;  177,468;29925,383;28,01135
 331,11; 8285,327;  170,542;29424,081;27,73950
 331,71; 8043,390;  174,542;28887,606;27,40511
 332,30; 7850,882;  182,312;28506,244;27,07453
 332,89; 7649,582;  218,928;27953,719;26,79181
 333,49; 7396,276;  188,081;27460,316;26,43053
 334,08; 7216,487;  176,696;27081,896;26,16517
 334,68; 7025,316;  171,003;26621,410;25,91383
 335,27; 6897,205;  183,161;26314,649;25,69331
 335,86; 6757,019;  223,311;26075,312;25,27351
 336,46; 6588,730;  193,699;25908,643;24,86893
 337,05; 6514,440;  168,542;25732,918;24,82321
 337,65; 6403,336;  162,850;25569,915;24,56201
 338,24; 6330,939;  219,466;25604,877;24,07474
 338,83; 6298,675;  188,390;25458,290;24,18009
 339,43; 6184,209;  171,310;25412,557;23,82172
 340,02; 6136,426;  172,464;25321,790;23,71420
 340,61; 6055,140;  166,851;25444,701;23,29426
 341,21; 6065,390;  204,157;25448,022;23,21844
 341,80; 5996,601;  171,080;25342,271;23,14360
 342,40; 5978,151;  182,083;25467,180;22,92286
 342,99; 5978,659;  180,698;25574,489;22,83220
 343,58; 5971,572;  175,929;25701,271;22,70545
 344,18; 5933,756;  183,467;25830,755;22,42065
 344,77; 5996,981;  168,772;26136,507;22,44404
 345,36; 6014,564;  149,850;26424,657;22,32067
 345,96; 6080,766;  199,698;26729,203;22,16803
 346,55; 6091,453;  160,546;27003,111;22,09516
 347,14; 6141,442;  158,160;27333,078;22,01766
 347,74; 6190,504;  153,548;27683,830;21,92842
 348,33; 6355,929;  173,778;28344,770;21,94509
 348,92; 6449,160;  176,857;28888,277;21,84602
 349,52; 6502,394;  143,548;29276,465;21,82701
 350,11; 6556,182;  173,464;29496,100;21,76720
 350,70; 6610,849;  165,774;29591,495;21,90286
 351,29; 6555,896;  167,230;29365,086;21,88060
 351,89; 6502,917;  179,924;29396,697;21,64165
 352,48; 6515,404;  150,235;29408,135;21,75539
 353,07; 6540,710;  175,391;29301,061;21,85467
 353,67; 6539,134;  182,857;29268,573;21,85360
 354,26; 6432,001;  176,007;29055,737;21,66223
 354,85; 6475,060;  170,698;28908,882;21,93723
 355,45; 6409,607;  153,926;28663,239;21,94259
 356,04; 6402,971;  161,238;28584,853;21,95967
 356,63; 6424,551;  195,696;28511,190;21,99804
 357,22; 6390,615;  178,692;28361,920;22,04121
 357,82; 6342,693;  176,462;28098,443;22,08379
 358,41; 6351,283;  188,927;28014,345;22,14650
 359,00; 6334,998;  166,310;27765,985;22,35058
 359,60; 6385,073;  180,159;27791,911;22,47201
 360,19; 6376,774;  174,084;27611,971;22,60629
 360,78; 6355,912;  177,773;27378,597;22,71306
 361,37; 6362,530;  168,080;27240,693;22,88087
 361,97; 6351,196;  183,235;27141,751;22,87946
 362,56; 6271,235;  165,156;26829,884;22,89946
 363,15; 6334,962;  209,773;26604,363;23,20623
 363,74; 6308,830;  175,463;26267,856;23,50634
 364,34; 6250,052;  205,926;25900,000;23,52342
 364,93; 6216,242;  164,694;25431,083;23,95098
 365,52; 6155,327;  149,927;25138,389;24,03269
 366,11; 6149,941;  167,926;24863,643;24,22289
 366,71; 6100,961;  153,926;24456,994;24,47031
 367,30; 6101,293;  168,619;24175,263;24,71263
 367,89; 6114,268;  213,544;23987,128;24,82050
 368,48; 6047,222;  189,925;23639,355;24,97842
 369,07; 5989,234;  174,235;23231,803;25,21948
 369,67; 6040,583;  202,771;22888,593;25,73331
 370,26; 5980,933;  170,389;22698,609;25,79229
 370,85; 5993,922;  177,773;22478,961;26,08000
 371,44; 5982,922;  179,465;22229,877;26,31904
 372,03; 5997,226;  153,695;22038,966;26,70075
 372,63; 5945,357;  150,850;21657,334;26,94307
 373,22; 5891,243;  166,312;21462,867;26,88196
 373,81; 5945,363;  148,157;21068,918;27,71030
 374,40; 5904,927;  162,006;20908,917;27,68085
 374,99; 5860,400;  166,465;20615,301;27,84479
 375,59; 5876,820;  152,083;20347,587;28,34659
 376,18; 5903,042;  190,696;20264,920;28,45613
 376,77; 5906,855;  186,773;20125,702;28,68801
 377,36; 5971,246;  205,619;19963,063;29,18205
 377,95; 5910,507;  181,003;19718,878;29,32511
 378,55; 5959,522;  163,621;19545,659;29,90346
 379,14; 5977,765;  177,004;19552,173;29,93915
 379,73; 5989,590;  176,388;19375,377;30,27869
 380,32; 6122,063;  190,312;19468,102;30,76987
 380,91; 6044,981;  157,232;19352,830;30,67239
 381,50; 6160,316;  188,848;19199,057;31,41190
 382,10; 6180,678;  157,850;19163,486;31,68969
 382,69; 6196,781;  151,773;19078,044;31,93978
 383,28; 6279,062;  190,079;19065,371;32,25901
 383,87; 6267,098;  164,387;18997,516;32,40413
 384,46; 6330,565;  157,077;18908,985;32,92192
 385,05; 6380,911;  193,387;18894,860;33,08576
 385,64; 6443,864;  166,233;18855,797;33,58896
 386,24; 6468,328;  144,462;18790,871;33,91466
 386,83; 6596,485;  195,616;18864,359;34,28656
 387,42; 6676,948;  185,695;18993,065;34,51441
 388,01; 6820,427;  184,999;19167,441;34,95561
 388,60; 6974,639;  184,616;19384,728;35,36450
 389,19; 7081,473;  170,304;19650,927;35,47714
 389,78; 7230,426;  172,228;19769,403;36,01641
 390,37; 7536,140;  229,461;20281,999;36,43768
 390,96; 7621,111;  180,077;20375,492;36,84516
 391,56; 7719,987;  182,457;20481,112;37,13315
 392,15; 7857,988;  163,305;20748,919;37,37894
 392,74; 7944,932;  144,685;20872,859;37,63113
 393,33; 8159,027;  166,303;21235,744;37,93515
 393,92; 8397,018;  172,607;21599,493;38,38360
 394,51; 8518,348;  156,226;21745,211;38,73328
 395,10; 8690,594;  203,449;22005,912;38,92746
 395,69; 8791,210;  189,834;22082,050;39,28965
 396,28; 8892,269;  194,370;22278,926;39,38453
 396,87; 8998,444;  189,674;22327,851;39,78995
 397,46; 9131,466;  194,903;22395,976;40,25284
 398,06; 9278,410;  204,746;22698,731;40,33818
 398,65; 9352,854;  188,200;22681,367;40,74417
 399,24; 9487,174;  200,352;22887,404;40,93446
 399,83; 9537,161;  182,110;22749,864;41,45318
 400,42; 9685,145;  220,254;23035,427;41,48507
 401,01; 9777,325;  189,781;23094,134;41,85905
 401,60; 9842,112;  211,766;23119,590;42,03955
 402,19; 9936,010;  217,369;23112,094;42,44926
 402,78;10007,490;  228,889;23019,193;42,90685
 403,37;10021,048;  216,025;22874,577;43,27295
 403,96; 9993,577;  206,927;22765,566;43,38316
 404,55;10027,208;  221,981;22707,621;43,60662
 405,14;10077,550;  204,344;22516,338;44,25067
 405,73;10061,036;  224,473;22495,027;44,16847
 406,32;10164,086;  221,687;22330,563;44,97017
 406,91;10053,058;  218,052;22106,316;44,93278
 407,50;10010,617;  221,658;22007,485;44,93269
 408,09;10008,061;  192,651;21694,036;45,65013
 408,68; 9986,493;  215,338;21519,842;45,86427
 409,27; 9965,052;  197,652;21360,402;46,15373
 409,86; 9974,666;  207,437;21233,055;46,45395
 410,45;10030,487;  238,449;21169,855;46,78156
 411,04;10065,210;  249,770;21139,912;46,98599
 411,63; 9970,248;  229,633;20851,355;47,23473
 412,22; 9930,785;  228,725;20634,154;47,54647
 412,81; 9806,203;  242,654;20402,820;47,43785
 413,40; 9738,197;  254,122;20116,361;47,74928
 413,99; 9690,223;  297,197;19840,419;48,06283
 414,58; 9494,210;  222,814;19381,613;48,39237
 415,17; 9453,822;  226,423;19244,223;48,51980
 415,76; 9453,905;  226,878;19048,351;49,02394
 416,35; 9385,088;  219,728;18952,438;48,92704
 416,94; 9463,100;  247,187;18919,791;49,35526
 417,53; 9592,561;  224,577;19198,185;49,37376
 418,12; 9699,549;  221,502;19256,610;49,79245
 418,71; 9964,479;  240,738;19628,350;50,15440
 419,30;10036,178;  227,656;19681,062;50,42059
 419,89;10146,694;  214,888;19818,661;50,66273
 420,48;10359,348;  238,353;20128,335;50,88489
 421,07;10413,188;  247,508;20203,804;50,93971
 421,66;10479,016;  220,434;20201,298;51,34203
 422,25;10490,973;  218,210;20172,872;51,48052
 422,84;10529,011;  246,980;20160,447;51,63355
 423,43;10439,718;  237,593;19881,303;51,93584
 424,02;10328,174;  259,671;19663,157;51,89017
 424,60;10136,650;  222,986;19315,964;51,92309
 425,19;10081,136;  251,982;19050,908;52,28572
 425,78;10097,621;  248,136;18934,501;52,70948
 426,37;10053,990;  254,216;18845,491;52,71169
 426,96;10028,840;  241,293;18690,278;53,05195
 427,55;10002,317;  224,528;18531,259;53,41090
 428,14; 9905,523;  225,914;18339,747;53,43766
 428,73; 9902,337;  233,142;18150,342;53,96599
 429,32; 9940,024;  245,754;18147,086;54,15390
 429,91; 9937,233;  261,603;18179,330;54,00032
 430,50; 9886,726;  256,682;17992,998;54,29563
 431,08; 9822,794;  259,684;17864,964;54,31956
 431,67; 9808,758;  294,533;17761,465;54,46993
 432,26; 9744,235;  310,073;17587,962;54,60251
 432,85; 9590,238;  324,380;17315,996;54,53194
 433,44; 9481,463;  331,383;16930,504;55,12389
 434,03; 9281,864;  354,387;16581,647;55,01531
 434,62; 9080,457;  319,460;16216,459;55,11101
 435,21; 9062,258;  330,380;16033,955;55,60439
 435,79; 8946,164;  332,154;15856,794;55,48605
 436,38; 8899,577;  310,927;15766,789;55,56889
 436,97; 8844,628;  314,466;15676,846;55,52630
 437,56; 8776,384;  305,164;15540,304;55,60316
 438,15; 8762,644;  288,778;15421,443;55,99718
 438,74; 8769,678;  296,086;15440,861;55,95059
 439,33; 8851,921;  275,470;15433,036;56,58198
 439,91; 8844,551;  243,088;15478,979;56,45527
 440,50; 8917,990;  296,011;15560,986;56,48210
 441,09; 8980,754;  299,938;15607,794;56,70825
 441,68; 9033,238;  277,018;15662,066;56,91383
 442,27; 8974,521;  253,786;15654,574;56,62525
 442,86; 8976,823;  238,716;15607,961;56,85450
 443,44; 9093,431;  248,714;15637,417;57,47539
 444,03; 9142,793;  310,023;15701,546;57,38724
 444,62; 9058,619;  250,870;15600,811;57,37970
 445,21; 9000,107;  267,946;15432,377;57,58318
 445,80; 8991,778;  281,873;15344,067;57,82627
 446,39; 8865,219;  299,410;15123,963;57,78123
 446,97; 8718,285;  246,722;14874,932;57,91251
 447,56; 8660,786;  254,879;14755,921;57,96760
 448,15; 8560,339;  252,645;14532,562;58,17746
 448,74; 8430,152;  264,492;14244,737;58,40856
 449,33; 8336,327;  261,879;14123,571;58,25009
 449,91; 8263,457;  252,652;13966,166;58,41540
 450,50; 8151,680;  248,343;13744,298;58,56078
 451,09; 8120,938;  266,882;13684,832;58,53395
 451,68; 8057,818;  280,345;13522,457;58,73288
 452,26; 8037,321;  278,578;13547,812;58,47167
 452,85; 7957,588;  273,807;13364,749;58,69540
 453,44; 7974,310;  271,120;13391,559;58,71138
 454,03; 7956,539;  258,733;13374,937;58,68929
 454,61; 8001,658;  235,736;13373,868;59,10979
 455,20; 8063,124;  287,891;13551,847;58,61926
 455,79; 8055,407;  275,658;13551,548;58,60058
 456,38; 8136,306;  278,433;13579,250;59,07813
 456,97; 8157,045;  264,509;13634,166;59,03320
 457,55; 8167,230;  259,665;13642,373;59,08793
 458,14; 8138,717;  282,431;13601,600;58,98480
 458,73; 8073,348;  277,357;13568,451;58,65575
 459,31; 8206,068;  297,745;13654,538;59,20825
 459,90; 8211,777;  313,205;13694,602;59,02651
 460,49; 8291,355;  329,896;13738,558;59,37549
 461,08; 8264,755;  267,362;13809,923;59,05377
 461,66; 8336,714;  285,899;13893,722;59,16314
 462,25; 8419,241;  271,132;14016,723;59,27798
 462,84; 8440,411;  305,208;14005,694;59,37894
 463,43; 8410,731;  247,674;13967,110;59,49995
 464,01; 8360,819;  280,522;13983,519;58,96737
 464,60; 8429,546;  319,365;13979,188;59,37252
 465,19; 8293,622;  248,677;13709,314;59,76645
 465,77; 8250,894;  274,755;13711,515;59,36058
 466,36; 8218,751;  298,751;13589,768;59,58912
 466,95; 8016,544;  269,982;13266,515;59,60484
 467,53; 7842,775;  276,526;12990,901;59,50940
 468,12; 7720,591;  299,988;12772,094;59,49759
 468,71; 7621,780;  287,985;12587,940;59,62457
 469,29; 7440,270;  265,604;12368,158;59,28225
 469,88; 7281,044;  265,682;12051,222;59,52516
 470,47; 7439,654;  314,300;12243,422;59,73075
 471,06; 7339,490;  289,070;12169,589;59,34438
 471,64; 7417,788;  293,761;12260,548;59,53165
 472,23; 7357,530;  255,767;12284,308;59,04094
 472,81; 7440,177;  251,534;12391,804;59,21321
 473,40; 7528,614;  273,459;12489,961;59,38815
 473,99; 7648,423;  354,998;12720,662;58,98126
 474,57; 7672,393;  276,690;12800,256;59,05429
 475,16; 7770,020;  291,073;12949,077;59,08473
 475,75; 7809,040;  299,538;13052,077;58,88633
 476,33; 7867,406;  299,925;13155,518;58,86528
 476,92; 7910,798;  304,306;13162,129;59,15847
 477,51; 7973,422;  304,155;13255,104;59,21780
 478,09; 7925,271;  303,309;13252,200;58,86189
 478,68; 7914,536;  299,002;13219,379;58,94204
 479,27; 7926,087;  320,308;13271,124;58,72818
 479,85; 7922,489;  288,848;13239,870;58,94238
 480,44; 7997,440;  283,157;13366,235;58,96382
 481,02; 8842,749;  290,005;14754,419;59,12955
 481,61; 9953,216;  325,850;16683,557;58,85523
 482,20;10631,003;  317,543;17730,327;59,22924
 482,78;11083,530;  348,310;18494,941;59,15820
 483,37;11364,971;  335,854;18984,669;59,14111
 483,95;11560,045;  353,470;19260,097;59,27327
 484,54;11639,714;  369,773;19392,478;59,24468
 485,13;11574,194;  332,088;19375,073;59,03542
 485,71;11462,852;  309,856;19113,433;59,31316
 486,30;11302,394;  357,395;18821,298;59,27782
 486,88;11056,953;  370,011;18444,864;59,12603
 487,47;10633,050;  364,088;17768,276;59,00282
 488,05;10141,944;  355,936;16968,991;58,90553
 488,64; 9411,427;  353,784;15692,364;59,05138
 489,23; 8339,807;  361,705;13908,077;58,89475
 489,81; 7211,098;  352,168;11955,421;59,11213
 490,40; 6803,781;  318,014;11421,657;58,41116
 490,98; 6611,648;  295,861;11187,985;57,98490
 491,57; 6569,864;  328,552;11109,257;57,89336
 492,15; 6550,133;  303,862;11034,039;58,21219
 492,74; 6523,091;  314,320;10925,792;58,50999
 493,32; 6473,828;  332,015;10825,227;58,53130
 493,91; 6368,836;  300,478;10721,071;58,23428
 494,50; 6349,501;  311,790;10703,486;58,10130
 495,08; 6337,527;  291,175;10638,266;58,43529
 495,67; 6260,873;  326,940;10584,531;57,84918
 496,25; 6248,607;  277,250;10557,794;58,08406
 496,84; 6187,612;  275,170;10500,201;57,82321
 497,42; 6179,212;  272,250;10466,406;57,94459
 498,01; 6128,047;  308,248;10427,105;57,51439
 498,59; 6091,099;  266,558;10334,408;57,85288
 499,18; 6085,274;  264,402;10265,002;58,20523
 499,76; 6036,784;  287,327;10243,240;57,74917
 500,35; 5911,274;  276,099;10056,250;57,61849
 500,93; 5874,376;  259,481; 9968,316;57,83284
 501,52; 5844,229;  266,097; 9884,961;57,99159
 502,10; 5849,218;  281,177; 9934,100;57,68243
 502,69; 5698,687;  259,948; 9763,568;57,22808
 503,27; 5565,952;  252,713; 9606,114;56,80542
 503,86; 5575,593;  259,870; 9496,559;57,55009
 504,44; 5507,751;  247,795; 9379,008;57,60413
 505,03; 5355,617;  231,718; 9135,436;57,54786
 505,61; 5291,025;  251,564; 9042,821;57,32356
 506,19; 5230,360;  272,410; 8919,817;57,33453
 506,78; 5100,887;  232,336; 8719,356;57,36466
 507,36; 5011,604;  254,564; 8571,746;57,19533
 507,95; 4916,697;  257,338; 8427,565;57,02851
 508,53; 4823,612;  241,875; 8388,713;56,23946
 509,12; 4761,265;  263,491; 8199,757;56,67368
 509,70; 4690,654;  277,569; 8024,683;56,96424
 510,29; 4631,280;  274,724; 7912,708;57,03804
 510,87; 4473,880;  238,567; 7741,088;56,45186
 511,46; 4384,706;  253,414; 7570,645;56,45978
 512,04; 4279,319;  250,646; 7473,356;55,77786
 512,62; 4262,787;  245,875; 7322,433;56,76364
 513,21; 4111,116;  237,570; 7160,798;55,95000
 513,79; 4064,179;  237,113; 7046,664;56,20145
 514,38; 3961,546;  230,650; 6937,217;55,63049
 514,96; 3911,991;  271,727; 6821,508;55,57840
 515,54; 3812,262;  230,958; 6697,648;55,38079
 516,13; 3780,493;  262,497; 6637,101;55,18768
 516,71; 3720,357;  239,345; 6444,079;56,10252
 517,30; 3619,803;  234,809; 6385,554;55,03389
 517,88; 3583,545;  255,808; 6315,627;54,91479
 518,46; 3509,442;  241,425; 6188,138;54,95502
 519,05; 3507,637;  248,811; 6157,963;55,14880
 519,63; 3450,730;  250,194; 6109,772;54,62059
 520,22; 3433,668;  253,197; 6020,861;55,14314
 520,80; 3346,127;  239,890; 5976,604;54,14662
 521,38; 3357,306;  275,118; 5973,970;54,08436
 521,97; 3345,245;  241,122; 5909,274;54,76428
 522,55; 3335,415;  249,660; 5887,376;54,73414
 523,13; 3286,978;  233,969; 5889,875;53,97912
 523,72; 3289,262;  250,040; 5842,673;54,34330
 524,30; 3348,878;  258,816; 6010,167;53,72758
 524,89; 3321,780;  225,199; 6014,248;53,49032
 525,47; 3402,701;  252,586; 6105,089;53,82509
 526,05; 3429,106;  216,048; 6127,663;54,35161
 526,64; 3484,732;  245,434; 6251,934;53,92988
 527,22; 3552,062;  265,586; 6371,874;53,82118
 527,80; 3616,414;  292,049; 6477,417;53,74564
 528,39; 3655,325;  237,127; 6572,541;53,95381
 528,97; 3735,271;  238,511; 6705,850;54,06799
 529,55; 3840,479;  261,354; 6871,423;54,14657
 530,14; 3927,235;  276,666; 7049,828;53,89756
 530,72; 3980,351;  251,049; 7155,484;54,01314
 531,30; 4009,616;  234,589; 7274,494;53,62327
 531,89; 4074,191;  258,666; 7329,638;53,96041
 532,47; 4129,349;  284,744; 7367,872;54,27835
 533,05; 4137,257;  283,203; 7460,398;53,69861
 533,63; 4180,045;  288,513; 7504,575;53,92874
 534,22; 4158,874;  251,744; 7557,781;53,47810
 534,80; 4189,762;  282,439; 7624,205;53,22048
 535,38; 4230,289;  352,282; 7757,212;52,37061
 535,97; 4149,392;  269,359; 7665,361;52,46122
 536,55; 4194,548;  320,054; 7738,914;52,22492
 537,13; 4173,760;  315,820; 7763,976;51,79725
 537,71; 4144,532;  360,358; 7797,618;50,88130
 538,30; 4183,360;  375,360; 7853,904;50,91899
 538,88; 4233,291;  412,979; 7969,256;50,55813
 539,46; 4328,240;  474,900; 8121,076;50,39565
 540,05; 4349,482;  487,055; 8267,185;49,64475
 540,63; 4451,468;  529,747; 8429,026;49,64657
 541,21; 4492,733;  565,902; 8567,890;49,07319
 541,79; 4556,847;  608,210; 8638,880;49,16945
 542,38; 4621,485;  637,516; 8826,904;48,64794
 542,96; 4675,617;  640,981; 8990,841;48,31980
 543,54; 4771,141;  654,595; 9152,882;48,43972
 544,12; 4826,138;  639,441; 9316,540;48,24996
 544,70; 4831,166;  606,827; 9383,128;48,13347
 545,29; 4914,970;  609,439; 9530,274;48,26376
 545,87; 4940,847;  604,826; 9507,342;48,70557
 546,45; 4939,766;  556,978; 9574,439;48,60334
 547,03; 4961,693;  520,286; 9587,665;48,98225
 547,62; 5009,553;  491,133; 9758,186;48,75789
 548,20; 5074,948;  497,981; 9886,142;48,75254
 548,78; 5103,746;  456,754; 9964,744;48,87461
 549,36; 5166,415;  423,984;10197,228;48,52463
 549,94; 5246,931;  388,980;10269,440;49,16725
 550,53; 5372,856;  402,907;10455,739;49,43830
 551,11; 5426,389;  366,139;10633,732;49,28370
 551,69; 5568,254;  370,753;10900,806;49,35874
 552,27; 5592,130;  337,060;11133,021;48,67626
 552,85; 5793,924;  340,832;11487,328;48,92203
 553,44; 5922,770;  336,061;11749,436;48,94878
 554,02; 6074,944;  357,216;12100,310;48,69013
 554,60; 6170,058;  289,832;12357,816;48,72584
 555,18; 6325,298;  332,754;12654,911;48,63227
 555,76; 6468,272;  318,985;12952,815;48,67318
 556,34; 6651,898;  312,756;13377,508;48,52095
 556,93; 6776,268;  298,600;13673,035;48,43321
 557,51; 6920,250;  285,141;13978,537;48,45481
 558,09; 7109,131;  316,292;14352,367;48,39557
 558,67; 7240,863;  306,527;14678,948;48,24751
 559,25; 7367,665;  319,603;14952,243;48,16671
 559,83; 7466,596;  304,297;15233,088;47,97641
 560,41; 7622,791;  291,756;15567,263;47,99209
 561,00; 7709,133;  307,219;15895,804;47,48291
 561,58; 7849,667;  295,294;16100,832;47,79574
 562,16; 7958,295;  288,139;16420,784;47,54432
 562,74; 8094,696;  273,523;16733,363;47,51670
 563,32; 8191,131;  265,759;17138,608;46,97115
 563,90; 8327,806;  307,142;17441,068;46,81159
 564,48; 8476,838;  299,832;17811,095;46,69569
 565,06; 8757,060;  290,527;18441,061;46,64619
 565,65; 9002,921;  287,376;19066,758;46,41018
 566,23; 9284,194;  338,604;19715,164;46,16707
 566,81; 9543,969;  290,372;20393,994;46,02950
 567,39; 9921,873;  295,221;21244,127;45,95301
 567,97;10099,317;  304,142;21778,226;45,61394
 568,55;10420,278;  326,759;22585,878;45,34555
 569,13;10689,391;  294,373;23217,961;45,34638
 569,71;10996,446;  284,216;24067,688;45,04065
 570,29;11452,783;  330,984;25005,357;45,07429
 570,87;11648,750;  332,524;25684,447;44,63656
 571,45;11936,933;  314,450;26317,295;44,69697
 572,03;12019,168;  270,683;26711,575;44,43301
 572,61;12276,485;  285,297;27360,047;44,28919
 573,20;12555,026;  315,449;27919,651;44,33954
 573,78;12705,074;  293,066;28598,728;43,84991
 574,36;12835,408;  312,604;29027,362;43,61104
 574,94;12986,155;  367,683;29348,869;43,54022
 575,52;13007,019;  314,993;29622,985;43,30568
 576,10;13257,343;  368,839;30101,802;43,34753
 576,68;13419,108;  350,606;30665,907;43,10860
 577,26;13618,084;  368,533;31195,417;42,98051
 577,84;13766,592;  370,066;31790,538;42,63630
 578,42;13825,369;  406,915;31996,906;42,47692
 579,00;13764,940;  370,066;32069,155;42,25634
 579,58;13853,332;  399,145;32314,777;42,15548
 580,16;13786,065;  375,915;32434,378;41,83030
 580,74;13853,962;  376,377;32448,444;42,02281
 581,32;13759,774;  381,068;32557,110;41,57971
 581,90;13735,119;  400,146;32515,932;41,52155
 582,48;13749,393;  394,607;32594,883;41,47413
 583,06;13756,857;  402,606;32782,310;41,24266
 583,64;13747,884;  401,452;32858,398;41,12042
 584,22;13584,568;  405,994;32602,494;40,93170
 584,80;13428,797;  405,915;32445,241;40,64656
 585,38;13366,179;  422,833;32054,582;40,91884
 585,96;13250,174;  393,067;32147,397;40,48930
 586,54;13205,541;  413,532;32050,345;40,43394
 587,12;13241,159;  382,916;32247,541;40,35272
 587,70;13286,840;  417,836;32301,539;40,36232
 588,28;13241,464;  390,916;32379,522;40,17227
 588,86;13264,129;  384,762;32493,734;40,11143
 589,44;13192,308;  374,996;32468,964;39,93683
 590,02;13283,094;  379,303;32622,004;40,02081
 590,59;13331,748;  352,840;32890,283;39,88915
 591,17;13294,179;  360,844;33036,886;39,58048
 591,75;13267,005;  356,843;33156,882;39,36020
 592,33;13270,864;  371,304;33354,211;39,10983
 592,91;13329,236;  310,459;33555,089;39,16054
 593,49;13413,427;  333,460;33842,587;39,03404
 594,07;13386,942;  344,768;34059,679;38,68370
 594,65;13395,036;  352,455;33987,463;38,77680
 595,23;13446,953;  353,533;34362,009;38,50046
 595,81;13430,492;  333,457;34528,224;38,30128
 596,39;13390,502;  333,073;34613,281;38,09029
 596,97;13364,965;  339,459;34856,464;37,73649
 597,55;13253,114;  341,225;34775,216;37,49751
 598,12;13185,582;  316,846;34640,725;37,49208
 598,70;13201,822;  319,306;34828,743;37,33041
 599,28;13153,651;  330,152;35007,719;36,97923
 599,86;13152,159;  313,844;34973,927;37,04064
 600,44;13105,394;  294,076;35219,777;36,68163
 601,02;13028,754;  334,079;35207,156;36,40251
 601,60;13010,567;  327,151;35108,636;36,46600
 602,18;12935,725;  301,846;35161,284;36,24235
 602,75;12885,365;  303,072;35169,082;36,08756
 603,33;12853,383;  319,229;35224,113;35,90946
 603,91;12773,261;  313,001;35227,234;35,68820
 604,49;12737,179;  330,229;35311,501;35,46741
 605,07;12680,309;  326,074;35312,786;35,31122
 605,65;12647,123;  353,384;35453,683;35,02460
 606,23;12644,999;  395,147;35653,718;34,74291
 606,80;12586,248;  462,303;35590,688;34,51324
 607,38;12522,987;  492,693;35651,676;34,21684
 607,96;12514,148;  550,149;35737,319;34,00103
 608,54;12372,006;  623,230;35673,519;33,51977
 609,12;12329,462;  603,611;35783,818;33,33082
 609,70;12318,076;  649,229;35832,813;33,16560
 610,27;12236,325;  652,149;35920,081;32,84620
 610,85;12239,029;  664,305;35938,074;32,81397
 611,43;12117,263;  661,921;35914,162;32,49536
 612,01;11986,138;  632,996;35657,077;32,41525
 612,59;11939,902;  630,306;35736,539;32,21535
 613,16;11844,685;  593,917;35683,581;32,06291
 613,74;11726,136;  564,460;35521,319;31,92986
 614,32;11701,551;  528,153;35566,018;31,88949
 614,90;11602,048;  470,459;35343,594;31,92024
 615,48;11413,134;  428,610;35089,336;31,69156
 616,05;11395,782;  397,224;35099,324;31,69421
 616,63;11257,892;  402,454;34784,311;31,57316
 617,21;11123,535;  402,764;34824,960;31,14494
 617,79;11077,506;  378,919;34725,299;31,14910
 618,36;11010,730;  389,997;34671,700;30,98076
 618,94;10789,859;  333,764;34370,147;30,72035
 619,52;10699,621;  353,839;34089,679;30,66704
 620,10;10587,639;  342,611;34056,956;30,38774
 620,67;10515,183;  344,762;33898,672;30,31069
 621,25;10412,623;  370,689;33852,516;29,99219
 621,83;10336,187;  345,764;33770,420;29,88938
 622,41;10301,294;  389,610;33837,758;29,63298
 622,98;10156,638;  363,454;33668,096;29,40486
 623,56;10070,637;  353,377;33540,488;29,28022
 624,14;10023,801;  325,536;33369,870;29,34925
 624,72; 9953,107;  345,533;33240,633;29,20670
 625,29; 9883,390;  315,916;33394,233;28,92370
 625,87; 9811,777;  365,150;33393,232;28,60180
 626,45; 9724,574;  315,684;33170,425;28,63784
 627,02; 9673,653;  332,842;33123,946;28,48581
 627,60; 9573,755;  312,460;33135,253;28,21605
 628,18; 9538,000;  302,995;33174,356;28,09438
 628,76; 9487,073;  302,993;33091,623;28,00995
 629,33; 9492,284;  324,379;33200,941;27,88584
 629,91; 9446,178;  321,918;33119,956;27,81953
 630,49; 9437,297;  334,686;33238,877;27,66399
 631,06; 9404,758;  324,839;33363,193;27,48296
 631,64; 9351,932;  331,377;33310,413;27,35239
 632,22; 9292,179;  294,684;33229,231;27,31932
 632,79; 9307,700;  313,607;33484,975;27,11403
 633,37; 9305,797;  295,227;33515,567;27,12365
 633,95; 9297,356;  298,607;33615,584;27,00950
 634,52; 9239,776;  283,533;33701,571;26,80062
 635,10; 9239,586;  292,764;33721,334;26,76400
 635,68; 9227,429;  286,068;33895,120;26,60403
 636,25; 9216,820;  269,528;33825,119;26,66409
 636,83; 9183,765;  269,993;34157,007;26,30439
 637,41; 9184,135;  273,068;34157,441;26,29846
 637,98; 9173,355;  305,837;34289,462;26,09350
 638,56; 9147,636;  302,143;34357,566;25,97381
 639,13; 9121,149;  275,300;34443,400;25,88920
 639,71; 9156,397;  325,147;34583,409;25,77845
 640,29; 8962,027;  257,070;34377,977;25,51209
 640,86; 9002,990;  265,378;34505,459;25,51866
 641,44; 8943,799;  279,917;34433,864;25,36715
 642,02; 8962,685;  294,455;34588,884;25,27591
 642,59; 8939,109;  276,840;34663,058;25,19111
 643,17; 8892,457;  268,532;34715,540;25,03534
 643,74; 8830,650;  270,071;34605,329;24,93233
 644,32; 8811,152;  292,763;34656,350;24,78900
 644,89; 8730,115;  282,994;34640,985;24,58561
 645,47; 8694,078;  302,994;34616,005;24,45452
 646,05; 8690,425;  293,610;34608,026;24,47023
 646,62; 8647,696;  283,840;34572,969;24,39215
 647,20; 8573,659;  281,994;34689,451;24,09845
 647,77; 8506,776;  259,148;34582,548;24,02917
 648,35; 8425,277;  254,610;34426,953;23,91018
 648,92; 8452,548;  289,764;34584,434;23,80190
 649,50; 8377,049;  244,687;34387,685;23,81854
 650,08; 8343,243;  257,225;34360,244;23,71056
 650,65; 8304,514;  260,379;34672,110;23,37614
 651,23; 8428,169;  245,149;35465,054;23,23408
 651,80; 8592,670;  253,841;36224,920;23,18204
 652,38; 8680,018;  262,149;36596,940;23,16752
 652,95; 8686,981;  237,918;36848,499;23,07820
 653,53; 8679,790;  256,611;37080,519;22,87421
 654,10; 8702,522;  292,380;37233,693;22,76622
 654,68; 8619,639;  246,995;37266,483;22,61685
 655,25; 8583,987;  243,380;37201,272;22,56786
 655,83; 8570,334;  242,842;37430,369;22,39324
 656,40; 8570,066;  269,534;37324,466;22,40061
 656,98; 8533,183;  258,611;37258,641;22,36369
 657,55; 8478,300;  260,073;37055,353;22,33500
 658,13; 8332,340;  248,996;36718,219;22,16484
 658,70; 8268,610;  269,688;36423,778;22,12453
 659,28; 8057,958;  255,073;35604,183;22,07378
 659,85; 7879,921;  265,227;34891,895;21,99084
 660,43; 7894,499;  273,304;34953,839;21,97543
 661,00; 7875,385;  243,150;35105,090;21,89274
 661,58; 7908,194;  247,227;35396,956;21,79524
 662,15; 7910,773;  244,381;35524,746;21,72991
 662,73; 7977,505;  310,073;35886,997;21,55170
 663,30; 7975,006;  251,766;36023,017;21,59064
 663,88; 7969,816;  257,150;36221,268;21,44545
 664,45; 8016,394;  259,304;36345,750;21,49585
 665,03; 8076,741;  247,535;36732,462;21,45874
 665,60; 8175,858;  326,228;37169,790;21,30530
 666,17; 8103,360;  257,459;37191,272;21,24314
 666,75; 8131,169;  252,151;37496,523;21,15492
 667,32; 8186,209;  279,766;37793,389;21,07619
 667,90; 8227,556;  266,997;37992,563;21,10123
 668,47; 8231,135;  271,305;38275,968;20,94435
 669,05; 8297,098;  254,613;38491,373;21,03338
 669,62; 8303,061;  241,305;38653,008;20,98776
 670,19; 8284,716;  241,767;38690,567;20,91860
 670,77; 8360,371;  255,382;38869,587;20,98966
 671,34; 8306,257;  251,305;38826,454;20,88119
 671,92; 8330,912;  238,152;39184,243;20,77939
 672,49; 8306,645;  272,459;39123,802;20,67930
 673,06; 8303,223;  212,767;39219,361;20,74125
 673,64; 8328,724;  223,844;39275,227;20,75440
 674,21; 8279,841;  235,614;39186,401;20,65228
 674,79; 8339,035;  263,306;39349,267;20,66146
 675,36; 8351,613;  276,537;39505,595;20,58443
 675,93; 8269,345;  227,229;39329,231;20,56702
 676,51; 8337,385;  265,306;39550,559;20,54735
 677,08; 8322,117;  256,383;39663,502;20,46771
 677,65; 8324,465;  243,383;39751,830;20,45406
 678,23; 8347,966;  251,614;40022,850;20,35731
 678,80; 8357,160;  253,153;40032,409;20,37245
 679,38; 8345,815;  245,307;40115,352;20,31728
 679,95; 8415,855;  257,153;40459,911;20,29389
 680,52; 8407,511;  239,153;40731,393;20,17265
 681,10; 8531,243;  255,691;41077,028;20,27261
 681,67; 8580,283;  263,845;41356,279;20,23837
 682,24; 8564,246;  231,768;41411,915;20,23421
 682,82; 8623,824;  234,384;41947,858;20,11206
 683,39; 8765,479;  276,999;42202,032;20,24681
 683,96; 8728,904;  254,846;42377,822;20,11742
 684,54; 8792,636;  230,769;42724,457;20,14856
 685,11; 8854,830;  273,000;43057,862;20,05810
 685,68; 8971,793;  248,461;43332,651;20,24717
 686,25; 8948,909;  238,538;43518,364;20,12571
 686,83; 8989,642;  239,231;43610,846;20,17543
 687,40; 9013,451;  232,154;43866,097;20,12492
 687,97; 9137,875;  268,154;44327,425;20,13134
 688,55; 9045,992;  218,154;44330,599;20,01213
 689,12; 9096,955;  212,385;44561,619;20,03320
 689,69; 9184,764;  220,846;44695,101;20,15530
 690,26; 9149,650;  234,847;44697,121;20,05026
 690,84; 9233,536;  234,385;44863,680;20,16422
 691,41; 9207,038;  261,462;44960,084;20,01309
 691,98; 9289,924;  249,693;45226,028;20,09997
 692,56; 9345,810;  237,616;45337,356;20,19567
 693,13; 9420,080;  302,539;45392,145;20,22094
 693,70; 9377,889;  262,462;45500,165;20,15007
 694,27; 9376,083;  232,770;45653,570;20,13023
 694,84; 9441,738;  232,232;45790,744;20,21468
 695,42; 9500,471;  289,078;45798,995;20,24041
 695,99; 9516,280;  248,924;46022,169;20,24623
 696,56; 9504,012;  250,694;45882,420;20,27826
 697,13; 9624,129;  259,232;46260,748;20,35780
 697,71; 9646,476;  224,848;46288,538;20,45348
 698,28; 9705,670;  250,155;46692,866;20,35952
 698,85; 9710,248;  206,463;46700,193;20,44100
 699,42; 9760,288;  219,232;46809,829;20,47850
 699,99; 9812,328;  257,156;46980,234;20,45065
 700,57; 9878,060;  249,386;46888,100;20,64524
 701,14; 9898,177;  239,002;47039,813;20,63891
 701,71; 9966,063;  253,848;47261,679;20,66084
 702,28; 9957,565;  244,002;47341,930;20,62418
 702,85; 9970,297;  253,079;47365,643;20,62553
 703,43;10011,490;  268,079;47528,201;20,61656
 704,00;10109,607;  279,002;47766,606;20,70141
 704,57;10100,032;  263,079;47766,011;20,70810
 705,14;10175,379;  282,541;48108,570;20,68505
 705,71;10191,342;  286,233;48083,667;20,72310
 706,28;10190,382;  261,772;47955,379;20,81749
 706,86;10216,037;  302,464;48164,630;20,71275
 707,43;10251,077;  306,234;48130,958;20,79436
 708,00;10279,348;  294,695;48135,440;20,87060
 708,57;10244,619;  260,541;48105,614;20,86751
 709,14;10254,966;  288,849;48148,327;20,82371
 709,71;10346,929;  269,926;48357,424;20,95556
 710,28;10372,661;  272,926;48525,521;20,93097
 710,86;10451,778;  266,926;48618,772;21,06404
 711,43;10520,664;  290,234;48594,177;21,17929
 712,00;10482,473;  267,850;48651,812;21,11159
 712,57;10564,975;  287,542;48726,140;21,21744
 713,14;10627,938;  257,619;48840,468;21,34564
 713,71;10598,285;  269,542;48676,950;21,33711
 714,28;10653,787;  265,081;48751,893;21,42584
 714,85;10657,673;  241,004;48550,683;21,56228
 715,42;10730,713;  258,312;48729,241;21,60553
 716,00;10834,752;  311,081;48896,646;21,66008
 716,57;10782,408;  250,466;49013,513;21,59820
 717,14;10832,063;  233,158;48930,994;21,76463
 717,71;10845,872;  227,158;49031,553;21,75770
 718,28;10985,527;  268,389;49097,727;21,94815
 718,85;10906,106;  238,158;49183,055;21,79583
 719,42;11060,069;  260,928;49361,075;21,99411
 719,99;11048,339;  244,851;49265,019;22,03886
 720,56;11095,687;  256,389;49440,346;22,03828
 721,13;11140,650;  248,159;49581,828;22,07922
 721,70;11174,382;  232,390;49450,002;22,23186
 722,27;11225,114;  257,467;49351,330;22,34016
 722,84;11312,000;  293,697;49525,504;22,38046
 723,41;11268,271;  241,082;49513,524;22,38003
 723,98;11338,388;  260,698;49721,468;22,39692
 724,55;11410,889;  266,390;49713,411;22,53826
 725,12;11397,314;  203,313;49721,354;22,60590
 725,69;11557,200;  239,621;49901,605;22,78922
 726,27;11546,932;  256,390;49959,779;22,71584
 726,84;11624,203;  263,775;50291,261;22,70837
 727,41;11725,704;  256,390;50250,743;22,94122
 727,98;11801,282;  265,929;50505,840;22,96054
 728,55;11896,399;  289,314;50426,399;23,15070
 729,12;11914,747;  228,006;50565,957;23,21656
 729,69;11994,248;  274,929;50800,824;23,19468
 730,26;12058,596;  268,622;50876,998;23,29649
 730,82;12078,712;  256,929;50642,403;23,46268
 731,39;12127,137;  255,852;50879,115;23,45026
 731,96;12250,023;  238,468;51237,597;23,55247
 732,53;12417,832;  272,237;51323,463;23,79100
 733,10;12435,026;  278,314;51434,330;23,76399
 733,67;12494,296;  258,545;51656,504;23,80591
 734,24;12486,644;  243,622;51308,986;23,97520
 734,81;12567,838;  269,930;51450,467;24,02849
 735,38;12519,416;  263,468;51176,949;24,07211
 735,95;12543,610;  246,776;51183,662;24,14131
 736,52;12647,265;  268,545;51265,605;24,27340
 737,09;12568,997;  267,853;50929,471;24,28099
 737,66;12737,576;  303,392;51058,261;24,49850
 738,23;12781,000;  277,007;51168,973;24,56968
 738,80;12887,732;  311,469;51444,993;24,59495
 739,37;12937,157;  288,238;51629,552;24,63692
 739,94;12985,504;  272,084;51594,419;24,77171
 740,51;13102,237;  351,469;51751,593;24,80688
 741,07;13099,892;  265,777;51608,305;24,99705
 741,64;13219,778;  280,777;51832,633;25,09900
 742,21;13293,049;  258,469;51879,115;25,25071
 742,78;13271,781;  236,162;51746,520;25,30679
 743,35;13372,590;  251,470;51908,155;25,40062
 743,92;13498,245;  300,393;52145,329;25,45640
 744,49;13485,516;  272,700;52005,119;25,54069
 745,06;13523,017;  252,624;51929,370;25,67962
 745,63;13512,672;  238,854;51907,159;25,69045
 746,19;13670,097;  252,162;51980,949;25,93901
 746,76;13665,983;  265,932;51939,353;25,93219
 747,33;13688,561;  264,778;51974,835;25,95971
 747,90;13878,832;  273,778;52208,009;26,19670
 748,47;13899,256;  271,701;52144,183;26,27126
 749,04;13894,450;  271,470;52129,819;26,26960
 749,61;13989,336;  291,086;52025,916;26,47781
 750,17;14097,530;  286,240;52168,859;26,62026
 750,74;14091,724;  271,932;52000,957;26,71574
 751,31;14078,994;  252,163;51940,592;26,75034
 751,88;14150,265;  237,855;51827,074;26,96767
 752,45;14265,151;  259,932;52112,556;27,00966
 753,02;14228,037;  271,009;51839,345;27,06511
 753,58;14323,154;  247,625;51722,519;27,34445
 754,15;14418,348;  258,163;51863,309;27,43948
 754,72;14365,157;  239,548;51584,713;27,51108
 755,29;14428,504;  246,471;51476,426;27,68309
 755,86;14511,390;  262,779;51546,908;27,78367
 756,42;14662,661;  262,318;51534,928;28,08584
 756,99;14550,855;  220,471;51381,717;28,01023
 757,56;14667,510;  241,087;51421,661;28,18730
 758,13;14667,165;  198,702;51274,373;28,32750
 758,70;14858,359;  228,010;51322,778;28,63375
 759,26;14896,553;  222,318;51420,568;28,66159
 759,83;14930,669;  232,164;51531,126;28,65264
 760,40;14964,709;  217,549;51386,454;28,82055
 760,97;15048,134;  197,703;51441,244;28,98010
 761,53;15017,943;  186,164;51057,187;29,15565
 762,10;15057,752;  186,780;51068,976;29,22628
 762,67;15155,177;  223,857;51064,766;29,36871
 763,24;15059,370;  184,549;50673,940;29,46128
 763,80;15204,949;  216,703;50865,422;29,59255
 764,37;15151,065;  221,549;50747,211;29,54838
 764,94;15129,105;  202,088;50275,770;29,81011
 765,50;15135,914;  206,934;50332,405;29,78322
 766,07;15297,108;  251,396;50402,426;30,00080
 766,64;15240,610;  211,396;50035,061;30,16481
 767,21;15277,880;  214,627;50003,466;30,25428
 767,77;15368,536;  236,473;49955,025;30,43545
 768,34;15333,883;  243,473;49880,968;30,40123
 768,91;15380,000;  255,627;49750,142;30,55767
 769,47;15430,501;  249,781;49773,162;30,65364
 770,04;15430,541;  244,243;49757,952;30,67090
 770,61;15489,966;  229,704;49299,203;31,09928
 771,18;15437,236;  224,704;49269,531;31,01761
 771,74;15563,507;  242,089;49485,474;31,11366
 772,31;15509,008;  245,089;49168,648;31,19953
 772,88;15544,279;  219,474;49048,130;31,38486
 773,44;15595,319;  223,320;48829,073;31,62588
 774,01;15641,436;  236,397;48924,247;31,64042
 774,58;15622,245;  222,705;48550,190;31,86497
 775,14;15719,439;  215,474;48706,211;31,97304
 775,71;15751,940;  226,782;48668,000;32,04948
 776,27;15773,057;  270,628;48617,328;32,06512
 776,84;15876,481;  292,090;48585,271;32,27038
 777,41;15870,598;  242,090;48367,830;32,47432
 777,97;15779,638;  234,321;48133,389;32,45432
 778,54;15884,832;  236,552;48140,178;32,66617
 779,11;15925,949;  264,013;48163,583;32,69744
 779,67;15936,835;  233,475;48114,988;32,79629
 780,24;16035,028;  244,244;47944,931;33,10389
 780,80;16010,684;  261,706;47863,105;33,08512
 781,37;16070,570;  251,090;47772,895;33,28889
 781,94;16034,840;  239,398;47618,299;33,33856
 782,50;16072,265;  255,629;47480,012;33,49252
 783,07;16076,920;  276,475;47663,263;33,34357
 783,63;16134,729;  222,706;47381,129;33,74163
 784,20;16138,923;  262,398;47373,457;33,70021
 784,77;16082,040;  251,168;47123,939;33,77413
 785,33;16116,156;  214,860;46988,113;33,99656
 785,90;16265,504;  236,706;47031,210;34,25359
 786,46;16229,929;  255,707;46798,846;34,32132
 787,03;16234,353;  228,553;46779,251;34,38359
 787,59;16306,162;  231,322;46570,886;34,68923
 788,16;16357,433;  246,322;46619,291;34,74246
 788,73;16431,550;  259,091;46442,004;35,01827
 789,29;16387,897;  252,553;46130,793;35,16993
 789,86;16393,937;  255,707;46001,659;35,27794
 790,42;16452,900;  253,476;45925,526;35,46901
 790,99;16332,786;  255,784;45600,931;35,45474
 791,55;16368,057;  238,476;45557,258;35,59138
 792,12;16516,635;  254,323;45499,663;35,94251
 792,68;16455,290;  247,323;45235,991;36,02678
 793,25;16486,253;  262,861;44989,011;36,27272
 793,81;16473,062;  299,246;44741,032;36,39326
 794,38;16357,256;  228,015;44555,052;36,38691
 794,94;16405,911;  233,708;44329,457;36,67520
 795,51;16394,028;  252,554;44151,477;36,76964
 796,07;16267,530;  241,093;43886,036;36,72003
 796,64;16410,108;  255,785;43947,364;36,97354
 797,20;16322,994;  240,939;43487,615;37,18680
 797,77;16253,880;  225,939;43314,327;37,19782
 798,33;16227,304;  235,324;43127,963;37,28374
 798,90;16283,191;  264,939;42981,214;37,49918
 799,46;16199,461;  252,401;42522,772;37,72633
 800,03;16272,193;  250,708;42570,485;37,85815
 800,59;16146,541;  264,247;42334,890;37,75149
 801,15;16164,350;  259,709;42172,064;37,94738
 801,72;16079,775;  258,709;41768,699;38,11387
 802,28;16060,045;  272,247;41590,027;38,21066
 802,85;16002,854;  248,324;41492,047;38,19861
 803,41;15966,971;  249,940;41365,375;38,22660
 803,98;15954,319;  245,632;40917,857;38,62264
 804,54;15854,666;  249,863;40654,800;38,62103
 805,11;15885,552;  245,478;40385,513;38,96378
 805,67;15902,438;  271,402;40373,687;38,97792
 806,23;15801,555;  250,863;39949,246;39,17210
 806,80;15838,287;  270,940;39863,343;39,31903
 807,36;15905,173;  275,863;39837,132;39,50659
 807,93;15849,213;  277,402;39479,229;39,72216
 808,49;15746,792;  243,633;39212,634;39,78331
 809,05;15785,755;  234,479;38990,731;40,12585
 809,62;15787,564;  268,171;38935,829;40,13533
 810,18;15875,834;  269,248;38906,695;40,39238
 810,74;15773,105;  233,325;38588,638;40,51532
 811,31;15774,529;  228,864;38424,351;40,70027
 811,87;15770,954;  244,710;38288,063;40,81197
 812,44;15861,148;  273,633;38373,314;40,91245
 813,00;15805,418;  206,787;38039,181;41,23089
 813,56;15819,997;  253,249;38181,509;41,04261
 814,13;15869,267;  251,480;37965,760;41,41081
 814,69;15863,615;  238,864;37852,780;41,53981
 815,25;15787,655;  218,249;37402,646;41,87080
 815,82;15746,464;  261,326;37384,359;41,71302
 816,38;15848,581;  280,711;37139,917;42,23604
 816,94;15699,928;  240,249;36894,322;42,17725
 817,51;15649,122;  218,865;36704,727;42,29106
 818,07;15644,008;  230,173;36415,901;42,59645
 818,63;15616,279;  254,942;36180,614;42,75866
 819,20;15599,319;  246,480;36215,942;42,68298
 819,76;15496,358;  219,788;35852,269;42,87260
 820,32;15543,398;  270,019;35838,290;42,94102
 820,89;15504,515;  259,250;35614,002;43,12084
 821,45;15411,786;  228,865;35311,484;43,27761
 822,01;15383,210;  259,635;35122,427;43,38028
 822,57;15353,250;  251,866;34968,601;43,49886
 823,14;15303,213;  222,327;34700,083;43,74092
 823,70;15368,022;  230,943;34547,565;44,11005
 824,26;15326,601;  227,866;34396,508;44,18886
 824,82;15331,640;  253,481;34222,990;44,38733
 825,39;15232,911;  232,481;34046,626;44,36141
 825,95;15247,028;  253,251;34014,107;44,41172
 826,51;15209,760;  249,635;33684,589;44,74397
 827,08;15324,723;  283,251;33766,917;44,92182
 827,64;15273,840;  262,020;33493,629;45,17332
 828,20;15128,418;  227,943;33295,342;45,06092
 828,76;15324,150;  259,174;33225,670;45,69784
 829,32;15142,959;  262,867;33137,690;45,26288
 829,89;15156,076;  219,790;32910,787;45,68930
 830,45;15224,962;  234,482;32956,500;45,81160
 831,01;15225,233;  240,636;32782,443;46,04722
 831,57;15280,273;  246,944;32631,925;46,42068
 832,14;15277,928;  232,790;32640,407;46,42470
 832,70;15269,122;  229,482;32405,196;46,74221
 833,26;15250,854;  203,021;32310,601;46,86692
 833,82;15303,509;  237,021;32244,621;47,07160
 834,38;15346,780;  230,637;32262,103;47,19154
 834,95;15351,974;  228,406;32021,738;47,56836
 835,51;15356,937;  209,252;32014,759;47,62598
 836,07;15446,900;  239,252;32037,548;47,82535
 836,63;15515,247;  246,406;32006,568;48,07545
 837,19;15539,826;  232,022;31925,819;48,29905
 837,75;15450,712;  205,175;31619,455;48,53059
 838,32;15597,905;  259,329;31716,398;48,76035
 838,88;15602,791;  244,253;31750,495;48,74760
 839,44;15641,985;  251,945;31666,669;48,98989
 840,00;15614,794;  222,099;31582,459;49,08329
 840,56;15541,065;  219,330;31365,941;49,19230
 841,12;15595,028;  221,253;31319,115;49,43676
 841,68;15568,683;  208,022;31134,366;49,66853
 842,25;15647,031;  221,484;31143,694;49,88501
 842,81;15570,147;  214,792;30940,714;49,97525
 843,37;15622,495;  203,407;30873,965;50,27326
 843,93;15615,766;  230,023;30895,062;50,17356
 844,49;15704,959;  241,176;30817,621;50,57417
 845,05;15607,384;  191,869;30641,333;50,62656
 845,61;15712,962;  236,023;30743,046;50,73238
 846,17;15689,925;  219,407;30596,374;50,92845
 846,73;15752,580;  227,561;30595,932;51,12233
 847,29;15714,313;  206,869;30359,029;51,43062
 847,86;15725,045;  216,638;30319,050;51,51882
 848,42;15782,315;  217,023;30150,147;52,00023
 848,98;15740,201;  227,177;30061,782;51,99675
 849,54;15751,318;  216,408;30169,341;51,86440
 850,10;15828,666;  226,793;29957,669;52,47700
 850,66;15846,552;  215,331;29826,612;52,78806
 851,22;15836,053;  210,485;29781,863;52,84018
 851,78;15912,016;  256,254;29847,268;52,90715
 852,34;15818,979;  231,793;29662,827;52,96174
 852,90;15881,250;  221,024;29433,847;53,60737
 853,46;15839,213;  213,870;29369,406;53,59306
 854,02;15868,330;  235,562;29330,041;53,73104
 854,58;15845,139;  221,178;29076,908;54,14509
 855,14;15809,025;  202,870;29011,774;54,17129
 855,70;15774,295;  188,563;28872,333;54,33642
 856,26;15872,720;  231,255;28706,968;54,92914
 856,82;15838,452;  217,871;28629,527;54,97948
 857,38;15794,800;  232,717;28545,316;54,96522
 857,94;15866,917;  217,332;28447,567;55,43554
 858,50;15814,803;  230,794;28301,511;55,51696
 859,06;15832,535;  227,179;28141,608;55,90426
 859,62;15838,498;  235,563;28086,013;56,02400
 860,18;15780,538;  213,948;27986,956;56,04935
 860,74;15778,193;  192,179;27894,284;56,26292
 861,30;15694,156;  197,333;27648,150;56,45305
 861,86;15830,503;  257,410;27749,786;56,64514
 862,42;15754,389;  225,410;27556,652;56,81769
 862,98;15906,968;  251,025;27538,519;57,37406
 863,54;15784,085;  219,718;27348,924;57,37126
 864,10;15876,971;  214,179;27380,867;57,65440
 864,66;15803,241;  202,410;27150,964;57,89116
 865,22;15780,127;  219,872;27017,446;58,06591
 865,78;15770,706;  227,410;26862,620;58,35620
 866,34;15813,899;  210,180;26878,871;58,50951
 866,90;15808,247;  234,103;26742,660;58,75138
 867,45;15734,902;  228,180;26529,757;58,95739
 868,01;15615,019;  216,334;26471,008;58,65121
 868,57;15612,443;  218,488;26288,105;59,04941
 869,13;15608,099;  207,257;26107,741;59,46160
 869,69;15589,292;  227,180;26073,992;59,43523
 870,25;15584,640;  198,334;25914,166;59,83204
 870,81;15615,988;  219,488;25913,494;59,92253
 871,37;15647,951;  222,103;25892,207;60,09266
 871,93;15556,375;  239,565;25735,996;60,07433
 872,49;15507,877;  245,104;25502,785;60,42824
 873,04;15421,609;  209,104;25358,575;60,48837
 873,60;15411,726;  206,181;25287,364;60,62531
 874,16;15406,458;  232,950;25104,769;61,00683
 874,72;15424,073;  215,488;25067,231;61,19726
 875,28;15355,765;  229,335;25103,385;60,81209
 875,84;15371,919;  226,719;24948,615;61,26229
 876,40;15440,919;  207,796;24922,462;61,63597
 876,95;15390,612;  225,950;24930,846;61,38322
 877,51;15489,150;  245,181;24925,077;61,76675
 878,07;15433,458;  261,950;24869,846;61,65301
 878,63;15480,227;  213,565;24810,769;62,06665
 879,19;15613,381;  237,104;24839,154;62,49998
 879,75;15594,381;  216,565;24854,615;62,41490
 880,30;15600,688;  214,719;24934,077;62,24259
 880,86;15758,996;  257,104;25041,077;62,54805
 881,42;15828,304;  210,258;25074,385;62,81357
 881,98;15847,842;  234,335;25065,231;62,87936
 882,54;15959,458;  211,488;25246,000;62,90504
 883,09;16140,688;  236,181;25284,000;63,49658
 883,65;16141,150;  210,258;25268,769;63,57477
 884,21;16342,535;  242,565;25458,538;63,84830
 884,77;16349,458;  206,181;25488,000;63,85330
 885,32;16538,304;  218,488;25703,385;64,03721
 885,88;16605,535;  252,104;25821,308;63,95753
 886,44;16739,381;  225,488;25889,615;64,34621
 887,00;16835,381;  238,027;25979,154;64,47796
 887,56;16940,919;  221,412;25981,385;64,90499
 888,11;17000,458;  223,412;26086,385;64,86898
 888,67;17156,612;  256,258;26192,538;65,16105
 889,23;17179,535;  226,719;26160,769;65,36895
 889,79;17080,073;  202,104;26091,769;65,19192
 890,34;17175,227;  224,258;26095,769;65,51983
 890,90;17332,150;  283,104;26182,154;65,82885
 891,46;17261,996;  223,719;26152,923;65,71076
 892,01;17413,458;  248,719;26115,308;66,35873
 892,57;17331,919;  255,873;26060,923;66,17327
 893,13;17202,150;  233,642;25861,692;66,21069
 893,69;17325,535;  220,873;25798,000;66,87484
 894,24;17221,535;  230,488;25735,077;66,61957
 894,80;17178,996;  240,950;25538,231;66,95600
 895,36;17192,150;  222,796;25436,769;67,30139
 895,91;17118,765;  223,565;25247,000;67,51751
 896,47;17148,535;  229,027;25147,692;67,89893
 897,03;17052,535;  218,873;25030,692;67,84533
 897,58;16991,996;  234,335;24921,923;67,87889
 898,14;16912,150;  230,873;24745,923;68,04505
 898,70;16889,227;  209,258;24557,846;68,50487
 899,25;16940,227;  227,950;24569,846;68,65643
 899,81;16864,842;  241,412;24388,769;68,84161
 900,37;16847,765;  196,642;24264,385;69,18440
 900,92;16924,073;  234,027;24253,615;69,48515
 901,48;16789,919;  221,104;24082,846;69,43674
 902,03;16760,765;  218,642;23990,692;69,58644
 902,59;16708,535;  215,488;23932,077;69,54224
 903,15;16713,765;  236,950;23759,000;70,04838
 903,70;16577,381;  222,950;23520,769;70,19726
 904,26;16580,612;  217,027;23439,000;70,46595
 904,82;16584,765;  230,565;23476,231;70,35376
 905,37;16518,688;  234,642;23271,923;70,68563
 905,93;16483,688;  217,796;23153,077;70,92083
 906,48;16510,919;  222,104;23146,385;71,05486
 907,04;16519,073;  239,104;23028,769;71,43575
 907,60;16396,688;  218,642;22823,769;71,56804
 908,15;16393,458;  223,950;22778,308;71,69128
 908,71;16387,458;  245,412;22727,385;71,79995
 909,26;16347,535;  218,181;22645,385;71,91870
 909,82;16361,304;  242,719;22468,077;72,52340
 910,37;16308,765;  260,719;22397,538;72,49482
 910,93;16195,996;  212,335;22187,385;72,73550
 911,48;16111,073;  203,412;22062,769;72,77278
 912,04;16161,227;  217,258;22000,154;73,19490
 912,60;16270,612;  227,642;21990,462;73,71733
 913,15;16097,765;  228,335;21811,846;73,52571
 913,71;16044,842;  213,027;21601,692;74,01965
 914,26;16097,842;  201,027;21594,231;74,30778
 914,82;16058,996;  225,873;21515,923;74,36865
 915,37;15996,227;  216,873;21474,077;74,23062
 915,93;16036,842;  258,412;21337,846;74,85225
 916,48;15992,765;  218,104;21185,308;75,23493
 917,04;15943,688;  241,719;21087,923;75,32292
 917,59;15931,073;  254,258;21035,538;75,43720
 918,15;15863,765;  195,181;20857,231;75,83267
 918,70;15838,073;  214,258;20725,923;76,17039
 919,26;15891,227;  228,258;20759,538;76,28832
 919,81;15725,227;  212,335;20535,231;76,33209
 920,37;15766,150;  221,488;20466,462;76,78282
 920,92;15692,458;  235,642;20381,308;76,72527
 921,48;15621,073;  199,181;20238,000;76,96008
 922,03;15611,612;  217,488;20179,538;77,11694
 922,59;15588,150;  207,412;20045,923;77,52970
 923,14;15519,150;  219,335;19965,308;77,48322
 923,69;15560,150;  237,565;19844,462;78,14896
 924,25;15610,535;  232,950;19874,231;78,29217
 924,80;15444,996;  229,873;19695,769;78,16297
 925,36;15396,765;  215,181;19641,000;78,15158
 925,91;15371,996;  220,950;19470,077;78,71030
 926,47;15318,996;  191,796;19447,846;78,55817
 927,02;15359,765;  245,335;19319,538;79,24017
 927,57;15281,765;  216,565;19132,615;79,64242
 928,13;15260,612;  209,335;19102,615;79,66471
 928,68;15287,227;  209,873;19068,077;79,95117
 929,24;15166,304;  186,950;18903,154;80,03415
 929,79;15133,535;  205,181;18749,462;80,50112
 930,34;15009,227;  214,873;18672,923;80,15123
 930,90;15017,688;  205,104;18569,154;80,66077
 931,45;15001,150;  222,258;18575,769;80,52351
 932,01;14955,842;  222,950;18471,923;80,73272
 932,56;14973,073;  227,027;18341,846;81,40322
 933,11;15004,535;  236,565;18302,308;81,74571
 933,67;14834,381;  211,104;18164,385;81,45184
 934,22;14813,688;  228,258;18116,385;81,53694
 934,77;14771,150;  234,950;18054,538;81,57427
 935,33;14733,996;  223,950;17880,462;82,17958
 935,88;14746,304;  234,950;17859,000;82,33836
 936,43;14697,996;  215,488;17766,077;82,51864
 936,99;14666,688;  219,565;17629,154;82,98371
 937,54;14560,381;  203,873;17455,231;83,21958
 938,09;14546,458;  221,642;17464,538;83,07662
 938,65;14440,842;  224,796;17387,231;82,83234
 939,20;14409,535;  197,950;17305,538;83,07182
 939,75;14402,765;  199,719;17178,154;83,65345
 940,31;14287,535;  203,642;17127,308;83,22011
 940,86;14372,919;  222,488;17076,769;83,95749
 941,41;14307,842;  285,258;16921,077;84,29152
 941,96;14232,535;  206,412;16901,692;84,01250
 942,52;14224,842;  209,104;16811,231;84,42134
 943,07;14168,227;  191,181;16720,692;84,55813
 943,62;14145,381;  202,412;16572,846;85,17165
 944,18;14157,612;  186,950;16549,077;85,38414
 944,73;14093,919;  220,488;16471,231;85,37106
 945,28;14016,381;  179,488;16238,462;86,16300
 945,83;13994,919;  203,181;16281,769;85,77705
 946,39;14057,765;  212,565;16275,538;86,19326
 946,94;14003,458;  222,027;16181,077;86,35496
 947,49;13926,458;  199,719;16089,231;86,38867
 948,04;13906,381;  230,027;16042,231;86,49240
 948,59;13919,842;  226,488;15986,846;86,88479
 949,15;13823,996;  202,181;15877,077;86,90211
 949,70;13777,073;  201,027;15815,385;86,94591
 950,25;13803,304;  230,412;15687,615;87,80949
 950,80;13719,150;  187,642;15695,538;87,25560
 951,36;13698,150;  187,258;15531,308;88,05297
 951,91;13697,458;  217,719;15578,462;87,75447
 952,46;13582,304;  187,719;15322,154;88,50403
 953,01;13634,381;  226,027;15402,385;88,35028
 953,56;13515,765;  197,642;15262,846;88,40321
 954,11;13502,919;  214,719;15186,000;88,75794
 954,67;13565,073;  205,181;15120,538;89,57138
 955,22;13381,842;  184,027;14942,923;89,42278
 955,77;13450,612;  226,719;14970,615;89,69062
 956,32;13380,227;  252,412;14885,769;89,71157
 956,87;13270,227;  207,104;14778,769;89,64743
 957,42;13325,535;  198,412;14712,615;90,44329
 957,98;13285,688;  196,335;14608,769;90,81987
 958,53;13281,919;  231,873;14586,385;90,91251
 959,08;13219,458;  194,950;14485,615;91,13997
 959,63;13185,304;  203,412;14371,231;91,62943
 960,18;13149,612;  232,335;14404,154;91,14763
 960,73;13120,612;  208,565;14290,769;91,69052
 961,28;13026,535;  186,412;14175,615;91,78595
 961,83;13046,304;  225,258;14118,308;92,28388
 962,39;12976,150;  190,642;13989,154;92,65860
 962,94;12970,919;  220,488;13965,462;92,76432
 963,49;12870,688;  205,104;13809,231;93,10105
 964,04;12935,150;  224,950;13855,077;93,25078
 964,59;12817,227;  189,258;13704,846;93,43263
 965,14;12797,381;  220,873;13630,077;93,79011
 965,69;12703,150;  206,181;13612,462;93,21727
 966,24;12702,996;  214,181;13478,692;94,15209
 966,79;12632,458;  217,412;13381,923;94,30693
 967,34;12533,381;  193,258;13295,538;94,18302
 967,89;12597,612;  195,488;13286,538;94,73742
 968,44;12479,227;  212,258;13162,538;94,72358
 968,99;12452,304;  214,873;13079,769;95,12265
 969,55;12478,381;  222,719;13075,923;95,35102
 970,10;12325,688;  219,873;12964,923;94,98445
 970,65;12300,842;  229,181;12913,077;95,17313
 971,20;12254,458;  205,873;12780,154;95,81927
 971,75;12163,688;  186,873;12637,308;96,19596
 972,30;12138,073;  209,950;12610,462;96,19057
 972,85;12033,535;  202,027;12480,154;96,36248
 973,40;11974,996;  209,104;12370,154;96,75063
 973,95;11985,073;  211,488;12308,538;97,32608
 974,50;11947,765;  230,027;12304,308;97,04709
 975,05;11851,227;  217,412;12175,462;97,28857
 975,60;11779,996;  227,796;12128,538;97,07126
 976,15;11774,304;  212,873;12036,154;97,78530
 976,70;11679,150;  221,335;11990,692;97,35294
 977,25;11667,381;  221,719;11916,923;97,86629
 977,80;11517,458;  209,181;11752,538;97,96350
 978,35;11448,304;  220,719;11651,000;98,22667
 978,89;11429,304;  200,950;11582,538;98,65366
 979,44;11385,535;  213,488;11540,692;98,63022
 979,99;11225,919;  206,335;11445,462;98,04662
 980,54;11216,073;  229,719;11341,462;98,87157
 981,09;11145,765;  227,412;11285,692;98,73464
 981,64;11021,150;  221,027;11144,692;98,86904
 982,19;11024,535;  249,565;11117,846;99,14143
 982,74;10937,381;  227,335;11010,769;99,31943
 983,29;10786,150;  209,565;10892,615;99,00342
 983,84;10757,919;  217,873;10746,308;100,11029
 984,39;10717,612;  269,488;10738,538;99,80011
 984,94;10576,381;  193,642;10578,846;99,97626
 985,49;10600,304;  243,258;10563,846;100,35325
 986,03;10535,227;  237,796;10448,923;100,84519
 986,58;10415,381;  258,719;10339,462;100,75311
 987,13;10359,535;  225,488;10240,154;101,19206
 987,68;10229,765;  233,950;10120,692;101,10323
 988,23;10210,304;  229,873;10080,846;101,31416
 988,78;10119,688;  217,258;10014,077;101,07802
 989,33;10067,150;  234,488; 9855,846;102,19620
 989,88; 9983,842;  240,565; 9836,462;101,53587
 990,42; 9897,842;  217,027; 9720,077;101,87061
 990,97; 9864,150;  217,181; 9595,385;102,86585
 991,52; 9766,304;  243,642; 9496,231;102,91889
 992,07; 9743,996;  251,258; 9446,846;103,23144
 992,62; 9579,765;  232,412; 9340,538;102,62652
 993,17; 9503,073;  227,258; 9286,154;102,39454
 993,71; 9464,381;  222,642; 9164,231;103,35679
 994,26; 9349,304;  212,873; 9036,000;103,55094
 994,81; 9318,150;  247,412; 9032,231;103,25470
 995,36; 9210,919;  212,335; 8858,462;104,07648
 995,91; 9198,688;  227,642; 8838,538;104,18249
 996,45; 9059,535;  222,104; 8726,308;103,91838
 997,00; 9012,612;  197,873; 8618,154;104,68461
 997,55; 8960,765;  227,027; 8578,385;104,57867
 998,10; 8829,996;  256,258; 8453,692;104,59051
 998,65; 8829,227;  215,335; 8365,462;105,69028
 999,19; 8698,073;  239,565; 8279,154;105,21070
 999,74; 8655,842;  260,719; 8182,769;105,97160
1000,29; 8567,458;  244,950; 8119,923;105,68300
1000,84; 8466,996;  208,642; 7979,538;106,27286
1001,38; 8394,535;  230,335; 7906,308;106,36046
1001,93; 8383,458;  234,950; 7885,692;106,50611
1002,48; 8248,842;  206,642; 7711,000;107,16707
1003,03; 8161,688;  227,104; 7758,846;105,34859
1003,57; 8120,535;  236,565; 7587,385;107,25293
1004,12; 8018,996;  253,258; 7494,077;107,24945
1004,67; 7993,996;  219,642; 7450,769;107,51234
1005,22; 7844,073;  208,488; 7283,692;107,92035
1005,76; 7737,535;  214,258; 7178,538;108,02662
1006,31; 7726,381;  247,642; 7171,385;108,01584
1006,86; 7544,996;  214,412; 6999,231;108,04392
1007,40; 7471,073;  207,950; 6929,077;108,06407
1007,95; 7389,919;  220,565; 6885,231;107,57260
1008,50; 7294,842;  224,796; 6739,231;108,52893
1009,04; 7183,765;  228,104; 6675,154;107,88906
1009,59; 7092,458;  234,565; 6526,692;108,99164
1010,14; 7015,458;  211,335; 6464,846;108,80484
1010,68; 6890,535;  225,258; 6382,769;108,24628
1011,23; 6817,535;  216,027; 6227,000;109,82428
1011,78; 6820,073;  234,258; 6193,154;110,52073
1012,32; 6701,842;  229,258; 6099,769;110,25589
1012,87; 6672,073;  240,565; 6102,615;109,71431
1013,42; 6555,227;  208,027; 5991,615;109,74501
1013,96; 6602,381;  244,104; 5981,846;110,81496
1014,51; 6498,535;  186,104; 5891,692;110,63593
1015,06; 6484,304;  198,873; 5874,615;110,74200
1015,60; 6573,612;  265,104; 5948,077;111,00717
1016,15; 6491,612;  211,950; 5894,385;110,51005
1016,69; 6527,919;  223,565; 5911,231;110,84256
1017,24; 6518,073;  192,027; 5917,769;110,48430
1017,79; 6614,612;  244,335; 5945,154;111,74318
1018,33; 6584,304;  205,642; 5950,231;111,03775
1018,88; 6619,919;  237,258; 6016,692;110,43747
1019,42; 6660,073;  223,335; 5982,154;111,77184
1019,97; 6674,381;  209,027; 5999,923;111,64686
1020,51; 6696,227;  237,104; 6019,000;111,71289
1021,06; 6682,150;  205,642; 6009,077;111,59784
1021,61; 6653,227;  193,335; 5971,846;111,79163
1022,15; 6623,612;  180,027; 5951,077;111,65359
1022,70; 6650,535;  210,335; 5900,308;113,18507
1023,24; 6603,765;  196,796; 5892,077;112,49611
1023,79; 6564,381;  221,181; 5877,769;112,13826
1024,33; 6501,227;  213,488; 5796,000;112,63279
1024,88; 6444,304;  216,796; 5746,000;112,62937
1025,42; 6354,765;  219,104; 5599,000;114,04795
1025,97; 6272,304;  213,565; 5583,692;112,82300
1026,51; 6176,535;  171,642; 5441,615;113,94541
1027,06; 6112,996;  206,488; 5398,154;113,76904
1027,60; 6004,688;  219,719; 5305,231;113,75393
1028,15; 5949,919;  221,796; 5265,846;113,56198
1028,69; 5842,458;  196,642; 5087,615;115,43338
1029,24; 5763,765;  211,488; 5082,692;113,98162
1029,78; 5753,688;  205,104; 4956,077;116,78838
1030,33; 5595,842;  190,950; 4822,923;116,68661
1030,87; 5573,765;  196,104; 4851,308;115,51936
1031,42; 5505,996;  192,488; 4772,308;116,02003
1031,96; 5471,227;  214,719; 4699,462;117,20869
1032,51; 5348,996;  190,719; 4611,308;116,68756
1033,05; 5330,150;  217,642; 4587,923;116,98351
1033,60; 5246,304;  170,104; 4450,769;118,58437
1034,14; 5174,227;  201,181; 4417,846;117,93789
1034,69; 5101,381;  211,412; 4387,154;117,10419
1035,23; 5016,458;  205,104; 4293,692;117,67763
1035,77; 5014,073;  203,412; 4215,231;119,91222
1036,32; 4922,304;  184,642; 4177,923;118,64083
1036,86; 4855,535;  208,104; 4109,231;119,13047
1037,41; 4795,535;  217,873; 4066,077;118,95580
1037,95; 4744,688;  181,565; 4006,538;119,29818
1038,50; 4679,688;  197,873; 3958,462;119,17857
1039,04; 4633,227;  223,335; 3928,769;119,01147
1039,58; 4570,919;  194,412; 3855,000;119,55749
1040,13; 4531,304;  209,642; 3777,846;121,11588
1040,67; 4472,150;  233,027; 3757,846;120,26498
1041,21; 4443,304;  228,027; 3721,077;120,67611
1041,76; 4293,842;  185,258; 3618,154;119,68275
1042,30; 4287,765;  205,181; 3569,077;121,36476
1042,85; 4198,842;  203,027; 3537,769;119,82381
1043,39; 4142,842;  203,335; 3485,077;120,04318
1043,93; 4124,996;  221,719; 3464,923;120,35250
1044,48; 4045,765;  211,796; 3401,615;120,19393
1045,02; 3978,688;  204,796; 3327,538;120,85186
1045,56; 3960,073;  231,181; 3315,231;120,90894
1046,11; 3899,612;  219,181; 3292,769;119,74377
1046,65; 3828,535;  220,642; 3224,077;120,12555
1047,19; 3781,765;  192,488; 3170,231;120,53685
1047,74; 3705,765;  183,258; 3096,385;120,91844
1048,28; 3682,227;  198,873; 3065,615;121,50914
1048,82; 3649,919;  228,488; 3054,846;121,05441
1049,37; 3609,535;  215,642; 2970,923;123,17773
1049,91; 3565,688;  197,488; 2944,385;122,61840
1050,45; 3530,535;  217,104; 2946,077;121,41676
1050,99; 3459,458;  210,488; 2879,077;121,74861
1051,54; 3421,842;  202,950; 2820,846;122,95722
1052,08; 3393,535;  233,258; 2792,231;123,49786
1052,62; 3350,381;  219,488; 2780,231;122,26503
1053,16; 3270,919;  210,027; 2699,538;122,95152
1053,71; 3278,458;  210,796; 2701,154;123,18156
1054,25; 3222,919;  231,488; 2645,462;123,92146
1054,79; 3172,842;  219,873; 2617,231;123,17600
1055,33; 3107,381;  190,642; 2513,769;125,55226
1055,88; 3126,073;  221,873; 2539,154;125,32793
1056,42; 3078,381;  226,412; 2507,154;125,04566
1056,96; 3045,458;  221,258; 2475,615;125,27737
1057,50; 2978,381;  215,565; 2434,846;124,49148
1058,05; 2958,073;  215,335; 2397,231;125,70435
1058,59; 2898,688;  240,412; 2335,538;126,87904
1059,13; 2840,996;  200,642; 2290,923;126,31575
1059,67; 2834,688;  226,181; 2308,615;125,26241
1060,21; 2791,150;  214,335; 2240,231;127,19385
1060,76; 2754,535;  223,796; 2227,769;126,28605
1061,30; 2709,535;  234,488; 2208,462;125,38399
1061,84; 2679,996;  215,181; 2163,615;126,50234
1062,38; 2608,535;  197,950; 2118,538;125,51281
1062,92; 2656,150;  251,565; 2124,538;128,38330
1063,46; 2577,919;  237,104; 2083,308;126,79073
1064,01; 2506,765;  209,027; 2045,154;125,14050
1064,55; 2502,996;  227,873; 2009,231;127,71849
1065,09; 2455,612;  197,642; 1970,769;127,34391
1065,63; 2449,612;  247,027; 1987,154;126,57609
1066,17; 2406,765;  237,027; 1958,231;126,05935
1066,71; 2404,304;  239,181; 1928,077;128,19753
1067,25; 2356,381;  213,950; 1876,692;128,84924
1067,80; 2344,765;  232,796; 1891,615;127,31762
1068,34; 2334,381;  241,873; 1867,692;128,70482
1068,88; 2249,227;  223,488; 1805,769;128,02649
1069,42; 2270,073;  244,104; 1836,538;127,22464
1069,96; 2200,688;  203,796; 1778,462;126,81376
1070,50; 2225,612;  252,950; 1790,154;128,32791
1071,04; 2182,535;  208,258; 1720,000;130,59613
1071,58; 2134,996;  222,027; 1711,923;128,39615
1072,12; 2104,996;  213,258; 1714,462;126,01476
1072,66; 2105,919;  218,181; 1674,462;129,62737
1073,21; 2097,688;  232,719; 1692,231;127,78037
1073,75; 2074,458;  225,104; 1652,077;129,59977
1074,29; 2049,458;  239,335; 1613,615;131,71421
1074,83; 2022,996;  247,181; 1623,385;129,03723
1075,37; 2019,688;  239,873; 1593,000;131,53351
1075,91; 1999,688;  238,719; 1559,462;133,33178
1076,45; 1974,765;  225,950; 1549,846;132,09611
1076,99; 1933,304;  232,950; 1527,077;131,39004
1077,53; 1900,612;  211,796; 1491,769;131,94148
1078,07; 1904,919;  232,488; 1502,769;131,65836
1078,61; 1864,612;  218,719; 1458,769;132,72790
1079,15; 1826,996;  222,873; 1460,692;129,59268
1079,69; 1825,765;  238,796; 1427,769;133,47394
1080,23; 1831,996;  245,258; 1426,923;134,27985
1080,77; 1823,381;  270,565; 1448,077;131,87263
1081,31; 1759,842;  218,027; 1377,000;133,03289
1081,85; 1784,227;  236,950; 1402,846;132,71138
1082,39; 1735,535;  232,181; 1352,154;134,23125
1082,93; 1728,688;  233,488; 1352,615;133,60415
1083,47; 1673,612;  211,104; 1306,000;133,57501
1084,01; 1714,842;  243,488; 1335,154;134,78066
1084,55; 1666,688;  218,027; 1301,615;133,69112
1085,09; 1665,227;  232,642; 1288,692;135,65500
1085,63; 1606,458;  224,104; 1279,846;130,93667
1086,17; 1609,458;  227,565; 1238,000;136,76217
1086,71; 1582,304;  218,565; 1226,769;135,26416
1087,24; 1588,688;  249,488; 1243,615;134,71117
1087,78; 1570,612;  227,796; 1227,000;134,38853
1088,32; 1514,612;  215,642; 1171,615;135,87927
1088,86; 1552,304;  247,181; 1195,846;137,57465
1089,40; 1519,304;  229,181; 1187,923;134,56411
1089,94; 1474,073;  205,565; 1135,000;136,48165
1090,48; 1471,842;  227,104; 1167,615;132,34696
1091,02; 1449,227;  242,873; 1144,538;133,79174
1091,56; 1458,765;  223,642; 1136,154;135,35424
1092,10; 1412,688;  213,104; 1098,846;135,43269
1092,63; 1422,612;  245,181; 1131,308;132,87383
1093,17; 1410,150;  237,181; 1092,231;137,18136
1093,71; 1365,535;  228,719; 1072,923;134,66124
1094,25; 1377,612;  243,719; 1082,308;135,21439
1094,79; 1351,227;  227,719; 1049,077;136,78665
1095,33; 1332,688;  230,258; 1032,000;137,50438
1095,87; 1319,381;  229,565; 1010,462;139,55958
1096,40; 1277,304;  212,950; 1001,538;134,96949
1096,94; 1283,688;  237,181; 1012,615;134,95757
1097,48; 1267,535;  228,873;  996,615;135,28778
1098,02; 1253,919;  221,027;  976,769;136,67255
1098,56; 1212,535;  194,488;  948,462;135,02421
1099,10; 1195,381;  199,181;  928,154;136,65800
1099,63; 1175,842;  203,719;  937,538;132,47446
1100,17; 1195,612;  232,873;  944,154;135,35280
1100,71; 1201,842;  248,258;  936,615;138,53039

