
Integration time [ms]: 120,000
Averaging Nr. [scans]: 13
Smoothing Nr. [pixels]: 0
Data measured with spectrometer [name]: 2009305U1
Wave   ;Sample   ;Dark     ;Reference;Reflectance
[nm]   ;[counts] ;[counts] ;[counts] ;[%]

 175,72;  200,771;  188,260;  191,032;451,33121
 176,32;  225,864;  224,410;  220,873; 0,00000
 176,92;  236,911;  232,797;  240,423;53,94551
 177,52;  246,354;  239,797;  253,164;49,05067
 178,12;  238,182;  226,102;  208,578; 0,00000
 178,72;  256,855;  255,947;  239,478; 0,00000
 179,32;  237,234;  240,102;  239,368; 0,00000
 179,92;  247,190;  233,873;  234,772; 0,00000
 180,52;  238,936;  231,570;  253,930;32,94405
 181,12;  249,564;  244,488;  238,404; 0,00000
 181,73;  272,012;  262,027;  251,328; 0,00000
 182,33;  337,894;  322,568;  321,283; 0,00000
 182,93;  267,679;  258,259;  259,299;905,68382
 183,53;  227,678;  241,408;  225,007; 0,00000
 184,13;  227,272;  230,793;  223,348; 0,00000
 184,73;  267,220;  261,100;  267,377;97,49657
 185,33;  267,246;  229,461;  330,588;37,36384
 185,93;  267,572;  233,150;  351,317;29,12965
 186,53;  280,667;  243,690;  377,755;27,58109
 187,13;  321,117;  267,616;  401,255;40,03376
 187,73;  280,079;  225,381;  357,645;41,35521
 188,33;  286,925;  231,764;  359,112;43,31508
 188,93;  293,000;  240,452;  371,007;40,24972
 189,53;  311,904;  237,678;  366,423;57,65343
 190,13;  344,196;  265,826;  401,940;57,57653
 190,73;  288,352;  214,522;  345,202;56,49646
 191,34;  316,272;  252,219;  374,280;52,47593
 191,94;  299,099;  231,686;  356,499;54,01141
 192,54;  297,398;  233,926;  381,714;42,94791
 193,14;  300,728;  255,847;  373,580;38,12130
 193,74;  285,918;  243,385;  375,282;32,24749
 194,34;  283,855;  240,155;  375,352;32,32319
 194,94;  251,746;  215,155;  344,253;28,34354
 195,54;  237,933;  171,538;  318,943;45,04259
 196,14;  268,029;  217,541;  352,884;37,30421
 196,74;  252,037;  216,229;  339,632;29,01655
 197,34;  236,741;  187,081;  333,058;34,01898
 197,94;  258,437;  208,309;  357,667;33,56212
 198,54;  271,399;  230,464;  369,533;29,43527
 199,14;  251,547;  202,467;  365,217;30,15681
 199,74;  246,760;  188,851;  355,466;34,75608
 200,34;  240,407;  190,236;  375,136;27,13386
 200,94;  271,467;  230,311;  409,207;23,00539
 201,54;  260,690;  202,158;  419,775;26,89663
 202,14;  286,821;  240,776;  448,835;22,13100
 202,74;  269,289;  208,236;  445,607;25,72060
 203,34;  259,894;  187,546;  478,231;24,88886
 203,94;  234,041;  165,391;  477,928;21,96538
 204,54;  304,074;  230,771;  557,401;22,44225
 205,14;  278,224;  189,159;  568,328;23,48967
 205,74;  328,237;  231,777;  642,194;23,50300
 206,34;  311,208;  191,545;  673,542;24,82663
 206,94;  308,887;  210,237;  710,931;19,70275
 207,54;  295,814;  174,621;  749,837;21,06913
 208,14;  323,292;  194,006;  823,309;20,54427
 208,74;  341,369;  206,236;  906,545;19,29618
 209,34;  342,832;  198,851;  975,821;18,53101
 209,94;  372,852;  205,159; 1073,894;19,30311
 210,54;  386,628;  203,468; 1163,194;19,08460
 211,14;  396,118;  206,082; 1275,318;17,77304
 211,73;  408,284;  203,697; 1392,580;17,20833
 212,33;  428,715;  217,773; 1454,727;17,05338
 212,93;  461,711;  192,620; 1576,969;19,43811
 213,53;  423,659;  170,928; 1611,410;17,54488
 214,13;  474,978;  188,855; 1679,996;19,18822
 214,73;  471,667;  176,468; 1722,219;19,09747
 215,33;  454,929;  159,390; 1733,894;18,77029
 215,93;  504,396;  190,777; 1870,147;18,67484
 216,53;  489,886;  149,928; 1930,504;19,09257
 217,13;  581,519;  208,392; 2155,785;19,16035
 217,73;  603,438;  185,854; 2334,646;19,43345
 218,33;  636,749;  145,701; 2528,040;20,61199
 218,93;  713,033;  178,320; 2794,897;20,43560
 219,53;  800,885;  175,009; 3069,444;21,62343
 220,13;  823,953;  154,702; 3320,505;21,14000
 220,73;  936,125;  177,390; 3675,855;21,68765
 221,32; 1019,292;  181,005; 4080,007;21,50004
 221,92; 1130,452;  179,471; 4448,636;22,27557
 222,52; 1205,986;  166,469; 4854,044;22,17601
 223,12; 1302,010;  166,008; 5197,330;22,57861
 223,72; 1442,762;  191,469; 5620,888;23,04653
 224,32; 1557,893;  185,008; 5935,261;23,87521
 224,92; 1589,402;  173,239; 6231,405;23,37610
 225,52; 1715,947;  192,390; 6568,027;23,89653
 226,12; 1788,829;  183,545; 6855,570;24,05992
 226,72; 1849,453;  164,084; 7133,076;24,18383
 227,31; 1966,577;  155,930; 7458,375;24,79508
 227,91; 2069,712;  186,544; 7817,044;24,67948
 228,51; 2200,302;  175,927; 8164,301;25,34152
 229,11; 2272,597;  166,468; 8499,371;25,27485
 229,71; 2400,469;  173,082; 8828,865;25,73293
 230,31; 2478,393;  159,547; 9191,543;25,67367
 230,91; 2561,183;  161,464; 9447,266;25,84288
 231,51; 2653,793;  151,854; 9776,021;25,99642
 232,10; 2798,163;  151,701;10112,665;26,56833
 232,70; 2830,470;  189,386;10284,967;26,16080
 233,30; 2949,603;  184,930;10562,860;26,63992
 233,90; 3006,496;  161,930;10634,082;27,16315
 234,50; 3047,471;  177,931;10782,132;27,06041
 235,10; 3085,786;  176,700;10893,482;27,14515
 235,70; 3123,560;  179,467;10947,597;27,34080
 236,29; 3166,774;  174,774;10875,157;27,96161
 236,89; 3102,868;  163,311;10803,451;27,62705
 237,49; 3125,815;  182,468;10763,065;27,81834
 238,09; 3054,055;  165,468;10595,465;27,69499
 238,69; 3034,320;  191,925;10346,595;27,99101
 239,29; 2913,219;  166,006;10067,372;27,74580
 239,89; 2817,359;  169,388; 9849,922;27,35356
 240,48; 2719,410;  175,468; 9436,456;27,46944
 241,08; 2597,934;  160,160; 9185,460;27,01046
 241,68; 2516,496;  192,391; 8843,392;26,86516
 242,28; 2377,747;  158,007; 8565,309;26,40253
 242,88; 2305,345;  209,393; 8230,322;26,13104
 243,48; 2189,832;  199,853; 8013,354;25,46847
 244,07; 2114,143;  181,236; 7835,804;25,25168
 244,67; 2025,334;  188,545; 7635,116;24,66624
 245,27; 1923,284;  187,620; 7538,964;23,61016
 245,87; 1881,125;  198,778; 7465,459;23,15152
 246,47; 1820,159;  182,235; 7394,051;22,71168
 247,06; 1780,743;  170,929; 7473,098;22,04569
 247,66; 1751,724;  177,545; 7528,223;21,41543
 248,26; 1743,826;  204,620; 7649,178;20,67559
 248,86; 1730,586;  193,774; 7851,780;20,06804
 249,46; 1709,041;  148,777; 8038,618;19,77562
 250,05; 1763,829;  193,622; 8381,418;19,17741
 250,65; 1751,140;  158,158; 8642,640;18,77525
 251,25; 1810,754;  170,621; 9137,081;18,29186
 251,85; 1875,699;  174,080; 9729,024;17,80878
 252,44; 1894,724;  144,697;10270,305;17,28317
 253,04; 2012,894;  186,467;10972,701;16,93294
 253,64; 2031,598;  141,773;11593,426;16,50264
 254,24; 2199,308;  193,160;12498,938;16,30249
 254,84; 2305,503;  171,084;13398,156;16,13674
 255,43; 2450,857;  175,236;14232,155;16,18862
 256,03; 2571,468;  173,927;15090,790;16,07269
 256,63; 2722,838;  186,311;16121,134;15,91814
 257,23; 2867,664;  163,619;16865,215;16,19034
 257,82; 3029,224;  184,617;17785,184;16,16202
 258,42; 3111,774;  141,386;18538,523;16,14593
 259,02; 3319,050;  188,851;19404,408;16,28992
 259,62; 3399,790;  171,924;20013,536;16,26817
 260,21; 3587,892;  180,005;20446,656;16,81525
 260,81; 3692,172;  175,776;20939,686;16,93513
 261,41; 3760,418;  161,540;21348,639;16,98618
 262,01; 3940,797;  195,692;21745,537;17,37880
 262,60; 3990,433;  159,772;22088,138;17,46897
 263,20; 4126,209;  173,081;22406,441;17,78017
 263,80; 4217,184;  185,846;22576,552;18,00451
 264,40; 4330,401;  159,770;22635,554;18,55611
 264,99; 4443,237;  177,923;22873,727;18,79340
 265,59; 4522,803;  169,690;22986,235;19,07876
 266,19; 4618,090;  151,923;23173,571;19,39986
 266,78; 4741,562;  198,691;23313,249;19,65372
 267,38; 4824,633;  180,998;23225,991;20,15030
 267,98; 4866,296;  170,999;23273,748;20,32354
 268,58; 4928,450;  176,460;23341,058;20,51402
 269,17; 5031,245;  169,612;23247,520;21,06618
 269,77; 5068,641;  185,772;23104,975;21,30471
 270,37; 5080,162;  159,846;23034,665;21,50975
 270,96; 5167,978;  211,386;22877,757;21,86760
 271,56; 5148,347;  175,618;22703,894;22,07327
 272,16; 5193,101;  181,617;22485,318;22,46929
 272,75; 5217,850;  173,540;22347,937;22,74835
 273,35; 5307,786;  175,464;22343,010;23,15242
 273,95; 5335,063;  178,540;22331,725;23,27667
 274,54; 5382,216;  162,775;22448,895;23,42014
 275,14; 5590,583;  186,848;22732,619;23,96784
 275,74; 5638,684;  151,771;22757,986;24,27170
 276,33; 5799,981;  194,541;23139,769;24,42965
 276,93; 5951,431;  189,006;23493,651;24,72651
 277,53; 6097,987;  175,313;23943,637;24,91835
 278,12; 6257,070;  159,388;24522,641;25,02819
 278,72; 6487,948;  198,082;25049,538;25,30985
 279,32; 6711,908;  166,851;25603,285;25,73103
 279,91; 6953,155;  167,927;26140,914;26,12417
 280,51; 7145,629;  171,236;26717,785;26,27232
 281,11; 7390,356;  166,389;27408,135;26,51800
 281,70; 7610,196;  158,158;27854,830;26,90590
 282,30; 7901,424;  149,618;28400,894;27,43878
 282,90; 8074,918;  171,003;28765,457;27,64142
 283,49; 8274,923;  189,002;29327,182;27,75026
 284,09; 8534,201;  202,311;29720,168;28,22661
 284,69; 8798,728;  202,697;30055,598;28,79462
 285,28; 8988,680;  186,927;30425,072;29,10811
 285,88; 9215,902;  219,155;30550,573;29,66148
 286,47; 9341,012;  181,618;30628,362;30,08333
 287,07; 9567,464;  207,620;30770,805;30,62457
 287,67; 9701,140;  196,699;30819,200;31,03744
 288,26; 9968,145;  172,543;30800,315;31,98274
 288,86;10143,476;  157,465;30903,297;32,47924
 289,46;10423,966;  193,850;30940,721;33,27206
 290,05;10664,771;  177,775;31098,678;33,91556
 290,65;10975,390;  177,926;31293,056;34,70165
 291,24;11291,134;  185,851;31413,870;35,56192
 291,84;11630,915;  190,234;31527,211;36,50857
 292,44;11887,300;  183,930;31619,198;37,23006
 293,03;12214,888;  237,851;31807,212;37,93880
 293,63;12449,119;  169,080;31969,525;38,61593
 294,22;12747,448;  199,927;32062,332;39,38033
 294,82;12927,044;  175,231;32052,163;40,00326
 295,41;12898,657;  172,619;31769,137;40,27671
 296,01;13134,972;  207,463;31764,345;40,96574
 296,61;13065,752;  191,081;31442,501;41,19707
 297,20;13030,012;  192,001;31183,213;41,42468
 297,80;13097,202;  181,468;31055,544;41,83359
 298,39;12974,776;  167,542;30706,947;41,93675
 298,99;12951,854;  191,540;30486,766;42,11988
 299,58;12942,813;  191,468;30353,097;42,27671
 300,18;12895,674;  208,006;30076,989;42,47774
 300,78;12856,118;  169,313;29818,241;42,79010
 301,37;12782,434;  193,923;29790,504;42,53367
 301,97;12828,937;  196,543;29891,096;42,54112
 302,56;12778,772;  166,310;29794,349;42,56934
 303,16;12762,773;  173,310;29747,165;42,56957
 303,75;12742,353;  177,005;29704,147;42,55524
 304,35;12838,552;  171,162;29945,807;42,54422
 304,94;12798,041;  179,620;30022,782;42,28245
 305,54;12702,292;  199,159;29908,315;42,08512
 306,13;12613,916;  150,700;29919,965;41,86605
 306,73;12492,640;  158,469;29661,222;41,80685
 307,33;12472,299;  201,314;29617,230;41,71546
 307,92;12374,995;  177,466;29728,606;41,27600
 308,52;12571,793;  165,310;30129,008;41,40505
 309,11;12662,611;  177,463;30600,279;41,03877
 309,71;12749,196;  149,923;30889,426;40,98724
 310,30;12704,015;  158,235;31107,064;40,53717
 310,90;12828,707;  189,620;31395,141;40,50273
 311,49;12831,698;  180,697;31519,743;40,36818
 312,09;12767,857;  152,852;31647,999;40,05381
 312,68;12886,120;  217,005;32025,256;39,82965
 313,28;12797,072;  153,466;32217,913;39,43185
 313,87;12740,435;  148,004;32290,642;39,17672
 314,47;12767,026;  165,001;32560,795;38,90019
 315,06;12680,069;  152,312;32629,744;38,57373
 315,66;12685,242;  161,083;32887,229;38,26958
 316,25;12488,782;  142,233;32772,640;37,83756
 316,85;12409,855;  145,775;32723,291;37,64584
 317,44;12381,990;  162,770;32979,557;37,23466
 318,04;12201,870;  142,542;33009,774;36,69104
 318,63;12105,348;  153,469;32982,266;36,40669
 319,22;12067,085;  177,310;33207,071;35,99716
 319,82;11948,360;  171,542;33200,582;35,65595
 320,41;11720,834;  178,234;33238,536;34,91378
 321,01;11658,865;  187,313;33272,351;34,67293
 321,60;11588,618;  174,927;33443,038;34,30820
 322,20;11378,406;  177,466;33333,061;33,78296
 322,79;11304,469;  202,082;33485,172;33,35744
 323,39;11107,160;  165,469;33530,501;32,79389
 323,98;10981,830;  153,620;33516,545;32,45582
 324,58;10814,885;  168,079;33435,205;32,00398
 325,17;10672,747;  177,618;33278,600;31,70640
 325,76;10466,499;  187,927;33051,152;31,27682
 326,36;10221,359;  145,313;32763,607;30,89078
 326,95;10032,136;  186,619;32466,503;30,50047
 327,55; 9784,271;  156,850;32186,170;30,05815
 328,14; 9582,395;  155,391;31749,720;29,83764
 328,74; 9348,635;  195,618;31376,561;29,35452
 329,33; 9101,655;  178,852;31015,425;28,93578
 329,92; 8862,407;  158,463;30489,273;28,69671
 330,52; 8557,466;  177,468;29925,383;28,17004
 331,11; 8324,941;  170,542;29424,081;27,87491
 331,71; 8055,540;  174,542;28887,606;27,44743
 332,30; 7835,118;  182,312;28506,244;27,01887
 332,89; 7656,338;  218,928;27953,719;26,81617
 333,49; 7375,151;  188,081;27460,316;26,35307
 334,08; 7149,949;  176,696;27081,896;25,91786
 334,68; 6954,224;  171,003;26621,410;25,64505
 335,27; 6838,746;  183,161;26314,649;25,46960
 335,86; 6674,941;  223,311;26075,312;24,95602
 336,46; 6500,465;  193,699;25908,643;24,52568
 337,05; 6409,449;  168,542;25732,918;24,41252
 337,65; 6224,931;  162,850;25569,915;23,85983
 338,24; 6219,555;  219,466;25604,877;23,63597
 338,83; 6109,259;  188,390;25458,290;23,43052
 339,43; 5984,194;  171,310;25412,557;23,02931
 340,02; 5917,495;  172,464;25321,790;22,84368
 340,61; 5820,054;  166,851;25444,701;22,36426
 341,21; 5761,943;  204,157;25448,022;22,01638
 341,80; 5699,381;  171,080;25342,271;21,96281
 342,40; 5638,632;  182,083;25467,180;21,58010
 342,99; 5612,569;  180,698;25574,489;21,39055
 343,58; 5594,886;  175,929;25701,271;21,22971
 344,18; 5575,156;  183,467;25830,755;21,02245
 344,77; 5548,604;  168,772;26136,507;20,71737
 345,36; 5516,444;  149,850;26424,657;20,42487
 345,96; 5597,223;  199,698;26729,203;20,34537
 346,55; 5513,187;  160,546;27003,111;19,94087
 347,14; 5531,292;  158,160;27333,078;19,77239
 347,74; 5513,949;  153,548;27683,830;19,47093
 348,33; 5661,175;  173,778;28344,770;19,47889
 348,92; 5704,234;  176,857;28888,277;19,25149
 349,52; 5730,764;  143,548;29276,465;19,17836
 350,11; 5735,334;  173,464;29496,100;18,96784
 350,70; 5668,240;  165,774;29591,495;18,69951
 351,29; 5580,686;  167,230;29365,086;18,54059
 351,89; 5589,981;  179,924;29396,697;18,51695
 352,48; 5524,196;  150,235;29408,135;18,36755
 353,07; 5485,066;  175,391;29301,061;18,23022
 353,67; 5480,134;  182,857;29268,573;18,21264
 354,26; 5377,692;  176,007;29055,737;18,01154
 354,85; 5339,053;  170,698;28908,882;17,98428
 355,45; 5265,850;  153,926;28663,239;17,93072
 356,04; 5214,182;  161,238;28584,853;17,77727
 356,63; 5175,009;  195,696;28511,190;17,58512
 357,22; 5142,349;  178,692;28361,920;17,61209
 357,82; 5066,955;  176,462;28098,443;17,51485
 358,41; 5052,073;  188,927;28014,345;17,47735
 359,00; 4999,594;  166,310;27765,985;17,51210
 359,60; 5014,540;  180,159;27791,911;17,50842
 360,19; 4954,280;  174,084;27611,971;17,42188
 360,78; 4959,825;  177,773;27378,597;17,58054
 361,37; 4910,345;  168,080;27240,693;17,51684
 361,97; 4915,741;  183,235;27141,751;17,55477
 362,56; 4849,645;  165,156;26829,884;17,56811
 363,15; 4834,537;  209,773;26604,363;17,52164
 363,74; 4787,947;  175,463;26267,856;17,67750
 364,34; 4771,750;  205,926;25900,000;17,76995
 364,93; 4633,268;  164,694;25431,083;17,68584
 365,52; 4593,479;  149,927;25138,389;17,78242
 366,11; 4544,455;  167,926;24863,643;17,72181
 366,71; 4536,239;  153,926;24456,994;18,03193
 367,30; 4514,260;  168,619;24175,263;18,10183
 367,89; 4525,210;  213,544;23987,128;18,13637
 368,48; 4515,527;  189,925;23639,355;18,44651
 369,07; 4412,702;  174,235;23231,803;18,38211
 369,67; 4432,025;  202,771;22888,593;18,64272
 370,26; 4378,436;  170,389;22698,609;18,67900
 370,85; 4369,464;  177,773;22478,961;18,79582
 371,44; 4332,344;  179,465;22229,877;18,83357
 372,03; 4318,457;  153,695;22038,966;19,02998
 372,63; 4308,903;  150,850;21657,334;19,33395
 373,22; 4284,616;  166,312;21462,867;19,33789
 373,81; 4252,834;  148,157;21068,918;19,62011
 374,40; 4275,333;  162,006;20908,917;19,82621
 374,99; 4266,694;  166,465;20615,301;20,05116
 375,59; 4236,370;  152,083;20347,587;20,22375
 376,18; 4303,289;  190,696;20264,920;20,48693
 376,77; 4236,292;  186,773;20125,702;20,30961
 377,36; 4293,804;  205,619;19963,063;20,69187
 377,95; 4320,357;  181,003;19718,878;21,18631
 378,55; 4266,942;  163,621;19545,659;21,17074
 379,14; 4325,866;  177,004;19552,173;21,41330
 379,73; 4381,938;  176,388;19375,377;21,90506
 380,32; 4433,371;  190,312;19468,102;22,01009
 380,91; 4454,383;  157,232;19352,830;22,38612
 381,50; 4472,396;  188,848;19199,057;22,53288
 382,10; 4486,140;  157,850;19163,486;22,77372
 382,69; 4521,053;  151,773;19078,044;23,08579
 383,28; 4569,587;  190,079;19065,371;23,20233
 383,87; 4542,788;  164,387;18997,516;23,24840
 384,46; 4643,550;  157,077;18908,985;23,92542
 385,05; 4707,920;  193,387;18894,860;24,13999
 385,64; 4726,608;  166,233;18855,797;24,40065
 386,24; 4778,585;  144,462;18790,871;24,85263
 386,83; 4830,995;  195,616;18864,359;24,82963
 387,42; 4920,573;  185,695;18993,065;25,17565
 388,01; 5022,149;  184,999;19167,441;25,48223
 388,60; 5150,678;  184,616;19384,728;25,86476
 389,19; 5216,907;  170,304;19650,927;25,90576
 389,78; 5330,980;  172,228;19769,403;26,32396
 390,37; 5577,880;  229,461;20281,999;26,67203
 390,96; 5610,635;  180,077;20375,492;26,89005
 391,56; 5746,534;  182,457;20481,112;27,41106
 392,15; 5830,011;  163,305;20748,919;27,52750
 392,74; 5912,073;  144,685;20872,859;27,82391
 393,33; 6068,145;  166,303;21235,744;28,01138
 393,92; 6221,390;  172,607;21599,493;28,22987
 394,51; 6349,811;  156,226;21745,211;28,68863
 395,10; 6485,442;  203,449;22005,912;28,81323
 395,69; 6556,278;  189,834;22082,050;29,08086
 396,28; 6631,471;  194,370;22278,926;29,14752
 396,87; 6694,293;  189,674;22327,851;29,38191
 397,46; 6813,636;  194,903;22395,976;29,81267
 398,06; 6977,756;  204,746;22698,731;30,11032
 398,65; 6982,006;  188,200;22681,367;30,20386
 399,24; 7159,382;  200,352;22887,404;30,67401
 399,83; 7182,267;  182,110;22749,864;31,01840
 400,42; 7318,690;  220,254;23035,427;31,11279
 401,01; 7356,648;  189,781;23094,134;31,29042
 401,60; 7456,621;  211,766;23119,590;31,62611
 402,19; 7509,688;  217,369;23112,094;31,85152
 402,78; 7586,809;  228,889;23019,193;32,28531
 403,37; 7555,878;  216,025;22874,577;32,39330
 403,96; 7610,663;  206,927;22765,566;32,81996
 404,55; 7647,618;  221,981;22707,621;33,02391
 405,14; 7633,151;  204,344;22516,338;33,29513
 405,73; 7655,423;  224,473;22495,027;33,36671
 406,32; 7710,017;  221,687;22330,563;33,87024
 406,91; 7680,648;  218,052;22106,316;34,09405
 407,50; 7708,195;  221,658;22007,485;34,36426
 408,09; 7626,325;  192,651;21694,036;34,57300
 408,68; 7652,838;  215,338;21519,842;34,91046
 409,27; 7636,392;  197,652;21360,402;35,15016
 409,86; 7638,034;  207,437;21233,055;35,34068
 410,45; 7745,288;  238,449;21169,855;35,86400
 411,04; 7723,561;  249,770;21139,912;35,77664
 411,63; 7671,068;  229,633;20851,355;36,08542
 412,22; 7620,590;  228,725;20634,154;36,22499
 412,81; 7584,016;  242,654;20402,820;36,41519
 413,40; 7557,274;  254,122;20116,361;36,76903
 413,99; 7486,171;  297,197;19840,419;36,78500
 414,58; 7356,487;  222,814;19381,613;37,23445
 415,17; 7278,999;  226,423;19244,223;37,08408
 415,76; 7271,150;  226,878;19048,351;37,42678
 416,35; 7295,665;  219,728;18952,438;37,77316
 416,94; 7340,315;  247,187;18919,791;37,98681
 417,53; 7409,719;  224,577;19198,185;37,86914
 418,12; 7503,882;  221,502;19256,610;38,25762
 418,71; 7699,790;  240,738;19628,350;38,47329
 419,30; 7751,153;  227,656;19681,062;38,67445
 419,89; 7838,983;  214,888;19818,661;38,89096
 420,48; 8026,633;  238,353;20128,335;39,15680
 421,07; 8026,342;  247,508;20203,804;38,97935
 421,66; 8081,358;  220,434;20201,298;39,34226
 422,25; 8108,928;  218,210;20172,872;39,54323
 422,84; 8176,342;  246,980;20160,447;39,81909
 423,43; 8094,565;  237,593;19881,303;39,99739
 424,02; 8059,120;  259,671;19663,157;40,19612
 424,60; 7917,580;  222,986;19315,964;40,30065
 425,19; 7873,231;  251,982;19050,908;40,54088
 425,78; 7866,878;  248,136;18934,501;40,77166
 426,37; 7839,501;  254,216;18845,491;40,80024
 426,96; 7815,868;  241,293;18690,278;41,05686
 427,55; 7820,357;  224,528;18531,259;41,49200
 428,14; 7738,426;  225,914;18339,747;41,47390
 428,73; 7705,049;  233,142;18150,342;41,70243
 429,32; 7739,609;  245,754;18147,086;41,86199
 429,91; 7744,103;  261,603;18179,330;41,76032
 430,50; 7691,884;  256,682;17992,998;41,92078
 431,08; 7653,019;  259,684;17864,964;41,99499
 431,67; 7712,098;  294,533;17761,465;42,46633
 432,26; 7644,043;  310,073;17587,962;42,44714
 432,85; 7515,112;  324,380;17315,996;42,31929
 433,44; 7373,759;  331,383;16930,504;42,42620
 434,03; 7250,061;  354,387;16581,647;42,49438
 434,62; 7092,904;  319,460;16216,459;42,60832
 435,21; 7054,160;  330,380;16033,955;42,81688
 435,79; 6980,268;  332,154;15856,794;42,82298
 436,38; 6966,466;  310,927;15766,789;43,06158
 436,97; 6966,323;  314,466;15676,846;43,29965
 437,56; 6864,865;  305,164;15540,304;43,05639
 438,15; 6880,889;  288,778;15421,443;43,56213
 438,74; 6864,637;  296,086;15440,861;43,37173
 439,33; 6897,235;  275,470;15433,036;43,68620
 439,91; 6934,709;  243,088;15478,979;43,92012
 440,50; 6996,822;  296,011;15560,986;43,89664
 441,09; 7039,196;  299,938;15607,794;44,02483
 441,68; 6980,087;  277,018;15662,066;43,56872
 442,27; 7038,031;  253,786;15654,574;44,05129
 442,86; 7024,520;  238,716;15607,961;44,15184
 443,44; 7061,112;  248,714;15637,417;44,26883
 444,03; 7113,515;  310,023;15701,546;44,20285
 444,62; 7040,115;  250,870;15600,811;44,22978
 445,21; 6983,994;  267,946;15432,377;44,28816
 445,80; 6987,248;  281,873;15344,067;44,51792
 446,39; 6909,089;  299,410;15123,963;44,58602
 446,97; 6790,094;  246,722;14874,932;44,73119
 447,56; 6693,479;  254,879;14755,921;44,40095
 448,15; 6653,173;  252,645;14532,562;44,82189
 448,74; 6552,143;  264,492;14244,737;44,97525
 449,33; 6496,702;  261,879;14123,571;44,97880
 449,91; 6410,974;  252,652;13966,166;44,90696
 450,50; 6296,326;  248,343;13744,298;44,81330
 451,09; 6270,340;  266,882;13684,832;44,74199
 451,68; 6223,804;  280,345;13522,457;44,88301
 452,26; 6225,926;  278,578;13547,812;44,82058
 452,85; 6153,564;  273,807;13364,749;44,91469
 453,44; 6153,513;  271,120;13391,559;44,83381
 454,03; 6190,439;  258,733;13374,937;45,22426
 454,61; 6146,038;  235,736;13373,868;44,98586
 455,20; 6271,958;  287,891;13551,847;45,11525
 455,79; 6247,811;  275,658;13551,548;44,98495
 456,38; 6237,978;  278,433;13579,250;44,80586
 456,97; 6279,563;  264,509;13634,166;44,99034
 457,55; 6311,882;  259,665;13642,373;45,22416
 458,14; 6280,096;  282,431;13601,600;45,03032
 458,73; 6257,869;  277,357;13568,451;44,99638
 459,31; 6331,922;  297,745;13654,538;45,17684
 459,90; 6322,170;  313,205;13694,602;44,90537
 460,49; 6413,021;  329,896;13738,558;45,36713
 461,08; 6356,280;  267,362;13809,923;44,96135
 461,66; 6434,158;  285,899;13893,722;45,18180
 462,25; 6471,644;  271,132;14016,723;45,10909
 462,84; 6476,190;  305,208;14005,694;45,04206
 463,43; 6399,654;  247,674;13967,110;44,84135
 464,01; 6454,890;  280,522;13983,519;45,05852
 464,60; 6415,205;  319,365;13979,188;44,62606
 465,19; 6312,056;  248,677;13709,314;45,04527
 465,77; 6285,255;  274,755;13711,515;44,73177
 466,36; 6258,515;  298,751;13589,768;44,84054
 466,95; 6135,777;  269,982;13266,515;45,13353
 467,53; 6032,677;  276,526;12990,901;45,27277
 468,12; 5920,782;  299,988;12772,094;45,06692
 468,71; 5783,688;  287,985;12587,940;44,68068
 469,29; 5686,074;  265,604;12368,158;44,78782
 469,88; 5563,807;  265,682;12051,222;44,95445
 470,47; 5667,223;  314,300;12243,422;44,87273
 471,06; 5630,848;  289,070;12169,589;44,96250
 471,64; 5676,294;  293,761;12260,548;44,97893
 472,23; 5650,864;  255,767;12284,308;44,85246
 472,81; 5682,889;  251,534;12391,804;44,73834
 473,40; 5707,829;  273,459;12489,961;44,48384
 473,99; 5863,782;  354,998;12720,662;44,54903
 474,57; 5889,665;  276,690;12800,256;44,81931
 475,16; 5914,897;  291,073;12949,077;44,42900
 475,75; 6002,138;  299,538;13052,077;44,71737
 476,33; 6008,668;  299,925;13155,518;44,40669
 476,92; 6020,902;  304,306;13162,129;44,46006
 477,51; 6018,599;  304,155;13255,104;44,12375
 478,09; 6080,812;  303,309;13252,200;44,61775
 478,68; 6017,517;  299,002;13219,379;44,25966
 479,27; 6047,902;  320,308;13271,124;44,22574
 479,85; 6007,753;  288,848;13239,870;44,15794
 480,44; 6056,142;  283,157;13366,235;44,12558
 481,02; 6664,498;  290,005;14754,419;44,07018
 481,61; 7472,977;  325,850;16683,557;43,69272
 482,20; 7915,265;  317,543;17730,327;43,63301
 482,78; 8294,619;  348,310;18494,941;43,78945
 483,37; 8514,889;  335,854;18984,669;43,85820
 483,95; 8573,590;  353,470;19260,097;43,47745
 484,54; 8629,375;  369,773;19392,478;43,41970
 485,13; 8591,434;  332,088;19375,073;43,37212
 485,71; 8527,421;  309,856;19113,433;43,70214
 486,30; 8381,942;  357,395;18821,298;43,46073
 486,88; 8231,025;  370,011;18444,864;43,49144
 487,47; 7933,107;  364,088;17768,276;43,48964
 488,05; 7549,357;  355,936;16968,991;43,29981
 488,64; 7022,224;  353,784;15692,364;43,47495
 489,23; 6252,688;  361,705;13908,077;43,48753
 489,81; 5377,262;  352,168;11955,421;43,30763
 490,40; 5058,074;  318,014;11421,657;42,68923
 490,98; 4949,883;  295,861;11187,985;42,72832
 491,57; 4934,014;  328,552;11109,257;42,71949
 492,15; 4846,991;  303,862;11034,039;42,33974
 492,74; 4824,503;  314,320;10925,792;42,50289
 493,32; 4789,521;  332,015;10825,227;42,47990
 493,91; 4705,270;  300,478;10721,071;42,27007
 494,50; 4686,132;  311,790;10703,486;42,09459
 495,08; 4656,155;  291,175;10638,266;42,18558
 495,67; 4651,514;  326,940;10584,531;42,15975
 496,25; 4557,550;  277,250;10557,794;41,63496
 496,84; 4523,706;  275,170;10500,201;41,55035
 497,42; 4516,473;  272,250;10466,406;41,63388
 498,01; 4509,025;  308,248;10427,105;41,51434
 498,59; 4439,921;  266,558;10334,408;41,45238
 499,18; 4423,538;  264,402;10265,002;41,58886
 499,76; 4363,932;  287,327;10243,240;40,94657
 500,35; 4300,062;  276,099;10056,250;41,14418
 500,93; 4272,848;  259,481; 9968,316;41,33727
 501,52; 4259,232;  266,097; 9884,961;41,51358
 502,10; 4187,169;  281,177; 9934,100;40,46434
 502,69; 4101,577;  259,948; 9763,568;40,42280
 503,27; 4036,834;  252,713; 9606,114;40,45716
 503,86; 4004,708;  259,870; 9496,559;40,54307
 504,44; 3915,595;  247,795; 9379,008;40,16772
 505,03; 3871,610;  231,718; 9135,436;40,88058
 505,61; 3797,462;  251,564; 9042,821;40,33438
 506,19; 3758,707;  272,410; 8919,817;40,31609
 506,78; 3668,269;  232,336; 8719,356;40,48456
 507,36; 3584,064;  254,564; 8571,746;40,03159
 507,95; 3527,665;  257,338; 8427,565;40,02737
 508,53; 3467,718;  241,875; 8388,713;39,59627
 509,12; 3402,328;  263,491; 8199,757;39,55056
 509,70; 3395,609;  277,569; 8024,683;40,24777
 510,29; 3315,461;  274,724; 7912,708;39,81073
 510,87; 3220,304;  238,567; 7741,088;39,74313
 511,46; 3136,741;  253,414; 7570,645;39,40463
 512,04; 3095,082;  250,646; 7473,356;39,38184
 512,62; 3025,801;  245,875; 7322,433;39,28359
 513,21; 2932,471;  237,570; 7160,798;38,92549
 513,79; 2914,989;  237,113; 7046,664;39,32529
 514,38; 2828,249;  230,650; 6937,217;38,73217
 514,96; 2818,798;  271,727; 6821,508;38,88788
 515,54; 2743,237;  230,958; 6697,648;38,84953
 516,13; 2716,424;  262,497; 6637,101;38,49536
 516,71; 2667,198;  239,345; 6444,079;39,12904
 517,30; 2587,796;  234,809; 6385,554;38,25533
 517,88; 2562,740;  255,808; 6315,627;38,06931
 518,46; 2483,554;  241,425; 6188,138;37,70366
 519,05; 2455,642;  248,811; 6157,963;37,34598
 519,63; 2453,299;  250,194; 6109,772;37,59834
 520,22; 2437,961;  253,197; 6020,861;37,87952
 520,80; 2407,012;  239,890; 5976,604;37,77637
 521,38; 2369,909;  275,118; 5973,970;36,75811
 521,97; 2346,869;  241,122; 5909,274;37,15051
 522,55; 2325,209;  249,660; 5887,376;36,81543
 523,13; 2304,923;  233,969; 5889,875;36,61578
 523,72; 2291,881;  250,040; 5842,673;36,50948
 524,30; 2340,754;  258,816; 6010,167;36,19910
 524,89; 2336,767;  225,199; 6014,248;36,47521
 525,47; 2366,670;  252,586; 6105,089;36,12273
 526,05; 2350,719;  216,048; 6127,663;36,10977
 526,64; 2393,657;  245,434; 6251,934;35,76497
 527,22; 2446,519;  265,586; 6371,874;35,71618
 527,80; 2479,479;  292,049; 6477,417;35,36459
 528,39; 2479,222;  237,127; 6572,541;35,38988
 528,97; 2525,152;  238,511; 6705,850;35,35676
 529,55; 2573,645;  261,354; 6871,423;34,98135
 530,14; 2638,548;  276,666; 7049,828;34,87119
 530,72; 2618,212;  251,049; 7155,484;34,28466
 531,30; 2659,907;  234,589; 7274,494;34,45100
 531,89; 2678,800;  258,666; 7329,638;34,22633
 532,47; 2709,620;  284,744; 7367,872;34,23453
 533,05; 2725,650;  283,203; 7460,398;34,03067
 533,63; 2735,097;  288,513; 7504,575;33,90470
 534,22; 2719,450;  251,744; 7557,781;33,77625
 534,80; 2755,144;  282,439; 7624,205;33,67998
 535,38; 2779,541;  352,282; 7757,212;32,77896
 535,97; 2734,247;  269,359; 7665,361;33,32730
 536,55; 2772,671;  320,054; 7738,914;33,05922
 537,13; 2753,036;  315,820; 7763,976;32,72241
 537,71; 2744,216;  360,358; 7797,618;32,05290
 538,30; 2779,438;  375,360; 7853,904;32,14633
 538,88; 2776,630;  412,979; 7969,256;31,28063
 539,46; 2833,330;  474,900; 8121,076;30,84457
 540,05; 2852,225;  487,055; 8267,185;30,40013
 540,63; 2936,175;  529,747; 8429,026;30,46389
 541,21; 2924,760;  565,902; 8567,890;29,47839
 541,79; 2961,576;  608,210; 8638,880;29,30473
 542,38; 3011,251;  637,516; 8826,904;28,98549
 542,96; 3020,822;  640,981; 8990,841;28,50157
 543,54; 3097,800;  654,595; 9152,882;28,74939
 544,12; 3107,808;  639,441; 9316,540;28,44692
 544,70; 3079,231;  606,827; 9383,128;28,17137
 545,29; 3154,556;  609,439; 9530,274;28,53002
 545,87; 3155,499;  604,826; 9507,342;28,65115
 546,45; 3123,809;  556,978; 9574,439;28,46512
 547,03; 3156,047;  520,286; 9587,665;29,06861
 547,62; 3156,814;  491,133; 9758,186;28,76514
 548,20; 3183,401;  497,981; 9886,142;28,60433
 548,78; 3229,710;  456,754; 9964,744;29,16448
 549,36; 3243,678;  423,984;10197,228;28,85116
 549,94; 3256,147;  388,980;10269,440;29,01856
 550,53; 3320,058;  402,907;10455,739;29,01820
 551,11; 3328,219;  366,139;10633,732;28,84882
 551,69; 3399,098;  370,753;10900,806;28,75907
 552,27; 3417,968;  337,060;11133,021;28,53760
 552,85; 3528,236;  340,832;11487,328;28,59557
 553,44; 3593,332;  336,061;11749,436;28,53906
 554,02; 3669,337;  357,216;12100,310;28,20484
 554,60; 3716,717;  289,832;12357,816;28,39650
 555,18; 3802,495;  332,754;12654,911;28,15855
 555,76; 3861,660;  318,985;12952,815;28,04118
 556,34; 3989,536;  312,756;13377,508;28,14274
 556,93; 4049,259;  298,600;13673,035;28,04350
 557,51; 4086,164;  285,141;13978,537;27,75807
 558,09; 4191,368;  316,292;14352,367;27,60798
 558,67; 4276,393;  306,527;14678,948;27,62142
 559,25; 4370,544;  319,603;14952,243;27,68428
 559,83; 4405,371;  304,297;15233,088;27,47090
 560,41; 4470,232;  291,756;15567,263;27,35409
 561,00; 4538,731;  307,219;15895,804;27,14494
 561,58; 4537,853;  295,294;16100,832;26,84223
 562,16; 4602,032;  288,139;16420,784;26,74015
 562,74; 4649,151;  273,523;16733,363;26,58366
 563,32; 4758,927;  265,759;17138,608;26,62957
 563,90; 4845,331;  307,142;17441,068;26,48657
 564,48; 4883,544;  299,832;17811,095;26,17579
 565,06; 5029,526;  290,527;18441,061;26,10942
 565,65; 5195,298;  287,376;19066,758;26,13463
 566,23; 5355,006;  338,604;19715,164;25,88902
 566,81; 5498,100;  290,372;20393,994;25,90443
 567,39; 5683,091;  295,221;21244,127;25,71910
 567,97; 5757,010;  304,142;21778,226;25,39278
 568,55; 5960,577;  326,759;22585,878;25,31016
 569,13; 6096,787;  294,373;23217,961;25,31198
 569,71; 6321,665;  284,216;24067,688;25,38506
 570,29; 6558,185;  330,984;25005,357;25,23752
 570,87; 6690,111;  332,524;25684,447;25,07734
 571,45; 6770,198;  314,450;26317,295;24,82708
 572,03; 6817,691;  270,683;26711,575;24,76092
 572,61; 6945,195;  285,297;27360,047;24,59819
 573,20; 7094,744;  315,449;27919,651;24,55892
 573,78; 7164,557;  293,066;28598,728;24,27603
 574,36; 7257,469;  312,604;29027,362;24,18570
 574,94; 7378,136;  367,683;29348,869;24,18967
 575,52; 7277,824;  314,993;29622,985;23,75745
 576,10; 7435,601;  368,839;30101,802;23,76743
 576,68; 7511,569;  350,606;30665,907;23,62161
 577,26; 7606,106;  368,533;31195,417;23,47812
 577,84; 7715,893;  370,066;31790,538;23,37911
 578,42; 7715,325;  406,915;31996,906;23,13521
 579,00; 7668,110;  370,066;32069,155;23,02288
 579,58; 7697,826;  399,145;32314,777;22,86867
 580,16; 7661,188;  375,915;32434,378;22,72496
 580,74; 7648,011;  376,377;32448,444;22,67280
 581,32; 7634,537;  381,068;32557,110;22,54307
 581,90; 7523,036;  400,146;32515,932;22,17878
 582,48; 7502,741;  394,607;32594,883;22,07476
 583,06; 7510,930;  402,606;32782,310;21,95302
 583,64; 7475,260;  401,452;32858,398;21,79443
 584,22; 7345,959;  405,994;32602,494;21,55503
 584,80; 7281,414;  405,915;32445,241;21,45956
 585,38; 7150,787;  422,833;32054,582;21,26962
 585,96; 7111,973;  393,067;32147,397;21,15902
 586,54; 7065,484;  413,532;32050,345;21,02599
 587,12; 6983,288;  382,916;32247,541;20,71379
 587,70; 7065,719;  417,836;32301,539;20,85041
 588,28; 7004,844;  390,916;32379,522;20,67589
 588,86; 6968,162;  384,762;32493,734;20,50330
 589,44; 6926,661;  374,996;32468,964;20,41401
 590,02; 6949,933;  379,303;32622,004;20,37866
 590,59; 6931,102;  352,840;32890,283;20,21751
 591,17; 6937,621;  360,844;33036,886;20,12721
 591,75; 6890,283;  356,843;33156,882;19,91900
 592,33; 6912,342;  371,304;33354,211;19,83160
 592,91; 6900,308;  310,459;33555,089;19,82229
 593,49; 6913,644;  333,460;33842,587;19,63699
 594,07; 6932,647;  344,768;34059,679;19,53996
 594,65; 6899,505;  352,455;33987,463;19,46499
 595,23; 6917,445;  353,533;34362,009;19,30081
 595,81; 6870,282;  333,457;34528,224;19,11645
 596,39; 6913,152;  333,073;34613,281;19,19498
 596,97; 6898,432;  339,459;34856,464;19,00215
 597,55; 6838,265;  341,225;34775,216;18,86810
 598,12; 6758,481;  316,846;34640,725;18,76721
 598,70; 6741,105;  319,306;34828,743;18,60882
 599,28; 6730,611;  330,152;35007,719;18,45706
 599,86; 6729,649;  313,844;34973,927;18,51065
 600,44; 6679,622;  294,076;35219,777;18,28323
 601,02; 6679,596;  334,079;35207,156;18,19603
 601,60; 6589,819;  327,151;35108,636;18,00575
 602,18; 6624,380;  301,846;35161,284;18,13722
 602,75; 6558,381;  303,072;35169,082;17,94100
 603,33; 6523,949;  319,229;35224,113;17,77608
 603,91; 6482,609;  313,001;35227,234;17,67075
 604,49; 6487,159;  330,229;35311,501;17,60065
 605,07; 6424,762;  326,074;35312,786;17,43144
 605,65; 6444,242;  353,384;35453,683;17,35272
 606,23; 6407,313;  395,147;35653,718;17,05165
 606,80; 6399,275;  462,303;35590,688;16,90078
 607,38; 6367,256;  492,693;35651,676;16,70857
 607,96; 6384,662;  550,149;35737,319;16,58136
 608,54; 6331,828;  623,230;35673,519;16,28688
 609,12; 6330,396;  603,611;35783,818;16,27843
 609,70; 6286,838;  649,229;35832,813;16,02341
 610,27; 6252,318;  652,149;35920,081;15,87893
 610,85; 6229,843;  664,305;35938,074;15,77812
 611,43; 6205,321;  661,921;35914,162;15,72496
 612,01; 6121,619;  632,996;35657,077;15,67100
 612,59; 6040,362;  630,306;35736,539;15,41053
 613,16; 5999,296;  593,917;35683,581;15,40448
 613,74; 5949,070;  564,460;35521,319;15,40359
 614,32; 5939,023;  528,153;35566,018;15,44292
 614,90; 5879,021;  470,459;35343,594;15,50925
 615,48; 5765,588;  428,610;35089,336;15,39777
 616,05; 5754,431;  397,224;35099,324;15,43770
 616,63; 5687,967;  402,454;34784,311;15,37297
 617,21; 5677,457;  402,764;34824,960;15,32352
 617,79; 5611,135;  378,919;34725,299;15,23367
 618,36; 5559,117;  389,997;34671,700;15,07837
 618,94; 5428,686;  333,764;34370,147;14,96905
 619,52; 5427,432;  353,839;34089,679;15,03918
 620,10; 5380,778;  342,611;34056,956;14,94369
 620,67; 5356,165;  344,762;33898,672;14,93538
 621,25; 5300,881;  370,689;33852,516;14,72498
 621,83; 5275,932;  345,764;33770,420;14,75009
 622,41; 5237,630;  389,610;33837,758;14,49413
 622,98; 5156,123;  363,454;33668,096;14,39039
 623,56; 5119,858;  353,377;33540,488;14,36245
 624,14; 5085,484;  325,536;33369,870;14,40473
 624,72; 5050,026;  345,533;33240,633;14,30150
 625,29; 4979,980;  315,916;33394,233;14,10007
 625,87; 4987,241;  365,150;33393,232;13,99443
 626,45; 4915,028;  315,684;33170,425;13,99903
 627,02; 4901,665;  332,842;33123,946;13,93312
 627,60; 4841,625;  312,460;33135,253;13,79884
 628,18; 4824,550;  302,995;33174,356;13,75530
 628,76; 4792,023;  302,993;33091,623;13,69081
 629,33; 4759,571;  324,379;33200,941;13,49044
 629,91; 4779,086;  321,918;33119,956;13,58974
 630,49; 4732,664;  334,686;33238,877;13,36601
 631,06; 4762,631;  324,839;33363,193;13,43224
 631,64; 4727,236;  331,377;33310,413;13,32925
 632,22; 4670,013;  294,684;33229,231;13,28492
 632,79; 4731,366;  313,607;33484,975;13,31799
 633,37; 4694,631;  295,227;33515,567;13,24310
 633,95; 4654,232;  298,607;33615,584;13,07329
 634,52; 4645,952;  283,533;33701,571;13,05409
 635,10; 4656,665;  292,764;33721,334;13,05440
 635,68; 4636,413;  286,068;33895,120;12,94397
 636,25; 4617,901;  269,528;33825,119;12,95871
 636,83; 4637,254;  269,993;34157,007;12,88771
 637,41; 4629,429;  273,068;34157,441;12,85655
 637,98; 4616,789;  305,837;34289,462;12,68538
 638,56; 4667,982;  302,143;34357,566;12,81980
 639,13; 4627,682;  275,300;34443,400;12,73814
 639,71; 4669,089;  325,147;34583,409;12,67998
 640,29; 4532,869;  257,070;34377,977;12,53132
 640,86; 4583,955;  265,378;34505,459;12,61264
 641,44; 4554,196;  279,917;34433,864;12,51474
 642,02; 4552,128;  294,455;34588,884;12,41506
 642,59; 4518,599;  276,840;34663,058;12,33564
 643,17; 4534,916;  268,532;34715,540;12,38535
 643,74; 4538,618;  270,071;34605,329;12,43197
 644,32; 4499,397;  292,763;34656,350;12,24154
 644,89; 4524,252;  282,994;34640,985;12,34431
 645,47; 4528,262;  302,994;34616,005;12,31389
 646,05; 4480,887;  293,610;34608,026;12,20268
 646,62; 4427,281;  283,840;34572,969;12,08383
 647,20; 4418,367;  281,994;34689,451;12,02173
 647,77; 4384,607;  259,148;34582,548;12,01938
 648,35; 4364,540;  254,610;34426,953;12,02707
 648,92; 4392,473;  289,764;34584,434;11,96311
 649,50; 4321,867;  244,687;34387,685;11,94148
 650,08; 4317,030;  257,225;34360,244;11,90453
 650,65; 4338,809;  260,379;34672,110;11,85186
 651,23; 4405,203;  245,149;35465,054;11,81166
 651,80; 4464,135;  253,841;36224,920;11,70466
 652,38; 4535,760;  262,149;36596,940;11,76176
 652,95; 4570,308;  237,918;36848,499;11,83371
 653,53; 4557,164;  256,611;37080,519;11,67870
 654,10; 4616,942;  292,380;37233,693;11,70657
 654,68; 4546,490;  246,995;37266,483;11,61414
 655,25; 4543,038;  243,380;37201,272;11,63394
 655,83; 4552,278;  242,842;37430,369;11,58839
 656,40; 4537,365;  269,534;37324,466;11,51758
 656,98; 4487,913;  258,611;37258,641;11,43054
 657,55; 4458,230;  260,073;37055,353;11,40950
 658,13; 4428,316;  248,996;36718,219;11,45986
 658,70; 4388,864;  269,688;36423,778;11,39339
 659,28; 4255,105;  255,073;35604,183;11,31579
 659,85; 4177,191;  265,227;34891,895;11,29755
 660,43; 4218,431;  273,304;34953,839;11,37562
 661,00; 4162,825;  243,150;35105,090;11,24342
 661,58; 4210,373;  247,227;35396,956;11,27504
 662,15; 4177,306;  244,381;35524,746;11,14763
 662,73; 4268,777;  310,073;35886,997;11,12717
 663,30; 4231,325;  251,766;36023,017;11,12502
 663,88; 4267,026;  257,150;36221,268;11,14966
 664,45; 4283,651;  259,304;36345,750;11,15196
 665,03; 4302,045;  247,535;36732,462;11,11284
 665,60; 4426,901;  326,228;37169,790;11,12996
 666,17; 4386,449;  257,459;37191,272;11,17943
 666,75; 4386,381;  252,151;37496,523;11,10028
 667,32; 4442,852;  279,766;37793,389;11,09753
 667,90; 4445,093;  266,997;37992,563;11,07497
 668,47; 4504,487;  271,305;38275,968;11,13859
 669,05; 4486,727;  254,613;38491,373;11,06818
 669,62; 4459,429;  241,305;38653,008;10,98135
 670,19; 4492,438;  241,767;38690,567;11,05541
 670,77; 4519,525;  255,382;38869,587;11,04294
 671,34; 4513,611;  251,305;38826,454;11,04936
 671,92; 4548,082;  238,152;39184,243;11,06640
 672,49; 4578,015;  272,459;39123,802;11,08213
 673,06; 4505,255;  212,767;39219,361;11,00452
 673,64; 4542,572;  223,844;39275,227;11,05909
 674,21; 4544,120;  235,614;39186,401;11,06141
 674,79; 4570,975;  263,306;39349,267;11,02101
 675,36; 4590,139;  276,537;39505,595;10,99594
 675,93; 4553,841;  227,229;39329,231;11,06494
 676,51; 4591,927;  265,306;39550,559;11,01335
 677,08; 4597,475;  256,383;39663,502;11,01601
 677,65; 4632,484;  243,383;39751,830;11,10927
 678,23; 4615,417;  251,614;40022,850;10,97226
 678,80; 4631,657;  253,153;40032,409;11,00700
 679,38; 4662,051;  245,307;40115,352;11,07785
 679,95; 4693,138;  257,153;40459,911;11,03403
 680,52; 4674,070;  239,153;40731,393;10,95251
 681,10; 4833,003;  255,691;41077,028;11,21304
 681,67; 4796,704;  263,845;41356,279;11,03089
 682,24; 4841,868;  231,768;41411,915;11,19496
 682,82; 4844,646;  234,384;41947,858;11,05221
 683,39; 4985,117;  276,999;42202,032;11,22985
 683,96; 4969,973;  254,846;42377,822;11,19372
 684,54; 5003,213;  230,769;42724,457;11,23095
 685,11; 5109,992;  273,000;43057,862;11,30538
 685,68; 5113,078;  248,461;43332,651;11,29096
 686,25; 5113,396;  238,538;43518,364;11,26358
 686,83; 5136,790;  239,231;43610,846;11,29208
 687,40; 5193,568;  232,154;43866,097;11,37054
 687,97; 5240,270;  268,154;44327,425;11,28506
 688,55; 5256,203;  218,154;44330,599;11,42092
 689,12; 5248,751;  212,385;44561,619;11,35615
 689,69; 5267,683;  220,846;44695,101;11,34777
 690,26; 5296,923;  234,847;44697,121;11,38511
 690,84; 5342,010;  234,385;44863,680;11,44456
 691,41; 5363,712;  261,462;44960,084;11,41478
 691,98; 5416,413;  249,693;45226,028;11,48764
 692,56; 5403,884;  237,616;45337,356;11,45521
 693,13; 5506,355;  302,539;45392,145;11,54105
 693,70; 5502,980;  262,462;45500,165;11,58440
 694,27; 5477,528;  232,770;45653,570;11,54704
 694,84; 5498,153;  232,232;45790,744;11,55859
 695,42; 5561,316;  289,078;45798,995;11,58481
 695,99; 5593,403;  248,924;46022,169;11,67599
 696,56; 5607,335;  250,694;45882,420;11,73885
 697,13; 5645,729;  259,232;46260,748;11,70939
 697,71; 5630,585;  224,848;46288,538;11,73535
 698,28; 5677,210;  250,155;46692,866;11,68548
 698,85; 5708,681;  206,463;46700,193;11,83432
 699,42; 5710,613;  219,232;46809,829;11,78646
 699,99; 5795,007;  257,156;46980,234;11,85250
 700,57; 5807,632;  249,386;46888,100;11,91767
 701,14; 5828,411;  239,002;47039,813;11,94297
 701,71; 5899,651;  253,848;47261,679;12,01035
 702,28; 5912,584;  244,002;47341,930;12,03573
 702,85; 5928,439;  253,079;47365,643;12,04638
 703,43; 5994,910;  268,079;47528,201;12,11768
 704,00; 6035,766;  279,002;47766,606;12,12267
 704,57; 6041,314;  263,079;47766,011;12,16395
 705,14; 6116,093;  282,541;48108,570;12,19744
 705,71; 6192,179;  286,233;48083,667;12,35620
 706,28; 6166,035;  261,772;47955,379;12,37957
 706,86; 6236,736;  302,464;48164,630;12,39867
 707,43; 6236,669;  306,234;48130,958;12,40035
 708,00; 6245,601;  294,695;48135,440;12,43899
 708,57; 6246,611;  260,541;48105,614;12,51136
 709,14; 6339,082;  288,849;48148,327;12,64166
 709,71; 6361,784;  269,926;48357,424;12,66828
 710,28; 6479,101;  272,926;48525,521;12,86185
 710,86; 6455,264;  266,926;48618,772;12,79856
 711,43; 6537,966;  290,234;48594,177;12,93421
 712,00; 6494,052;  267,850;48651,812;12,86832
 712,57; 6596,062;  287,542;48726,140;13,02375
 713,14; 6648,533;  257,619;48840,468;13,15467
 713,71; 6677,312;  269,542;48676,950;13,23717
 714,28; 6644,552;  265,081;48751,893;13,15713
 714,85; 6627,561;  241,004;48550,683;13,22004
 715,42; 6716,417;  258,312;48729,241;13,32367
 716,00; 6823,734;  311,081;48896,646;13,40450
 716,57; 6834,359;  250,466;49013,513;13,50181
 717,14; 6855,214;  233,158;48930,994;13,59826
 717,71; 6849,301;  227,158;49031,553;13,56874
 718,28; 6956,926;  268,389;49097,727;13,69778
 718,85; 6949,935;  238,158;49183,055;13,71292
 719,42; 7032,560;  260,928;49361,075;13,79147
 719,99; 6992,339;  244,851;49265,019;13,76472
 720,56; 7052,271;  256,389;49440,346;13,81727
 721,13; 7101,896;  248,159;49581,828;13,89262
 721,70; 7089,444;  232,390;49450,002;13,93212
 722,27; 7193,146;  257,467;49351,330;14,12739
 722,84; 7235,386;  293,697;49525,504;14,10001
 723,41; 7263,472;  241,082;49513,524;14,25217
 723,98; 7292,943;  260,698;49721,468;14,21783
 724,55; 7367,645;  266,390;49713,411;14,36134
 725,12; 7320,347;  203,313;49721,354;14,37261
 725,69; 7406,203;  239,621;49901,605;14,43072
 726,27; 7488,981;  256,390;49959,779;14,55150
 726,84; 7548,760;  263,775;50291,261;14,56197
 727,41; 7566,923;  256,390;50250,743;14,62272
 727,98; 7666,010;  265,929;50505,840;14,72949
 728,55; 7719,404;  289,314;50426,399;14,81955
 729,12; 7700,952;  228,006;50565,957;14,84555
 729,69; 7788,730;  274,929;50800,824;14,87119
 730,26; 7815,894;  268,622;50876,998;14,91309
 730,82; 7846,211;  256,929;50642,403;15,06244
 731,39; 7914,913;  255,852;50879,115;15,12953
 731,96; 8010,153;  238,468;51237,597;15,23886
 732,53; 8081,932;  272,237;51323,463;15,29776
 733,10; 8133,249;  278,314;51434,330;15,35486
 733,67; 8208,951;  258,545;51656,504;15,46833
 734,24; 8187,883;  243,622;51308,986;15,55704
 734,81; 8288,816;  269,930;51450,467;15,66784
 735,38; 8271,056;  263,468;51176,949;15,72783
 735,95; 8299,835;  246,776;51183,662;15,80988
 736,52; 8376,459;  268,545;51265,605;15,89879
 737,09; 8358,700;  267,853;50929,471;15,97037
 737,66; 8488,478;  303,392;51058,261;16,12670
 738,23; 8525,872;  277,007;51168,973;16,20858
 738,80; 8582,805;  311,469;51444,993;16,17596
 739,37; 8625,353;  288,238;51629,552;16,23861
 739,94; 8672,824;  272,084;51594,419;16,36858
 740,51; 8843,833;  351,469;51751,593;16,52207
 741,07; 8797,535;  265,777;51608,305;16,61733
 741,64; 8941,775;  280,777;51832,633;16,80056
 742,21; 8926,246;  258,469;51879,115;16,79130
 742,78; 8954,102;  236,162;51746,520;16,92464
 743,35; 9044,188;  251,470;51908,155;17,02145
 743,92; 9113,198;  300,393;52145,329;16,99839
 744,49; 9119,515;  272,700;52005,119;17,10110
 745,06; 9155,832;  252,624;51929,370;17,22866
 745,63; 9210,534;  238,854;51907,159;17,36399
 746,19; 9305,390;  252,162;51980,949;17,50133
 746,76; 9359,707;  265,932;51939,353;17,59855
 747,33; 9342,024;  264,778;51974,835;17,55412
 747,90; 9508,495;  273,778;52208,009;17,78156
 748,47; 9545,351;  271,701;52144,183;17,87778
 749,04; 9590,052;  271,470;52129,819;17,96930
 749,61; 9659,062;  291,086;52025,916;18,10768
 750,17; 9702,610;  286,240;52168,859;18,14937
 750,74; 9760,850;  271,932;52000,957;18,34351
 751,31; 9768,552;  252,163;51940,592;18,41106
 751,88; 9776,023;  237,855;51827,074;18,48868
 752,45; 9881,878;  259,932;52112,556;18,55633
 753,02; 9910,349;  271,009;51839,345;18,69236
 753,58; 9955,897;  247,625;51722,519;18,86021
 754,15;10017,061;  258,163;51863,309;18,91071
 754,72; 9991,224;  239,548;51584,713;18,99239
 755,29;10038,079;  246,471;51476,426;19,11305
 755,86;10048,781;  262,779;51546,908;19,08193
 756,42;10116,637;  262,318;51534,928;19,21946
 756,99;10119,954;  220,471;51381,717;19,34957
 757,56;10117,502;  241,087;51421,661;19,29719
 758,13;10180,819;  198,702;51274,373;19,54378
 758,70;10294,829;  228,010;51322,778;19,70225
 759,26;10308,453;  222,318;51420,568;19,70016
 759,83;10370,155;  232,164;51531,126;19,76257
 760,40;10410,165;  217,549;51386,454;19,91955
 760,97;10412,790;  197,703;51441,244;19,93439
 761,53;10420,030;  186,164;51057,187;20,11728
 762,10;10425,424;  186,780;51068,976;20,12225
 762,67;10550,664;  223,857;51064,766;20,31200
 763,24;10429,058;  184,549;50673,940;20,29042
 763,80;10543,375;  216,703;50865,422;20,38881
 764,37;10611,385;  221,549;50747,211;20,56348
 764,94;10501,394;  202,088;50275,770;20,56830
 765,50;10563,327;  206,934;50332,405;20,66094
 766,07;10659,029;  251,396;50402,426;20,75258
 766,64;10645,192;  211,396;50035,061;20,94145
 767,21;10682,817;  214,627;50003,466;21,02517
 767,77;10757,134;  236,473;49955,025;21,16043
 768,34;10787,220;  243,473;49880,968;21,24150
 768,91;10781,922;  255,627;49750,142;21,26760
 769,47;10863,393;  249,781;49773,162;21,43152
 770,04;10832,326;  244,243;49757,952;21,38414
 770,61;10806,797;  229,704;49299,203;21,55533
 771,18;10846,498;  224,704;49269,531;21,65732
 771,74;10949,585;  242,089;49485,474;21,74403
 772,31;10960,056;  245,089;49168,648;21,90145
 772,88;10939,988;  219,474;49048,130;21,95538
 773,44;10947,382;  223,320;48829,073;22,06336
 774,01;11070,853;  236,397;48924,247;22,25290
 774,58;11066,632;  222,705;48550,190;22,43843
 775,14;11088,719;  215,474;48706,211;22,42334
 775,71;11056,882;  226,782;48668,000;22,35720
 776,27;11240,199;  270,628;48617,328;22,68939
 776,84;11249,208;  292,090;48585,271;22,68875
 777,41;11260,295;  242,090;48367,830;22,89462
 777,97;11278,304;  234,321;48133,389;23,05678
 778,54;11303,621;  236,552;48140,178;23,10278
 779,11;11354,169;  264,013;48163,583;23,15294
 779,67;11363,948;  233,475;48114,988;23,24587
 780,24;11470,342;  244,244;47944,931;23,53446
 780,80;11496,044;  261,706;47863,105;23,60086
 781,37;11528,592;  251,090;47772,895;23,73121
 781,94;11494,447;  239,398;47618,299;23,75540
 782,50;11539,380;  255,629;47480,012;23,89391
 783,07;11628,005;  276,475;47663,263;23,95505
 783,63;11634,476;  222,706;47381,129;24,19879
 784,20;11702,101;  262,398;47373,457;24,28241
 784,77;11707,879;  251,168;47123,939;24,44215
 785,33;11697,735;  214,860;46988,113;24,55009
 785,90;11784,437;  236,706;47031,210;24,67754
 786,46;11817,985;  255,707;46798,846;24,84207
 787,03;11846,994;  228,553;46779,251;24,95868
 787,59;11861,773;  231,322;46570,886;25,09832
 788,16;11915,475;  246,322;46619,291;25,16370
 788,73;11927,561;  259,091;46442,004;25,26577
 789,29;11933,801;  252,553;46130,793;25,46141
 789,86;11939,272;  255,707;46001,659;25,54011
 790,42;11909,436;  253,476;45925,526;25,52099
 790,99;11944,137;  255,784;45600,931;25,77642
 791,55;11944,762;  238,476;45557,258;25,83098
 792,12;12035,541;  254,323;45499,663;26,03852
 792,68;11978,858;  247,323;45235,991;26,07664
 793,25;12007,175;  262,861;44989,011;26,25827
 793,81;12026,492;  299,246;44741,032;26,38788
 794,38;11913,271;  228,015;44555,052;26,36146
 794,94;11955,819;  233,708;44329,457;26,58331
 795,51;11958,444;  252,554;44151,477;26,66555
 796,07;11934,530;  241,093;43886,036;26,79219
 796,64;12036,386;  255,785;43947,364;26,96309
 797,20;11948,088;  240,939;43487,615;27,07063
 797,77;11933,866;  225,939;43314,327;27,17189
 798,33;11946,722;  235,324;43127,963;27,30398
 798,90;12010,731;  264,939;42981,214;27,49723
 799,46;11932,895;  252,401;42522,772;27,63282
 800,03;11948,904;  250,708;42570,485;27,64239
 800,59;11953,452;  264,247;42334,890;27,78471
 801,15;11986,462;  259,709;42172,064;27,97923
 801,72;11996,471;  258,709;41768,699;28,27696
 802,28;11927,558;  272,247;41590,027;28,20895
 802,85;11938,029;  248,324;41492,047;28,34299
 803,41;11944,730;  249,940;41365,375;28,44380
 803,98;11909,355;  245,632;40917,857;28,67737
 804,54;11899,442;  249,863;40654,800;28,83207
 805,11;11951,220;  245,478;40385,513;29,16226
 805,67;11982,230;  271,402;40373,687;29,20240
 806,23;11857,316;  250,863;39949,246;29,23659
 806,80;11866,710;  270,940;39863,343;29,28787
 807,36;11927,335;  275,863;39837,132;29,45171
 807,93;11952,268;  277,402;39479,229;29,78143
 808,49;11858,431;  243,633;39212,634;29,80522
 809,05;11831,210;  234,479;38990,731;29,92222
 809,62;11874,065;  268,171;38935,829;30,01447
 810,18;11905,998;  269,248;38906,695;30,11780
 810,74;11848,315;  233,325;38588,638;30,28261
 811,31;11846,555;  228,864;38424,351;30,41640
 811,87;11821,795;  244,710;38288,063;30,43130
 812,44;11903,036;  273,633;38373,314;30,52362
 813,00;11773,660;  206,787;38039,181;30,57399
 813,56;11899,670;  253,249;38181,509;30,70645
 814,13;11920,679;  251,480;37965,760;30,94106
 814,69;11869,766;  238,864;37852,780;30,92180
 815,25;11852,237;  218,249;37402,646;31,28728
 815,82;11882,862;  261,326;37384,359;31,30546
 816,38;11876,948;  280,711;37139,917;31,46090
 816,94;11793,727;  240,249;36894,322;31,52031
 817,51;11766,428;  218,865;36704,727;31,64942
 818,07;11772,438;  230,173;36415,901;31,89729
 818,63;11802,447;  254,942;36180,614;32,14277
 819,20;11838,611;  246,480;36215,942;32,22770
 819,76;11716,774;  219,788;35852,269;32,26547
 820,32;11751,937;  270,019;35838,290;32,28135
 820,89;11710,178;  259,250;35614,002;32,38865
 821,45;11694,110;  228,865;35311,484;32,68070
 822,01;11669,043;  259,635;35122,427;32,72660
 822,57;11666,437;  251,866;34968,601;32,87916
 823,14;11621,139;  222,327;34700,083;33,06135
 823,70;11631,379;  230,943;34547,565;33,22132
 824,26;11622,927;  227,866;34396,508;33,34947
 824,82;11620,859;  253,481;34222,990;33,46347
 825,39;11592,869;  232,481;34046,626;33,59655
 825,95;11629,109;  253,251;34014,107;33,69541
 826,51;11536,657;  249,635;33684,589;33,75815
 827,08;11661,820;  283,251;33766,917;33,98245
 827,64;11569,291;  262,020;33493,629;34,02565
 828,20;11609,301;  227,943;33295,342;34,41867
 828,76;11664,541;  259,174;33225,670;34,59684
 829,32;11627,550;  262,867;33137,690;34,56957
 829,89;11571,868;  219,790;32910,787;34,72539
 830,45;11664,492;  234,482;32956,500;34,93064
 831,01;11635,810;  240,636;32782,443;35,01703
 831,57;11662,896;  246,944;32631,925;35,25076
 832,14;11665,136;  232,790;32640,407;35,27673
 832,70;11634,069;  229,482;32405,196;35,44470
 833,26;11687,155;  203,021;32310,601;35,76767
 833,82;11690,703;  237,021;32244,621;35,78426
 834,38;11730,866;  230,637;32262,103;35,90291
 834,95;11726,260;  228,406;32021,738;36,16436
 835,51;11663,424;  209,252;32014,759;36,01317
 836,07;11761,126;  239,252;32037,548;36,23425
 836,63;11837,673;  246,406;32006,568;36,49625
 837,19;11758,068;  232,022;31925,819;36,36688
 837,75;11692,385;  205,175;31619,455;36,56684
 838,32;11828,548;  259,329;31716,398;36,77780
 838,88;11813,481;  244,253;31750,495;36,72043
 839,44;11826,875;  251,945;31666,669;36,84556
 840,00;11891,884;  222,099;31582,459;37,21190
 840,56;11846,586;  219,330;31365,941;37,33073
 841,12;11825,518;  221,253;31319,115;37,31532
 841,68;11817,759;  208,022;31134,366;37,53996
 842,25;11830,153;  221,484;31143,694;37,54152
 842,81;11843,316;  214,792;30940,714;37,84597
 843,37;11846,325;  203,407;30873,965;37,96122
 843,93;11900,258;  230,023;30895,062;38,05714
 844,49;11973,191;  241,176;30817,621;38,36945
 845,05;11876,585;  191,869;30641,333;38,37413
 845,61;11946,056;  236,023;30743,046;38,38471
 846,17;11925,450;  219,407;30596,374;38,53592
 846,73;11946,305;  227,561;30595,932;38,58865
 847,29;11895,930;  206,869;30359,029;38,76691
 847,86;11933,017;  216,638;30319,050;38,92173
 848,42;11907,565;  217,023;30150,147;39,05553
 848,98;11983,728;  227,177;30061,782;39,40575
 849,54;11975,045;  216,408;30169,341;39,25705
 850,10;11958,362;  226,793;29957,669;39,45921
 850,66;11919,910;  215,331;29826,612;39,52743
 851,22;12000,381;  210,485;29781,863;39,86928
 851,78;12072,621;  256,254;29847,268;39,93228
 852,34;11981,554;  231,793;29662,827;39,92303
 852,90;12013,102;  221,024;29433,847;40,36610
 853,46;11965,804;  213,870;29369,406;40,30773
 854,02;11970,659;  235,562;29330,041;40,33445
 854,58;11922,284;  221,178;29076,908;40,55037
 855,14;11915,832;  202,870;29011,774;40,65744
 855,70;11880,226;  188,563;28872,333;40,76055
 856,26;11851,851;  231,255;28706,968;40,80880
 856,82;11883,707;  217,871;28629,527;41,06003
 857,38;11885,101;  232,717;28545,316;41,15618
 857,94;11916,725;  217,332;28447,567;41,44278
 858,50;11876,350;  230,794;28301,511;41,48649
 859,06;11830,360;  227,179;28141,608;41,56697
 859,62;11849,831;  235,563;28086,013;41,70226
 860,18;11812,533;  213,948;27986,956;41,76208
 860,74;11816,465;  192,179;27894,284;41,96174
 861,30;11758,013;  197,333;27648,150;42,11416
 861,86;11908,946;  257,410;27749,786;42,38097
 862,42;11832,724;  225,410;27556,652;42,46903
 862,98;11901,272;  251,025;27538,519;42,69446
 863,54;11850,974;  219,718;27348,924;42,87356
 864,10;11922,753;  214,179;27380,867;43,09901
 864,66;11870,685;  202,410;27150,964;43,29833
 865,22;11870,002;  219,872;27017,446;43,47457
 865,78;11871,627;  227,410;26862,620;43,71738
 866,34;11853,791;  210,180;26878,871;43,66023
 866,90;11829,031;  234,103;26742,660;43,74032
 867,45;11842,733;  228,180;26529,757;44,15915
 868,01;11795,896;  216,334;26471,008;44,10476
 868,57;11767,059;  218,488;26288,105;44,29897
 869,13;11754,069;  207,257;26107,741;44,58145
 869,69;11741,001;  227,180;26073,992;44,54639
 870,25;11759,395;  198,334;25914,166;44,95698
 870,81;11759,251;  219,488;25913,494;44,91228
 871,37;11757,645;  222,103;25892,207;44,93765
 871,93;11814,039;  239,565;25735,996;45,39645
 872,49;11766,279;  245,104;25502,785;45,61454
 873,04;11685,827;  209,104;25358,575;45,63405
 873,60;11734,452;  206,181;25287,364;45,96382
 874,16;11704,615;  232,950;25104,769;46,12315
 874,72;11688,615;  215,488;25067,231;46,16629
 875,28;11717,154;  229,335;25103,385;46,18395
 875,84;11740,385;  226,719;24948,615;46,57274
 876,40;11740,846;  207,796;24922,462;46,66480
 876,95;11751,000;  225,950;24930,846;46,65087
 877,51;11834,308;  245,181;24925,077;46,95776
 878,07;11877,692;  261,950;24869,846;47,20331
 878,63;11901,923;  213,565;24810,769;47,51905
 879,19;11935,385;  237,104;24839,154;47,55002
 879,75;12008,077;  216,565;24854,615;47,85895
 880,30;12014,154;  214,719;24934,077;47,73358
 880,86;12147,923;  257,104;25041,077;47,97786
 881,42;12180,308;  210,258;25074,385;48,14185
 881,98;12271,154;  234,335;25065,231;48,47517
 882,54;12333,000;  211,488;25246,000;48,41921
 883,09;12455,231;  236,181;25284,000;48,78289
 883,65;12429,308;  210,258;25268,769;48,76207
 884,21;12657,615;  242,565;25458,538;49,23486
 884,77;12652,462;  206,181;25488,000;49,23016
 885,32;12812,538;  218,488;25703,385;49,41770
 885,88;12913,385;  252,104;25821,308;49,51770
 886,44;12961,769;  225,488;25889,615;49,62678
 887,00;13021,231;  238,027;25979,154;49,66062
 887,56;13137,692;  221,412;25981,385;50,14089
 888,11;13188,538;  223,412;26086,385;50,13007
 888,67;13265,308;  256,258;26192,538;50,15773
 889,23;13281,538;  226,719;26160,769;50,33853
 889,79;13258,231;  202,104;26091,769;50,42988
 890,34;13326,846;  224,258;26095,769;50,64485
 890,90;13446,000;  283,104;26182,154;50,82386
 891,46;13428,154;  223,719;26152,923;50,92495
 892,01;13459,923;  248,719;26115,308;51,07440
 892,57;13446,077;  255,873;26060,923;51,11482
 893,13;13361,462;  233,642;25861,692;51,22442
 893,69;13381,923;  220,873;25798,000;51,45633
 894,24;13444,231;  230,488;25735,077;51,80927
 894,80;13434,462;  240,950;25538,231;52,15387
 895,36;13354,615;  222,796;25436,769;52,08152
 895,91;13333,385;  223,565;25247,000;52,39017
 896,47;13353,538;  229,027;25147,692;52,66940
 897,03;13287,538;  218,873;25030,692;52,67113
 897,58;13240,769;  234,335;24921,923;52,68410
 898,14;13213,769;  230,873;24745,923;52,95888
 898,70;13204,385;  209,258;24557,846;53,37117
 899,25;13226,692;  227,950;24569,846;53,40070
 899,81;13183,077;  241,412;24388,769;53,59454
 900,37;13090,769;  196,642;24264,385;53,57431
 900,92;13159,154;  234,027;24253,615;53,81078
 901,48;13183,385;  221,104;24082,846;54,32244
 902,03;13123,385;  218,642;23990,692;54,28536
 902,59;13088,769;  215,488;23932,077;54,27965
 903,15;13111,538;  236,950;23759,000;54,73413
 903,70;12946,385;  222,950;23520,769;54,61213
 904,26;12947,846;  217,027;23439,000;54,82230
 904,82;12998,385;  230,565;23476,231;54,92559
 905,37;12986,077;  234,642;23271,923;55,35130
 905,93;13009,385;  217,796;23153,077;55,77254
 906,48;12930,615;  222,104;23146,385;55,43690
 907,04;12932,231;  239,104;23028,769;55,69686
 907,60;12757,923;  218,642;22823,769;55,47096
 908,15;12842,538;  223,950;22778,308;55,94745
 908,71;12831,692;  245,412;22727,385;55,98388
 909,26;12756,615;  218,181;22645,385;55,90726
 909,82;12747,538;  242,719;22468,077;56,26375
 910,37;12798,846;  260,719;22397,538;56,63924
 910,93;12662,538;  212,335;22187,385;56,65609
 911,48;12671,462;  203,412;22062,769;57,03759
 912,04;12600,692;  217,258;22000,154;56,84935
 912,60;12710,692;  227,642;21990,462;57,35953
 913,15;12656,308;  228,335;21811,846;57,58087
 913,71;12590,462;  213,027;21601,692;57,86913
 914,26;12534,462;  201,027;21594,231;57,65118
 914,82;12589,154;  225,873;21515,923;58,07070
 915,37;12586,000;  216,873;21474,077;58,18793
 915,93;12602,846;  258,412;21337,846;58,56151
 916,48;12548,000;  218,104;21185,308;58,80563
 917,04;12498,846;  241,719;21087,923;58,79788
 917,59;12562,769;  254,258;21035,538;59,22884
 918,15;12424,308;  195,181;20857,231;59,18642
 918,70;12419,615;  214,258;20725,923;59,50447
 919,26;12412,769;  228,258;20759,538;59,34609
 919,81;12381,154;  212,335;20535,231;59,87739
 920,37;12376,385;  221,488;20466,462;60,03908
 920,92;12330,692;  235,642;20381,308;60,03798
 921,48;12182,231;  199,181;20238,000;59,79918
 922,03;12242,077;  217,488;20179,538;60,23724
 922,59;12171,615;  207,412;20045,923;60,30797
 923,14;12187,615;  219,335;19965,308;60,61125
 923,69;12178,077;  237,565;19844,462;60,89955
 924,25;12127,538;  232,950;19874,231;60,55913
 924,80;12057,077;  229,873;19695,769;60,75859
 925,36;12011,923;  215,181;19641,000;60,72713
 925,91;11961,462;  220,950;19470,077;60,99244
 926,47;11982,538;  191,796;19447,846;61,23137
 927,02;11987,462;  245,335;19319,538;61,56025
 927,57;11933,538;  216,565;19132,615;61,94197
 928,13;11926,692;  209,335;19102,615;62,01865
 928,68;11884,231;  209,873;19068,077;61,90599
 929,24;11823,308;  186,950;18903,154;62,17264
 929,79;11772,846;  205,181;18749,462;62,37861
 930,34;11717,846;  214,873;18672,923;62,31955
 930,90;11669,231;  205,104;18569,154;62,42701
 931,45;11764,308;  222,258;18575,769;62,88742
 932,01;11742,231;  222,950;18471,923;63,12290
 932,56;11637,538;  227,027;18341,846;62,98993
 933,11;11682,692;  236,565;18302,308;63,35819
 933,67;11570,154;  211,104;18164,385;63,27005
 934,22;11557,231;  228,258;18116,385;63,33236
 934,77;11515,692;  234,950;18054,538;63,30529
 935,33;11465,385;  223,950;17880,462;63,66736
 935,88;11436,462;  234,950;17859,000;63,55810
 936,43;11444,692;  215,488;17766,077;63,98192
 936,99;11407,462;  219,565;17629,154;64,26284
 937,54;11321,538;  203,873;17455,231;64,44516
 938,09;11325,769;  221,642;17464,538;64,39827
 938,65;11230,846;  224,796;17387,231;64,12872
 939,20;11283,231;  197,950;17305,538;64,79745
 939,75;11223,769;  199,719;17178,154;64,92972
 940,31;11162,308;  203,642;17127,308;64,75350
 940,86;11135,538;  222,488;17076,769;64,74943
 941,41;11151,000;  285,258;16921,077;65,31534
 941,96;11051,385;  206,412;16901,692;64,95832
 942,52;11091,615;  209,104;16811,231;65,54890
 943,07;10968,538;  191,181;16720,692;65,20070
 943,62;10954,231;  202,412;16572,846;65,67828
 944,18;10951,615;  186,950;16549,077;65,79013
 944,73;10924,308;  220,488;16471,231;65,86665
 945,28;10803,769;  179,488;16238,462;66,15791
 945,83;10858,077;  203,181;16281,769;66,26761
 946,39;10816,000;  212,565;16275,538;66,01166
 946,94;10790,538;  222,027;16181,077;66,22269
 947,49;10738,769;  199,719;16089,231;66,32709
 948,04;10723,692;  230,027;16042,231;66,36434
 948,59;10753,615;  226,488;15986,846;66,79497
 949,15;10664,846;  202,181;15877,077;66,74791
 949,70;10669,231;  201,027;15815,385;67,04217
 950,25;10636,000;  230,412;15687,615;67,31870
 950,80;10608,769;  187,642;15695,538;67,19884
 951,36;10559,538;  187,258;15531,308;67,59806
 951,91;10586,615;  217,719;15578,462;67,50257
 952,46;10485,154;  187,719;15322,154;68,03977
 953,01;10557,231;  226,027;15402,385;68,07433
 953,56;10481,077;  197,642;15262,846;68,25951
 954,11;10493,846;  214,719;15186,000;68,65897
 954,67;10518,077;  205,181;15120,538;69,14280
 955,22;10432,308;  184,027;14942,923;69,43799
 955,77;10471,154;  226,719;14970,615;69,48255
 956,32;10423,846;  252,412;14885,769;69,50855
 956,87;10365,923;  207,104;14778,769;69,71625
 957,42;10333,385;  198,412;14712,615;69,82796
 957,98;10323,846;  196,335;14608,769;70,26926
 958,53;10326,000;  231,873;14586,385;70,32024
 959,08;10216,308;  194,950;14485,615;70,12520
 959,63;10247,154;  203,412;14371,231;70,89124
 960,18;10184,923;  232,335;14404,154;70,22802
 960,73;10216,923;  208,565;14290,769;71,07096
 961,28;10173,615;  186,412;14175,615;71,39222
 961,83;10193,385;  225,258;14118,308;71,74902
 962,39;10079,923;  190,642;13989,154;71,66919
 962,94;10035,462;  220,488;13965,462;71,40773
 963,49; 9981,077;  205,104;13809,231;71,86035
 964,04;10005,846;  224,950;13855,077;71,75939
 964,59; 9914,538;  189,258;13704,846;71,95603
 965,14; 9950,000;  220,873;13630,077;72,55559
 965,69; 9880,154;  206,181;13612,462;72,16001
 966,24; 9833,308;  214,181;13478,692;72,51776
 966,79; 9777,769;  217,412;13381,923;72,62220
 967,34; 9713,077;  193,258;13295,538;72,65773
 967,89; 9706,385;  195,488;13286,538;72,65190
 968,44; 9677,769;  212,258;13162,538;73,09117
 968,99; 9649,769;  214,873;13079,769;73,33830
 969,55; 9618,538;  222,719;13075,923;73,10099
 970,10; 9581,077;  219,873;12964,923;73,44972
 970,65; 9551,769;  229,181;12913,077;73,49941
 971,20; 9532,923;  205,873;12780,154;74,17561
 971,75; 9436,846;  186,873;12637,308;74,29438
 972,30; 9403,692;  209,950;12610,462;74,14002
 972,85; 9388,154;  202,027;12480,154;74,81701
 973,40; 9260,308;  209,104;12370,154;74,42782
 973,95; 9268,000;  211,488;12308,538;74,86546
 974,50; 9292,692;  230,027;12304,308;75,05760
 975,05; 9232,615;  217,412;12175,462;75,39025
 975,60; 9172,000;  227,796;12128,538;75,15669
 976,15; 9144,385;  212,873;12036,154;75,54174
 976,70; 9146,000;  221,335;11990,692;75,82967
 977,25; 9108,923;  221,719;11916,923;75,99016
 977,80; 9025,692;  209,181;11752,538;76,37736
 978,35; 8942,462;  220,719;11651,000;76,30383
 978,89; 8912,077;  200,950;11582,538;76,53700
 979,44; 8911,846;  213,488;11540,692;76,79175
 979,99; 8788,923;  206,335;11445,462;76,36348
 980,54; 8760,615;  229,719;11341,462;76,77370
 981,09; 8703,769;  227,412;11285,692;76,65168
 981,64; 8665,846;  221,027;11144,692;77,30756
 982,19; 8656,538;  249,565;11117,846;77,35329
 982,74; 8593,846;  227,335;11010,769;77,58670
 983,29; 8448,077;  209,565;10892,615;77,11760
 983,84; 8498,846;  217,873;10746,308;78,65341
 984,39; 8476,692;  269,488;10738,538;78,39492
 984,94; 8347,385;  193,642;10578,846;78,51307
 985,49; 8362,692;  243,258;10563,846;78,67221
 986,03; 8284,462;  237,796;10448,923;78,80291
 986,58; 8229,000;  258,719;10339,462;79,06442
 987,13; 8161,846;  225,488;10240,154;79,24736
 987,68; 8083,231;  233,950;10120,692;79,39198
 988,23; 8114,615;  229,873;10080,846;80,04024
 988,78; 7972,308;  217,258;10014,077;79,15886
 989,33; 7958,462;  234,488; 9855,846;80,27945
 989,88; 7912,538;  240,565; 9836,462;79,95056
 990,42; 7838,615;  217,027; 9720,077;80,20150
 990,97; 7737,769;  217,181; 9595,385;80,19221
 991,52; 7717,385;  243,642; 9496,231;80,77461
 992,07; 7677,231;  251,258; 9446,846;80,75582
 992,62; 7621,308;  232,412; 9340,538;81,12421
 993,17; 7514,231;  227,258; 9286,154;80,43997
 993,71; 7474,000;  222,642; 9164,231;81,09697
 994,26; 7410,385;  212,873; 9036,000;81,57552
 994,81; 7338,077;  247,412; 9032,231;80,71498
 995,36; 7234,692;  212,335; 8858,462;81,21969
 995,91; 7252,308;  227,642; 8838,538;81,57880
 996,45; 7173,154;  222,104; 8726,308;81,73663
 997,00; 7033,154;  197,873; 8618,154;81,17640
 997,55; 7043,231;  227,027; 8578,385;81,61791
 998,10; 6951,462;  256,258; 8453,692;81,67438
 998,65; 6946,692;  215,335; 8365,462;82,59206
 999,19; 6837,923;  239,565; 8279,154;82,07333
 999,74; 6787,077;  260,719; 8182,769;82,38218
1000,29; 6755,154;  244,950; 8119,923;82,66954
1000,84; 6674,923;  208,642; 7979,538;83,21152
1001,38; 6629,385;  230,335; 7906,308;83,36467
1001,93; 6550,385;  234,950; 7885,692;82,54669
1002,48; 6449,385;  206,642; 7711,000;83,18823
1003,03; 6451,154;  227,104; 7758,846;82,63759
1003,57; 6362,231;  236,565; 7587,385;83,33310
1004,12; 6289,538;  253,258; 7494,077;83,36461
1004,67; 6221,231;  219,642; 7450,769;82,99659
1005,22; 6118,538;  208,488; 7283,692;83,53187
1005,76; 6034,308;  214,258; 7178,538;83,57001
1006,31; 6024,000;  247,642; 7171,385;83,42826
1006,86; 5969,385;  214,412; 6999,231;84,82132
1007,40; 5867,923;  207,950; 6929,077;84,21167
1007,95; 5846,231;  220,565; 6885,231;84,41032
1008,50; 5697,538;  224,796; 6739,231;84,00947
1009,04; 5684,923;  228,104; 6675,154;84,64056
1009,59; 5592,000;  234,565; 6526,692;85,14505
1010,14; 5518,923;  211,335; 6464,846;84,87373
1010,68; 5479,538;  225,258; 6382,769;85,33124
1011,23; 5358,538;  216,027; 6227,000;85,55206
1011,78; 5339,462;  234,258; 6193,154;85,67365
1012,32; 5283,231;  229,258; 6099,769;86,09085
1012,87; 5240,231;  240,565; 6102,615;85,28869
1013,42; 5179,077;  208,027; 5991,615;85,95096
1013,96; 5189,692;  244,104; 5981,846;86,19398
1014,51; 5108,462;  186,104; 5891,692;86,27257
1015,06; 5116,231;  198,873; 5874,615;86,63814
1015,60; 5176,462;  265,104; 5948,077;86,42233
1016,15; 5131,077;  211,950; 5894,385;86,56724
1016,69; 5163,154;  223,565; 5911,231;86,84738
1017,24; 5114,000;  192,027; 5917,769;85,96218
1017,79; 5175,231;  244,335; 5945,154;86,49452
1018,33; 5181,385;  205,642; 5950,231;86,61617
1018,88; 5173,000;  237,258; 6016,692;85,40182
1019,42; 5232,692;  223,335; 5982,154;86,98585
1019,97; 5195,462;  209,027; 5999,923;86,10817
1020,51; 5200,462;  237,104; 6019,000;85,84308
1021,06; 5223,615;  205,642; 6009,077;86,46557
1021,61; 5212,385;  193,335; 5971,846;86,85714
1022,15; 5143,385;  180,027; 5951,077;86,00441
1022,70; 5183,538;  210,335; 5900,308;87,40294
1023,24; 5143,769;  196,796; 5892,077;86,86092
1023,79; 5131,308;  221,181; 5877,769;86,80368
1024,33; 5024,308;  213,488; 5796,000;86,17661
1024,88; 5001,077;  216,796; 5746,000;86,52748
1025,42; 4919,000;  219,104; 5599,000;87,36035
1025,97; 4878,769;  213,565; 5583,692;86,87325
1026,51; 4754,538;  171,642; 5441,615;86,96242
1027,06; 4742,077;  206,488; 5398,154;87,36288
1027,60; 4707,538;  219,719; 5305,231;88,24715
1028,15; 4636,000;  221,796; 5265,846;87,51309
1028,69; 4535,231;  196,642; 5087,615;88,70604
1029,24; 4494,615;  211,488; 5082,692;87,92748
1029,78; 4450,923;  205,104; 4956,077;89,36736
1030,33; 4348,077;  190,950; 4822,923;89,74851
1030,87; 4335,923;  196,104; 4851,308;88,92885
1031,42; 4252,692;  192,488; 4772,308;88,65424
1031,96; 4225,154;  214,719; 4699,462;89,42397
1032,51; 4153,462;  190,719; 4611,308;89,64287
1033,05; 4082,923;  217,642; 4587,923;88,44468
1033,60; 4013,385;  170,104; 4450,769;89,78232
1034,14; 3991,385;  201,181; 4417,846;89,88628
1034,69; 3954,231;  211,412; 4387,154;89,63243
1035,23; 3937,692;  205,104; 4293,692;91,29284
1035,77; 3841,615;  203,412; 4215,231;90,68713
1036,32; 3803,846;  184,642; 4177,923;90,63234
1036,86; 3781,154;  208,104; 4109,231;91,59020
1037,41; 3722,000;  217,873; 4066,077;91,05877
1037,95; 3657,385;  181,565; 4006,538;90,87173
1038,50; 3641,308;  197,873; 3958,462;91,56638
1039,04; 3590,769;  223,335; 3928,769;90,87826
1039,58; 3511,846;  194,412; 3855,000;90,62572
1040,13; 3484,231;  209,642; 3777,846;91,77134
1040,67; 3502,692;  233,027; 3757,846;92,76122
1041,21; 3428,769;  228,027; 3721,077;91,63173
1041,76; 3350,308;  185,258; 3618,154;92,19766
1042,30; 3306,538;  205,181; 3569,077;92,19541
1042,85; 3289,462;  203,027; 3537,769;92,55392
1043,39; 3231,923;  203,335; 3485,077;92,28599
1043,93; 3189,231;  221,719; 3464,923;91,49938
1044,48; 3188,769;  211,796; 3401,615;93,32733
1045,02; 3125,308;  204,796; 3327,538;93,52394
1045,56; 3110,077;  231,181; 3315,231;93,34791
1046,11; 3067,154;  219,181; 3292,769;92,65954
1046,65; 2993,769;  220,642; 3224,077;92,33186
1047,19; 2961,077;  192,488; 3170,231;92,97609
1047,74; 2882,231;  183,258; 3096,385;92,64866
1048,28; 2901,769;  198,873; 3065,615;94,28459
1048,82; 2885,000;  228,488; 3054,846;93,99063
1049,37; 2831,923;  215,642; 2970,923;94,95514
1049,91; 2787,538;  197,488; 2944,385;94,29006
1050,45; 2781,692;  217,104; 2946,077;93,97632
1050,99; 2729,077;  210,488; 2879,077;94,37905
1051,54; 2700,000;  202,950; 2820,846;95,38384
1052,08; 2656,769;  233,258; 2792,231;94,70641
1052,62; 2617,000;  219,488; 2780,231;93,62565
1053,16; 2572,308;  210,027; 2699,538;94,88933
1053,71; 2579,308;  210,796; 2701,154;95,10728
1054,25; 2520,615;  231,488; 2645,462;94,82819
1054,79; 2508,846;  219,873; 2617,231;95,47900
1055,33; 2448,385;  190,642; 2513,769;97,18549
1055,88; 2443,462;  221,873; 2539,154;95,87049
1056,42; 2437,000;  226,412; 2507,154;96,92408
1056,96; 2391,846;  221,258; 2475,615;96,28412
1057,50; 2373,462;  215,565; 2434,846;97,23403
1058,05; 2311,000;  215,335; 2397,231;96,04790
1058,59; 2294,923;  240,412; 2335,538;98,06144
1059,13; 2249,154;  200,642; 2290,923;98,00174
1059,67; 2251,231;  226,181; 2308,615;97,24435
1060,21; 2202,923;  214,335; 2240,231;98,15846
1060,76; 2162,385;  223,796; 2227,769;96,73725
1061,30; 2148,154;  234,488; 2208,462;96,94486
1061,84; 2116,692;  215,181; 2163,615;97,59176
1062,38; 2064,846;  197,950; 2118,538;97,20438
1062,92; 2109,154;  251,565; 2124,538;99,17860
1063,46; 2048,000;  237,104; 2083,308;98,08755
1064,01; 2014,000;  209,027; 2045,154;98,30328
1064,55; 1986,692;  227,873; 2009,231;98,73476
1065,09; 1942,615;  197,642; 1970,769;98,41219
1065,63; 1973,769;  247,027; 1987,154;99,23083
1066,17; 1945,615;  237,027; 1958,231;99,26706
1066,71; 1927,308;  239,181; 1928,077;99,95445
1067,25; 1880,154;  213,950; 1876,692;100,20818
1067,80; 1887,769;  232,796; 1891,615;99,76814
1068,34; 1856,923;  241,873; 1867,692;99,33761
1068,88; 1821,615;  223,488; 1805,769;101,00148
1069,42; 1831,846;  244,104; 1836,538;99,70534
1069,96; 1784,308;  203,796; 1778,462;100,37126
1070,50; 1787,692;  252,950; 1790,154;99,83987
1071,04; 1732,923;  208,258; 1720,000;100,85485
1071,58; 1708,846;  222,027; 1711,923;99,79348
1072,12; 1709,692;  213,258; 1714,462;99,68231
1072,66; 1686,462;  218,181; 1674,462;100,82402
1073,21; 1689,538;  232,719; 1692,231;99,81553
1073,75; 1639,462;  225,104; 1652,077;99,11593
1074,29; 1617,077;  239,335; 1613,615;100,25188
1074,83; 1637,769;  247,181; 1623,385;101,04524
1075,37; 1620,692;  239,873; 1593,000;102,04654
1075,91; 1579,462;  238,719; 1559,462;101,51430
1076,45; 1559,231;  225,950; 1549,846;100,70886
1076,99; 1564,769;  232,950; 1527,077;102,91257
1077,53; 1530,538;  211,796; 1491,769;103,02891
1078,07; 1512,462;  232,488; 1502,769;100,76301
1078,61; 1491,308;  218,719; 1458,769;102,62396
1079,15; 1470,385;  222,873; 1460,692;100,78301
1079,69; 1455,846;  238,796; 1427,769;102,36144
1080,23; 1473,769;  245,258; 1426,923;103,96442
1080,77; 1494,077;  270,565; 1448,077;103,90654
1081,31; 1417,308;  218,027; 1377,000;103,47788
1081,85; 1405,385;  236,950; 1402,846;100,21773
1082,39; 1394,846;  232,181; 1352,154;103,81190
1082,93; 1402,615;  233,488; 1352,615;104,46777
1083,47; 1341,923;  211,104; 1306,000;103,28096
1084,01; 1353,231;  243,488; 1335,154;101,65590
1084,55; 1319,846;  218,027; 1301,615;101,68244
1085,09; 1341,154;  232,642; 1288,692;104,96771
1085,63; 1309,462;  224,104; 1279,846;102,80517
1086,17; 1282,000;  227,565; 1238,000;104,35456
1086,71; 1272,692;  218,565; 1226,769;104,55494
1087,24; 1295,692;  249,488; 1243,615;105,23846
1087,78; 1263,154;  227,796; 1227,000;103,61827
1088,32; 1223,000;  215,642; 1171,615;105,37511
1088,86; 1251,923;  247,181; 1195,846;105,91114
1089,40; 1221,846;  229,181; 1187,923;103,53829
1089,94; 1190,154;  205,565; 1135,000;105,93413
1090,48; 1191,615;  227,104; 1167,615;102,55180
1091,02; 1186,615;  242,873; 1144,538;104,66658
1091,56; 1156,923;  223,642; 1136,154;102,27605
1092,10; 1136,308;  213,104; 1098,846;104,22939
1092,63; 1165,077;  245,181; 1131,308;103,81088
1093,17; 1138,692;  237,181; 1092,231;105,43378
1093,71; 1111,462;  228,719; 1072,923;104,56507
1094,25; 1107,692;  243,719; 1082,308;103,02706
1094,79; 1079,308;  227,719; 1049,077;103,68059
1095,33; 1085,000;  230,258; 1032,000;106,61060
1095,87; 1063,308;  229,565; 1010,462;106,76737
1096,40; 1044,615;  212,950; 1001,538;105,46254
1096,94; 1046,769;  237,181; 1012,615;104,40448
1097,48; 1040,538;  228,873;  996,615;105,72107
1098,02; 1002,769;  221,027;  976,769;103,44033
1098,56;  980,462;  194,488;  948,462;104,24418
1099,10;  977,154;  199,181;  928,154;106,72178
1099,63;  957,308;  203,719;  937,538;102,69402
1100,17;  971,077;  232,873;  944,154;103,78515
1100,71;  975,154;  248,258;  936,615;105,59861

