
Integration time [ms]: 120,000
Averaging Nr. [scans]: 13
Smoothing Nr. [pixels]: 0
Data measured with spectrometer [name]: 2009305U1
Wave   ;Sample   ;Dark     ;Reference;Reflectance
[nm]   ;[counts] ;[counts] ;[counts] ;[%]

 175,72;  183,934;  183,171;  181,499; 0,00000
 176,32;  215,119;  212,786;  210,387; 0,00000
 176,92;  231,387;  213,864;  225,396;151,94796
 177,52;  244,784;  238,094;  247,611;70,28960
 178,12;  213,090;  215,248;  203,250; 0,00000
 178,72;  254,118;  239,709;  247,813;177,80625
 179,32;  241,262;  229,248;  233,882;259,27103
 179,92;  237,674;  240,786;  219,096; 0,00000
 180,52;  239,108;  223,787;  238,299;105,56921
 181,12;  243,286;  233,248;  227,889; 0,00000
 181,73;  270,877;  254,325;  251,284; 0,00000
 182,33;  316,032;  282,248;  286,145;866,93798
 182,93;  251,661;  244,479;  244,283; 0,00000
 183,53;  224,553;  224,248;  208,403; 0,00000
 184,13;  232,545;  222,478;  215,605; 0,00000
 184,73;  263,684;  240,171;  238,529; 0,00000
 185,33;  251,077;  210,706;  327,657;34,51951
 185,93;  253,434;  219,937;  347,694;26,21944
 186,53;  273,989;  237,475;  346,865;33,37928
 187,13;  284,198;  258,168;  393,677;19,20884
 187,73;  255,609;  212,014;  352,264;31,08396
 188,33;  255,316;  227,706;  360,458;20,79879
 188,93;  271,529;  233,628;  362,831;29,33447
 189,53;  263,728;  234,089;  363,606;22,88438
 190,13;  304,701;  260,934;  388,107;34,41516
 190,73;  243,150;  203,397;  339,792;29,14569
 191,34;  282,404;  243,859;  378,912;28,54116
 191,94;  249,999;  214,629;  343,414;27,46466
 192,54;  283,365;  227,014;  380,813;36,63907
 193,14;  272,652;  246,014;  382,841;19,46837
 193,74;  266,594;  227,322;  363,836;28,76822
 194,34;  267,680;  235,091;  353,477;27,52786
 194,94;  236,145;  201,552;  336,897;25,55884
 195,54;  211,190;  190,322;  321,246;15,93958
 196,14;  239,224;  198,476;  351,258;26,67108
 196,74;  234,547;  204,091;  339,840;22,43544
 197,34;  217,074;  181,476;  341,406;22,25846
 197,94;  241,343;  215,706;  375,169;16,07664
 198,54;  245,367;  215,860;  373,369;18,73339
 199,14;  229,232;  199,168;  387,054;16,00097
 199,74;  215,970;  182,553;  364,766;18,33924
 200,34;  217,056;  176,861;  373,446;20,44682
 200,94;  252,381;  202,861;  429,927;21,80874
 201,54;  224,889;  204,707;  427,367; 9,06428
 202,14;  258,110;  212,707;  454,628;18,76753
 202,74;  248,614;  203,015;  473,441;16,86205
 203,34;  227,010;  180,784;  498,828;14,53446
 203,94;  197,490;  153,476;  484,652;13,29020
 204,54;  280,843;  220,245;  592,293;16,28771
 205,14;  227,605;  177,245;  596,472;12,01256
 205,74;  278,073;  223,784;  688,942;11,67114
 206,34;  251,438;  188,476;  697,642;12,36560
 206,94;  259,536;  198,245;  778,788;10,55753
 207,54;  237,390;  177,784;  810,394; 9,42222
 208,14;  264,773;  196,322;  901,107; 9,71225
 208,74;  269,480;  189,168;  994,839; 9,96835
 209,34;  276,314;  183,092; 1067,047;10,54602
 209,94;  291,519;  206,707; 1176,656; 8,74401
 210,54;  299,301;  195,476; 1276,927; 9,60048
 211,14;  319,890;  199,553; 1415,308; 9,89814
 211,73;  312,158;  191,630; 1526,012; 9,03252
 212,33;  329,182;  214,322; 1621,753; 8,16094
 212,93;  319,697;  192,707; 1742,107; 8,19612
 213,53;  316,141;  172,553; 1786,475; 8,89685
 214,13;  330,915;  175,553; 1827,697; 9,40361
 214,73;  329,725;  167,246; 1897,398; 9,39106
 215,33;  323,289;  140,476; 1933,271;10,19706
 215,93;  355,806;  181,553; 2054,584; 9,30325
 216,53;  333,519;  150,707; 2131,023; 9,23144
 217,13;  409,873;  194,015; 2360,519; 9,96344
 217,73;  414,128;  173,861; 2598,547; 9,90918
 218,33;  395,056;  136,630; 2787,366; 9,74918
 218,93;  443,889;  162,477; 3099,610; 9,58118
 219,53;  492,409;  168,707; 3452,541; 9,85742
 220,13;  496,084;  141,015; 3759,311; 9,81315
 220,73;  555,918;  172,630; 4143,465; 9,65257
 221,32;  602,480;  171,245; 4547,455; 9,85408
 221,92;  643,937;  174,015; 5025,746; 9,68565
 222,52;  691,945;  170,246; 5450,564; 9,88006
 223,12;  730,465;  163,938; 5908,625; 9,86176
 223,72;  778,049;  190,784; 6305,799; 9,60365
 224,32;  838,131;  175,246; 6767,716;10,05519
 224,92;  825,339;  172,938; 7077,475; 9,44887
 225,52;  890,351;  188,553; 7471,962; 9,63557
 226,12;  911,124;  176,399; 7802,994; 9,63372
 226,72;  927,339;  154,169; 8189,265; 9,62241
 227,31;  938,624;  142,169; 8653,639; 9,35743
 227,91; 1026,190;  180,092; 9026,510; 9,56430
 228,51; 1039,761;  169,784; 9504,643; 9,31967
 229,11; 1089,368;  166,630; 9839,632; 9,53931
 229,71; 1114,476;  170,091;10200,923; 9,41481
 230,31; 1161,168;  161,246;10686,092; 9,50059
 230,91; 1200,717;  152,168;10974,430; 9,68881
 231,51; 1234,643;  149,015;11203,306; 9,82088
 232,10; 1294,771;  155,707;11600,223; 9,95292
 232,70; 1293,834;  166,553;11810,708; 9,68109
 233,30; 1356,747;  175,784;12028,600; 9,96356
 233,90; 1350,417;  162,630;12168,667; 9,89324
 234,50; 1373,786;  162,246;12280,571; 9,99759
 235,10; 1369,262;  163,476;12319,475; 9,91926
 235,70; 1409,595;  186,245;12347,292;10,05957
 236,29; 1419,763;  178,245;12297,448;10,24422
 236,89; 1368,425;  154,937;12195,622;10,07823
 237,49; 1407,113;  167,938;12074,335;10,40764
 238,09; 1391,284;  171,784;11798,949;10,48837
 238,69; 1407,808;  182,399;11458,432;10,86738
 239,29; 1337,980;  155,169;11218,156;10,69161
 239,89; 1323,756;  176,937;10846,709;10,74829
 240,48; 1270,646;  169,630;10420,170;10,74105
 241,08; 1246,975;  164,630;10031,778;10,96918
 241,68; 1241,463;  179,476; 9712,341;11,14027
 242,28; 1199,315;  151,861; 9337,968;11,40258
 242,88; 1188,652;  192,477; 9026,794;11,27621
 243,48; 1173,298;  194,399; 8798,469;11,37716
 244,07; 1153,244;  166,630; 8550,269;11,76833
 244,67; 1148,787;  182,938; 8354,686;11,81937
 245,27; 1147,697;  188,630; 8210,166;11,95615
 245,87; 1149,887;  196,861; 8162,847;11,96369
 246,47; 1115,642;  175,399; 8149,484;11,79124
 247,06; 1135,200;  174,476; 8202,574;11,96701
 247,66; 1160,750;  164,015; 8244,712;12,33477
 248,26; 1209,858;  198,784; 8426,541;12,28857
 248,86; 1222,118;  181,322; 8518,062;12,48444
 249,46; 1226,906;  135,861; 8854,825;12,51347
 250,05; 1323,478;  173,476; 9269,822;12,64246
 250,65; 1349,162;  149,091; 9570,834;12,73725
 251,25; 1421,665;  162,169;10048,165;12,74021
 251,85; 1526,029;  179,476;10636,116;12,87750
 252,44; 1585,381;  132,322;11323,445;12,98403
 253,04; 1716,610;  186,707;12023,542;12,92493
 253,64; 1781,616;  135,399;12783,382;13,01565
 254,24; 1968,356;  177,169;13721,802;13,22433
 254,84; 2080,752;  164,092;14643,132;13,23748
 255,43; 2236,483;  169,938;15628,221;13,36853
 256,03; 2409,676;  172,476;16526,904;13,67947
 256,63; 2543,018;  178,014;17606,227;13,56997
 257,23; 2692,966;  158,322;18385,849;13,90558
 257,82; 2847,636;  174,783;19323,090;13,95869
 258,42; 2928,442;  137,014;20176,025;13,92997
 259,02; 3127,400;  173,015;20984,248;14,19611
 259,62; 3218,948;  155,399;21591,412;14,29160
 260,21; 3309,315;  166,630;22012,642;14,38562
 260,81; 3382,572;  173,630;22520,492;14,35970
 261,41; 3452,201;  158,168;22875,153;14,50031
 262,01; 3575,637;  205,629;23376,167;14,54437
 262,60; 3589,197;  157,399;23536,772;14,67874
 263,20; 3677,332;  150,861;23874,102;14,86505
 263,80; 3705,734;  185,783;24055,026;14,74681
 264,40; 3717,864;  161,552;24110,268;14,84970
 264,99; 3773,368;  184,629;24377,812;14,83368
 265,59; 3781,419;  163,398;24459,500;14,89136
 266,19; 3776,164;  149,629;24583,124;14,84247
 266,78; 3855,984;  197,322;24659,235;14,95657
 267,38; 3838,682;  170,398;24639,267;14,99163
 267,98; 3811,536;  154,629;24639,122;14,93560
 268,58; 3806,198;  170,245;24653,642;14,85069
 269,17; 3775,292;  158,398;24666,525;14,75794
 269,77; 3736,479;  180,245;24444,594;14,65621
 270,37; 3692,849;  148,552;24247,825;14,70707
 270,96; 3705,701;  193,399;24130,816;14,67286
 271,56; 3660,380;  154,245;23926,063;14,74912
 272,16; 3627,692;  162,245;23889,059;14,60561
 272,75; 3635,640;  170,322;23650,989;14,75817
 273,35; 3586,080;  165,937;23726,613;14,51632
 273,95; 3584,377;  168,322;23686,010;14,52547
 274,54; 3517,114;  138,169;23729,450;14,32286
 275,14; 3597,236;  188,091;24175,994;14,21193
 275,74; 3560,879;  144,860;24230,498;14,18281
 276,33; 3625,060;  180,245;24646,386;14,07993
 276,93; 3688,915;  172,169;25021,294;14,15240
 277,53; 3753,731;  173,091;25498,006;14,13880
 278,12; 3798,467;  152,707;26106,435;14,04715
 278,72; 3936,661;  186,091;26665,979;14,16384
 279,32; 3983,514;  157,784;27150,952;14,17296
 279,91; 4087,789;  151,322;27900,262;14,18601
 280,51; 4238,119;  171,938;28471,696;14,36825
 281,11; 4303,382;  172,399;29163,252;14,24926
 281,70; 4332,739;  151,553;29518,556;14,23770
 282,30; 4480,611;  152,630;30208,678;14,39970
 282,90; 4596,731;  169,630;30684,548;14,50799
 283,49; 4714,509;  182,168;31053,863;14,68122
 284,09; 4808,702;  192,245;31474,121;14,75761
 284,69; 4926,742;  192,168;31858,801;14,95130
 285,28; 5026,272;  176,014;32165,485;15,16204
 285,88; 5141,119;  197,706;32297,775;15,40001
 286,47; 5192,301;  168,476;32491,681;15,54247
 287,07; 5252,391;  191,784;32507,086;15,66010
 287,67; 5397,683;  180,169;32626,854;16,08027
 288,26; 5515,785;  168,784;32513,825;16,53113
 288,86; 5652,044;  173,014;32684,021;16,85285
 289,46; 5775,187;  178,553;32729,687;17,19336
 290,05; 5936,851;  155,322;32774,299;17,72443
 290,65; 6111,888;  164,707;32982,216;18,12198
 291,24; 6306,550;  176,630;33007,541;18,67119
 291,84; 6480,326;  190,245;33253,458;19,02441
 292,44; 6665,480;  169,169;33447,550;19,52112
 293,03; 6871,616;  220,168;33486,190;19,99472
 293,63; 7000,708;  165,091;33620,999;20,43172
 294,22; 7204,239;  186,322;33801,373;20,87731
 294,82; 7248,943;  179,937;33764,034;21,04867
 295,41; 7299,508;  167,014;33412,479;21,45403
 296,01; 7404,476;  205,245;33320,464;21,73995
 296,61; 7408,340;  180,476;33038,170;21,99748
 297,20; 7429,316;  188,091;32672,414;22,29144
 297,80; 7444,102;  186,707;32441,407;22,50027
 298,39; 7374,414;  170,784;32141,732;22,53180
 298,99; 7409,263;  183,168;31938,365;22,75563
 299,58; 7412,587;  180,938;31816,127;22,85951
 300,18; 7381,645;  201,476;31584,768;22,87895
 300,78; 7282,659;  165,399;31200,462;22,93297
 301,37; 7235,415;  182,168;31190,734;22,74612
 301,97; 7290,011;  183,861;31222,831;22,89428
 302,56; 7206,253;  169,476;31205,280;22,67309
 303,16; 7218,055;  163,476;31191,085;22,73646
 303,75; 7210,744;  176,784;31114,991;22,73551
 304,35; 7231,716;  168,707;31350,484;22,65108
 304,94; 7255,552;  166,168;31361,059;22,72610
 305,54; 7224,480;  190,322;31235,762;22,65762
 306,13; 7146,511;  153,707;31175,260;22,54176
 306,73; 7098,292;  154,553;31004,727;22,50794
 307,33; 7072,493;  189,322;30978,880;22,35553
 307,92; 7069,715;  172,245;31060,277;22,33056
 308,52; 7126,415;  160,245;31489,309;22,23549
 309,11; 7214,241;  166,168;31990,624;22,14672
 309,71; 7227,803;  142,399;32154,441;22,13356
 310,30; 7282,459;  156,015;32451,655;22,06628
 310,90; 7352,075;  172,399;32741,578;22,04439
 311,49; 7317,950;  166,630;32845,099;21,88389
 312,09; 7309,591;  138,476;32954,162;21,85270
 312,68; 7398,064;  198,707;33304,167;21,74674
 313,28; 7387,869;  157,322;33519,969;21,67258
 313,87; 7402,984;  135,784;33641,076;21,68971
 314,47; 7428,327;  150,783;33778,457;21,64153
 315,06; 7390,233;  143,630;33947,494;21,43720
 315,66; 7390,514;  154,553;34182,547;21,26473
 316,25; 7315,334;  135,168;34095,025;21,14310
 316,85; 7251,878;  138,322;34118,918;20,93417
 317,44; 7289,739;  156,322;34209,751;20,94772
 318,04; 7249,984;  145,168;34267,635;20,82152
 318,63; 7177,457;  137,861;34370,386;20,56406
 319,22; 7219,909;  168,091;34463,075;20,56224
 319,82; 7162,820;  158,553;34407,301;20,45116
 320,41; 7100,472;  165,014;34348,698;20,28880
 321,01; 7071,113;  172,399;34476,740;20,11032
 321,60; 7048,130;  166,168;34464,144;20,06521
 322,20; 7029,256;  158,245;34304,428;20,12234
 322,79; 7000,245;  194,322;34479,461;19,85094
 323,39; 6992,766;  162,399;34496,096;19,89406
 323,98; 6856,173;  153,322;34421,378;19,56006
 324,58; 6816,888;  159,168;34150,660;19,58643
 325,17; 6794,655;  162,322;34021,373;19,58807
 325,76; 6719,224;  188,784;33845,507;19,40308
 326,36; 6551,694;  137,630;33418,225;19,27268
 326,95; 6531,232;  178,245;33090,074;19,30305
 327,55; 6433,598;  146,861;32693,656;19,31599
 328,14; 6303,173;  156,938;32330,896;19,10314
 328,74; 6246,131;  192,322;31958,183;19,05759
 329,33; 6074,780;  173,476;31488,041;18,84524
 329,92; 5956,474;  158,706;30943,697;18,83310
 330,52; 5835,979;  166,707;30345,408;18,78567
 331,11; 5711,603;  163,861;29905,111;18,65336
 331,71; 5593,097;  166,322;29255,801;18,65545
 332,30; 5530,782;  187,476;28813,289;18,66604
 332,89; 5368,732;  195,553;28313,255;18,39830
 333,49; 5279,782;  170,861;27794,502;18,49474
 334,08; 5172,048;  168,168;27334,689;18,41929
 334,68; 5083,544;  176,245;26947,204;18,33068
 335,27; 5016,481;  179,707;26650,683;18,27199
 335,86; 4946,757;  195,476;26361,572;18,15816
 336,46; 4879,715;  176,861;26116,833;18,12976
 337,05; 4826,580;  172,322;25995,793;18,02336
 337,65; 4794,632;  155,322;25769,940;18,11196
 338,24; 4792,677;  201,476;25766,401;17,95899
 338,83; 4785,514;  189,015;25673,124;18,03673
 339,43; 4734,567;  152,476;25591,483;18,01207
 340,02; 4712,386;  168,091;25484,249;17,95017
 340,61; 4699,914;  163,015;25579,912;17,84994
 341,21; 4719,900;  202,091;25534,875;17,83384
 341,80; 4714,718;  167,322;25476,525;17,96736
 342,40; 4721,200;  175,553;25560,053;17,90718
 342,99; 4728,809;  175,938;25690,870;17,84395
 343,58; 4796,242;  169,784;25933,503;17,95726
 344,18; 4814,697;  174,399;26018,530;17,95494
 344,77; 4831,198;  162,553;26261,118;17,88851
 345,36; 4883,693;  149,553;26592,844;17,90299
 345,96; 4969,264;  187,861;26856,513;17,92893
 346,55; 5013,537;  160,400;27136,477;17,99052
 347,14; 5088,388;  139,476;27519,568;18,07485
 347,74; 5193,000;  137,784;27876,936;18,22412
 348,33; 5309,992;  165,323;28575,484;18,10856
 348,92; 5448,497;  185,015;29124,871;18,18766
 349,52; 5532,328;  148,015;29469,275;18,36317
 350,11; 5558,512;  164,937;29715,168;18,25223
 350,70; 5670,650;  160,938;29778,243;18,60302
 351,29; 5574,961;  156,629;29507,610;18,46048
 351,89; 5643,845;  171,937;29514,119;18,64860
 352,48; 5691,539;  149,476;29495,574;18,88518
 353,07; 5724,703;  165,246;29502,174;18,95037
 353,67; 5711,963;  187,554;29298,557;18,97705
 354,26; 5704,784;  169,322;29198,689;19,06849
 354,85; 5723,835;  173,861;28970,741;19,27283
 355,45; 5721,317;  150,399;28805,334;19,44139
 356,04; 5718,466;  160,784;28692,279;19,47911
 356,63; 5759,234;  184,630;28458,994;19,71611
 357,22; 5789,969;  172,860;28353,387;19,93259
 357,82; 5739,260;  181,091;28210,235;19,82996
 358,41; 5817,133;  178,245;28111,159;20,18725
 359,00; 5806,348;  164,245;27843,681;20,38373
 359,60; 5864,897;  185,861;27815,511;20,55414
 360,19; 5861,505;  158,246;27634,172;20,75730
 360,78; 5876,532;  174,553;27542,161;20,83477
 361,37; 5904,347;  160,937;27320,950;21,14656
 361,97; 5961,535;  176,784;27186,560;21,41725
 362,56; 5907,763;  161,322;26910,027;21,48306
 363,15; 5964,815;  181,322;26659,384;21,84258
 363,74; 5907,538;  170,399;26184,598;22,05388
 364,34; 5915,291;  198,168;25979,386;22,17553
 364,93; 5857,054;  159,322;25511,144;22,47465
 365,52; 5820,295;  138,553;25208,188;22,66384
 366,11; 5832,513;  162,937;24921,417;22,89953
 366,71; 5805,524;  154,860;24537,306;23,17513
 367,30; 5810,825;  166,784;24201,680;23,48269
 367,89; 5817,471;  199,553;24023,216;23,58125
 368,48; 5802,628;  170,399;23794,408;23,84113
 369,07; 5743,342;  173,015;23281,859;24,10474
 369,67; 5790,833;  188,168;23017,345;24,54168
 370,26; 5743,356;  165,553;22773,207;24,67219
 370,85; 5775,899;  167,399;22625,067;24,97365
 371,44; 5733,852;  161,476;22277,837;25,19572
 372,03; 5754,148;  152,630;22140,045;25,47602
 372,63; 5771,750;  145,399;21815,523;25,96363
 373,22; 5756,294;  168,630;21518,842;26,17147
 373,81; 5691,657;  141,861;21223,101;26,32576
 374,40; 5773,107;  161,707;21009,247;26,91637
 374,99; 5718,604;  157,168;20781,859;26,96494
 375,59; 5722,421;  154,938;20534,143;27,31943
 376,18; 5776,552;  179,630;20421,097;27,65078
 376,77; 5777,219;  171,322;20227,590;27,95085
 377,36; 5818,942;  191,322;20180,321;28,15358
 377,95; 5842,999;  172,937;19926,885;28,70344
 378,55; 5806,728;  157,245;19756,125;28,82554
 379,14; 5854,623;  173,091;19661,047;29,15407
 379,73; 5886,629;  174,014;19578,541;29,43960
 380,32; 5999,085;  180,245;19650,142;29,88634
 380,91; 5958,676;  160,014;19486,425;30,00382
 381,50; 6008,962;  186,630;19382,740;30,33079
 382,10; 5993,470;  152,707;19291,142;30,51850
 382,69; 6093,897;  142,476;19296,378;31,07158
 383,28; 6125,782;  171,783;19217,600;31,26145
 383,87; 6130,836;  170,399;19110,359;31,47017
 384,46; 6166,516;  162,245;19139,472;31,63935
 385,05; 6281,643;  194,783;19071,850;32,24473
 385,64; 6315,974;  163,553;19080,801;32,52281
 386,24; 6336,964;  148,245;19038,817;32,76089
 386,83; 6400,825;  180,783;19149,528;32,79100
 387,42; 6489,911;  179,707;19238,995;33,10829
 388,01; 6586,456;  169,168;19416,876;33,34053
 388,60; 6765,270;  179,706;19714,684;33,71165
 389,19; 6863,821;  158,090;19911,306;33,94754
 389,78; 6984,383;  156,014;20160,257;34,13460
 390,37; 7265,249;  215,629;20571,614;34,63168
 390,96; 7293,961;  180,706;20671,897;34,71372
 391,56; 7422,704;  176,090;20879,472;35,00208
 392,15; 7555,854;  153,167;21092,553;35,35293
 392,74; 7666,414;  147,705;21175,914;35,75535
 393,33; 7858,235;  156,706;21539,789;36,01693
 393,92; 8041,400;  172,936;21887,048;36,23664
 394,51; 8100,695;  151,244;22142,485;36,14826
 395,10; 8322,880;  194,628;22270,973;36,81883
 395,69; 8359,093;  169,551;22377,743;36,87622
 396,28; 8485,071;  179,320;22515,638;37,18496
 396,87; 8527,922;  191,704;22583,463;37,22896
 397,46; 8639,739;  179,627;22687,752;37,58693
 398,06; 8773,804;  192,703;22925,270;37,74805
 398,65; 8817,655;  187,933;22960,944;37,89452
 399,24; 8970,918;  192,471;23135,637;38,26170
 399,83; 8988,962;  168,316;23169,958;38,34790
 400,42; 9152,080;  216,623;23266,877;38,76511
 401,01; 9153,271;  179,852;23475,899;38,51906
 401,60; 9181,318;  198,004;23437,412;38,65552
 402,19; 9226,675;  210,233;23358,363;38,95106
 402,78; 9282,438;  210,385;23310,119;39,27341
 403,37; 9268,061;  211,459;23156,492;39,47086
 403,96; 9268,696;  207,841;23120,391;39,54538
 404,55; 9244,886;  201,454;22897,138;39,84649
 405,14; 9207,791;  189,374;22852,912;39,79262
 405,73; 9197,967;  201,910;22639,562;40,09358
 406,32; 9226,211;  198,754;22621,350;40,26054
 406,91; 9132,370;  210,982;22355,747;40,28667
 407,50; 9123,004;  207,365;22123,502;40,68070
 408,09; 9015,040;  188,980;21905,407;40,64232
 408,68; 8958,334;  210,595;21742,544;40,62679
 409,27; 8970,361;  197,442;21597,196;40,99542
 409,86; 8899,865;  198,136;21477,706;40,89241
 410,45; 8903,948;  231,907;21405,070;40,95770
 411,04; 8896,357;  243,062;21325,546;41,04495
 411,63; 8758,480;  225,910;21062,435;40,95006
 412,22; 8739,859;  225,605;20837,791;41,30690
 412,81; 8667,640;  228,990;20547,291;41,53226
 413,40; 8535,933;  245,606;20252,322;41,43772
 413,99; 8397,594;  270,452;19942,709;41,31271
 414,58; 8259,870;  210,452;19582,555;41,55160
 415,17; 8203,685;  219,913;19389,696;41,64769
 415,76; 8135,021;  218,989;19302,051;41,48198
 416,35; 8075,547;  202,990;19133,064;41,58757
 416,94; 8115,702;  239,912;19210,756;41,51523
 417,53; 8195,444;  218,605;19550,978;41,26156
 418,12; 8193,259;  219,298;19489,900;41,37889
 418,71; 8365,553;  231,298;19826,932;41,51055
 419,30; 8409,547;  216,375;19961,059;41,49559
 419,89; 8495,226;  212,683;20124,690;41,59572
 420,48; 8637,071;  237,760;20372,688;41,71513
 421,07; 8675,947;  234,837;20422,727;41,81274
 421,66; 8662,235;  209,761;20447,536;41,76583
 422,25; 8652,076;  215,761;20373,883;41,85070
 422,84; 8669,096;  246,838;20378,491;41,83590
 423,43; 8521,053;  218,684;20069,740;41,82331
 424,02; 8427,852;  247,607;19809,626;41,81697
 424,60; 8229,262;  218,531;19382,009;41,80207
 425,19; 8150,005;  235,685;19176,931;41,78352
 425,78; 8112,014;  236,223;19195,457;41,54066
 426,37; 8066,211;  245,377;18980,977;41,74317
 426,96; 7999,718;  221,762;18883,382;41,67889
 427,55; 7882,875;  228,993;18723,625;41,38434
 428,14; 7820,722;  208,147;18443,083;41,74720
 428,73; 7720,582;  218,532;18344,665;41,38804
 429,32; 7783,113;  230,839;18341,715;41,70021
 429,91; 7747,510;  261,686;18322,659;41,44752
 430,50; 7659,914;  235,609;18241,690;41,23221
 431,08; 7611,142;  257,532;18009,942;41,42316
 431,67; 7612,652;  289,071;17903,725;41,57664
 432,26; 7445,984;  297,456;17731,963;41,00218
 432,85; 7375,815;  307,533;17389,674;41,37820
 433,44; 7181,456;  306,610;16974,409;41,24627
 434,03; 7060,967;  314,918;16694,036;41,18689
 434,62; 6868,164;  281,071;16362,446;40,96100
 435,21; 6818,010;  306,302;16094,103;41,24519
 435,79; 6685,679;  277,995;15947,839;40,89182
 436,38; 6688,265;  287,534;15921,930;40,94006
 436,97; 6622,454;  287,072;15864,309;40,67076
 437,56; 6517,843;  291,842;15584,452;40,71248
 438,15; 6470,072;  268,996;15555,629;40,56535
 438,74; 6510,525;  291,996;15641,523;40,51284
 439,33; 6477,540;  267,150;15565,525;40,59509
 439,91; 6442,315;  233,458;15690,764;40,16779
 440,50; 6550,673;  278,919;15734,240;40,57990
 441,09; 6533,344;  275,381;15820,822;40,25594
 441,68; 6552,655;  261,228;15835,564;40,39612
 442,27; 6523,709;  261,228;15771,421;40,37655
 442,86; 6493,694;  236,305;15787,760;40,23668
 443,44; 6504,484;  237,228;15775,717;40,33375
 444,03; 6547,884;  282,075;15851,426;40,24451
 444,62; 6456,873;  236,767;15735,921;40,13191
 445,21; 6374,731;  255,382;15540,003;40,03599
 445,80; 6336,419;  272,767;15526,947;39,75076
 446,39; 6252,271;  267,690;15158,056;40,19096
 446,97; 6092,509;  244,998;15033,216;39,54169
 447,56; 6039,786;  249,537;14845,520;39,67015
 448,15; 5973,452;  252,768;14631,229;39,78649
 448,74; 5847,858;  267,075;14373,798;39,56116
 449,33; 5803,233;  246,153;14251,616;39,67795
 449,91; 5705,260;  249,076;14083,002;39,44060
 450,50; 5637,648;  235,384;13843,191;39,69974
 451,09; 5595,934;  265,615;13812,737;39,34650
 451,68; 5541,708;  284,307;13647,941;39,34110
 452,26; 5512,034;  265,307;13606,801;39,32638
 452,85; 5424,922;  253,999;13504,711;39,02373
 453,44; 5447,396;  266,615;13524,806;39,07608
 454,03; 5434,357;  254,846;13525,492;39,02984
 454,61; 5390,295;  243,923;13531,662;38,73023
 455,20; 5489,952;  279,847;13664,994;38,92453
 455,79; 5475,164;  279,077;13633,385;38,90944
 456,38; 5503,909;  268,924;13771,852;38,76926
 456,97; 5517,394;  251,924;13776,747;38,93190
 457,55; 5473,260;  269,078;13783,317;38,50888
 458,14; 5501,784;  282,001;13785,548;38,65491
 458,73; 5470,774;  270,232;13693,635;38,74235
 459,31; 5478,761;  291,694;13783,648;38,44563
 459,90; 5477,347;  288,693;13814,745;38,36044
 460,49; 5542,664;  312,463;13935,830;38,39140
 461,08; 5537,897;  257,232;14019,688;38,37008
 461,66; 5547,417;  278,847;14068,367;38,20706
 462,25; 5546,843;  266,771;14154,062;38,02089
 462,84; 5597,642;  299,078;14145,160;38,26760
 463,43; 5511,476;  244,771;14116,230;37,96792
 464,01; 5578,116;  286,695;14152,755;38,16096
 464,60; 5538,931;  304,463;14045,508;38,09366
 465,19; 5389,753;  246,233;13831,265;37,86167
 465,77; 5408,080;  276,849;13839,663;37,83309
 466,36; 5387,872;  282,464;13694,043;38,06717
 466,95; 5212,497;  277,387;13424,107;37,53872
 467,53; 5130,038;  269,464;13090,945;37,90961
 468,12; 5024,258;  295,080;12760,611;37,93804
 468,71; 4927,060;  279,925;12583,440;37,77079
 469,29; 4824,214;  265,003;12383,993;37,62038
 469,88; 4757,302;  259,465;12214,093;37,62423
 470,47; 4819,173;  318,619;12296,213;37,57478
 471,06; 4735,913;  267,696;12308,691;37,10837
 471,64; 4792,641;  278,311;12370,476;37,33268
 472,23; 4753,956;  251,235;12368,691;37,15896
 472,81; 4762,956;  266,081;12521,810;36,69202
 473,40; 4860,970;  269,773;12653,578;37,07420
 473,99; 4973,223;  340,312;12877,742;36,95264
 474,57; 4953,845;  277,389;13005,946;36,73988
 475,16; 4972,355;  285,696;13097,406;36,58106
 475,75; 5067,711;  291,235;13181,823;37,05398
 476,33; 5085,755;  297,312;13255,323;36,95353
 476,92; 5074,762;  295,927;13370,990;36,54923
 477,51; 5126,400;  300,158;13385,498;36,88282
 478,09; 5065,830;  299,774;13368,441;36,46934
 478,68; 5078,391;  289,081;13298,182;36,81507
 479,27; 5096,362;  307,697;13352,796;36,70854
 479,85; 5077,124;  294,235;13433,670;36,40102
 480,44; 5115,085;  285,389;13601,756;36,26887
 481,02; 5665,957;  288,005;15438,375;35,49716
 481,61; 6367,419;  316,851;17084,798;36,08413
 482,20; 6727,552;  298,159;18110,285;36,09560
 482,78; 6995,283;  324,235;18849,682;36,01019
 483,37; 7166,505;  306,698;19253,245;36,20611
 483,95; 7245,520;  335,313;19463,226;36,12630
 484,54; 7333,443;  348,697;19643,634;36,19989
 485,13; 7225,746;  316,929;19497,037;36,02074
 485,71; 7107,416;  301,159;19198,142;36,01769
 486,30; 7103,385;  329,621;18957,163;36,36424
 486,88; 6905,687;  341,544;18416,207;36,31682
 487,47; 6677,373;  337,467;17737,175;36,43685
 488,05; 6342,807;  327,467;16865,536;36,37269
 488,64; 5879,182;  336,314;15503,584;36,54493
 489,23; 5212,987;  345,621;13492,022;37,02432
 489,81; 4510,927;  344,545;11865,231;36,16436
 490,40; 4268,621;  281,083;11425,018;35,78213
 490,98; 4197,337;  288,160;11176,602;35,90208
 491,57; 4175,237;  314,237;11130,441;35,69644
 492,15; 4148,885;  285,237;11002,897;36,04937
 492,74; 4105,285;  297,544;11009,573;35,54640
 493,32; 4115,486;  301,545;10900,839;35,98298
 493,91; 4053,957;  297,545;10828,959;35,66864
 494,50; 4068,892;  299,084;10771,633;35,99704
 495,08; 3983,195;  286,776;10748,947;35,33128
 495,67; 4026,982;  310,545;10702,795;35,76162
 496,25; 3951,676;  257,545;10533,579;35,94899
 496,84; 3912,527;  264,699;10585,306;35,34509
 497,42; 3912,091;  268,161;10482,905;35,67324
 498,01; 3934,638;  291,006;10475,993;35,77454
 498,59; 3885,605;  249,699;10374,070;35,91242
 499,18; 3842,315;  254,622;10340,512;35,57141
 499,76; 3825,732;  273,391;10231,181;35,67399
 500,35; 3734,027;  271,392;10121,040;35,15492
 500,93; 3690,043;  252,776;10067,503;35,02153
 501,52; 3682,856;  257,545;10059,775;34,94420
 502,10; 3688,881;  282,623; 9954,241;35,21911
 502,69; 3601,784;  254,777; 9833,823;34,94092
 503,27; 3555,401;  250,468; 9611,189;35,30639
 503,86; 3525,912;  259,930; 9601,721;34,96098
 504,44; 3469,615;  248,008; 9468,513;34,93960
 505,03; 3382,473;  229,854; 9218,249;35,07433
 505,61; 3351,162;  238,469; 9078,311;35,21209
 506,19; 3308,602;  271,623; 8951,242;34,98977
 506,78; 3211,951;  236,777; 8811,322;34,69774
 507,36; 3153,138;  253,854; 8641,860;34,56464
 507,95; 3093,632;  262,008; 8500,104;34,37231
 508,53; 3063,960;  253,777; 8395,753;34,51475
 509,12; 2996,027;  242,931; 8277,976;34,26360
 509,70; 3007,132;  262,854; 8088,997;35,06552
 510,29; 2925,773;  265,778; 7942,522;34,65004
 510,87; 2853,783;  246,700; 7789,974;34,56169
 511,46; 2805,755;  233,623; 7615,932;34,84183
 512,04; 2735,398;  263,547; 7493,607;34,18853
 512,62; 2690,185;  257,931; 7326,875;34,40760
 513,21; 2635,974;  229,854; 7221,232;34,41554
 513,79; 2570,505;  237,547; 7096,833;34,01167
 514,38; 2536,928;  231,393; 6940,883;34,36229
 514,96; 2510,085;  265,547; 6841,629;34,13185
 515,54; 2433,583;  219,547; 6745,872;33,92469
 516,13; 2429,536;  246,009; 6630,026;34,20302
 516,71; 2361,835;  241,317; 6546,130;33,63333
 517,30; 2301,404;  234,625; 6462,034;33,18843
 517,88; 2308,148;  259,240; 6327,719;33,76312
 518,46; 2234,444;  230,548; 6266,637;33,19858
 519,05; 2236,432;  240,548; 6181,188;33,59713
 519,63; 2203,185;  249,856; 6167,518;33,00846
 520,22; 2187,990;  259,548; 6058,220;33,25662
 520,80; 2165,590;  244,856; 6018,969;33,26458
 521,38; 2166,867;  256,548; 6006,972;33,22050
 521,97; 2100,964;  244,010; 5955,598;32,51204
 522,55; 2122,545;  258,548; 5976,390;32,59965
 523,13; 2091,230;  226,779; 5969,687;32,46528
 523,72; 2091,495;  242,394; 5943,399;32,43466
 524,30; 2162,986;  254,779; 6089,087;32,70664
 524,89; 2115,564;  227,472; 6052,886;32,41130
 525,47; 2156,450;  246,933; 6186,102;32,15125
 526,05; 2151,876;  228,549; 6243,300;31,97684
 526,64; 2190,072;  250,164; 6329,516;31,90979
 527,22; 2222,778;  265,164; 6482,423;31,48678
 527,80; 2251,475;  278,626; 6567,301;31,37146
 528,39; 2266,336;  250,318; 6682,608;31,34215
 528,97; 2312,487;  242,164; 6859,670;31,28554
 529,55; 2375,714;  263,933; 6989,158;31,40090
 530,14; 2400,476;  266,011; 7157,221;30,97373
 530,72; 2438,148;  251,703; 7269,460;31,15589
 531,30; 2439,307;  242,934; 7435,202;30,53797
 531,89; 2454,438;  242,549; 7456,192;30,66257
 532,47; 2512,081;  280,011; 7594,444;30,51597
 533,05; 2522,583;  272,087; 7625,435;30,60505
 533,63; 2531,157;  283,857; 7652,003;30,50020
 534,22; 2477,345;  243,472; 7701,519;29,95251
 534,80; 2543,239;  267,242; 7728,148;30,50565
 535,38; 2589,864;  314,472; 7805,082;30,37658
 535,97; 2510,919;  252,549; 7795,013;29,94207
 536,55; 2536,928;  302,242; 7824,172;29,70894
 537,13; 2519,247;  313,626; 7844,141;29,28912
 537,71; 2548,724;  343,626; 7872,776;29,28748
 538,30; 2547,846;  349,319; 7932,968;28,99036
 538,88; 2562,668;  380,857; 8051,323;28,44430
 539,46; 2611,052;  418,550; 8198,018;28,18319
 540,05; 2653,585;  432,088; 8354,696;28,03997
 540,63; 2693,434;  472,242; 8517,231;27,60963
 541,21; 2696,409;  491,550; 8629,588;27,09325
 541,79; 2736,848;  513,781; 8749,501;26,99299
 542,38; 2771,754;  531,319; 8872,177;26,86097
 542,96; 2814,459;  537,704; 8979,735;26,96928
 543,54; 2855,974;  551,857; 9216,728;26,59147
 544,12; 2854,219;  531,011; 9315,555;26,44654
 544,70; 2864,518;  522,242; 9409,257;26,35616
 545,29; 2923,503;  522,780; 9566,625;26,54538
 545,87; 2893,078;  491,627; 9585,886;26,40624
 546,45; 2864,422;  471,319; 9588,631;26,24790
 547,03; 2881,403;  453,473; 9734,346;26,16058
 547,62; 2904,106;  451,165; 9819,889;26,18223
 548,20; 2953,101;  439,858;10022,183;26,22791
 548,78; 2953,640;  416,935;10124,352;26,13161
 549,36; 2974,169;  386,550;10315,287;26,06191
 549,94; 2990,768;  370,088;10447,312;26,00596
 550,53; 3035,097;  372,166;10684,473;25,82285
 551,11; 3059,186;  339,858;10855,745;25,85924
 551,69; 3137,232;  344,627;11131,478;25,88897
 552,27; 3130,229;  311,550;11399,117;25,42198
 552,85; 3235,603;  330,628;11778,494;25,37569
 553,44; 3288,867;  320,935;12023,414;25,36157
 554,02; 3382,785;  342,397;12383,767;25,24952
 554,60; 3381,621;  301,858;12710,759;24,81898
 555,18; 3512,223;  319,397;13031,047;25,11732
 555,76; 3538,950;  300,474;13359,195;24,79934
 556,34; 3618,219;  300,243;13727,568;24,71062
 556,93; 3699,105;  305,397;14061,020;24,67143
 557,51; 3733,056;  284,397;14394,752;24,44063
 558,09; 3793,456;  306,320;14773,197;24,10428
 558,67; 3901,131;  316,628;15071,658;24,29343
 559,25; 3956,233;  316,935;15310,318;24,27269
 559,83; 3958,320;  304,551;15671,054;23,77749
 560,41; 4009,811;  302,166;16025,540;23,58046
 561,00; 4086,230;  312,551;16276,745;23,63840
 561,58; 4132,390;  297,012;16558,413;23,58578
 562,16; 4179,605;  292,474;16789,798;23,56219
 562,74; 4223,896;  265,935;17227,359;23,33507
 563,32; 4290,275;  271,243;17595,727;23,19856
 563,90; 4365,142;  299,628;17932,932;23,05588
 564,48; 4421,710;  301,781;18353,974;22,82232
 565,06; 4533,015;  292,474;18942,533;22,73741
 565,65; 4641,235;  300,782;19603,159;22,48663
 566,23; 4815,572;  336,782;20364,721;22,36271
 566,81; 4917,188;  295,935;21026,913;22,29153
 567,39; 5072,310;  308,013;21878,182;22,08743
 567,97; 5214,241;  316,782;22428,309;22,14890
 568,55; 5359,261;  314,090;23185,378;22,05897
 569,13; 5457,332;  303,166;23961,290;21,78603
 569,71; 5604,560;  297,243;24824,778;21,63820
 570,29; 5820,972;  330,704;25715,418;21,62824
 570,87; 5912,561;  330,858;26308,988;21,48616
 571,45; 6021,040;  325,243;26988,925;21,36163
 572,03; 6043,188;  288,551;27402,334;21,22403
 572,61; 6156,204;  284,859;28069,776;21,13141
 573,20; 6275,070;  314,628;28764,715;20,95052
 573,78; 6329,209;  307,320;29309,078;20,76388
 574,36; 6382,174;  304,474;29655,776;20,70675
 574,94; 6418,298;  342,320;29984,716;20,49759
 575,52; 6393,965;  318,629;30330,514;20,24310
 576,10; 6553,995;  343,167;30914,074;20,31614
 576,68; 6559,462;  339,167;31407,742;20,02118
 577,26; 6682,211;  361,090;32016,667;19,96843
 577,84; 6748,322;  354,782;32519,649;19,87740
 578,42; 6767,545;  387,167;32655,540;19,77285
 579,00; 6725,605;  352,551;32802,044;19,63992
 579,58; 6728,970;  371,782;32968,241;19,50269
 580,16; 6720,005;  361,859;33014,253;19,47222
 580,74; 6693,626;  361,551;33214,555;19,27396
 581,32; 6676,296;  358,936;33204,275;19,23366
 581,90; 6621,179;  384,398;33242,651;18,98087
 582,48; 6607,632;  383,859;33392,451;18,85501
 583,06; 6596,818;  378,628;33439,007;18,80859
 583,64; 6565,044;  366,628;33498,321;18,70842
 584,22; 6468,362;  376,782;33263,037;18,52318
 584,80; 6380,075;  384,167;33037,494;18,36232
 585,38; 6282,271;  376,935;32645,407;18,30064
 585,96; 6216,219;  367,859;32843,757;18,00831
 586,54; 6195,614;  376,629;32800,491;17,94662
 587,12; 6156,493;  357,628;32946,432;17,79404
 587,70; 6171,532;  377,551;33074,059;17,72049
 588,28; 6089,063;  371,475;33052,027;17,49538
 588,86; 6078,175;  351,013;33263,252;17,40131
 589,44; 6056,471;  353,475;33215,245;17,35450
 590,02; 6044,531;  354,936;33388,113;17,22388
 590,59; 6008,173;  339,167;33621,273;17,03320
 591,17; 6032,383;  341,244;33833,544;16,99238
 591,75; 5973,760;  343,167;33904,651;16,77695
 592,33; 5995,159;  352,244;34177,576;16,68251
 592,91; 5964,081;  319,629;34430,500;16,54737
 593,49; 5980,409;  318,552;34707,031;16,46440
 594,07; 5963,814;  337,321;34855,736;16,29997
 594,65; 5928,422;  337,167;34843,615;16,20351
 595,23; 5945,529;  337,244;35291,116;16,04482
 595,81; 5933,512;  323,090;35395,733;15,99657
 596,39; 5905,186;  325,167;35478,793;15,87324
 596,97; 5865,212;  336,321;35621,566;15,66913
 597,55; 5842,329;  314,475;35679,770;15,63073
 598,12; 5789,700;  307,552;35635,647;15,51781
 598,70; 5796,455;  310,321;35716,243;15,49496
 599,28; 5772,104;  323,091;35916,989;15,30884
 599,86; 5748,803;  313,321;35837,269;15,30089
 600,44; 5722,062;  291,245;35866,291;15,26581
 601,02; 5700,106;  342,245;36060,291;15,00043
 601,60; 5633,278;  323,552;35937,869;14,90897
 602,18; 5640,717;  309,168;36043,125;14,92012
 602,75; 5564,891;  295,936;36097,970;14,71692
 603,33; 5531,435;  323,706;36054,537;14,57489
 603,91; 5481,023;  294,706;36032,416;14,51217
 604,49; 5495,075;  321,475;36158,237;14,43657
 605,07; 5444,638;  332,629;36173,400;14,26311
 605,65; 5466,916;  339,629;36237,435;14,28301
 606,23; 5428,154;  389,398;36368,239;14,00478
 606,80; 5433,561;  404,936;36416,652;13,96386
 607,38; 5389,848;  438,168;36483,231;13,73747
 607,96; 5376,043;  482,398;36484,819;13,59254
 608,54; 5369,662;  527,937;36436,348;13,48354
 609,12; 5357,518;  511,860;36635,859;13,41396
 609,70; 5274,174;  557,398;36603,537;13,08538
 610,27; 5291,377;  560,321;36689,574;13,09481
 610,85; 5316,753;  556,091;36772,640;13,14499
 611,43; 5258,367;  559,244;36674,276;13,01154
 612,01; 5142,642;  539,706;36359,838;12,85014
 612,59; 5151,547;  526,860;36547,647;12,83894
 613,16; 5118,692;  499,705;36393,278;12,86856
 613,74; 5032,084;  485,475;36337,745;12,68151
 614,32; 5030,368;  444,091;36255,543;12,80673
 614,90; 4990,935;  417,321;36213,067;12,77698
 615,48; 4922,032;  376,936;35892,121;12,79761
 616,05; 4869,520;  366,782;35923,167;12,66365
 616,63; 4796,622;  369,552;35651,827;12,54758
 617,21; 4808,904;  363,859;35594,838;12,61686
 617,79; 4764,539;  360,167;35557,506;12,51337
 618,36; 4723,077;  370,783;35431,544;12,41358
 618,94; 4630,148;  305,013;35123,246;12,42204
 619,52; 4591,860;  339,244;34907,587;12,30206
 620,10; 4550,652;  326,860;34803,461;12,25118
 620,67; 4539,195;  331,628;34701,650;12,24197
 621,25; 4510,036;  328,090;34606,364;12,19999
 621,83; 4476,005;  331,090;34592,828;12,09780
 622,41; 4442,277;  346,090;34534,700;11,98114
 622,98; 4416,027;  346,398;34254,302;12,00201
 623,56; 4377,690;  333,628;34260,994;11,91976
 624,14; 4313,768;  323,860;34284,967;11,74846
 624,72; 4326,960;  334,167;34117,192;11,81893
 625,29; 4228,031;  293,859;34127,432;11,62801
 625,87; 4270,562;  336,936;34114,439;11,64570
 626,45; 4222,119;  297,628;33966,996;11,65597
 627,02; 4165,171;  306,013;33876,620;11,49564
 627,60; 4156,390;  298,552;33792,073;11,51816
 628,18; 4129,903;  299,013;33921,859;11,39371
 628,76; 4091,878;  279,628;33942,142;11,32491
 629,33; 4074,803;  315,013;33912,254;11,19077
 629,91; 4080,959;  311,398;33899,769;11,22282
 630,49; 4086,386;  319,398;34011,718;11,18055
 631,06; 4072,741;  319,705;34205,179;11,07565
 631,64; 4049,585;  312,398;34172,605;11,03711
 632,22; 4004,461;  269,090;34019,319;11,06769
 632,79; 3997,957;  295,474;34318,142;10,88240
 633,37; 4020,864;  289,860;34452,868;10,92118
 633,95; 4001,578;  294,090;34412,538;10,86652
 634,52; 3965,827;  288,244;34578,821;10,72476
 635,10; 3956,525;  282,629;34601,832;10,70507
 635,68; 3975,780;  287,859;34741,285;10,70408
 636,25; 3919,875;  278,090;34737,707;10,56827
 636,83; 3931,417;  270,398;34952,680;10,55588
 637,41; 3930,594;  273,013;34898,211;10,56335
 637,98; 3922,919;  311,320;35188,304;10,35525
 638,56; 3936,236;  301,551;35203,218;10,41407
 639,13; 3928,310;  278,398;35289,987;10,42487
 639,71; 3929,567;  302,475;35420,089;10,32841
 640,29; 3856,421;  247,782;35227,119;10,31649
 640,86; 3878,564;  272,167;35440,988;10,25453
 641,44; 3880,706;  269,167;35409,549;10,27746
 642,02; 3885,080;  292,167;35365,725;10,24394
 642,59; 3874,915;  271,167;35414,363;10,25447
 643,17; 3858,827;  271,013;35476,231;10,19114
 643,74; 3863,970;  261,475;35494,407;10,22480
 644,32; 3850,959;  294,859;35477,353;10,10758
 644,89; 3807,794;  287,705;35436,683;10,01477
 645,47; 3842,091;  294,244;35495,013;10,07889
 646,05; 3798,080;  273,475;35402,343;10,03336
 646,62; 3757,838;  285,167;35401,289; 9,88911
 647,20; 3797,135;  292,629;35611,696; 9,92242
 647,77; 3742,124;  256,629;35327,872; 9,93833
 648,35; 3699,959;  250,398;35338,279; 9,83121
 648,92; 3731,718;  281,244;35367,993; 9,83412
 649,50; 3678,399;  243,167;35303,324; 9,79811
 650,08; 3672,388;  255,321;35232,807; 9,76933
 650,65; 3690,223;  253,398;35544,907; 9,73839
 651,23; 3766,751;  235,783;36403,852; 9,76267
 651,80; 3844,894;  250,013;37197,413; 9,72972
 652,38; 3890,037;  260,859;37493,282; 9,74736
 652,95; 3898,641;  242,398;37862,458; 9,71887
 653,53; 3921,476;  260,859;38029,865; 9,69212
 654,10; 3984,234;  286,244;38120,810; 9,77411
 654,68; 3921,608;  261,936;38109,679; 9,66946
 655,25; 3935,213;  245,629;38243,470; 9,70998
 655,83; 3893,663;  255,244;38135,031; 9,60517
 656,40; 3924,498;  273,475;38132,361; 9,64377
 656,98; 3890,180;  248,475;38142,307; 9,61028
 657,55; 3886,707;  256,244;37827,714; 9,66282
 658,13; 3812,696;  241,398;37573,967; 9,56617
 658,70; 3799,147;  278,629;37236,297; 9,52581
 659,28; 3715,059;  259,013;36275,550; 9,59572
 659,85; 3636,586;  256,398;35687,726; 9,54011
 660,43; 3618,422;  264,090;35925,902; 9,40595
 661,00; 3649,949;  261,860;35945,309; 9,49485
 661,58; 3661,553;  234,783;36358,101; 9,48631
 662,15; 3695,004;  245,937;36428,893; 9,53230
 662,73; 3735,532;  281,552;36687,915; 9,48730
 663,30; 3689,521;  262,783;36894,091; 9,35467
 663,88; 3723,740;  266,629;37070,421; 9,39336
 664,45; 3718,114;  241,783;37299,213; 9,38093
 665,03; 3729,949;  262,552;37691,081; 9,26405
 665,60; 3879,477;  300,937;38088,027; 9,47027
 666,17; 3825,927;  258,860;38193,203; 9,40327
 666,75; 3849,609;  258,014;38429,918; 9,40900
 667,32; 3877,675;  274,321;38684,786; 9,38118
 667,90; 3883,433;  259,860;39003,732; 9,35264
 668,47; 3943,960;  283,475;39285,985; 9,38526
 669,05; 3903,488;  250,014;39530,392; 9,30102
 669,62; 3935,631;  234,860;39695,722; 9,37833
 670,19; 3929,312;  241,937;39679,360; 9,34994
 670,77; 3956,840;  259,783;39862,997; 9,33524
 671,34; 3975,521;  252,783;39769,789; 9,42060
 671,92; 3992,048;  246,937;40082,965; 9,40132
 672,49; 4001,345;  272,398;40071,603; 9,36940
 673,06; 3995,719;  222,244;40156,010; 9,44933
 673,64; 3993,092;  232,860;40005,032; 9,45443
 674,21; 3986,774;  237,783;40079,593; 9,40969
 674,79; 4056,917;  252,629;40166,616; 9,53121
 675,36; 4062,136;  259,091;40471,715; 9,45734
 675,93; 4018,741;  247,706;40281,660; 9,41959
 676,51; 4074,499;  267,629;40500,529; 9,46208
 677,08; 4091,334;  264,552;40585,782; 9,49074
 677,65; 4108,016;  260,398;40705,574; 9,51317
 678,23; 4121,851;  258,014;40927,519; 9,50058
 678,80; 4145,225;  247,860;41093,849; 9,54161
 679,38; 4125,444;  240,706;41104,641; 9,50652
 679,95; 4176,972;  256,783;41393,125; 9,52975
 680,52; 4207,115;  245,629;41644,532; 9,56906
 681,10; 4246,181;  247,783;42074,785; 9,55937
 681,67; 4286,631;  256,937;42335,192; 9,57667
 682,24; 4247,697;  228,860;42364,906; 9,53777
 682,82; 4335,379;  246,937;42918,544; 9,58118
 683,39; 4416,829;  271,629;43194,490; 9,65732
 683,96; 4456,972;  256,245;43395,435; 9,73761
 684,54; 4463,423;  228,552;43829,380; 9,71282
 685,11; 4515,412;  256,629;44079,864; 9,71809
 685,68; 4558,093;  242,860;44525,118; 9,74484
 686,25; 4543,774;  241,629;44535,678; 9,71269
 686,83; 4581,302;  242,014;44732,778; 9,75323
 687,40; 4625,599;  223,937;45041,800; 9,82122
 687,97; 4700,280;  257,014;45277,361; 9,86946
 688,55; 4678,500;  227,322;45353,152; 9,86392
 689,12; 4698,335;  209,014;45620,790; 9,88581
 689,69; 4736,478;  229,322;45676,736; 9,91730
 690,26; 4772,621;  238,552;45715,604; 9,97001
 690,84; 4774,302;  235,322;45970,473; 9,92449
 691,41; 4823,522;  249,168;46014,726; 9,99519
 691,98; 4864,049;  248,629;46377,979;10,00539
 692,56; 4864,731;  235,706;46369,848;10,03384
 693,13; 4943,258;  299,783;46457,331;10,06006
 693,70; 4938,170;  258,937;46553,200;10,10759
 694,27; 4921,005;  250,322;46801,838;10,03337
 694,84; 4939,533;  242,322;46837,629;10,08087
 695,42; 5026,830;  283,014;46911,575;10,17363
 695,99; 5026,665;  254,860;47113,674;10,18337
 696,56; 5038,577;  237,706;46968,696;10,27342
 697,13; 5120,335;  250,245;47337,565;10,34268
 697,71; 5082,786;  222,553;47384,818;10,30534
 698,28; 5148,929;  256,476;47724,456;10,30685
 698,85; 5127,918;  219,553;47792,401;10,31758
 699,42; 5201,830;  213,399;47897,731;10,46136
 699,99; 5241,511;  256,630;48030,677;10,43429
 700,57; 5276,270;  250,014;48016,699;10,52251
 701,14; 5285,951;  233,014;48203,183;10,53350
 701,71; 5341,863;  255,091;48376,359;10,57074
 702,28; 5359,237;  250,168;48458,228;10,59796
 702,85; 5406,456;  258,476;48463,250;10,67940
 703,43; 5454,676;  255,860;48544,426;10,76614
 704,00; 5501,973;  273,399;48919,603;10,74816
 704,57; 5479,500;  253,014;48858,240;10,75293
 705,14; 5546,413;  282,245;49138,263;10,77486
 705,71; 5598,248;  276,783;49143,747;10,88970
 706,28; 5567,006;  252,784;49091,231;10,88123
 706,86; 5651,687;  289,707;49277,330;10,94558
 707,43; 5650,830;  287,322;49280,814;10,94739
 708,00; 5670,665;  277,322;49315,759;10,99820
 708,57; 5650,654;  241,630;49152,705;11,05890
 709,14; 5726,105;  281,860;49398,958;11,08421
 709,71; 5719,863;  260,784;49338,134;11,12342
 710,28; 5779,929;  250,784;49589,541;11,20650
 710,86; 5816,534;  277,707;49746,256;11,19666
 711,43; 5839,369;  279,784;49788,663;11,22947
 712,00; 5901,512;  268,861;49742,531;11,38515
 712,57; 5918,809;  272,937;49988,400;11,35637
 713,14; 5962,336;  256,937;50054,730;11,45713
 713,71; 5990,171;  261,476;49820,137;11,55942
 714,28; 6010,006;  261,091;49978,467;11,56319
 714,85; 5996,842;  244,322;49702,720;11,63103
 715,42; 6021,215;  259,168;49948,435;11,59616
 716,00; 6117,743;  298,322;50085,919;11,68849
 716,57; 6132,039;  247,245;50173,633;11,78694
 717,14; 6145,336;  232,091;50079,656;11,86266
 717,71; 6136,402;  227,476;50137,063;11,83926
 718,28; 6246,853;  257,399;50213,008;11,98955
 718,85; 6251,534;  243,015;50235,492;12,01885
 719,42; 6312,138;  250,553;50372,284;12,09373
 719,99; 6267,974;  245,322;50183,921;12,06011
 720,56; 6352,501;  249,168;50406,098;12,16847
 721,13; 6371,259;  243,015;50505,658;12,19244
 721,70; 6387,172;  250,861;50386,219;12,23949
 722,27; 6445,007;  261,784;50438,088;12,32299
 722,84; 6532,842;  282,707;50505,418;12,44484
 723,41; 6529,908;  247,245;50530,440;12,49456
 723,98; 6551,358;  255,784;50717,770;12,47588
 724,55; 6604,424;  272,245;50878,177;12,51272
 725,12; 6576,260;  207,707;50804,507;12,58687
 725,69; 6653,479;  236,553;50967,299;12,64899
 726,27; 6679,392;  255,553;51014,167;12,65566
 726,84; 6732,919;  256,168;51395,805;12,66483
 727,41; 6786,600;  260,784;51367,520;12,76899
 727,98; 6896,128;  273,861;51686,388;12,88065
 728,55; 6908,732;  287,092;51389,795;12,95752
 729,12; 6918,260;  223,707;51582,279;13,03493
 729,69; 7006,633;  267,245;51871,609;13,05972
 730,26; 7056,161;  267,015;51989,632;13,12607
 730,82; 7034,688;  254,169;51864,885;13,13781
 731,39; 7083,985;  248,784;51890,061;13,23593
 731,96; 7142,205;  241,553;52264,007;13,26476
 732,53; 7227,656;  266,246;52365,952;13,36171
 733,10; 7274,337;  269,399;52501,897;13,41107
 733,67; 7345,787;  266,015;52788,766;13,47944
 734,24; 7285,469;  251,092;52279,788;13,52019
 734,81; 7383,766;  279,246;52444,503;13,61926
 735,38; 7369,216;  257,707;52195,141;13,69245
 735,95; 7337,974;  239,784;52218,163;13,65604
 736,52; 7413,502;  271,861;52254,493;13,73851
 737,09; 7391,722;  262,015;52003,362;13,77952
 737,66; 7471,172;  305,553;52108,615;13,83242
 738,23; 7526,546;  255,553;52167,714;14,00634
 738,80; 7638,843;  283,323;52508,429;14,08426
 739,37; 7621,832;  285,553;52527,528;14,04288
 739,94; 7674,821;  268,246;52735,166;14,11666
 740,51; 7787,271;  319,246;52747,573;14,24426
 741,07; 7693,030;  262,169;52594,518;14,19936
 741,64; 7800,634;  297,861;52835,233;14,28083
 742,21; 7858,777;  264,630;52886,871;14,43144
 742,78; 7817,458;  243,015;52727,893;14,43167
 743,35; 7927,140;  248,630;52924,300;14,57696
 743,92; 8018,436;  289,553;53060,092;14,64621
 744,49; 8058,579;  256,092;52951,499;14,80677
 745,06; 8028,184;  245,169;52863,829;14,79136
 745,63; 8063,942;  246,784;52984,082;14,82283
 746,19; 8092,623;  252,015;53070,181;14,84453
 746,76; 8157,228;  270,553;53072,742;14,93626
 747,33; 8200,140;  255,092;52877,149;15,09832
 747,90; 8338,821;  278,630;53140,095;15,24776
 748,47; 8342,579;  267,938;53004,348;15,31132
 749,04; 8379,107;  272,015;52971,293;15,38369
 749,61; 8420,865;  280,015;52945,931;15,45753
 750,17; 8479,316;  281,784;52988,876;15,55300
 750,74; 8506,920;  277,707;52915,437;15,63368
 751,31; 8481,986;  245,169;52884,460;15,64766
 751,88; 8522,667;  240,323;52720,405;15,78188
 752,45; 8580,195;  248,554;52940,735;15,81191
 753,02; 8527,646;  258,861;52700,373;15,76763
 753,58; 8594,788;  235,246;52709,549;15,93074
 754,15; 8646,085;  251,631;52757,187;15,98775
 754,72; 8662,305;  240,015;52458,055;16,12908
 755,29; 8626,217;  235,784;52465,462;16,06449
 755,86; 8723,898;  256,784;52414,023;16,23382
 756,42; 8758,041;  262,784;52432,584;16,28386
 756,99; 8778,184;  221,707;52363,222;16,41010
 757,56; 8774,019;  233,631;52258,167;16,41608
 758,13; 8774,085;  194,938;52127,805;16,51969
 758,70; 8868,997;  214,708;52317,366;16,61007
 759,26; 8919,756;  196,477;52316,465;16,73692
 759,83; 8961,899;  214,631;52422,103;16,75482
 760,40; 9030,580;  193,400;52283,971;16,96503
 760,97; 9016,261;  200,784;52358,840;16,90147
 761,53; 8981,327;  182,169;51890,093;17,01704
 762,10; 9032,009;  172,938;51917,269;17,12085
 762,67; 9068,921;  226,477;51920,984;17,10519
 763,24; 8994,371;  182,323;51419,006;17,19871
 763,80; 9092,514;  214,400;51575,952;17,28553
 764,37; 9042,965;  219,631;51610,282;17,16914
 764,94; 9050,800;  201,631;51140,920;17,37199
 765,50; 9097,250;  204,785;51089,480;17,47572
 766,07; 9181,009;  246,938;51163,118;17,54662
 766,64; 9156,844;  218,169;50850,064;17,65424
 767,21; 9128,141;  227,938;50685,701;17,63892
 767,77; 9149,745;  240,246;50675,570;17,66520
 768,34; 9199,273;  246,554;50572,131;17,78960
 768,91; 9212,492;  242,323;50451,307;17,86567
 769,47; 9262,789;  239,477;50440,791;17,97426
 770,04; 9264,701;  258,246;50330,505;17,98692
 770,61; 9264,383;  230,785;50175,528;18,08718
 771,18; 9257,987;  220,400;49974,704;18,16443
 771,74; 9346,668;  245,631;50084,496;18,26092
 772,31; 9354,657;  241,246;49954,287;18,33203
 772,88; 9337,262;  222,862;49665,771;18,43419
 773,44; 9336,405;  224,477;49510,870;18,48771
 774,01; 9449,394;  245,862;49596,124;18,64941
 774,58; 9420,690;  220,169;49209,377;18,78071
 775,14; 9526,603;  213,554;49460,630;18,91087
 775,71; 9499,822;  228,785;49308,883;18,88961
 776,27; 9567,350;  261,785;49213,213;19,00979
 776,84; 9621,262;  268,246;49247,928;19,09571
 777,41; 9641,251;  245,785;49065,412;19,24526
 777,97; 9522,394;  225,785;48837,588;19,12418
 778,54; 9646,383;  243,477;48843,303;19,34761
 779,11; 9672,757;  249,169;48852,479;19,38878
 779,67; 9673,207;  219,169;48766,117;19,47401
 780,24; 9657,427;  238,093;48507,524;19,51408
 780,80; 9722,262;  252,708;48536,161;19,61242
 781,37; 9714,713;  238,246;48529,491;19,62357
 781,94; 9713,163;  243,093;48229,821;19,73477
 782,50; 9753,614;  247,246;48162,921;19,83979
 783,07; 9805,834;  264,477;48216,866;19,89756
 783,63; 9789,823;  228,323;48064,350;19,98807
 784,20; 9815,273;  254,016;47904,219;20,06551
 784,77; 9805,185;  243,246;47732,318;20,13503
 785,33; 9791,636;  221,708;47536,417;20,22612
 785,90; 9841,240;  247,016;47506,747;20,30106
 786,46; 9849,691;  261,246;47452,308;20,31835
 787,03; 9835,834;  229,785;47291,869;20,41144
 787,59; 9872,361;  235,708;47221,814;20,50958
 788,16; 9892,504;  238,631;47178,914;20,56629
 788,73; 9859,416;  248,708;46966,859;20,57168
 789,29; 9816,405;  233,170;46615,035;20,66160
 789,86; 9852,471;  254,247;46561,904;20,72708
 790,42; 9861,691;  247,554;46488,772;20,79127
 790,99; 9852,296;  252,939;46064,795;20,95387
 791,55; 9849,515;  230,477;46080,279;20,97945
 792,12; 9906,889;  240,631;46025,224;21,11247
 792,68; 9882,263;  247,247;45743,939;21,17740
 793,25; 9822,483;  250,939;45551,192;21,12912
 793,81; 9810,856;  268,631;45195,907;21,23927
 794,38; 9815,768;  213,170;44951,083;21,46412
 794,94; 9816,219;  232,400;44831,336;21,48889
 795,51; 9890,516;  240,554;44571,589;21,76796
 796,07; 9776,428;  242,785;44336,073;21,62153
 796,64; 9855,032;  261,862;44466,942;21,70151
 797,20; 9821,098;  248,785;44022,118;21,86791
 797,77; 9751,318;  232,631;43751,909;21,87234
 798,33; 9742,153;  225,170;43575,855;21,95348
 798,90; 9822,604;  264,785;43398,646;22,15850
 799,46; 9749,747;  234,401;42987,746;22,25638
 800,03; 9787,505;  246,247;42966,230;22,33441
 800,59; 9750,186;  254,170;42717,560;22,36283
 801,15; 9711,175;  255,093;42462,813;22,40368
 801,72; 9704,626;  253,016;42124,989;22,57264
 802,28; 9716,461;  272,401;41956,242;22,65641
 802,85; 9661,450;  243,478;41778,803;22,67461
 803,41; 9702,824;  241,324;41674,748;22,83543
 803,98; 9687,890;  235,478;41313,771;23,01072
 804,54; 9637,340;  248,631;41031,793;23,02104
 805,11; 9607,560;  252,170;40881,354;23,02628
 805,67; 9656,934;  261,401;40751,838;23,20433
 806,23; 9553,230;  258,785;40263,399;23,23343
 806,80; 9650,835;  267,324;40190,575;23,50387
 807,36; 9661,439;  259,478;40067,674;23,61815
 807,93; 9648,967;  259,785;39838,235;23,72296
 808,49; 9586,648;  215,478;39487,488;23,86221
 809,05; 9501,637;  219,016;39440,818;23,66699
 809,62; 9589,934;  259,170;39292,764;23,90444
 810,18; 9608,000;  253,401;39216,017;24,00917
 810,74; 9582,604;  227,632;38928,732;24,17237
 811,31; 9553,516;  224,785;38704,139;24,24347
 811,87; 9599,736;  230,401;38596,930;24,42060
 812,44; 9626,725;  265,401;38559,260;24,44602
 813,00; 9541,176;  204,170;38246,360;24,54382
 813,56; 9640,011;  243,324;38335,228;24,66846
 814,13; 9689,000;  239,247;38272,404;24,84609
 814,69; 9680,066;  240,093;38069,196;24,95426
 815,25; 9566,901;  217,939;37666,603;24,96474
 815,82; 9633,659;  249,401;37573,702;25,14249
 816,38; 9614,648;  251,709;37450,955;25,16970
 816,94; 9507,945;  232,555;37196,208;25,09327
 817,51; 9516,550;  215,324;37011,154;25,27793
 818,07; 9516,154;  227,016;36753,330;25,43136
 818,63; 9515,220;  243,093;36596,660;25,50541
 819,20; 9528,209;  230,247;36519,144;25,62206
 819,76; 9380,583;  223,786;36052,782;25,55695
 820,32; 9487,726;  259,632;35963,573;25,84615
 820,89; 9466,791;  255,247;35850,057;25,87890
 821,45; 9398,165;  223,709;35493,926;26,01191
 822,01; 9365,923;  251,555;35386,179;25,94127
 822,57; 9381,912;  244,863;35178,586;26,15539
 823,14; 9329,286;  213,247;35004,531;26,20208
 823,70; 9281,044;  219,786;34805,785;26,19921
 824,26; 9282,187;  231,016;34697,576;26,26073
 824,82; 9241,715;  245,170;34549,599;26,22561
 825,39; 9239,627;  223,093;34168,775;26,56165
 825,95; 9227,847;  258,170;34232,028;26,40170
 826,51; 9214,220;  238,016;33845,435;26,70900
 827,08; 9321,209;  279,478;33979,534;26,83002
 827,64; 9280,660;  249,247;33769,864;26,94286
 828,20; 9208,495;  223,709;33572,810;26,94161
 828,76; 9234,792;  246,555;33549,678;26,98917
 829,32; 9159,012;  252,632;33306,701;26,94488
 829,89; 9158,924;  221,632;33214,031;27,08894
 830,45; 9175,451;  221,786;33172,284;27,17308
 831,01; 9161,902;  227,017;32946,152;27,30783
 831,57; 9220,814;  232,786;32854,867;27,55198
 832,14; 9226,880;  224,786;32816,736;27,62061
 832,70; 9186,561;  234,401;32573,989;27,68174
 833,26; 9137,935;  203,632;32526,088;27,64116
 833,82; 9141,924;  231,478;32488,110;27,62361
 834,38; 9180,144;  221,478;32505,671;27,74939
 834,95; 9175,440;  221,786;32347,386;27,87078
 835,51; 9148,430;  196,632;32173,101;27,99495
 836,07; 9205,726;  228,401;32313,892;27,97939
 836,63; 9233,100;  253,555;32253,068;28,06150
 837,19; 9254,089;  226,094;32130,014;28,29745
 837,75; 9199,078;  199,632;31768,652;28,50721
 838,32; 9231,913;  253,171;31872,366;28,39649
 838,88; 9275,133;  247,478;31943,850;28,48167
 839,44; 9245,199;  225,632;31875,334;28,49811
 840,00; 9285,573;  219,555;31828,510;28,68180
 840,56; 9207,869;  214,478;31430,763;28,80993
 841,12; 9231,705;  220,478;31471,170;28,83529
 841,68; 9188,232;  208,324;31292,424;28,88907
 842,25; 9258,221;  213,940;31280,754;29,11236
 842,81; 9236,979;  219,248;31079,314;29,22136
 843,37; 9251,584;  206,248;31096,414;29,28225
 843,93; 9252,034;  211,632;30953,128;29,40781
 844,49; 9333,946;  217,171;31046,382;29,57188
 845,05; 9173,397;  192,171;30882,173;29,26434
 845,61; 9287,463;  226,863;30938,734;29,50195
 846,17; 9275,914;  217,940;30723,910;29,69246
 846,73; 9273,287;  232,940;30740,010;29,63361
 847,29; 9246,353;  198,940;30500,340;29,85807
 847,86; 9262,496;  193,786;30467,208;29,95601
 848,42; 9213,485;  196,325;30241,000;30,01251
 848,98; 9331,166;  213,478;30196,407;30,40960
 849,54; 9306,925;  207,632;30282,506;30,25546
 850,10; 9300,683;  219,555;30178,759;30,31165
 850,66; 9290,057;  205,017;29971,858;30,52067
 851,22; 9312,507;  200,325;29965,881;30,61318
 851,78; 9381,035;  243,709;29982,826;30,72494
 852,34; 9315,562;  218,402;29725,003;30,83093
 852,90; 9349,474;  217,786;29643,563;31,03295
 853,46; 9300,540;  198,094;29476,432;31,08935
 854,02; 9386,760;  221,402;29554,300;31,24600
 854,58; 9326,518;  210,863;29187,707;31,45841
 855,14; 9295,046;  194,786;29233,191;31,33870
 855,70; 9276,727;  183,171;29021,444;31,53294
 856,26; 9358,485;  228,632;28918,544;31,82252
 856,82; 9266,167;  198,555;28771,951;31,73446
 857,38; 9353,387;  220,248;28721,973;32,04416
 857,94; 9287,529;  204,632;28613,303;31,97227
 858,50; 9265,211;  221,555;28481,787;32,00135
 859,06; 9251,815;  208,632;28257,425;32,24090
 859,62; 9327,650;  219,017;28314,370;32,42043
 860,18; 9272,024;  217,248;28077,239;32,50100
 860,74; 9218,475;  189,556;27960,569;32,51203
 861,30; 9164,541;  178,863;27783,437;32,55141
 861,86; 9254,376;  218,786;27802,921;32,75647
 862,42; 9177,211;  219,248;27721,021;32,57231
 862,98; 9283,277;  237,402;27646,351;33,00336
 863,54; 9148,497;  213,940;27492,065;32,75356
 864,10; 9222,101;  219,863;27537,318;32,95416
 864,66; 9173,321;  200,017;27354,341;33,04558
 865,22; 9169,618;  209,940;27168,056;33,23555
 865,78; 9107,453;  229,325;27029,001;33,12774
 866,34; 9109,211;  208,402;26989,869;33,23496
 866,90; 9113,431;  224,325;26884,200;33,34264
 867,45; 9061,112;  218,094;26747,376;33,33305
 868,01; 9081,717;  217,017;26566,475;33,64282
 868,57; 9036,244;  212,556;26332,728;33,78113
 869,13; 8999,618;  190,710;26263,366;33,78600
 869,69; 8988,607;  206,325;26172,927;33,82145
 870,25; 8943,981;  198,940;26036,026;33,84685
 870,81; 8957,739;  214,863;26068,279;33,81710
 871,37; 8948,728;  220,556;25911,071;33,97430
 871,93; 8927,717;  217,633;25782,170;34,07096
 872,49; 8924,937;  215,248;25549,116;34,37963
 873,04; 8848,233;  201,710;25472,907;34,21494
 873,60; 8837,761;  200,479;25333,237;34,36663
 874,16; 8809,442;  217,710;25272,721;34,29147
 874,72; 8835,365;  191,402;25217,183;34,54023
 875,28; 8826,288;  223,940;25143,798;34,52005
 875,84; 8838,904;  206,556;25034,798;34,76826
 876,40; 8844,596;  216,017;25029,490;34,77377
 876,95; 8860,827;  223,710;24973,029;34,89840
 877,51; 8883,442;  239,402;25078,567;34,80004
 878,07; 8862,904;  240,556;25010,567;34,80962
 878,63; 8872,212;  211,940;24988,721;34,95317
 879,19; 8935,365;  228,094;24892,567;35,30289
 879,75; 8955,981;  220,325;24973,413;35,29118
 880,30; 8992,673;  206,479;24980,413;35,46548
 880,86; 9072,673;  248,710;25099,260;35,50812
 881,42; 9050,212;  208,017;25119,337;35,49468
 881,98; 9072,750;  230,248;25235,952;35,36194
 882,54; 9118,981;  206,710;25242,952;35,59748
 883,09; 9215,981;  226,325;25323,644;35,81919
 883,65; 9257,365;  205,325;25445,490;35,86363
 884,21; 9372,058;  241,940;25647,183;35,93793
 884,77; 9366,288;  205,940;25673,875;35,96816
 885,32; 9422,904;  212,094;25774,721;36,03233
 885,88; 9506,058;  250,710;25909,798;36,07045
 886,44; 9594,827;  226,940;26041,721;36,28885
 887,00; 9588,288;  227,863;26016,644;36,29650
 887,56; 9682,827;  213,940;26106,260;36,57025
 888,11; 9696,750;  213,940;26105,260;36,62544
 888,67; 9801,442;  253,710;26298,721;36,65858
 889,23; 9799,673;  225,940;26345,183;36,65394
 889,79; 9749,212;  207,940;26159,106;36,76625
 890,34; 9737,442;  209,940;26132,875;36,75318
 890,90; 9902,981;  264,710;26255,952;37,08276
 891,46; 9802,750;  202,094;26233,952;36,88041
 892,01; 9909,596;  230,248;26169,260;37,31579
 892,57; 9844,827;  250,556;26068,106;37,16182
 893,13; 9810,442;  218,017;25982,029;37,23188
 893,69; 9810,750;  221,094;25864,337;37,39642
 894,24; 9811,827;  216,248;25787,952;37,52421
 894,80; 9794,827;  225,863;25629,490;37,66771
 895,36; 9747,673;  223,402;25504,106;37,67407
 895,91; 9704,212;  210,325;25330,875;37,79331
 896,47; 9735,135;  230,633;25218,644;38,03625
 897,03; 9708,673;  206,710;25082,029;38,19836
 897,58; 9702,212;  230,171;24955,952;38,30836
 898,14; 9674,673;  221,710;24743,029;38,54998
 898,70; 9589,365;  196,710;24705,644;38,32339
 899,25; 9677,135;  214,402;24610,952;38,78718
 899,81; 9618,058;  237,710;24455,183;38,73380
 900,37; 9547,212;  189,940;24256,106;38,88144
 900,92; 9593,673;  212,325;24306,644;38,93593
 901,48; 9572,904;  207,248;24135,952;39,13984
 902,03; 9509,904;  212,171;23913,952;39,22799
 902,59; 9545,904;  211,787;23834,721;39,51295
 903,15; 9475,365;  232,940;23742,106;39,31413
 903,70; 9410,519;  222,171;23576,337;39,34351
 904,26; 9365,750;  188,479;23422,337;39,49956
 904,82; 9432,827;  221,556;23392,106;39,75422
 905,37; 9395,288;  225,787;23196,337;39,91851
 905,93; 9384,135;  210,863;23086,260;40,10104
 906,48; 9347,212;  222,325;23078,721;39,92268
 907,04; 9359,365;  236,787;22954,337;40,15653
 907,60; 9286,519;  201,402;22736,952;40,31460
 908,15; 9303,673;  197,479;22637,644;40,57989
 908,71; 9287,288;  241,556;22671,413;40,32898
 909,26; 9249,519;  202,094;22518,490;40,54160
 909,82; 9255,442;  231,556;22409,798;40,68801
 910,37; 9273,288;  246,787;22344,952;40,84729
 910,93; 9192,288;  203,863;22160,798;40,93661
 911,48; 9153,288;  200,094;21938,952;41,18521
 912,04; 9155,596;  198,633;21960,875;41,15827
 912,60; 9160,519;  219,863;21949,952;41,14413
 913,15; 9092,442;  217,325;21813,183;41,09639
 913,71; 9029,673;  209,863;21646,721;41,14320
 914,26; 9003,519;  198,248;21536,567;41,26506
 914,82; 9004,288;  226,094;21468,644;41,32364
 915,37; 8968,519;  203,710;21371,798;41,40577
 915,93; 9020,981;  239,248;21264,952;41,76665
 916,48; 8956,673;  203,940;21173,875;41,73944
 917,04; 8946,904;  224,325;21094,260;41,79495
 917,59; 8972,673;  232,863;21077,490;41,92836
 918,15; 8851,212;  186,402;20802,490;42,02936
 918,70; 8889,673;  212,787;20725,029;42,30101
 919,26; 8834,904;  209,171;20710,106;42,07483
 919,81; 8757,673;  203,325;20498,644;42,14936
 920,37; 8728,673;  205,787;20391,183;42,22303
 920,92; 8759,058;  217,863;20377,490;42,36782
 921,48; 8698,288;  191,325;20212,875;42,48904
 922,03; 8722,288;  203,017;20186,260;42,63208
 922,59; 8675,442;  202,633;20010,413;42,77516
 923,14; 8668,365;  196,094;19827,183;43,15742
 923,69; 8689,904;  218,556;19851,721;43,14815
 924,25; 8683,596;  217,710;19782,798;43,27037
 924,80; 8548,135;  222,017;19578,183;43,01532
 925,36; 8510,442;  208,787;19509,260;43,01271
 925,91; 8506,135;  200,787;19376,106;43,31270
 926,47; 8501,827;  194,556;19399,490;43,25592
 927,02; 8546,519;  230,940;19277,413;43,65942
 927,57; 8422,135;  203,402;19131,490;43,42083
 928,13; 8436,596;  196,863;19064,952;43,67020
 928,68; 8461,827;  202,479;18981,029;43,98289
 929,24; 8397,212;  181,402;18864,875;43,97367
 929,79; 8358,981;  193,633;18695,413;44,13277
 930,34; 8354,288;  207,710;18587,183;44,32433
 930,90; 8347,904;  188,787;18473,952;44,62151
 931,45; 8377,212;  210,171;18543,952;44,54641
 932,01; 8306,058;  220,787;18395,644;44,48602
 932,56; 8256,596;  220,402;18291,644;44,46952
 933,11; 8279,904;  227,479;18317,798;44,51234
 933,67; 8209,750;  195,094;18096,952;44,76997
 934,22; 8224,750;  200,171;18021,490;45,02797
 934,77; 8191,673;  228,940;17903,644;45,05158
 935,33; 8131,058;  222,787;17863,644;44,82929
 935,88; 8069,673;  220,017;17820,337;44,59951
 936,43; 8027,596;  195,863;17647,875;44,87582
 936,99; 8049,058;  205,633;17630,798;45,01205
 937,54; 7959,212;  208,556;17464,875;44,91488
 938,09; 7990,904;  209,402;17434,644;45,17499
 938,65; 7935,288;  209,171;17293,260;45,22405
 939,20; 7873,212;  194,171;17224,875;45,08939
 939,75; 7797,596;  194,479;17104,721;44,96161
 940,31; 7801,135;  196,325;16949,567;45,39306
 940,86; 7849,212;  213,248;17014,952;45,44755
 941,41; 7818,827;  238,940;16936,260;45,39583
 941,96; 7776,135;  199,094;16788,567;45,67379
 942,52; 7706,827;  212,787;16746,260;45,32647
 943,07; 7679,058;  182,787;16597,490;45,66803
 943,62; 7682,442;  199,787;16518,952;45,85195
 944,18; 7649,058;  192,171;16423,029;45,94265
 944,73; 7611,981;  200,863;16363,798;45,85255
 945,28; 7561,827;  171,171;16198,413;46,11308
 945,83; 7579,596;  205,556;16231,721;46,01251
 946,39; 7585,442;  199,787;16125,337;46,37614
 946,94; 7597,519;  228,248;16070,875;46,51546
 947,49; 7539,519;  202,787;15946,952;46,59969
 948,04; 7514,981;  203,402;15838,029;46,76529
 948,59; 7527,058;  218,787;15863,567;46,71380
 949,15; 7473,442;  191,017;15765,875;46,75757
 949,70; 7418,058;  201,325;15664,029;46,67187
 950,25; 7416,442;  229,556;15622,875;46,68835
 950,80; 7410,442;  174,940;15543,337;47,08040
 951,36; 7412,365;  181,325;15419,337;47,45396
 951,91; 7453,365;  217,248;15413,106;47,61901
 952,46; 7328,981;  173,479;15229,644;47,52539
 953,01; 7364,058;  222,940;15262,183;47,48323
 953,56; 7361,288;  189,248;15112,567;48,05928
 954,11; 7330,750;  208,633;15081,413;47,88692
 954,67; 7303,365;  199,863;15016,490;47,94277
 955,22; 7272,442;  182,633;14851,952;48,33087
 955,77; 7270,981;  216,710;14831,875;48,26679
 956,32; 7268,750;  240,479;14776,567;48,35050
 956,87; 7173,596;  187,325;14598,875;48,47689
 957,42; 7166,827;  193,402;14635,106;48,28672
 957,98; 7165,212;  206,017;14444,644;48,87546
 958,53; 7131,827;  214,940;14448,413;48,59592
 959,08; 7105,135;  193,863;14347,490;48,83039
 959,63; 7083,058;  195,094;14238,875;49,04636
 960,18; 7084,827;  210,556;14229,875;49,03427
 960,73; 7060,673;  213,940;14161,413;49,08941
 961,28; 7029,058;  183,940;14082,106;49,25195
 961,83; 7058,827;  223,633;13983,798;49,67378
 962,39; 6975,596;  188,017;13891,260;49,53265
 962,94; 6973,365;  201,940;13811,567;49,75467
 963,49; 6914,673;  196,171;13663,260;49,88830
 964,04; 6912,212;  215,094;13731,721;49,54725
 964,59; 6891,981;  181,787;13604,413;49,99166
 965,14; 6880,365;  209,940;13541,260;50,03575
 965,69; 6874,750;  204,017;13393,875;50,57471
 966,24; 6757,212;  195,479;13347,567;49,89118
 966,79; 6789,673;  204,940;13269,952;50,39975
 967,34; 6717,212;  185,094;13161,337;50,33905
 967,89; 6746,904;  194,556;13100,106;50,77155
 968,44; 6681,750;  203,556;13037,106;50,47858
 968,99; 6649,519;  204,556;13015,337;50,30890
 969,55; 6642,365;  208,710;12906,875;50,66603
 970,10; 6582,365;  205,094;12817,875;50,56198
 970,65; 6573,673;  213,479;12672,721;51,04800
 971,20; 6512,981;  197,248;12628,337;50,80595
 971,75; 6465,904;  181,094;12530,183;50,89290
 972,30; 6476,904;  199,787;12455,721;51,21696
 972,85; 6414,519;  194,863;12424,644;50,85664
 973,40; 6382,981;  192,710;12253,952;51,32366
 973,95; 6345,135;  202,787;12208,952;51,15995
 974,50; 6313,135;  211,787;12115,029;51,25787
 975,05; 6256,981;  219,094;12072,183;50,93935
 975,60; 6271,904;  215,633;11933,567;51,68378
 976,15; 6231,904;  200,017;11908,721;51,51626
 976,70; 6230,365;  211,402;11871,567;51,61988
 977,25; 6193,750;  214,248;11739,490;51,88179
 977,80; 6116,135;  198,787;11615,183;51,83201
 978,35; 6106,673;  218,940;11535,106;52,02940
 978,89; 6052,135;  182,402;11439,413;52,14290
 979,44; 6056,673;  214,171;11413,260;52,16944
 979,99; 5978,365;  188,479;11228,644;52,44384
 980,54; 5960,596;  228,479;11211,875;52,18893
 981,09; 5950,827;  218,248;11091,490;52,72189
 981,64; 5893,212;  211,863;10941,490;52,95010
 982,19; 5882,673;  240,017;10947,952;52,69602
 982,74; 5843,288;  221,402;10811,490;53,08630
 983,29; 5780,981;  189,171;10639,106;53,51047
 983,84; 5737,442;  219,863;10629,490;53,00458
 984,39; 5786,058;  236,017;10534,798;53,89027
 984,94; 5649,288;  185,787;10456,721;53,19381
 985,49; 5660,212;  227,171;10366,029;53,58632
 986,03; 5649,519;  225,171;10315,644;53,75712
 986,58; 5606,212;  232,171;10171,413;54,06891
 987,13; 5557,442;  210,710;10096,183;54,08677
 987,68; 5498,827;  216,094; 9977,644;54,11777
 988,23; 5471,442;  213,171; 9938,106;54,06999
 988,78; 5385,904;  207,710; 9808,106;53,93730
 989,33; 5369,904;  211,402; 9716,183;54,27271
 989,88; 5355,058;  230,325; 9693,337;54,15541
 990,42; 5280,519;  215,094; 9509,644;54,49887
 990,97; 5241,365;  212,787; 9416,029;54,63921
 991,52; 5229,673;  231,402; 9359,721;54,75566
 992,07; 5137,750;  240,940; 9281,798;54,16311
 992,62; 5112,058;  219,940; 9184,413;54,57228
 993,17; 5049,135;  218,248; 9060,952;54,63133
 993,71; 5023,365;  206,017; 8998,183;54,79137
 994,26; 4916,904;  199,402; 8851,721;54,52298
 994,81; 4974,827;  228,402; 8805,798;55,33643
 995,36; 4847,058;  207,171; 8664,337;54,86338
 995,91; 4876,981;  226,940; 8650,260;55,20437
 996,45; 4814,673;  230,171; 8498,952;55,44351
 997,00; 4723,750;  189,710; 8421,567;55,07919
 997,55; 4712,519;  215,940; 8409,260;54,88104
 998,10; 4702,904;  238,710; 8309,260;55,31462
 998,65; 4715,904;  207,787; 8207,260;56,35518
 999,19; 4606,981;  230,325; 8105,029;55,57867
 999,74; 4587,212;  242,787; 8005,798;55,96314
1000,29; 4574,058;  228,248; 7968,029;56,14900
1000,84; 4500,212;  207,633; 7833,413;56,29035
1001,38; 4432,058;  205,633; 7760,029;55,94656
1001,93; 4465,365;  224,094; 7710,875;56,65013
1002,48; 4369,750;  201,248; 7571,644;56,55737
1003,03; 4364,135;  211,402; 7472,413;57,19221
1003,57; 4303,904;  230,787; 7466,337;56,29313
1004,12; 4300,673;  229,556; 7342,106;57,23851
1004,67; 4246,135;  219,325; 7247,413;57,29594
1005,22; 4169,673;  204,094; 7172,413;56,90869
1005,76; 4119,519;  202,787; 6985,106;57,74916
1006,31; 4142,288;  233,325; 6978,183;57,95472
1006,86; 4057,596;  208,479; 6873,567;57,75043
1007,40; 3998,365;  188,556; 6764,567;57,93496
1007,95; 3979,827;  213,402; 6677,413;58,26761
1008,50; 3941,596;  221,171; 6610,029;58,23302
1009,04; 3893,365;  221,171; 6487,490;58,60209
1009,59; 3807,135;  228,094; 6370,798;58,26490
1010,14; 3760,904;  197,787; 6267,029;58,70778
1010,68; 3750,827;  204,556; 6195,029;59,19852
1011,23; 3667,750;  204,094; 6110,644;58,64093
1011,78; 3642,981;  231,787; 6060,490;58,52406
1012,32; 3587,750;  206,787; 5949,183;58,87722
1012,87; 3577,596;  239,479; 5983,721;58,11240
1013,42; 3505,827;  203,171; 5806,952;58,93621
1013,96; 3548,596;  231,863; 5820,183;59,35117
1014,51; 3459,596;  182,094; 5744,490;58,92248
1015,06; 3496,442;  185,633; 5719,567;59,82741
1015,60; 3525,827;  248,402; 5781,567;59,23237
1016,15; 3496,365;  213,248; 5750,413;59,29238
1016,69; 3499,135;  216,556; 5796,952;58,82340
1017,24; 3495,212;  184,556; 5771,106;59,26119
1017,79; 3568,904;  228,940; 5855,260;59,36321
1018,33; 3516,673;  194,017; 5813,952;59,12268
1018,88; 3575,365;  221,325; 5881,413;59,25774
1019,42; 3575,212;  211,787; 5827,260;59,89567
1019,97; 3593,442;  201,171; 5846,567;60,08916
1020,51; 3591,750;  209,787; 5852,567;59,93434
1021,06; 3553,212;  195,710; 5831,183;59,57800
1021,61; 3578,288;  176,248; 5805,798;60,43184
1022,15; 3583,365;  169,710; 5779,260;60,85436
1022,70; 3560,135;  207,863; 5738,260;60,61539
1023,24; 3526,519;  203,094; 5718,567;60,25639
1023,79; 3529,519;  209,863; 5678,029;60,70877
1024,33; 3490,365;  206,094; 5598,567;60,90473
1024,88; 3454,212;  200,325; 5564,875;60,65535
1025,42; 3404,135;  200,787; 5434,260;61,20884
1025,97; 3357,827;  197,556; 5404,183;60,69709
1026,51; 3277,135;  167,863; 5260,721;61,05160
1027,06; 3296,519;  201,402; 5256,413;61,22869
1027,60; 3259,288;  219,940; 5126,260;61,94762
1028,15; 3232,365;  213,787; 5057,567;62,31865
1028,69; 3154,904;  166,325; 4957,952;62,37086
1029,24; 3146,212;  195,556; 4895,490;62,78078
1029,78; 3069,058;  188,171; 4799,413;62,47528
1030,33; 3012,981;  182,248; 4735,413;62,17065
1030,87; 2988,673;  203,556; 4670,567;62,34856
1031,42; 2934,058;  182,402; 4575,644;62,63383
1031,96; 2933,442;  204,094; 4533,490;63,04223
1032,51; 2869,673;  191,402; 4461,106;62,72733
1033,05; 2862,827;  209,017; 4396,644;63,37264
1033,60; 2785,212;  167,094; 4307,952;63,22645
1034,14; 2755,365;  187,787; 4270,490;62,88918
1034,69; 2737,904;  196,017; 4204,875;63,40675
1035,23; 2697,212;  201,325; 4127,337;63,57308
1035,77; 2670,519;  195,248; 4086,875;63,60505
1036,32; 2607,519;  180,863; 3994,721;63,62733
1036,86; 2583,596;  191,402; 3990,260;62,97141
1037,41; 2546,673;  211,402; 3923,875;62,90338
1037,95; 2510,596;  180,402; 3849,567;63,50747
1038,50; 2490,673;  193,710; 3775,490;64,12909
1039,04; 2499,212;  197,248; 3757,183;64,66308
1039,58; 2405,673;  175,479; 3676,490;63,70142
1040,13; 2406,673;  205,325; 3654,644;63,81978
1040,67; 2409,827;  221,556; 3636,875;64,07223
1041,21; 2368,827;  214,556; 3559,337;64,40695
1041,76; 2334,288;  186,863; 3480,260;65,20397
1042,30; 2279,827;  201,325; 3445,721;64,06437
1042,85; 2242,365;  200,940; 3411,644;63,58185
1043,39; 2206,288;  183,787; 3333,413;64,21402
1043,93; 2207,904;  209,094; 3293,875;64,79584
1044,48; 2175,981;  194,787; 3258,490;64,66664
1045,02; 2119,442;  189,710; 3218,952;63,70348
1045,56; 2131,673;  205,171; 3147,029;65,48590
1046,11; 2108,673;  211,017; 3160,721;64,33377
1046,65; 2062,827;  211,633; 3081,721;64,49955
1047,19; 2041,750;  195,171; 3032,260;65,08711
1047,74; 2001,365;  174,863; 2982,644;65,05144
1048,28; 2004,288;  203,479; 2948,721;65,59747
1048,82; 1975,519;  213,171; 2913,644;65,26072
1049,37; 1950,673;  198,633; 2848,798;66,11061
1049,91; 1906,365;  187,556; 2830,029;65,04549
1050,45; 1916,212;  216,940; 2804,875;65,66129
1050,99; 1895,673;  194,171; 2731,875;67,04888
1051,54; 1810,981;  186,017; 2703,337;64,55135
1052,08; 1842,519;  209,171; 2685,567;65,95666
1052,62; 1812,365;  213,710; 2647,952;65,67365
1053,16; 1780,904;  187,556; 2579,106;66,62408
1053,71; 1754,596;  211,556; 2577,875;65,20846
1054,25; 1743,750;  220,248; 2506,029;66,65127
1054,79; 1721,135;  204,710; 2495,337;66,20131
1055,33; 1684,519;  184,633; 2396,029;67,82532
1055,88; 1681,519;  219,325; 2415,029;66,59342
1056,42; 1691,365;  228,787; 2402,029;67,29939
1056,96; 1640,135;  204,248; 2364,260;66,47587
1057,50; 1603,519;  204,402; 2296,490;66,87658
1058,05; 1598,750;  202,710; 2267,260;67,61960
1058,59; 1575,442;  221,787; 2261,337;66,37032
1059,13; 1527,365;  178,633; 2165,644;67,87745
1059,67; 1556,904;  219,094; 2172,337;68,49174
1060,21; 1496,135;  202,325; 2140,490;66,75435
1060,76; 1504,288;  224,479; 2098,106;68,30653
1061,30; 1494,596;  222,094; 2104,413;67,60288
1061,84; 1446,596;  206,402; 2034,337;67,84675
1062,38; 1417,058;  194,556; 2015,183;67,14731
1062,92; 1451,212;  233,556; 2021,490;68,10404
1063,46; 1405,288;  224,940; 1987,567;66,96528
1064,01; 1368,212;  203,940; 1956,183;66,44464
1064,55; 1351,673;  218,787; 1921,260;66,54358
1065,09; 1330,135;  174,633; 1871,567;68,09349
1065,63; 1366,288;  239,787; 1908,413;67,51071
1066,17; 1355,750;  234,556; 1874,183;68,38106
1066,71; 1320,750;  231,940; 1841,106;67,66300
1067,25; 1278,135;  206,787; 1790,567;67,64497
1067,80; 1318,135;  229,094; 1806,337;69,04712
1068,34; 1291,827;  242,248; 1804,798;67,17090
1068,88; 1250,750;  204,556; 1720,798;68,99915
1069,42; 1265,596;  232,325; 1768,183;67,27649
1069,96; 1219,904;  215,325; 1681,798;68,50305
1070,50; 1253,673;  242,479; 1699,798;69,38728
1071,04; 1190,519;  202,863; 1656,952;67,92267
1071,58; 1170,673;  210,402; 1637,029;67,31060
1072,12; 1181,519;  212,863; 1590,337;70,32121
1072,66; 1178,212;  205,248; 1609,183;69,30262
1073,21; 1169,135;  218,248; 1587,413;69,45009
1073,75; 1145,442;  218,863; 1577,952;68,17649
1074,29; 1137,288;  220,556; 1557,952;68,54608
1074,83; 1138,827;  236,094; 1548,106;68,80524
1075,37; 1123,981;  220,863; 1498,106;70,70838
1075,91; 1100,596;  231,094; 1511,875;67,88843
1076,45; 1091,288;  219,863; 1453,721;70,62605
1076,99; 1083,519;  225,094; 1467,952;69,06865
1077,53; 1040,135;  210,479; 1436,644;67,66263
1078,07; 1063,058;  223,787; 1420,413;70,13641
1078,61; 1053,442;  212,863; 1393,798;71,17912
1079,15; 1031,596;  219,940; 1392,567;69,21688
1079,69; 1030,904;  220,402; 1379,798;69,90725
1080,23; 1031,135;  231,710; 1368,721;70,30931
1080,77; 1043,750;  229,017; 1335,875;73,60772
1081,31;  992,442;  204,325; 1310,567;71,24274
1081,85;  988,135;  221,402; 1309,721;70,45108
1082,39;  970,212;  211,325; 1302,644;69,53846
1082,93;  976,058;  210,248; 1285,183;71,24244
1083,47;  961,596;  199,094; 1256,106;72,13752
1084,01;  974,827;  225,940; 1275,260;71,36880
1084,55;  932,058;  204,556; 1221,721;71,52248
1085,09;  934,673;  225,710; 1241,413;69,80021
1085,63;  918,442;  210,171; 1208,798;70,92450
1086,17;  902,058;  207,325; 1201,337;69,89181
1086,71;  894,827;  221,402; 1164,644;71,39470
1087,24;  913,365;  238,787; 1193,798;70,63567
1087,78;  890,904;  221,479; 1138,490;73,00072
1088,32;  859,135;  216,863; 1125,106;70,71584
1088,86;  900,212;  230,094; 1142,567;73,43968
1089,40;  867,442;  220,325; 1095,644;73,92929
1089,94;  836,904;  191,940; 1073,260;73,18159
1090,48;  836,442;  219,633; 1074,413;72,15998
1091,02;  845,673;  221,017; 1087,260;72,11097
1091,56;  852,058;  220,633; 1065,337;74,75105
1092,10;  800,058;  201,787; 1040,721;71,31320
1092,63;  824,827;  228,940; 1049,260;72,64081
1093,17;  811,288;  221,787; 1028,260;73,09629
1093,71;  791,365;  214,479; 1032,029;70,56284
1094,25;  794,212;  234,017; 1031,029;70,28684
1094,79;  787,519;  212,556;  997,183;73,27858
1095,33;  785,981;  222,017;  975,875;74,81033
1095,87;  764,212;  220,171;  966,567;72,88896
1096,40;  732,212;  201,863;  945,413;71,32648
1096,94;  753,135;  222,633;  958,952;72,04782
1097,48;  758,596;  212,402;  945,183;74,53719
1098,02;  737,442;  218,940;  938,490;72,05919
1098,56;  692,058;  186,171;  901,029;70,76745
1099,10;  700,673;  196,479;  893,260;72,36053
1099,63;  694,750;  198,940;  898,183;70,90670
1100,17;  709,596;  225,787;  887,029;73,16677
1100,71;  712,904;  221,940;  896,721;72,75896

