
Integration time [ms]: 150,000
Averaging Nr. [scans]: 13
Smoothing Nr. [pixels]: 0
Data measured with spectrometer [name]: 2009305U1
Wave   ;Sample   ;Dark     ;Reference;Reflectance
[nm]   ;[counts] ;[counts] ;[counts] ;[%]

 175,72;  214,707;  219,771;  228,149;-60,44480
 176,32;  245,439;  243,540;  245,741;86,27587
 176,92;  281,393;  279,310;  276,351; 0,00000
 177,52;  269,404;  275,694;  275,625; 0,00000
 178,12;  266,025;  247,848;  237,671; 0,00000
 178,72;  289,131;  283,232;  275,907; 0,00000
 179,32;  275,120;  273,156;  272,153; 0,00000
 179,92;  274,375;  272,771;  263,888; 0,00000
 180,52;  262,184;  246,926;  261,484;104,81340
 181,12;  284,678;  277,617;  270,726; 0,00000
 181,73;  290,346;  289,079;  292,196;40,63224
 182,33;  399,728;  381,387;  410,818;62,31722
 182,93;  285,974;  279,771;  292,658;48,13713
 183,53;  246,260;  255,771;  247,236; 0,00000
 184,13;  244,636;  255,463;  243,066; 0,00000
 184,73;  318,161;  297,694;  297,759; 0,00000
 185,33;  284,675;  256,691;  368,500;25,02843
 185,93;  285,730;  255,075;  382,746;24,01059
 186,53;  289,897;  270,306;  409,740;14,05032
 187,13;  314,408;  286,691;  442,672;17,76934
 187,73;  290,135;  258,383;  397,569;22,81246
 188,33;  288,845;  244,459;  389,070;30,69338
 188,93;  285,837;  265,151;  389,820;16,59247
 189,53;  295,351;  255,997;  401,808;26,98972
 190,13;  334,797;  303,534;  425,453;25,64253
 190,73;  271,392;  238,612;  373,568;24,28936
 191,34;  315,253;  272,382;  412,563;30,58284
 191,94;  279,685;  245,536;  389,124;23,78242
 192,54;  296,801;  257,845;  421,882;23,74836
 193,14;  312,478;  280,999;  427,015;21,55873
 193,74;  310,729;  277,460;  416,620;23,90713
 194,34;  292,043;  266,383;  422,879;16,39667
 194,94;  265,894;  229,152;  370,509;25,99225
 195,54;  238,173;  219,768;  356,227;13,48752
 196,14;  269,586;  237,307;  390,260;21,10441
 196,74;  265,453;  231,845;  381,671;22,43186
 197,34;  235,817;  216,922;  370,235;12,32434
 197,94;  270,937;  245,999;  399,200;16,27822
 198,54;  285,575;  248,999;  404,056;23,58884
 199,14;  254,358;  232,615;  417,339;11,77048
 199,74;  247,557;  222,076;  395,845;14,66344
 200,34;  232,181;  207,461;  420,541;11,60135
 200,94;  286,048;  248,153;  461,164;17,79009
 201,54;  250,093;  219,768;  445,273;13,44739
 202,14;  302,694;  261,153;  507,467;16,86517
 202,74;  262,201;  229,384;  505,376;11,89076
 203,34;  242,977;  209,000;  512,156;11,20794
 203,94;  212,998;  174,153;  513,305;11,45338
 204,54;  299,668;  270,153;  616,582; 8,51988
 205,14;  256,038;  206,384;  598,674;12,65765
 205,74;  298,271;  252,230;  701,528;10,24731
 206,34;  256,792;  216,076;  694,450; 8,51123
 206,94;  262,353;  233,538;  772,940; 5,34205
 207,54;  236,667;  201,692;  795,827; 5,88682
 208,14;  260,127;  213,153;  877,320; 7,07252
 208,74;  264,837;  218,845;  976,513; 6,07019
 209,34;  270,516;  217,461; 1044,418; 6,41570
 209,94;  274,106;  220,307; 1137,587; 5,86511
 210,54;  278,038;  229,692; 1220,957; 4,87726
 211,14;  290,554;  224,922; 1339,805; 5,88690
 211,73;  286,747;  232,768; 1439,199; 4,47422
 212,33;  306,541;  239,461; 1581,273; 4,99924
 212,93;  298,054;  226,307; 1645,732; 5,05469
 213,53;  280,805;  189,768; 1712,865; 5,97710
 214,13;  315,034;  218,538; 1813,622; 6,04955
 214,73;  282,310;  197,307; 1816,698; 5,24906
 215,33;  280,491;  186,538; 1864,202; 5,60024
 215,93;  322,235;  218,230; 1998,417; 5,84235
 216,53;  288,030;  188,076; 2057,055; 5,34803
 217,13;  344,072;  225,846; 2256,567; 5,82190
 217,73;  344,479;  210,538; 2464,275; 5,94308
 218,33;  306,020;  155,769; 2660,450; 5,99881
 218,93;  361,694;  201,231; 2977,546; 5,77971
 219,53;  385,450;  200,923; 3232,648; 6,08653
 220,13;  371,585;  170,769; 3524,776; 5,98736
 220,73;  406,120;  183,538; 3882,522; 6,01739
 221,32;  441,760;  205,461; 4307,282; 5,76084
 221,92;  490,977;  201,846; 4696,208; 6,43319
 222,52;  487,835;  186,307; 5149,821; 6,07488
 223,12;  531,586;  202,461; 5611,108; 6,08516
 223,72;  557,169;  205,076; 5985,691; 6,09092
 224,32;  590,943;  205,384; 6429,001; 6,19509
 224,92;  618,613;  190,538; 6682,132; 6,59429
 225,52;  656,090;  200,922; 7052,984; 6,64279
 226,12;  673,323;  195,153; 7404,550; 6,63259
 226,72;  686,846;  165,999; 7775,960; 6,84427
 227,31;  708,054;  163,307; 8103,707; 6,86045
 227,91;  781,238;  197,999; 8551,866; 6,98166
 228,51;  799,274;  185,614; 8888,848; 7,05094
 229,11;  844,491;  198,538; 9299,491; 7,09764
 229,71;  874,756;  184,230; 9632,357; 7,30860
 230,31;  908,364;  180,769;10070,106; 7,35737
 230,91;  942,231;  166,076;10383,471; 7,59641
 231,51; 1008,688;  165,923;10680,099; 8,01551
 232,10; 1041,966;  181,461;10992,241; 7,95969
 232,70; 1089,197;  196,460;11145,879; 8,15328
 233,30; 1157,945;  215,846;11504,976; 8,34519
 233,90; 1156,077;  186,999;11581,030; 8,50513
 234,50; 1202,215;  192,615;11706,819; 8,76830
 235,10; 1219,151;  183,769;11702,286; 8,98885
 235,70; 1275,950;  204,999;11795,849; 9,23962
 236,29; 1309,197;  204,461;11688,836; 9,61947
 236,89; 1279,324;  172,076;11527,215; 9,75107
 237,49; 1326,389;  209,922;11419,269; 9,96014
 238,09; 1324,099;  185,999;11083,219;10,44395
 238,69; 1384,632;  244,230;10802,227;10,80131
 239,29; 1342,335;  197,384;10437,612;11,18091
 239,89; 1322,500;  191,076;10097,391;11,42124
 240,48; 1301,000;  177,999; 9657,197;11,84700
 241,08; 1294,946;  188,769; 9319,071;12,11545
 241,68; 1316,894;  211,384; 8946,742;12,65557
 242,28; 1268,436;  181,769; 8555,430;12,97721
 242,88; 1287,463;  230,307; 8220,974;13,22988
 243,48; 1281,498;  227,076; 7917,686;13,71050
 244,07; 1267,984;  211,615; 7674,921;14,15418
 244,67; 1273,679;  212,230; 7509,332;14,54616
 245,27; 1272,516;  209,691; 7358,738;14,86666
 245,87; 1262,699;  223,692; 7246,444;14,79487
 246,47; 1277,462;  201,691; 7259,452;15,24237
 247,06; 1261,862;  181,307; 7247,178;15,29259
 247,66; 1307,873;  192,076; 7295,913;15,70696
 248,26; 1361,677;  221,076; 7456,702;15,76367
 248,86; 1388,244;  210,691; 7654,849;15,81849
 249,46; 1401,027;  160,692; 7870,747;16,08724
 250,05; 1496,063;  206,076; 8287,338;15,96269
 250,65; 1523,367;  184,691; 8670,592;15,77529
 251,25; 1622,943;  190,692; 9157,724;15,97242
 251,85; 1708,774;  185,153; 9790,011;15,86303
 252,44; 1783,891;  164,768;10372,568;15,86163
 253,04; 1942,581;  201,768;11244,137;15,76485
 253,64; 2014,898;  150,768;12033,166;15,68816
 254,24; 2214,326;  213,922;13051,063;15,58293
 254,84; 2335,642;  196,692;14087,362;15,39847
 255,43; 2472,532;  186,461;15163,322;15,26402
 256,03; 2659,650;  195,307;16327,684;15,27576
 256,63; 2798,609;  203,922;17503,500;14,99856
 257,23; 2928,634;  178,691;18501,485;15,00831
 257,82; 3110,690;  207,383;19738,752;14,86484
 258,42; 3229,114;  159,460;20771,530;14,89250
 259,02; 3427,679;  210,307;21895,351;14,83682
 259,62; 3484,236;  183,691;22787,658;14,60162
 260,21; 3611,518;  199,845;23471,540;14,66018
 260,81; 3677,694;  187,076;24171,692;14,55357
 261,41; 3742,718;  184,383;24795,244;14,45839
 262,01; 3826,849;  216,537;25352,394;14,36319
 262,60; 3854,557;  177,307;25846,101;14,32576
 263,20; 3926,152;  185,999;26357,336;14,29103
 263,80; 3934,485;  209,152;26539,377;14,14850
 264,40; 3925,845;  176,845;26899,693;14,02919
 264,99; 3947,272;  200,537;27115,397;13,92069
 265,59; 3941,788;  186,306;27318,169;13,84159
 266,19; 3965,992;  184,229;27638,806;13,77462
 266,78; 3967,351;  232,152;27795,449;13,55135
 267,38; 3949,589;  205,998;27786,734;13,57321
 267,98; 3916,057;  185,460;27858,000;13,48123
 268,58; 3904,567;  192,691;27956,250;13,36960
 269,17; 3921,049;  183,614;28097,251;13,38928
 269,77; 3910,763;  204,383;27753,045;13,45394
 270,37; 3805,446;  169,999;27664,072;13,22266
 270,96; 3831,141;  221,076;27556,548;13,20652
 271,56; 3735,355;  189,460;27252,093;13,10255
 272,16; 3708,670;  183,845;27045,467;13,12216
 272,75; 3681,618;  184,845;27076,683;13,00310
 273,35; 3614,595;  194,307;26917,962;12,79873
 273,95; 3608,971;  191,768;26907,420;12,79102
 274,54; 3587,007;  177,999;27015,629;12,70234
 275,14; 3665,828;  222,153;27307,463;12,71418
 275,74; 3619,935;  163,537;27402,309;12,68926
 276,33; 3715,729;  221,999;27818,973;12,65983
 276,93; 3752,808;  200,230;28216,347;12,68048
 277,53; 3823,934;  186,999;28790,573;12,71497
 278,12; 3878,364;  179,384;29422,405;12,64911
 278,72; 4054,480;  256,461;29999,620;12,76939
 279,32; 4051,410;  188,076;30643,053;12,68539
 279,91; 4162,840;  164,768;31454,796;12,77746
 280,51; 4298,398;  195,461;32138,689;12,84447
 281,11; 4432,432;  194,076;32882,543;12,96591
 281,70; 4488,251;  177,691;33380,826;12,98239
 282,30; 4630,432;  181,999;34137,863;13,10063
 282,90; 4718,398;  183,307;34486,022;13,22080
 283,49; 4883,564;  198,153;35030,161;13,45145
 284,09; 5021,061;  222,153;35639,099;13,54975
 284,69; 5193,792;  226,230;36006,782;13,88341
 285,28; 5254,401;  206,076;36449,516;13,92893
 285,88; 5489,867;  253,999;36743,165;14,34910
 286,47; 5510,661;  194,922;36914,823;14,47645
 287,07; 5660,364;  222,153;36890,777;14,83069
 287,67; 5817,651;  210,769;36997,225;15,24170
 288,26; 5920,373;  188,691;36908,480;15,60925
 288,86; 6109,941;  184,153;37041,094;16,07781
 289,46; 6367,084;  202,384;37122,731;16,69730
 290,05; 6566,821;  190,768;37212,064;17,22266
 290,65; 6824,172;  187,384;37404,337;17,83270
 291,24; 7040,600;  198,691;37559,548;18,31304
 291,84; 7304,917;  211,691;37792,731;18,87448
 292,44; 7578,602;  204,076;37806,095;19,61205
 293,03; 7890,973;  272,230;38112,576;20,13391
 293,63; 8045,068;  184,768;38158,999;20,69904
 294,22; 8284,521;  217,153;38465,208;21,09223
 294,82; 8485,770;  199,152;38413,271;21,68470
 295,41; 8569,867;  174,922;38100,288;22,13543
 296,01; 8725,763;  222,999;38054,602;22,47529
 296,61; 8776,389;  224,230;37819,916;22,74771
 297,20; 8765,756;  192,691;37410,939;23,03457
 297,80; 8860,918;  213,615;37207,272;23,37510
 298,39; 8860,313;  177,845;36779,473;23,72153
 298,99; 8920,933;  224,537;36504,955;23,96994
 299,58; 8903,787;  211,384;36385,903;24,02908
 300,18; 8895,385;  223,845;36189,895;24,11035
 300,78; 8849,016;  190,999;35786,113;24,32361
 301,37; 8882,320;  217,845;35795,718;24,35355
 301,97; 8935,830;  215,768;35728,247;24,55492
 302,56; 8922,690;  198,153;35633,201;24,62121
 303,16; 8858,571;  180,922;35521,202;24,55456
 303,75; 8935,176;  195,768;35645,924;24,65266
 304,35; 9059,606;  177,153;35901,168;24,86409
 304,94; 9051,294;  194,384;35809,440;24,86844
 305,54; 9046,606;  215,384;35790,205;24,82436
 306,13; 9052,169;  159,923;35769,307;24,97164
 306,73; 9007,645;  171,769;35488,947;25,01864
 307,33; 9017,846;  207,922;35499,114;24,96352
 307,92; 9012,149;  208,076;35472,060;24,96619
 308,52; 9108,930;  183,768;35997,217;24,92126
 309,11; 9260,682;  193,922;36580,985;24,91754
 309,71; 9343,091;  193,768;36923,367;24,90995
 310,30; 9408,125;  189,999;37166,229;24,92987
 310,90; 9564,586;  235,153;37523,690;25,01957
 311,49; 9564,000;  205,384;37627,068;25,00854
 312,09; 9524,253;  172,999;37837,225;24,82795
 312,68; 9777,113;  256,615;38261,788;25,05053
 313,28; 9721,919;  174,230;38357,983;25,00458
 313,87; 9711,419;  164,691;38582,601;24,84968
 314,47; 9802,383;  190,845;38858,912;24,85653
 315,06; 9829,283;  175,230;38948,769;24,89856
 315,66; 9894,484;  181,845;39296,994;24,83089
 316,25; 9761,310;  161,153;39194,747;24,59460
 316,85; 9761,464;  159,307;39253,935;24,56132
 317,44; 9758,795;  184,306;39342,788;24,45061
 318,04; 9773,883;  173,384;39360,659;24,49902
 318,63; 9693,502;  162,769;39407,073;24,28565
 319,22; 9763,423;  196,076;39719,782;24,20661
 319,82; 9677,102;  183,614;39730,450;24,00568
 320,41; 9633,910;  209,537;39651,459;23,89430
 321,01; 9611,314;  209,461;39752,251;23,77640
 321,60; 9567,643;  196,537;39803,104;23,66048
 322,20; 9494,844;  176,076;39745,945;23,55016
 322,79; 9483,448;  216,999;39971,896;23,30895
 323,39; 9447,194;  177,538;40024,528;23,26313
 323,98; 9362,914;  175,922;39925,667;23,11208
 324,58; 9377,865;  184,768;39865,267;23,16779
 325,17; 9295,247;  189,999;39682,837;23,05544
 325,76; 9213,505;  207,230;39524,457;22,90669
 326,36; 9047,896;  174,768;39152,948;22,76435
 326,95; 8941,975;  216,999;38741,782;22,64770
 327,55; 8746,650;  185,537;38407,921;22,39816
 328,14; 8627,296;  178,922;37999,070;22,33829
 328,74; 8567,722;  200,153;37482,233;22,44394
 329,33; 8413,520;  197,922;37120,343;22,25097
 329,92; 8219,684;  175,845;36541,640;22,11924
 330,52; 7998,948;  202,538;35733,028;21,94287
 331,11; 7900,039;  193,384;35278,308;21,96572
 331,71; 7705,916;  188,307;34626,488;21,82929
 332,30; 7544,987;  207,999;34111,748;21,64064
 332,89; 7449,165;  271,076;33590,336;21,54336
 333,49; 7218,294;  194,999;32891,370;21,48035
 334,08; 7022,023;  190,845;32377,026;21,22395
 334,68; 6904,364;  187,614;32014,251;21,10418
 335,27; 6814,373;  200,307;31590,987;21,07016
 335,86; 6747,039;  250,076;31383,154;20,86836
 336,46; 6582,683;  204,153;31029,334;20,69259
 337,05; 6501,785;  189,461;30668,132;20,71063
 337,65; 6428,760;  164,307;30603,070;20,58051
 338,24; 6395,957;  230,999;30615,595;20,28975
 338,83; 6380,333;  217,384;30467,662;20,37320
 339,43; 6335,543;  186,076;30397,710;20,35463
 340,02; 6249,209;  195,845;30321,455;20,09375
 340,61; 6226,118;  201,307;30458,950;19,91170
 341,21; 6249,876;  212,999;30340,233;20,03794
 341,80; 6175,154;  187,384;30267,619;19,90600
 342,40; 6175,093;  192,769;30458,094;19,76626
 342,99; 6196,857;  190,999;30621,566;19,73627
 343,58; 6194,290;  189,692;30725,189;19,66432
 344,18; 6193,975;  205,999;30926,295;19,49192
 344,77; 6258,867;  189,768;31194,614;19,57468
 345,36; 6293,129;  169,537;31564,012;19,50532
 345,96; 6375,620;  219,768;31833,673;19,47197
 346,55; 6415,581;  170,769;32170,183;19,51540
 347,14; 6478,819;  183,538;32575,474;19,43472
 347,74; 6525,117;  157,846;33028,042;19,37096
 348,33; 6742,187;  180,923;33826,154;19,50132
 348,92; 6838,536;  205,308;34430,178;19,38131
 349,52; 6919,907;  164,615;34951,480;19,41909
 350,11; 6969,104;  185,845;35192,354;19,37714
 350,70; 6989,930;  180,615;35339,648;19,36719
 351,29; 6907,637;  169,383;35006,042;19,34242
 351,89; 6920,286;  202,922;35091,627;19,25369
 352,48; 6877,511;  169,999;35147,268;19,17678
 353,07; 6920,133;  206,461;35033,208;19,27735
 353,67; 6899,540;  204,923;34949,565;19,26806
 354,26; 6852,599;  201,307;34808,524;19,21938
 354,85; 6795,498;  203,153;34516,545;19,21216
 355,45; 6740,908;  167,230;34307,183;19,25509
 356,04; 6777,357;  182,846;34215,160;19,37721
 356,63; 6763,208;  234,691;34031,513;19,31696
 357,22; 6661,105;  193,614;33824,077;19,23105
 357,82; 6649,240;  197,152;33639,051;19,29343
 358,41; 6674,568;  221,461;33568,368;19,35144
 359,00; 6603,324;  178,153;33297,760;19,39990
 359,60; 6594,253;  197,384;33273,930;19,33959
 360,19; 6575,780;  215,461;33107,234;19,33711
 360,78; 6589,892;  189,537;32871,971;19,58347
 361,37; 6547,168;  193,461;32696,708;19,54791
 361,97; 6537,971;  210,307;32520,543;19,58408
 362,56; 6500,048;  191,307;32201,491;19,70854
 363,15; 6553,867;  258,537;31875,986;19,91093
 363,74; 6431,286;  189,537;31578,698;19,88504
 364,34; 6372,575;  225,153;31136,896;19,88701
 364,93; 6248,801;  197,768;30611,516;19,89572
 365,52; 6224,577;  167,768;30252,923;20,13222
 366,11; 6180,412;  203,307;29846,040;20,16381
 366,71; 6111,654;  188,230;29394,166;20,28158
 367,30; 6097,337;  195,384;29033,298;20,46595
 367,89; 6080,210;  238,307;28743,451;20,49421
 368,48; 5990,376;  207,306;28354,018;20,54616
 369,07; 5971,853;  195,153;27881,417;20,86486
 369,67; 5922,272;  216,383;27573,988;20,85668
 370,26; 5838,790;  180,922;27244,891;20,90554
 370,85; 5826,874;  192,999;26939,335;21,06410
 371,44; 5824,288;  206,384;26642,014;21,25126
 372,03; 5744,971;  176,460;26437,561;21,20441
 372,63; 5729,186;  172,153;26061,876;21,46424
 373,22; 5691,190;  188,230;25676,794;21,58992
 373,81; 5604,555;  170,845;25388,132;21,54756
 374,40; 5602,615;  181,230;25135,197;21,72554
 374,99; 5572,041;  192,922;24805,815;21,85488
 375,59; 5530,468;  171,538;24398,937;22,11930
 376,18; 5564,220;  216,999;24328,954;22,17664
 376,77; 5554,731;  215,307;24058,225;22,39417
 377,36; 5588,609;  227,768;24006,263;22,54491
 377,95; 5539,745;  214,076;23762,102;22,61620
 378,55; 5510,545;  186,922;23508,635;22,82689
 379,14; 5524,367;  209,153;23452,060;22,86811
 379,73; 5558,604;  208,537;23303,883;23,16513
 380,32; 5607,367;  196,461;23346,208;23,37350
 380,91; 5548,654;  180,460;23182,102;23,33831
 381,50; 5583,555;  203,307;23152,689;23,44398
 382,10; 5603,828;  189,691;23019,746;23,71495
 382,69; 5639,717;  158,461;23001,834;23,99495
 383,28; 5682,143;  220,307;22925,274;24,05569
 383,87; 5652,890;  188,230;22754,175;24,21640
 384,46; 5708,958;  174,845;22715,959;24,55120
 385,05; 5775,697;  222,230;22649,024;24,76265
 385,64; 5796,489;  194,922;22646,501;24,94955
 386,24; 5818,867;  173,614;22580,639;25,19412
 386,83; 5934,960;  210,922;22672,004;25,48425
 387,42; 5979,272;  206,999;22777,744;25,57414
 388,01; 6115,517;  207,691;22951,505;25,97553
 388,60; 6172,173;  197,537;23243,362;25,92502
 389,19; 6273,270;  189,998;23547,786;26,04387
 389,78; 6403,908;  192,460;23744,571;26,37321
 390,37; 6654,155;  262,614;24276,668;26,61583
 390,96; 6640,788;  206,845;24474,830;26,51206
 391,56; 6738,770;  207,690;24645,718;26,72507
 392,15; 6923,379;  194,691;24963,960;27,16547
 392,74; 6928,793;  163,305;25106,085;27,12403
 393,33; 7098,764;  197,767;25491,061;27,28390
 393,92; 7276,782;  212,613;25900,901;27,49957
 394,51; 7407,992;  183,460;26149,483;27,82302
 395,10; 7525,500;  232,382;26382,711;27,88920
 395,69; 7627,482;  219,459;26497,146;28,19131
 396,28; 7752,464;  217,689;26669,156;28,48528
 396,87; 7826,322;  220,150;26833,025;28,58080
 397,46; 7970,605;  218,150;26835,225;29,12587
 398,06; 8079,753;  237,996;27104,067;29,18833
 398,65; 8181,772;  214,456;27131,950;29,59902
 399,24; 8279,575;  234,071;27367,810;29,65129
 399,83; 8327,640;  214,762;27381,325;29,86347
 400,42; 8485,854;  264,761;27607,435;30,06689
 401,01; 8562,142;  246,452;27702,448;30,28734
 401,60; 8636,450;  247,450;27765,454;30,48550
 402,19; 8640,214;  273,987;27599,183;30,61726
 402,78; 8707,013;  272,523;27634,687;30,82537
 403,37; 8726,823;  255,290;27482,766;31,11391
 403,96; 8734,882;  262,134;27346,365;31,28296
 404,55; 8752,731;  280,362;27213,131;31,45748
 405,14; 8701,290;  248,128;27050,732;31,53859
 405,73; 8738,590;  266,356;26942,545;31,75954
 406,32; 8809,789;  287,200;26916,383;32,00470
 406,91; 8751,676;  258,428;26636,865;32,19769
 407,50; 8759,406;  276,812;26380,646;32,49559
 408,09; 8631,531;  247,888;26025,131;32,52343
 408,68; 8653,296;  270,579;25939,191;32,65746
 409,27; 8623,158;  262,119;25718,546;32,84451
 409,86; 8607,710;  263,197;25627,174;32,89907
 410,45; 8645,385;  302,584;25499,185;33,11082
 411,04; 8630,770;  302,354;25373,826;33,21869
 411,63; 8575,091;  288,818;25135,891;33,34909
 412,22; 8558,058;  291,820;24946,198;33,52848
 412,81; 8514,136;  299,282;24612,092;33,78817
 413,40; 8420,877;  317,283;24232,821;33,88422
 413,99; 8399,389;  359,360;23878,514;34,18503
 414,58; 8167,124;  282,898;23329,423;34,21004
 415,17; 8132,105;  291,436;23186,829;34,24562
 415,76; 8107,682;  283,051;22974,676;34,48246
 416,35; 8067,664;  277,128;22780,157;34,61994
 416,94; 8121,745;  303,128;22785,030;34,77739
 417,53; 8223,016;  278,359;23066,312;34,86341
 418,12; 8256,751;  282,436;23078,298;34,98142
 418,71; 8471,344;  308,898;23475,054;35,23435
 419,30; 8479,885;  282,129;23620,155;35,12618
 419,89; 8573,177;  273,590;23800,085;35,27761
 420,48; 8772,246;  318,206;24095,378;35,55528
 421,07; 8783,504;  300,899;24293,006;35,35582
 421,66; 8839,325;  259,284;24241,823;35,77620
 422,25; 8893,924;  284,746;24288,691;35,86568
 422,84; 8859,788;  309,361;24273,693;35,67980
 423,43; 8802,750;  287,900;23908,650;36,04818
 424,02; 8707,777;  314,592;23670,893;35,93542
 424,60; 8561,558;  269,516;23210,042;36,14582
 425,19; 8477,077;  306,208;22876,340;36,20213
 425,78; 8446,701;  304,516;22764,882;36,25135
 426,37; 8414,970;  307,285;22590,848;36,38415
 426,96; 8409,862;  297,285;22472,585;36,58384
 427,55; 8322,626;  280,286;22280,373;36,55595
 428,14; 8319,931;  279,594;22069,924;36,89865
 428,73; 8204,260;  281,132;21847,258;36,73876
 429,32; 8267,104;  306,593;21796,025;37,04384
 429,91; 8276,110;  313,132;21797,183;37,06460
 430,50; 8209,510;  304,132;21558,979;37,19330
 431,08; 8197,965;  311,363;21445,445;37,31698
 431,67; 8187,395;  364,132;21350,696;37,27748
 432,26; 8167,568;  383,825;21199,730;37,39325
 432,85; 8068,170;  397,210;20759,725;37,67197
 433,44; 7956,575;  420,902;20388,439;37,73962
 434,03; 7819,771;  425,595;20017,318;37,74133
 434,62; 7619,514;  383,133;19500,106;37,85317
 435,21; 7583,057;  403,363;19234,453;38,12681
 435,79; 7509,794;  391,749;19066,589;38,11570
 436,38; 7485,527;  387,288;18952,505;38,23407
 436,97; 7423,330;  382,518;18879,955;38,06371
 437,56; 7357,940;  377,750;18603,802;38,29787
 438,15; 7311,325;  364,365;18487,436;38,33213
 438,74; 7386,239;  385,981;18530,497;38,58057
 439,33; 7358,793;  341,673;18509,407;38,62408
 439,91; 7388,180;  305,442;18649,569;38,61038
 440,50; 7443,614;  345,212;18701,692;38,66973
 441,09; 7509,510;  354,520;18795,163;38,80011
 441,68; 7477,122;  334,212;18696,465;38,89997
 442,27; 7460,410;  331,597;18725,116;38,75720
 442,86; 7473,382;  304,059;18709,845;38,95146
 443,44; 7530,866;  325,521;18797,655;39,00657
 444,03; 7631,649;  403,905;18893,725;39,09039
 444,62; 7531,330;  327,982;18702,291;39,20337
 445,21; 7508,113;  326,059;18535,085;39,44227
 445,80; 7478,562;  358,060;18427,062;39,40728
 446,39; 7408,338;  400,059;18168,193;39,44297
 446,97; 7263,722;  327,368;17983,599;39,28559
 447,56; 7171,378;  319,368;17715,751;39,38755
 448,15; 7129,512;  330,522;17478,966;39,64786
 448,74; 7011,148;  339,906;17225,173;39,50924
 449,33; 6950,980;  329,599;17093,669;39,49746
 449,91; 6894,615;  335,368;16778,294;39,89100
 450,50; 6810,697;  328,522;16543,308;39,97694
 451,09; 6784,674;  338,676;16409,895;40,10895
 451,68; 6738,830;  361,061;16271,224;40,08613
 452,26; 6695,769;  357,369;16176,718;40,06739
 452,85; 6618,889;  335,907;16118,659;39,80916
 453,44; 6662,277;  344,369;16050,676;40,22529
 454,03; 6633,398;  320,292;16117,487;39,96346
 454,61; 6648,714;  333,908;15999,608;40,30976
 455,20; 6746,444;  346,293;16255,124;40,23018
 455,79; 6711,893;  356,831;16239,150;40,01344
 456,38; 6765,627;  364,139;16282,465;40,21458
 456,97; 6815,037;  342,678;16385,616;40,34398
 457,55; 6817,053;  339,985;16382,719;40,37384
 458,14; 6815,813;  365,677;16357,900;40,33295
 458,73; 6762,951;  360,370;16309,190;40,14454
 459,31; 6829,394;  378,601;16377,517;40,32019
 459,90; 6877,290;  403,678;16379,665;40,52089
 460,49; 6957,763;  457,832;16555,727;40,37752
 461,08; 6903,373;  356,063;16622,285;40,25096
 461,66; 6946,819;  356,294;16673,790;40,38932
 462,25; 7003,086;  359,679;16769,095;40,48533
 462,84; 7049,348;  380,294;16852,140;40,48760
 463,43; 6970,712;  327,602;16714,947;40,53805
 464,01; 7049,965;  356,371;16813,258;40,67351
 464,60; 7041,861;  406,679;16730,265;40,64782
 465,19; 6862,985;  335,833;16538,152;40,28530
 465,77; 6899,847;  351,449;16523,185;40,49286
 466,36; 6834,493;  391,371;16351,535;40,37002
 466,95; 6726,963;  362,217;16045,231;40,58369
 467,53; 6604,417;  367,910;15694,808;40,68995
 468,12; 6487,483;  407,680;15350,675;40,68664
 468,71; 6361,137;  374,910;15071,491;40,73211
 469,29; 6200,360;  352,449;14823,470;40,41119
 469,88; 6133,446;  357,218;14545,154;40,71225
 470,47; 6238,466;  420,296;14656,407;40,86910
 471,06; 6149,975;  383,450;14628,107;40,48203
 471,64; 6212,473;  374,219;14706,154;40,73598
 472,23; 6193,778;  348,989;14716,809;40,67972
 472,81; 6212,629;  344,527;14821,002;40,53543
 473,40; 6302,099;  360,296;14955,052;40,71190
 473,99; 6483,045;  479,835;15247,766;40,65031
 474,57; 6409,052;  366,066;15304,583;40,45238
 475,16; 6494,027;  385,296;15526,392;40,34537
 475,75; 6579,221;  407,527;15668,379;40,44134
 476,33; 6597,338;  389,682;15751,929;40,40852
 476,92; 6634,737;  394,143;15763,606;40,60385
 477,51; 6612,909;  400,912;15871,820;40,15276
 478,09; 6648,646;  396,758;15891,249;40,34910
 478,68; 6652,051;  408,681;15775,835;40,62802
 479,27; 6677,488;  417,681;15881,721;40,47976
 479,85; 6611,784;  397,835;15844,108;40,22944
 480,44; 6653,743;  384,374;15946,053;40,28723
 481,02; 7174,612;  401,297;17286,127;40,11479
 481,61; 8082,768;  427,220;19623,948;39,87944
 482,20; 8578,745;  402,759;21085,914;39,52969
 482,78; 8965,019;  430,835;21954,642;39,64997
 483,37; 9189,000;  426,067;22596,938;39,52453
 483,95; 9317,014;  467,682;22944,483;39,37096
 484,54; 9399,024;  469,528;23172,093;39,33254
 485,13; 9353,082;  424,144;23124,287;39,33428
 485,71; 9222,600;  411,144;22818,856;39,32332
 486,30; 9140,107;  465,683;22565,285;39,25149
 486,88; 9024,638;  504,760;22140,077;39,37949
 487,47; 8714,785;  466,067;21368,715;39,46255
 488,05; 8296,294;  464,914;20435,710;39,21416
 488,64; 7750,434;  454,068;18991,667;39,35982
 489,23; 7018,780;  473,221;17028,381;39,53788
 489,81; 6025,565;  461,068;14526,734;39,56085
 490,40; 5640,104;  440,991;13733,035;39,11447
 490,98; 5544,126;  404,222;13483,353;39,29852
 491,57; 5477,568;  431,221;13319,087;39,15579
 492,15; 5435,520;  399,299;13245,665;39,20347
 492,74; 5413,771;  414,683;13120,992;39,34336
 493,32; 5345,276;  428,222;12954,813;39,25293
 493,91; 5292,436;  403,530;12888,143;39,15945
 494,50; 5273,902;  408,992;12847,480;39,11175
 495,08; 5200,666;  388,915;12763,401;38,88446
 495,67; 5194,999;  412,837;12789,826;38,63752
 496,25; 5100,843;  363,530;12637,756;38,59562
 496,84; 5088,699;  361,760;12601,489;38,61963
 497,42; 5028,718;  371,991;12562,506;38,19960
 498,01; 5083,963;  400,914;12465,940;38,81508
 498,59; 4974,694;  356,145;12409,745;38,31675
 499,18; 4959,332;  343,606;12340,882;38,47311
 499,76; 4945,976;  378,837;12280,311;38,37457
 500,35; 4803,035;  361,146;12071,485;37,93135
 500,93; 4776,825;  352,376;12000,883;37,98297
 501,52; 4755,175;  353,068;11926,651;38,03582
 502,10; 4737,424;  370,453;11898,468;37,88138
 502,69; 4631,401;  353,300;11710,581;37,66836
 503,27; 4534,872;  335,761;11464,256;37,73297
 503,86; 4516,299;  355,377;11364,448;37,79540
 504,44; 4426,539;  325,146;11265,671;37,48808
 505,03; 4298,089;  321,761;11008,413;37,20836
 505,61; 4276,087;  351,300;10841,379;37,41427
 506,19; 4178,525;  353,838;10664,889;37,09309
 506,78; 4085,484;  333,531;10486,963;36,95256
 507,36; 4013,062;  329,761;10248,081;37,13633
 507,95; 3922,086;  341,531;10076,317;36,78103
 508,53; 3891,339;  335,069; 9980,666;36,86936
 509,12; 3819,713;  331,377; 9830,527;36,72261
 509,70; 3775,047;  355,839; 9687,006;36,64288
 510,29; 3701,454;  367,839; 9511,395;36,45863
 510,87; 3597,009;  319,454; 9273,182;36,60548
 511,46; 3514,057;  314,454; 9087,952;36,46895
 512,04; 3469,466;  323,993; 8935,610;36,52593
 512,62; 3400,333;  336,608; 8793,766;36,22641
 513,21; 3313,117;  313,685; 8608,556;36,16008
 513,79; 3233,486;  320,224; 8477,134;35,71526
 514,38; 3158,065;  309,839; 8319,811;35,55850
 514,96; 3153,300;  350,455; 8173,896;35,82625
 515,54; 3064,873;  303,147; 8027,878;35,75173
 516,13; 3045,748;  332,301; 7919,173;35,76503
 516,71; 2967,198;  322,532; 7769,944;35,51121
 517,30; 2918,225;  298,071; 7663,719;35,57262
 517,88; 2881,354;  328,378; 7554,196;35,33130
 518,46; 2821,263;  307,225; 7372,864;35,58119
 519,05; 2792,327;  313,686; 7362,833;35,16227
 519,63; 2765,849;  330,609; 7289,941;34,99244
 520,22; 2759,881;  341,764; 7235,244;35,07832
 520,80; 2693,172;  329,456; 7171,494;34,54696
 521,38; 2735,607;  368,225; 7145,341;34,93200
 521,97; 2690,082;  314,610; 7036,002;35,34196
 522,55; 2654,125;  333,764; 7019,392;34,70670
 523,13; 2634,423;  310,072; 7017,292;34,65447
 523,72; 2600,238;  324,763; 6992,802;34,12511
 524,30; 2666,407;  343,149; 7161,991;34,07116
 524,89; 2643,604;  304,225; 7158,944;34,12801
 525,47; 2662,563;  326,610; 7275,563;33,61590
 526,05; 2651,912;  295,303; 7303,368;33,62710
 526,64; 2697,414;  339,841; 7421,475;33,29136
 527,22; 2742,045;  332,072; 7546,546;33,40470
 527,80; 2810,278;  367,457; 7670,496;33,44938
 528,39; 2756,138;  329,149; 7770,418;32,61525
 528,97; 2822,443;  320,226; 7948,770;32,80072
 529,55; 2888,600;  343,072; 8102,468;32,80575
 530,14; 2929,199;  343,303; 8349,431;32,29895
 530,72; 2940,488;  320,149; 8430,507;32,30856
 531,30; 2984,875;  313,226; 8595,835;32,25613
 531,89; 3017,160;  335,995; 8704,659;32,03815
 532,47; 3095,956;  361,995; 8766,677;32,52903
 533,05; 3076,387;  344,457; 8865,220;32,06203
 533,63; 3071,416;  346,611; 8907,247;31,82947
 534,22; 3042,296;  331,995; 8954,319;31,43353
 534,80; 3127,495;  358,457; 9062,031;31,81495
 535,38; 3212,893;  462,380; 9153,311;31,64809
 535,97; 3086,717;  339,303; 9073,282;31,45661
 536,55; 3130,182;  404,688; 9141,176;31,19668
 537,13; 3116,124;  389,765; 9117,163;31,23908
 537,71; 3141,986;  442,841; 9165,067;30,94559
 538,30; 3157,796;  462,534; 9232,078;30,73434
 538,88; 3226,304;  507,150; 9329,741;30,82036
 539,46; 3340,461;  566,765; 9580,882;30,77058
 540,05; 3328,992;  568,457; 9683,822;30,28442
 540,63; 3403,225;  635,150; 9859,938;30,00693
 541,21; 3491,429;  678,765;10079,126;29,92080
 541,79; 3541,637;  715,458;10197,104;29,80684
 542,38; 3588,239;  737,842;10344,572;29,67083
 542,96; 3632,245;  758,535;10519,960;29,43945
 543,54; 3697,071;  798,765;10726,772;29,19323
 544,12; 3700,239;  755,611;10843,624;29,18937
 544,70; 3719,073;  724,150;11007,017;29,12537
 545,29; 3767,603;  743,919;11143,051;29,07631
 545,87; 3739,868;  728,227;11130,642;28,95136
 546,45; 3706,522;  662,688;11209,510;28,86020
 547,03; 3716,886;  636,381;11320,207;28,83335
 547,62; 3704,510;  623,458;11427,589;28,51735
 548,20; 3763,657;  612,458;11616,914;28,63567
 548,78; 3736,419;  570,612;11702,509;28,43906
 549,36; 3775,102;  527,843;11946,813;28,43741
 549,94; 3773,171;  497,458;12052,705;28,34827
 550,53; 3807,878;  508,535;12297,713;27,98620
 551,11; 3836,579;  456,843;12500,467;28,06245
 551,69; 3923,012;  475,766;12827,954;27,90798
 552,27; 3933,704;  425,843;13101,127;27,67482
 552,85; 4026,534;  448,612;13394,807;27,63686
 553,44; 4128,648;  427,920;13822,091;27,62939
 554,02; 4153,871;  442,997;14171,037;27,03135
 554,60; 4182,322;  393,381;14486,437;26,88516
 555,18; 4350,080;  425,074;14833,252;27,24152
 555,76; 4379,652;  405,227;15243,010;26,78584
 556,34; 4503,224;  409,689;15644,974;26,86878
 556,93; 4581,039;  403,689;16067,825;26,66824
 557,51; 4643,292;  383,535;16371,271;26,64390
 558,09; 4743,774;  398,458;16823,753;26,45503
 558,67; 4795,518;  398,228;17286,405;26,03768
 559,25; 4912,776;  418,612;17511,134;26,29316
 559,83; 4936,859;  395,459;17784,310;26,11674
 560,41; 5037,663;  382,228;18174,419;26,16561
 561,00; 5095,848;  388,459;18549,965;25,91960
 561,58; 5080,088;  386,920;18843,923;25,42758
 562,16; 5185,306;  366,920;19166,616;25,63013
 562,74; 5248,752;  373,689;19516,263;25,46712
 563,32; 5334,199;  366,920;19976,496;25,33088
 563,90; 5414,452;  393,228;20355,223;25,15392
 564,48; 5513,179;  394,535;20778,172;25,11153
 565,06; 5637,941;  391,536;21432,254;24,93454
 565,65; 5825,771;  395,074;22141,774;24,97251
 566,23; 6018,575;  434,689;22974,729;24,77318
 566,81; 6163,962;  376,459;23711,474;24,80180
 567,39; 6386,002;  395,920;24759,639;24,58607
 567,97; 6539,783;  414,305;25391,636;24,52415
 568,55; 6763,878;  438,151;26242,638;24,51406
 569,13; 6904,950;  396,997;26996,642;24,46631
 569,71; 7097,491;  395,612;28048,187;24,23600
 570,29; 7409,367;  443,304;29185,115;24,23669
 570,87; 7597,494;  421,920;29874,540;24,36311
 571,45; 7648,351;  415,228;30608,162;23,95634
 572,03; 7783,111;  384,228;31075,127;24,10774
 572,61; 7877,129;  374,305;31880,467;23,81383
 573,20; 8090,459;  404,074;32506,591;23,94325
 573,78; 8225,595;  400,690;33253,931;23,81776
 574,36; 8316,330;  415,382;33783,096;23,67842
 574,94; 8423,758;  476,767;34244,999;23,53393
 575,52; 8382,497;  404,998;34467,360;23,42028
 576,10; 8553,221;  470,075;35097,174;23,34341
 576,68; 8636,384;  458,382;35679,516;23,21902
 577,26; 8796,280;  484,459;36378,436;23,15659
 577,84; 8857,554;  486,382;36892,663;22,99376
 578,42; 8875,773;  533,305;37334,737;22,66887
 579,00; 8839,068;  480,536;37432,211;22,62017
 579,58; 8848,891;  553,613;37662,247;22,35404
 580,16; 8800,617;  476,459;37643,229;22,39678
 580,74; 8835,006;  493,382;37934,462;22,27934
 581,32; 8719,140;  504,997;37941,953;21,94127
 581,90; 8717,945;  534,074;37886,443;21,90991
 582,48; 8670,782;  493,074;37978,125;21,81592
 583,06; 8663,739;  513,997;38082,748;21,69287
 583,64; 8616,581;  506,690;38192,977;21,51948
 584,22; 8532,201;  520,921;38007,018;21,37134
 584,80; 8395,841;  520,382;37699,803;21,18231
 585,38; 8290,968;  535,689;37182,143;21,16243
 585,96; 8167,142;  507,074;37303,319;20,81753
 586,54; 8118,454;  532,998;37289,585;20,63700
 587,12; 8070,411;  489,151;37378,362;20,55143
 587,70; 8092,762;  525,536;37591,860;20,41537
 588,28; 8020,827;  495,921;37551,010;20,30735
 588,86; 7992,861;  504,767;37577,998;20,19812
 589,44; 7909,537;  485,998;37621,756;19,99027
 590,02; 7919,522;  485,229;37828,018;19,90824
 590,59; 7842,859;  469,767;38066,568;19,61096
 591,17; 7836,983;  471,306;38207,667;19,51878
 591,75; 7838,132;  456,767;38259,068;19,52623
 592,33; 7863,764;  472,075;38548,440;19,41280
 592,91; 7810,682;  430,306;38785,336;19,24226
 593,49; 7799,161;  450,768;39131,722;18,99745
 594,07; 7856,797;  458,845;39328,397;19,03277
 594,65; 7792,185;  467,844;39295,967;18,86349
 595,23; 7839,058;  461,459;39631,748;18,83468
 595,81; 7798,270;  455,690;39849,567;18,63889
 596,39; 7759,868;  436,229;40000,163;18,51090
 596,97; 7724,121;  434,844;40186,852;18,33688
 597,55; 7671,551;  439,536;40022,171;18,27068
 598,12; 7577,220;  401,845;40086,465;18,08100
 598,70; 7599,132;  424,691;40277,126;18,00252
 599,28; 7544,474;  444,075;40389,814;17,77511
 599,86; 7541,634;  403,537;40383,784;17,85406
 600,44; 7487,661;  389,768;40502,725;17,69477
 601,02; 7507,084;  457,153;40608,070;17,55858
 601,60; 7461,189;  418,152;40572,547;17,53989
 602,18; 7387,392;  402,075;40485,408;17,42699
 602,75; 7329,112;  397,075;40660,796;17,21658
 603,33; 7338,573;  416,460;40658,067;17,20138
 603,91; 7297,695;  415,229;40632,465;17,11322
 604,49; 7263,290;  426,075;40747,359;16,95684
 605,07; 7226,164;  434,844;40712,639;16,86120
 605,65; 7163,130;  442,306;40838,536;16,63725
 606,23; 7175,841;  508,536;40918,939;16,49898
 606,80; 7170,628;  561,460;41046,312;16,32504
 607,38; 7134,598;  613,922;41016,796;16,13914
 607,96; 7107,802;  664,921;41122,834;15,92490
 608,54; 7102,107;  717,229;41174,129;15,78193
 609,12; 7103,585;  719,844;41189,923;15,77398
 609,70; 7033,621;  760,537;41228,311;15,50143
 610,27; 6976,522;  774,229;41232,556;15,33008
 610,85; 6986,585;  797,229;41492,430;15,20906
 611,43; 6909,890;  795,768;41461,077;15,03523
 612,01; 6797,245;  757,844;41113,262;14,96553
 612,59; 6778,302;  760,075;41165,492;14,89460
 613,16; 6695,377;  706,690;41118,502;14,81915
 613,74; 6669,684;  702,998;40902,446;14,84271
 614,32; 6584,582;  651,768;40911,449;14,73637
 614,90; 6513,614;  595,921;40757,891;14,73457
 615,48; 6421,639;  535,998;40502,990;14,72626
 616,05; 6353,590;  511,305;40439,642;14,63193
 616,63; 6246,386;  513,998;40223,755;14,43572
 617,21; 6234,203;  502,767;40103,276;14,47314
 617,79; 6141,298;  488,152;39992,592;14,31015
 618,36; 6129,911;  495,152;40032,078;14,25189
 618,94; 5962,601;  426,690;39583,602;14,13776
 619,52; 5913,624;  456,998;39402,028;14,01110
 620,10; 5820,488;  437,998;39260,709;13,86428
 620,67; 5810,266;  449,998;39154,750;13,84912
 621,25; 5770,254;  473,229;39028,959;13,73862
 621,83; 5685,228;  436,459;39019,036;13,60399
 622,41; 5716,191;  486,459;38998,617;13,57943
 622,98; 5614,022;  453,998;38655,738;13,50730
 623,56; 5570,762;  451,459;38689,752;13,38790
 624,14; 5491,293;  436,383;38565,257;13,25743
 624,72; 5459,721;  423,075;38417,376;13,25632
 625,29; 5408,719;  413,228;38549,823;13,09894
 625,87; 5405,782;  452,075;38466,768;13,03103
 626,45; 5328,269;  417,690;38324,418;12,95437
 627,02; 5314,544;  413,921;38215,566;12,96405
 627,60; 5225,682;  397,614;38124,708;12,79735
 628,18; 5207,508;  398,613;38188,077;12,72549
 628,76; 5100,719;  383,921;38171,663;12,48235
 629,33; 5148,411;  422,305;38249,420;12,49396
 629,91; 5104,103;  401,306;38177,171;12,44921
 630,49; 5076,841;  425,075;38312,394;12,27790
 631,06; 5047,888;  399,536;38459,946;12,21309
 631,64; 5045,581;  407,536;38377,420;12,21506
 632,22; 4959,997;  372,459;38333,157;12,08497
 632,79; 5023,954;  403,844;38654,767;12,07843
 633,37; 4947,852;  375,383;38673,637;11,93911
 633,95; 4931,805;  399,382;38688,532;11,83736
 634,52; 4953,587;  362,536;38788,128;11,94790
 635,10; 4942,515;  379,921;38818,740;11,86976
 635,68; 4906,086;  384,382;39091,668;11,68179
 636,25; 4845,952;  348,459;39013,900;11,63182
 636,83; 4834,026;  341,844;39254,663;11,54422
 637,41; 4834,054;  358,074;39293,257;11,49598
 637,98; 4813,534;  395,997;39488,277;11,30028
 638,56; 4787,545;  373,766;39592,038;11,25439
 639,13; 4774,074;  359,767;39617,369;11,24446
 639,71; 4773,407;  429,536;39867,578;11,01442
 640,29; 4659,799;  329,459;39557,844;11,03879
 640,86; 4702,403;  337,459;39866,978;11,04224
 641,44; 4651,161;  341,459;39749,882;10,93599
 642,02; 4648,535;  373,998;39841,248;10,83059
 642,59; 4608,370;  345,844;39929,613;10,76837
 643,17; 4598,051;  343,844;39862,363;10,76510
 643,74; 4578,809;  356,229;40024,498;10,64473
 644,32; 4522,644;  364,305;39884,633;10,52203
 644,89; 4544,941;  380,382;39880,613;10,54312
 645,47; 4535,468;  377,306;39927,671;10,51359
 646,05; 4487,611;  378,690;39771,883;10,43054
 646,62; 4445,677;  358,229;39776,710;10,36937
 647,20; 4423,281;  372,613;40027,844;10,21471
 647,77; 4392,270;  323,690;39774,671;10,31300
 648,35; 4345,643;  338,306;39734,806;10,17181
 648,92; 4334,709;  362,767;39749,556;10,08445
 649,50; 4295,852;  326,767;39723,537;10,07465
 650,08; 4247,918;  319,152;39597,133;10,00246
 650,65; 4297,907;  338,229;39806,883;10,03246
 651,23; 4300,896;  308,613;40523,556; 9,92736
 651,80; 4383,115;  314,690;41572,076; 9,86108
 652,38; 4461,027;  340,998;42139,134; 9,85697
 652,95; 4462,478;  312,690;42491,191; 9,83863
 653,53; 4496,236;  336,844;42725,403; 9,81253
 654,10; 4518,455;  372,767;42924,076; 9,74280
 654,68; 4459,906;  320,306;42958,749; 9,70861
 655,25; 4418,587;  305,075;42979,038; 9,63940
 655,83; 4426,191;  310,767;43076,096; 9,62327
 656,40; 4429,949;  351,229;43029,615; 9,55688
 656,98; 4401,092;  322,536;42980,134; 9,56115
 657,55; 4364,081;  331,383;42797,653; 9,49624
 658,13; 4325,147;  323,921;42315,634; 9,52861
 658,70; 4256,136;  345,998;42061,846; 9,37327
 659,28; 4149,201;  321,613;41245,134; 9,35303
 659,85; 4039,113;  363,075;40283,654; 9,20838
 660,43; 4033,256;  353,844;40271,481; 9,21751
 661,00; 4033,553;  327,229;40364,000; 9,25730
 661,58; 4009,849;  330,998;40789,904; 9,09281
 662,15; 4055,300;  313,613;40976,577; 9,20171
 662,73; 4112,212;  400,767;41189,404; 9,09921
 663,30; 4075,508;  332,306;41358,231; 9,12399
 663,88; 4087,420;  340,075;41627,827; 9,07617
 664,45; 4069,640;  323,306;41799,654; 9,03246
 665,03; 4076,398;  330,537;42283,712; 8,92867
 665,60; 4260,771;  421,229;42625,539; 9,09751
 666,17; 4141,299;  337,921;42882,597; 8,93973
 666,75; 4169,980;  329,844;43106,808; 8,97711
 667,32; 4246,046;  355,075;43540,174; 9,00998
 667,90; 4218,881;  335,229;43712,232; 8,95325
 668,47; 4231,562;  353,152;44033,059; 8,87916
 669,05; 4232,859;  342,998;44464,809; 8,81618
 669,62; 4235,540;  308,152;44406,866; 8,90590
 670,19; 4222,836;  315,614;44558,386; 8,83132
 670,77; 4247,441;  329,537;44717,136; 8,82657
 671,34; 4217,968;  323,844;44691,271; 8,77699
 671,92; 4265,495;  313,844;45045,174; 8,83419
 672,49; 4231,638;  344,152;45031,386; 8,69932
 673,06; 4232,242;  284,383;45040,982; 8,82073
 673,64; 4226,924;  308,768;45137,117; 8,74035
 674,21; 4194,605;  298,921;45004,175; 8,71415
 674,79; 4251,671;  343,844;45090,848; 8,73316
 675,36; 4264,198;  348,229;45406,675; 8,69087
 675,93; 4172,033;  300,614;45173,579; 8,62751
 676,51; 4230,253;  325,614;45442,175; 8,65456
 677,08; 4225,780;  331,691;45470,233; 8,62697
 677,65; 4243,769;  327,383;45691,906; 8,63315
 678,23; 4259,373;  321,998;45811,964; 8,65548
 678,80; 4229,900;  312,383;45922,252; 8,58919
 679,38; 4232,966;  320,614;46120,387; 8,54230
 679,95; 4324,724;  342,998;46345,906; 8,65538
 680,52; 4292,329;  323,229;46650,426; 8,56754
 681,10; 4341,471;  336,922;47022,099; 8,57778
 681,67; 4341,383;  321,383;47271,387; 8,56230
 682,24; 4335,911;  298,998;47420,291; 8,56707
 682,82; 4382,900;  321,614;48009,426; 8,51640
 683,39; 4498,735;  360,614;48324,714; 8,62754
 683,96; 4440,647;  315,922;48574,618; 8,54711
 684,54; 4440,020;  290,922;48919,907; 8,53215
 685,11; 4529,317;  362,537;49357,657; 8,50448
 685,68; 4530,536;  312,922;49743,099; 8,53247
 686,25; 4509,602;  300,691;49868,234; 8,49126
 686,83; 4543,360;  302,537;50029,984; 8,52813
 687,40; 4565,426;  290,768;50350,273; 8,53915
 687,97; 4649,799;  337,229;50784,100; 8,54874
 688,55; 4607,865;  289,152;50812,696; 8,54792
 689,12; 4627,239;  268,768;51034,754; 8,58542
 689,69; 4633,074;  280,922;51179,888; 8,55057
 690,26; 4660,217;  305,306;51292,023; 8,54126
 690,84; 4694,129;  304,152;51454,850; 8,58244
 691,41; 4705,656;  328,768;51484,292; 8,55604
 691,98; 4752,952;  317,460;51986,889; 8,58436
 692,56; 4754,557;  302,614;51976,946; 8,61539
 693,13; 4804,315;  354,153;51992,235; 8,61799
 693,70; 4824,611;  338,845;52201,446; 8,64933
 694,27; 4792,677;  302,306;52258,120; 8,64267
 694,84; 4797,512;  305,383;52328,793; 8,63482
 695,42; 4874,655;  350,153;52485,927; 8,67831
 695,99; 4871,721;  325,922;52709,447; 8,67792
 696,56; 4897,633;  319,614;52611,351; 8,75476
 697,13; 4923,775;  330,922;53014,255; 8,71785
 697,71; 4914,995;  315,383;52912,543; 8,74498
 698,28; 4950,984;  312,306;53340,832; 8,74751
 698,85; 4921,819;  271,383;53352,505; 8,76100
 699,42; 4957,731;  289,306;53546,332; 8,76584
 699,99; 5037,412;  330,691;53633,159; 8,83021
 700,57; 5018,478;  333,076;53746,447; 8,77197
 701,14; 5026,698;  300,076;53950,351; 8,81006
 701,71; 5072,840;  328,230;54138,717; 8,81726
 702,28; 5073,291;  312,383;54159,082; 8,84160
 702,85; 5103,818;  320,076;54152,140; 8,88642
 703,43; 5140,269;  344,230;54391,505; 8,87378
 704,00; 5212,488;  356,999;54785,640; 8,92084
 704,57; 5159,323;  317,768;54585,775; 8,92156
 705,14; 5233,543;  347,614;54896,217; 8,95702
 705,71; 5249,224;  359,460;55010,352; 8,94727
 706,28; 5243,367;  321,614;54776,486; 9,03822
 706,86; 5315,586;  356,537;55044,160; 9,06796
 707,43; 5335,960;  382,537;55050,294; 9,06096
 708,00; 5328,257;  368,307;54998,506; 9,07914
 708,57; 5299,169;  327,999;54883,333; 9,11216
 709,14; 5368,465;  368,153;55061,006; 9,14253
 709,71; 5355,685;  341,922;55216,448; 9,13678
 710,28; 5364,212;  339,076;55355,198; 9,13393
 710,86; 5421,586;  333,537;55542,795; 9,21593
 711,43; 5499,421;  367,307;55540,160; 9,30188
 712,00; 5472,794;  330,922;55606,603; 9,30223
 712,57; 5573,168;  352,153;55794,660; 9,41699
 713,14; 5513,157;  328,691;55898,564; 9,32963
 713,71; 5563,376;  334,845;55722,776; 9,43984
 714,28; 5584,827;  327,307;55845,834; 9,46985
 714,85; 5570,585;  307,691;55541,968; 9,52831
 715,42; 5606,343;  312,691;55781,718; 9,54344
 716,00; 5745,947;  393,307;55979,468; 9,62945
 716,57; 5677,321;  303,922;56016,295; 9,64489
 717,14; 5705,233;  307,922;55996,738; 9,69191
 717,71; 5730,452;  284,538;55959,334; 9,78165
 718,28; 5811,210;  347,153;56105,776; 9,79948
 718,85; 5775,199;  288,845;56184,988; 9,81526
 719,42; 5862,034;  320,384;56333,123; 9,89355
 719,99; 5859,715;  288,076;55964,488;10,00718
 720,56; 5917,166;  333,999;56330,546; 9,97056
 721,13; 5887,770;  284,922;56486,142; 9,96926
 721,70; 5948,144;  299,538;56392,277;10,07012
 722,27; 6028,517;  322,768;56368,412;10,18054
 722,84; 6101,737;  379,307;56552,008;10,18721
 723,41; 6043,572;  280,692;56514,373;10,24809
 723,98; 6104,868;  304,845;56814,431;10,26379
 724,55; 6176,857;  329,153;56876,104;10,34133
 725,12; 6128,385;  266,538;56644,854;10,39734
 725,69; 6230,604;  303,922;56881,066;10,47540
 726,27; 6261,516;  300,307;57136,354;10,48843
 726,84; 6374,044;  305,076;57442,412;10,62172
 727,41; 6378,494;  330,153;57266,470;10,62299
 727,98; 6459,329;  322,999;57616,451;10,71035
 728,55; 6536,933;  343,153;57487,893;10,83876
 729,12; 6525,230;  297,538;57735,335;10,84250
 729,69; 6559,603;  323,307;57807,086;10,84879
 730,26; 6626,823;  317,461;58049,451;10,92871
 730,82; 6606,889;  309,769;57961,201;10,92275
 731,39; 6666,109;  321,307;58115,182;10,97833
 731,96; 6743,482;  297,922;58340,701;11,10484
 732,53; 6779,240;  323,769;58578,221;11,08151
 733,10; 6847,998;  333,384;58591,817;11,18227
 733,67; 6882,449;  334,461;58880,644;11,18431
 734,24; 6846,438;  297,538;58516,778;11,24869
 734,81; 6908,965;  344,076;58560,067;11,27678
 735,38; 6919,338;  323,846;58250,663;11,38591
 735,95; 6933,020;  319,846;58131,798;11,43911
 736,52; 6958,316;  343,076;58342,317;11,40574
 737,09; 6977,920;  338,230;57876,683;11,53957
 737,66; 7039,986;  382,230;58164,587;11,52213
 738,23; 7052,821;  313,769;58244,414;11,63297
 738,80; 7241,195;  406,923;58651,394;11,73377
 739,37; 7244,568;  368,153;58750,068;11,77833
 739,94; 7230,557;  331,538;58793,741;11,80082
 740,51; 7439,469;  468,769;58906,260;11,92847
 741,07; 7316,920;  327,230;58845,318;11,94449
 741,64; 7375,601;  364,692;59040,222;11,94861
 742,21; 7429,051;  337,615;59047,818;12,07871
 742,78; 7419,348;  301,461;58832,106;12,16096
 743,35; 7487,183;  327,538;59096,395;12,18272
 743,92; 7555,941;  357,923;59376,299;12,19623
 744,49; 7606,622;  378,846;59166,818;12,29465
 745,06; 7599,765;  322,077;59086,568;12,38450
 745,63; 7612,754;  308,000;59223,857;12,39862
 746,19; 7679,589;  322,461;59089,145;12,51922
 746,76; 7684,501;  324,153;59240,203;12,49294
 747,33; 7754,336;  325,846;59194,645;12,61872
 747,90; 7806,632;  341,000;59470,857;12,62583
 748,47; 7857,775;  332,230;59330,453;12,75554
 749,04; 7904,149;  333,692;59319,819;12,83430
 749,61; 7946,060;  369,846;59306,184;12,85491
 750,17; 7992,357;  336,769;59323,857;12,97841
 750,74; 8052,269;  337,384;59244,377;13,09672
 751,31; 8031,104;  302,923;59212,819;13,11865
 751,88; 8079,093;  294,307;59139,569;13,22925
 752,45; 8155,851;  313,846;59343,396;13,28488
 753,02; 8169,225;  347,923;59170,762;13,29637
 753,58; 8203,367;  313,615;58968,665;13,45110
 754,15; 8255,356;  310,000;59192,492;13,49358
 754,72; 8240,884;  313,384;58972,473;13,51453
 755,29; 8247,334;  294,923;58806,146;13,59126
 755,86; 8379,477;  312,615;58917,820;13,76475
 756,42; 8443,927;  322,077;58767,493;13,89647
 756,99; 8397,147;  277,307;58638,012;13,91320
 757,56; 8463,443;  283,538;58724,531;13,99686
 758,13; 8431,125;  233,231;58577,743;14,05084
 758,70; 8547,960;  266,923;58638,031;14,18688
 759,26; 8536,410;  253,846;58751,628;14,15877
 759,83; 8603,937;  272,077;58881,378;14,21594
 760,40; 8559,157;  241,692;58659,512;14,23789
 760,97; 8641,146;  233,231;58654,801;14,39180
 761,53; 8641,135;  228,231;58259,551;14,49718
 762,10; 8610,662;  224,154;58296,917;14,44138
 762,67; 8718,189;  262,000;58249,897;14,58268
 763,24; 8674,101;  224,077;57759,955;14,68653
 763,80; 8734,013;  252,846;57950,782;14,69926
 764,37; 8702,079;  259,923;57953,225;14,63282
 764,94; 8683,760;  254,692;57446,513;14,73824
 765,50; 8736,057;  239,231;57460,494;14,84907
 766,07; 8824,584;  287,231;57560,705;14,90630
 766,64; 8780,804;  259,615;57201,302;14,96476
 767,21; 8774,870;  274,923;57079,436;14,96351
 767,77; 8857,859;  295,231;57075,186;15,08037
 768,34; 8853,617;  300,385;57003,013;15,08437
 768,91; 8911,529;  294,308;56727,148;15,26987
 769,47; 8941,595;  301,231;56822,283;15,28698
 770,04; 8999,199;  295,769;56639,264;15,44709
 770,61; 8974,342;  284,615;56498,783;15,45825
 771,18; 8965,407;  284,000;56278,379;15,50407
 771,74; 9061,627;  288,231;56579,437;15,58573
 772,31; 9014,308;  305,385;56189,802;15,58381
 772,88; 9036,451;  272,077;55945,783;15,74239
 773,44; 9043,440;  285,462;55766,226;15,78561
 774,01; 9121,659;  304,692;55961,668;15,84162
 774,58; 9149,725;  287,000;55467,957;16,06120
 775,14; 9159,329;  272,846;55696,091;16,03386
 775,71; 9223,780;  274,539;55600,149;16,17559
 776,27; 9320,846;  344,462;55466,053;16,28470
 776,84; 9341,604;  388,308;55656,265;16,19980
 777,41; 9321,131;  303,616;55321,015;16,39030
 777,97; 9276,812;  272,616;55000,149;16,45277
 778,54; 9288,417;  301,385;55050,822;16,41484
 779,11; 9404,098;  325,616;55068,880;16,58374
 779,67; 9436,548;  285,000;55038,553;16,71407
 780,24; 9355,229;  295,769;54777,765;16,62836
 780,80; 9419,603;  309,462;54927,592;16,67970
 781,37; 9480,900;  315,000;54811,111;16,81936
 781,94; 9489,735;  308,693;54498,784;16,94229
 782,50; 9503,493;  301,308;54345,765;17,02706
 783,07; 9556,328;  319,923;54492,054;17,05010
 783,63; 9562,163;  289,462;54200,958;17,19986
 784,20; 9597,305;  306,693;54244,862;17,22456
 784,77; 9607,679;  294,231;54086,612;17,31369
 785,33; 9661,745;  263,846;53817,593;17,54854
 785,90; 9677,041;  292,693;53804,035;17,53712
 786,46; 9732,953;  319,846;53659,862;17,64736
 787,03; 9680,788;  278,539;53536,766;17,65408
 787,59; 9703,162;  294,693;53378,285;17,72387
 788,16; 9787,766;  285,154;53344,420;17,90943
 788,73; 9766,986;  297,539;53208,939;17,89680
 789,29; 9788,975;  274,462;52859,458;18,09359
 789,86; 9868,425;  318,385;52656,439;18,24684
 790,42; 9810,491;  284,231;52592,420;18,21179
 790,99; 9806,018;  301,923;52334,862;18,26554
 791,55; 9848,238;  288,539;52213,074;18,41076
 792,12; 9913,381;  318,462;52249,901;18,47613
 792,68; 9883,754;  297,693;51828,267;18,60267
 793,25; 9918,820;  305,308;51771,094;18,67942
 793,81; 9932,193;  390,231;51371,228;18,71670
 794,38; 9808,413;  261,924;51072,901;18,78824
 794,94; 9894,325;  279,154;50907,728;18,99159
 795,51; 9898,237;  288,077;50757,094;19,04170
 796,07; 9880,072;  292,077;50415,844;19,12864
 796,64; 9942,138;  292,385;50582,902;19,18802
 797,20; 9826,358;  310,385;49989,883;19,15473
 797,77; 9803,885;  264,001;49579,171;19,34473
 798,33; 9832,720;  294,539;49574,921;19,35492
 798,90; 9860,786;  309,539;49464,979;19,43070
 799,46; 9830,928;  273,693;48984,883;19,62021
 800,03; 9804,071;  294,231;48894,710;19,56738
 800,59; 9838,368;  288,616;48555,152;19,78545
 801,15; 9850,741;  311,539;48497,056;19,79682
 801,72; 9765,346;  296,924;48028,345;19,83687
 802,28; 9732,257;  312,385;47755,941;19,85490
 802,85; 9694,862;  285,847;47556,768;19,90445
 803,41; 9695,851;  288,001;47328,056;19,99966
 803,98; 9695,455;  279,308;46980,806;20,16241
 804,54; 9691,213;  278,308;46717,787;20,26919
 805,11; 9682,894;  297,693;46456,614;20,33237
 805,67; 9686,114;  311,462;46437,518;20,32398
 806,23; 9598,564;  299,385;45931,268;20,37869
 806,80; 9683,861;  309,231;45820,249;20,59859
 807,36; 9649,850;  313,001;45797,615;20,52749
 807,93; 9648,454;  322,847;45528,057;20,62950
 808,49; 9577,058;  289,770;45086,653;20,73200
 809,05; 9602,047;  270,078;44936,249;20,89270
 809,62; 9582,421;  297,616;44852,307;20,83912
 810,18; 9588,486;  296,155;44766,211;20,89571
 810,74; 9526,245;  258,385;44459,500;20,96748
 811,31; 9490,772;  258,924;44243,634;20,98877
 811,87; 9498,376;  283,001;44068,846;21,04647
 812,44; 9598,288;  314,078;44003,058;21,25069
 813,00; 9460,585;  243,309;43807,115;21,15811
 813,56; 9580,727;  286,847;43819,712;21,34911
 814,13; 9542,101;  275,539;43770,538;21,30489
 814,69; 9530,936;  270,616;43553,981;21,39464
 815,25; 9448,463;  243,001;43104,731;21,47711
 815,82; 9466,145;  287,616;43037,173;21,47046
 816,38; 9492,441;  322,847;42924,770;21,52390
 816,94; 9458,892;  247,309;42650,750;21,72367
 817,51; 9378,727;  250,693;42287,039;21,71462
 818,07; 9319,639;  254,232;42149,789;21,63811
 818,63; 9369,166;  268,232;41827,770;21,89855
 819,20; 9345,309;  272,847;41797,135;21,84857
 819,76; 9296,297;  249,616;41386,808;21,99149
 820,32; 9299,286;  299,847;41280,405;21,96027
 820,89; 9256,352;  287,693;41097,693;21,97662
 821,45; 9227,726;  264,232;40781,443;22,12268
 822,01; 9225,715;  276,847;40505,347;22,24509
 822,57; 9244,627;  282,924;40350,174;22,36665
 823,14; 9141,154;  248,847;40103,847;22,31165
 823,70; 9175,681;  256,463;39804,367;22,55295
 824,26; 9112,978;  254,924;39677,655;22,46941
 824,82; 9141,044;  279,001;39539,482;22,57242
 825,39; 9055,340;  261,078;39160,155;22,60789
 825,95; 9087,483;  271,616;39187,982;22,65337
 826,51; 9036,549;  279,232;38892,117;22,67978
 827,08; 9120,538;  303,078;38838,252;22,88159
 827,64; 9070,603;  289,616;38783,309;22,81150
 828,20; 9039,285;  254,616;38231,675;23,13151
 828,76; 9087,273;  281,078;38318,271;23,15154
 829,32; 9140,262;  306,540;38212,867;23,30408
 829,89; 9014,174;  242,232;38075,310;23,18591
 830,45; 9062,548;  273,770;37933,521;23,33732
 831,01; 9054,152;  281,463;37882,425;23,33102
 831,57; 9072,833;  260,078;37700,252;23,53823
 832,14; 9144,053;  253,001;37611,002;23,79959
 832,70; 9082,042;  249,232;37460,906;23,73666
 833,26; 9067,954;  231,693;37300,041;23,83775
 833,82; 9099,173;  262,847;37248,099;23,89149
 834,38; 9134,855;  253,540;37196,080;24,04089
 834,95; 9158,920;  244,078;37014,983;24,24428
 835,51; 9081,832;  220,078;36893,349;24,16407
 836,07; 9165,206;  259,232;36913,791;24,29704
 836,63; 9267,349;  276,540;36964,849;24,50592
 837,19; 9202,338;  264,694;36823,138;24,44755
 837,75; 9090,788;  225,617;36588,195;24,37993
 838,32; 9230,008;  281,694;36579,945;24,65219
 838,88; 9248,920;  286,309;36594,234;24,68500
 839,44; 9217,293;  263,155;36528,138;24,69086
 840,00; 9227,282;  277,001;36482,426;24,72083
 840,56; 9188,040;  258,540;36065,407;24,93795
 841,12; 9229,183;  247,924;36118,619;25,03787
 841,68; 9176,787;  232,078;35960,446;25,03531
 842,25; 9224,084;  251,386;35870,504;25,19068
 842,81; 9160,534;  239,540;35651,484;25,19205
 843,37; 9174,138;  230,386;35667,311;25,23851
 843,93; 9241,743;  248,848;35569,446;25,46077
 844,49; 9266,655;  273,463;35597,196;25,45935
 845,05; 9191,874;  211,540;35434,639;25,49558
 845,61; 9351,478;  268,924;35604,389;25,70379
 846,17; 9286,621;  241,155;35367,677;25,75110
 846,73; 9310,225;  250,386;35265,889;25,87380
 847,29; 9248,907;  233,232;35046,254;25,89742
 847,86; 9261,742;  237,463;35047,927;25,92404
 848,42; 9240,577;  231,771;34748,985;26,09946
 848,98; 9263,335;  265,155;34750,812;26,09253
 849,54; 9240,862;  240,540;34827,331;26,02243
 850,10; 9345,236;  269,232;34579,928;26,45240
 850,66; 9288,532;  231,386;34474,139;26,44982
 851,22; 9268,675;  223,540;34348,889;26,50562
 851,78; 9365,279;  280,540;34463,101;26,57712
 852,34; 9298,730;  252,463;34143,928;26,69187
 852,90; 9284,180;  242,617;34116,909;26,69152
 853,46; 9261,169;  243,925;33769,120;26,89692
 854,02; 9310,081;  256,078;33873,101;26,93279
 854,58; 9246,839;  248,771;33591,082;26,98694
 855,14; 9296,674;  234,771;33489,448;27,25001
 855,70; 9250,278;  212,232;33313,275;27,30442
 856,26; 9249,421;  250,925;33331,178;27,20202
 856,82; 9215,487;  239,540;33079,005;27,33280
 857,38; 9323,168;  293,540;33035,063;27,57852
 857,94; 9302,003;  244,309;32908,967;27,72934
 858,50; 9246,300;  276,232;32697,102;27,66757
 859,06; 9207,366;  236,002;32592,313;27,72678
 859,62; 9258,816;  270,540;32577,064;27,82186
 860,18; 9219,189;  252,079;32320,198;27,96270
 860,74; 9199,101;  215,925;32223,794;28,06552
 861,30; 9173,090;  223,540;31985,545;28,17691
 861,86; 9307,848;  315,156;32028,218;28,35643
 862,42; 9226,837;  247,386;31845,583;28,41761
 862,98; 9272,518;  280,156;31846,256;28,48740
 863,54; 9202,738;  249,079;31524,314;28,62859
 864,10; 9233,650;  248,463;31708,833;28,56033
 864,66; 9164,331;  229,156;31374,506;28,68863
 865,22; 9146,474;  243,463;31222,872;28,73848
 865,78; 9116,924;  249,463;31099,622;28,74365
 866,34; 9109,067;  228,309;31151,218;28,71902
 866,90; 9171,979;  247,309;30873,584;29,14057
 867,45; 9045,660;  252,463;30662,488;28,91546
 868,01; 9059,957;  247,925;30551,545;29,07914
 868,57; 9019,946;  225,310;30301,757;29,24094
 869,13; 8984,704;  225,156;30207,046;29,21613
 869,69; 8999,462;  237,694;30017,565;29,42178
 870,25; 9004,912;  224,848;29960,161;29,52740
 870,81; 8995,824;  239,233;29956,757;29,46609
 871,37; 9044,506;  247,002;29845,277;29,72303
 871,93; 8999,802;  267,694;29726,104;29,64216
 872,49; 8979,330;  285,310;29389,854;29,87169
 873,04; 8957,472;  231,387;29272,527;30,04732
 873,60; 8953,000;  231,387;29057,661;30,25578
 874,16; 8895,912;  259,002;29020,258;30,02967
 874,72; 8936,065;  226,310;28936,027;30,33731
 875,28; 8960,065;  245,156;28957,104;30,35290
 875,84; 8926,912;  255,079;28820,796;30,35748
 876,40; 8924,988;  239,925;28773,642;30,43790
 876,95; 8945,373;  251,694;28707,104;30,55194
 877,51; 8985,450;  269,694;28800,181;30,54892
 878,07; 9030,065;  289,540;28699,488;30,76572
 878,63; 9006,296;  242,771;28721,565;30,77211
 879,19; 9053,373;  258,079;28695,719;30,92835
 879,75; 9089,988;  237,387;28775,565;31,02021
 880,30; 9155,988;  248,925;28722,104;31,28229
 880,86; 9225,065;  289,463;28815,642;31,32422
 881,42; 9220,604;  223,848;28931,719;31,33899
 881,98; 9269,065;  264,310;28987,642;31,34997
 882,54; 9345,604;  247,463;29057,719;31,57952
 883,09; 9409,450;  248,156;29168,104;31,67811
 883,65; 9494,142;  232,463;29314,565;31,84666
 884,21; 9540,296;  264,617;29406,796;31,82905
 884,77; 9591,527;  222,463;29545,027;31,95172
 885,32; 9701,912;  236,463;29663,796;32,16550
 885,88; 9732,142;  284,079;29835,027;31,97212
 886,44; 9835,065;  247,310;29985,873;32,24014
 887,00; 9935,604;  259,002;29880,335;32,66768
 887,56; 9948,604;  239,387;30103,950;32,51083
 888,11; 9999,373;  244,617;30155,642;32,61258
 888,67;10063,758;  270,156;30233,642;32,68512
 889,23;10097,065;  256,925;30326,950;32,72408
 889,79;10076,912;  221,617;30207,258;32,86671
 890,34;10072,835;  258,310;30105,258;32,88284
 890,90;10222,527;  315,617;30287,412;33,05411
 891,46;10081,219;  230,002;30215,412;32,85337
 892,01;10158,604;  262,079;30159,027;33,10212
 892,57;10157,296;  287,310;30135,642;33,06713
 893,13;10050,373;  241,463;29936,565;33,03208
 893,69;10079,142;  230,694;29820,027;33,28378
 894,24;10052,065;  244,694;29728,488;33,26360
 894,80;10053,988;  248,387;29520,104;33,49855
 895,36; 9961,527;  245,310;29464,565;33,25279
 895,91; 9929,912;  247,002;29223,873;33,41599
 896,47; 9938,142;  262,310;29086,796;33,56810
 897,03; 9861,219;  237,617;29003,104;33,45538
 897,58; 9880,142;  250,079;28808,642;33,72041
 898,14; 9853,912;  253,540;28610,104;33,85590
 898,70; 9772,373;  218,463;28388,104;33,91563
 899,25; 9829,604;  251,233;28472,719;33,94000
 899,81; 9779,296;  255,387;28214,335;34,06391
 900,37; 9736,835;  207,079;28039,950;34,23921
 900,92; 9799,912;  233,233;28046,873;34,39564
 901,48; 9664,988;  224,694;27881,642;34,13354
 902,03; 9708,065;  241,848;27736,873;34,42884
 902,59; 9655,758;  232,540;27614,104;34,41446
 903,15; 9677,527;  255,387;27490,642;34,59538
 903,70; 9578,681;  243,694;27184,488;34,65000
 904,26; 9556,296;  237,079;27075,796;34,72304
 904,82; 9579,296;  235,002;27008,565;34,90120
 905,37; 9545,681;  251,694;26900,565;34,87572
 905,93; 9521,527;  227,617;26680,412;35,13394
 906,48; 9543,142;  253,617;26681,181;35,15089
 907,04; 9541,373;  243,925;26703,873;35,13782
 907,60; 9475,527;  251,771;26460,104;35,19398
 908,15; 9482,219;  220,233;26310,027;35,50042
 908,71; 9496,681;  251,694;26259,488;35,54698
 909,26; 9455,142;  242,079;26061,796;35,68228
 909,82; 9407,065;  253,617;25973,873;35,58848
 910,37; 9434,758;  275,310;25934,412;35,69668
 910,93; 9387,988;  227,540;25626,258;36,06658
 911,48; 9309,988;  245,540;25466,258;35,94048
 912,04; 9340,373;  223,463;25345,796;36,29006
 912,60; 9391,912;  229,771;25470,181;36,29949
 913,15; 9332,527;  235,002;25217,258;36,41595
 913,71; 9267,604;  232,925;25056,565;36,39546
 914,26; 9272,988;  214,387;24952,335;36,61824
 914,82; 9232,988;  238,771;24873,873;36,50976
 915,37; 9230,450;  226,771;24823,642;36,60498
 915,93; 9238,219;  291,002;24707,642;36,64393
 916,48; 9176,142;  218,002;24588,488;36,75815
 917,04; 9165,219;  256,771;24472,258;36,78823
 917,59; 9171,988;  269,156;24299,950;37,04760
 918,15; 9122,527;  205,540;24127,412;37,27546
 918,70; 9027,912;  230,233;24085,719;36,87906
 919,26; 9075,450;  236,310;23955,027;37,26652
 919,81; 9020,527;  213,002;23737,104;37,44043
 920,37; 9064,835;  234,387;23711,642;37,61278
 920,92; 9023,681;  256,925;23632,104;37,50455
 921,48; 8944,296;  215,925;23362,950;37,70839
 922,03; 8959,065;  229,925;23411,258;37,65590
 922,59; 8924,142;  237,233;23188,181;37,84989
 923,14; 8923,219;  241,387;23117,104;37,95218
 923,69; 8950,065;  253,079;23007,642;38,22085
 924,25; 8945,219;  261,925;23030,950;38,13643
 924,80; 8792,296;  223,848;22742,412;38,05060
 925,36; 8777,219;  230,156;22713,335;38,01537
 925,91; 8763,912;  220,617;22526,796;38,30012
 926,47; 8717,142;  211,002;22422,027;38,29693
 927,02; 8817,758;  303,694;22439,412;38,46301
 927,57; 8714,450;  230,079;22282,181;38,47421
 928,13; 8668,681;  219,771;22184,412;38,46596
 928,68; 8697,219;  225,617;22158,642;38,62487
 929,24; 8649,450;  198,233;21911,873;38,92124
 929,79; 8636,450;  222,848;21785,258;39,01977
 930,34; 8574,450;  226,694;21600,950;39,05519
 930,90; 8598,142;  224,156;21626,719;39,12609
 931,45; 8638,912;  226,617;21524,335;39,49857
 932,01; 8538,835;  230,002;21376,642;39,29150
 932,56; 8566,065;  249,310;21230,873;39,63840
 933,11; 8552,142;  251,156;21304,488;39,42837
 933,67; 8479,527;  220,079;21047,412;39,65677
 934,22; 8500,450;  229,771;20985,796;39,84712
 934,77; 8482,219;  249,925;20872,719;39,91842
 935,33; 8443,758;  229,387;20730,335;40,06825
 935,88; 8438,604;  234,002;20730,565;40,02916
 936,43; 8438,373;  218,002;20557,104;40,41659
 936,99; 8359,142;  222,387;20398,719;40,32822
 937,54; 8315,988;  206,387;20254,950;40,44979
 938,09; 8302,142;  234,002;20262,796;40,28271
 938,65; 8265,373;  242,617;20134,565;40,33167
 939,20; 8254,604;  206,694;20059,181;40,53855
 939,75; 8219,065;  208,617;19935,412;40,60694
 940,31; 8172,219;  212,694;19782,258;40,67298
 940,86; 8255,681;  225,233;19784,488;41,05702
 941,41; 8248,142;  332,694;19728,488;40,81013
 941,96; 8160,758;  213,463;19530,258;41,14189
 942,52; 8163,142;  225,925;19473,104;41,23834
 943,07; 8068,912;  209,079;19286,258;41,20018
 943,62; 8109,450;  215,233;19190,181;41,60337
 944,18; 8059,219;  204,156;19129,104;41,50639
 944,73; 8043,681;  251,387;19083,565;41,37755
 945,28; 7937,450;  194,463;18868,335;41,46428
 945,83; 7980,450;  211,233;18904,181;41,56229
 946,39; 7956,142;  225,002;18854,335;41,49982
 946,94; 7922,296;  234,387;18772,873;41,47000
 947,49; 7875,681;  218,002;18646,950;41,55245
 948,04; 7952,373;  271,848;18616,950;41,86690
 948,59; 7840,065;  244,771;18571,027;41,44488
 949,15; 7803,604;  197,233;18398,104;41,79125
 949,70; 7799,142;  227,694;18305,181;41,88330
 950,25; 7748,758;  232,387;18258,796;41,69644
 950,80; 7717,527;  181,540;18098,181;42,06138
 951,36; 7702,988;  189,310;17997,488;42,19229
 951,91; 7758,065;  238,694;18064,796;42,18180
 952,46; 7609,527;  211,848;17810,642;42,03515
 953,01; 7721,142;  231,233;17894,719;42,40335
 953,56; 7571,450;  196,463;17687,104;42,16533
 954,11; 7610,604;  236,233;17578,642;42,52218
 954,67; 7581,219;  214,310;17560,488;42,46993
 955,22; 7545,912;  208,156;17351,335;42,80277
 955,77; 7571,835;  256,925;17345,027;42,80703
 956,32; 7577,988;  287,848;17339,873;42,75234
 956,87; 7475,450;  216,233;17181,027;42,78989
 957,42; 7499,912;  218,387;17060,796;43,23327
 957,98; 7450,373;  216,540;17052,488;42,96659
 958,53; 7502,988;  251,848;16944,796;43,43835
 959,08; 7413,065;  205,387;16840,104;43,32913
 959,63; 7360,065;  213,463;16698,335;43,35249
 960,18; 7361,219;  240,310;16663,104;43,35991
 960,73; 7350,758;  227,694;16622,796;43,44629
 961,28; 7276,912;  200,233;16484,565;43,45698
 961,83; 7337,450;  253,463;16457,950;43,71620
 962,39; 7272,604;  195,233;16332,873;43,85629
 962,94; 7266,912;  228,694;16245,488;43,94273
 963,49; 7197,296;  229,233;16088,796;43,93604
 964,04; 7199,219;  239,925;16038,181;44,05103
 964,59; 7121,912;  188,694;15921,104;44,06965
 965,14; 7185,296;  238,617;15892,335;44,37718
 965,69; 7107,142;  215,694;15766,796;44,31485
 966,24; 7095,296;  210,771;15661,104;44,55907
 966,79; 7004,912;  241,617;15580,412;44,09274
 967,34; 6986,681;  204,694;15437,796;44,52138
 967,89; 7009,450;  223,387;15377,181;44,78128
 968,44; 6935,912;  222,848;15322,335;44,45889
 968,99; 6956,527;  226,617;15221,719;44,88072
 969,55; 6911,065;  223,848;15129,488;44,86367
 970,10; 6857,065;  237,694;15034,642;44,73471
 970,65; 6879,142;  242,925;14971,642;45,05632
 971,20; 6831,681;  209,079;14867,335;45,18001
 971,75; 6735,912;  204,694;14685,873;45,10142
 972,30; 6718,450;  223,002;14625,104;45,10070
 972,85; 6699,758;  211,156;14534,104;45,30214
 973,40; 6649,835;  203,310;14416,565;45,35572
 973,95; 6630,758;  239,694;14371,335;45,22521
 974,50; 6644,373;  258,694;14305,181;45,46104
 975,05; 6573,450;  224,848;14154,027;45,57772
 975,60; 6571,604;  232,463;14079,796;45,77878
 976,15; 6455,450;  206,925;13992,719;45,32583
 976,70; 6455,988;  234,079;13964,565;45,31456
 977,25; 6469,604;  238,387;13904,796;45,59513
 977,80; 6366,142;  224,617;13683,258;45,63258
 978,35; 6317,912;  239,387;13569,873;45,59867
 978,89; 6307,219;  197,540;13494,565;45,94771
 979,44; 6298,527;  216,617;13471,950;45,88274
 979,99; 6177,142;  203,771;13263,642;45,73836
 980,54; 6190,450;  245,002;13232,873;45,77693
 981,09; 6192,219;  253,079;13134,719;46,10547
 981,64; 6096,912;  243,617;12957,104;46,04004
 982,19; 6118,450;  259,540;12995,565;46,00265
 982,74; 6088,065;  240,540;12766,719;46,68243
 983,29; 5962,065;  214,848;12646,027;46,23228
 983,84; 5956,758;  238,310;12546,796;46,45939
 984,39; 6024,142;  320,002;12613,181;46,40086
 984,94; 5845,835;  207,848;12371,258;46,35202
 985,49; 5862,604;  255,771;12332,258;46,42768
 986,03; 5857,450;  253,079;12205,950;46,88724
 986,58; 5804,835;  291,156;12056,642;46,86316
 987,13; 5723,065;  236,848;11931,335;46,91285
 987,68; 5686,758;  244,848;11804,335;47,07743
 988,23; 5656,835;  238,463;11760,335;47,02683
 988,78; 5602,758;  225,771;11591,642;47,30818
 989,33; 5602,065;  258,156;11502,412;47,52569
 989,88; 5575,835;  269,617;11457,796;47,42700
 990,42; 5454,296;  220,771;11289,488;47,28213
 990,97; 5469,219;  225,540;11129,181;48,09108
 991,52; 5424,450;  259,463;11156,258;47,39914
 992,07; 5405,758;  280,463;11006,565;47,78338
 992,62; 5352,988;  234,617;10952,488;47,75548
 993,17; 5284,835;  243,771;10793,412;47,78422
 993,71; 5283,835;  255,310;10649,181;48,37971
 994,26; 5228,988;  225,387;10543,796;48,49199
 994,81; 5227,912;  263,540;10517,873;48,41243
 995,36; 5114,296;  225,463;10316,950;48,44512
 995,91; 5102,219;  238,848;10271,104;48,47734
 996,45; 5044,604;  228,925;10182,488;48,38146
 997,00; 5014,296;  224,617;10036,181;48,81667
 997,55; 4969,758;  251,540; 9979,796;48,50014
 998,10; 4962,142;  263,617; 9872,950;48,89543
 998,65; 4941,527;  239,848; 9776,796;49,29962
 999,19; 4904,681;  257,771; 9693,258;49,24928
 999,74; 4835,219;  268,771; 9553,335;49,18323
1000,29; 4801,604;  239,233; 9525,258;49,13158
1000,84; 4724,681;  238,233; 9348,335;49,24696
1001,38; 4693,065;  246,617; 9214,412;49,58241
1001,93; 4657,373;  244,002; 9188,873;49,33968
1002,48; 4570,065;  229,848; 9065,412;49,12213
1003,03; 4571,835;  259,002; 8988,642;49,40447
1003,57; 4536,527;  244,079; 8888,642;49,65489
1004,12; 4505,219;  299,002; 8834,642;49,27829
1004,67; 4431,527;  235,310; 8676,104;49,71354
1005,22; 4341,527;  229,771; 8522,873;49,58043
1005,76; 4261,527;  223,079; 8398,027;49,40029
1006,31; 4270,527;  262,387; 8335,027;49,65092
1006,86; 4191,142;  233,079; 8203,873;49,65708
1007,40; 4120,065;  224,387; 8113,488;49,38051
1007,95; 4103,604;  244,771; 7994,412;49,79370
1008,50; 4025,527;  248,540; 7885,412;49,45725
1009,04; 4001,758;  243,079; 7761,104;49,99556
1009,59; 3900,373;  246,617; 7645,335;49,38364
1010,14; 3899,758;  222,310; 7512,335;50,44493
1010,68; 3830,065;  243,771; 7444,950;49,80149
1011,23; 3755,912;  239,540; 7324,104;49,63427
1011,78; 3767,450;  252,925; 7200,104;50,58924
1012,32; 3763,219;  281,617; 7150,027;50,69007
1012,87; 3710,835;  269,617; 7052,488;50,73393
1013,42; 3615,142;  224,540; 6985,873;50,14695
1013,96; 3663,988;  276,387; 7006,412;50,33565
1014,51; 3568,835;  206,771; 6821,104;50,82997
1015,06; 3588,988;  208,771; 6839,181;50,98052
1015,60; 3646,912;  273,694; 6944,104;50,56987
1016,15; 3621,988;  217,387; 6865,873;51,20868
1016,69; 3665,296;  233,617; 6917,181;51,34505
1017,24; 3657,065;  217,463; 6887,027;51,57162
1017,79; 3739,450;  266,310; 6977,565;51,75098
1018,33; 3714,758;  230,387; 6973,565;51,67253
1018,88; 3742,758;  256,002; 7040,412;51,39365
1019,42; 3746,142;  235,540; 7027,335;51,68887
1019,97; 3766,527;  228,002; 7042,642;51,92534
1020,51; 3811,219;  264,002; 7104,796;51,85388
1021,06; 3820,219;  213,540; 7013,335;53,04100
1021,61; 3740,219;  195,310; 7018,642;51,95276
1022,15; 3684,604;  188,925; 7005,104;51,28502
1022,70; 3741,142;  230,771; 6977,258;52,03258
1023,24; 3732,219;  216,848; 6956,950;52,15605
1023,79; 3710,988;  224,848; 6841,950;52,68379
1024,33; 3677,835;  223,463; 6815,104;52,40533
1024,88; 3667,296;  253,848; 6720,565;52,78487
1025,42; 3633,604;  237,233; 6653,642;52,93258
1025,97; 3561,450;  225,002; 6550,258;52,74803
1026,51; 3504,835;  201,387; 6445,258;52,90705
1027,06; 3484,065;  214,925; 6373,335;53,08417
1027,60; 3416,988;  248,310; 6281,719;52,51887
1028,15; 3412,142;  238,387; 6152,642;53,66281
1028,69; 3320,527;  187,387; 6030,181;53,62401
1029,24; 3290,065;  213,848; 5970,642;53,43629
1029,78; 3229,219;  211,310; 5860,181;53,42500
1030,33; 3177,219;  204,694; 5736,873;53,73154
1030,87; 3163,758;  217,233; 5712,335;53,62093
1031,42; 3090,450;  206,079; 5575,488;53,71859
1031,96; 3090,450;  236,310; 5524,027;53,97680
1032,51; 3032,835;  216,233; 5425,335;54,07078
1033,05; 2997,219;  224,848; 5379,719;53,78158
1033,60; 2935,450;  192,771; 5262,796;54,09596
1034,14; 2902,681;  219,617; 5207,412;53,79259
1034,69; 2867,450;  224,233; 5146,104;53,70350
1035,23; 2835,142;  219,463; 5064,335;53,98862
1035,77; 2819,527;  223,848; 4983,950;54,52990
1036,32; 2753,988;  189,079; 4903,104;54,41018
1036,86; 2778,835;  227,694; 4854,412;55,13932
1037,41; 2693,604;  234,925; 4783,104;54,05853
1037,95; 2641,373;  202,079; 4684,258;54,42206
1038,50; 2590,681;  218,540; 4675,950;53,21791
1039,04; 2620,988;  240,233; 4619,565;54,36344
1039,58; 2548,527;  201,387; 4517,642;54,37908
1040,13; 2534,912;  217,540; 4454,181;54,69832
1040,67; 2568,219;  241,617; 4438,873;55,43150
1041,21; 2543,604;  248,233; 4341,104;56,08217
1041,76; 2462,527;  213,002; 4282,027;55,28413
1042,30; 2433,835;  212,617; 4238,719;55,17042
1042,85; 2410,835;  215,771; 4141,873;55,90949
1043,39; 2357,142;  196,694; 4062,719;55,88293
1043,93; 2358,835;  238,156; 4062,873;55,44668
1044,48; 2325,912;  226,310; 3987,335;55,82526
1045,02; 2284,681;  217,002; 3953,950;55,33068
1045,56; 2286,142;  255,463; 3939,565;55,12005
1046,11; 2263,450;  239,617; 3856,565;55,95415
1046,65; 2227,373;  235,310; 3768,258;56,38530
1047,19; 2172,681;  212,002; 3726,181;55,79337
1047,74; 2139,527;  194,310; 3648,873;56,30863
1048,28; 2148,912;  225,233; 3585,796;57,24275
1048,82; 2129,296;  254,925; 3615,335;55,77806
1049,37; 2105,835;  243,771; 3534,412;56,58666
1049,91; 2074,219;  227,079; 3486,873;56,66432
1050,45; 2053,296;  232,310; 3441,258;56,74715
1050,99; 2015,450;  224,925; 3392,181;56,53238
1051,54; 1978,604;  209,079; 3325,104;56,78789
1052,08; 1995,373;  245,848; 3293,027;57,41458
1052,62; 1947,142;  237,002; 3273,027;56,32827
1053,16; 1932,373;  210,310; 3173,181;58,12144
1053,71; 1899,527;  240,310; 3164,950;56,73235
1054,25; 1856,450;  232,617; 3096,027;56,70976
1054,79; 1845,142;  233,771; 3062,027;56,97403
1055,33; 1787,142;  201,310; 3002,258;56,61771
1055,88; 1810,604;  234,233; 2977,412;57,46513
1056,42; 1788,219;  236,310; 2939,027;57,42035
1056,96; 1774,219;  240,694; 2917,104;57,29784
1057,50; 1748,758;  244,771; 2851,488;57,69657
1058,05; 1699,912;  226,156; 2811,258;57,00958
1058,59; 1704,912;  250,540; 2786,488;57,35019
1059,13; 1638,450;  206,310; 2734,335;56,65056
1059,67; 1659,219;  241,233; 2698,027;57,71694
1060,21; 1607,912;  227,233; 2656,796;56,82827
1060,76; 1606,988;  243,617; 2615,181;57,48828
1061,30; 1615,142;  260,617; 2603,565;57,81285
1061,84; 1572,758;  235,156; 2537,412;58,09962
1062,38; 1503,142;  210,694; 2454,412;57,60298
1062,92; 1559,065;  275,079; 2525,181;57,06348
1063,46; 1515,835;  239,771; 2429,642;58,27117
1064,01; 1485,835;  230,540; 2389,181;58,15208
1064,55; 1487,758;  237,540; 2352,412;59,11553
1065,09; 1422,604;  208,694; 2310,565;57,75376
1065,63; 1467,450;  262,079; 2338,873;58,03999
1066,17; 1461,219;  279,233; 2297,335;58,56922
1066,71; 1433,450;  250,771; 2276,412;58,38543
1067,25; 1366,450;  233,540; 2190,258;57,89848
1067,80; 1380,835;  244,617; 2191,258;58,36812
1068,34; 1399,142;  264,310; 2199,181;58,65159
1068,88; 1347,450;  216,233; 2112,104;59,66741
1069,42; 1359,296;  269,540; 2133,796;58,45527
1069,96; 1327,142;  238,387; 2086,873;58,89985
1070,50; 1333,681;  281,310; 2090,796;58,15855
1071,04; 1274,988;  223,310; 2012,873;58,76734
1071,58; 1268,450;  232,848; 1994,488;58,78623
1072,12; 1266,450;  240,617; 1989,565;58,65427
1072,66; 1257,527;  232,925; 1979,488;58,66388
1073,21; 1255,065;  257,925; 1962,181;58,50885
1073,75; 1222,296;  242,310; 1920,642;58,39048
1074,29; 1220,835;  238,848; 1893,258;59,35571
1074,83; 1221,219;  264,233; 1894,565;58,69885
1075,37; 1211,450;  260,079; 1867,335;59,19227
1075,91; 1180,758;  249,463; 1835,565;58,71591
1076,45; 1170,758;  262,233; 1804,642;58,90297
1076,99; 1176,527;  253,617; 1787,719;60,15960
1077,53; 1116,912;  227,002; 1742,335;58,72701
1078,07; 1139,681;  246,540; 1739,719;59,81470
1078,61; 1097,373;  248,310; 1702,181;58,40019
1079,15; 1089,219;  233,540; 1692,488;58,65040
1079,69; 1093,527;  241,925; 1681,335;59,16328
1080,23; 1107,142;  266,848; 1681,412;59,40308
1080,77; 1123,219;  297,079; 1717,104;58,17788
1081,31; 1056,527;  239,925; 1636,565;58,46902
1081,85; 1079,758;  259,387; 1622,642;60,17735
1082,39; 1037,219;  234,233; 1573,027;59,97834
1082,93; 1046,373;  264,925; 1595,565;58,72722
1083,47; 1003,219;  226,540; 1525,488;59,79291
1084,01; 1020,373;  239,079; 1553,412;59,44418
1084,55;  984,912;  234,617; 1512,642;58,70732
1085,09; 1002,681;  253,156; 1508,642;59,69996
1085,63;  988,065;  248,387; 1479,258;60,09393
1086,17;  960,142;  235,694; 1460,258;59,15970
1086,71;  946,988;  225,925; 1436,565;59,56050
1087,24;  958,142;  255,848; 1447,335;58,94269
1087,78;  963,065;  265,310; 1439,258;59,43668
1088,32;  914,988;  222,848; 1381,181;59,75316
1088,86;  933,912;  261,463; 1399,181;59,10502
1089,40;  923,758;  240,694; 1374,181;60,26216
1089,94;  891,758;  218,079; 1325,258;60,84643
1090,48;  892,142;  254,463; 1340,027;58,74174
1091,02;  888,527;  256,925; 1335,565;58,55538
1091,56;  880,065;  242,079; 1302,873;60,14235
1092,10;  841,988;  221,540; 1267,565;59,31484
1092,63;  889,604;  262,387; 1282,950;61,45794
1093,17;  863,835;  264,694; 1276,796;59,19763
1093,71;  832,527;  229,079; 1222,642;60,73574
1094,25;  858,065;  274,156; 1260,565;59,19545
1094,79;  813,604;  234,156; 1223,796;58,55138
1095,33;  827,988;  251,694; 1210,565;60,10132
1095,87;  810,604;  246,463; 1197,488;59,31920
1096,40;  765,219;  226,540; 1154,335;58,06016
1096,94;  797,835;  245,310; 1165,950;60,01529
1097,48;  796,219;  256,617; 1172,027;58,94650
1098,02;  773,604;  233,002; 1120,719;60,89798
1098,56;  749,142;  211,156; 1089,796;61,22943
1099,10;  732,758;  224,002; 1093,181;58,53292
1099,63;  725,450;  213,387; 1062,104;60,33381
1100,17;  737,604;  250,540; 1095,258;57,65994
1100,71;  779,835;  271,848; 1098,796;61,42907

