
Integration time [ms]: 150,000
Averaging Nr. [scans]: 13
Smoothing Nr. [pixels]: 0
Data measured with spectrometer [name]: 2009305U1
Wave   ;Sample   ;Dark     ;Reference;Reflectance
[nm]   ;[counts] ;[counts] ;[counts] ;[%]

 175,72;  219,508;  219,771;  228,149;-3,13948
 176,32;  246,583;  243,540;  245,741;138,26355
 176,92;  276,862;  279,310;  276,351; 0,00000
 177,52;  267,789;  275,694;  275,625; 0,00000
 178,12;  249,729;  247,848;  237,671; 0,00000
 178,72;  285,369;  283,232;  275,907; 0,00000
 179,32;  265,954;  273,156;  272,153; 0,00000
 179,92;  270,509;  272,771;  263,888; 0,00000
 180,52;  254,673;  246,926;  261,484;53,21855
 181,12;  274,468;  277,617;  270,726; 0,00000
 181,73;  310,416;  289,079;  292,196;684,40881
 182,33;  404,125;  381,387;  410,818;77,25935
 182,93;  294,505;  279,771;  292,658;114,33678
 183,53;  248,720;  255,771;  247,236; 0,00000
 184,13;  259,253;  255,463;  243,066; 0,00000
 184,73;  294,625;  297,694;  297,759; 0,00000
 185,33;  278,071;  256,691;  368,500;19,12190
 185,93;  273,251;  255,075;  382,746;14,23620
 186,53;  312,562;  270,306;  409,740;30,30519
 187,13;  310,134;  286,691;  442,672;15,02911
 187,73;  296,021;  258,383;  397,569;27,04190
 188,33;  289,042;  244,459;  389,070;30,82922
 188,93;  306,295;  265,151;  389,820;33,00217
 189,53;  297,552;  255,997;  401,808;28,49953
 190,13;  335,159;  303,534;  425,453;25,93871
 190,73;  268,300;  238,612;  373,568;21,99855
 191,34;  316,114;  272,382;  412,563;31,19663
 191,94;  291,096;  245,536;  389,124;31,72956
 192,54;  304,164;  257,845;  421,882;28,23677
 193,14;  309,238;  280,999;  427,015;19,34016
 193,74;  311,950;  277,460;  416,620;24,78433
 194,34;  297,520;  266,383;  422,879;19,89597
 194,94;  273,647;  229,152;  370,509;31,47660
 195,54;  248,358;  219,768;  356,227;20,95144
 196,14;  263,005;  237,307;  390,260;16,80164
 196,74;  268,307;  231,845;  381,671;24,33680
 197,34;  249,663;  216,922;  370,235;21,35529
 197,94;  271,444;  245,999;  399,200;16,60917
 198,54;  294,223;  248,999;  404,056;29,16582
 199,14;  248,046;  232,615;  417,339; 8,35373
 199,74;  252,945;  222,076;  395,845;17,76456
 200,34;  237,164;  207,461;  420,541;13,94011
 200,94;  275,902;  248,153;  461,164;13,02709
 201,54;  263,245;  219,768;  445,273;19,27992
 202,14;  299,566;  261,153;  507,467;15,59488
 202,74;  270,414;  229,384;  505,376;14,86652
 203,34;  253,189;  209,000;  512,156;14,57637
 203,94;  221,217;  174,153;  513,305;13,87676
 204,54;  293,209;  270,153;  616,582; 6,65547
 205,14;  255,494;  206,384;  598,674;12,51889
 205,74;  296,698;  252,230;  701,528; 9,89705
 206,34;  253,499;  216,076;  694,450; 7,82290
 206,94;  268,919;  233,538;  772,940; 6,55934
 207,54;  238,199;  201,692;  795,827; 6,14455
 208,14;  267,866;  213,153;  877,320; 8,23779
 208,74;  278,732;  218,845;  976,513; 7,90412
 209,34;  257,540;  217,461; 1044,418; 4,84660
 209,94;  282,497;  220,307; 1137,587; 6,77986
 210,54;  280,767;  229,692; 1220,957; 5,15252
 211,14;  300,160;  224,922; 1339,805; 6,74847
 211,73;  309,250;  232,768; 1439,199; 6,33949
 212,33;  312,387;  239,461; 1581,273; 5,43494
 212,93;  301,933;  226,307; 1645,732; 5,32797
 213,53;  279,939;  189,768; 1712,865; 5,92024
 214,13;  316,315;  218,538; 1813,622; 6,12987
 214,73;  303,796;  197,307; 1816,698; 6,57588
 215,33;  281,266;  186,538; 1864,202; 5,64646
 215,93;  313,257;  218,230; 1998,417; 5,33800
 216,53;  287,121;  188,076; 2057,055; 5,29943
 217,13;  340,653;  225,846; 2256,567; 5,65353
 217,73;  337,979;  210,538; 2464,275; 5,65464
 218,33;  307,661;  155,769; 2660,450; 6,06433
 218,93;  362,999;  201,231; 2977,546; 5,82673
 219,53;  382,099;  200,923; 3232,648; 5,97601
 220,13;  367,635;  170,769; 3524,776; 5,86956
 220,73;  403,988;  183,538; 3882,522; 5,95976
 221,32;  418,655;  205,461; 4307,282; 5,19756
 221,92;  475,461;  201,846; 4696,208; 6,08797
 222,52;  484,356;  186,307; 5149,821; 6,00479
 223,12;  507,208;  202,461; 5611,108; 5,63444
 223,72;  548,030;  205,076; 5985,691; 5,93283
 224,32;  585,909;  205,384; 6429,001; 6,11421
 224,92;  581,652;  190,538; 6682,132; 6,02493
 225,52;  625,588;  200,922; 7052,984; 6,19763
 226,12;  641,202;  195,153; 7404,550; 6,18704
 226,72;  656,310;  165,999; 7775,960; 6,44301
 227,31;  679,052;  163,307; 8103,707; 6,49521
 227,91;  755,385;  197,999; 8551,866; 6,67219
 228,51;  757,091;  185,614; 8888,848; 6,56626
 229,11;  821,932;  198,538; 9299,491; 6,84977
 229,71;  869,854;  184,230; 9632,357; 7,25671
 230,31;  890,803;  180,769;10070,106; 7,17979
 230,91;  887,380;  166,076;10383,471; 7,05957
 231,51;  967,798;  165,923;10680,099; 7,62661
 232,10; 1018,765;  181,461;10992,241; 7,74508
 232,70; 1068,289;  196,460;11145,879; 7,96233
 233,30; 1169,251;  215,846;11504,976; 8,44534
 233,90; 1170,301;  186,999;11581,030; 8,62997
 234,50; 1215,323;  192,615;11706,819; 8,88215
 235,10; 1273,036;  183,769;11702,286; 9,45667
 235,70; 1327,780;  204,999;11795,849; 9,68678
 236,29; 1381,689;  204,461;11688,836;10,25070
 236,89; 1409,579;  172,076;11527,215;10,89818
 237,49; 1462,342;  209,922;11419,269;11,17300
 238,09; 1467,268;  185,999;11083,219;11,75776
 238,69; 1537,212;  244,230;10802,227;12,24648
 239,29; 1523,617;  197,384;10437,612;12,95121
 239,89; 1565,221;  191,076;10097,391;13,87141
 240,48; 1503,857;  177,999; 9657,197;13,98702
 241,08; 1545,277;  188,769; 9319,071;14,85721
 241,68; 1568,542;  211,384; 8946,742;15,53637
 242,28; 1546,797;  181,769; 8555,430;16,30144
 242,88; 1589,137;  230,307; 8220,974;17,00521
 243,48; 1600,674;  227,076; 7917,686;17,86071
 244,07; 1563,435;  211,615; 7674,921;18,11289
 244,67; 1618,049;  212,230; 7509,332;19,26544
 245,27; 1629,250;  209,691; 7358,738;19,85661
 245,87; 1639,102;  223,692; 7246,444;20,15463
 246,47; 1666,584;  201,691; 7259,452;20,75577
 247,06; 1681,912;  181,307; 7247,178;21,23736
 247,66; 1719,916;  192,076; 7295,913;21,50725
 248,26; 1798,760;  221,076; 7456,702;21,80439
 248,86; 1856,383;  210,691; 7654,849;22,10716
 249,46; 1875,360;  160,692; 7870,747;22,23938
 250,05; 2020,289;  206,076; 8287,338;22,44962
 250,65; 2086,445;  184,691; 8670,592;22,41075
 251,25; 2184,030;  190,692; 9157,724;22,22963
 251,85; 2282,874;  185,153; 9790,011;21,84021
 252,44; 2413,244;  164,768;10372,568;22,02704
 253,04; 2615,450;  201,768;11244,137;21,85837
 253,64; 2700,165;  150,768;12033,166;21,45524
 254,24; 2963,466;  213,922;13051,063;21,41866
 254,84; 3129,899;  196,692;14087,362;21,11638
 255,43; 3307,518;  186,461;15163,322;20,83919
 256,03; 3516,941;  195,307;16327,684;20,58986
 256,63; 3723,860;  203,922;17503,500;20,34696
 257,23; 3860,980;  178,691;18501,485;20,09677
 257,82; 4075,612;  207,383;19738,752;19,80521
 258,42; 4180,086;  159,460;20771,530;19,50617
 259,02; 4381,383;  210,307;21895,351;19,23481
 259,62; 4429,687;  183,691;22787,658;18,78429
 260,21; 4504,027;  199,845;23471,540;18,49535
 260,81; 4531,326;  187,076;24171,692;18,11265
 261,41; 4538,218;  184,383;24795,244;17,69070
 262,01; 4642,218;  216,537;25352,394;17,60704
 262,60; 4565,442;  177,307;25846,101;17,09521
 263,20; 4555,491;  185,999;26357,336;16,69572
 263,80; 4572,228;  209,152;26539,377;16,57060
 264,40; 4481,792;  176,845;26899,693;16,10961
 264,99; 4454,145;  200,537;27115,397;15,80394
 265,59; 4382,538;  186,306;27318,169;15,46607
 266,19; 4328,127;  184,229;27638,806;15,09365
 266,78; 4301,025;  232,152;27795,449;14,76192
 267,38; 4230,014;  205,998;27786,734;14,58995
 267,98; 4196,824;  185,460;27858,000;14,49583
 268,58; 4116,911;  192,691;27956,250;14,13443
 269,17; 4023,332;  183,614;28097,251;13,75571
 269,77; 3974,869;  204,383;27753,045;13,68664
 270,37; 3861,002;  169,999;27664,072;13,42472
 270,96; 3837,444;  221,076;27556,548;13,22958
 271,56; 3722,065;  189,460;27252,093;13,05344
 272,16; 3666,995;  183,845;27045,467;12,96701
 272,75; 3589,114;  184,845;27076,683;12,65912
 273,35; 3537,541;  194,307;26917,962;12,51039
 273,95; 3505,014;  191,768;26907,420;12,40189
 274,54; 3466,530;  177,999;27015,629;12,25343
 275,14; 3498,403;  222,153;27307,463;12,09604
 275,74; 3460,496;  163,537;27402,309;12,10392
 276,33; 3511,214;  221,999;27818,973;11,91875
 276,93; 3536,083;  200,230;28216,347;11,90691
 277,53; 3580,820;  186,999;28790,573;11,86502
 278,12; 3649,745;  179,384;29422,405;11,86732
 278,72; 3793,339;  256,461;29999,620;11,89140
 279,32; 3849,166;  188,076;30643,053;12,02132
 279,91; 3910,766;  164,768;31454,796;11,97186
 280,51; 4007,144;  195,461;32138,689;11,93268
 281,11; 4133,893;  194,076;32882,543;12,05262
 281,70; 4215,834;  177,691;33380,826;12,16193
 282,30; 4345,680;  181,999;34137,863;12,26204
 282,90; 4472,102;  183,307;34486,022;12,50279
 283,49; 4599,748;  198,153;35030,161;12,63664
 284,09; 4761,009;  222,153;35639,099;12,81549
 284,69; 4908,149;  226,230;36006,782;13,08510
 285,28; 5024,801;  206,076;36449,516;13,29544
 285,88; 5239,724;  253,999;36743,165;13,66358
 286,47; 5297,279;  194,922;36914,823;13,89535
 287,07; 5483,266;  222,153;36890,777;14,34772
 287,67; 5584,597;  210,769;36997,225;14,60817
 288,26; 5811,186;  188,691;36908,480;15,31189
 288,86; 6010,202;  184,153;37041,094;15,80720
 289,46; 6273,950;  202,384;37122,731;16,44504
 290,05; 6533,361;  190,768;37212,064;17,13228
 290,65; 6803,143;  187,384;37404,337;17,77620
 291,24; 7137,606;  198,691;37559,548;18,57269
 291,84; 7497,014;  211,691;37792,731;19,38563
 292,44; 7771,733;  204,076;37806,095;20,12567
 293,03; 8178,055;  272,230;38112,576;20,89258
 293,63; 8432,844;  184,768;38158,999;21,72019
 294,22; 8753,753;  217,153;38465,208;22,31904
 294,82; 8933,654;  199,152;38413,271;22,85674
 295,41; 9184,065;  174,922;38100,288;23,75493
 296,01; 9407,819;  222,999;38054,602;24,27817
 296,61; 9518,924;  224,230;37819,916;24,72277
 297,20; 9607,145;  192,691;37410,939;25,29526
 297,80; 9759,901;  213,615;37207,272;25,80520
 298,39; 9782,566;  177,845;36779,473;26,24124
 298,99; 9902,779;  224,537;36504,955;26,67621
 299,58; 9974,535;  211,384;36385,903;26,98903
 300,18;10063,943;  223,845;36189,895;27,35940
 300,78; 9983,083;  190,999;35786,113;27,50963
 301,37;10148,070;  217,845;35795,718;27,91124
 301,97;10240,308;  215,768;35728,247;28,22822
 302,56;10303,671;  198,153;35633,201;28,51843
 303,16;10325,950;  180,922;35521,202;28,70670
 303,75;10417,209;  195,768;35645,924;28,83327
 304,35;10565,064;  177,153;35901,168;29,07823
 304,94;10637,478;  194,384;35809,440;29,32213
 305,54;10696,502;  215,384;35790,205;29,46218
 306,13;10677,646;  159,923;35769,307;29,53638
 306,73;10666,154;  171,769;35488,947;29,71468
 307,33;10741,617;  207,922;35499,114;29,84794
 307,92;10780,004;  208,076;35472,060;29,97939
 308,52;10969,831;  183,768;35997,217;30,11735
 309,11;11136,171;  193,922;36580,985;30,07181
 309,71;11355,769;  193,768;36923,367;30,38966
 310,30;11394,885;  189,999;37166,229;30,30294
 310,90;11630,808;  235,153;37523,690;30,56074
 311,49;11670,200;  205,384;37627,068;30,63683
 312,09;11761,123;  172,999;37837,225;30,76692
 312,68;12011,170;  256,615;38261,788;30,92883
 313,28;11961,389;  174,230;38357,983;30,86957
 313,87;12028,393;  164,691;38582,601;30,88065
 314,47;12168,697;  190,845;38858,912;30,97608
 315,06;12268,994;  175,230;38948,769;31,19077
 315,66;12338,815;  181,845;39296,994;31,07995
 316,25;12340,251;  161,153;39194,747;31,20158
 316,85;12299,497;  159,307;39253,935;31,05335
 317,44;12312,688;  184,306;39342,788;30,97255
 318,04;12385,897;  173,384;39360,659;31,16449
 318,63;12324,860;  162,769;39407,073;30,99072
 319,22;12393,307;  196,076;39719,782;30,86055
 319,82;12390,414;  183,614;39730,450;30,86669
 320,41;12335,888;  209,537;39651,459;30,74483
 321,01;12321,231;  209,461;39752,251;30,62953
 321,60;12394,276;  196,537;39803,104;30,79726
 322,20;12286,636;  176,076;39745,945;30,60551
 322,79;12325,854;  216,999;39971,896;30,45877
 323,39;12311,774;  177,538;40024,528;30,45208
 323,98;12253,502;  175,922;39925,667;30,38404
 324,58;12279,382;  184,768;39865,267;30,48000
 325,17;12153,665;  189,999;39682,837;30,29326
 325,76;12061,698;  207,230;39524,457;30,15082
 326,36;11908,037;  174,768;39152,948;30,10215
 326,95;11781,396;  216,999;38741,782;30,01807
 327,55;11633,719;  185,537;38407,921;29,95151
 328,14;11530,228;  178,922;37999,070;30,01391
 328,74;11404,002;  200,153;37482,233;30,05157
 329,33;11240,111;  197,922;37120,343;29,90646
 329,92;11005,956;  175,845;36541,640;29,78104
 330,52;10852,669;  202,538;35733,028;29,97463
 331,11;10648,905;  193,384;35278,308;29,80061
 331,71;10385,920;  188,307;34626,488;29,61136
 332,30;10265,016;  207,999;34111,748;29,66344
 332,89;10055,888;  271,076;33590,336;29,36683
 333,49; 9798,794;  194,999;32891,370;29,37266
 334,08; 9588,090;  190,845;32377,026;29,19652
 334,68; 9464,284;  187,614;32014,251;29,14750
 335,27; 9385,143;  200,307;31590,987;29,25975
 335,86; 9275,828;  250,076;31383,154;28,99088
 336,46; 9043,467;  204,153;31029,334;28,67563
 337,05; 8970,571;  189,461;30668,132;28,81067
 337,65; 8908,528;  164,307;30603,070;28,72725
 338,24; 8889,769;  230,999;30615,595;28,49724
 338,83; 8849,772;  217,384;30467,662;28,53656
 339,43; 8810,498;  186,076;30397,710;28,54669
 340,02; 8753,593;  195,845;30321,455;28,40689
 340,61; 8761,442;  201,307;30458,950;28,29082
 341,21; 8776,156;  212,999;30340,233;28,42331
 341,80; 8738,294;  187,384;30267,619;28,42701
 342,40; 8749,826;  192,769;30458,094;28,27347
 342,99; 8710,734;  190,999;30621,566;27,99729
 343,58; 8766,573;  189,692;30725,189;28,08823
 344,18; 8803,746;  205,999;30926,295;27,98719
 344,77; 8834,014;  189,768;31194,614;27,88031
 345,36; 8941,165;  169,537;31564,012;27,94004
 345,96; 9008,753;  219,768;31833,673;27,80101
 346,55; 9061,637;  170,769;32170,183;27,78447
 347,14; 9111,558;  183,538;32575,474;27,56248
 347,74; 9235,432;  157,846;33028,042;27,61646
 348,33; 9426,537;  180,923;33826,154;27,47972
 348,92; 9597,300;  205,308;34430,178;27,44201
 349,52; 9702,587;  164,615;34951,480;27,41831
 350,11; 9789,533;  185,845;35192,354;27,43401
 350,70; 9794,479;  180,615;35339,648;27,34394
 351,29; 9653,845;  169,383;35006,042;27,22552
 351,89; 9648,542;  202,922;35091,627;27,07358
 352,48; 9634,209;  169,999;35147,268;27,05817
 353,07; 9615,376;  206,461;35033,208;27,01635
 353,67; 9556,795;  204,923;34949,565;26,91601
 354,26; 9487,879;  201,307;34808,524;26,83421
 354,85; 9368,307;  203,153;34516,545;26,71014
 355,45; 9294,940;  167,230;34307,183;26,73615
 356,04; 9255,242;  182,846;34215,160;26,65818
 356,63; 9208,874;  234,691;34031,513;26,55333
 357,22; 9108,500;  193,614;33824,077;26,50837
 357,82; 9030,190;  197,152;33639,051;26,41309
 358,41; 8974,822;  221,461;33568,368;26,24940
 359,00; 8901,204;  178,153;33297,760;26,33803
 359,60; 8825,679;  197,384;33273,930;26,08584
 360,19; 8812,314;  215,461;33107,234;26,13679
 360,78; 8742,193;  189,537;32871,971;26,16897
 361,37; 8624,016;  193,461;32696,708;25,93758
 361,97; 8584,124;  210,307;32520,543;25,91692
 362,56; 8479,236;  191,307;32201,491;25,89154
 363,15; 8476,150;  258,537;31875,986;25,99075
 363,74; 8290,379;  189,537;31578,698;25,80777
 364,34; 8204,445;  225,153;31136,896;25,81314
 364,93; 8025,959;  197,768;30611,516;25,73899
 365,52; 7876,751;  167,768;30252,923;25,62388
 366,11; 7807,140;  203,307;29846,040;25,65159
 366,71; 7738,846;  188,230;29394,166;25,85302
 367,30; 7619,216;  195,384;29033,298;25,74330
 367,89; 7538,701;  238,307;28743,451;25,61080
 368,48; 7447,024;  207,306;28354,018;25,72136
 369,07; 7314,864;  195,153;27881,417;25,71568
 369,67; 7183,649;  216,383;27573,988;25,46738
 370,26; 7070,201;  180,922;27244,891;25,45554
 370,85; 7018,430;  192,999;26939,335;25,51913
 371,44; 6932,275;  206,384;26642,014;25,44252
 372,03; 6844,150;  176,460;26437,561;25,38999
 372,63; 6732,924;  172,153;26061,876;25,34122
 373,22; 6676,871;  188,230;25676,794;25,45707
 373,81; 6561,494;  170,845;25388,132;25,34233
 374,40; 6493,242;  181,230;25135,197;25,29462
 374,99; 6401,930;  192,922;24805,815;25,22665
 375,59; 6366,991;  171,538;24398,937;25,57210
 376,18; 6351,050;  216,999;24328,954;25,43987
 376,77; 6291,204;  215,307;24058,225;25,48303
 377,36; 6285,544;  227,768;24006,263;25,47586
 377,95; 6199,644;  214,076;23762,102;25,41856
 378,55; 6155,923;  186,922;23508,635;25,59418
 379,14; 6133,223;  209,153;23452,060;25,48765
 379,73; 6100,289;  208,537;23303,883;25,51056
 380,32; 6123,445;  196,461;23346,208;25,60280
 380,91; 6101,401;  180,460;23182,102;25,74139
 381,50; 6071,597;  203,307;23152,689;25,57058
 382,10; 6001,830;  189,691;23019,746;25,45828
 382,69; 6050,106;  158,461;23001,834;25,79149
 383,28; 6072,760;  220,307;22925,274;25,77609
 383,87; 6055,887;  188,230;22754,175;26,00227
 384,46; 6016,694;  174,845;22715,959;25,91642
 385,05; 6102,353;  222,230;22649,024;26,21919
 385,64; 6085,909;  194,922;22646,501;26,23863
 386,24; 6063,588;  173,614;22580,639;26,28628
 386,83; 6149,796;  210,922;22672,004;26,44073
 387,42; 6201,093;  206,999;22777,744;26,55692
 388,01; 6302,739;  207,691;22951,505;26,79871
 388,60; 6337,486;  197,537;23243,362;26,64235
 389,19; 6473,190;  189,998;23547,786;26,89977
 389,78; 6524,516;  192,460;23744,571;26,88530
 390,37; 6782,518;  262,614;24276,668;27,15037
 390,96; 6819,187;  206,845;24474,830;27,24718
 391,56; 6886,203;  207,690;24645,718;27,32836
 392,15; 6972,273;  194,691;24963,960;27,36287
 392,74; 7050,282;  163,305;25106,085;27,61110
 393,33; 7212,846;  197,767;25491,061;27,73494
 393,92; 7363,833;  212,613;25900,901;27,83845
 394,51; 7455,292;  183,460;26149,483;28,00518
 395,10; 7624,186;  232,382;26382,711;28,26658
 395,69; 7702,183;  219,459;26497,146;28,47558
 396,28; 7794,771;  217,689;26669,156;28,64522
 396,87; 7892,316;  220,150;26833,025;28,82878
 397,46; 8013,086;  218,150;26835,225;29,28547
 398,06; 8159,474;  237,996;27104,067;29,48506
 398,65; 8214,138;  214,456;27131,950;29,71927
 399,24; 8352,512;  234,071;27367,810;29,92009
 399,83; 8370,298;  214,762;27381,325;30,02049
 400,42; 8539,642;  264,761;27607,435;30,26361
 401,01; 8639,149;  246,452;27702,448;30,56781
 401,60; 8753,181;  247,450;27765,454;30,90970
 402,19; 8796,582;  273,987;27599,183;31,18951
 402,78; 8826,068;  272,523;27634,687;31,26048
 403,37; 8823,395;  255,290;27482,766;31,46860
 403,96; 8855,769;  262,134;27346,365;31,72930
 404,55; 8903,659;  280,362;27213,131;32,01787
 405,14; 8872,422;  248,128;27050,732;32,17708
 405,73; 8865,325;  266,356;26942,545;32,23462
 406,32; 8962,206;  287,200;26916,383;32,57707
 406,91; 8866,407;  258,428;26636,865;32,63263
 407,50; 8948,416;  276,812;26380,646;33,21966
 408,09; 8843,385;  247,888;26025,131;33,34530
 408,68; 8899,440;  270,579;25939,191;33,61639
 409,27; 8864,911;  262,119;25718,546;33,79419
 409,86; 8856,686;  263,197;25627,174;33,88068
 410,45; 8915,866;  302,584;25499,185;34,18430
 411,04; 9003,184;  302,354;25373,826;34,70411
 411,63; 8868,771;  288,818;25135,891;34,53104
 412,22; 8875,390;  291,820;24946,198;34,81560
 412,81; 8828,157;  299,282;24612,092;35,07976
 413,40; 8755,659;  317,283;24232,821;35,28407
 413,99; 8780,404;  359,360;23878,514;35,80505
 414,58; 8556,491;  282,898;23329,423;35,89952
 415,17; 8538,056;  291,436;23186,829;36,01869
 415,76; 8541,319;  283,051;22974,676;36,39346
 416,35; 8518,350;  277,128;22780,157;36,62272
 416,94; 8549,956;  303,128;22785,030;36,68207
 417,53; 8701,034;  278,359;23066,312;36,96109
 418,12; 8733,660;  282,436;23078,298;37,07350
 418,71; 8974,384;  308,898;23475,054;37,40580
 419,30; 9046,641;  282,129;23620,155;37,55464
 419,89; 9123,646;  273,590;23800,085;37,61740
 420,48; 9335,142;  318,206;24095,378;37,92266
 421,07; 9425,107;  300,899;24293,006;38,03004
 421,66; 9445,157;  259,284;24241,823;38,30234
 422,25; 9503,305;  284,746;24288,691;38,40435
 422,84; 9520,735;  309,361;24273,693;38,43785
 423,43; 9467,552;  287,900;23908,650;38,86266
 424,02; 9444,440;  314,592;23670,893;39,08944
 424,60; 9239,492;  269,516;23210,042;39,10100
 425,19; 9167,475;  306,208;22876,340;39,26103
 425,78; 9145,463;  304,516;22764,882;39,36244
 426,37; 9100,569;  307,285;22590,848;39,46085
 426,96; 9159,007;  297,285;22472,585;39,96213
 427,55; 9109,203;  280,286;22280,373;40,13128
 428,14; 9047,229;  279,594;22069,924;40,23636
 428,73; 8983,377;  281,132;21847,258;40,35145
 429,32; 9045,336;  306,593;21796,025;40,66531
 429,91; 9089,410;  313,132;21797,183;40,85020
 430,50; 8985,344;  304,132;21558,979;40,84345
 431,08; 9033,713;  311,363;21445,445;41,27149
 431,67; 9054,270;  364,132;21350,696;41,40810
 432,26; 9020,168;  383,825;21199,730;41,48915
 432,85; 8948,763;  397,210;20759,725;41,99655
 433,44; 8823,797;  420,902;20388,439;42,08278
 434,03; 8696,918;  425,595;20017,318;42,21846
 434,62; 8534,536;  383,133;19500,106;42,63961
 435,21; 8451,082;  403,363;19234,453;42,73634
 435,79; 8403,048;  391,749;19066,589;42,89889
 436,38; 8409,307;  387,288;18952,505;43,20994
 436,97; 8343,722;  382,518;18879,955;43,03950
 437,56; 8274,585;  377,750;18603,802;43,32718
 438,15; 8289,150;  364,365;18487,436;43,72760
 438,74; 8308,451;  385,981;18530,497;43,66317
 439,33; 8326,207;  341,673;18509,407;43,94898
 439,91; 8362,026;  305,442;18649,569;43,91915
 440,50; 8419,112;  345,212;18701,692;43,98392
 441,09; 8546,068;  354,520;18795,163;44,42117
 441,68; 8516,145;  334,212;18696,465;44,55844
 442,27; 8567,161;  331,597;18725,116;44,77427
 442,86; 8550,355;  304,059;18709,845;44,80274
 443,44; 8629,408;  325,521;18797,655;44,95359
 444,03; 8765,411;  403,905;18893,725;45,22221
 444,62; 8627,321;  327,982;18702,291;45,16817
 445,21; 8618,906;  326,059;18535,085;45,54251
 445,80; 8601,592;  358,060;18427,062;45,62251
 446,39; 8541,120;  400,059;18168,193;45,81832
 446,97; 8384,426;  327,368;17983,599;45,63295
 447,56; 8340,386;  319,368;17715,751;46,10739
 448,15; 8259,514;  330,522;17478,966;46,23738
 448,74; 8160,515;  339,906;17225,173;46,31617
 449,33; 8135,211;  329,599;17093,669;46,56156
 449,91; 7987,459;  335,368;16778,294;46,53728
 450,50; 7950,509;  328,522;16543,308;47,00640
 451,09; 7907,935;  338,676;16409,895;47,09823
 451,68; 7902,849;  361,061;16271,224;47,40233
 452,26; 7881,561;  357,369;16176,718;47,56322
 452,85; 7799,384;  335,907;16118,659;47,28882
 453,44; 7828,022;  344,369;16050,676;47,64744
 454,03; 7807,727;  320,292;16117,487;47,39724
 454,61; 7800,509;  333,908;15999,608;47,66210
 455,20; 7974,478;  346,293;16255,124;47,94937
 455,79; 7984,578;  356,831;16239,150;48,02666
 456,38; 8057,048;  364,139;16282,465;48,32738
 456,97; 8063,416;  342,678;16385,616;48,12547
 457,55; 8069,504;  339,985;16382,719;48,18081
 458,14; 8113,944;  365,677;16357,900;48,45022
 458,73; 8054,068;  360,370;16309,190;48,23992
 459,31; 8121,022;  378,601;16377,517;48,39341
 459,90; 8157,681;  403,678;16379,665;48,53536
 460,49; 8272,173;  457,832;16555,727;48,54263
 461,08; 8238,908;  356,063;16622,285;48,46144
 461,66; 8299,042;  356,294;16673,790;48,67627
 462,25; 8357,508;  359,679;16769,095;48,73927
 462,84; 8432,241;  380,294;16852,140;48,88309
 463,43; 8336,767;  327,602;16714,947;48,87409
 464,01; 8377,383;  356,371;16813,258;48,73954
 464,60; 8391,983;  406,679;16730,265;48,91881
 465,19; 8266,068;  335,833;16538,152;48,94506
 465,77; 8267,857;  351,449;16523,185;48,95213
 466,36; 8262,858;  391,371;16351,535;49,31958
 466,95; 8072,384;  362,217;16045,231;49,16253
 467,53; 7962,154;  367,910;15694,808;49,54847
 468,12; 7825,055;  407,680;15350,675;49,63781
 468,71; 7699,197;  374,910;15071,491;49,83667
 469,29; 7556,377;  352,449;14823,470;49,78175
 469,88; 7420,733;  357,218;14545,154;49,78536
 470,47; 7530,075;  420,296;14656,407;49,94186
 471,06; 7468,683;  383,450;14628,107;49,73959
 471,64; 7576,988;  374,219;14706,154;50,25678
 472,23; 7537,867;  348,989;14716,809;50,03458
 472,81; 7592,952;  344,527;14821,002;50,07037
 473,40; 7714,896;  360,296;14955,052;50,39207
 473,99; 7920,154;  479,835;15247,766;50,38159
 474,57; 7858,519;  366,066;15304,583;50,15527
 475,16; 7956,665;  385,296;15526,392;50,00542
 475,75; 8045,915;  407,527;15668,379;50,05217
 476,33; 8103,815;  389,682;15751,929;50,21487
 476,92; 8109,606;  394,143;15763,606;50,19996
 477,51; 8169,240;  400,912;15871,820;50,21249
 478,09; 8147,370;  396,758;15891,249;50,02173
 478,68; 8124,286;  408,681;15775,835;50,20842
 479,27; 8169,278;  417,681;15881,721;50,12660
 479,85; 8119,307;  397,835;15844,108;49,98922
 480,44; 8184,730;  384,374;15946,053;50,12542
 481,02; 8831,953;  401,297;17286,127;49,93036
 481,61; 9941,833;  427,220;19623,948;49,56372
 482,20;10576,250;  402,759;21085,914;49,18733
 482,78;11102,562;  430,835;21954,642;49,58104
 483,37;11382,856;  426,067;22596,938;49,41975
 483,95;11500,185;  467,682;22944,483;49,08395
 484,54;11628,500;  469,528;23172,093;49,15291
 485,13;11571,990;  424,144;23124,287;49,10914
 485,71;11441,382;  411,144;22818,856;49,22519
 486,30;11304,281;  465,683;22565,285;49,04432
 486,88;11168,600;  504,760;22140,077;49,28904
 487,47;10752,610;  466,067;21368,715;49,21167
 488,05;10267,816;  464,914;20435,710;49,08619
 488,64; 9550,512;  454,068;18991,667;49,07024
 489,23; 8645,235;  473,221;17028,381;49,36234
 489,81; 7443,887;  461,068;14526,734;49,64443
 490,40; 7071,186;  440,991;13733,035;49,88093
 490,98; 6894,888;  404,222;13483,353;49,62613
 491,57; 6828,066;  431,221;13319,087;49,63463
 492,15; 6781,722;  399,299;13245,665;49,68272
 492,74; 6765,400;  414,683;13120,992;49,98082
 493,32; 6692,086;  428,222;12954,813;50,00454
 493,91; 6590,493;  403,530;12888,143;49,55671
 494,50; 6573,225;  408,992;12847,480;49,55774
 495,08; 6515,731;  388,915;12763,401;49,51168
 495,67; 6492,853;  412,837;12789,826;49,12354
 496,25; 6433,639;  363,530;12637,756;49,45411
 496,84; 6380,218;  361,760;12601,489;49,17150
 497,42; 6368,398;  371,991;12562,506;49,18912
 498,01; 6328,403;  400,914;12465,940;49,12952
 498,59; 6226,654;  356,145;12409,745;48,70336
 499,18; 6219,425;  343,606;12340,882;48,97628
 499,76; 6183,475;  378,837;12280,311;48,77242
 500,35; 6076,890;  361,146;12071,485;48,80938
 500,93; 6007,098;  352,376;12000,883;48,54460
 501,52; 5950,664;  353,068;11926,651;48,36528
 502,10; 5929,665;  370,453;11898,468;48,22350
 502,69; 5837,612;  353,300;11710,581;48,28896
 503,27; 5688,218;  335,761;11464,256;48,09686
 503,86; 5671,809;  355,377;11364,448;48,29138
 504,44; 5576,626;  325,146;11265,671;48,00026
 505,03; 5447,332;  321,761;11008,413;47,96236
 505,61; 5359,863;  351,300;10841,379;47,74571
 506,19; 5309,058;  353,838;10664,889;48,05737
 506,78; 5196,369;  333,531;10486,963;47,89354
 507,36; 5076,042;  329,761;10248,081;47,85367
 507,95; 4998,929;  341,531;10076,317;47,84284
 508,53; 4920,828;  335,069; 9980,666;47,54251
 509,12; 4841,105;  331,377; 9830,527;47,47507
 509,70; 4777,078;  355,839; 9687,006;47,38142
 510,29; 4707,233;  367,839; 9511,395;47,45849
 510,87; 4565,648;  319,454; 9273,182;47,42375
 511,46; 4531,247;  314,454; 9087,952;48,06284
 512,04; 4410,187;  323,993; 8935,610;47,44978
 512,62; 4314,223;  336,608; 8793,766;47,03253
 513,21; 4207,764;  313,685; 8608,556;46,94562
 513,79; 4149,477;  320,224; 8477,134;46,94489
 514,38; 4058,600;  309,839; 8319,811;46,80118
 514,96; 4029,796;  350,455; 8173,896;47,02970
 515,54; 3909,434;  303,147; 8027,878;46,68494
 516,13; 3865,201;  332,301; 7919,173;46,56597
 516,71; 3765,768;  322,532; 7769,944;46,23400
 517,30; 3708,417;  298,071; 7663,719;46,30069
 517,88; 3672,835;  328,378; 7554,196;46,28483
 518,46; 3587,481;  307,225; 7372,864;46,42547
 519,05; 3566,886;  313,686; 7362,833;46,15027
 519,63; 3497,849;  330,609; 7289,941;45,51069
 520,22; 3497,436;  341,764; 7235,244;45,77763
 520,80; 3438,535;  329,456; 7171,494;45,44083
 521,38; 3461,742;  368,225; 7145,341;45,64650
 521,97; 3357,941;  314,610; 7036,002;45,27828
 522,55; 3357,132;  333,764; 7019,392;45,22190
 523,13; 3350,579;  310,072; 7017,292;45,33185
 523,72; 3319,976;  324,763; 6992,802;44,91895
 524,30; 3388,199;  343,149; 7161,991;44,65641
 524,89; 3341,348;  304,225; 7158,944;44,30703
 525,47; 3401,668;  326,610; 7275,563;44,25210
 526,05; 3380,218;  295,303; 7303,368;44,01950
 526,64; 3420,145;  339,841; 7421,475;43,49707
 527,22; 3449,986;  332,072; 7546,546;43,21748
 527,80; 3525,523;  367,457; 7670,496;43,24318
 528,39; 3524,305;  329,149; 7770,418;42,93831
 528,97; 3575,066;  320,226; 7948,770;42,66660
 529,55; 3630,836;  343,072; 8102,468;42,37139
 530,14; 3729,857;  343,303; 8349,431;42,29952
 530,72; 3778,658;  320,149; 8430,507;42,64311
 531,30; 3782,263;  313,226; 8595,835;41,88339
 531,89; 3831,314;  335,995; 8704,659;41,76674
 532,47; 3887,518;  361,995; 8766,677;41,94713
 533,05; 3873,316;  344,457; 8865,220;41,41483
 533,63; 3913,339;  346,611; 8907,247;41,66429
 534,22; 3906,994;  331,995; 8954,319;41,46213
 534,80; 3968,397;  358,457; 9062,031;41,47653
 535,38; 4034,326;  462,380; 9153,311;41,09969
 535,97; 3934,136;  339,303; 9073,282;41,15917
 536,55; 4019,971;  404,688; 9141,176;41,38143
 537,13; 4026,796;  389,765; 9117,163;41,67372
 537,71; 4016,774;  442,841; 9165,067;40,97500
 538,30; 4032,828;  462,534; 9232,078;40,71242
 538,88; 4147,460;  507,150; 9329,741;41,26124
 539,46; 4266,973;  566,765; 9580,882;41,04903
 540,05; 4326,205;  568,457; 9683,822;41,22433
 540,63; 4410,452;  635,150; 9859,938;40,92563
 541,21; 4482,521;  678,765;10079,126;40,46393
 541,79; 4584,802;  715,458;10197,104;40,80878
 542,38; 4616,106;  737,842;10344,572;40,37029
 542,96; 4661,410;  758,535;10519,960;39,98264
 543,54; 4768,358;  798,765;10726,772;39,98379
 544,12; 4772,687;  755,611;10843,624;39,82028
 544,70; 4804,416;  724,150;11007,017;39,68024
 545,29; 4865,788;  743,919;11143,051;39,63667
 545,87; 4870,417;  728,227;11130,642;39,81951
 546,45; 4820,756;  662,688;11209,510;39,42484
 547,03; 4790,266;  636,381;11320,207;38,88013
 547,62; 4823,707;  623,458;11427,589;38,87633
 548,20; 4863,555;  612,458;11616,914;38,63069
 548,78; 4853,274;  570,612;11702,509;38,47199
 549,36; 4877,209;  527,843;11946,813;38,08895
 549,94; 4861,136;  497,458;12052,705;37,76361
 550,53; 4933,044;  508,535;12297,713;37,53026
 551,11; 4933,776;  456,843;12500,467;37,17264
 551,69; 5077,256;  475,766;12827,954;37,25243
 552,27; 5111,205;  425,843;13101,127;36,96456
 552,85; 5200,568;  448,612;13394,807;36,70543
 553,44; 5303,112;  427,920;13822,091;36,39787
 554,02; 5409,892;  442,997;14171,037;36,18066
 554,60; 5450,169;  393,381;14486,437;35,88142
 555,18; 5590,182;  425,074;14833,252;35,84845
 555,76; 5708,059;  405,227;15243,010;35,73871
 556,34; 5817,056;  409,689;15644,974;35,49239
 556,93; 5933,700;  403,689;16067,825;35,30364
 557,51; 6001,289;  383,535;16371,271;35,13790
 558,09; 6155,044;  398,458;16823,753;35,04708
 558,67; 6267,231;  398,228;17286,405;34,75214
 559,25; 6334,230;  418,612;17511,134;34,60939
 559,83; 6397,638;  395,459;17784,310;34,51740
 560,41; 6526,807;  382,228;18174,419;34,53526
 561,00; 6622,796;  388,459;18549,965;34,32720
 561,58; 6674,597;  386,920;18843,923;34,06662
 562,16; 6755,431;  366,920;19166,616;33,98199
 562,74; 6896,240;  373,689;19516,263;34,07353
 563,32; 7017,123;  366,920;19976,496;33,91304
 563,90; 7136,782;  393,228;20355,223;33,78197
 564,48; 7232,712;  394,535;20778,172;33,54738
 565,06; 7460,081;  391,536;21432,254;33,59460
 565,65; 7700,743;  395,074;22141,774;33,59438
 566,23; 7953,913;  434,689;22974,729;33,35940
 566,81; 8098,562;  376,459;23711,474;33,09234
 567,39; 8420,154;  395,920;24759,639;32,93518
 567,97; 8702,125;  414,305;25391,636;33,18137
 568,55; 8962,401;  438,151;26242,638;33,03398
 569,13; 9164,300;  396,997;26996,642;32,96023
 569,71; 9439,608;  395,612;28048,187;32,70580
 570,29; 9845,095;  443,304;29185,115;32,71120
 570,87;10094,710;  421,920;29874,540;32,84187
 571,45;10253,278;  415,228;30608,162;32,58395
 572,03;10364,784;  384,228;31075,127;32,51960
 572,61;10612,488;  374,305;31880,467;32,49581
 573,20;10842,165;  404,074;32506,591;32,51487
 573,78;11032,675;  400,690;33253,931;32,36206
 574,36;11188,259;  415,382;33783,096;32,28533
 574,94;11333,261;  476,767;34244,999;32,15002
 575,52;11306,902;  404,998;34467,360;32,00572
 576,10;11479,636;  470,075;35097,174;31,79464
 576,68;11682,437;  458,382;35679,516;31,86739
 577,26;11875,299;  484,459;36378,436;31,73468
 577,84;12081,509;  486,382;36892,663;31,84925
 578,42;12191,221;  533,305;37334,737;31,67789
 579,00;12151,919;  480,536;37432,211;31,58553
 579,58;12175,789;  553,613;37662,247;31,31933
 580,16;12096,965;  476,459;37643,229;31,26585
 580,74;12104,767;  493,382;37934,462;31,01242
 581,32;12094,467;  504,997;37941,953;30,95730
 581,90;12009,822;  534,074;37886,443;30,72294
 582,48;12009,902;  493,074;37978,125;30,72379
 583,06;12005,267;  513,997;38082,748;30,58731
 583,64;11996,234;  506,690;38192,977;30,48733
 584,22;11814,445;  520,921;38007,018;30,12723
 584,80;11715,993;  520,382;37699,803;30,11239
 585,38;11502,013;  535,689;37182,143;29,92465
 585,96;11405,509;  507,074;37303,319;29,61833
 586,54;11384,250;  532,998;37289,585;29,52192
 587,12;11360,076;  489,151;37378,362;29,46912
 587,70;11397,542;  525,536;37591,860;29,33122
 588,28;11336,485;  495,921;37551,010;29,25526
 588,86;11275,054;  504,767;37577,998;29,05139
 589,44;11222,879;  485,998;37621,756;28,91251
 590,02;11282,919;  485,229;37828,018;28,91506
 590,59;11208,799;  469,767;38066,568;28,56368
 591,17;11218,242;  471,306;38207,667;28,47899
 591,75;11193,082;  456,767;38259,068;28,40122
 592,33;11217,530;  472,075;38548,440;28,22080
 592,91;11220,693;  430,306;38785,336;28,13291
 593,49;11285,661;  450,768;39131,722;28,01093
 594,07;11283,902;  458,845;39328,397;27,84971
 594,65;11254,784;  467,844;39295,967;27,78126
 595,23;11397,979;  461,459;39631,748;27,92045
 595,81;11348,438;  455,690;39849,567;27,65087
 596,39;11326,367;  436,229;40000,163;27,52542
 596,97;11351,359;  434,844;40186,852;27,46154
 597,55;11216,012;  439,536;40022,171;27,22526
 598,12;11183,658;  401,845;40086,465;27,16875
 598,70;11198,902;  424,691;40277,126;27,03526
 599,28;11233,557;  444,075;40389,814;27,01035
 599,86;11170,384;  403,537;40383,784;26,93042
 600,44;11114,896;  389,768;40502,725;26,73732
 601,02;11205,147;  457,153;40608,070;26,76899
 601,60;11112,533;  418,152;40572,547;26,63315
 602,18;11047,037;  402,075;40485,408;26,55708
 602,75;11054,098;  397,075;40660,796;26,46805
 603,33;11075,045;  416,460;40658,067;26,48648
 603,91;10994,978;  415,229;40632,465;26,30650
 604,49;11034,319;  426,075;40747,359;26,30929
 605,07;10904,490;  434,844;40712,639;25,99359
 605,65;10882,714;  442,306;40838,536;25,84501
 606,23;10977,582;  508,536;40918,939;25,90681
 606,80;10973,148;  561,460;41046,312;25,71749
 607,38;10973,592;  613,922;41016,796;25,64092
 607,96;11017,005;  664,921;41122,834;25,58729
 608,54;10995,149;  717,229;41174,129;25,40462
 609,12;11010,650;  719,844;41189,923;25,42818
 609,70;10996,278;  760,537;41228,311;25,29356
 610,27;10988,534;  774,229;41232,556;25,24648
 610,85;10919,914;  797,229;41492,430;24,87439
 611,43;10842,196;  795,768;41461,077;24,70516
 612,01;10767,070;  757,844;41113,262;24,80268
 612,59;10724,341;  760,075;41165,492;24,66072
 613,16;10695,395;  706,690;41118,502;24,71729
 613,74;10594,008;  702,998;40902,446;24,60484
 614,32;10524,410;  651,768;40911,449;24,52240
 614,90;10422,237;  595,921;40757,891;24,46672
 615,48;10276,333;  535,998;40502,990;24,37095
 616,05;10209,871;  511,305;40439,642;24,28993
 616,63;10084,948;  513,998;40223,755;24,10226
 617,21;10065,829;  502,767;40103,276;24,14883
 617,79; 9957,344;  488,152;39992,592;23,96994
 618,36; 9908,387;  495,152;40032,078;23,80872
 618,94; 9753,867;  426,690;39583,602;23,82000
 619,52; 9650,227;  456,998;39402,028;23,60566
 620,10; 9595,639;  437,998;39260,709;23,58836
 620,67; 9520,988;  449,998;39154,750;23,43637
 621,25; 9482,828;  473,229;39028,959;23,36773
 621,83; 9417,342;  436,459;39019,036;23,27704
 622,41; 9395,824;  486,459;38998,617;23,13390
 622,98; 9299,574;  453,998;38655,738;23,15490
 623,56; 9269,267;  451,459;38689,752;23,06015
 624,14; 9203,738;  436,383;38565,257;22,99400
 624,72; 9118,212;  423,075;38417,376;22,88537
 625,29; 9070,153;  413,228;38549,823;22,69978
 625,87; 9075,909;  452,075;38466,768;22,68553
 626,45; 8978,560;  417,690;38324,418;22,58404
 627,02; 8918,005;  413,921;38215,566;22,49660
 627,60; 8824,676;  397,614;38124,708;22,33690
 628,18; 8844,650;  398,613;38188,077;22,35024
 628,76; 8777,991;  383,921;38171,663;22,21374
 629,33; 8727,281;  422,305;38249,420;21,95509
 629,91; 8695,947;  401,306;38177,171;21,95752
 630,49; 8757,343;  425,075;38312,394;21,99223
 631,06; 8751,344;  399,536;38459,946;21,94356
 631,64; 8716,900;  407,536;38377,420;21,88409
 632,22; 8609,941;  372,459;38333,157;21,70003
 632,79; 8628,904;  403,844;38654,767;21,50291
 633,37; 8627,919;  375,383;38673,637;21,54807
 633,95; 8594,082;  399,382;38688,532;21,40215
 634,52; 8570,299;  362,536;38788,128;21,36015
 635,10; 8568,323;  379,921;38818,740;21,30243
 635,68; 8606,185;  384,382;39091,668;21,24097
 636,25; 8584,376;  348,459;39013,900;21,30046
 636,83; 8574,760;  341,844;39254,663;21,15734
 637,41; 8558,324;  358,074;39293,257;21,06129
 637,98; 8579,088;  395,997;39488,277;20,93275
 638,56; 8541,281;  373,766;39592,038;20,82579
 639,13; 8561,146;  359,767;39617,369;20,89119
 639,71; 8572,411;  429,536;39867,578;20,64726
 640,29; 8405,728;  329,459;39557,844;20,58782
 640,86; 8435,805;  337,459;39866,978;20,48683
 641,44; 8377,652;  341,459;39749,882;20,39207
 642,02; 8415,037;  373,998;39841,248;20,37395
 642,59; 8396,730;  345,844;39929,613;20,33886
 643,17; 8322,577;  343,844;39862,363;20,18986
 643,74; 8296,270;  356,229;40024,498;20,01610
 644,32; 8301,193;  364,305;39884,633;20,08305
 644,89; 8262,732;  380,382;39880,613;19,95520
 645,47; 8234,041;  377,306;39927,671;19,86514
 646,05; 8187,503;  378,690;39771,883;19,82275
 646,62; 8117,349;  358,229;39776,710;19,68397
 647,20; 8122,812;  372,613;40027,844;19,54395
 647,77; 8037,812;  323,690;39774,671;19,55369
 648,35; 7988,736;  338,306;39734,806;19,41906
 648,92; 7971,659;  362,767;39749,556;19,31839
 649,50; 7886,122;  326,767;39723,537;19,18775
 650,08; 7857,507;  319,152;39597,133;19,19232
 650,65; 7855,815;  338,229;39806,883;19,04698
 651,23; 7938,892;  308,613;40523,556;18,97374
 651,80; 8187,508;  314,690;41572,076;19,08220
 652,38; 8232,124;  340,998;42139,134;18,87913
 652,95; 8283,202;  312,690;42491,191;18,89710
 653,53; 8338,510;  336,844;42725,403;18,87695
 654,10; 8374,588;  372,767;42924,076;18,80511
 654,68; 8260,050;  320,306;42958,749;18,62109
 655,25; 8274,512;  305,075;42979,038;18,67517
 655,83; 8230,282;  310,767;43076,096;18,51854
 656,40; 8208,359;  351,229;43029,615;18,41009
 656,98; 8180,590;  322,536;42980,134;18,42123
 657,55; 8107,745;  331,383;42797,653;18,31186
 658,13; 7972,515;  323,921;42315,634;18,21453
 658,70; 7896,823;  345,998;42061,846;18,10061
 659,28; 7636,439;  321,613;41245,134;17,87438
 659,85; 7465,132;  363,075;40283,654;17,79047
 660,43; 7420,132;  353,844;40271,481;17,70217
 661,00; 7443,902;  327,229;40364,000;17,77534
 661,58; 7404,210;  330,998;40789,904;17,48246
 662,15; 7417,442;  313,613;40976,577;17,47002
 662,73; 7504,904;  400,767;41189,404;17,41695
 663,30; 7448,520;  332,306;41358,231;17,34565
 663,88; 7435,520;  340,075;41627,827;17,18535
 664,45; 7467,905;  323,306;41799,654;17,22572
 665,03; 7495,675;  330,537;42283,712;17,07889
 665,60; 7640,830;  421,229;42625,539;17,10631
 666,17; 7522,676;  337,921;42882,597;16,88755
 666,75; 7580,061;  329,844;43106,808;16,94888
 667,32; 7628,216;  355,075;43540,174;16,84178
 667,90; 7614,832;  335,229;43712,232;16,78217
 668,47; 7650,448;  353,152;44033,059;16,70630
 669,05; 7712,218;  342,998;44464,809;16,70199
 669,62; 7630,218;  308,152;44406,866;16,60381
 670,19; 7691,065;  315,614;44558,386;16,67041
 670,77; 7669,065;  329,537;44717,136;16,53509
 671,34; 7615,374;  323,844;44691,271;16,43442
 671,92; 7640,990;  313,844;45045,174;16,38034
 672,49; 7645,452;  344,152;45031,386;16,33867
 673,06; 7612,375;  284,383;45040,982;16,37299
 673,64; 7506,914;  308,768;45137,117;16,05713
 674,21; 7516,607;  298,921;45004,175;16,14505
 674,79; 7556,762;  343,844;45090,848;16,11933
 675,36; 7580,378;  348,229;45406,675;16,05059
 675,93; 7508,994;  300,614;45173,579;16,06397
 676,51; 7522,225;  325,614;45442,175;15,95115
 677,08; 7473,072;  331,691;45470,233;15,82103
 677,65; 7492,380;  327,383;45691,906;15,79427
 678,23; 7453,380;  321,998;45811,964;15,67682
 678,80; 7441,381;  312,383;45922,252;15,63038
 679,38; 7458,766;  320,614;46120,387;15,58556
 679,95; 7462,767;  342,998;46345,906;15,47678
 680,52; 7444,844;  323,229;46650,426;15,37243
 681,10; 7486,229;  336,922;47022,099;15,31387
 681,67; 7568,999;  321,383;47271,387;15,43688
 682,24; 7494,307;  298,998;47420,291;15,26976
 682,82; 7585,616;  321,614;48009,426;15,23241
 683,39; 7640,539;  360,614;48324,714;15,17786
 683,96; 7671,232;  315,922;48574,618;15,24142
 684,54; 7621,002;  290,922;48919,907;15,07348
 685,11; 7683,695;  362,537;49357,657;14,94263
 685,68; 7735,157;  312,922;49743,099;15,01560
 686,25; 7694,927;  300,691;49868,234;14,91750
 686,83; 7697,004;  302,537;50029,984;14,86999
 687,40; 7747,236;  290,768;50350,273;14,89521
 687,97; 7850,390;  337,229;50784,100;14,89321
 688,55; 7764,929;  289,152;50812,696;14,79662
 689,12; 7792,083;  268,768;51034,754;14,81960
 689,69; 7814,930;  280,922;51179,888;14,80189
 690,26; 7762,931;  305,306;51292,023;14,62660
 690,84; 7818,777;  304,152;51454,850;14,69115
 691,41; 7762,316;  328,768;51484,292;14,53127
 691,98; 7861,702;  317,460;51986,889;14,60098
 692,56; 7823,241;  302,614;51976,946;14,55389
 693,13; 7897,703;  354,153;51992,235;14,60850
 693,70; 7868,549;  338,845;52201,446;14,51856
 694,27; 7825,396;  302,306;52258,120;14,47978
 694,84; 7884,858;  305,383;52328,793;14,56935
 695,42; 7922,705;  350,153;52485,927;14,52468
 695,99; 7920,013;  325,922;52709,447;14,49710
 696,56; 7887,937;  319,614;52611,351;14,47327
 697,13; 7939,707;  330,922;53014,255;14,44249
 697,71; 7941,707;  315,383;52912,543;14,49950
 698,28; 7919,785;  312,306;53340,832;14,34601
 698,85; 7916,170;  271,383;53352,505;14,40208
 699,42; 7868,094;  289,306;53546,332;14,23059
 699,99; 7893,248;  330,691;53633,159;14,18801
 700,57; 7924,402;  333,076;53746,447;14,21241
 701,14; 7919,711;  300,076;53950,351;14,20242
 701,71; 7991,942;  328,230;54138,717;14,24204
 702,28; 7960,327;  312,383;54159,082;14,20318
 702,85; 7914,328;  320,076;54152,140;14,10730
 703,43; 7983,713;  344,230;54391,505;14,13482
 704,00; 7999,098;  356,999;54785,640;14,04058
 704,57; 7979,022;  317,768;54585,775;14,11744
 705,14; 7992,791;  347,614;54896,217;14,01535
 705,71; 8014,407;  359,460;55010,352;14,00699
 706,28; 7959,177;  321,614;54776,486;14,02549
 706,86; 7999,024;  356,537;55044,160;13,97480
 707,43; 8003,024;  382,537;55050,294;13,93964
 708,00; 7987,025;  368,307;54998,506;13,94598
 708,57; 7891,103;  327,999;54883,333;13,86318
 709,14; 7931,180;  368,153;55061,006;13,82818
 709,71; 7987,950;  341,922;55216,448;13,93366
 710,28; 8009,335;  339,076;55355,198;13,94184
 710,86; 7973,105;  333,537;55542,795;13,83748
 711,43; 8047,336;  367,307;55540,160;13,91994
 712,00; 7986,260;  330,922;55606,603;13,84938
 712,57; 8089,876;  352,153;55794,660;13,95630
 713,14; 8058,876;  328,691;55898,564;13,91075
 713,71; 8071,877;  334,845;55722,776;13,96880
 714,28; 8033,800;  327,307;55845,834;13,88094
 714,85; 8034,032;  307,691;55541,968;13,98831
 715,42; 8058,955;  312,691;55781,718;13,96503
 716,00; 8114,648;  393,307;55979,468;13,89076
 716,57; 8086,187;  303,922;56016,295;13,96865
 717,14; 8055,726;  307,922;55996,738;13,91268
 717,71; 8067,573;  284,538;55959,334;13,97946
 718,28; 8118,189;  347,153;56105,776;13,93692
 718,85; 8037,113;  288,845;56184,988;13,86190
 719,42; 8068,652;  320,384;56333,123;13,83305
 719,99; 8041,729;  288,076;55964,488;13,92628
 720,56; 8091,345;  333,999;56330,546;13,85326
 721,13; 8073,961;  284,922;56486,142;13,85920
 721,70; 8066,885;  299,538;56392,277;13,84733
 722,27; 8128,501;  322,768;56368,412;13,92746
 722,84; 8137,886;  379,307;56552,008;13,81201
 723,41; 8093,502;  280,692;56514,373;13,89347
 723,98; 8112,272;  304,845;56814,431;13,81611
 724,55; 8186,349;  329,153;56876,104;13,89499
 725,12; 8066,580;  266,538;56644,854;13,83518
 725,69; 8154,504;  303,922;56881,066;13,87589
 726,27; 8151,889;  300,307;57136,354;13,81444
 726,84; 8230,736;  305,076;57442,412;13,87124
 727,41; 8253,121;  330,153;57266,470;13,91549
 727,98; 8314,814;  322,999;57616,451;13,94891
 728,55; 8310,353;  343,153;57487,893;13,94214
 729,12; 8298,200;  297,538;57735,335;13,92926
 729,69; 8320,739;  323,307;57807,086;13,91250
 730,26; 8338,662;  317,461;58049,451;13,89386
 730,82; 8306,894;  309,769;57961,201;13,87151
 731,39; 8364,356;  321,307;58115,182;13,91678
 731,96; 8415,510;  297,922;58340,701;13,98553
 732,53; 8474,357;  323,769;58578,221;13,99136
 733,10; 8481,742;  333,384;58591,817;13,98657
 733,67; 8536,743;  334,461;58880,644;14,00993
 734,24; 8463,897;  297,538;58516,778;14,02691
 734,81; 8536,590;  344,076;58560,067;14,07262
 735,38; 8435,898;  323,846;58250,663;14,00397
 735,95; 8484,976;  319,846;58131,798;14,12360
 736,52; 8536,822;  343,076;58342,317;14,12733
 737,09; 8515,438;  338,230;57876,683;14,21173
 737,66; 8570,747;  382,230;58164,587;14,17131
 738,23; 8506,901;  313,769;58244,414;14,14300
 738,80; 8683,209;  406,923;58651,394;14,20957
 739,37; 8630,825;  368,153;58750,068;14,15279
 739,94; 8698,287;  331,538;58793,741;14,31138
 740,51; 8799,134;  468,769;58906,260;14,25517
 741,07; 8697,288;  327,230;58845,318;14,30337
 741,64; 8762,827;  364,692;59040,222;14,31284
 742,21; 8790,213;  337,615;59047,818;14,39715
 742,78; 8779,444;  301,461;58832,106;14,48469
 743,35; 8851,291;  327,538;59096,395;14,50386
 743,92; 8976,907;  357,923;59376,299;14,60390
 744,49; 8926,984;  378,846;59166,818;14,54062
 745,06; 8959,062;  322,077;59086,568;14,69763
 745,63; 8937,678;  308,000;59223,857;14,64746
 746,19; 8975,293;  322,461;59089,145;14,72404
 746,76; 8987,986;  324,153;59240,203;14,70539
 747,33; 9018,295;  325,846;59194,645;14,76580
 747,90; 9054,372;  341,000;59470,857;14,73599
 748,47; 9108,065;  332,230;59330,453;14,87474
 749,04; 9060,373;  333,692;59319,819;14,79446
 749,61; 9165,451;  369,846;59306,184;14,92391
 750,17; 9118,836;  336,769;59323,857;14,88812
 750,74; 9121,375;  337,384;59244,377;14,91163
 751,31; 9063,914;  302,923;59212,819;14,87185
 751,88; 9118,299;  294,307;59139,569;14,99525
 752,45; 9151,377;  313,846;59343,396;14,97137
 753,02; 9166,916;  347,923;59170,762;14,99246
 753,58; 9194,301;  313,615;58968,665;15,14053
 754,15; 9214,917;  310,000;59192,492;15,12320
 754,72; 9169,379;  313,384;58972,473;15,09740
 755,29; 9215,456;  294,923;58806,146;15,24585
 755,86; 9272,918;  312,615;58917,820;15,28926
 756,42; 9332,304;  322,077;58767,493;15,41648
 756,99; 9274,766;  277,307;58638,012;15,41698
 757,56; 9304,766;  283,538;58724,531;15,43647
 758,13; 9338,613;  233,231;58577,743;15,60624
 758,70; 9385,460;  266,923;58638,031;15,62166
 759,26; 9412,306;  253,846;58751,628;15,65608
 759,83; 9481,153;  272,077;58881,378;15,71265
 760,40; 9482,615;  241,692;58659,512;15,81867
 760,97; 9500,154;  233,231;58654,801;15,86216
 761,53; 9505,616;  228,231;58259,551;15,98686
 762,10; 9537,463;  224,154;58296,917;16,03731
 762,67; 9557,387;  262,000;58249,897;16,02987
 763,24; 9510,464;  224,077;57759,955;16,14017
 763,80; 9562,619;  252,846;57950,782;16,13536
 764,37; 9604,311;  259,923;57953,225;16,19666
 764,94; 9538,466;  254,692;57446,513;16,23269
 765,50; 9612,159;  239,231;57460,494;16,38015
 766,07; 9637,698;  287,231;57560,705;16,32600
 766,64; 9597,621;  259,615;57201,302;16,39924
 767,21; 9582,160;  274,923;57079,436;16,38468
 767,77; 9661,546;  295,231;57075,186;16,49581
 768,34; 9666,623;  300,385;57003,013;16,51817
 768,91; 9688,547;  294,308;56727,148;16,64676
 769,47; 9759,317;  301,231;56822,283;16,73374
 770,04; 9758,394;  295,769;56639,264;16,79453
 770,61; 9750,318;  284,615;56498,783;16,83864
 771,18; 9772,626;  284,000;56278,379;16,94568
 771,74; 9873,550;  288,231;56579,437;17,02809
 772,31; 9802,627;  305,385;56189,802;16,99444
 772,88; 9829,166;  272,077;55945,783;17,16625
 773,44; 9765,320;  285,462;55766,226;17,08675
 774,01; 9838,783;  304,692;55961,668;17,13009
 774,58; 9843,706;  287,000;55467,957;17,31885
 775,14; 9958,014;  272,846;55696,091;17,47492
 775,71; 9932,630;  274,539;55600,149;17,45682
 776,27;10015,016;  344,462;55466,053;17,54404
 776,84;10063,632;  388,308;55656,265;17,50621
 777,41;10037,863;  303,616;55321,015;17,69303
 777,97;10013,017;  272,616;55000,149;17,79799
 778,54;10030,479;  301,385;55050,822;17,77022
 779,11;10118,941;  325,616;55068,880;17,88955
 779,67;10154,173;  285,000;55038,553;18,02472
 780,24;10093,789;  295,769;54777,765;17,98396
 780,80;10119,482;  309,462;54927,592;17,96111
 781,37;10187,405;  315,000;54811,111;18,11580
 781,94;10135,175;  308,693;54498,784;18,13336
 782,50;10203,868;  301,308;54345,765;18,32299
 783,07;10286,099;  319,923;54492,054;18,39724
 783,63;10214,946;  289,462;54200,958;18,41070
 784,20;10272,408;  306,693;54244,862;18,47618
 784,77;10232,409;  294,231;54086,612;18,47507
 785,33;10259,794;  263,846;53817,593;18,66526
 785,90;10254,333;  292,693;53804,035;18,61594
 786,46;10308,180;  319,846;53659,862;18,72578
 787,03;10300,949;  278,539;53536,766;18,81852
 787,59;10316,873;  294,693;53378,285;18,88000
 788,16;10385,489;  285,154;53344,420;19,03595
 788,73;10378,259;  297,539;53208,939;19,05208
 789,29;10341,413;  274,462;52859,458;19,14415
 789,86;10451,721;  318,385;52656,439;19,36132
 790,42;10387,491;  284,231;52592,420;19,31487
 790,99;10369,030;  301,923;52334,862;19,34757
 791,55;10400,108;  288,539;52213,074;19,47359
 792,12;10463,647;  318,462;52249,901;19,53573
 792,68;10416,493;  297,693;51828,267;19,63650
 793,25;10378,109;  305,308;51771,094;19,57184
 793,81;10454,418;  390,231;51371,228;19,74105
 794,38;10346,034;  261,924;51072,901;19,84632
 794,94;10352,496;  279,154;50907,728;19,89655
 795,51;10386,727;  288,077;50757,094;20,00960
 796,07;10359,881;  292,077;50415,844;20,08589
 796,64;10406,882;  292,385;50582,902;20,11214
 797,20;10335,190;  310,385;49989,883;20,17896
 797,77;10321,499;  264,001;49579,171;20,39433
 798,33;10354,499;  294,539;49574,921;20,41372
 798,90;10358,115;  309,539;49464,979;20,44245
 799,46;10260,808;  273,693;48984,883;20,50271
 800,03;10326,116;  294,231;48894,710;20,64154
 800,59;10367,578;  288,616;48555,152;20,88188
 801,15;10309,348;  311,539;48497,056;20,74858
 801,72;10248,195;  296,924;48028,345;20,84847
 802,28;10309,503;  312,385;47755,941;21,07160
 802,85;10244,734;  285,847;47556,768;21,06768
 803,41;10231,812;  288,001;47328,056;21,13903
 803,98;10148,197;  279,308;46980,806;21,13185
 804,54;10141,890;  278,308;46717,787;21,23965
 805,11;10165,121;  297,693;46456,614;21,37708
 805,67;10216,506;  311,462;46437,518;21,47386
 806,23;10066,122;  299,385;45931,268;21,40332
 806,80;10127,431;  309,231;45820,249;21,57324
 807,36;10143,277;  313,001;45797,615;21,61231
 807,93;10203,739;  322,847;45528,057;21,85786
 808,49;10157,663;  289,770;45086,653;22,02808
 809,05;10081,510;  270,078;44936,249;21,96614
 809,62;10114,280;  297,616;44852,307;22,03284
 810,18;10144,126;  296,155;44766,211;22,14517
 810,74;10110,050;  258,385;44459,500;22,28827
 811,31;10100,050;  258,924;44243,634;22,37397
 811,87;10145,128;  283,001;44068,846;22,52355
 812,44;10219,205;  314,078;44003,058;22,67191
 813,00;10100,514;  243,309;43807,115;22,62705
 813,56;10221,207;  286,847;43819,712;22,82037
 814,13;10238,207;  275,539;43770,538;22,90532
 814,69;10195,669;  270,616;43553,981;22,93041
 815,25;10105,054;  243,001;43104,731;23,00900
 815,82;10158,440;  287,616;43037,173;23,08988
 816,38;10245,748;  322,847;42924,770;23,29214
 816,94;10071,364;  247,309;42650,750;23,16806
 817,51;10059,441;  250,693;42287,039;23,33397
 818,07;10112,980;  254,232;42149,789;23,53173
 818,63;10102,673;  268,232;41827,770;23,66350
 819,20;10118,828;  272,847;41797,135;23,71138
 819,76;10025,213;  249,616;41386,808;23,76340
 820,32;10095,367;  299,847;41280,405;23,90285
 820,89;10043,291;  287,693;41097,693;23,90492
 821,45; 9988,907;  264,232;40781,443;24,00134
 822,01; 9959,907;  276,847;40505,347;24,07015
 822,57; 9991,446;  282,924;40350,174;24,23057
 823,14; 9961,447;  248,847;40103,847;24,36984
 823,70; 9944,447;  256,463;39804,367;24,49684
 824,26; 9897,756;  254,924;39677,655;24,46008
 824,82; 9935,218;  279,001;39539,482;24,59526
 825,39; 9899,218;  261,078;39160,155;24,77730
 825,95; 9912,911;  271,616;39187,982;24,77440
 826,51; 9876,373;  279,232;38892,117;24,85476
 827,08; 9939,528;  303,078;38838,252;25,00689
 827,64; 9869,528;  289,616;38783,309;24,88696
 828,20; 9897,837;  254,616;38231,675;25,39222
 828,76; 9980,222;  281,078;38318,271;25,49910
 829,32;10013,145;  306,540;38212,867;25,60682
 829,89; 9906,531;  242,232;38075,310;25,54457
 830,45; 9976,070;  273,770;37933,521;25,76305
 831,01; 9977,762;  281,463;37882,425;25,78737
 831,57; 9977,609;  260,078;37700,252;25,95482
 832,14;10025,610;  253,001;37611,002;26,15935
 832,70; 9948,764;  249,232;37460,906;26,06583
 833,26; 9977,534;  231,693;37300,041;26,29154
 833,82;10048,842;  262,847;37248,099;26,45918
 834,38;10060,381;  253,540;37196,080;26,54620
 834,95;10075,613;  244,078;37014,983;26,73727
 835,51;10057,767;  220,078;36893,349;26,82523
 836,07;10106,460;  259,232;36913,791;26,86495
 836,63;10189,999;  276,540;36964,849;27,02076
 837,19;10165,076;  264,694;36823,138;27,08097
 837,75;10124,154;  225,617;36588,195;27,22177
 838,32;10190,770;  281,694;36579,945;27,29905
 838,88;10279,463;  286,309;36594,234;27,52334
 839,44;10309,156;  263,155;36528,138;27,70165
 840,00;10292,925;  277,001;36482,426;27,66415
 840,56;10236,003;  258,540;36065,407;27,86466
 841,12;10286,388;  247,924;36118,619;27,98514
 841,68;10266,927;  232,078;35960,446;28,08650
 842,25;10339,620;  251,386;35870,504;28,32253
 842,81;10318,082;  239,540;35651,484;28,46085
 843,37;10323,390;  230,386;35667,311;28,48160
 843,93;10342,391;  248,848;35569,446;28,57693
 844,49;10436,007;  273,463;35597,196;28,76973
 845,05;10331,392;  211,540;35434,639;28,73073
 845,61;10504,392;  268,924;35604,389;28,96656
 846,17;10481,008;  241,155;35367,677;29,15134
 846,73;10508,240;  250,386;35265,889;29,29518
 847,29;10470,010;  233,232;35046,254;29,40502
 847,86;10525,856;  237,463;35047,927;29,55546
 848,42;10475,703;  231,771;34748,985;29,67775
 848,98;10480,242;  265,155;34750,812;29,62126
 849,54;10550,935;  240,540;34827,331;29,81021
 850,10;10542,166;  269,232;34579,928;29,94091
 850,66;10502,244;  231,386;34474,139;29,99425
 851,22;10537,013;  223,540;34348,889;30,22232
 851,78;10568,168;  280,540;34463,101;30,09613
 852,34;10480,938;  252,463;34143,928;30,18009
 852,90;10562,477;  242,617;34116,909;30,46517
 853,46;10489,862;  243,925;33769,120;30,56190
 854,02;10573,324;  256,078;33873,101;30,69054
 854,58;10492,094;  248,771;33591,082;30,72169
 855,14;10539,171;  234,771;33489,448;30,98632
 855,70;10508,941;  212,232;33313,275;31,10690
 856,26;10567,019;  250,925;33331,178;31,18505
 856,82;10567,788;  239,540;33079,005;31,45072
 857,38;10581,020;  293,540;33035,063;31,42028
 857,94;10544,789;  244,309;32908,967;31,53402
 858,50;10567,713;  276,232;32697,102;31,74338
 859,06;10553,791;  236,002;32592,313;31,88803
 859,62;10532,637;  270,540;32577,064;31,76478
 860,18;10494,253;  252,079;32320,198;31,93881
 860,74;10527,100;  215,925;32223,794;32,21450
 861,30;10530,562;  223,540;31985,545;32,45079
 861,86;10610,255;  315,156;32028,218;32,46328
 862,42;10522,486;  247,386;31845,583;32,51799
 862,98;10558,564;  280,156;31846,256;32,56154
 863,54;10569,795;  249,079;31524,314;32,99964
 864,10;10605,642;  248,463;31708,833;32,92135
 864,66;10567,796;  229,156;31374,506;33,19481
 865,22;10566,797;  243,463;31222,872;33,32321
 865,78;10642,643;  249,463;31099,622;33,68923
 866,34;10608,644;  228,309;31151,218;33,56843
 866,90;10634,568;  247,309;30873,584;33,91617
 867,45;10561,261;  252,463;30662,488;33,89934
 868,01;10595,953;  247,925;30551,545;34,14783
 868,57;10535,800;  225,310;30301,757;34,28095
 869,13;10516,185;  225,156;30207,046;34,32415
 869,69;10541,109;  237,694;30017,565;34,59859
 870,25;10533,802;  224,848;29960,161;34,66906
 870,81;10532,956;  239,233;29956,757;34,63856
 871,37;10595,880;  247,002;29845,277;34,96446
 871,93;10586,573;  267,694;29726,104;35,02863
 872,49;10515,650;  285,310;29389,854;35,15032
 873,04;10462,958;  231,387;29272,527;35,23130
 873,60;10475,805;  231,387;29057,661;35,53848
 874,16;10451,960;  259,002;29020,258;35,43989
 874,72;10459,960;  226,310;28936,027;35,64525
 875,28;10440,267;  245,156;28957,104;35,50825
 875,84;10442,883;  255,079;28820,796;35,66444
 876,40;10433,575;  239,925;28773,642;35,72493
 876,95;10521,190;  251,694;28707,104;36,08979
 877,51;10550,806;  269,694;28800,181;36,03553
 878,07;10576,190;  289,540;28699,488;36,20792
 878,63;10602,344;  242,771;28721,565;36,37645
 879,19;10650,344;  258,079;28695,719;36,54405
 879,75;10635,037;  237,387;28775,565;36,43417
 880,30;10634,652;  248,925;28722,104;36,47547
 880,86;10780,267;  289,463;28815,642;36,77606
 881,42;10787,498;  223,848;28931,719;36,79705
 881,98;10904,037;  264,310;28987,642;37,04210
 882,54;10954,421;  247,463;29057,719;37,16370
 883,09;11014,113;  248,156;29168,104;37,22675
 883,65;11116,421;  232,463;29314,565;37,42493
 884,21;11248,267;  264,617;29406,796;37,68987
 884,77;11288,190;  222,463;29545,027;37,73792
 885,32;11375,498;  236,463;29663,796;37,85268
 885,88;11504,267;  284,079;29835,027;37,96896
 886,44;11489,037;  247,310;29985,873;37,80185
 887,00;11633,806;  259,002;29880,335;38,40072
 887,56;11647,498;  239,387;30103,950;38,19949
 888,11;11755,421;  244,617;30155,642;38,48348
 888,67;11782,267;  270,156;30233,642;38,42047
 889,23;11768,960;  256,925;30326,950;38,28409
 889,79;11810,729;  221,617;30207,258;38,64887
 890,34;11828,652;  258,310;30105,258;38,76558
 890,90;11975,498;  315,617;30287,412;38,90285
 891,46;11914,037;  230,002;30215,412;38,96573
 892,01;11946,729;  262,079;30159,027;39,08309
 892,57;11986,190;  287,310;30135,642;39,19442
 893,13;11838,883;  241,463;29936,565;39,05499
 893,69;11918,037;  230,694;29820,027;39,49850
 894,24;11922,498;  244,694;29728,488;39,60753
 894,80;11850,037;  248,387;29520,104;39,63433
 895,36;11854,652;  245,310;29464,565;39,73182
 895,91;11823,190;  247,002;29223,873;39,94975
 896,47;11870,344;  262,310;29086,796;40,27144
 897,03;11788,113;  237,617;29003,104;40,15401
 897,58;11811,883;  250,079;28808,642;40,48454
 898,14;11756,806;  253,540;28610,104;40,56650
 898,70;11697,652;  218,463;28388,104;40,75021
 899,25;11729,729;  251,233;28472,719;40,67290
 899,81;11732,344;  255,387;28214,335;41,04932
 900,37;11634,421;  207,079;28039,950;41,05700
 900,92;11694,190;  233,233;28046,873;41,20625
 901,48;11629,806;  224,694;27881,642;41,23778
 902,03;11588,729;  241,848;27736,873;41,26885
 902,59;11610,113;  232,540;27614,104;41,55195
 903,15;11568,883;  255,387;27490,642;41,53989
 903,70;11484,267;  243,694;27184,488;41,72324
 904,26;11459,344;  237,079;27075,796;41,81372
 904,82;11473,652;  235,002;27008,565;41,97667
 905,37;11449,960;  251,694;26900,565;42,02154
 905,93;11459,960;  227,617;26680,412;42,46184
 906,48;11490,344;  253,617;26681,181;42,51897
 907,04;11477,037;  243,925;26703,873;42,45326
 907,60;11407,729;  251,771;26460,104;42,56645
 908,15;11364,267;  220,233;26310,027;42,71415
 908,71;11391,113;  251,694;26259,488;42,83108
 909,26;11408,883;  242,079;26061,796;43,24913
 909,82;11351,960;  253,617;25973,873;43,15020
 910,37;11391,267;  275,310;25934,412;43,32169
 910,93;11304,037;  227,540;25626,258;43,61045
 911,48;11316,190;  245,540;25466,258;43,89506
 912,04;11275,575;  223,463;25345,796;43,99317
 912,60;11245,883;  229,771;25470,181;43,64474
 913,15;11245,421;  235,002;25217,258;44,07296
 913,71;11171,190;  232,925;25056,565;44,06391
 914,26;11155,113;  214,387;24952,335;44,22649
 914,82;11169,190;  238,771;24873,873;44,36929
 915,37;11135,729;  226,771;24823,642;44,35100
 915,93;11135,421;  291,002;24707,642;44,41405
 916,48;11070,037;  218,002;24588,488;44,52941
 917,04;11140,652;  256,771;24472,258;44,94595
 917,59;11138,344;  269,156;24299,950;45,23025
 918,15;11008,190;  205,540;24127,412;45,15805
 918,70;10998,421;  230,233;24085,719;45,13925
 919,26;10964,806;  236,310;23955,027;45,23219
 919,81;10931,806;  213,002;23737,104;45,56520
 920,37;10905,037;  234,387;23711,642;45,45101
 920,92;10997,190;  256,925;23632,104;45,94731
 921,48;10905,498;  215,925;23362,950;46,18120
 922,03;10971,267;  229,925;23411,258;46,33617
 922,59;10951,883;  237,233;23188,181;46,68500
 923,14;10918,575;  241,387;23117,104;46,67477
 923,69;10901,806;  253,079;23007,642;46,79820
 924,25;10996,037;  261,925;23030,950;47,14348
 924,80;10881,729;  223,848;22742,412;47,32931
 925,36;10842,652;  230,156;22713,335;47,20194
 925,91;10783,037;  220,617;22526,796;47,35199
 926,47;10781,729;  211,002;22422,027;47,59225
 927,02;10848,729;  303,694;22439,412;47,63810
 927,57;10775,190;  230,079;22282,181;47,81908
 928,13;10768,806;  219,771;22184,412;48,02735
 928,68;10805,652;  225,617;22158,642;48,23792
 929,24;10659,575;  198,233;21911,873;48,17867
 929,79;10695,575;  222,848;21785,258;48,56937
 930,34;10603,729;  226,694;21600,950;48,54922
 930,90;10539,498;  224,156;21626,719;48,19676
 931,45;10555,883;  226,617;21524,335;48,49940
 932,01;10599,037;  230,002;21376,642;49,03396
 932,56;10551,883;  249,310;21230,873;49,10298
 933,11;10566,421;  251,156;21304,488;48,99588
 933,67;10380,498;  220,079;21047,412;48,78406
 934,22;10355,498;  229,771;20985,796;48,78452
 934,77;10386,575;  249,925;20872,719;49,15265
 935,33;10307,575;  229,387;20730,335;49,15962
 935,88;10333,190;  234,002;20730,565;49,27259
 936,43;10294,498;  218,002;20557,104;49,54248
 936,99;10213,960;  222,387;20398,719;49,52125
 937,54;10154,575;  206,387;20254,950;49,62046
 938,09;10218,267;  234,002;20262,796;49,84956
 938,65;10148,037;  242,617;20134,565;49,79612
 939,20;10055,960;  206,694;20059,181;49,61225
 939,75;10056,498;  208,617;19935,412;49,92134
 940,31;10023,113;  212,694;19782,258;50,13101
 940,86;10090,806;  225,233;19784,488;50,43941
 941,41;10075,344;  332,694;19728,488;50,23073
 941,96;10023,267;  213,463;19530,258;50,78381
 942,52; 9939,498;  225,925;19473,104;50,46752
 943,07; 9867,344;  209,079;19286,258;50,62733
 943,62; 9848,498;  215,233;19190,181;50,76834
 944,18; 9832,729;  204,156;19129,104;50,87767
 944,73; 9827,498;  251,387;19083,565;50,84973
 945,28; 9718,729;  194,463;18868,335;51,00317
 945,83; 9765,190;  211,233;18904,181;51,10996
 946,39; 9758,575;  225,002;18854,335;51,17506
 946,94; 9725,575;  234,387;18772,873;51,19721
 947,49; 9676,652;  218,002;18646,950;51,32496
 948,04; 9763,113;  271,848;18616,950;51,73733
 948,59; 9655,344;  244,771;18571,027;51,35022
 949,15; 9638,883;  197,233;18398,104;51,87471
 949,70; 9577,421;  227,694;18305,181;51,72028
 950,25; 9528,113;  232,387;18258,796;51,56727
 950,80; 9450,883;  181,540;18098,181;51,73594
 951,36; 9466,960;  189,310;17997,488;52,09769
 951,91; 9484,575;  238,694;18064,796;51,86709
 952,46; 9386,652;  211,848;17810,642;52,13314
 953,01; 9433,806;  231,233;17894,719;52,09941
 953,56; 9368,575;  196,463;17687,104;52,44011
 954,11; 9365,729;  236,233;17578,642;52,64260
 954,67; 9323,652;  214,310;17560,488;52,51498
 955,22; 9268,037;  208,156;17351,335;52,84831
 955,77; 9250,806;  256,925;17345,027;52,63242
 956,32; 9295,113;  287,848;17339,873;52,82226
 956,87; 9180,344;  216,233;17181,027;52,83949
 957,42; 9151,498;  218,387;17060,796;53,03939
 957,98; 9133,113;  216,540;17052,488;52,96151
 958,53; 9149,267;  251,848;16944,796;53,30047
 959,08; 9058,575;  205,387;16840,104;53,22115
 959,63; 8990,575;  213,463;16698,335;53,24343
 960,18; 9008,575;  240,310;16663,104;53,39083
 960,73; 8963,498;  227,694;16622,796;53,28301
 961,28; 8906,883;  200,233;16484,565;53,46642
 961,83; 8954,190;  253,463;16457,950;53,69332
 962,39; 8799,113;  195,233;16332,873;53,31561
 962,94; 8761,267;  228,694;16245,488;53,27266
 963,49; 8787,421;  229,233;16088,796;53,96232
 964,04; 8756,652;  239,925;16038,181;53,90929
 964,59; 8704,113;  188,694;15921,104;54,12661
 965,14; 8704,421;  238,617;15892,335;54,08175
 965,69; 8667,883;  215,694;15766,796;54,35106
 966,24; 8611,267;  210,771;15661,104;54,37097
 966,79; 8613,267;  241,617;15580,412;54,57828
 967,34; 8568,421;  204,694;15437,796;54,90495
 967,89; 8561,267;  223,387;15377,181;55,02174
 968,44; 8484,113;  222,848;15322,335;54,71223
 968,99; 8503,575;  226,617;15221,719;55,19774
 969,55; 8430,267;  223,848;15129,488;55,05580
 970,10; 8488,960;  237,694;15034,642;55,76329
 970,65; 8434,498;  242,925;14971,642;55,61634
 971,20; 8372,960;  209,079;14867,335;55,69476
 971,75; 8293,498;  204,694;14685,873;55,85736
 972,30; 8263,190;  223,002;14625,104;55,82649
 972,85; 8244,344;  211,156;14534,104;56,08614
 973,40; 8100,806;  203,310;14416,565;55,56430
 973,95; 8164,113;  239,694;14371,335;56,07572
 974,50; 8149,498;  258,694;14305,181;56,17635
 975,05; 8081,652;  224,848;14154,027;56,40536
 975,60; 8057,421;  232,463;14079,796;56,50877
 976,15; 7986,960;  206,925;13992,719;56,43516
 976,70; 7948,575;  234,079;13964,565;56,18516
 977,25; 7965,190;  238,387;13904,796;56,53865
 977,80; 7854,806;  224,617;13683,258;56,69361
 978,35; 7760,883;  239,387;13569,873;56,42327
 978,89; 7714,421;  197,540;13494,565;56,53055
 979,44; 7735,037;  216,617;13471,950;56,71996
 979,99; 7689,113;  203,771;13263,642;57,31559
 980,54; 7612,267;  245,002;13232,873;56,72420
 981,09; 7608,267;  253,079;13134,719;57,09823
 981,64; 7503,037;  243,617;12957,104;57,10014
 982,19; 7536,729;  259,540;12995,565;57,13862
 982,74; 7462,037;  240,540;12766,719;57,65123
 983,29; 7345,498;  214,848;12646,027;57,36101
 983,84; 7347,652;  238,310;12546,796;57,75968
 984,39; 7388,113;  320,002;12613,181;57,49621
 984,94; 7195,421;  207,848;12371,258;57,44749
 985,49; 7227,344;  255,771;12332,258;57,72849
 986,03; 7160,806;  253,079;12205,950;57,79136
 986,58; 7123,498;  291,156;12056,642;58,07106
 987,13; 7021,344;  236,848;11931,335;58,01449
 987,68; 6948,883;  244,848;11804,335;57,99596
 988,23; 6931,498;  238,463;11760,335;58,08982
 988,78; 6876,960;  225,771;11591,642;58,51895
 989,33; 6815,960;  258,156;11502,412;58,32137
 989,88; 6781,729;  269,617;11457,796;58,20529
 990,42; 6661,729;  220,771;11289,488;58,19064
 990,97; 6609,113;  225,540;11129,181;58,54534
 991,52; 6642,575;  259,463;11156,258;58,57788
 992,07; 6535,190;  280,463;11006,565;58,31314
 992,62; 6497,421;  234,617;10952,488;58,43328
 993,17; 6424,960;  243,771;10793,412;58,59146
 993,71; 6415,960;  255,310;10649,181;59,27195
 994,26; 6303,883;  225,387;10543,796;58,90923
 994,81; 6317,498;  263,540;10517,873;59,03805
 995,36; 6191,421;  225,463;10316,950;59,11872
 995,91; 6176,498;  238,848;10271,104;59,18559
 996,45; 6082,729;  228,925;10182,488;58,81114
 997,00; 5984,883;  224,617;10036,181;58,70894
 997,55; 5991,113;  251,540; 9979,796;58,99899
 998,10; 5955,652;  263,617; 9872,950;59,23444
 998,65; 5905,960;  239,848; 9776,796;59,41221
 999,19; 5841,883;  257,771; 9693,258;59,18202
 999,74; 5792,421;  268,771; 9553,335;59,49283
1000,29; 5777,575;  239,233; 9525,258;59,64169
1000,84; 5621,037;  238,233; 9348,335;59,08610
1001,38; 5613,575;  246,617; 9214,412;59,84702
1001,93; 5602,729;  244,002; 9188,873;59,90837
1002,48; 5518,498;  229,848; 9065,412;59,85640
1003,03; 5524,421;  259,002; 8988,642;60,31657
1003,57; 5425,344;  244,079; 8888,642;59,93669
1004,12; 5386,421;  299,002; 8834,642;59,60208
1004,67; 5344,190;  235,310; 8676,104;60,52607
1005,22; 5215,806;  229,771; 8522,873;60,12267
1005,76; 5120,652;  223,079; 8398,027;59,90953
1006,31; 5097,883;  262,387; 8335,027;59,89981
1006,86; 4994,575;  233,079; 8203,873;59,73678
1007,40; 4925,344;  224,387; 8113,488;59,58800
1007,95; 4933,883;  244,771; 7994,412;60,50747
1008,50; 4831,267;  248,540; 7885,412;60,00791
1009,04; 4787,344;  243,079; 7761,104;60,44494
1009,59; 4676,037;  246,617; 7645,335;59,86739
1010,14; 4638,652;  222,310; 7512,335;60,58062
1010,68; 4544,344;  243,771; 7444,950;59,72040
1011,23; 4467,267;  239,540; 7324,104;59,67519
1011,78; 4462,498;  252,925; 7200,104;60,59399
1012,32; 4419,806;  281,617; 7150,027;60,24959
1012,87; 4388,267;  269,617; 7052,488;60,72134
1013,42; 4256,575;  224,540; 6985,873;59,63373
1013,96; 4295,190;  276,387; 7006,412;59,71455
1014,51; 4245,037;  206,771; 6821,104;61,05325
1015,06; 4236,421;  208,771; 6839,181;60,74512
1015,60; 4302,498;  273,694; 6944,104;60,39815
1016,15; 4238,113;  217,387; 6865,873;60,47582
1016,69; 4249,960;  233,617; 6917,181;60,09283
1017,24; 4256,806;  217,463; 6887,027;60,56382
1017,79; 4319,190;  266,310; 6977,565;60,38931
1018,33; 4301,113;  230,387; 6973,565;60,36807
1018,88; 4340,652;  256,002; 7040,412;60,20642
1019,42; 4326,883;  235,540; 7027,335;60,23949
1019,97; 4288,190;  228,002; 7042,642;59,58038
1020,51; 4384,113;  264,002; 7104,796;60,22856
1021,06; 4348,960;  213,540; 7013,335;60,81683
1021,61; 4313,575;  195,310; 7018,642;60,35563
1022,15; 4317,113;  188,925; 7005,104;60,56456
1022,70; 4332,421;  230,771; 6977,258;60,79683
1023,24; 4291,883;  216,848; 6956,950;60,45954
1023,79; 4266,190;  224,848; 6841,950;61,07420
1024,33; 4238,421;  223,463; 6815,104;60,90984
1024,88; 4218,113;  253,848; 6720,565;61,30259
1025,42; 4125,806;  237,233; 6653,642;60,60357
1025,97; 4081,113;  225,002; 6550,258;60,96373
1026,51; 4005,575;  201,387; 6445,258;60,92676
1027,06; 3982,960;  214,925; 6373,335;61,18519
1027,60; 3941,498;  248,310; 6281,719;61,21229
1028,15; 3876,037;  238,387; 6152,642;61,50647
1028,69; 3784,806;  187,387; 6030,181;61,57019
1029,24; 3754,652;  213,848; 5970,642;61,50652
1029,78; 3684,960;  211,310; 5860,181;61,49282
1030,33; 3605,344;  204,694; 5736,873;61,47036
1030,87; 3590,960;  217,233; 5712,335;61,39517
1031,42; 3495,729;  206,079; 5575,488;61,26651
1031,96; 3495,421;  236,310; 5524,027;61,63551
1032,51; 3403,344;  216,233; 5425,335;61,18351
1033,05; 3377,960;  224,848; 5379,719;61,16761
1033,60; 3254,498;  192,771; 5262,796;60,38879
1034,14; 3289,037;  219,617; 5207,412;61,53861
1034,69; 3235,960;  224,233; 5146,104;61,19069
1035,23; 3181,267;  219,463; 5064,335;61,13277
1035,77; 3152,498;  223,848; 4983,950;61,52494
1036,32; 3080,344;  189,079; 4903,104;61,33326
1036,86; 3063,344;  227,694; 4854,412;61,28859
1037,41; 3002,575;  234,925; 4783,104;60,85183
1037,95; 2962,729;  202,079; 4684,258;61,59170
1038,50; 2911,960;  218,540; 4675,950;60,42566
1039,04; 2915,344;  240,233; 4619,565;61,08491
1039,58; 2818,113;  201,387; 4517,642;60,62493
1040,13; 2800,960;  217,540; 4454,181;60,97802
1040,67; 2801,883;  241,617; 4438,873;60,99856
1041,21; 2759,037;  248,233; 4341,104;61,34578
1041,76; 2694,498;  213,002; 4282,027;60,98503
1042,30; 2655,344;  212,617; 4238,719;60,67226
1042,85; 2584,498;  215,771; 4141,873;60,33279
1043,39; 2533,883;  196,694; 4062,719;60,45456
1043,93; 2565,190;  238,156; 4062,873;60,84200
1044,48; 2517,190;  226,310; 3987,335;60,91108
1045,02; 2451,806;  217,002; 3953,950;59,80291
1045,56; 2482,037;  255,463; 3939,565;60,43734
1046,11; 2422,960;  239,617; 3856,565;60,36421
1046,65; 2394,498;  235,310; 3768,258;61,11577
1047,19; 2324,190;  212,002; 3726,181;60,10475
1047,74; 2295,037;  194,310; 3648,873;60,81020
1048,28; 2283,344;  225,233; 3585,796;61,24305
1048,82; 2275,037;  254,925; 3615,335;60,11504
1049,37; 2223,344;  243,771; 3534,412;60,15768
1049,91; 2214,267;  227,079; 3486,873;60,96055
1050,45; 2181,729;  232,310; 3441,258;60,74948
1050,99; 2144,037;  224,925; 3392,181;60,59225
1051,54; 2095,575;  209,079; 3325,104;60,54175
1052,08; 2117,498;  245,848; 3293,027;61,42239
1052,62; 2055,960;  237,002; 3273,027;59,91247
1053,16; 2032,190;  210,310; 3173,181;61,49038
1053,71; 1989,113;  240,310; 3164,950;59,79552
1054,25; 1958,267;  232,617; 3096,027;60,26557
1054,79; 1960,575;  233,771; 3062,027;61,05543
1055,33; 1892,190;  201,310; 3002,258;60,36816
1055,88; 1907,575;  234,233; 2977,412;61,00012
1056,42; 1890,883;  236,310; 2939,027;61,21887
1056,96; 1863,190;  240,694; 2917,104;60,62212
1057,50; 1833,960;  244,771; 2851,488;60,96512
1058,05; 1814,575;  226,156; 2811,258;61,44513
1058,59; 1802,113;  250,540; 2786,488;61,18316
1059,13; 1716,652;  206,310; 2734,335;59,74396
1059,67; 1719,652;  241,233; 2698,027;60,17676
1060,21; 1674,421;  227,233; 2656,796;59,56578
1060,76; 1698,421;  243,617; 2615,181;61,34366
1061,30; 1683,729;  260,617; 2603,565;60,74021
1061,84; 1637,883;  235,156; 2537,412;60,92837
1062,38; 1591,806;  210,694; 2454,412;61,55461
1062,92; 1631,806;  275,079; 2525,181;60,29624
1063,46; 1567,344;  239,771; 2429,642;60,62334
1064,01; 1526,113;  230,540; 2389,181;60,01801
1064,55; 1540,729;  237,540; 2352,412;61,62023
1065,09; 1467,883;  208,694; 2310,565;59,90798
1065,63; 1508,421;  262,079; 2338,873;60,01280
1066,17; 1513,421;  279,233; 2297,335;61,15590
1066,71; 1475,806;  250,771; 2276,412;60,47641
1067,25; 1438,806;  233,540; 2190,258;61,59630
1067,80; 1417,344;  244,617; 2191,258;60,24363
1068,34; 1435,113;  264,310; 2199,181;60,51069
1068,88; 1389,344;  216,233; 2112,104;61,87718
1069,42; 1382,267;  269,540; 2133,796;59,68746
1069,96; 1343,267;  238,387; 2086,873;59,77218
1070,50; 1378,190;  281,310; 2090,796;60,61834
1071,04; 1310,113;  223,310; 2012,873;60,73011
1071,58; 1309,729;  232,848; 1994,488;61,12943
1072,12; 1299,575;  240,617; 1989,565;60,54826
1072,66; 1278,267;  232,925; 1979,488;59,85138
1073,21; 1301,806;  257,925; 1962,181;61,25141
1073,75; 1269,498;  242,310; 1920,642;61,20291
1074,29; 1243,421;  238,848; 1893,258;60,72094
1074,83; 1240,421;  264,233; 1894,565;59,87664
1075,37; 1236,113;  260,079; 1867,335;60,72678
1075,91; 1220,037;  249,463; 1835,565;61,19235
1076,45; 1188,652;  262,233; 1804,642;60,06311
1076,99; 1197,037;  253,617; 1787,719;61,49652
1077,53; 1158,806;  227,002; 1742,335;61,49170
1078,07; 1153,344;  246,540; 1739,719;60,72975
1078,61; 1140,421;  248,310; 1702,181;61,36111
1079,15; 1112,729;  233,540; 1692,488;60,26181
1079,69; 1122,267;  241,925; 1681,335;61,15996
1080,23; 1118,729;  266,848; 1681,412;60,22217
1080,77; 1174,729;  297,079; 1717,104;61,80525
1081,31; 1087,883;  239,925; 1636,565;60,71410
1081,85; 1096,190;  259,387; 1622,642;61,38275
1082,39; 1050,267;  234,233; 1573,027;60,95295
1082,93; 1058,960;  264,925; 1595,565;59,67312
1083,47; 1010,806;  226,540; 1525,488;60,37696
1084,01; 1049,421;  239,079; 1553,412;61,65428
1084,55; 1006,960;  234,617; 1512,642;60,43249
1085,09; 1010,421;  253,156; 1508,642;60,31649
1085,63;  985,190;  248,387; 1479,258;59,86036
1086,17;  960,883;  235,694; 1460,258;59,22016
1086,71;  960,960;  225,925; 1436,565;60,71453
1087,24;  984,498;  255,848; 1447,335;61,15470
1087,78;  969,267;  265,310; 1439,258;59,96498
1088,32;  906,113;  222,848; 1381,181;58,98697
1088,86;  944,960;  261,463; 1399,181;60,07610
1089,40;  912,037;  240,694; 1374,181;59,22808
1089,94;  896,575;  218,079; 1325,258;61,28153
1090,48;  880,806;  254,463; 1340,027;57,69744
1091,02;  910,575;  256,925; 1335,565;60,59944
1091,56;  877,729;  242,079; 1302,873;59,92208
1092,10;  836,190;  221,540; 1267,565;58,76055
1092,63;  884,037;  262,387; 1282,950;60,91243
1093,17;  867,960;  264,694; 1276,796;59,60520
1093,71;  814,729;  229,079; 1222,642;58,94440
1094,25;  852,498;  274,156; 1260,565;58,63105
1094,79;  812,498;  234,156; 1223,796;58,43964
1095,33;  813,113;  251,694; 1210,565;58,55002
1095,87;  811,190;  246,463; 1197,488;59,38087
1096,40;  778,960;  226,540; 1154,335;59,54114
1096,94;  779,960;  245,310; 1165,950;58,07371
1097,48;  792,575;  256,617; 1172,027;58,54840
1098,02;  753,498;  233,002; 1120,719;58,63310
1098,56;  736,729;  211,156; 1089,796;59,81663
1099,10;  721,498;  224,002; 1093,181;57,23749
1099,63;  731,498;  213,387; 1062,104;61,04642
1100,17;  733,960;  250,540; 1095,258;57,22852
1100,71;  759,267;  271,848; 1098,796;58,94194

