
Integration time [ms]: 150,000
Averaging Nr. [scans]: 13
Smoothing Nr. [pixels]: 0
Data measured with spectrometer [name]: 2009305U1
Wave   ;Sample   ;Dark     ;Reference;Reflectance
[nm]   ;[counts] ;[counts] ;[counts] ;[%]

 175,72;  216,869;  219,771;  228,149;-34,64020
 176,32;  235,928;  243,540;  245,741;-345,92811
 176,92;  284,845;  279,310;  276,351; 0,00000
 177,52;  277,599;  275,694;  275,625; 0,00000
 178,12;  250,016;  247,848;  237,671; 0,00000
 178,72;  274,064;  283,232;  275,907; 0,00000
 179,32;  267,605;  273,156;  272,153; 0,00000
 179,92;  272,190;  272,771;  263,888; 0,00000
 180,52;  261,514;  246,926;  261,484;100,20926
 181,12;  281,643;  277,617;  270,726; 0,00000
 181,73;  293,171;  289,079;  292,196;131,26225
 182,33;  400,150;  381,387;  410,818;63,75052
 182,93;  282,386;  279,771;  292,658;20,28791
 183,53;  254,882;  255,771;  247,236; 0,00000
 184,13;  252,634;  255,463;  243,066; 0,00000
 184,73;  301,497;  297,694;  297,759; 0,00000
 185,33;  267,550;  256,691;  368,500; 9,71193
 185,93;  272,620;  255,075;  382,746;13,74222
 186,53;  279,497;  270,306;  409,740; 6,59185
 187,13;  298,743;  286,691;  442,672; 7,72687
 187,73;  272,977;  258,383;  397,569;10,48545
 188,33;  276,886;  244,459;  389,070;22,42341
 188,93;  281,301;  265,151;  389,820;12,95379
 189,53;  286,710;  255,997;  401,808;21,06339
 190,13;  326,253;  303,534;  425,453;18,63456
 190,73;  259,909;  238,612;  373,568;15,78058
 191,34;  295,560;  272,382;  412,563;16,53441
 191,94;  272,583;  245,536;  389,124;18,83665
 192,54;  280,506;  257,845;  421,882;13,81453
 193,14;  303,044;  280,999;  427,015;15,09817
 193,74;  297,461;  277,460;  416,620;14,37240
 194,34;  298,408;  266,383;  422,879;20,46375
 194,94;  249,215;  229,152;  370,509;14,19309
 195,54;  243,853;  219,768;  356,227;17,65028
 196,14;  265,665;  237,307;  390,260;18,54081
 196,74;  260,797;  231,845;  381,671;19,32407
 197,34;  233,855;  216,922;  370,235;11,04459
 197,94;  270,910;  245,999;  399,200;16,26058
 198,54;  275,573;  248,999;  404,056;17,13852
 199,14;  254,362;  232,615;  417,339;11,77301
 199,74;  243,345;  222,076;  395,845;12,23984
 200,34;  233,995;  207,461;  420,541;12,45270
 200,94;  284,192;  248,153;  461,164;16,91894
 201,54;  249,501;  219,768;  445,273;13,18477
 202,14;  282,494;  261,153;  507,467; 8,66391
 202,74;  260,334;  229,384;  505,376;11,21427
 203,34;  233,040;  209,000;  512,156; 7,92991
 203,94;  210,408;  174,153;  513,305;10,68994
 204,54;  273,395;  270,153;  616,582; 0,93608
 205,14;  242,578;  206,384;  598,674; 9,22638
 205,74;  292,689;  252,230;  701,528; 9,00488
 206,34;  240,419;  216,076;  694,450; 5,08859
 206,94;  262,094;  233,538;  772,940; 5,29398
 207,54;  238,793;  201,692;  795,827; 6,24452
 208,14;  252,274;  213,153;  877,320; 5,89015
 208,74;  255,413;  218,845;  976,513; 4,82639
 209,34;  255,726;  217,461; 1044,418; 4,62719
 209,94;  269,975;  220,307; 1137,587; 5,41477
 210,54;  269,768;  229,692; 1220,957; 4,04290
 211,14;  282,471;  224,922; 1339,805; 5,16187
 211,73;  291,938;  232,768; 1439,199; 4,90456
 212,33;  290,209;  239,461; 1581,273; 3,78209
 212,93;  270,370;  226,307; 1645,732; 3,10433
 213,53;  258,396;  189,768; 1712,865; 4,50581
 214,13;  300,902;  218,538; 1813,622; 5,16358
 214,73;  260,801;  197,307; 1816,698; 3,92087
 215,33;  255,591;  186,538; 1864,202; 4,11603
 215,93;  302,539;  218,230; 1998,417; 4,73597
 216,53;  259,390;  188,076; 2057,055; 3,81564
 217,13;  310,505;  225,846; 2256,567; 4,16892
 217,73;  309,274;  210,538; 2464,275; 4,38101
 218,33;  281,521;  155,769; 2660,450; 5,02070
 218,93;  330,986;  201,231; 2977,546; 4,67363
 219,53;  323,966;  200,923; 3232,648; 4,05852
 220,13;  319,116;  170,769; 3524,776; 4,42298
 220,73;  357,095;  183,538; 3882,522; 4,69203
 221,32;  360,106;  205,461; 4307,282; 3,77015
 221,92;  396,691;  201,846; 4696,208; 4,33532
 222,52;  396,516;  186,307; 5149,821; 4,23508
 223,12;  434,619;  202,461; 5611,108; 4,29234
 223,72;  446,909;  205,076; 5985,691; 4,18352
 224,32;  478,734;  205,384; 6429,001; 4,39214
 224,92;  490,243;  190,538; 6682,132; 4,61681
 225,52;  522,769;  200,922; 7052,984; 4,69707
 226,12;  541,738;  195,153; 7404,550; 4,80740
 226,72;  526,667;  165,999; 7775,960; 4,73941
 227,31;  544,176;  163,307; 8103,707; 4,79659
 227,91;  611,224;  197,999; 8551,866; 4,94651
 228,51;  621,568;  185,614; 8888,848; 5,00910
 229,11;  674,041;  198,538; 9299,491; 5,22476
 229,71;  686,819;  184,230; 9632,357; 5,31946
 230,31;  703,778;  180,769;10070,106; 5,28861
 230,91;  717,288;  166,076;10383,471; 5,39484
 231,51;  757,014;  165,923;10680,099; 5,62185
 232,10;  805,398;  181,461;10992,241; 5,77143
 232,70;  824,408;  196,460;11145,879; 5,73499
 233,30;  903,821;  215,846;11504,976; 6,09414
 233,90;  901,253;  186,999;11581,030; 6,26866
 234,50;  937,230;  192,615;11706,819; 6,46692
 235,10;  940,704;  183,769;11702,286; 6,57147
 235,70; 1000,149;  204,999;11795,849; 6,86015
 236,29;  996,048;  204,461;11688,836; 6,89273
 236,89; 1009,974;  172,076;11527,215; 7,37902
 237,49; 1048,723;  209,922;11419,269; 7,48304
 238,09; 1047,650;  185,999;11083,219; 7,90706
 238,69; 1112,341;  244,230;10802,227; 8,22231
 239,29; 1058,504;  197,384;10437,612; 8,40919
 239,89; 1067,388;  191,076;10097,391; 8,84600
 240,48; 1048,158;  177,999; 9657,197; 9,17967
 241,08; 1063,294;  188,769; 9319,071; 9,57828
 241,68; 1056,400;  211,384; 8946,742; 9,67351
 242,28; 1033,272;  181,769; 8555,430;10,16883
 242,88; 1068,192;  230,307; 8220,974;10,48579
 243,48; 1061,278;  227,076; 7917,686;10,84702
 244,07; 1036,348;  211,615; 7674,921;11,05050
 244,67; 1047,855;  212,230; 7509,332;11,45146
 245,27; 1024,015;  209,691; 7358,738;11,39067
 245,87; 1043,585;  223,692; 7246,444;11,67481
 246,47; 1056,353;  201,691; 7259,452;12,10953
 247,06; 1044,566;  181,307; 7247,178;12,21730
 247,66; 1066,244;  192,076; 7295,913;12,30557
 248,26; 1121,561;  221,076; 7456,702;12,44515
 248,86; 1141,627;  210,691; 7654,849;12,50558
 249,46; 1138,415;  160,692; 7870,747;12,68115
 250,05; 1220,808;  206,076; 8287,338;12,55659
 250,65; 1248,485;  184,691; 8670,592;12,53602
 251,25; 1304,574;  190,692; 9157,724;12,42198
 251,85; 1397,497;  185,153; 9790,011;12,62220
 252,44; 1438,614;  164,768;10372,568;12,47914
 253,04; 1555,326;  201,768;11244,137;12,25786
 253,64; 1597,171;  150,768;12033,166;12,17265
 254,24; 1779,671;  213,922;13051,063;12,19702
 254,84; 1872,877;  196,692;14087,362;12,06699
 255,43; 2002,826;  186,461;15163,322;12,12781
 256,03; 2117,197;  195,307;16327,684;11,91325
 256,63; 2228,175;  203,922;17503,500;11,70117
 257,23; 2336,309;  178,691;18501,485;11,77560
 257,82; 2456,704;  207,383;19738,752;11,51645
 258,42; 2519,479;  159,460;20771,530;11,44969
 259,02; 2678,020;  210,307;21895,351;11,37979
 259,62; 2746,337;  183,691;22787,658;11,33715
 260,21; 2809,091;  199,845;23471,540;11,21210
 260,81; 2813,003;  187,076;24171,692;10,94838
 261,41; 2865,280;  184,383;24795,244;10,89315
 262,01; 2904,108;  216,537;25352,394;10,69218
 262,60; 2892,617;  177,307;25846,101;10,57825
 263,20; 2924,941;  185,999;26357,336;10,46542
 263,80; 2931,264;  209,152;26539,377;10,33835
 264,40; 2918,792;  176,845;26899,693;10,26068
 264,99; 2912,315;  200,537;27115,397;10,07539
 265,59; 2892,019;  186,306;27318,169; 9,97245
 266,19; 2884,939;  184,229;27638,806; 9,83701
 266,78; 2904,479;  232,152;27795,449; 9,69524
 267,38; 2867,314;  205,998;27786,734; 9,64918
 267,98; 2840,983;  185,460;27858,000; 9,59624
 268,58; 2805,669;  192,691;27956,250; 9,41154
 269,17; 2767,144;  183,614;28097,251; 9,25544
 269,77; 2751,973;  204,383;27753,045; 9,24760
 270,37; 2703,548;  169,999;27664,072; 9,21489
 270,96; 2681,535;  221,076;27556,548; 9,00097
 271,56; 2595,914;  189,460;27252,093; 8,89216
 272,16; 2582,423;  183,845;27045,467; 8,92939
 272,75; 2549,481;  184,845;27076,683; 8,79314
 273,35; 2529,652;  194,307;26917,962; 8,73887
 273,95; 2498,849;  191,768;26907,420; 8,63569
 274,54; 2457,887;  177,999;27015,629; 8,49511
 275,14; 2506,680;  222,153;27307,463; 8,43456
 275,74; 2476,776;  163,537;27402,309; 8,49245
 276,33; 2550,236;  221,999;27818,973; 8,43657
 276,93; 2540,336;  200,230;28216,347; 8,35271
 277,53; 2591,415;  186,999;28790,573; 8,40600
 278,12; 2598,641;  179,384;29422,405; 8,27294
 278,72; 2741,990;  256,461;29999,620; 8,35664
 279,32; 2729,257;  188,076;30643,053; 8,34406
 279,91; 2773,885;  164,768;31454,796; 8,33849
 280,51; 2855,059;  195,461;32138,689; 8,32601
 281,11; 2940,932;  194,076;32882,543; 8,40313
 281,70; 2968,308;  177,691;33380,826; 8,40468
 282,30; 3065,222;  181,999;34137,863; 8,49109
 282,90; 3138,407;  183,307;34486,022; 8,61477
 283,49; 3254,712;  198,153;35030,161; 8,77515
 284,09; 3348,543;  222,153;35639,099; 8,82738
 284,69; 3412,306;  226,230;36006,782; 8,90449
 285,28; 3487,637;  206,076;36449,516; 9,05422
 285,88; 3632,686;  253,999;36743,165; 9,25943
 286,47; 3595,117;  194,922;36914,823; 9,25981
 287,07; 3746,505;  222,153;36890,777; 9,61136
 287,67; 3850,047;  210,769;36997,225; 9,89299
 288,26; 3893,569;  188,691;36908,480;10,08959
 288,86; 4012,818;  184,153;37041,094;10,38791
 289,46; 4151,928;  202,384;37122,731;10,69747
 290,05; 4282,284;  190,768;37212,064;11,05179
 290,65; 4456,647;  187,384;37404,337;11,47129
 291,24; 4644,407;  198,691;37559,548;11,89939
 291,84; 4807,252;  211,691;37792,731;12,22840
 292,44; 4976,902;  204,076;37806,095;12,69300
 293,03; 5239,084;  272,230;38112,576;13,12582
 293,63; 5297,531;  184,768;38158,999;13,46377
 294,22; 5514,639;  217,153;38465,208;13,85034
 294,82; 5608,205;  199,152;38413,271;14,15459
 295,41; 5630,385;  174,922;38100,288;14,38473
 296,01; 5769,370;  222,999;38054,602;14,66068
 296,61; 5863,255;  224,230;37819,916;14,99913
 297,20; 5853,103;  192,691;37410,939;15,20870
 297,80; 5880,179;  213,615;37207,272;15,31767
 298,39; 5879,113;  177,845;36779,473;15,57654
 298,99; 5928,718;  224,537;36504,955;15,72248
 299,58; 5925,334;  211,384;36385,903;15,79551
 300,18; 5942,034;  223,845;36189,895;15,89885
 300,78; 5909,394;  190,999;35786,113;16,06511
 301,37; 5935,048;  217,845;35795,718;16,06955
 301,97; 6006,128;  215,768;35728,247;16,30514
 302,56; 5955,798;  198,153;35633,201;16,24845
 303,16; 5995,257;  180,922;35521,202;16,45243
 303,75; 5956,555;  195,768;35645,924;16,25038
 304,35; 6055,852;  177,153;35901,168;16,45587
 304,94; 6057,003;  194,384;35809,440;16,46107
 305,54; 6083,798;  215,384;35790,205;16,49598
 306,13; 6004,986;  159,923;35769,307;16,41439
 306,73; 6006,088;  171,769;35488,947;16,51978
 307,33; 6022,821;  207,922;35499,114;16,47691
 307,92; 6059,345;  208,076;35472,060;16,59276
 308,52; 6117,507;  183,768;35997,217;16,56847
 309,11; 6165,468;  193,922;36580,985;16,41118
 309,71; 6259,585;  193,768;36923,367;16,51479
 310,30; 6283,825;  189,999;37166,229;16,48039
 310,90; 6402,748;  235,153;37523,690;16,54019
 311,49; 6379,738;  205,384;37627,068;16,49940
 312,09; 6390,833;  172,999;37837,225;16,50859
 312,68; 6578,858;  256,615;38261,788;16,63522
 313,28; 6518,268;  174,230;38357,983;16,61450
 313,87; 6542,783;  164,691;38582,601;16,60187
 314,47; 6585,425;  190,845;38858,912;16,53711
 315,06; 6594,420;  175,230;38948,769;16,55559
 315,66; 6601,448;  181,845;39296,994;16,41206
 316,25; 6564,884;  161,153;39194,747;16,40569
 316,85; 6539,446;  159,307;39253,935;16,31973
 317,44; 6586,617;  184,306;39342,788;16,34974
 318,04; 6572,284;  173,384;39360,659;16,32902
 318,63; 6559,719;  162,769;39407,073;16,30033
 319,22; 6555,572;  196,076;39719,782;16,09033
 319,82; 6503,854;  183,614;39730,450;15,98166
 320,41; 6495,168;  209,537;39651,459;15,93642
 321,01; 6490,147;  209,461;39752,251;15,88326
 321,60; 6496,421;  196,537;39803,104;15,90616
 322,20; 6480,603;  176,076;39745,945;15,93265
 322,79; 6449,742;  216,999;39971,896;15,67793
 323,39; 6438,151;  177,538;40024,528;15,71163
 323,98; 6383,106;  175,922;39925,667;15,61566
 324,58; 6330,445;  184,768;39865,267;15,48790
 325,17; 6331,080;  189,999;39682,837;15,54986
 325,76; 6306,693;  207,230;39524,457;15,51346
 326,36; 6170,179;  174,768;39152,948;15,38145
 326,95; 6175,325;  216,999;38741,782;15,46622
 327,55; 6052,534;  185,537;38407,921;15,34964
 328,14; 5943,374;  178,922;37999,070;15,24175
 328,74; 5875,354;  200,153;37482,233;15,22233
 329,33; 5754,397;  197,922;37120,343;15,04905
 329,92; 5667,265;  175,845;36541,640;15,10051
 330,52; 5537,908;  202,538;35733,028;15,01632
 331,11; 5415,974;  193,384;35278,308;14,88557
 331,71; 5316,731;  188,307;34626,488;14,89168
 332,30; 5228,926;  207,999;34111,748;14,80935
 332,89; 5150,617;  271,076;33590,336;14,64480
 333,49; 5009,417;  194,999;32891,370;14,72462
 334,08; 4913,288;  190,845;32377,026;14,67227
 334,68; 4835,102;  187,614;32014,251;14,60251
 335,27; 4771,344;  200,307;31590,987;14,56177
 335,86; 4721,667;  250,076;31383,154;14,36283
 336,46; 4640,064;  204,153;31029,334;14,39054
 337,05; 4559,098;  189,461;30668,132;14,33671
 337,65; 4513,348;  164,307;30603,070;14,28784
 338,24; 4532,907;  230,999;30615,595;14,15819
 338,83; 4510,304;  217,384;30467,662;14,19134
 339,43; 4471,373;  186,076;30397,710;14,18426
 340,02; 4448,749;  195,845;30321,455;14,11724
 340,61; 4431,020;  201,307;30458,950;13,97899
 341,21; 4434,046;  212,999;30340,233;14,01074
 341,80; 4405,797;  187,384;30267,619;14,02387
 342,40; 4384,306;  192,769;30458,094;13,84930
 342,99; 4402,771;  190,999;30621,566;13,84059
 343,58; 4384,858;  189,692;30725,189;13,73866
 344,18; 4422,514;  205,999;30926,295;13,72550
 344,77; 4467,935;  189,768;31194,614;13,79838
 345,36; 4449,632;  169,537;31564,012;13,63327
 345,96; 4547,504;  219,768;31833,673;13,68934
 346,55; 4573,178;  170,769;32170,183;13,75778
 347,14; 4597,427;  183,538;32575,474;13,62651
 347,74; 4659,032;  157,846;33028,042;13,69382
 348,33; 4740,103;  180,923;33826,154;13,55075
 348,92; 4836,249;  205,308;34430,178;13,53092
 349,52; 4881,620;  164,615;34951,480;13,55973
 350,11; 4941,740;  185,845;35192,354;13,58575
 350,70; 4936,975;  180,615;35339,648;13,52813
 351,29; 4865,603;  169,383;35006,042;13,48068
 351,89; 4905,299;  202,922;35091,627;13,47822
 352,48; 4877,853;  169,999;35147,268;13,45975
 353,07; 4879,280;  206,461;35033,208;13,41733
 353,67; 4854,997;  204,923;34949,565;13,38357
 354,26; 4802,596;  201,307;34808,524;13,29575
 354,85; 4809,876;  203,153;34516,545;13,42544
 355,45; 4728,803;  167,230;34307,183;13,36139
 356,04; 4711,936;  182,846;34215,160;13,30821
 356,63; 4737,122;  234,691;34031,513;13,32205
 357,22; 4664,734;  193,614;33824,077;13,29485
 357,82; 4623,576;  197,152;33639,051;13,23616
 358,41; 4628,958;  221,461;33568,368;13,21711
 359,00; 4569,234;  178,153;33297,760;13,25825
 359,60; 4603,277;  197,384;33273,930;13,32029
 360,19; 4559,037;  215,461;33107,234;13,20566
 360,78; 4523,780;  189,537;32871,971;13,26169
 361,37; 4488,916;  193,461;32696,708;13,21547
 361,97; 4487,547;  210,307;32520,543;13,23804
 362,56; 4421,973;  191,307;32201,491;13,21663
 363,15; 4443,106;  258,537;31875,986;13,23500
 363,74; 4348,346;  189,537;31578,698;13,24919
 364,34; 4348,313;  225,153;31136,896;13,33849
 364,93; 4255,825;  197,768;30611,516;13,34284
 365,52; 4178,513;  167,768;30252,923;13,33131
 366,11; 4164,864;  203,307;29846,040;13,36435
 366,71; 4130,418;  188,230;29394,166;13,49790
 367,30; 4064,064;  195,384;29033,298;13,41526
 367,89; 4111,955;  238,307;28743,451;13,58929
 368,48; 4014,697;  207,306;28354,018;13,52695
 369,07; 3960,437;  195,153;27881,417;13,59983
 369,67; 3906,812;  216,383;27573,988;13,48959
 370,26; 3861,556;  180,922;27244,891;13,59976
 370,85; 3848,190;  192,999;26939,335;13,66614
 371,44; 3856,611;  206,384;26642,014;13,80798
 372,03; 3760,713;  176,460;26437,561;13,64852
 372,63; 3752,169;  172,153;26061,876;13,82794
 373,22; 3705,503;  188,230;25676,794;13,79942
 373,81; 3648,483;  170,845;25388,132;13,79069
 374,40; 3634,235;  181,230;25135,197;13,83750
 374,99; 3627,878;  192,922;24805,815;13,95592
 375,59; 3576,579;  171,538;24398,937;14,05451
 376,18; 3622,166;  216,999;24328,954;14,12232
 376,77; 3614,560;  215,307;24058,225;14,25687
 377,36; 3622,145;  227,768;24006,263;14,27499
 377,95; 3595,230;  214,076;23762,102;14,35855
 378,55; 3526,301;  186,922;23508,635;14,31875
 379,14; 3553,976;  209,153;23452,060;14,39073
 379,73; 3563,350;  208,537;23303,883;14,52592
 380,32; 3581,639;  196,461;23346,208;14,62296
 380,91; 3557,862;  180,460;23182,102;14,68331
 381,50; 3575,033;  203,307;23152,689;14,69201
 382,10; 3536,485;  189,691;23019,746;14,65960
 382,69; 3546,316;  158,461;23001,834;14,83080
 383,28; 3615,610;  220,307;22925,274;14,95401
 383,87; 3548,503;  188,230;22754,175;14,89091
 384,46; 3621,403;  174,845;22715,959;15,29010
 385,05; 3648,864;  222,230;22649,024;15,27920
 385,64; 3644,172;  194,922;22646,501;15,36306
 386,24; 3636,822;  173,614;22580,639;15,45590
 386,83; 3715,538;  210,922;22672,004;15,60306
 387,42; 3780,138;  206,999;22777,744;15,83084
 388,01; 3800,062;  207,691;22951,505;15,79494
 388,60; 3889,765;  197,537;23243,362;16,02124
 389,19; 3932,340;  189,998;23547,786;16,02182
 389,78; 3996,110;  192,460;23744,571;16,14993
 390,37; 4102,264;  262,614;24276,668;15,98918
 390,96; 4181,179;  206,845;24474,830;16,37686
 391,56; 4213,961;  207,690;24645,718;16,39359
 392,15; 4298,298;  194,691;24963,960;16,56733
 392,74; 4305,553;  163,305;25106,085;16,60700
 393,33; 4418,955;  197,767;25491,061;16,68896
 393,92; 4525,857;  212,613;25900,901;16,79070
 394,51; 4607,081;  183,460;26149,483;17,03619
 395,10; 4705,950;  232,382;26382,711;17,10712
 395,69; 4724,639;  219,459;26497,146;17,14451
 396,28; 4829,120;  217,689;26669,156;17,43355
 396,87; 4852,063;  220,150;26833,025;17,40478
 397,46; 4938,614;  218,150;26835,225;17,73472
 398,06; 4999,323;  237,996;27104,067;17,72246
 398,65; 5028,894;  214,456;27131,950;17,88591
 399,24; 5144,643;  234,071;27367,810;18,09766
 399,83; 5133,741;  214,762;27381,325;18,10674
 400,42; 5233,848;  264,761;27607,435;18,17337
 401,01; 5281,862;  246,452;27702,448;18,33993
 401,60; 5362,240;  247,450;27765,454;18,58707
 402,19; 5396,587;  273,987;27599,183;18,74680
 402,78; 5450,545;  272,523;27634,687;18,92402
 403,37; 5404,614;  255,290;27482,766;18,91223
 403,96; 5382,987;  262,134;27346,365;18,90714
 404,55; 5438,203;  280,362;27213,131;19,15080
 405,14; 5430,245;  248,128;27050,732;19,33438
 405,73; 5400,150;  266,356;26942,545;19,24486
 406,32; 5421,292;  287,200;26916,383;19,27995
 406,91; 5384,141;  258,428;26636,865;19,43145
 407,50; 5391,295;  276,812;26380,646;19,59284
 408,09; 5364,441;  247,888;26025,131;19,84911
 408,68; 5364,604;  270,579;25939,191;19,84534
 409,27; 5360,752;  262,119;25718,546;20,02887
 409,86; 5349,677;  263,197;25627,174;20,05395
 410,45; 5417,655;  302,584;25499,185;20,30064
 411,04; 5383,656;  302,354;25373,826;20,26726
 411,63; 5333,001;  288,818;25135,891;20,30091
 412,22; 5316,732;  291,820;24946,198;20,38142
 412,81; 5297,742;  299,282;24612,092;20,55896
 413,40; 5260,060;  317,283;24232,821;20,66764
 413,99; 5276,400;  359,360;23878,514;20,90654
 414,58; 5106,959;  282,898;23329,423;20,93184
 415,17; 5070,110;  291,436;23186,829;20,87177
 415,76; 5063,979;  283,051;22974,676;21,06913
 416,35; 5016,828;  277,128;22780,157;21,06250
 416,94; 5063,694;  303,128;22785,030;21,17510
 417,53; 5137,373;  278,359;23066,312;21,32273
 418,12; 5147,855;  282,436;23078,298;21,34343
 418,71; 5295,116;  308,898;23475,054;21,52372
 419,30; 5298,824;  282,129;23620,155;21,49580
 419,89; 5351,126;  273,590;23800,085;21,58220
 420,48; 5490,652;  318,206;24095,378;21,75383
 421,07; 5481,525;  300,899;24293,006;21,59305
 421,66; 5457,107;  259,284;24241,823;21,67336
 422,25; 5489,422;  284,746;24288,691;21,68258
 422,84; 5562,000;  309,361;24273,693;21,91857
 423,43; 5469,431;  287,900;23908,650;21,93635
 424,02; 5462,765;  314,592;23670,893;22,04190
 424,60; 5384,442;  269,516;23210,042;22,29647
 425,19; 5285,984;  306,208;22876,340;22,06357
 425,78; 5321,250;  304,516;22764,882;22,33594
 426,37; 5273,203;  307,285;22590,848;22,28511
 426,96; 5247,109;  297,285;22472,585;22,32134
 427,55; 5206,787;  280,286;22280,373;22,39310
 428,14; 5177,641;  279,594;22069,924;22,47808
 428,73; 5148,696;  281,132;21847,258;22,57042
 429,32; 5185,615;  306,593;21796,025;22,70428
 429,91; 5169,675;  313,132;21797,183;22,60534
 430,50; 5093,628;  304,132;21558,979;22,53366
 431,08; 5112,166;  311,363;21445,445;22,71593
 431,67; 5118,184;  364,132;21350,696;22,65284
 432,26; 5153,068;  383,825;21199,730;22,91153
 432,85; 5071,670;  397,210;20759,725;22,95621
 433,44; 4998,726;  420,902;20388,439;22,92633
 434,03; 4906,445;  425,595;20017,318;22,87114
 434,62; 4766,566;  383,133;19500,106;22,92954
 435,21; 4774,030;  403,363;19234,453;23,20984
 435,79; 4727,410;  391,749;19066,589;23,21659
 436,38; 4700,178;  387,288;18952,505;23,23102
 436,97; 4684,885;  382,518;18879,955;23,25926
 437,56; 4656,245;  377,750;18603,802;23,47461
 438,15; 4602,949;  364,365;18487,436;23,38778
 438,74; 4638,471;  385,981;18530,497;23,43678
 439,33; 4628,139;  341,673;18509,407;23,59384
 439,91; 4661,865;  305,442;18649,569;23,74833
 440,50; 4670,904;  345,212;18701,692;23,56493
 441,09; 4727,227;  354,520;18795,163;23,71234
 441,68; 4661,223;  334,212;18696,465;23,56471
 442,27; 4714,387;  331,597;18725,116;23,82790
 442,86; 4675,243;  304,059;18709,845;23,74897
 443,44; 4762,746;  325,521;18797,655;24,02118
 444,03; 4805,085;  403,905;18893,725;23,80326
 444,62; 4695,993;  327,982;18702,291;23,77238
 445,21; 4705,249;  326,059;18535,085;24,04955
 445,80; 4694,844;  358,060;18427,062;24,00124
 446,39; 4668,140;  400,059;18168,193;24,02098
 446,97; 4558,874;  327,368;17983,599;23,96608
 447,56; 4529,595;  319,368;17715,751;24,20174
 448,15; 4495,107;  330,522;17478,966;24,28550
 448,74; 4458,695;  339,906;17225,173;24,39280
 449,33; 4391,889;  329,599;17093,669;24,23213
 449,91; 4346,348;  335,368;16778,294;24,39334
 450,50; 4313,078;  328,522;16543,308;24,57359
 451,09; 4280,788;  338,676;16409,895;24,52901
 451,68; 4267,650;  361,061;16271,224;24,55405
 452,26; 4244,863;  357,369;16176,718;24,57430
 452,85; 4200,800;  335,907;16118,659;24,48808
 453,44; 4207,484;  344,369;16050,676;24,59594
 454,03; 4175,539;  320,292;16117,487;24,40463
 454,61; 4177,396;  333,908;15999,608;24,53442
 455,20; 4257,024;  346,293;16255,124;24,58214
 455,79; 4236,158;  356,831;16239,150;24,42545
 456,38; 4305,605;  364,139;16282,465;24,76056
 456,97; 4316,799;  342,678;16385,616;24,77178
 457,55; 4288,982;  339,985;16382,719;24,61549
 458,14; 4326,711;  365,677;16357,900;24,76850
 458,73; 4286,895;  360,370;16309,190;24,61953
 459,31; 4317,359;  378,601;16377,517;24,61890
 459,90; 4369,285;  403,678;16379,665;24,82230
 460,49; 4434,205;  457,832;16555,727;24,70120
 461,08; 4377,422;  356,063;16622,285;24,72215
 461,66; 4407,440;  356,294;16673,790;24,82701
 462,25; 4415,490;  359,679;16769,095;24,71636
 462,84; 4484,797;  380,294;16852,140;24,91829
 463,43; 4420,452;  327,602;16714,947;24,97567
 464,01; 4462,162;  356,371;16813,258;24,94877
 464,60; 4478,148;  406,679;16730,265;24,94224
 465,19; 4391,029;  335,833;16538,152;25,02849
 465,77; 4355,780;  351,449;16523,185;24,76129
 466,36; 4373,390;  391,371;16351,535;24,94974
 466,95; 4269,655;  362,217;16045,231;24,91509
 467,53; 4170,679;  367,910;15694,808;24,81108
 468,12; 4148,404;  407,680;15350,675;25,03329
 468,71; 4071,587;  374,910;15071,491;25,15331
 469,29; 3958,084;  352,449;14823,470;24,91624
 469,88; 3897,444;  357,218;14545,154;24,95236
 470,47; 4013,422;  420,296;14656,407;25,23952
 471,06; 3931,510;  383,450;14628,107;24,90801
 471,64; 3949,873;  374,219;14706,154;24,94886
 472,23; 3921,183;  348,989;14716,809;24,86247
 472,81; 3994,724;  344,527;14821,002;25,21468
 473,40; 4022,457;  360,296;14955,052;25,09230
 473,99; 4180,256;  479,835;15247,766;25,05714
 474,57; 4104,907;  366,066;15304,583;25,02820
 475,16; 4143,968;  385,296;15526,392;24,82430
 475,75; 4184,091;  407,527;15668,379;24,74674
 476,33; 4224,793;  389,682;15751,929;24,96452
 476,92; 4210,457;  394,143;15763,606;24,83050
 477,51; 4245,716;  400,912;15871,820;24,85183
 478,09; 4268,852;  396,758;15891,249;24,99014
 478,68; 4208,949;  408,681;15775,835;24,72981
 479,27; 4314,010;  417,681;15881,721;25,19606
 479,85; 4265,492;  397,835;15844,108;25,03942
 480,44; 4269,044;  384,374;15946,053;24,96305
 481,02; 4598,187;  401,297;17286,127;24,85598
 481,61; 5172,735;  427,220;19623,948;24,72044
 482,20; 5508,569;  402,759;21085,914;24,68584
 482,78; 5809,595;  430,835;21954,642;24,98982
 483,37; 5922,604;  426,067;22596,938;24,79171
 483,95; 6046,617;  467,682;22944,483;24,82086
 484,54; 6070,130;  469,528;23172,093;24,66947
 485,13; 6003,021;  424,144;23124,287;24,57639
 485,71; 5966,847;  411,144;22818,856;24,79371
 486,30; 5866,292;  465,683;22565,285;24,43759
 486,88; 5856,534;  504,760;22140,077;24,73629
 487,47; 5647,699;  466,067;21368,715;24,78935
 488,05; 5382,420;  464,914;20435,710;24,62349
 488,64; 5057,383;  454,068;18991,667;24,83232
 489,23; 4549,525;  473,221;17028,381;24,62256
 489,81; 3940,489;  461,068;14526,734;24,73698
 490,40; 3707,690;  440,991;13733,035;24,57635
 490,98; 3636,277;  404,222;13483,353;24,71154
 491,57; 3615,393;  431,221;13319,087;24,70674
 492,15; 3562,465;  399,299;13245,665;24,62305
 492,74; 3549,875;  414,683;13120,992;24,67429
 493,32; 3547,298;  428,222;12954,813;24,89964
 493,91; 3486,216;  403,530;12888,143;24,69189
 494,50; 3457,420;  408,992;12847,480;24,50803
 495,08; 3407,672;  388,915;12763,401;24,39501
 495,67; 3444,688;  412,837;12789,826;24,49587
 496,25; 3392,128;  363,530;12637,756;24,67445
 496,84; 3345,724;  361,760;12601,489;24,37933
 497,42; 3346,597;  371,991;12562,506;24,40098
 498,01; 3372,893;  400,914;12465,940;24,63301
 498,59; 3289,432;  356,145;12409,745;24,33536
 499,18; 3292,485;  343,606;12340,882;24,57957
 499,76; 3288,203;  378,837;12280,311;24,44542
 500,35; 3215,744;  361,146;12071,485;24,37673
 500,93; 3175,586;  352,376;12000,883;24,23667
 501,52; 3184,281;  353,068;11926,651;24,46271
 502,10; 3181,326;  370,453;11898,468;24,38297
 502,69; 3102,439;  353,300;11710,581;24,20596
 503,27; 3033,508;  335,761;11464,256;24,24180
 503,86; 3035,564;  355,377;11364,448;24,34526
 504,44; 2971,693;  325,146;11265,671;24,19032
 505,03; 2898,939;  321,761;11008,413;24,11586
 505,61; 2869,325;  351,300;10841,379;24,00388
 506,19; 2845,343;  353,838;10664,889;24,16344
 506,78; 2747,085;  333,531;10486,963;23,77082
 507,36; 2699,700;  329,761;10248,081;23,89456
 507,95; 2685,338;  341,531;10076,317;24,07661
 508,53; 2619,456;  335,069; 9980,666;23,68321
 509,12; 2605,921;  331,377; 9830,527;23,94471
 509,70; 2545,977;  355,839; 9687,006;23,47121
 510,29; 2534,534;  367,839; 9511,395;23,69641
 510,87; 2450,196;  319,454; 9273,182;23,79726
 511,46; 2385,562;  314,454; 9087,952;23,60641
 512,04; 2363,916;  323,993; 8935,610;23,68803
 512,62; 2329,852;  336,608; 8793,766;23,56873
 513,21; 2273,391;  313,685; 8608,556;23,62551
 513,79; 2227,102;  320,224; 8477,134;23,37745
 514,38; 2201,964;  309,839; 8319,811;23,62211
 514,96; 2181,895;  350,455; 8173,896;23,40965
 515,54; 2113,804;  303,147; 8027,878;23,43974
 516,13; 2106,841;  332,301; 7919,173;23,38961
 516,71; 2054,708;  322,532; 7769,944;23,25876
 517,30; 2012,474;  298,071; 7663,719;23,27566
 517,88; 2004,185;  328,378; 7554,196;23,19194
 518,46; 1944,007;  307,225; 7372,864;23,16538
 519,05; 1944,414;  313,686; 7362,833;23,13369
 519,63; 1914,373;  330,609; 7289,941;22,75740
 520,22; 1907,674;  341,764; 7235,244;22,71582
 520,80; 1869,189;  329,456; 7171,494;22,50402
 521,38; 1920,145;  368,225; 7145,341;22,89941
 521,97; 1846,135;  314,610; 7036,002;22,78583
 522,55; 1830,475;  333,764; 7019,392;22,38699
 523,13; 1836,813;  310,072; 7017,292;22,76265
 523,72; 1784,257;  324,763; 6992,802;21,88790
 524,30; 1846,115;  343,149; 7161,991;22,04137
 524,89; 1805,881;  304,225; 7158,944;21,90689
 525,47; 1841,729;  326,610; 7275,563;21,80356
 526,05; 1829,242;  295,303; 7303,368;21,88820
 526,64; 1884,726;  339,841; 7421,475;21,81537
 527,22; 1901,654;  332,072; 7546,546;21,75602
 527,80; 1951,931;  367,457; 7670,496;21,69609
 528,39; 1907,222;  329,149; 7770,418;21,20704
 528,97; 1942,301;  320,226; 7948,770;21,26323
 529,55; 2000,458;  343,072; 8102,468;21,35974
 530,14; 2034,631;  343,303; 8349,431;21,12542
 530,72; 2037,053;  320,149; 8430,507;21,16928
 531,30; 2039,300;  313,226; 8595,835;20,83974
 531,89; 2091,039;  335,995; 8704,659;20,97162
 532,47; 2123,711;  361,995; 8766,677;20,96112
 533,05; 2111,179;  344,457; 8865,220;20,73431
 533,63; 2118,653;  346,611; 8907,247;20,69989
 534,22; 2122,929;  331,995; 8954,319;20,77089
 534,80; 2147,948;  358,457; 9062,031;20,56041
 535,38; 2263,091;  462,380; 9153,311;20,71942
 535,97; 2132,801;  339,303; 9073,282;20,53471
 536,55; 2218,170;  404,688; 9141,176;20,75757
 537,13; 2180,197;  389,765; 9117,163;20,51508
 537,71; 2206,990;  442,841; 9165,067;20,22590
 538,30; 2239,000;  462,534; 9232,078;20,25722
 538,88; 2283,988;  507,150; 9329,741;20,13964
 539,46; 2370,826;  566,765; 9580,882;20,01373
 540,05; 2360,500;  568,457; 9683,822;19,65958
 540,63; 2439,374;  635,150; 9859,938;19,55844
 541,21; 2480,354;  678,765;10079,126;19,16510
 541,79; 2524,093;  715,458;10197,104;19,07512
 542,38; 2580,139;  737,842;10344,572;19,17715
 542,96; 2591,122;  758,535;10519,960;18,77377
 543,54; 2653,084;  798,765;10726,772;18,67766
 544,12; 2640,867;  755,611;10843,624;18,68807
 544,70; 2661,609;  724,150;11007,017;18,84163
 545,29; 2702,137;  743,919;11143,051;18,83059
 545,87; 2691,401;  728,227;11130,642;18,87229
 546,45; 2639,927;  662,688;11209,510;18,74725
 547,03; 2636,404;  636,381;11320,207;18,72011
 547,62; 2621,794;  623,458;11427,589;18,49604
 548,20; 2682,083;  612,458;11616,914;18,80716
 548,78; 2680,734;  570,612;11702,509;18,95564
 549,36; 2688,315;  527,843;11946,813;18,92003
 549,94; 2680,132;  497,458;12052,705;18,88903
 550,53; 2719,458;  508,535;12297,713;18,75383
 551,11; 2712,711;  456,843;12500,467;18,73081
 551,69; 2791,811;  475,766;12827,954;18,75008
 552,27; 2771,053;  425,843;13101,127;18,50223
 552,85; 2856,113;  448,612;13394,807;18,59620
 553,44; 2891,736;  427,920;13822,091;18,39469
 554,02; 2985,978;  442,997;14171,037;18,52399
 554,60; 2958,596;  393,381;14486,437;18,20198
 555,18; 3096,285;  425,074;14833,252;18,53955
 555,76; 3121,839;  405,227;15243,010;18,30874
 556,34; 3197,813;  409,689;15644,974;18,30044
 556,93; 3228,742;  403,689;16067,825;18,03517
 557,51; 3278,057;  383,535;16371,271;18,10464
 558,09; 3356,698;  398,458;16823,753;18,01027
 558,67; 3423,066;  398,228;17286,405;17,91098
 559,25; 3458,750;  418,612;17511,134;17,78636
 559,83; 3505,668;  395,459;17784,310;17,88622
 560,41; 3564,659;  382,228;18174,419;17,88667
 561,00; 3615,712;  388,459;18549,965;17,76974
 561,58; 3628,125;  386,920;18843,923;17,56084
 562,16; 3661,141;  366,920;19166,616;17,52274
 562,74; 3719,638;  373,689;19516,263;17,47910
 563,32; 3782,685;  366,920;19976,496;17,41886
 563,90; 3877,466;  393,228;20355,223;17,45436
 564,48; 3937,120;  394,535;20778,172;17,37955
 565,06; 4025,504;  391,536;21432,254;17,27112
 565,65; 4159,150;  395,074;22141,774;17,30872
 566,23; 4353,910;  434,689;22974,729;17,38782
 566,81; 4425,920;  376,459;23711,474;17,35359
 567,39; 4586,469;  395,920;24759,639;17,19996
 567,97; 4702,064;  414,305;25391,636;17,16660
 568,55; 4851,642;  438,151;26242,638;17,10358
 569,13; 4947,616;  396,997;26996,642;17,10782
 569,71; 5117,927;  395,612;28048,187;17,07731
 570,29; 5321,668;  443,304;29185,115;16,97305
 570,87; 5436,984;  421,920;29874,540;17,02757
 571,45; 5514,100;  415,228;30608,162;16,88764
 572,03; 5592,765;  384,228;31075,127;16,97095
 572,61; 5636,721;  374,305;31880,467;16,70281
 573,20; 5818,792;  404,074;32506,591;16,86696
 573,78; 5883,315;  400,690;33253,931;16,68823
 574,36; 5936,838;  415,382;33783,096;16,54730
 574,94; 6056,521;  476,767;34244,999;16,52368
 575,52; 6023,231;  404,998;34467,360;16,49396
 576,10; 6145,230;  470,075;35097,174;16,38935
 576,68; 6177,797;  458,382;35679,516;16,23859
 577,26; 6311,676;  484,459;36378,436;16,23452
 577,84; 6409,648;  486,382;36892,663;16,26990
 578,42; 6478,409;  533,305;37334,737;16,15454
 579,00; 6422,330;  480,536;37432,211;16,07991
 579,58; 6442,135;  553,613;37662,247;15,86833
 580,16; 6426,274;  476,459;37643,229;16,00843
 580,74; 6438,176;  493,382;37934,462;15,87773
 581,32; 6405,925;  504,997;37941,953;15,76231
 581,90; 6359,276;  534,074;37886,443;15,59527
 582,48; 6355,828;  493,074;37978,125;15,64024
 583,06; 6294,778;  513,997;38082,748;15,38720
 583,64; 6313,953;  506,690;38192,977;15,40949
 584,22; 6248,678;  520,921;38007,018;15,27968
 584,80; 6188,960;  520,382;37699,803;15,24655
 585,38; 6085,678;  535,689;37182,143;15,14468
 585,96; 6013,042;  507,074;37303,319;14,96340
 586,54; 5993,506;  532,998;37289,585;14,85586
 587,12; 5967,149;  489,151;37378,362;14,84986
 587,70; 5953,098;  525,536;37591,860;14,64284
 588,28; 5917,473;  495,921;37551,010;14,63106
 588,86; 5901,489;  504,767;37577,998;14,55692
 589,44; 5873,472;  485,998;37621,756;14,50751
 590,02; 5899,508;  485,229;37828,018;14,49886
 590,59; 5855,585;  469,767;38066,568;14,32520
 591,17; 5845,763;  471,306;38207,667;14,24212
 591,75; 5839,949;  456,767;38259,068;14,24036
 592,33; 5828,771;  472,075;38548,440;14,06830
 592,91; 5817,597;  430,306;38785,336;14,04585
 593,49; 5838,406;  450,768;39131,722;13,92840
 594,07; 5870,101;  458,845;39328,397;13,92158
 594,65; 5860,069;  467,844;39295,967;13,88742
 595,23; 5860,403;  461,459;39631,748;13,78326
 595,81; 5848,784;  455,690;39849,567;13,69018
 596,39; 5852,886;  436,229;40000,163;13,69090
 596,97; 5854,106;  434,844;40186,852;13,63267
 597,55; 5856,296;  439,536;40022,171;13,68469
 598,12; 5776,172;  401,845;40086,465;13,54259
 598,70; 5773,861;  424,691;40277,126;13,42244
 599,28; 5792,213;  444,075;40389,814;13,38851
 599,86; 5796,788;  403,537;40383,784;13,48979
 600,44; 5769,536;  389,768;40502,725;13,41155
 601,02; 5777,229;  457,153;40608,070;13,25020
 601,60; 5737,024;  418,152;40572,547;13,24605
 602,18; 5717,684;  402,075;40485,408;13,26139
 602,75; 5706,574;  397,075;40660,796;13,18681
 603,33; 5681,936;  416,460;40658,067;13,08466
 603,91; 5646,309;  415,229;40632,465;13,00706
 604,49; 5673,455;  426,075;40747,359;13,01392
 605,07; 5680,735;  434,844;40712,639;13,02428
 605,65; 5648,543;  442,306;40838,536;12,88793
 606,23; 5677,179;  508,536;40918,939;12,79038
 606,80; 5727,544;  561,460;41046,312;12,76054
 607,38; 5688,029;  613,922;41016,796;12,55878
 607,96; 5697,085;  664,921;41122,834;12,43802
 608,54; 5737,436;  717,229;41174,129;12,40878
 609,12; 5685,589;  719,844;41189,923;12,27016
 609,70; 5709,899;  760,537;41228,311;12,23038
 610,27; 5704,815;  774,229;41232,556;12,18683
 610,85; 5677,057;  797,229;41492,430;11,99116
 611,43; 5671,076;  795,768;41461,077;11,98886
 612,01; 5592,590;  757,844;41113,262;11,98041
 612,59; 5564,192;  760,075;41165,492;11,88978
 613,16; 5523,246;  706,690;41118,502;11,91868
 613,74; 5524,827;  702,998;40902,446;11,99476
 614,32; 5495,941;  651,768;40911,449;12,03232
 614,90; 5438,614;  595,921;40757,891;12,05791
 615,48; 5352,234;  535,998;40502,990;12,05053
 616,05; 5297,071;  511,305;40439,642;11,98589
 616,63; 5302,061;  513,998;40223,755;12,05765
 617,21; 5241,262;  502,767;40103,276;11,96574
 617,79; 5187,485;  488,152;39992,592;11,89571
 618,36; 5176,859;  495,152;40032,078;11,84135
 618,94; 5079,719;  426,690;39583,602;11,88303
 619,52; 5018,683;  456,998;39402,028;11,71314
 620,10; 5008,972;  437,998;39260,709;11,77397
 620,67; 5001,183;  449,998;39154,750;11,75873
 621,25; 4987,778;  473,229;39028,959;11,70915
 621,83; 4938,426;  436,459;39019,036;11,66839
 622,41; 4964,430;  486,459;38998,617;11,62742
 622,98; 4853,679;  453,998;38655,738;11,51697
 623,56; 4865,565;  451,459;38689,752;11,54368
 624,14; 4792,080;  436,383;38565,257;11,42362
 624,72; 4729,751;  423,075;38417,376;11,33506
 625,29; 4746,303;  413,228;38549,823;11,36199
 625,87; 4768,284;  452,075;38466,768;11,35405
 626,45; 4679,809;  417,690;38324,418;11,24370
 627,02; 4647,555;  413,921;38215,566;11,19960
 627,60; 4621,000;  397,614;38124,708;11,19457
 628,18; 4594,589;  398,613;38188,077;11,10356
 628,76; 4594,273;  383,921;38171,663;11,14211
 629,33; 4592,753;  422,305;38249,420;11,02502
 629,91; 4585,510;  401,306;38177,171;11,07640
 630,49; 4591,150;  425,075;38312,394;10,99596
 631,06; 4566,267;  399,536;38459,946;10,94768
 631,64; 4561,557;  407,536;38377,420;10,94030
 632,22; 4520,479;  372,459;38333,157;10,92714
 632,79; 4594,601;  403,844;38654,767;10,95596
 633,37; 4532,680;  375,383;38673,637;10,85506
 633,95; 4546,165;  399,382;38688,532;10,83018
 634,52; 4563,368;  362,536;38788,128;10,93238
 635,10; 4536,625;  379,921;38818,740;10,81382
 635,68; 4563,263;  384,382;39091,668;10,79611
 636,25; 4523,584;  348,459;39013,900;10,79808
 636,83; 4492,427;  341,844;39254,663;10,66636
 637,41; 4462,352;  358,074;39293,257;10,54131
 637,98; 4503,096;  395,997;39488,277;10,50616
 638,56; 4496,276;  373,766;39592,038;10,51171
 639,13; 4500,929;  359,767;39617,369;10,54869
 639,71; 4556,496;  429,536;39867,578;10,46441
 640,29; 4436,121;  329,459;39557,844;10,46860
 640,86; 4452,593;  337,459;39866,978;10,41028
 641,44; 4436,449;  341,459;39749,882;10,39115
 642,02; 4446,152;  373,998;39841,248;10,31781
 642,59; 4426,239;  345,844;39929,613;10,30825
 643,17; 4395,788;  343,844;39862,363;10,25328
 643,74; 4420,029;  356,229;40024,498;10,24446
 644,32; 4381,654;  364,305;39884,633;10,16527
 644,89; 4358,741;  380,382;39880,613;10,07174
 645,47; 4355,136;  377,306;39927,671;10,05763
 646,05; 4401,838;  378,690;39771,883;10,21280
 646,62; 4321,079;  358,229;39776,710;10,05328
 647,20; 4340,705;  372,613;40027,844;10,00648
 647,77; 4306,100;  323,690;39774,671;10,09458
 648,35; 4331,956;  338,306;39734,806;10,13707
 648,92; 4257,735;  362,767;39749,556; 9,88902
 649,50; 4246,976;  326,767;39723,537; 9,95059
 650,08; 4228,833;  319,152;39597,133; 9,95387
 650,65; 4248,074;  338,229;39806,883; 9,90620
 651,23; 4306,392;  308,613;40523,556; 9,94103
 651,80; 4417,863;  314,690;41572,076; 9,94531
 652,38; 4457,489;  340,998;42139,134; 9,84850
 652,95; 4510,345;  312,690;42491,191; 9,95212
 653,53; 4529,663;  336,844;42725,403; 9,89139
 654,10; 4585,519;  372,767;42924,076; 9,90041
 654,68; 4519,299;  320,306;42958,749; 9,84790
 655,25; 4514,694;  305,075;42979,038; 9,86461
 655,83; 4504,473;  310,767;43076,096; 9,80632
 656,40; 4550,483;  351,229;43029,615; 9,83930
 656,98; 4497,186;  322,536;42980,134; 9,78641
 657,55; 4454,042;  331,383;42797,653; 9,70808
 658,13; 4396,283;  323,921;42315,634; 9,69801
 658,70; 4395,139;  345,998;42061,846; 9,70648
 659,28; 4254,765;  321,613;41245,134; 9,61098
 659,85; 4202,544;  363,075;40283,654; 9,61777
 660,43; 4165,477;  353,844;40271,481; 9,54874
 661,00; 4166,641;  327,229;40364,000; 9,58972
 661,58; 4161,498;  330,998;40789,904; 9,46763
 662,15; 4176,046;  313,613;40976,577; 9,49865
 662,73; 4306,903;  400,767;41189,404; 9,57653
 663,30; 4253,836;  332,306;41358,231; 9,55866
 663,88; 4270,846;  340,075;41627,827; 9,52043
 664,45; 4262,395;  323,306;41799,654; 9,49719
 665,03; 4328,713;  330,537;42283,712; 9,53009
 665,60; 4460,877;  421,229;42625,539; 9,57165
 666,17; 4386,810;  337,921;42882,597; 9,51679
 666,75; 4389,282;  329,844;43106,808; 9,48977
 667,32; 4465,984;  355,075;43540,174; 9,51928
 667,90; 4453,994;  335,229;43712,232; 9,49527
 668,47; 4499,389;  353,152;44033,059; 9,49232
 669,05; 4508,938;  342,998;44464,809; 9,44190
 669,62; 4511,563;  308,152;44406,866; 9,53182
 670,19; 4534,419;  315,614;44558,386; 9,53558
 670,77; 4534,276;  329,537;44717,136; 9,47278
 671,34; 4516,671;  323,844;44691,271; 9,45024
 671,92; 4530,758;  313,844;45045,174; 9,42720
 672,49; 4560,845;  344,152;45031,386; 9,43601
 673,06; 4526,701;  284,383;45040,982; 9,47864
 673,64; 4569,250;  308,768;45137,117; 9,50399
 674,21; 4517,183;  298,921;45004,175; 9,43572
 674,79; 4585,347;  343,844;45090,848; 9,47885
 675,36; 4605,126;  348,229;45406,675; 9,44750
 675,93; 4561,290;  300,614;45173,579; 9,49497
 676,51; 4579,685;  325,614;45442,175; 9,42907
 677,08; 4600,003;  331,691;45470,233; 9,45603
 677,65; 4613,782;  327,383;45691,906; 9,44879
 678,23; 4631,639;  321,998;45811,964; 9,47383
 678,80; 4628,572;  312,383;45922,252; 9,46328
 679,38; 4647,428;  320,614;46120,387; 9,44724
 679,95; 4705,131;  342,998;46345,906; 9,48230
 680,52; 4722,372;  323,229;46650,426; 9,49581
 681,10; 4744,767;  336,922;47022,099; 9,44164
 681,67; 4816,931;  321,383;47271,387; 9,57518
 682,24; 4820,248;  298,998;47420,291; 9,59492
 682,82; 4833,951;  321,614;48009,426; 9,46224
 683,39; 4928,038;  360,614;48324,714; 9,52259
 683,96; 4922,048;  315,922;48574,618; 9,54466
 684,54; 4958,443;  290,922;48919,907; 9,59823
 685,11; 5069,222;  362,537;49357,657; 9,60644
 685,68; 5055,079;  312,922;49743,099; 9,59365
 686,25; 5042,089;  300,691;49868,234; 9,56553
 686,83; 5102,022;  302,537;50029,984; 9,65158
 687,40; 5142,878;  290,768;50350,273; 9,69269
 687,97; 5220,196;  337,229;50784,100; 9,67942
 688,55; 5201,591;  289,152;50812,696; 9,72307
 689,12; 5228,370;  268,768;51034,754; 9,76954
 689,69; 5224,381;  280,922;51179,888; 9,71230
 690,26; 5285,314;  305,306;51292,023; 9,76726
 690,84; 5288,863;  304,152;51454,850; 9,74515
 691,41; 5337,565;  328,768;51484,292; 9,79131
 691,98; 5390,114;  317,460;51986,889; 9,81751
 692,56; 5348,970;  302,614;51976,946; 9,76569
 693,13; 5412,288;  354,153;51992,235; 9,79536
 693,70; 5393,452;  338,845;52201,446; 9,74615
 694,27; 5418,308;  302,306;52258,120; 9,84683
 694,84; 5430,934;  305,383;52328,793; 9,85239
 695,42; 5498,944;  350,153;52485,927; 9,87574
 695,99; 5528,954;  325,922;52709,447; 9,93257
 696,56; 5494,964;  319,614;52611,351; 9,89707
 697,13; 5555,282;  330,922;53014,255; 9,91653
 697,71; 5577,292;  315,383;52912,543;10,00417
 698,28; 5594,302;  312,306;53340,832; 9,96067
 698,85; 5601,774;  271,383;53352,505;10,04197
 699,42; 5640,092;  289,306;53546,332;10,04710
 699,99; 5689,948;  330,691;53633,159;10,05443
 700,57; 5695,266;  333,076;53746,447;10,03904
 701,14; 5720,353;  300,076;53950,351;10,10298
 701,71; 5783,748;  328,230;54138,717;10,13839
 702,28; 5782,835;  312,383;54159,082;10,15931
 702,85; 5798,768;  320,076;54152,140;10,17738
 703,43; 5836,702;  344,230;54391,505;10,16235
 704,00; 5882,096;  356,999;54785,640;10,15108
 704,57; 5881,030;  317,768;54585,775;10,25146
 705,14; 5919,963;  347,614;54896,217;10,21538
 705,71; 5966,050;  359,460;55010,352;10,25892
 706,28; 5937,522;  321,614;54776,486;10,31296
 706,86; 6003,917;  356,537;55044,160;10,32661
 707,43; 6032,388;  382,537;55050,294;10,33489
 708,00; 6017,629;  368,307;54998,506;10,34102
 708,57; 6011,485;  327,999;54883,333;10,41784
 709,14; 6051,726;  368,153;55061,006;10,39180
 709,71; 6059,967;  341,922;55216,448;10,42022
 710,28; 6105,593;  339,076;55355,198;10,48150
 710,86; 6157,449;  333,537;55542,795;10,54880
 711,43; 6244,690;  367,307;55540,160;10,65267
 712,00; 6186,623;  330,922;55606,603;10,59363
 712,57; 6233,095;  352,153;55794,660;10,60728
 713,14; 6288,105;  328,691;55898,564;10,72418
 713,71; 6327,115;  334,845;55722,776;10,81873
 714,28; 6289,664;  327,307;55845,834;10,73940
 714,85; 6288,444;  307,691;55541,968;10,82797
 715,42; 6346,146;  312,691;55781,718;10,87716
 716,00; 6413,387;  393,307;55979,468;10,83018
 716,57; 6406,243;  303,922;56016,295;10,95326
 717,14; 6398,253;  307,922;55996,738;10,93636
 717,71; 6427,033;  284,538;55959,334;11,03281
 718,28; 6540,274;  347,153;56105,776;11,10702
 718,85; 6500,130;  288,845;56184,988;11,11219
 719,42; 6530,756;  320,384;56333,123;11,08743
 719,99; 6497,074;  288,076;55964,488;11,15194
 720,56; 6551,853;  333,999;56330,546;11,10400
 721,13; 6592,325;  284,922;56486,142;11,22289
 721,70; 6642,181;  299,538;56392,277;11,30742
 722,27; 6672,037;  322,768;56368,412;11,32875
 722,84; 6776,971;  379,307;56552,008;11,38928
 723,41; 6733,135;  280,692;56514,373;11,47434
 723,98; 6791,606;  304,845;56814,431;11,47905
 724,55; 6836,770;  329,153;56876,104;11,50834
 725,12; 6796,550;  266,538;56644,854;11,58249
 725,69; 6874,252;  303,922;56881,066;11,61305
 726,27; 6877,724;  300,307;57136,354;11,57261
 726,84; 6987,888;  305,076;57442,412;11,69605
 727,41; 7003,590;  330,153;57266,470;11,72088
 727,98; 7074,216;  322,999;57616,451;11,78357
 728,55; 7107,457;  343,153;57487,893;11,83714
 729,12; 7099,467;  297,538;57735,335;11,84225
 729,69; 7189,246;  323,307;57807,086;11,94413
 730,26; 7207,180;  317,461;58049,451;11,93397
 730,82; 7245,805;  309,769;57961,201;12,03099
 731,39; 7282,815;  321,307;58115,182;12,04541
 731,96; 7285,672;  297,922;58340,701;12,03896
 732,53; 7394,374;  323,769;58578,221;12,13745
 733,10; 7420,154;  333,384;58591,817;12,16437
 733,67; 7442,702;  334,461;58880,644;12,14125
 734,24; 7420,635;  297,538;58516,778;12,23495
 734,81; 7457,953;  344,076;58560,067;12,21980
 735,38; 7495,887;  323,846;58250,663;12,38121
 735,95; 7496,281;  319,846;58131,798;12,41341
 736,52; 7547,599;  343,076;58342,317;12,42175
 737,09; 7557,456;  338,230;57876,683;12,54678
 737,66; 7617,004;  382,230;58164,587;12,52073
 738,23; 7660,476;  313,769;58244,414;12,68190
 738,80; 7794,563;  406,923;58651,394;12,68385
 739,37; 7764,265;  368,153;58750,068;12,66850
 739,94; 7834,660;  331,538;58793,741;12,83414
 740,51; 7942,055;  468,769;58906,260;12,78851
 741,07; 7865,988;  327,230;58845,318;12,88278
 741,64; 7969,768;  364,692;59040,222;12,96124
 742,21; 7961,316;  337,615;59047,818;12,98531
 742,78; 8008,250;  301,461;58832,106;13,16710
 743,35; 8103,414;  327,538;59096,395;13,23129
 743,92; 8141,501;  357,923;59376,299;13,18840
 744,49; 8178,972;  378,846;59166,818;13,26824
 745,06; 8220,521;  322,077;59086,568;13,44085
 745,63; 8213,223;  308,000;59223,857;13,41782
 746,19; 8266,234;  322,461;59089,145;13,51748
 746,76; 8315,398;  324,153;59240,203;13,56378
 747,33; 8361,023;  325,846;59194,645;13,64930
 747,90; 8450,341;  341,000;59470,857;13,71446
 748,47; 8441,044;  332,230;59330,453;13,74417
 749,04; 8501,592;  333,692;59319,819;13,84715
 749,61; 8559,602;  369,846;59306,184;13,89594
 750,17; 8567,613;  336,769;59323,857;13,95364
 750,74; 8652,623;  337,384;59244,377;14,11588
 751,31; 8629,402;  302,923;59212,819;14,13426
 751,88; 8647,797;  294,307;59139,569;14,19569
 752,45; 8732,499;  313,846;59343,396;14,26176
 753,02; 8802,663;  347,923;59170,762;14,37323
 753,58; 8814,520;  313,615;58968,665;14,49305
 754,15; 8831,530;  310,000;59192,492;14,47209
 754,72; 8877,771;  313,384;58972,473;14,60027
 755,29; 8894,243;  294,923;58806,146;14,69687
 755,86; 8930,022;  312,615;58917,820;14,70417
 756,42; 9079,571;  322,077;58767,493;14,98406
 756,99; 8964,042;  277,307;58638,012;14,88456
 757,56; 8999,283;  283,538;58724,531;14,91375
 758,13; 9045,678;  233,231;58577,743;15,10416
 758,70; 9183,611;  266,923;58638,031;15,27586
 759,26; 9177,006;  253,846;58751,628;15,25384
 759,83; 9270,170;  272,077;58881,378;15,35267
 760,40; 9254,565;  241,692;58659,512;15,42829
 760,97; 9249,113;  233,231;58654,801;15,43246
 761,53; 9323,047;  228,231;58259,551;15,67225
 762,10; 9330,441;  224,154;58296,917;15,68082
 762,67; 9328,913;  262,000;58249,897;15,63587
 763,24; 9271,154;  224,077;57759,955;15,72424
 763,80; 9391,703;  252,846;57950,782;15,83914
 764,37; 9411,098;  259,923;57953,225;15,86176
 764,94; 9340,108;  254,692;57446,513;15,88587
 765,50; 9372,195;  239,231;57460,494;15,96079
 766,07; 9485,743;  287,231;57560,705;16,06069
 766,64; 9439,215;  259,615;57201,302;16,12105
 767,21; 9401,225;  274,923;57079,436;16,06616
 767,77; 9517,005;  295,231;57075,186;16,24125
 768,34; 9552,015;  300,385;57003,013;16,31605
 768,91; 9596,333;  294,308;56727,148;16,48335
 769,47; 9622,112;  301,231;56822,283;16,49099
 770,04; 9635,815;  295,769;56639,264;16,57697
 770,61; 9630,133;  284,615;56498,783;16,62484
 771,18; 9652,758;  284,000;56278,379;16,73160
 771,74; 9812,384;  288,231;56579,437;16,91943
 772,31; 9789,855;  305,385;56189,802;16,97158
 772,88; 9731,327;  272,077;55945,783;16,99052
 773,44; 9759,645;  285,462;55766,226;17,07652
 774,01; 9851,732;  304,692;55961,668;17,15336
 774,58; 9893,281;  287,000;55467,957;17,40869
 775,14; 9932,060;  272,846;55696,091;17,42809
 775,71; 9973,532;  274,539;55600,149;17,53075
 776,27;10095,850;  344,462;55466,053;17,69069
 776,84;10181,321;  388,308;55656,265;17,71915
 777,41;10089,716;  303,616;55321,015;17,78728
 777,97;10081,495;  272,616;55000,149;17,92312
 778,54;10145,890;  301,385;55050,822;17,98102
 779,11;10195,977;  325,616;55068,880;18,03028
 779,67;10262,757;  285,000;55038,553;18,22303
 780,24;10184,152;  295,769;54777,765;18,14982
 780,80;10279,316;  309,462;54927,592;18,25374
 781,37;10350,941;  315,000;54811,111;18,41588
 781,94;10359,490;  308,693;54498,784;18,54730
 782,50;10363,654;  301,308;54345,765;18,61865
 783,07;10483,895;  319,923;54492,054;18,76236
 783,63;10462,674;  289,462;54200,958;18,87021
 784,20;10526,684;  306,693;54244,862;18,94761
 784,77;10505,618;  294,231;54086,612;18,98296
 785,33;10489,012;  263,846;53817,593;19,09328
 785,90;10553,176;  292,693;53804,035;19,17441
 786,46;10591,571;  319,846;53659,862;19,25707
 787,03;10597,581;  278,539;53536,766;19,37549
 787,59;10619,668;  294,693;53378,285;19,45041
 788,16;10672,217;  285,154;53344,420;19,57634
 788,73;10684,920;  297,539;53208,939;19,63165
 789,29;10677,699;  274,462;52859,458;19,78366
 789,86;10732,863;  318,385;52656,439;19,89848
 790,42;10718,258;  284,231;52592,420;19,94721
 790,99;10721,114;  301,923;52334,862;20,02422
 791,55;10728,432;  288,539;52213,074;20,10590
 792,12;10827,827;  318,462;52249,901;20,23700
 792,68;10846,914;  297,693;51828,267;20,47177
 793,25;10870,693;  305,308;51771,094;20,52895
 793,81;10960,549;  390,231;51371,228;20,73384
 794,38;10776,560;  261,924;51072,901;20,69363
 794,94;10820,570;  279,154;50907,728;20,82108
 795,51;10874,965;  288,077;50757,094;20,97700
 796,07;10887,744;  292,077;50415,844;21,13901
 796,64;10946,447;  292,385;50582,902;21,18503
 797,20;10898,764;  310,385;49989,883;21,31338
 797,77;10836,851;  264,001;49579,171;21,43935
 798,33;10789,554;  294,539;49574,921;21,29654
 798,90;10880,333;  309,539;49464,979;21,50483
 799,46;10799,190;  273,693;48984,883;21,60796
 800,03;10837,508;  294,231;48894,710;21,69377
 800,59;10882,825;  288,616;48555,152;21,94939
 801,15;10862,989;  311,539;48497,056;21,89756
 801,72;10795,307;  296,924;48028,345;21,99470
 802,28;10835,548;  312,385;47755,941;22,18038
 802,85;10818,174;  285,847;47556,768;22,28077
 803,41;10791,876;  288,001;47328,056;22,32964
 803,98;10763,194;  279,308;46980,806;22,44871
 804,54;10751,589;  278,308;46717,787;22,55254
 805,11;10710,368;  297,693;46456,614;22,55832
 805,67;10828,148;  311,462;46437,518;22,79988
 806,23;10690,696;  299,385;45931,268;22,77204
 806,80;10766,630;  309,231;45820,249;22,97773
 807,36;10815,717;  313,001;45797,615;23,09070
 807,93;10793,727;  322,847;45528,057;23,16299
 808,49;10769,660;  289,770;45086,653;23,39424
 809,05;10774,286;  270,078;44936,249;23,51714
 809,62;10883,988;  297,616;44852,307;23,76040
 810,18;10909,229;  296,155;44766,211;23,86566
 810,74;10810,085;  258,385;44459,500;23,87202
 811,31;10850,788;  258,924;44243,634;24,08079
 811,87;10911,183;  283,001;44068,846;24,27310
 812,44;10970,731;  314,078;44003,058;24,39209
 813,00;10881,049;  243,309;43807,115;24,41876
 813,56;11024,444;  286,847;43819,712;24,66550
 814,13;11021,300;  275,539;43770,538;24,70574
 814,69;11023,849;  270,616;43553,981;24,84380
 815,25;10929,936;  243,001;43104,731;24,93351
 815,82;11018,023;  287,616;43037,173;25,10063
 816,38;11068,264;  322,847;42924,770;25,22285
 816,94;10964,582;  247,309;42650,750;25,27454
 817,51;10981,438;  250,693;42287,039;25,52730
 818,07;11001,987;  254,232;42149,789;25,65369
 818,63;11009,151;  268,232;41827,770;25,84465
 819,20;11027,315;  272,847;41797,135;25,89922
 819,76;10920,402;  249,616;41386,808;25,93951
 820,32;10980,258;  299,847;41280,405;26,06214
 820,89;10981,576;  287,693;41097,693;26,20407
 821,45;10951,817;  264,232;40781,443;26,37789
 822,01;10934,212;  276,847;40505,347;26,49208
 822,57;10989,145;  282,924;40350,174;26,72063
 823,14;10948,694;  248,847;40103,847;26,84694
 823,70;10941,627;  256,463;39804,367;27,01828
 824,26;10895,791;  254,924;39677,655;26,99170
 824,82;10973,186;  279,001;39539,482;27,23906
 825,39;10929,196;  261,078;39160,155;27,42512
 825,95;10958,898;  271,616;39187,982;27,46218
 826,51;10981,062;  279,232;38892,117;27,71570
 827,08;10977,688;  303,078;38838,252;27,70095
 827,64;10987,237;  289,616;38783,309;27,79058
 828,20;10982,862;  254,616;38231,675;28,24928
 828,76;11023,411;  281,078;38318,271;28,24165
 829,32;11078,190;  306,540;38212,867;28,41650
 829,89;10999,047;  242,232;38075,310;28,43230
 830,45;11041,595;  273,770;37933,521;28,59240
 831,01;11011,759;  281,463;37882,425;28,53729
 831,57;11058,539;  260,078;37700,252;28,84191
 832,14;11103,472;  253,001;37611,002;29,04457
 832,70;11057,790;  249,232;37460,906;29,04615
 833,26;11082,877;  231,693;37300,041;29,27345
 833,82;11132,425;  262,847;37248,099;29,38895
 834,38;11153,051;  253,540;37196,080;29,50396
 834,95;11157,984;  244,078;37014,983;29,68082
 835,51;11153,841;  220,078;36893,349;29,81398
 836,07;11265,697;  259,232;36913,791;30,02755
 836,63;11309,476;  276,540;36964,849;30,07208
 837,19;11313,102;  264,694;36823,138;30,22122
 837,75;11221,343;  225,617;36588,195;30,23913
 838,32;11383,122;  281,694;36579,945;30,58392
 838,88;11487,209;  286,309;36594,234;30,84974
 839,44;11411,143;  263,155;36528,138;30,74036
 840,00;11406,614;  277,001;36482,426;30,74018
 840,56;11386,471;  258,540;36065,407;31,07764
 841,12;11430,173;  247,924;36118,619;31,17377
 841,68;11409,799;  232,078;35960,446;31,28528
 842,25;11497,578;  251,386;35870,504;31,57347
 842,81;11417,204;  239,540;35651,484;31,56467
 843,37;11459,291;  230,386;35667,311;31,68702
 843,93;11537,455;  248,848;35569,446;31,96041
 844,49;11609,773;  273,463;35597,196;32,09261
 845,05;11556,475;  211,540;35434,639;32,20879
 845,61;11727,793;  268,924;35604,389;32,42880
 846,17;11631,572;  241,155;35367,677;32,42683
 846,73;11702,121;  250,386;35265,889;32,70476
 847,29;11684,054;  233,232;35046,254;32,89235
 847,86;11714,603;  237,463;35047,927;32,97037
 848,42;11705,767;  231,771;34748,985;33,24137
 848,98;11763,623;  265,155;34750,812;33,34275
 849,54;11843,018;  240,540;34827,331;33,54598
 850,10;11837,336;  269,232;34579,928;33,71574
 850,66;11832,346;  231,386;34474,139;33,87858
 851,22;11819,664;  223,540;34348,889;33,98097
 851,78;11942,674;  280,540;34463,101;34,11720
 852,34;11927,376;  252,463;34143,928;34,44795
 852,90;11940,002;  242,617;34116,909;34,53175
 853,46;11899,243;  243,925;33769,120;34,76585
 854,02;11925,176;  256,078;33873,101;34,71187
 854,58;11972,109;  248,771;33591,082;35,16055
 855,14;11997,197;  234,771;33489,448;35,37074
 855,70;12039,130;  212,232;33313,275;35,72968
 856,26;12050,063;  250,925;33331,178;35,66822
 856,82;12082,073;  239,540;33079,005;36,06189
 857,38;12119,545;  293,540;33035,063;36,11929
 857,94;12085,555;  244,309;32908,967;36,25094
 858,50;12051,104;  276,232;32697,102;36,31880
 859,06;11957,498;  236,002;32592,313;36,22631
 859,62;12094,201;  270,540;32577,064;36,59837
 860,18;12073,057;  252,079;32320,198;36,86209
 860,74;12029,914;  215,925;32223,794;36,90964
 861,30;12035,770;  223,540;31985,545;37,18981
 861,86;12221,011;  315,156;32028,218;37,54243
 862,42;12055,790;  247,386;31845,583;37,37050
 862,98;12143,493;  280,156;31846,256;37,58252
 863,54;12052,888;  249,079;31524,314;37,74171
 864,10;12150,744;  248,463;31708,833;37,83261
 864,66;12118,216;  229,156;31374,506;38,17282
 865,22;12128,380;  243,463;31222,872;38,36392
 865,78;12139,928;  249,463;31099,622;38,54264
 866,34;12151,708;  228,309;31151,218;38,55846
 866,90;12158,872;  247,309;30873,584;38,89328
 867,45;12169,266;  252,463;30662,488;39,18709
 868,01;12181,354;  247,925;30551,545;39,37955
 868,57;12098,671;  225,310;30301,757;39,47727
 869,13;12069,528;  225,156;30207,046;39,50509
 869,69;12059,153;  237,694;30017,565;39,69614
 870,25;12064,010;  224,848;29960,161;39,81516
 870,81;12106,712;  239,233;29956,757;39,93428
 871,37;12107,415;  247,002;29845,277;40,07130
 871,93;12132,655;  267,694;29726,104;40,27699
 872,49;12131,281;  285,310;29389,854;40,70145
 873,04;12080,137;  231,387;29272,527;40,79988
 873,60;12093,071;  231,387;29057,661;41,14886
 874,16;12090,619;  259,002;29020,258;41,13735
 874,72;12072,388;  226,310;28936,027;41,26157
 875,28;12163,158;  245,156;28957,104;41,50886
 875,84;12193,465;  255,079;28820,796;41,79271
 876,40;12212,081;  239,925;28773,642;41,95793
 876,95;12252,158;  251,694;28707,104;42,17287
 877,51;12332,465;  269,694;28800,181;42,28029
 878,07;12370,619;  289,540;28699,488;42,52411
 878,63;12439,081;  242,771;28721,565;42,82593
 879,19;12493,927;  258,079;28695,719;43,02695
 879,75;12583,542;  237,387;28775,565;43,26189
 880,30;12593,850;  248,925;28722,104;43,35633
 880,86;12830,773;  289,463;28815,642;43,96421
 881,42;12833,235;  223,848;28931,719;43,92310
 881,98;12993,388;  264,310;28987,642;44,31616
 882,54;13119,696;  247,463;29057,719;44,67934
 883,09;13220,312;  248,156;29168,104;44,85539
 883,65;13272,158;  232,463;29314,565;44,83752
 884,21;13444,388;  264,617;29406,796;45,22576
 884,77;13515,850;  222,463;29545,027;45,33501
 885,32;13657,388;  236,463;29663,796;45,60700
 885,88;13758,773;  284,079;29835,027;45,59818
 886,44;13876,312;  247,310;29985,873;45,82939
 887,00;13976,235;  259,002;29880,335;46,30863
 887,56;14023,388;  239,387;30103,950;46,15504
 888,11;14094,850;  244,617;30155,642;46,30477
 888,67;14256,773;  270,156;30233,642;46,67887
 889,23;14345,465;  256,925;30326,950;46,85244
 889,79;14368,696;  221,617;30207,258;47,17951
 890,34;14375,773;  258,310;30105,258;47,29952
 890,90;14598,927;  315,617;30287,412;47,65584
 891,46;14565,927;  230,002;30215,412;47,80967
 892,01;14595,542;  262,079;30159,027;47,94290
 892,57;14633,081;  287,310;30135,642;48,06222
 893,13;14585,927;  241,463;29936,565;48,30582
 893,69;14554,312;  230,694;29820,027;48,40804
 894,24;14530,158;  244,694;29728,488;48,45192
 894,80;14576,773;  248,387;29520,104;48,94959
 895,36;14511,388;  245,310;29464,565;48,82424
 895,91;14451,850;  247,002;29223,873;49,02133
 896,47;14518,235;  262,310;29086,796;49,45769
 897,03;14491,388;  237,617;29003,104;49,55164
 897,58;14454,465;  250,079;28808,642;49,73775
 898,14;14444,388;  253,540;28610,104;50,04432
 898,70;14384,465;  218,463;28388,104;50,28819
 899,25;14529,773;  251,233;28472,719;50,59457
 899,81;14417,081;  255,387;28214,335;50,65174
 900,37;14285,158;  207,079;28039,950;50,58076
 900,92;14377,773;  233,233;28046,873;50,85469
 901,48;14374,235;  224,694;27881,642;51,16089
 902,03;14300,004;  241,848;27736,873;51,12982
 902,59;14258,235;  232,540;27614,104;51,22313
 903,15;14278,081;  255,387;27490,642;51,48729
 903,70;14156,927;  243,694;27184,488;51,64374
 904,26;14213,619;  237,079;27075,796;52,07604
 904,82;14214,619;  235,002;27008,565;52,21426
 905,37;14165,388;  251,694;26900,565;52,21120
 905,93;14122,619;  227,617;26680,412;52,52754
 906,48;14166,619;  253,617;26681,181;52,64580
 907,04;14142,388;  243,925;26703,873;52,52642
 907,60;14088,158;  251,771;26460,104;52,79384
 908,15;14061,081;  220,233;26310,027;53,05081
 908,71;14099,312;  251,694;26259,488;53,24411
 909,26;14015,235;  242,079;26061,796;53,34356
 909,82;14052,312;  253,617;25973,873;53,64913
 910,37;14085,542;  275,310;25934,412;53,82196
 910,93;14006,927;  227,540;25626,258;54,25229
 911,48;13932,850;  245,540;25466,258;54,27010
 912,04;13873,465;  223,463;25345,796;54,33413
 912,60;13942,850;  229,771;25470,181;54,32986
 913,15;13904,773;  235,002;25217,258;54,71792
 913,71;13795,004;  232,925;25056,565;54,63372
 914,26;13842,696;  214,387;24952,335;55,09070
 914,82;13803,235;  238,771;24873,873;55,06153
 915,37;13823,235;  226,771;24823,642;55,27721
 915,93;13791,235;  291,002;24707,642;55,29111
 916,48;13759,542;  218,002;24588,488;55,56533
 917,04;13698,850;  256,771;24472,258;55,51026
 917,59;13736,312;  269,156;24299,950;56,04124
 918,15;13646,388;  205,540;24127,412;56,18644
 918,70;13704,158;  230,233;24085,719;56,48145
 919,26;13681,927;  236,310;23955,027;56,68779
 919,81;13621,696;  213,002;23737,104;56,99981
 920,37;13615,081;  234,387;23711,642;56,99429
 920,92;13624,773;  256,925;23632,104;57,18822
 921,48;13506,158;  215,925;23362,950;57,41659
 922,03;13581,542;  229,925;23411,258;57,59642
 922,59;13513,004;  237,233;23188,181;57,84411
 923,14;13438,312;  241,387;23117,104;57,68967
 923,69;13387,619;  253,079;23007,642;57,72266
 924,25;13465,773;  261,925;23030,950;57,99040
 924,80;13348,696;  223,848;22742,412;58,28457
 925,36;13316,081;  230,156;22713,335;58,20318
 925,91;13329,388;  220,617;22526,796;58,76744
 926,47;13299,850;  211,002;22422,027;58,92951
 927,02;13341,388;  303,694;22439,412;58,89890
 927,57;13206,081;  230,079;22282,181;58,84247
 928,13;13264,235;  219,771;22184,412;59,38847
 928,68;13216,312;  225,617;22158,642;59,22892
 929,24;13114,388;  198,233;21911,873;59,48406
 929,79;13064,465;  222,848;21785,258;59,55558
 930,34;13050,696;  226,694;21600,950;59,99742
 930,90;13009,004;  224,156;21626,719;59,73513
 931,45;13051,927;  226,617;21524,335;60,21917
 932,01;13017,465;  230,002;21376,642;60,47043
 932,56;12921,081;  249,310;21230,873;60,39479
 933,11;12986,542;  251,156;21304,488;60,49107
 933,67;12848,927;  220,079;21047,412;60,63594
 934,22;12879,850;  229,771;20985,796;60,94654
 934,77;12773,312;  249,925;20872,719;60,72594
 935,33;12770,004;  229,387;20730,335;61,17091
 935,88;12738,081;  234,002;20730,565;61,00573
 936,43;12692,158;  218,002;20557,104;61,33091
 936,99;12669,004;  222,387;20398,719;61,68920
 937,54;12589,542;  206,387;20254,950;61,76580
 938,09;12559,465;  234,002;20262,796;61,53872
 938,65;12598,388;  242,617;20134,565;62,11443
 939,20;12543,312;  206,694;20059,181;62,14142
 939,75;12519,773;  208,617;19935,412;62,40829
 940,31;12498,081;  212,694;19782,258;62,77803
 940,86;12515,696;  225,233;19784,488;62,83707
 941,41;12583,696;  332,694;19728,488;63,16319
 941,96;12435,312;  213,463;19530,258;63,27058
 942,52;12345,312;  225,925;19473,104;62,96708
 943,07;12315,850;  209,079;19286,258;63,46206
 943,62;12286,081;  215,233;19190,181;63,61466
 944,18;12276,158;  204,156;19129,104;63,78882
 944,73;12235,004;  251,387;19083,565;63,63373
 945,28;12115,235;  194,463;18868,335;63,83664
 945,83;12183,312;  211,233;18904,181;64,04596
 946,39;12200,773;  225,002;18854,335;64,28449
 946,94;12118,927;  234,387;18772,873;64,10739
 947,49;12070,465;  218,002;18646,950;64,31438
 948,04;12101,465;  271,848;18616,950;64,48379
 948,59;11982,388;  244,771;18571,027;64,04809
 949,15;12063,773;  197,233;18398,104;65,19765
 949,70;11978,388;  227,694;18305,181;65,00181
 950,25;11940,850;  232,387;18258,796;64,95172
 950,80;11804,465;  181,540;18098,181;64,87223
 951,36;11813,465;  189,310;17997,488;65,27425
 951,91;11843,696;  238,694;18064,796;65,10118
 952,46;11744,465;  211,848;17810,642;65,53072
 953,01;11813,619;  231,233;17894,719;65,57248
 953,56;11752,542;  196,463;17687,104;66,07007
 954,11;11760,004;  236,233;17578,642;66,44850
 954,67;11715,158;  214,310;17560,488;66,30191
 955,22;11617,081;  208,156;17351,335;66,55081
 955,77;11648,465;  256,925;17345,027;66,66358
 956,32;11605,004;  287,848;17339,873;66,36840
 956,87;11521,312;  216,233;17181,027;66,63847
 957,42;11514,542;  218,387;17060,796;67,06971
 957,98;11450,542;  216,540;17052,488;66,72628
 958,53;11453,158;  251,848;16944,796;67,10205
 959,08;11410,619;  205,387;16840,104;67,36052
 959,63;11394,235;  213,463;16698,335;67,82444
 960,18;11411,158;  240,310;16663,104;68,02039
 960,73;11364,388;  227,694;16622,796;67,92696
 961,28;11299,465;  200,233;16484,565;68,15897
 961,83;11276,158;  253,463;16457,950;68,02248
 962,39;11204,312;  195,233;16332,873;68,21988
 962,94;11207,773;  228,694;16245,488;68,54729
 963,49;11162,312;  229,233;16088,796;68,93682
 964,04;11152,235;  239,925;16038,181;69,07288
 964,59;11042,158;  188,694;15921,104;68,98793
 965,14;11008,619;  238,617;15892,335;68,80156
 965,69;10925,773;  215,694;15766,796;68,87022
 966,24;10913,542;  210,771;15661,104;69,27211
 966,79;10834,619;  241,617;15580,412;69,06020
 967,34;10756,542;  204,694;15437,796;69,26920
 967,89;10716,927;  223,387;15377,181;69,24695
 968,44;10711,542;  222,848;15322,335;69,46391
 968,99;10790,850;  226,617;15221,719;70,45122
 969,55;10695,927;  223,848;15129,488;70,25581
 970,10;10698,312;  237,694;15034,642;70,69442
 970,65;10613,388;  242,925;14971,642;70,40982
 971,20;10597,773;  209,079;14867,335;70,87265
 971,75;10476,004;  204,694;14685,873;70,92868
 972,30;10474,927;  223,002;14625,104;71,18353
 972,85;10459,004;  211,156;14534,104;71,54846
 973,40;10374,619;  203,310;14416,565;71,56214
 973,95;10385,773;  239,694;14371,335;71,79689
 974,50;10354,081;  258,694;14305,181;71,87126
 975,05;10275,388;  224,848;14154,027;72,15458
 975,60;10261,850;  232,463;14079,796;72,42829
 976,15;10175,312;  206,925;13992,719;72,30912
 976,70;10122,235;  234,079;13964,565;72,01606
 977,25;10102,004;  238,387;13904,796;72,17417
 977,80;10028,312;  224,617;13683,258;72,84312
 978,35; 9911,388;  239,387;13569,873;72,55551
 978,89; 9907,696;  197,540;13494,565;73,02502
 979,44; 9904,927;  216,617;13471,950;73,08990
 979,99; 9778,004;  203,771;13263,642;73,31032
 980,54; 9672,927;  245,002;13232,873;72,59023
 981,09; 9682,004;  253,079;13134,719;73,19662
 981,64; 9588,542;  243,617;12957,104;73,50403
 982,19; 9583,235;  259,540;12995,565;73,20725
 982,74; 9531,927;  240,540;12766,719;74,17575
 983,29; 9416,619;  214,848;12646,027;74,02171
 983,84; 9310,158;  238,310;12546,796;73,70401
 984,39; 9411,388;  320,002;12613,181;73,95472
 984,94; 9256,158;  207,848;12371,258;74,38958
 985,49; 9184,312;  255,771;12332,258;73,93326
 986,03; 9139,312;  253,079;12205,950;74,34392
 986,58; 9015,388;  291,156;12056,642;74,15106
 987,13; 8992,465;  236,848;11931,335;74,86962
 987,68; 8889,619;  244,848;11804,335;74,78508
 988,23; 8883,542;  238,463;11760,335;75,03190
 988,78; 8792,850;  225,771;11591,642;75,37547
 989,33; 8664,927;  258,156;11502,412;74,76503
 989,88; 8662,850;  269,617;11457,796;75,01876
 990,42; 8562,542;  220,771;11289,488;75,36349
 990,97; 8455,850;  225,540;11129,181;75,48222
 991,52; 8452,312;  259,463;11156,258;75,18586
 992,07; 8416,465;  280,463;11006,565;75,85236
 992,62; 8297,696;  234,617;10952,488;75,23023
 993,17; 8182,158;  243,771;10793,412;75,24793
 993,71; 8139,465;  255,310;10649,181;75,85389
 994,26; 8046,465;  225,387;10543,796;75,79733
 994,81; 8095,619;  263,540;10517,873;76,37824
 995,36; 7901,619;  225,463;10316,950;76,06566
 995,91; 7881,542;  238,848;10271,104;76,18121
 996,45; 7791,004;  228,925;10182,488;75,97358
 997,00; 7660,927;  224,617;10036,181;75,79128
 997,55; 7658,927;  251,540; 9979,796;76,14301
 998,10; 7624,081;  263,617; 9872,950;76,59703
 998,65; 7579,696;  239,848; 9776,796;76,96223
 999,19; 7482,465;  257,771; 9693,258;76,56939
 999,74; 7393,542;  268,771; 9553,335;76,73782
1000,29; 7345,081;  239,233; 9525,258;76,52196
1000,84; 7236,850;  238,233; 9348,335;76,82260
1001,38; 7202,850;  246,617; 9214,412;77,56905
1001,93; 7140,696;  244,002; 9188,873;77,10222
1002,48; 7048,773;  229,848; 9065,412;77,17589
1003,03; 7034,465;  259,002; 8988,642;77,61446
1003,57; 6910,696;  244,079; 8888,642;77,11919
1004,12; 6889,312;  299,002; 8834,642;77,20932
1004,67; 6751,696;  235,310; 8676,104;77,20111
1005,22; 6696,619;  229,771; 8522,873;77,97864
1005,76; 6559,773;  223,079; 8398,027;77,51357
1006,31; 6561,850;  262,387; 8335,027;78,03473
1006,86; 6450,388;  233,079; 8203,873;78,00113
1007,40; 6307,388;  224,387; 8113,488;77,10639
1007,95; 6298,927;  244,771; 7994,412;78,12176
1008,50; 6185,696;  248,540; 7885,412;77,74330
1009,04; 6123,619;  243,079; 7761,104;78,21922
1009,59; 5994,927;  246,617; 7645,335;77,69333
1010,14; 5964,619;  222,310; 7512,335;78,76941
1010,68; 5853,081;  243,771; 7444,950;77,89432
1011,23; 5797,696;  239,540; 7324,104;78,45446
1011,78; 5730,081;  252,925; 7200,104;78,84000
1012,32; 5657,235;  281,617; 7150,027;78,26582
1012,87; 5632,388;  269,617; 7052,488;79,06344
1013,42; 5520,850;  224,540; 6985,873;78,33233
1013,96; 5534,081;  276,387; 7006,412;78,12295
1014,51; 5442,081;  206,771; 6821,104;79,15099
1015,06; 5475,004;  208,771; 6839,181;79,42545
1015,60; 5583,388;  273,694; 6944,104;79,60072
1016,15; 5525,619;  217,387; 6865,873;79,84122
1016,69; 5566,773;  233,617; 6917,181;79,79509
1017,24; 5551,158;  217,463; 6887,027;79,97066
1017,79; 5629,696;  266,310; 6977,565;79,91629
1018,33; 5661,388;  230,387; 6973,565;80,54068
1018,88; 5680,850;  256,002; 7040,412;79,96050
1019,42; 5653,927;  235,540; 7027,335;79,77843
1019,97; 5706,312;  228,002; 7042,642;80,39030
1020,51; 5775,004;  264,002; 7104,796;80,56085
1021,06; 5744,081;  213,540; 7013,335;81,33394
1021,61; 5692,465;  195,310; 7018,642;80,56409
1022,15; 5654,773;  188,925; 7005,104;80,18933
1022,70; 5709,773;  230,771; 6977,258;81,21267
1023,24; 5684,619;  216,848; 6956,950;81,12297
1023,79; 5614,542;  224,848; 6841,950;81,45098
1024,33; 5546,927;  223,463; 6815,104;80,76083
1024,88; 5557,158;  253,848; 6720,565;82,00930
1025,42; 5419,081;  237,233; 6653,642;80,75931
1025,97; 5386,081;  225,002; 6550,258;81,59479
1026,51; 5244,465;  201,387; 6445,258;80,76846
1027,06; 5221,235;  214,925; 6373,335;81,29225
1027,60; 5156,235;  248,310; 6281,719;81,34579
1028,15; 5063,081;  238,387; 6152,642;81,57737
1028,69; 4944,696;  187,387; 6030,181;81,42182
1029,24; 4909,004;  213,848; 5970,642;81,55851
1029,78; 4794,696;  211,310; 5860,181;81,13810
1030,33; 4723,081;  204,694; 5736,873;81,67463
1030,87; 4656,158;  217,233; 5712,335;80,77967
1031,42; 4576,542;  206,079; 5575,488;81,39561
1031,96; 4536,312;  236,310; 5524,027;81,32057
1032,51; 4486,927;  216,233; 5425,335;81,98523
1033,05; 4429,235;  224,848; 5379,719;81,56143
1033,60; 4321,850;  192,771; 5262,796;81,44100
1034,14; 4292,850;  219,617; 5207,412;81,66401
1034,69; 4236,773;  224,233; 5146,104;81,52469
1035,23; 4171,696;  219,463; 5064,335;81,57560
1035,77; 4131,619;  223,848; 4983,950;82,09427
1036,32; 4033,465;  189,079; 4903,104;81,55210
1036,86; 4022,696;  227,694; 4854,412;82,02364
1037,41; 3980,696;  234,925; 4783,104;82,35760
1037,95; 3878,850;  202,079; 4684,258;82,03089
1038,50; 3850,850;  218,540; 4675,950;81,48925
1039,04; 3830,619;  240,233; 4619,565;81,98479
1039,58; 3759,542;  201,387; 4517,642;82,43617
1040,13; 3706,004;  217,540; 4454,181;82,34032
1040,67; 3701,158;  241,617; 4438,873;82,42386
1041,21; 3633,850;  248,233; 4341,104;82,71986
1041,76; 3531,004;  213,002; 4282,027;81,54292
1042,30; 3493,158;  212,617; 4238,719;81,48180
1042,85; 3475,619;  215,771; 4141,873;83,03014
1043,39; 3397,542;  196,694; 4062,719;82,79429
1043,93; 3375,081;  238,156; 4062,873;82,01717
1044,48; 3317,850;  226,310; 3987,335;82,19941
1045,02; 3261,927;  217,002; 3953,950;81,48160
1045,56; 3258,158;  255,463; 3939,565;81,50410
1046,11; 3198,696;  239,617; 3856,565;81,81148
1046,65; 3153,542;  235,310; 3768,258;82,60050
1047,19; 3111,081;  212,002; 3726,181;82,49662
1047,74; 3040,927;  194,310; 3648,873;82,40165
1048,28; 3019,927;  225,233; 3585,796;83,16148
1048,82; 2993,465;  254,925; 3615,335;81,49424
1049,37; 2937,388;  243,771; 3534,412;81,85693
1049,91; 2884,465;  227,079; 3486,873;81,52007
1050,45; 2860,158;  232,310; 3441,258;81,89126
1050,99; 2842,235;  224,925; 3392,181;82,63651
1051,54; 2752,081;  209,079; 3325,104;81,61045
1052,08; 2741,773;  245,848; 3293,027;81,90937
1052,62; 2725,312;  237,002; 3273,027;81,95946
1053,16; 2637,388;  210,310; 3173,181;81,91645
1053,71; 2606,388;  240,310; 3164,950;80,90153
1054,25; 2607,235;  232,617; 3096,027;82,92971
1054,79; 2554,388;  233,771; 3062,027;82,05118
1055,33; 2477,465;  201,310; 3002,258;81,26376
1055,88; 2489,773;  234,233; 2977,412;82,22360
1056,42; 2484,696;  236,310; 2939,027;83,18985
1056,96; 2430,542;  240,694; 2917,104;81,82036
1057,50; 2383,696;  244,771; 2851,488;82,05435
1058,05; 2342,542;  226,156; 2811,258;81,86859
1058,59; 2317,312;  250,540; 2786,488;81,49895
1059,13; 2249,235;  206,310; 2734,335;80,81111
1059,67; 2238,081;  241,233; 2698,027;81,27860
1060,21; 2215,773;  227,233; 2656,796;81,84764
1060,76; 2201,312;  243,617; 2615,181;82,54868
1061,30; 2174,927;  260,617; 2603,565;81,70517
1061,84; 2128,388;  235,156; 2537,412;82,23381
1062,38; 2054,081;  210,694; 2454,412;82,15770
1062,92; 2100,081;  275,079; 2525,181;81,10752
1063,46; 2028,696;  239,771; 2429,642;81,69088
1064,01; 1989,158;  230,540; 2389,181;81,46875
1064,55; 1980,158;  237,540; 2352,412;82,39827
1065,09; 1934,542;  208,694; 2310,565;82,11008
1065,63; 1960,004;  262,079; 2338,873;81,75702
1066,17; 1953,004;  279,233; 2297,335;82,93789
1066,71; 1902,850;  250,771; 2276,412;81,55835
1067,25; 1851,542;  233,540; 2190,258;82,68961
1067,80; 1855,465;  244,617; 2191,258;82,75016
1068,34; 1852,773;  264,310; 2199,181;82,09660
1068,88; 1789,235;  216,233; 2112,104;82,96987
1069,42; 1818,542;  269,540; 2133,796;83,08956
1069,96; 1747,696;  238,387; 2086,873;81,65110
1070,50; 1794,465;  281,310; 2090,796;83,62349
1071,04; 1711,388;  223,310; 2012,873;83,15318
1071,58; 1705,542;  232,848; 1994,488;83,59789
1072,12; 1687,081;  240,617; 1989,565;82,70477
1072,66; 1670,081;  232,925; 1979,488;82,28477
1073,21; 1674,081;  257,925; 1962,181;83,09526
1073,75; 1633,081;  242,310; 1920,642;82,86624
1074,29; 1609,696;  238,848; 1893,258;82,86026
1074,83; 1616,081;  264,233; 1894,565;82,91854
1075,37; 1594,465;  260,079; 1867,335;83,02266
1075,91; 1568,004;  249,463; 1835,565;83,13087
1076,45; 1533,773;  262,233; 1804,642;82,43857
1076,99; 1534,619;  253,617; 1787,719;83,50175
1077,53; 1496,850;  227,002; 1742,335;83,79995
1078,07; 1505,312;  246,540; 1739,719;84,30143
1078,61; 1457,696;  248,310; 1702,181;83,18389
1079,15; 1431,696;  233,540; 1692,488;82,12463
1079,69; 1440,004;  241,925; 1681,335;83,23404
1080,23; 1429,619;  266,848; 1681,412;82,20000
1080,77; 1458,312;  297,079; 1717,104;81,77551
1081,31; 1395,388;  239,925; 1636,565;82,73164
1081,85; 1400,004;  259,387; 1622,642;83,66862
1082,39; 1357,542;  234,233; 1573,027;83,90458
1082,93; 1363,465;  264,925; 1595,565;82,55727
1083,47; 1318,927;  226,540; 1525,488;84,09778
1084,01; 1339,696;  239,079; 1553,412;83,73963
1084,55; 1303,312;  234,617; 1512,642;83,62076
1085,09; 1295,927;  253,156; 1508,642;83,05714
1085,63; 1271,388;  248,387; 1479,258;83,11202
1086,17; 1262,081;  235,694; 1460,258;83,81652
1086,71; 1239,850;  225,925; 1436,565;83,75113
1087,24; 1271,696;  255,848; 1447,335;85,25888
1087,78; 1260,004;  265,310; 1439,258;84,73068
1088,32; 1185,388;  222,848; 1381,181;83,09706
1088,86; 1209,696;  261,463; 1399,181;83,34519
1089,40; 1198,850;  240,694; 1374,181;84,53173
1089,94; 1153,388;  218,079; 1325,258;84,47683
1090,48; 1150,004;  254,463; 1340,027;82,49544
1091,02; 1161,465;  256,925; 1335,565;83,85931
1091,56; 1147,927;  242,079; 1302,873;85,39338
1092,10; 1093,619;  221,540; 1267,565;83,37075
1092,63; 1129,081;  262,387; 1282,950;84,92311
1093,17; 1102,927;  264,694; 1276,796;82,82098
1093,71; 1089,773;  229,079; 1222,642;86,62700
1094,25; 1073,850;  274,156; 1260,565;81,07121
1094,79; 1040,388;  234,156; 1223,796;81,46724
1095,33; 1051,388;  251,694; 1210,565;83,39955
1095,87; 1038,004;  246,463; 1197,488;83,23024
1096,40; 1004,465;  226,540; 1154,335;83,84672
1096,94; 1014,235;  245,310; 1165,950;83,52067
1097,48; 1016,004;  256,617; 1172,027;82,95593
1098,02;  980,773;  233,002; 1120,719;84,23528
1098,56;  935,619;  211,156; 1089,796;82,45278
1099,10;  957,542;  224,002; 1093,181;84,39464
1099,63;  933,619;  213,387; 1062,104;84,86132
1100,17;  954,004;  250,540; 1095,258;83,27797
1100,71;  973,696;  271,848; 1098,796;84,87209

