
Integration time [ms]: 150,000
Averaging Nr. [scans]: 13
Smoothing Nr. [pixels]: 0
Data measured with spectrometer [name]: 2009305U1
Wave   ;Sample   ;Dark     ;Reference;Reflectance
[nm]   ;[counts] ;[counts] ;[counts] ;[%]

 175,72;  215,446;  219,771;  228,149;-51,62833
 176,32;  239,027;  243,540;  245,741;-205,10701
 176,92;  287,896;  279,310;  276,351; 0,00000
 177,52;  282,154;  275,694;  275,625; 0,00000
 178,12;  247,411;  247,848;  237,671; 0,00000
 178,72;  271,923;  283,232;  275,907; 0,00000
 179,32;  266,705;  273,156;  272,153; 0,00000
 179,92;  269,793;  272,771;  263,888; 0,00000
 180,52;  251,093;  246,926;  261,484;28,62344
 181,12;  275,380;  277,617;  270,726; 0,00000
 181,73;  297,883;  289,079;  292,196;282,39718
 182,33;  402,774;  381,387;  410,818;72,66764
 182,93;  292,559;  279,771;  292,658;99,23683
 183,53;  249,477;  255,771;  247,236; 0,00000
 184,13;  253,728;  255,463;  243,066; 0,00000
 184,73;  293,744;  297,694;  297,759; 0,00000
 185,33;  281,107;  256,691;  368,500;21,83771
 185,93;  278,385;  255,075;  382,746;18,25807
 186,53;  302,998;  270,306;  409,740;23,44625
 187,13;  310,174;  286,691;  442,672;15,05519
 187,73;  278,636;  258,383;  397,569;14,55143
 188,33;  274,199;  244,459;  389,070;20,56508
 188,93;  298,138;  265,151;  389,820;26,45951
 189,53;  282,523;  255,997;  401,808;18,19186
 190,13;  316,758;  303,534;  425,453;10,84608
 190,73;  256,407;  238,612;  373,568;13,18611
 191,34;  306,273;  272,382;  412,563;24,17700
 191,94;  282,712;  245,536;  389,124;25,89085
 192,54;  290,310;  257,845;  421,882;19,79121
 193,14;  307,650;  280,999;  427,015;18,25247
 193,74;  296,644;  277,460;  416,620;13,78572
 194,34;  300,502;  266,383;  422,879;21,80172
 194,94;  267,902;  229,152;  370,509;27,41267
 195,54;  241,478;  219,768;  356,227;15,90958
 196,14;  270,711;  237,307;  390,260;21,83952
 196,74;  253,164;  231,845;  381,671;14,22973
 197,34;  230,148;  216,922;  370,235; 8,62667
 197,94;  258,720;  245,999;  399,200; 8,30333
 198,54;  279,312;  248,999;  404,056;19,54976
 199,14;  254,580;  232,615;  417,339;11,89071
 199,74;  241,097;  222,076;  395,845;10,94608
 200,34;  239,642;  207,461;  420,541;15,10273
 200,94;  275,750;  248,153;  461,164;12,95580
 201,54;  251,755;  219,768;  445,273;14,18462
 202,14;  297,927;  261,153;  507,467;14,92965
 202,74;  264,636;  229,384;  505,376;12,77279
 203,34;  239,379;  209,000;  512,156;10,02113
 203,94;  223,360;  174,153;  513,305;14,50879
 204,54;  287,341;  270,153;  616,582; 4,96174
 205,14;  246,104;  206,384;  598,674;10,12524
 205,74;  289,191;  252,230;  701,528; 8,22623
 206,34;  250,165;  216,076;  694,450; 7,12594
 206,94;  271,103;  233,538;  772,940; 6,96419
 207,54;  224,857;  201,692;  795,827; 3,89908
 208,14;  263,004;  213,153;  877,320; 7,50570
 208,74;  261,027;  218,845;  976,513; 5,56737
 209,34;  265,314;  217,461; 1044,418; 5,78661
 209,94;  284,265;  220,307; 1137,587; 6,97256
 210,54;  271,541;  229,692; 1220,957; 4,22183
 211,14;  270,845;  224,922; 1339,805; 4,11910
 211,73;  292,518;  232,768; 1439,199; 4,95260
 212,33;  303,694;  239,461; 1581,273; 4,78709
 212,93;  290,762;  226,307; 1645,732; 4,54093
 213,53;  262,853;  189,768; 1712,865; 4,79839
 214,13;  299,552;  218,538; 1813,622; 5,07899
 214,73;  279,619;  197,307; 1816,698; 5,08291
 215,33;  276,803;  186,538; 1864,202; 5,38043
 215,93;  324,589;  218,230; 1998,417; 5,97461
 216,53;  270,636;  188,076; 2057,055; 4,41740
 217,13;  337,737;  225,846; 2256,567; 5,50993
 217,73;  321,855;  210,538; 2464,275; 4,93922
 218,33;  299,300;  155,769; 2660,450; 5,73050
 218,93;  349,008;  201,231; 2977,546; 5,32277
 219,53;  365,356;  200,923; 3232,648; 5,42374
 220,13;  355,382;  170,769; 3524,776; 5,50427
 220,73;  392,223;  183,538; 3882,522; 5,64168
 221,32;  417,874;  205,461; 4307,282; 5,17850
 221,92;  449,816;  201,846; 4696,208; 5,51737
 222,52;  440,855;  186,307; 5149,821; 5,12837
 223,12;  484,330;  202,461; 5611,108; 5,21145
 223,72;  536,078;  205,076; 5985,691; 5,72606
 224,32;  548,197;  205,384; 6429,001; 5,50825
 224,92;  561,476;  190,538; 6682,132; 5,71413
 225,52;  615,697;  200,922; 7052,984; 6,05328
 226,12;  619,436;  195,153; 7404,550; 5,88514
 226,72;  632,458;  165,999; 7775,960; 6,12958
 227,31;  649,738;  163,307; 8103,707; 6,12602
 227,91;  721,250;  197,999; 8551,866; 6,26358
 228,51;  739,645;  185,614; 8888,848; 6,36580
 229,11;  790,920;  198,538; 9299,491; 6,50901
 229,71;  805,601;  184,230; 9632,357; 6,57666
 230,31;  865,657;  180,769;10070,106; 6,92552
 230,91;  879,507;  166,076;10383,471; 6,98251
 231,51;  930,442;  165,923;10680,099; 7,27132
 232,10;  995,328;  181,461;10992,241; 7,52829
 232,70; 1041,579;  196,460;11145,879; 7,71839
 233,30; 1109,576;  215,846;11504,976; 7,91673
 233,90; 1126,471;  186,999;11581,030; 8,24529
 234,50; 1156,659;  192,615;11706,819; 8,37265
 235,10; 1195,938;  183,769;11702,286; 8,78732
 235,70; 1251,334;  204,999;11795,849; 9,02725
 236,29; 1279,748;  204,461;11688,836; 9,36305
 236,89; 1277,101;  172,076;11527,215; 9,73149
 237,49; 1319,269;  209,922;11419,269; 9,89662
 238,09; 1325,242;  185,999;11083,219;10,45443
 238,69; 1387,074;  244,230;10802,227;10,82445
 239,29; 1340,116;  197,384;10437,612;11,15925
 239,89; 1340,590;  191,076;10097,391;11,60385
 240,48; 1319,829;  177,999; 9657,197;12,04564
 241,08; 1320,536;  188,769; 9319,071;12,39573
 241,68; 1322,214;  211,384; 8946,742;12,71647
 242,28; 1291,345;  181,769; 8555,430;13,25079
 242,88; 1315,223;  230,307; 8220,974;13,57729
 243,48; 1316,367;  227,076; 7917,686;14,16390
 244,07; 1295,530;  211,615; 7674,921;14,52326
 244,67; 1308,577;  212,230; 7509,332;15,02441
 245,27; 1302,749;  209,691; 7358,738;15,28956
 245,87; 1315,560;  223,692; 7246,444;15,54758
 246,47; 1298,700;  201,691; 7259,452;15,54329
 247,06; 1318,256;  181,307; 7247,178;16,09072
 247,66; 1354,206;  192,076; 7295,913;16,35919
 248,26; 1416,504;  221,076; 7456,702;16,52141
 248,86; 1438,581;  210,691; 7654,849;16,49467
 249,46; 1457,079;  160,692; 7870,747;16,81424
 250,05; 1558,102;  206,076; 8287,338;16,73038
 250,65; 1600,623;  184,691; 8670,592;16,68570
 251,25; 1690,208;  190,692; 9157,724;16,72255
 251,85; 1767,164;  185,153; 9790,011;16,47094
 252,44; 1856,384;  164,768;10372,568;16,57180
 253,04; 2022,838;  201,768;11244,137;16,49166
 253,64; 2090,330;  150,768;12033,166;16,32298
 254,24; 2277,046;  213,922;13051,063;16,07152
 254,84; 2413,694;  196,692;14087,362;15,96037
 255,43; 2586,356;  186,461;15163,322;16,02402
 256,03; 2724,190;  195,307;16327,684;15,67583
 256,63; 2907,611;  203,922;17503,500;15,62864
 257,23; 3022,660;  178,691;18501,485;15,52148
 257,82; 3193,075;  207,383;19738,752;15,28665
 258,42; 3289,824;  159,460;20771,530;15,18704
 259,02; 3463,461;  210,307;21895,351;15,00183
 259,62; 3492,406;  183,691;22787,658;14,63776
 260,21; 3617,860;  199,845;23471,540;14,68743
 260,81; 3684,248;  187,076;24171,692;14,58089
 261,41; 3678,747;  184,383;24795,244;14,19846
 262,01; 3823,910;  216,537;25352,394;14,35150
 262,60; 3786,275;  177,307;25846,101;14,05975
 263,20; 3812,987;  185,999;26357,336;13,85863
 263,80; 3846,610;  209,152;26539,377;13,81476
 264,40; 3785,651;  176,845;26899,693;13,50457
 264,99; 3807,904;  200,537;27115,397;13,40288
 265,59; 3785,285;  186,306;27318,169;13,26477
 266,19; 3774,973;  184,229;27638,806;13,07885
 266,78; 3800,437;  232,152;27795,449;12,94578
 267,38; 3761,011;  205,998;27786,734;12,88948
 267,98; 3676,856;  185,460;27858,000;12,61683
 268,58; 3676,599;  192,691;27956,250;12,54849
 269,17; 3607,643;  183,614;28097,251;12,26651
 269,77; 3557,367;  204,383;27753,045;12,17113
 270,37; 3493,064;  169,999;27664,072;12,08648
 270,96; 3520,522;  221,076;27556,548;12,07020
 271,56; 3414,814;  189,460;27252,093;11,91811
 272,16; 3365,593;  183,845;27045,467;11,84496
 272,75; 3315,796;  184,845;27076,683;11,64275
 273,35; 3294,089;  194,307;26917,962;11,59939
 273,95; 3236,851;  191,768;26907,420;11,39813
 274,54; 3200,032;  177,999;27015,629;11,26043
 275,14; 3291,725;  222,153;27307,463;11,33298
 275,74; 3233,943;  163,537;27402,309;11,27219
 276,33; 3296,556;  221,999;27818,973;11,14092
 276,93; 3334,067;  200,230;28216,347;11,18583
 277,53; 3352,573;  186,999;28790,573;11,06706
 278,12; 3411,666;  179,384;29422,405;11,05318
 278,72; 3572,238;  256,461;29999,620;11,14803
 279,32; 3600,133;  188,076;30643,053;11,20361
 279,91; 3687,945;  164,768;31454,796;11,25974
 280,51; 3777,055;  195,461;32138,689;11,21238
 281,11; 3900,763;  194,076;32882,543;11,33943
 281,70; 3965,463;  177,691;33380,826;11,40787
 282,30; 4078,199;  181,999;34137,863;11,47431
 282,90; 4180,464;  183,307;34486,022;11,65260
 283,49; 4292,991;  198,153;35030,161;11,75596
 284,09; 4434,862;  222,153;35639,099;11,89461
 284,69; 4576,343;  226,230;36006,782;12,15776
 285,28; 4665,191;  206,076;36449,516;12,30323
 285,88; 4827,628;  253,999;36743,165;12,53421
 286,47; 4887,947;  194,922;36914,823;12,78060
 287,07; 5004,308;  222,153;36890,777;13,04154
 287,67; 5178,367;  210,769;36997,225;13,50388
 288,26; 5315,917;  188,691;36908,480;13,96311
 288,86; 5480,365;  184,153;37041,094;14,36965
 289,46; 5735,441;  202,384;37122,731;14,98647
 290,05; 5895,844;  190,768;37212,064;15,41025
 290,65; 6109,185;  187,384;37404,337;15,91157
 291,24; 6377,350;  198,691;37559,548;16,53779
 291,84; 6672,996;  211,691;37792,731;17,19299
 292,44; 6893,975;  204,076;37806,095;17,79133
 293,03; 7284,797;  272,230;38112,576;18,53199
 293,63; 7456,513;  184,768;38158,999;19,14916
 294,22; 7680,393;  217,153;38465,208;19,51273
 294,82; 7886,364;  199,152;38413,271;20,11616
 295,41; 7995,001;  174,922;38100,288;20,61965
 296,01; 8160,251;  222,999;38054,602;20,98048
 296,61; 8278,434;  224,230;37819,916;21,42321
 297,20; 8259,048;  192,691;37410,939;21,67312
 297,80; 8392,634;  213,615;37207,272;22,10925
 298,39; 8376,625;  177,845;36779,473;22,40004
 298,99; 8471,858;  224,537;36504,955;22,73215
 299,58; 8458,367;  211,384;36385,903;22,79777
 300,18; 8509,816;  223,845;36189,895;23,03831
 300,78; 8446,845;  190,999;35786,113;23,19376
 301,37; 8554,890;  217,845;35795,718;23,43323
 301,97; 8576,644;  215,768;35728,247;23,54349
 302,56; 8522,793;  198,153;35633,201;23,49267
 303,16; 8590,745;  180,922;35521,202;23,79671
 303,75; 8651,446;  195,768;35645,924;23,85230
 304,35; 8750,029;  177,153;35901,168;23,99752
 304,94; 8749,050;  194,384;35809,440;24,01980
 305,54; 8780,797;  215,384;35790,205;24,07718
 306,13; 8720,463;  159,923;35769,307;24,04012
 306,73; 8666,702;  171,769;35488,947;24,05326
 307,33; 8741,919;  207,922;35499,114;24,18166
 307,92; 8735,825;  208,076;35472,060;24,18260
 308,52; 8826,620;  183,768;35997,217;24,13298
 309,11; 9004,517;  193,922;36580,985;24,21354
 309,71; 9100,770;  193,768;36923,367;24,25020
 310,30; 9152,084;  189,999;37166,229;24,23742
 310,90; 9351,161;  235,153;37523,690;24,44721
 311,49; 9345,854;  205,384;37627,068;24,42560
 312,09; 9343,998;  172,999;37837,225;24,34936
 312,68; 9573,314;  256,615;38261,788;24,51429
 313,28; 9500,748;  174,230;38357,983;24,42536
 313,87; 9596,280;  164,691;38582,601;24,54998
 314,47; 9628,600;  190,845;38858,912;24,40710
 315,06; 9678,433;  175,230;38948,769;24,50951
 315,66; 9698,306;  181,845;39296,994;24,32935
 316,25; 9663,822;  161,153;39194,747;24,34485
 316,85; 9654,760;  159,307;39253,935;24,28838
 317,44; 9693,041;  184,306;39342,788;24,28270
 318,04; 9645,108;  173,384;39360,659;24,17041
 318,63; 9649,331;  162,769;39407,073;24,17309
 319,22; 9687,346;  196,076;39719,782;24,01412
 319,82; 9725,338;  183,614;39730,450;24,12765
 320,41; 9651,087;  209,537;39651,459;23,93785
 321,01; 9667,481;  209,461;39752,251;23,91844
 321,60; 9612,974;  196,537;39803,104;23,77494
 322,20; 9591,692;  176,076;39745,945;23,79491
 322,79; 9605,986;  216,999;39971,896;23,61718
 323,39; 9621,883;  177,538;40024,528;23,70153
 323,98; 9546,566;  175,922;39925,667;23,57410
 324,58; 9506,172;  184,768;39865,267;23,49115
 325,17; 9471,318;  189,999;39682,837;23,50127
 325,76; 9378,043;  207,230;39524,457;23,32518
 326,36; 9291,900;  174,768;39152,948;23,39035
 326,95; 9161,946;  216,999;38741,782;23,21868
 327,55; 9049,562;  185,537;38407,921;23,19066
 328,14; 8895,892;  178,922;37999,070;23,04848
 328,74; 8835,122;  200,153;37482,233;23,16118
 329,33; 8718,971;  197,922;37120,343;23,07825
 329,92; 8497,538;  175,845;36541,640;22,88330
 330,52; 8358,724;  202,538;35733,028;22,95546
 331,11; 8228,911;  193,384;35278,308;22,90308
 331,71; 8086,253;  188,307;34626,488;22,93369
 332,30; 7915,665;  207,999;34111,748;22,73396
 332,89; 7840,817;  271,076;33590,336;22,71881
 333,49; 7587,498;  194,999;32891,370;22,60954
 334,08; 7467,317;  190,845;32377,026;22,60744
 334,68; 7302,589;  187,614;32014,251;22,35541
 335,27; 7250,828;  200,307;31590,987;22,46056
 335,86; 7173,065;  250,076;31383,154;22,23676
 336,46; 7070,157;  204,153;31029,334;22,27401
 337,05; 6986,037;  189,461;30668,132;22,29945
 337,65; 6953,065;  164,307;30603,070;22,30300
 338,24; 6995,678;  230,999;30615,595;22,26351
 338,83; 6898,915;  217,384;30467,662;22,08751
 339,43; 6854,535;  186,076;30397,710;22,07249
 340,02; 6889,696;  195,845;30321,455;22,21980
 340,61; 6838,189;  201,307;30458,950;21,93456
 341,21; 6841,661;  212,999;30340,233;22,00222
 341,80; 6864,366;  187,384;30267,619;22,19724
 342,40; 6803,885;  192,769;30458,094;21,84386
 342,99; 6839,971;  190,999;30621,566;21,84965
 343,58; 6886,278;  189,692;30725,189;21,93050
 344,18; 6903,921;  205,999;30926,295;21,80292
 344,77; 6986,193;  189,768;31194,614;21,92052
 345,36; 7034,099;  169,537;31564,012;21,86551
 345,96; 7174,998;  219,768;31833,673;22,00054
 346,55; 7150,596;  170,769;32170,183;21,81236
 347,14; 7241,157;  183,538;32575,474;21,78820
 347,74; 7366,935;  157,846;33028,042;21,93199
 348,33; 7515,719;  180,923;33826,154;21,80040
 348,92; 7676,465;  205,308;34430,178;21,82962
 349,52; 7739,033;  164,615;34951,480;21,77379
 350,11; 7861,165;  185,845;35192,354;21,92541
 350,70; 7847,301;  180,615;35339,648;21,80574
 351,29; 7796,870;  169,383;35006,042;21,89500
 351,89; 7854,888;  202,922;35091,627;21,93250
 352,48; 7808,028;  169,999;35147,268;21,83712
 353,07; 7865,912;  206,461;35033,208;21,99301
 353,67; 7843,737;  204,923;34949,565;21,98559
 354,26; 7766,479;  201,307;34808,524;21,86010
 354,85; 7713,956;  203,153;34516,545;21,88884
 355,45; 7672,079;  167,230;34307,183;21,98260
 356,04; 7692,171;  182,846;34215,160;22,06528
 356,63; 7657,428;  234,691;34031,513;21,96282
 357,22; 7594,407;  193,614;33824,077;22,00622
 357,82; 7555,357;  197,152;33639,051;22,00295
 358,41; 7599,315;  221,461;33568,368;22,12455
 359,00; 7496,087;  178,153;33297,760;22,09548
 359,60; 7515,895;  197,384;33273,930;22,12598
 360,19; 7497,254;  215,461;33107,234;22,13865
 360,78; 7452,114;  189,537;32871,971;22,22165
 361,37; 7422,093;  193,461;32696,708;22,23972
 361,97; 7446,225;  210,307;32520,543;22,39513
 362,56; 7368,788;  191,307;32201,491;22,42249
 363,15; 7371,296;  258,537;31875,986;22,49631
 363,74; 7281,516;  189,537;31578,698;22,59372
 364,34; 7168,633;  225,153;31136,896;22,46227
 364,93; 7118,886;  197,768;30611,516;22,75654
 365,52; 7036,911;  167,768;30252,923;22,83233
 366,11; 6991,563;  203,307;29846,040;22,90024
 366,71; 6901,962;  188,230;29394,166;22,98756
 367,30; 6837,072;  195,384;29033,298;23,03110
 367,89; 6874,963;  238,307;28743,451;23,28231
 368,48; 6761,243;  207,306;28354,018;23,28491
 369,07; 6660,993;  195,153;27881,417;23,35396
 369,67; 6621,110;  216,383;27573,988;23,41114
 370,26; 6538,182;  180,922;27244,891;23,48975
 370,85; 6520,589;  192,999;26939,335;23,65778
 371,44; 6482,756;  206,384;26642,014;23,74210
 372,03; 6421,801;  176,460;26437,561;23,78172
 372,63; 6322,015;  172,153;26061,876;23,75407
 373,22; 6292,224;  188,230;25676,794;23,94797
 373,81; 6235,652;  170,845;25388,132;24,05020
 374,40; 6234,906;  181,230;25135,197;24,25937
 374,99; 6129,611;  192,922;24805,815;24,12024
 375,59; 6104,263;  171,538;24398,937;24,48767
 376,18; 6163,429;  216,999;24328,954;24,66175
 376,77; 6083,847;  215,307;24058,225;24,61335
 377,36; 6133,624;  227,768;24006,263;24,83696
 377,95; 6074,919;  214,076;23762,102;24,88890
 378,55; 6062,250;  186,922;23508,635;25,19252
 379,14; 6080,610;  209,153;23452,060;25,26129
 379,73; 6042,339;  208,537;23303,883;25,25964
 380,32; 6110,931;  196,461;23346,208;25,54875
 380,91; 6060,012;  180,460;23182,102;25,56144
 381,50; 6088,920;  203,307;23152,689;25,64607
 382,10; 6055,239;  189,691;23019,746;25,69222
 382,69; 6116,645;  158,461;23001,834;26,08277
 383,28; 6138,095;  220,307;22925,274;26,06385
 383,87; 6153,990;  188,230;22754,175;26,43701
 384,46; 6162,483;  174,845;22715,959;26,56319
 385,05; 6240,753;  222,230;22649,024;26,83631
 385,64; 6220,717;  194,922;22646,501;26,83907
 386,24; 6250,986;  173,614;22580,639;27,12262
 386,83; 6359,106;  210,922;22672,004;27,37261
 387,42; 6405,905;  206,999;22777,744;27,46434
 388,01; 6471,745;  207,691;22951,505;27,54179
 388,60; 6623,363;  197,537;23243,362;27,88282
 389,19; 6697,175;  189,998;23547,786;27,85871
 389,78; 6855,832;  192,460;23744,571;28,29204
 390,37; 7080,261;  262,614;24276,668;28,39024
 390,96; 7136,966;  206,845;24474,830;28,55664
 391,56; 7237,233;  207,690;24645,718;28,76477
 392,15; 7379,069;  194,691;24963,960;29,00521
 392,74; 7354,028;  163,305;25106,085;28,82887
 393,33; 7549,632;  197,767;25491,061;29,06646
 393,92; 7715,282;  212,613;25900,901;29,20658
 394,51; 7892,457;  183,460;26149,483;29,68879
 395,10; 8022,674;  232,382;26382,711;29,79042
 395,69; 8093,701;  219,459;26497,146;29,96551
 396,28; 8157,111;  217,689;26669,156;30,01505
 396,87; 8240,173;  220,150;26833,025;30,13588
 397,46; 8424,982;  218,150;26835,225;30,83296
 398,06; 8548,456;  237,996;27104,067;30,93292
 398,65; 8616,245;  214,456;27131,950;31,21312
 399,24; 8797,633;  234,071;27367,810;31,56057
 399,83; 8803,680;  214,762;27381,325;31,61577
 400,42; 8926,803;  264,761;27607,435;31,67957
 401,01; 9009,327;  246,452;27702,448;31,91607
 401,60; 9120,732;  247,450;27765,454;32,24537
 402,19; 9108,956;  273,987;27599,183;32,33268
 402,78; 9237,116;  272,523;27634,687;32,76273
 403,37; 9210,700;  255,290;27482,766;32,89108
 403,96; 9206,115;  262,134;27346,365;33,02284
 404,55; 9212,472;  280,362;27213,131;33,16447
 405,14; 9188,418;  248,128;27050,732;33,35605
 405,73; 9222,260;  266,356;26942,545;33,57265
 406,32; 9272,912;  287,200;26916,383;33,74385
 406,91; 9186,303;  258,428;26636,865;33,84535
 407,50; 9156,090;  276,812;26380,646;34,01523
 408,09; 9081,047;  247,888;26025,131;34,26728
 408,68; 9117,951;  270,579;25939,191;34,46767
 409,27; 9050,946;  262,119;25718,546;34,52498
 409,86; 9051,101;  263,197;25627,174;34,64719
 410,45; 9100,631;  302,584;25499,185;34,91760
 411,04; 9155,007;  302,354;25373,826;35,30966
 411,63; 9059,753;  288,818;25135,891;35,29967
 412,22; 9000,767;  291,820;24946,198;35,32414
 412,81; 8914,394;  299,282;24612,092;35,43446
 413,40; 8812,522;  317,283;24232,821;35,52184
 413,99; 8758,861;  359,360;23878,514;35,71345
 414,58; 8556,628;  282,898;23329,423;35,90012
 415,17; 8571,835;  291,436;23186,829;36,16622
 415,76; 8466,055;  283,051;22974,676;36,06178
 416,35; 8382,224;  277,128;22780,157;36,01780
 416,94; 8502,521;  303,128;22785,030;36,47108
 417,53; 8583,064;  278,359;23066,312;36,44340
 418,12; 8671,293;  282,436;23078,298;36,79991
 418,71; 8816,332;  308,898;23475,054;36,72355
 419,30; 8867,376;  282,129;23620,155;36,78652
 419,89; 8957,744;  273,590;23800,085;36,91223
 420,48; 9107,710;  318,206;24095,378;36,96614
 421,07; 9121,344;  300,899;24293,006;36,76395
 421,66; 9200,849;  259,284;24241,823;37,28365
 422,25; 9172,118;  284,746;24288,691;37,02463
 422,84; 9198,067;  309,361;24273,693;37,09140
 423,43; 9129,764;  287,900;23908,650;37,43261
 424,02; 9019,013;  314,592;23670,893;37,26798
 424,60; 8854,476;  269,516;23210,042;37,42268
 425,19; 8761,902;  306,208;22876,340;37,46409
 425,78; 8754,832;  304,516;22764,882;37,62323
 426,37; 8660,442;  307,285;22590,848;37,48573
 426,96; 8636,575;  297,285;22472,585;37,60621
 427,55; 8558,882;  280,286;22280,373;37,62984
 428,14; 8475,222;  279,594;22069,924;37,61131
 428,73; 8415,522;  281,132;21847,258;37,71836
 429,32; 8440,730;  306,593;21796,025;37,85180
 429,91; 8429,794;  313,132;21797,183;37,77994
 430,50; 8404,441;  304,132;21558,979;38,11041
 431,08; 8350,828;  311,363;21445,445;38,04029
 431,67; 8361,860;  364,132;21350,696;38,10880
 432,26; 8307,458;  383,825;21199,730;38,06528
 432,85; 8230,102;  397,210;20759,725;38,46722
 433,44; 8074,111;  420,902;20388,439;38,32826
 434,03; 7926,636;  425,595;20017,318;38,28679
 434,62; 7771,013;  383,133;19500,106;38,64566
 435,21; 7709,053;  403,363;19234,453;38,79589
 435,79; 7631,163;  391,749;19066,589;38,76560
 436,38; 7570,975;  387,288;18952,505;38,69433
 436,97; 7539,799;  382,518;18879,955;38,69336
 437,56; 7468,069;  377,750;18603,802;38,90211
 438,15; 7457,953;  364,365;18487,436;39,14120
 438,74; 7459,896;  385,981;18530,497;38,98652
 439,33; 7429,463;  341,673;18509,407;39,01307
 439,91; 7467,934;  305,442;18649,569;39,04515
 440,50; 7509,878;  345,212;18701,692;39,03072
 441,09; 7566,670;  354,520;18795,163;39,11008
 441,68; 7554,741;  334,212;18696,465;39,32267
 442,27; 7557,464;  331,597;18725,116;39,28485
 442,86; 7534,514;  304,059;18709,845;39,28360
 443,44; 7589,503;  325,521;18797,655;39,32400
 444,03; 7659,346;  403,905;18893,725;39,24019
 444,62; 7572,486;  327,982;18702,291;39,42735
 445,21; 7513,187;  326,059;18535,085;39,47014
 445,80; 7503,893;  358,060;18427,062;39,54747
 446,39; 7407,237;  400,059;18168,193;39,43677
 446,97; 7296,971;  327,368;17983,599;39,47390
 447,56; 7198,231;  319,368;17715,751;39,54191
 448,15; 7138,132;  330,522;17478,966;39,69812
 448,74; 6990,767;  339,906;17225,173;39,38854
 449,33; 6960,644;  329,599;17093,669;39,55511
 449,91; 6848,141;  335,368;16778,294;39,60836
 450,50; 6765,926;  328,522;16543,308;39,70082
 451,09; 6745,988;  338,676;16409,895;39,86824
 451,68; 6734,279;  361,061;16271,224;40,05753
 452,26; 6655,605;  357,369;16176,718;39,81349
 452,85; 6592,844;  335,907;16118,659;39,64414
 453,44; 6603,940;  344,369;16050,676;39,85387
 454,03; 6558,896;  320,292;16117,487;39,49185
 454,61; 6581,289;  333,908;15999,608;39,87936
 455,20; 6683,643;  346,293;16255,124;39,83542
 455,79; 6644,375;  356,831;16239,150;39,58833
 456,38; 6716,030;  364,139;16282,465;39,90301
 456,97; 6696,975;  342,678;16385,616;39,60807
 457,55; 6692,391;  339,985;16382,719;39,59678
 458,14; 6767,242;  365,677;16357,900;40,02924
 458,73; 6665,125;  360,370;16309,190;39,53117
 459,31; 6732,371;  378,601;16377,517;39,71375
 459,90; 6774,647;  403,678;16379,665;39,87840
 460,49; 6824,096;  457,832;16555,727;39,54718
 461,08; 6814,249;  356,063;16622,285;39,70305
 461,66; 6815,539;  356,294;16673,790;39,58478
 462,25; 6894,219;  359,679;16769,095;39,82189
 462,84; 6902,137;  380,294;16852,140;39,59388
 463,43; 6825,402;  327,602;16714,947;39,65133
 464,01; 6872,084;  356,371;16813,258;39,59262
 464,60; 6868,949;  406,679;16730,265;39,58855
 465,19; 6737,887;  335,833;16538,152;39,51320
 465,77; 6723,828;  351,449;16523,185;39,40442
 466,36; 6696,185;  391,371;16351,535;39,50344
 466,95; 6534,268;  362,217;16045,231;39,35500
 467,53; 6404,748;  367,910;15694,808;39,38721
 468,12; 6336,363;  407,680;15350,675;39,67533
 468,71; 6228,495;  374,910;15071,491;39,82957
 469,29; 6090,704;  352,449;14823,470;39,65342
 469,88; 5980,352;  357,218;14545,154;39,63321
 470,47; 6087,823;  420,296;14656,407;39,81092
 471,06; 6007,900;  383,450;14628,107;39,48463
 471,64; 6089,474;  374,219;14706,154;39,87777
 472,23; 6073,380;  348,989;14716,809;39,84176
 472,81; 6073,036;  344,527;14821,002;39,57116
 473,40; 6159,569;  360,296;14955,052;39,73532
 473,99; 6335,289;  479,835;15247,766;39,64979
 474,57; 6313,185;  366,066;15304,583;39,81064
 475,16; 6363,083;  385,296;15526,392;39,48055
 475,75; 6409,601;  407,527;15668,379;39,32987
 476,33; 6465,219;  389,682;15751,929;39,54849
 476,92; 6473,841;  394,143;15763,606;39,55700
 477,51; 6458,291;  400,912;15871,820;39,15335
 478,09; 6492,423;  396,758;15891,249;39,34085
 478,68; 6426,841;  408,681;15775,835;39,16249
 479,27; 6511,356;  417,681;15881,721;39,40545
 479,85; 6475,471;  397,835;15844,108;39,34694
 480,44; 6463,329;  384,374;15946,053;39,06362
 481,02; 6970,564;  401,297;17286,127;38,90632
 481,61; 7802,173;  427,220;19623,948;38,41776
 482,20; 8306,403;  402,759;21085,914;38,21295
 482,78; 8671,449;  430,835;21954,642;38,28604
 483,37; 8890,453;  426,067;22596,938;38,17796
 483,95; 8996,732;  467,682;22944,483;37,94601
 484,54; 9087,978;  469,528;23172,093;37,96245
 485,13; 9040,112;  424,144;23124,287;37,95557
 485,71; 8902,540;  411,144;22818,856;37,89497
 486,30; 8811,058;  465,683;22565,285;37,76256
 486,88; 8758,945;  504,760;22140,077;38,15144
 487,47; 8392,601;  466,067;21368,715;37,92119
 488,05; 7982,627;  464,914;20435,710;37,64353
 488,64; 7480,196;  454,068;18991,667;37,90204
 489,23; 6795,073;  473,221;17028,381;38,18660
 489,81; 5872,450;  461,068;14526,734;38,47228
 490,40; 5516,924;  440,991;13733,035;38,18775
 490,98; 5405,055;  404,222;13483,353;38,23521
 491,57; 5370,457;  431,221;13319,087;38,32470
 492,15; 5347,292;  399,299;13245,665;38,51668
 492,74; 5275,605;  414,683;13120,992;38,25597
 493,32; 5269,783;  428,222;12954,813;38,65027
 493,91; 5163,039;  403,530;12888,143;38,12300
 494,50; 5154,955;  408,992;12847,480;38,15546
 495,08; 5074,682;  388,915;12763,401;37,86636
 495,67; 5070,228;  412,837;12789,826;37,62943
 496,25; 5005,042;  363,530;12637,756;37,81511
 496,84; 4956,970;  361,760;12601,489;37,54339
 497,42; 4955,146;  371,991;12562,506;37,59607
 498,01; 4941,948;  400,914;12465,940;37,63799
 498,59; 4852,956;  356,145;12409,745;37,30679
 499,18; 4832,521;  343,606;12340,882;37,41611
 499,76; 4789,266;  378,837;12280,311;37,05783
 500,35; 4689,666;  361,146;12071,485;36,96324
 500,93; 4670,300;  352,376;12000,883;37,06847
 501,52; 4621,886;  353,068;11926,651;36,88415
 502,10; 4611,670;  370,453;11898,468;36,79052
 502,69; 4522,528;  353,300;11710,581;36,70974
 503,27; 4406,416;  335,761;11464,256;36,57866
 503,86; 4384,466;  355,377;11364,448;36,59790
 504,44; 4320,960;  325,146;11265,671;36,52306
 505,03; 4200,666;  321,761;11008,413;36,29673
 505,61; 4159,248;  351,300;10841,379;36,30047
 506,19; 4075,694;  353,838;10664,889;36,09580
 506,78; 3984,067;  333,531;10486,963;35,95371
 507,36; 3917,520;  329,761;10248,081;36,17305
 507,95; 3857,225;  341,531;10076,317;36,11475
 508,53; 3779,368;  335,069; 9980,666;35,70850
 509,12; 3746,149;  331,377; 9830,527;35,94818
 509,70; 3669,462;  355,839; 9687,006;35,51135
 510,29; 3650,761;  367,839; 9511,395;35,90421
 510,87; 3515,878;  319,454; 9273,182;35,69937
 511,46; 3467,891;  314,454; 9087,952;35,94275
 512,04; 3427,518;  323,993; 8935,610;36,03881
 512,62; 3357,331;  336,608; 8793,766;35,71795
 513,21; 3265,837;  313,685; 8608,556;35,59009
 513,79; 3209,221;  320,224; 8477,134;35,41778
 514,38; 3151,196;  309,839; 8319,811;35,47274
 514,96; 3105,532;  350,455; 8173,896;35,21567
 515,54; 3009,369;  303,147; 8027,878;35,03322
 516,13; 3002,306;  332,301; 7919,173;35,19243
 516,71; 2916,498;  322,532; 7769,944;34,83043
 517,30; 2891,530;  298,071; 7663,719;35,21020
 517,88; 2820,097;  328,378; 7554,196;34,48355
 518,46; 2792,088;  307,225; 7372,864;35,16828
 519,05; 2759,170;  313,686; 7362,833;34,69191
 519,63; 2718,639;  330,609; 7289,941;34,31407
 520,22; 2706,662;  341,764; 7235,244;34,30631
 520,80; 2632,235;  329,456; 7171,494;33,65634
 521,38; 2696,267;  368,225; 7145,341;34,35152
 521,97; 2591,932;  314,610; 7036,002;33,88171
 522,55; 2598,275;  333,764; 7019,392;33,87133
 523,13; 2571,462;  310,072; 7017,292;33,71576
 523,72; 2558,347;  324,763; 6992,802;33,49687
 524,30; 2629,677;  343,149; 7161,991;33,53249
 524,89; 2572,582;  304,225; 7158,944;33,09190
 525,47; 2616,788;  326,610; 7275,563;32,95716
 526,05; 2595,199;  295,303; 7303,368;32,81786
 526,64; 2632,471;  339,841; 7421,475;32,37430
 527,22; 2675,179;  332,072; 7546,546;32,47787
 527,80; 2725,842;  367,457; 7670,496;32,29320
 528,39; 2692,287;  329,149; 7770,418;31,75719
 528,97; 2735,253;  320,226; 7948,770;31,65778
 529,55; 2800,798;  343,072; 8102,468;31,67419
 530,14; 2859,873;  343,303; 8349,431;31,43305
 530,72; 2857,155;  320,149; 8430,507;31,28107
 531,30; 2844,139;  313,226; 8595,835;30,55695
 531,89; 2896,342;  335,995; 8704,659;30,59445
 532,47; 2954,655;  361,995; 8766,677;30,84780
 533,05; 2943,940;  344,457; 8865,220;30,50763
 533,63; 2944,493;  346,611; 8907,247;30,34684
 534,22; 2918,689;  331,995; 8954,319;29,99996
 534,80; 2982,874;  358,457; 9062,031;30,15333
 535,38; 3096,292;  462,380; 9153,311;30,30644
 535,97; 2951,969;  339,303; 9073,282;29,91382
 536,55; 3053,000;  404,688; 9141,176;30,31323
 537,13; 3025,433;  389,765; 9117,163;30,19993
 537,71; 3041,552;  442,841; 9165,067;29,79412
 538,30; 3065,555;  462,534; 9232,078;29,68251
 538,88; 3126,941;  507,150; 9329,741;29,69413
 539,46; 3217,833;  566,765; 9580,882;29,41018
 540,05; 3249,040;  568,457; 9683,822;29,40731
 540,63; 3335,600;  635,150; 9859,938;29,27384
 541,21; 3405,877;  678,765;10079,126;29,01072
 541,79; 3424,695;  715,458;10197,104;28,57350
 542,38; 3509,083;  737,842;10344,572;28,84687
 542,96; 3510,609;  758,535;10519,960;28,19336
 543,54; 3610,087;  798,765;10726,772;28,31709
 544,12; 3595,520;  755,611;10843,624;28,15132
 544,70; 3636,161;  724,150;11007,017;28,31905
 545,29; 3667,537;  743,919;11143,051;28,11406
 545,87; 3667,157;  728,227;11130,642;28,25238
 546,45; 3619,880;  662,688;11209,510;28,03870
 547,03; 3624,361;  636,381;11320,207;27,96732
 547,62; 3610,303;  623,458;11427,589;27,64540
 548,20; 3640,511;  612,458;11616,914;27,51661
 548,78; 3614,952;  570,612;11702,509;27,34790
 549,36; 3663,407;  527,843;11946,813;27,45926
 549,94; 3658,988;  497,458;12052,705;27,36013
 550,53; 3682,289;  508,535;12297,713;26,92091
 551,11; 3723,566;  456,843;12500,467;27,12408
 551,69; 3795,834;  475,766;12827,954;26,87838
 552,27; 3810,256;  425,843;13101,127;26,70089
 552,85; 3915,356;  448,612;13394,807;26,77809
 553,44; 3944,302;  427,920;13822,091;26,25308
 554,02; 4044,882;  442,997;14171,037;26,23743
 554,60; 4055,971;  393,381;14486,437;25,98861
 555,18; 4203,225;  425,074;14833,252;26,22227
 555,76; 4263,203;  405,227;15243,010;26,00103
 556,34; 4349,618;  409,689;15644,974;25,86056
 556,93; 4411,288;  403,689;16067,825;25,58455
 557,51; 4481,164;  383,535;16371,271;25,62982
 558,09; 4614,169;  398,458;16823,753;25,66597
 558,67; 4650,854;  398,228;17286,405;25,18108
 559,25; 4738,974;  418,612;17511,134;25,27633
 559,83; 4784,614;  395,459;17784,310;25,24120
 560,41; 4866,270;  382,228;18174,419;25,20230
 561,00; 4945,113;  388,459;18549,965;25,08962
 561,58; 4974,438;  386,920;18843,923;24,85516
 562,16; 5033,454;  366,920;19166,616;24,82239
 562,74; 5075,154;  373,689;19516,263;24,56026
 563,32; 5156,328;  366,920;19976,496;24,42382
 563,90; 5291,714;  393,228;20355,223;24,53906
 564,48; 5396,382;  394,535;20778,172;24,53854
 565,06; 5480,847;  391,536;21432,254;24,18792
 565,65; 5689,114;  395,074;22141,774;24,34411
 566,23; 5921,462;  434,689;22974,729;24,34234
 566,81; 6030,072;  376,459;23711,474;24,22803
 567,39; 6245,537;  395,920;24759,639;24,00954
 567,97; 6415,344;  414,305;25391,636;24,02594
 568,55; 6652,293;  438,151;26242,638;24,08163
 569,13; 6808,700;  396,997;26996,642;24,10447
 569,71; 6978,167;  395,612;28048,187;23,80449
 570,29; 7290,141;  443,304;29185,115;23,82187
 570,87; 7463,713;  421,920;29874,540;23,90889
 571,45; 7582,204;  415,228;30608,162;23,73726
 572,03; 7656,494;  384,228;31075,127;23,69519
 572,61; 7832,300;  374,305;31880,467;23,67154
 573,20; 8020,198;  404,074;32506,591;23,72438
 573,78; 8159,495;  400,690;33253,931;23,61656
 574,36; 8227,440;  415,382;33783,096;23,41203
 574,94; 8348,143;  476,767;34244,999;23,31001
 575,52; 8322,363;  404,998;34467,360;23,24373
 576,10; 8497,973;  470,075;35097,174;23,18386
 576,68; 8617,298;  458,382;35679,516;23,16483
 577,26; 8775,654;  484,459;36378,436;23,09913
 577,84; 8915,007;  486,382;36892,663;23,15157
 578,42; 8958,058;  533,305;37334,737;22,89246
 579,00; 8866,663;  480,536;37432,211;22,69485
 579,58; 8987,136;  553,613;37662,247;22,72658
 580,16; 8899,435;  476,459;37643,229;22,66265
 580,74; 8925,554;  493,382;37934,462;22,52118
 581,32; 8910,290;  504,997;37941,953;22,45186
 581,90; 8863,981;  534,074;37886,443;22,30088
 582,48; 8798,295;  493,074;37978,125;22,15609
 583,06; 8770,465;  513,997;38082,748;21,97695
 583,64; 8776,962;  506,690;38192,977;21,94504
 584,22; 8690,928;  520,921;38007,018;21,79477
 584,80; 8572,834;  520,382;37699,803;21,65836
 585,38; 8363,185;  535,689;37182,143;21,35949
 585,96; 8355,502;  507,074;37303,319;21,32943
 586,54; 8332,405;  532,998;37289,585;21,21907
 587,12; 8228,882;  489,151;37378,362;20,98101
 587,70; 8261,697;  525,536;37591,860;20,87113
 588,28; 8209,749;  495,921;37551,010;20,81719
 588,86; 8183,496;  504,767;37577,998;20,71233
 589,44; 8130,750;  485,998;37621,756;20,58596
 590,02; 8124,528;  485,229;37828,018;20,45723
 590,59; 8147,258;  469,767;38066,568;20,42060
 591,17; 8129,543;  471,306;38207,667;20,29405
 591,75; 8141,923;  456,767;38259,068;20,32986
 592,33; 8160,106;  472,075;38548,440;20,19109
 592,91; 8088,117;  430,306;38785,336;19,96560
 593,49; 8123,605;  450,768;39131,722;19,83621
 594,07; 8183,612;  458,845;39328,397;19,87357
 594,65; 8150,565;  467,844;39295,967;19,78649
 595,23; 8189,892;  461,459;39631,748;19,73034
 595,81; 8202,457;  455,690;39849,567;19,66490
 596,39; 8180,855;  436,229;40000,163;19,57497
 596,97; 8184,859;  434,844;40186,852;19,49591
 597,55; 8128,361;  439,536;40022,171;19,42474
 598,12; 8071,554;  401,845;40086,465;19,32666
 598,70; 8052,732;  424,691;40277,126;19,14072
 599,28; 8096,005;  444,075;40389,814;19,15581
 599,86; 8047,592;  403,537;40383,784;19,11958
 600,44; 7984,752;  389,768;40502,725;18,93399
 601,02; 8043,837;  457,153;40608,070;18,89542
 601,60; 7947,608;  418,152;40572,547;18,75126
 602,18; 7921,002;  402,075;40485,408;18,75824
 602,75; 7833,877;  397,075;40660,796;18,47023
 603,33; 7893,032;  416,460;40658,067;18,57921
 603,91; 7821,000;  415,229;40632,465;18,41442
 604,49; 7810,389;  426,075;40747,359;18,31369
 605,07; 7786,098;  434,844;40712,639;18,25138
 605,65; 7781,968;  442,306;40838,536;18,16918
 606,23; 7785,874;  508,536;40918,939;18,00857
 606,80; 7801,541;  561,460;41046,312;17,88343
 607,38; 7761,595;  613,922;41016,796;17,69100
 607,96; 7755,471;  664,921;41122,834;17,52574
 608,54; 7778,863;  717,229;41174,129;17,45471
 609,12; 7749,583;  719,844;41189,923;17,37021
 609,70; 7702,481;  760,537;41228,311;17,15425
 610,27; 7691,835;  774,229;41232,556;17,09810
 610,85; 7686,803;  797,229;41492,430;16,92970
 611,43; 7630,487;  795,768;41461,077;16,80725
 612,01; 7547,511;  757,844;41113,262;16,82467
 612,59; 7497,082;  760,075;41165,492;16,67352
 613,16; 7428,110;  706,690;41118,502;16,63232
 613,74; 7366,074;  702,998;40902,446;16,57504
 614,32; 7329,590;  651,768;40911,449;16,58687
 614,90; 7248,713;  595,921;40757,891;16,56490
 615,48; 7163,067;  535,998;40502,990;16,58136
 616,05; 7052,957;  511,305;40439,642;16,38348
 616,63; 7049,615;  513,998;40223,755;16,45847
 617,21; 6971,206;  502,767;40103,276;16,33423
 617,79; 6927,680;  488,152;39992,592;16,30077
 618,36; 6903,301;  495,152;40032,078;16,20801
 618,94; 6727,228;  426,690;39583,602;16,09049
 619,52; 6688,678;  456,998;39402,028;16,00122
 620,10; 6661,576;  437,998;39260,709;16,03077
 620,67; 6613,426;  449,998;39154,750;15,92422
 621,25; 6554,210;  473,229;39028,959;15,77193
 621,83; 6553,857;  436,459;39019,036;15,85534
 622,41; 6533,410;  486,459;38998,617;15,70141
 622,98; 6414,930;  453,998;38655,738;15,60382
 623,56; 6438,840;  451,459;38689,752;15,65808
 624,14; 6322,999;  436,383;38565,257;15,43874
 624,72; 6296,801;  423,075;38417,376;15,45949
 625,29; 6290,343;  413,228;38549,823;15,41070
 625,87; 6285,323;  452,075;38466,768;15,34472
 626,45; 6198,113;  417,690;38324,418;15,24907
 627,02; 6137,351;  413,921;38215,566;15,14069
 627,60; 6091,221;  397,614;38124,708;15,09156
 628,18; 6099,045;  398,613;38188,077;15,08471
 628,76; 6004,664;  383,921;38171,663;14,87451
 629,33; 6052,844;  422,305;38249,420;14,88493
 629,91; 5963,037;  401,306;38177,171;14,72298
 630,49; 6031,810;  425,075;38312,394;14,79845
 631,06; 6005,797;  399,536;38459,946;14,72990
 631,64; 5950,770;  407,536;38377,420;14,59903
 632,22; 5903,534;  372,459;38333,157;14,57053
 632,79; 5906,576;  403,844;38654,767;14,38588
 633,37; 5894,826;  375,383;38673,637;14,41174
 633,95; 5911,323;  399,382;38688,532;14,39557
 634,52; 5876,885;  362,536;38788,128;14,35072
 635,10; 5863,402;  379,921;38818,740;14,26548
 635,68; 5942,318;  384,382;39091,668;14,35889
 636,25; 5892,208;  348,459;39013,900;14,33774
 636,83; 5847,126;  341,844;39254,663;14,14773
 637,41; 5875,437;  358,074;39293,257;14,17064
 637,98; 5890,577;  395,997;39488,277;14,05541
 638,56; 5846,783;  373,766;39592,038;13,95527
 639,13; 5863,343;  359,767;39617,369;14,01913
 639,71; 5921,020;  429,536;39867,578;13,92433
 640,29; 5777,568;  329,459;39557,844;13,88818
 640,86; 5759,650;  337,459;39866,978;13,71681
 641,44; 5737,500;  341,459;39749,882;13,69261
 642,02; 5801,889;  373,998;39841,248;13,75290
 642,59; 5776,432;  345,844;39929,613;13,71923
 643,17; 5737,975;  343,844;39862,363;13,64963
 643,74; 5731,440;  356,229;40024,498;13,55041
 644,32; 5751,906;  364,305;39884,633;13,63248
 644,89; 5734,680;  380,382;39880,613;13,55510
 645,47; 5678,223;  377,306;39927,671;13,40295
 646,05; 5680,611;  378,690;39771,883;13,45898
 646,62; 5642,462;  358,229;39776,710;13,40547
 647,20; 5619,389;  372,613;40027,844;13,23098
 647,77; 5553,701;  323,690;39774,671;13,25699
 648,35; 5555,936;  338,306;39734,806;13,24389
 648,92; 5530,479;  362,767;39749,556;13,12042
 649,50; 5459,483;  326,767;39723,537;13,02827
 650,08; 5432,026;  319,152;39597,133;13,01715
 650,65; 5433,877;  338,229;39806,883;12,91062
 651,23; 5529,419;  308,613;40523,556;12,98225
 651,80; 5659,270;  314,690;41572,076;12,95424
 652,38; 5802,505;  340,998;42139,134;13,06639
 652,95; 5777,663;  312,690;42491,191;12,95677
 653,53; 5828,437;  336,844;42725,403;12,95537
 654,10; 5880,749;  372,767;42924,076;12,94433
 654,68; 5835,215;  320,306;42958,749;12,93412
 655,25; 5771,603;  305,075;42979,038;12,80999
 655,83; 5749,223;  310,767;43076,096;12,71697
 656,40; 5775,151;  351,229;43029,615;12,70883
 656,98; 5744,232;  322,536;42980,134;12,70980
 657,55; 5708,774;  331,383;42797,653;12,66274
 658,13; 5636,010;  323,921;42315,634;12,65033
 658,70; 5558,014;  345,998;42061,846;12,49409
 659,28; 5398,557;  321,613;41245,134;12,40593
 659,85; 5279,407;  363,075;40283,654;12,31528
 660,43; 5261,565;  353,844;40271,481;12,29462
 661,00; 5279,877;  327,229;40364,000;12,37025
 661,58; 5293,112;  330,998;40789,904;12,26458
 662,15; 5293,117;  313,613;40976,577;12,24579
 662,73; 5376,582;  400,767;41189,404;12,19902
 663,30; 5380,433;  332,306;41358,231;12,30472
 663,88; 5403,976;  340,075;41627,827;12,26490
 664,45; 5379,211;  323,306;41799,654;12,18985
 665,03; 5407,292;  330,537;42283,712;12,10100
 665,60; 5567,296;  421,229;42625,539;12,19323
 666,17; 5472,147;  337,921;42882,597;12,06785
 666,75; 5518,228;  329,844;43106,808;12,12892
 667,32; 5524,694;  355,075;43540,174;11,97084
 667,90; 5546,083;  335,229;43712,232;12,01294
 668,47; 5625,010;  353,152;44033,059;12,06930
 669,05; 5609,168;  342,998;44464,809;11,93553
 669,62; 5590,557;  308,152;44406,866;11,97859
 670,19; 5593,100;  315,614;44558,386;11,92847
 670,77; 5584,797;  329,537;44717,136;11,83948
 671,34; 5570,724;  323,844;44691,271;11,82597
 671,92; 5603,728;  313,844;45045,174;11,82590
 672,49; 5633,886;  344,152;45031,386;11,83724
 673,06; 5615,352;  284,383;45040,982;11,91102
 673,64; 5596,434;  308,768;45137,117;11,79536
 674,21; 5570,899;  298,921;45004,175;11,79275
 674,79; 5604,981;  343,844;45090,848;11,75752
 675,36; 5658,062;  348,229;45406,675;11,78432
 675,93; 5593,220;  300,614;45173,579;11,79464
 676,51; 5625,147;  325,614;45442,175;11,74632
 677,08; 5616,382;  331,691;45470,233;11,70771
 677,65; 5620,233;  327,383;45691,906;11,66738
 678,23; 5630,776;  321,998;45811,964;11,67022
 678,80; 5632,626;  312,383;45922,252;11,66468
 679,38; 5702,707;  320,614;46120,387;11,75135
 679,95; 5707,404;  342,998;46345,906;11,66101
 680,52; 5687,254;  323,229;46650,426;11,57857
 681,10; 5826,028;  336,922;47022,099;11,75771
 681,67; 5818,109;  321,383;47271,387;11,70762
 682,24; 5805,421;  298,998;47420,291;11,68564
 682,82; 5878,502;  321,614;48009,426;11,65264
 683,39; 5986,276;  360,614;48324,714;11,72890
 683,96; 5966,434;  315,922;48574,618;11,70880
 684,54; 5995,746;  290,922;48919,907;11,73133
 685,11; 6074,289;  362,537;49357,657;11,65780
 685,68; 6122,216;  312,922;49743,099;11,75253
 686,25; 6123,451;  300,691;49868,234;11,74712
 686,83; 6155,533;  302,537;50029,984;11,77015
 687,40; 6181,306;  290,768;50350,273;11,76707
 687,97; 6299,849;  337,229;50784,100;11,81960
 688,55; 6252,622;  289,152;50812,696;11,80335
 689,12; 6252,242;  268,768;51034,754;11,78638
 689,69; 6279,400;  280,922;51179,888;11,78507
 690,26; 6307,558;  305,306;51292,023;11,77219
 690,84; 6317,486;  304,152;51454,850;11,75611
 691,41; 6359,259;  328,768;51484,292;11,78854
 691,98; 6442,802;  317,460;51986,889;11,85487
 692,56; 6412,883;  302,614;51976,946;11,82457
 693,13; 6444,195;  354,153;51992,235;11,79370
 693,70; 6460,353;  338,845;52201,446;11,80332
 694,27; 6420,281;  302,306;52258,120;11,77534
 694,84; 6458,439;  305,383;52328,793;11,82747
 695,42; 6534,828;  350,153;52485,927;11,86263
 695,99; 6474,448;  325,922;52709,447;11,73752
 696,56; 6518,452;  319,614;52611,351;11,85434
 697,13; 6571,841;  330,922;53014,255;11,84610
 697,71; 6585,768;  315,383;52912,543;11,92153
 698,28; 6627,311;  312,306;53340,832;11,90869
 698,85; 6619,161;  271,383;53352,505;11,95864
 699,42; 6646,166;  289,306;53546,332;11,93619
 699,99; 6713,632;  330,691;53633,159;11,97494
 700,57; 6702,251;  333,076;53746,447;11,92431
 701,14; 6693,025;  300,076;53950,351;11,91597
 701,71; 6814,798;  328,230;54138,717;12,05447
 702,28; 6760,418;  312,383;54159,082;11,97480
 702,85; 6741,576;  320,076;54152,140;11,92877
 703,43; 6862,580;  344,230;54391,505;12,06046
 704,00; 6909,277;  356,999;54785,640;12,03829
 704,57; 6879,820;  317,768;54585,775;12,09193
 705,14; 6917,901;  347,614;54896,217;12,04483
 705,71; 6952,905;  359,460;55010,352;12,06466
 706,28; 6937,448;  321,614;54776,486;12,14920
 706,86; 7009,683;  356,537;55044,160;12,16573
 707,43; 7066,764;  382,537;55050,294;12,22700
 708,00; 7032,769;  368,307;54998,506;12,19923
 708,57; 7058,081;  327,999;54883,333;12,33625
 709,14; 7094,624;  368,153;55061,006;12,29863
 709,71; 7098,474;  341,922;55216,448;12,31273
 710,28; 7123,017;  339,076;55355,198;12,33082
 710,86; 7174,329;  333,537;55542,795;12,39066
 711,43; 7230,102;  367,307;55540,160;12,43872
 712,00; 7220,645;  330,922;55606,603;12,46429
 712,57; 7297,880;  352,153;55794,660;12,52780
 713,14; 7270,884;  328,691;55898,564;12,49273
 713,71; 7286,273;  334,845;55722,776;12,55044
 714,28; 7341,432;  327,307;55845,834;12,63385
 714,85; 7274,974;  307,691;55541,968;12,61406
 715,42; 7337,440;  312,691;55781,718;12,66427
 716,00; 7421,368;  393,307;55979,468;12,64354
 716,57; 7376,218;  303,922;56016,295;12,69430
 717,14; 7385,222;  307,922;55996,738;12,70866
 717,71; 7392,996;  284,538;55959,334;12,76782
 718,28; 7485,846;  347,153;56105,776;12,80285
 718,85; 7424,389;  288,845;56184,988;12,76572
 719,42; 7480,624;  320,384;56333,123;12,78324
 719,99; 7482,321;  288,076;55964,488;12,92153
 720,56; 7566,325;  333,999;56330,546;12,91566
 721,13; 7551,637;  284,922;56486,142;12,92982
 721,70; 7562,564;  299,538;56392,277;12,94825
 722,27; 7564,799;  322,768;56368,412;12,92167
 722,84; 7756,419;  379,307;56552,008;13,13291
 723,41; 7665,116;  280,692;56514,373;13,13167
 723,98; 7698,043;  304,845;56814,431;13,08309
 724,55; 7802,432;  329,153;56876,104;13,21606
 725,12; 7676,590;  266,538;56644,854;13,14344
 725,69; 7797,287;  303,922;56881,066;13,24451
 726,27; 7826,830;  300,307;57136,354;13,24252
 726,84; 7875,142;  305,076;57442,412;13,24889
 727,41; 7905,761;  330,153;57266,470;13,30541
 727,98; 7990,766;  322,999;57616,451;13,38332
 728,55; 7985,155;  343,153;57487,893;13,37306
 729,12; 8042,390;  297,538;57735,335;13,48389
 729,69; 8118,855;  323,307;57807,086;13,56130
 730,26; 8157,091;  317,461;58049,451;13,57935
 730,82; 8147,633;  309,769;57961,201;13,59526
 731,39; 8223,407;  321,307;58115,182;13,67290
 731,96; 8304,257;  297,922;58340,701;13,79385
 732,53; 8319,031;  323,769;58578,221;13,72472
 733,10; 8385,804;  333,384;58591,817;13,82190
 733,67; 8437,116;  334,461;58880,644;13,83977
 734,24; 8364,890;  297,538;58516,778;13,85685
 734,81; 8480,894;  344,076;58560,067;13,97695
 735,38; 8464,360;  323,846;58250,663;14,05310
 735,95; 8450,211;  319,846;58131,798;14,06347
 736,52; 8522,523;  343,076;58342,317;14,10268
 737,09; 8497,065;  338,230;57876,683;14,17980
 737,66; 8626,762;  382,230;58164,587;14,26825
 738,23; 8625,228;  313,769;58244,414;14,34726
 738,80; 8762,155;  406,923;58651,394;14,34511
 739,37; 8703,313;  368,153;58750,068;14,27696
 739,94; 8776,087;  331,538;58793,741;14,44446
 740,51; 8916,553;  468,769;58906,260;14,45610
 741,07; 8795,480;  327,230;58845,318;14,47117
 741,64; 8928,023;  364,692;59040,222;14,59438
 742,21; 8947,258;  337,615;59047,818;14,66465
 742,78; 8956,878;  301,461;58832,106;14,78784
 743,35; 9005,651;  327,538;59096,395;14,76652
 743,92; 9092,271;  357,923;59376,299;14,79937
 744,49; 9137,275;  378,846;59166,818;14,89834
 745,06; 9125,741;  322,077;59086,568;14,98127
 745,63; 9122,976;  308,000;59223,857;14,96198
 746,19; 9190,596;  322,461;59089,145;15,09041
 746,76; 9194,138;  324,153;59240,203;15,05529
 747,33; 9221,912;  325,846;59194,645;15,11168
 747,90; 9373,532;  341,000;59470,857;15,27575
 748,47; 9279,382;  332,230;59330,453;15,16512
 749,04; 9317,463;  333,692;59319,819;15,23031
 749,61; 9386,929;  369,846;59306,184;15,29970
 750,17; 9470,857;  336,769;59323,857;15,48489
 750,74; 9505,399;  337,384;59244,377;15,56354
 751,31; 9485,711;  302,923;59212,819;15,58785
 751,88; 9498,331;  294,307;59139,569;15,64106
 752,45; 9624,412;  313,846;59343,396;15,77272
 753,02; 9593,724;  347,923;59170,762;15,71805
 753,58; 9563,575;  313,615;58968,665;15,77010
 754,15; 9674,656;  310,000;59192,492;15,90397
 754,72; 9602,276;  313,384;58972,473;15,83538
 755,29; 9635,972;  294,923;58806,146;15,96454
 755,86; 9701,515;  312,615;58917,820;16,02059
 756,42; 9767,596;  322,077;58767,493;16,16127
 756,99; 9743,062;  277,307;58638,012;16,21940
 757,56; 9797,605;  283,538;58724,531;16,27978
 758,13; 9767,378;  233,231;58577,743;16,34112
 758,70; 9832,690;  266,923;58638,031;16,38785
 759,26; 9851,849;  253,846;58751,628;16,40746
 759,83; 9886,468;  272,077;58881,378;16,40421
 760,40; 9915,626;  241,692;58659,512;16,55990
 760,97; 9871,554;  233,231;58654,801;16,49788
 761,53; 9881,943;  228,231;58259,551;16,63535
 762,10; 9926,332;  224,154;58296,917;16,70693
 762,67; 9982,951;  262,000;58249,897;16,76376
 763,24; 9900,571;  224,077;57759,955;16,81819
 763,80;10019,191;  252,846;57950,782;16,92668
 764,37; 9983,195;  259,923;57953,225;16,85338
 764,94; 9943,738;  254,692;57446,513;16,94131
 765,50; 9954,050;  239,231;57460,494;16,97764
 766,07;10116,593;  287,231;57560,705;17,16215
 766,64; 9986,905;  259,615;57201,302;17,08290
 767,21;10071,447;  274,923;57079,436;17,24603
 767,77;10091,221;  295,231;57075,186;17,25255
 768,34;10084,533;  300,385;57003,013;17,25519
 768,91;10204,614;  294,308;56727,148;17,56124
 769,47;10198,157;  301,231;56822,283;17,51016
 770,04;10214,623;  295,769;56639,264;17,60426
 770,61;10181,473;  284,615;56498,783;17,60563
 771,18;10190,631;  284,000;56278,379;17,69219
 771,74;10264,251;  288,231;56579,437;17,72216
 772,31;10291,178;  305,385;56189,802;17,86865
 772,88;10212,952;  272,077;55945,783;17,85560
 773,44;10247,187;  285,462;55766,226;17,95528
 774,01;10352,884;  304,692;55961,668;18,05379
 774,58;10283,119;  287,000;55467,957;18,11516
 775,14;10410,508;  272,846;55696,091;18,29135
 775,71;10375,666;  274,539;55600,149;18,25760
 776,27;10446,901;  344,462;55466,053;18,32755
 776,84;10549,290;  388,308;55656,265;18,38494
 777,41;10498,448;  303,616;55321,015;18,53020
 777,97;10487,145;  272,616;55000,149;18,66433
 778,54;10510,226;  301,385;55050,822;18,64648
 779,11;10582,845;  325,616;55068,880;18,73697
 779,67;10595,465;  285,000;55038,553;18,83068
 780,24;10611,854;  295,769;54777,765;18,93485
 780,80;10623,551;  309,462;54927,592;18,88400
 781,37;10692,863;  315,000;54811,111;19,04331
 781,94;10659,482;  308,693;54498,784;19,10089
 782,50;10764,717;  301,308;54345,765;19,36074
 783,07;10770,337;  319,923;54492,054;19,29113
 783,63;10784,341;  289,462;54200,958;19,46687
 784,20;10785,269;  306,693;54244,862;19,42702
 784,77;10698,196;  294,231;54086,612;19,34096
 785,33;10725,970;  263,846;53817,593;19,53574
 785,90;10780,974;  292,693;53804,035;19,60011
 786,46;10842,594;  319,846;53659,862;19,72768
 787,03;10808,675;  278,539;53536,766;19,77185
 787,59;10889,448;  294,693;53378,285;19,95863
 788,16;10826,837;  285,154;53344,420;19,86775
 788,73;10908,534;  297,539;53208,939;20,05427
 789,29;10865,154;  274,462;52859,458;20,14014
 789,86;10920,620;  318,385;52656,439;20,25722
 790,42;10888,624;  284,231;52592,420;20,27291
 790,99;10764,320;  301,923;52334,862;20,10726
 791,55;10844,632;  288,539;52213,074;20,32968
 792,12;10933,252;  318,462;52249,901;20,44001
 792,68;10851,872;  297,693;51828,267;20,48139
 793,25;10813,184;  305,308;51771,094;20,41721
 793,81;10878,265;  390,231;51371,228;20,57244
 794,38;10778,423;  261,924;51072,901;20,69730
 794,94;10774,043;  279,154;50907,728;20,72918
 795,51;10823,047;  288,077;50757,094;20,87413
 796,07;10748,052;  292,077;50415,844;20,86031
 796,64;10857,825;  292,385;50582,902;21,00881
 797,20;10775,214;  310,385;49989,883;21,06468
 797,77;10737,064;  264,001;49579,171;21,23700
 798,33;10718,146;  294,539;49574,921;21,15164
 798,90;10777,996;  309,539;49464,979;21,29664
 799,46;10750,693;  273,693;48984,883;21,50840
 800,03;10748,082;  294,231;48894,710;21,50977
 800,59;10744,240;  288,616;48555,152;21,66226
 801,15;10727,783;  311,539;48497,056;21,61696
 801,72;10664,325;  296,924;48028,345;21,72029
 802,28;10704,791;  312,385;47755,941;21,90478
 802,85;10654,103;  285,847;47556,768;21,93369
 803,41;10667,877;  288,001;47328,056;22,06604
 803,98;10608,496;  279,308;46980,806;22,11747
 804,54;10633,655;  278,308;46717,787;22,29858
 805,11;10637,582;  297,693;46456,614;22,40063
 805,67;10686,971;  311,462;46437,518;22,49381
 806,23;10592,437;  299,385;45931,268;22,55671
 806,80;10623,133;  309,231;45820,249;22,66243
 807,36;10655,676;  313,001;45797,615;22,73884
 807,93;10642,757;  322,847;45528,057;22,82903
 808,49;10554,762;  289,770;45086,653;22,91452
 809,05;10560,381;  270,078;44936,249;23,03825
 809,62;10608,693;  297,616;44852,307;23,14252
 810,18;10636,544;  296,155;44766,211;23,25248
 810,74;10554,702;  258,385;44459,500;23,29425
 811,31;10584,014;  258,924;44243,634;23,47427
 811,87;10612,326;  283,001;44068,846;23,59056
 812,44;10660,407;  314,078;44003,058;23,68178
 813,00;10553,873;  243,309;43807,115;23,66773
 813,56;10650,647;  286,847;43819,712;23,80684
 814,13;10679,882;  275,539;43770,538;23,92078
 814,69;10697,040;  270,616;43553,981;24,08875
 815,25;10555,352;  243,001;43104,731;24,05958
 815,82;10667,895;  287,616;43037,173;24,28160
 816,38;10711,207;  322,847;42924,770;24,38472
 816,94;10590,057;  247,309;42650,750;24,39129
 817,51;10615,061;  250,693;42287,039;24,65573
 818,07;10608,835;  254,232;42149,789;24,71528
 818,63;10565,378;  268,232;41827,770;24,77685
 819,20;10616,997;  272,847;41797,135;24,91108
 819,76;10532,694;  249,616;41386,808;24,99703
 820,32;10590,698;  299,847;41280,405;25,11154
 820,89;10569,164;  287,693;41097,693;25,19351
 821,45;10487,091;  264,232;40781,443;25,23091
 822,01;10595,942;  276,847;40505,347;25,65120
 822,57;10552,177;  282,924;40350,174;25,63004
 823,14;10524,643;  248,847;40103,847;25,78295
 823,70;10503,416;  256,463;39804,367;25,91023
 824,26;10489,651;  254,924;39677,655;25,96149
 824,82;10577,194;  279,001;39539,482;26,23043
 825,39;10476,045;  261,078;39160,155;26,26018
 825,95;10579,972;  271,616;39187,982;26,48848
 826,51;10531,515;  279,232;38892,117;26,55146
 827,08;10628,058;  303,078;38838,252;26,79365
 827,64;10557,677;  289,616;38783,309;26,67466
 828,20;10512,297;  254,616;38231,675;27,01020
 828,76;10602,070;  281,078;38318,271;27,13395
 829,32;10605,152;  306,540;38212,867;27,16858
 829,89;10601,848;  242,232;38075,310;27,38243
 830,45;10632,237;  273,770;37933,521;27,50540
 831,01;10576,934;  281,463;37882,425;27,38087
 831,57;10639,477;  260,078;37700,252;27,72262
 832,14;10617,019;  253,001;37611,002;27,74243
 832,70;10611,793;  249,232;37460,906;27,84761
 833,26;10603,797;  231,693;37300,041;27,98103
 833,82;10624,725;  262,847;37248,099;28,01624
 834,38;10641,806;  253,540;37196,080;28,12006
 834,95;10607,810;  244,078;37014,983;28,18460
 835,51;10650,122;  220,078;36893,349;28,44045
 836,07;10688,126;  259,232;36913,791;28,45183
 836,63;10774,669;  276,540;36964,849;28,61437
 837,19;10816,597;  264,694;36823,138;28,86311
 837,75;10735,370;  225,617;36588,195;28,90266
 838,32;10804,528;  281,694;36579,945;28,98992
 838,88;10840,148;  286,309;36594,234;29,06759
 839,44;10942,998;  263,155;36528,138;29,44946
 840,00;10921,234;  277,001;36482,426;29,39955
 840,56;10871,007;  258,540;36065,407;29,63808
 841,12;10958,319;  247,924;36118,619;29,85834
 841,68;10890,785;  232,078;35960,446;29,83262
 842,25;11009,405;  251,386;35870,504;30,20293
 842,81;10951,947;  239,540;35651,484;30,25083
 843,37;11045,029;  230,386;35667,311;30,51800
 843,93;11010,341;  248,848;35569,446;30,46804
 844,49;11054,037;  273,463;35597,196;30,51935
 845,05;10992,657;  211,540;35434,639;30,60809
 845,61;11130,046;  268,924;35604,389;30,73717
 846,17;11110,281;  241,155;35367,677;30,94279
 846,73;11161,747;  250,386;35265,889;31,16151
 847,29;11079,366;  233,232;35046,254;31,15539
 847,86;11126,217;  237,463;35047,927;31,28012
 848,42;11119,529;  231,771;34748,985;31,54298
 848,98;11186,610;  265,155;34750,812;31,66956
 849,54;11192,153;  240,540;34827,331;31,66415
 850,10;11238,388;  269,232;34579,928;31,97008
 850,66;11242,469;  231,386;34474,139;32,15595
 851,22;11220,397;  223,540;34348,889;32,22489
 851,78;11317,170;  280,540;34463,101;32,28731
 852,34;11250,328;  252,463;34143,928;32,45025
 852,90;11339,333;  242,617;34116,909;32,75852
 853,46;11262,183;  243,925;33769,120;32,86560
 854,02;11379,110;  256,078;33873,101;33,08750
 854,58;11312,653;  248,771;33591,082;33,18271
 855,14;11291,504;  234,771;33489,448;33,24866
 855,70;11310,662;  212,232;33313,275;33,52894
 856,26;11326,358;  250,925;33331,178;33,48050
 856,82;11295,747;  239,540;33079,005;33,66744
 857,38;11401,213;  293,540;33035,063;33,92534
 857,94;11379,833;  244,309;32908,967;34,09043
 858,50;11388,299;  276,232;32697,102;34,27442
 859,06;11332,611;  236,002;32592,313;34,29504
 859,62;11392,615;  270,540;32577,064;34,42672
 860,18;11329,619;  252,079;32320,198;34,54378
 860,74;11333,854;  215,925;32223,794;34,73499
 861,30;11350,013;  223,540;31985,545;35,03076
 861,86;11463,555;  315,156;32028,218;35,15397
 862,42;11298,713;  247,386;31845,583;34,97455
 862,98;11395,949;  280,156;31846,256;35,21434
 863,54;11312,414;  249,079;31524,314;35,37411
 864,10;11399,957;  248,463;31708,833;35,44616
 864,66;11337,577;  229,156;31374,506;35,66639
 865,22;11346,735;  243,463;31222,872;35,84081
 865,78;11350,432;  249,463;31099,622;35,98350
 866,34;11340,282;  228,309;31151,218;35,93444
 866,90;11360,902;  247,309;30873,584;36,28777
 867,45;11283,598;  252,463;30662,488;36,27467
 868,01;11281,141;  247,925;30551,545;36,40890
 868,57;11251,530;  225,310;30301,757;36,66065
 869,13;11209,688;  225,156;30207,046;36,63723
 869,69;11266,539;  237,694;30017,565;37,03456
 870,25;11193,543;  224,848;29960,161;36,88777
 870,81;11230,701;  239,233;29956,757;36,98649
 871,37;11192,705;  247,002;29845,277;36,98088
 871,93;11180,171;  267,694;29726,104;37,04367
 872,49;11144,791;  285,310;29389,854;37,31198
 873,04;11085,103;  231,387;29272,527;37,37359
 873,60;11083,184;  231,387;29057,661;37,64551
 874,16;11044,265;  259,002;29020,258;37,49928
 874,72;11077,188;  226,310;28936,027;37,79514
 875,28;11066,419;  245,156;28957,104;37,68906
 875,84;11095,035;  255,079;28820,796;37,94743
 876,40;11102,958;  239,925;28773,642;38,07086
 876,95;11137,496;  251,694;28707,104;38,25565
 877,51;11205,573;  269,694;28800,181;38,33050
 878,07;11245,881;  289,540;28699,488;38,56515
 878,63;11262,727;  242,771;28721,565;38,69530
 879,19;11351,881;  258,079;28695,719;39,01098
 879,75;11368,573;  237,387;28775,565;39,00454
 880,30;11370,881;  248,925;28722,104;39,06117
 880,86;11467,727;  289,463;28815,642;39,18598
 881,42;11531,804;  223,848;28931,719;39,38974
 881,98;11548,958;  264,310;28987,642;39,28739
 882,54;11636,804;  247,463;29057,719;39,53224
 883,09;11732,727;  248,156;29168,104;39,71159
 883,65;11834,342;  232,463;29314,565;39,89354
 884,21;12027,727;  264,617;29406,796;40,36455
 884,77;12012,573;  222,463;29545,027;40,20832
 885,32;12100,265;  236,463;29663,796;40,31559
 885,88;12218,265;  284,079;29835,027;40,38512
 886,44;12339,496;  247,310;29985,873;40,66164
 887,00;12354,650;  259,002;29880,335;40,83425
 887,56;12457,727;  239,387;30103,950;40,91250
 888,11;12513,188;  244,617;30155,642;41,01689
 888,67;12630,650;  270,156;30233,642;41,25186
 889,23;12648,881;  256,925;30326,950;41,21033
 889,79;12686,496;  221,617;30207,258;41,56949
 890,34;12696,881;  258,310;30105,258;41,67452
 890,90;12861,650;  315,617;30287,412;41,85946
 891,46;12685,804;  230,002;30215,412;41,53954
 892,01;12824,496;  262,079;30159,027;42,01906
 892,57;12891,342;  287,310;30135,642;42,22692
 893,13;12813,035;  241,463;29936,565;42,33550
 893,69;12852,573;  230,694;29820,027;42,65686
 894,24;12829,112;  244,694;29728,488;42,68249
 894,80;12802,573;  248,387;29520,104;42,88845
 895,36;12784,265;  245,310;29464,565;42,91333
 895,91;12687,804;  247,002;29223,873;42,93356
 896,47;12723,035;  262,310;29086,796;43,22965
 897,03;12630,573;  237,617;29003,104;43,08273
 897,58;12690,496;  250,079;28808,642;43,56108
 898,14;12606,804;  253,540;28610,104;43,56404
 898,70;12541,804;  218,463;28388,104;43,74689
 899,25;12597,727;  251,233;28472,719;43,74856
 899,81;12571,881;  255,387;28214,335;44,05207
 900,37;12486,727;  207,079;28039,950;44,11923
 900,92;12604,881;  233,233;28046,873;44,48051
 901,48;12482,496;  224,694;27881,642;44,32088
 902,03;12485,419;  241,848;27736,873;44,53013
 902,59;12469,881;  232,540;27614,104;44,69190
 903,15;12492,727;  255,387;27490,642;44,93198
 903,70;12324,958;  243,694;27184,488;44,84375
 904,26;12331,881;  237,079;27075,796;45,06475
 904,82;12337,650;  235,002;27008,565;45,20373
 905,37;12374,881;  251,694;26900,565;45,49231
 905,93;12298,188;  227,617;26680,412;45,63061
 906,48;12261,112;  253,617;26681,181;45,43549
 907,04;12236,881;  243,925;26703,873;45,32494
 907,60;12134,265;  251,771;26460,104;45,33861
 908,15;12044,804;  220,233;26310,027;45,32259
 908,71;12150,573;  251,694;26259,488;45,75120
 909,26;11996,419;  242,079;26061,796;45,52467
 909,82;12012,958;  253,617;25973,873;45,72015
 910,37;12029,112;  275,310;25934,412;45,80753
 910,93;11954,573;  227,540;25626,258;46,17175
 911,48;11898,265;  245,540;25466,258;46,20299
 912,04;11846,112;  223,463;25345,796;46,26421
 912,60;11923,958;  229,771;25470,181;46,33121
 913,15;11825,881;  235,002;25217,258;46,39645
 913,71;11764,112;  232,925;25056,565;46,45244
 914,26;11760,188;  214,387;24952,335;46,67243
 914,82;11790,804;  238,771;24873,873;46,89257
 915,37;11785,112;  226,771;24823,642;46,99110
 915,93;11763,188;  291,002;24707,642;46,98511
 916,48;11656,573;  218,002;24588,488;46,93616
 917,04;11644,573;  256,771;24472,258;47,02694
 917,59;11656,496;  269,156;24299,950;47,38645
 918,15;11569,650;  205,540;24127,412;47,50510
 918,70;11529,727;  230,233;24085,719;47,36644
 919,26;11557,035;  236,310;23955,027;47,72908
 919,81;11478,496;  213,002;23737,104;47,88916
 920,37;11447,035;  234,387;23711,642;47,75962
 920,92;11455,958;  256,925;23632,104;47,90993
 921,48;11340,419;  215,925;23362,950;48,06015
 922,03;11377,958;  229,925;23411,258;48,09056
 922,59;11394,650;  237,233;23188,181;48,61419
 923,14;11354,881;  241,387;23117,104;48,58206
 923,69;11332,650;  253,079;23007,642;48,69164
 924,25;11362,958;  261,925;23030,950;48,75498
 924,80;11252,419;  223,848;22742,412;48,97546
 925,36;11165,112;  230,156;22713,335;48,63616
 925,91;11134,727;  220,617;22526,796;48,92864
 926,47;11158,188;  211,002;22422,027;49,28717
 927,02;11237,650;  303,694;22439,412;49,39508
 927,57;11108,804;  230,079;22282,181;49,33192
 928,13;11096,188;  219,771;22184,412;49,51785
 928,68;11056,035;  225,617;22158,642;49,37950
 929,24;10970,650;  198,233;21911,873;49,61129
 929,79;10989,265;  222,848;21785,258;49,93142
 930,34;10937,650;  226,694;21600,950;50,11148
 930,90;10960,496;  224,156;21626,719;50,16381
 931,45;10989,573;  226,617;21524,335;50,53572
 932,01;10990,035;  230,002;21376,642;50,88294
 932,56;10898,804;  249,310;21230,873;50,75644
 933,11;10961,342;  251,156;21304,488;50,87169
 933,67;10840,958;  220,079;21047,412;50,99491
 934,22;10879,342;  229,771;20985,796;51,30834
 934,77;10854,188;  249,925;20872,719;51,42011
 935,33;10803,958;  229,387;20730,335;51,58089
 935,88;10798,342;  234,002;20730,565;51,54201
 936,43;10824,265;  218,002;20557,104;52,14716
 936,99;10699,650;  222,387;20398,719;51,92848
 937,54;10621,188;  206,387;20254,950;51,94787
 938,09;10675,419;  234,002;20262,796;52,13203
 938,65;10621,419;  242,617;20134,565;52,17589
 939,20;10580,804;  206,694;20059,181;52,25597
 939,75;10538,188;  208,617;19935,412;52,36315
 940,31;10490,112;  212,694;19782,258;52,51736
 940,86;10596,342;  225,233;19784,488;53,02405
 941,41;10569,496;  332,694;19728,488;52,77846
 941,96;10470,727;  213,463;19530,258;53,10024
 942,52;10442,496;  225,925;19473,104;53,08088
 943,07;10419,958;  209,079;19286,258;53,52405
 943,62;10413,035;  215,233;19190,181;53,74350
 944,18;10336,958;  204,156;19129,104;53,54203
 944,73;10355,496;  251,387;19083,565;53,65343
 945,28;10245,419;  194,463;18868,335;53,82363
 945,83;10212,265;  211,233;18904,181;53,50163
 946,39;10240,496;  225,002;18854,335;53,76196
 946,94;10237,573;  234,387;18772,873;53,95902
 947,49;10137,265;  218,002;18646,950;53,82436
 948,04;10158,342;  271,848;18616,950;53,89174
 948,59;10180,342;  244,771;18571,027;54,21495
 949,15;10106,881;  197,233;18398,104;54,44601
 949,70;10090,188;  227,694;18305,181;54,55678
 950,25;10046,188;  232,387;18258,796;54,44125
 950,80;10003,573;  181,540;18098,181;54,82073
 951,36; 9952,496;  189,310;17997,488;54,82417
 951,91; 9953,342;  238,694;18064,796;54,49676
 952,46; 9884,188;  211,848;17810,642;54,96024
 953,01; 9892,419;  231,233;17894,719;54,69581
 953,56; 9859,419;  196,463;17687,104;55,24644
 954,11; 9803,496;  236,233;17578,642;55,16686
 954,67; 9762,419;  214,310;17560,488;55,04446
 955,22; 9677,958;  208,156;17351,335;55,23947
 955,77; 9711,035;  256,925;17345,027;55,32569
 956,32; 9714,727;  287,848;17339,873;55,28305
 956,87; 9637,496;  216,233;17181,027;55,53420
 957,42; 9669,419;  218,387;17060,796;56,11449
 957,98; 9670,496;  216,540;17052,488;56,15339
 958,53; 9584,342;  251,848;16944,796;55,90681
 959,08; 9541,958;  205,387;16840,104;56,12702
 959,63; 9551,727;  213,463;16698,335;56,64748
 960,18; 9584,727;  240,310;16663,104;56,89907
 960,73; 9536,727;  227,694;16622,796;56,77935
 961,28; 9473,573;  200,233;16484,565;56,94639
 961,83; 9532,112;  253,463;16457,950;57,25975
 962,39; 9460,573;  195,233;16332,873;57,41447
 962,94; 9388,804;  228,694;16245,488;57,19066
 963,49; 9378,881;  229,233;16088,796;57,69168
 964,04; 9410,496;  239,925;16038,181;58,04800
 964,59; 9401,035;  188,694;15921,104;58,55645
 965,14; 9381,727;  238,617;15892,335;58,40855
 965,69; 9311,881;  215,694;15766,796;58,49223
 966,24; 9266,650;  210,771;15661,104;58,61284
 966,79; 9270,573;  241,617;15580,412;58,86353
 967,34; 9221,573;  204,694;15437,796;59,19266
 967,89; 9230,419;  223,387;15377,181;59,43748
 968,44; 9215,804;  222,848;15322,335;59,55802
 968,99; 9190,112;  226,617;15221,719;59,77615
 969,55; 9190,650;  223,848;15129,488;60,15711
 970,10; 9171,112;  237,694;15034,642;60,37338
 970,65; 9119,727;  242,925;14971,642;60,26867
 971,20; 9037,265;  209,079;14867,335;60,22672
 971,75; 8991,958;  204,694;14685,873;60,68058
 972,30; 8963,727;  223,002;14625,104;60,69062
 972,85; 8895,496;  211,156;14534,104;60,63235
 973,40; 8839,958;  203,310;14416,565;60,76474
 973,95; 8891,958;  239,694;14371,335;61,22618
 974,50; 8869,188;  258,694;14305,181;61,29999
 975,05; 8767,804;  224,848;14154,027;61,33137
 975,60; 8761,035;  232,463;14079,796;61,58999
 976,15; 8665,881;  206,925;13992,719;61,35995
 976,70; 8681,265;  234,079;13964,565;61,52139
 977,25; 8688,496;  238,387;13904,796;61,83123
 977,80; 8569,496;  224,617;13683,258;62,00388
 978,35; 8476,804;  239,387;13569,873;61,79382
 978,89; 8430,496;  197,540;13494,565;61,91577
 979,44; 8470,881;  216,617;13471,950;62,27127
 979,99; 8336,958;  203,771;13263,642;62,27616
 980,54; 8328,573;  245,002;13232,873;62,23939
 981,09; 8297,112;  253,079;13134,719;62,44572
 981,64; 8199,419;  243,617;12957,104;62,57766
 982,19; 8150,035;  259,540;12995,565;61,95414
 982,74; 8089,419;  240,540;12766,719;62,65980
 983,29; 8021,958;  214,848;12646,027;62,80265
 983,84; 7966,496;  238,310;12546,796;62,78746
 984,39; 7966,112;  320,002;12613,181;62,19799
 984,94; 7798,035;  207,848;12371,258;62,40180
 985,49; 7785,650;  255,771;12332,258;62,35157
 986,03; 7737,265;  253,079;12205,950;62,61413
 986,58; 7733,496;  291,156;12056,642;63,25570
 987,13; 7562,112;  236,848;11931,335;62,63861
 987,68; 7552,419;  244,848;11804,335;63,21709
 988,23; 7538,958;  238,463;11760,335;63,36205
 988,78; 7436,035;  225,771;11591,642;63,43784
 989,33; 7379,573;  258,156;11502,412;63,33383
 989,88; 7385,573;  269,617;11457,796;63,60245
 990,42; 7247,650;  220,771;11289,488;63,48413
 990,97; 7203,188;  225,540;11129,181;63,99375
 991,52; 7201,342;  259,463;11156,258;63,70570
 992,07; 7112,112;  280,463;11006,565;63,69181
 992,62; 7018,342;  234,617;10952,488;63,29359
 993,17; 6975,419;  243,771;10793,412;63,80927
 993,71; 6951,958;  255,310;10649,181;64,42882
 994,26; 6806,188;  225,387;10543,796;63,77729
 994,81; 6826,265;  263,540;10517,873;63,99953
 995,36; 6750,188;  225,463;10316,950;64,65574
 995,91; 6716,112;  238,848;10271,104;64,56438
 996,45; 6663,112;  228,925;10182,488;64,64204
 997,00; 6538,188;  224,617;10036,181;64,34827
 997,55; 6554,804;  251,540; 9979,796;64,79336
 998,10; 6524,342;  263,617; 9872,950;65,15255
 998,65; 6413,112;  239,848; 9776,796;64,72997
 999,19; 6361,650;  257,771; 9693,258;64,69066
 999,74; 6296,650;  268,771; 9553,335;64,92366
1000,29; 6263,881;  239,233; 9525,258;64,87865
1000,84; 6132,804;  238,233; 9348,335;64,70368
1001,38; 6110,958;  246,617; 9214,412;65,39334
1001,93; 6111,188;  244,002; 9188,873;65,59275
1002,48; 5978,342;  229,848; 9065,412;65,06087
1003,03; 6010,035;  259,002; 8988,642;65,87938
1003,57; 5897,419;  244,079; 8888,642;65,39764
1004,12; 5851,958;  299,002; 8834,642;65,05611
1004,67; 5748,035;  235,310; 8676,104;65,31050
1005,22; 5632,188;  229,771; 8522,873;65,14351
1005,76; 5579,804;  223,079; 8398,027;65,52610
1006,31; 5580,419;  262,387; 8335,027;65,87724
1006,86; 5471,881;  233,079; 8203,873;65,72497
1007,40; 5397,881;  224,387; 8113,488;65,57773
1007,95; 5344,342;  244,771; 7994,412;65,80397
1008,50; 5250,496;  248,540; 7885,412;65,49745
1009,04; 5171,804;  243,079; 7761,104;65,55877
1009,59; 5076,496;  246,617; 7645,335;65,27995
1010,14; 5048,419;  222,310; 7512,335;66,20155
1010,68; 4986,881;  243,771; 7444,950;65,86574
1011,23; 4885,419;  239,540; 7324,104;65,57749
1011,78; 4864,419;  252,925; 7200,104;66,37938
1012,32; 4801,804;  281,617; 7150,027;65,81125
1012,87; 4765,112;  269,617; 7052,488;66,27716
1013,42; 4657,804;  224,540; 6985,873;65,56789
1013,96; 4708,496;  276,387; 7006,412;65,85577
1014,51; 4569,496;  206,771; 6821,104;65,95866
1015,06; 4577,035;  208,771; 6839,181;65,88226
1015,60; 4702,188;  273,694; 6944,104;66,39014
1016,15; 4596,035;  217,387; 6865,873;65,85932
1016,69; 4642,265;  233,617; 6917,181;65,96254
1017,24; 4627,650;  217,463; 6887,027;66,12407
1017,79; 4711,958;  266,310; 6977,565;66,24167
1018,33; 4666,496;  230,387; 6973,565;65,78662
1018,88; 4712,419;  256,002; 7040,412;65,68615
1019,42; 4734,958;  235,540; 7027,335;66,24784
1019,97; 4710,650;  228,002; 7042,642;65,77967
1020,51; 4779,035;  264,002; 7104,796;66,00159
1021,06; 4739,419;  213,540; 7013,335;66,55906
1021,61; 4739,188;  195,310; 7018,642;66,59325
1022,15; 4691,881;  188,925; 7005,104;66,06276
1022,70; 4713,804;  230,771; 6977,258;66,44989
1023,24; 4676,573;  216,848; 6956,950;66,16703
1023,79; 4630,727;  224,848; 6841,950;66,58321
1024,33; 4583,958;  223,463; 6815,104;66,15188
1024,88; 4534,881;  253,848; 6720,565;66,20102
1025,42; 4511,804;  237,233; 6653,642;66,61936
1025,97; 4399,265;  225,002; 6550,258;65,99359
1026,51; 4314,035;  201,387; 6445,258;65,86696
1027,06; 4319,035;  214,925; 6373,335;66,64236
1027,60; 4238,727;  248,310; 6281,719;66,13868
1028,15; 4205,881;  238,387; 6152,642;67,08358
1028,69; 4094,419;  187,387; 6030,181;66,86925
1029,24; 4035,112;  213,848; 5970,642;66,37832
1029,78; 3975,727;  211,310; 5860,181;66,64017
1030,33; 3896,804;  204,694; 5736,873;66,73880
1030,87; 3869,188;  217,233; 5712,335;66,45838
1031,42; 3831,265;  206,079; 5575,488;67,51555
1031,96; 3829,958;  236,310; 5524,027;67,96218
1032,51; 3734,112;  216,233; 5425,335;67,53331
1033,05; 3683,958;  224,848; 5379,719;67,10371
1033,60; 3601,112;  192,771; 5262,796;67,22532
1034,14; 3575,727;  219,617; 5207,412;67,28645
1034,69; 3556,496;  224,233; 5146,104;67,70318
1035,23; 3495,188;  219,463; 5064,335;67,61222
1035,77; 3492,496;  223,848; 4983,950;68,66761
1036,32; 3399,035;  189,079; 4903,104;68,09374
1036,86; 3397,496;  227,694; 4854,412;68,51082
1037,41; 3360,265;  234,925; 4783,104;68,71630
1037,95; 3297,727;  202,079; 4684,258;69,06570
1038,50; 3252,958;  218,540; 4675,950;68,07580
1039,04; 3259,958;  240,233; 4619,565;68,95400
1039,58; 3206,342;  201,387; 4517,642;69,61950
1040,13; 3145,342;  217,540; 4454,181;69,10669
1040,67; 3132,265;  241,617; 4438,873;68,86995
1041,21; 3089,727;  248,233; 4341,104;69,42545
1041,76; 2990,727;  213,002; 4282,027;68,26512
1042,30; 3011,881;  212,617; 4238,719;69,52788
1042,85; 2957,265;  215,771; 4141,873;69,82738
1043,39; 2901,035;  196,694; 4062,719;69,95145
1043,93; 2927,881;  238,156; 4062,873;70,32481
1044,48; 2851,804;  226,310; 3987,335;69,80794
1045,02; 2796,650;  217,002; 3953,950;69,03088
1045,56; 2807,573;  255,463; 3939,565;69,27359
1046,11; 2762,496;  239,617; 3856,565;69,75159
1046,65; 2693,573;  235,310; 3768,258;69,58108
1047,19; 2654,342;  212,002; 3726,181;69,49960
1047,74; 2587,496;  194,310; 3648,873;69,27609
1048,28; 2578,650;  225,233; 3585,796;70,03044
1048,82; 2604,881;  254,925; 3615,335;69,93063
1049,37; 2518,342;  243,771; 3534,412;69,12245
1049,91; 2510,188;  227,079; 3486,873;70,03846
1050,45; 2489,265;  232,310; 3441,258;70,33320
1050,99; 2457,804;  224,925; 3392,181;70,49885
1051,54; 2405,342;  209,079; 3325,104;70,48286
1052,08; 2397,727;  245,848; 3293,027;70,61872
1052,62; 2382,727;  237,002; 3273,027;70,67547
1053,16; 2305,958;  210,310; 3173,181;70,73031
1053,71; 2293,342;  240,310; 3164,950;70,19778
1054,25; 2266,650;  232,617; 3096,027;71,03534
1054,79; 2239,188;  233,771; 3062,027;70,90650
1055,33; 2169,650;  201,310; 3002,258;70,27408
1055,88; 2202,727;  234,233; 2977,412;71,75960
1056,42; 2165,265;  236,310; 2939,027;71,37098
1056,96; 2132,650;  240,694; 2917,104;70,69007
1057,50; 2109,188;  244,771; 2851,488;71,52357
1058,05; 2075,573;  226,156; 2811,258;71,54137
1058,59; 2061,342;  250,540; 2786,488;71,40532
1059,13; 2014,573;  206,310; 2734,335;71,52870
1059,67; 2004,188;  241,233; 2698,027;71,75838
1060,21; 1955,035;  227,233; 2656,796;71,11574
1060,76; 1939,727;  243,617; 2615,181;71,51863
1061,30; 1938,958;  260,617; 2603,565;71,63370
1061,84; 1902,881;  235,156; 2537,412;72,43874
1062,38; 1838,804;  210,694; 2454,412;72,56305
1062,92; 1872,804;  275,079; 2525,181;71,00678
1063,46; 1826,188;  239,771; 2429,642;72,44341
1064,01; 1783,958;  230,540; 2389,181;71,96277
1064,55; 1782,112;  237,540; 2352,412;73,03382
1065,09; 1710,419;  208,694; 2310,565;71,44705
1065,63; 1760,804;  262,079; 2338,873;72,16531
1066,17; 1743,419;  279,233; 2297,335;72,55266
1066,71; 1697,650;  250,771; 2276,412;71,42822
1067,25; 1651,035;  233,540; 2190,258;72,44246
1067,80; 1652,188;  244,617; 2191,258;72,30771
1068,34; 1670,804;  264,310; 2199,181;72,69188
1068,88; 1585,265;  216,233; 2112,104;72,21127
1069,42; 1589,804;  269,540; 2133,796;70,81987
1069,96; 1580,265;  238,387; 2086,873;72,59338
1070,50; 1604,650;  281,310; 2090,796;73,13347
1071,04; 1515,188;  223,310; 2012,873;72,18961
1071,58; 1514,112;  232,848; 1994,488;72,73127
1072,12; 1488,419;  240,617; 1989,565;71,34585
1072,66; 1494,035;  232,925; 1979,488;72,20520
1073,21; 1500,881;  257,925; 1962,181;72,93247
1073,75; 1453,496;  242,310; 1920,642;72,16606
1074,29; 1433,958;  238,848; 1893,258;72,23783
1074,83; 1435,804;  264,233; 1894,565;71,86086
1075,37; 1441,573;  260,079; 1867,335;73,51003
1075,91; 1389,265;  249,463; 1835,565;71,86183
1076,45; 1374,804;  262,233; 1804,642;72,13202
1076,99; 1373,419;  253,617; 1787,719;72,99397
1077,53; 1333,419;  227,002; 1742,335;73,01481
1078,07; 1336,958;  246,540; 1739,719;73,02657
1078,61; 1308,573;  248,310; 1702,181;72,92692
1079,15; 1281,419;  233,540; 1692,488;71,82427
1079,69; 1268,419;  241,925; 1681,335;71,31356
1080,23; 1298,650;  266,848; 1681,412;72,94137
1080,77; 1336,342;  297,079; 1717,104;73,18628
1081,31; 1230,035;  239,925; 1636,565;70,89224
1081,85; 1264,804;  259,387; 1622,642;73,75119
1082,39; 1235,496;  234,233; 1573,027;74,78845
1082,93; 1234,727;  264,925; 1595,565;72,88235
1083,47; 1184,573;  226,540; 1525,488;73,75450
1084,01; 1201,265;  239,079; 1553,412;73,20723
1084,55; 1165,112;  234,617; 1512,642;72,80720
1085,09; 1165,650;  253,156; 1508,642;72,68053
1085,63; 1150,727;  248,387; 1479,258;73,30909
1086,17; 1127,265;  235,694; 1460,258;72,80726
1086,71; 1105,188;  225,925; 1436,565;72,62796
1087,24; 1138,958;  255,848; 1447,335;74,11830
1087,78; 1120,342;  265,310; 1439,258;72,83394
1088,32; 1074,804;  222,848; 1381,181;73,55018
1088,86; 1102,265;  261,463; 1399,181;73,90253
1089,40; 1079,650;  240,694; 1374,181;74,01550
1089,94; 1035,342;  218,079; 1325,258;73,81495
1090,48; 1036,650;  254,463; 1340,027;72,05351
1091,02; 1052,265;  256,925; 1335,565;73,73545
1091,56; 1028,188;  242,079; 1302,873;74,10576
1092,10;  986,188;  221,540; 1267,565;73,10036
1092,63; 1041,188;  262,387; 1282,950;76,31097
1093,17;  988,188;  264,694; 1276,796;71,48433
1093,71;  962,881;  229,079; 1222,642;73,85557
1094,25;  979,265;  274,156; 1260,565;71,48244
1094,79;  943,265;  234,156; 1223,796;71,65326
1095,33;  947,727;  251,694; 1210,565;72,58876
1095,87;  936,188;  246,463; 1197,488;72,52438
1096,40;  901,881;  226,540; 1154,335;72,78989
1096,94;  907,804;  245,310; 1165,950;71,96015
1097,48;  912,035;  256,617; 1172,027;71,59825
1098,02;  878,727;  233,002; 1120,719;72,73994
1098,56;  846,112;  211,156; 1089,796;72,26572
1099,10;  850,650;  224,002; 1093,181;72,09656
1099,63;  847,342;  213,387; 1062,104;74,69575
1100,17;  862,496;  250,540; 1095,258;72,44504
1100,71;  868,958;  271,848; 1098,796;72,20642

