
Integration time [ms]: 150,000
Averaging Nr. [scans]: 13
Smoothing Nr. [pixels]: 0
Data measured with spectrometer [name]: 2009305U1
Wave   ;Sample   ;Dark     ;Reference;Reflectance
[nm]   ;[counts] ;[counts] ;[counts] ;[%]

 175,72;  200,069;  186,508;  191,441;274,89523
 176,32;  217,393;  217,046;  197,097; 0,00000
 176,92;  243,777;  242,431;  238,959; 0,00000
 177,52;  251,766;  239,816;  243,861;295,37099
 178,12;  227,024;  224,815;  216,545; 0,00000
 178,72;  251,433;  250,738;  233,002; 0,00000
 179,32;  242,231;  234,123;  228,510; 0,00000
 179,92;  243,400;  240,892;  239,121; 0,00000
 180,52;  239,577;  226,662;  241,501;87,03527
 181,12;  248,954;  235,508;  249,615;95,31883
 181,73;  265,243;  253,969;  257,963;282,29718
 182,33;  335,852;  310,354;  310,442; 0,00000
 182,93;  266,578;  250,508;  254,901;365,79749
 183,53;  232,454;  230,353;  215,332; 0,00000
 184,13;  236,177;  235,815;  221,936; 0,00000
 184,73;  262,380;  257,661;  250,459; 0,00000
 185,33;  249,304;  224,043;  328,569;24,16747
 185,93;  268,100;  230,350;  348,190;32,03482
 186,53;  277,877;  239,043;  358,752;32,44013
 187,13;  291,293;  264,120;  409,434;18,69962
 187,73;  259,037;  218,889;  366,806;27,14278
 188,33;  268,765;  230,427;  357,437;30,18539
 188,93;  268,575;  238,272;  360,934;24,70435
 189,53;  278,198;  246,580;  369,895;25,64019
 190,13;  305,332;  273,809;  388,525;27,47851
 190,73;  254,886;  212,118;  334,459;34,95802
 191,34;  278,832;  255,964;  376,178;19,02260
 191,94;  257,109;  225,580;  351,484;25,04207
 192,54;  267,604;  238,043;  391,115;19,31148
 193,14;  278,192;  251,812;  378,970;20,74612
 193,74;  276,786;  238,274;  370,876;29,04320
 194,34;  266,385;  228,812;  370,051;26,60213
 194,94;  231,005;  212,043;  338,394;15,00725
 195,54;  213,158;  196,350;  334,278;12,18578
 196,14;  242,714;  211,658;  368,113;19,84945
 196,74;  241,043;  208,581;  344,120;23,95000
 197,34;  214,710;  181,813;  352,533;19,27010
 197,94;  260,344;  221,043;  371,875;26,05611
 198,54;  251,321;  217,428;  387,527;19,92548
 199,14;  238,114;  202,428;  380,116;20,08367
 199,74;  223,225;  191,582;  373,922;17,35388
 200,34;  212,154;  181,043;  389,337;14,93602
 200,94;  251,038;  220,736;  438,986;13,88440
 201,54;  240,109;  209,120;  440,271;13,40623
 202,14;  251,038;  218,659;  479,540;12,41140
 202,74;  234,824;  211,120;  475,243; 8,97459
 203,34;  215,209;  186,659;  487,213; 9,49919
 203,94;  193,515;  158,659;  500,803;10,18748
 204,54;  260,949;  228,658;  595,764; 8,79608
 205,14;  228,721;  185,966;  608,606;10,11610
 205,74;  266,142;  223,044;  685,831; 9,31268
 206,34;  231,226;  194,044;  704,762; 7,28049
 206,94;  255,494;  198,582;  780,618; 9,77811
 207,54;  220,749;  178,967;  806,391; 6,65931
 208,14;  237,593;  190,582;  893,911; 6,68399
 208,74;  241,243;  194,428;  987,542; 5,90274
 209,34;  245,925;  193,197; 1063,246; 6,06031
 209,94;  257,464;  206,274; 1165,355; 5,33741
 210,54;  258,410;  199,044; 1268,411; 5,55156
 211,14;  263,012;  224,351; 1385,049; 3,33082
 211,73;  270,273;  191,043; 1475,767; 6,16704
 212,33;  280,927;  208,351; 1619,410; 5,14341
 212,93;  264,022;  191,966; 1670,853; 4,87228
 213,53;  239,970;  170,890; 1771,964; 4,31461
 214,13;  267,442;  178,967; 1815,624; 5,40586
 214,73;  250,961;  178,505; 1868,232; 4,28802
 215,33;  232,926;  147,505; 1877,816; 4,93673
 215,93;  276,826;  184,890; 2028,276; 4,98736
 216,53;  255,484;  154,966; 2104,730; 5,15538
 217,13;  306,282;  206,198; 2343,708; 4,68228
 217,73;  304,894;  179,274; 2524,428; 5,35656
 218,33;  268,585;  142,890; 2775,173; 4,77514
 218,93;  329,259;  175,352; 3071,646; 5,31392
 219,53;  334,696;  177,429; 3397,057; 4,88465
 220,13;  323,008;  153,275; 3691,023; 4,79778
 220,73;  370,686;  177,967; 4089,429; 4,92704
 221,32;  400,936;  173,197; 4500,773; 5,26250
 221,92;  415,206;  180,198; 4901,864; 4,97723
 222,52;  431,602;  163,198; 5343,261; 5,18150
 223,12;  463,781;  172,813; 5776,757; 5,19220
 223,72;  507,199;  186,044; 6211,948; 5,32958
 224,32;  529,856;  183,813; 6543,079; 5,44156
 224,92;  535,147;  168,351; 6875,906; 5,46839
 225,52;  582,220;  186,890; 7271,963; 5,57977
 226,12;  592,778;  176,121; 7587,469; 5,62188
 226,72;  597,882;  148,967; 7939,983; 5,76196
 227,31;  621,634;  145,582; 8250,580; 5,87356
 227,91;  680,658;  176,274; 8678,345; 5,93248
 228,51;  693,977;  167,889; 9082,095; 5,90167
 229,11;  732,019;  165,351; 9464,150; 6,09399
 229,71;  776,894;  162,813; 9762,720; 6,39675
 230,31;  795,228;  158,582;10173,488; 6,35699
 230,91;  832,888;  150,274;10506,605; 6,59128
 231,51;  884,108;  149,351;10776,255; 6,91412
 232,10;  919,756;  151,044;11074,192; 7,03746
 232,70;  962,231;  178,966;11290,743; 7,04896
 233,30; 1016,417;  184,121;11509,472; 7,34897
 233,90; 1035,631;  165,582;11642,454; 7,58089
 234,50; 1077,022;  169,813;11682,361; 7,88018
 235,10; 1084,147;  163,275;11747,368; 7,94946
 235,70; 1130,231;  173,428;11699,798; 8,30099
 236,29; 1167,860;  185,197;11591,497; 8,61508
 236,89; 1167,708;  152,043;11425,783; 9,00912
 237,49; 1185,769;  176,197;11278,883; 9,09304
 238,09; 1212,149;  160,813;10923,609; 9,76825
 238,69; 1215,594;  189,966;10665,612; 9,79059
 239,29; 1206,519;  155,890;10301,192;10,35582
 239,89; 1207,186;  176,351; 9935,648;10,56260
 240,48; 1185,825;  161,813; 9504,821;10,96020
 241,08; 1173,170;  160,351; 9117,984;11,30676
 241,68; 1172,995;  176,813; 8757,962;11,60896
 242,28; 1151,247;  153,505; 8410,255;12,08395
 242,88; 1200,245;  193,044; 8095,122;12,74603
 243,48; 1188,505;  198,736; 7873,692;12,89609
 244,07; 1146,641;  175,890; 7581,095;13,10904
 244,67; 1170,506;  179,197; 7429,524;13,67261
 245,27; 1177,273;  190,659; 7275,690;13,92533
 245,87; 1194,768;  191,198; 7237,475;14,24257
 246,47; 1183,136;  180,197; 7203,632;14,27989
 247,06; 1207,895;  174,890; 7223,759;14,65491
 247,66; 1231,268;  169,967; 7354,508;14,77201
 248,26; 1285,604;  193,505; 7500,001;14,94696
 248,86; 1325,588;  183,889; 7701,168;15,18766
 249,46; 1322,536;  136,505; 7966,218;15,14781
 250,05; 1410,296;  190,967; 8407,977;14,83908
 250,65; 1451,796;  157,582; 8804,658;14,96707
 251,25; 1540,418;  165,044; 9339,804;14,99085
 251,85; 1627,930;  182,582;10029,658;14,67794
 252,44; 1700,611;  134,813;10674,678;14,85596
 253,04; 1838,763;  185,736;11530,583;14,57073
 253,64; 1909,772;  150,966;12356,193;14,41027
 254,24; 2096,185;  187,274;13387,094;14,46164
 254,84; 2203,766;  167,274;14402,987;14,30551
 255,43; 2343,072;  168,966;15555,492;14,12993
 256,03; 2481,258;  178,274;16699,228;13,93978
 256,63; 2565,460;  177,966;17910,841;13,46366
 257,23; 2741,074;  154,274;18944,964;13,76639
 257,82; 2858,869;  176,505;20042,253;13,50246
 258,42; 2922,284;  139,658;21036,894;13,31576
 259,02; 3105,413;  182,890;22121,113;13,32160
 259,62; 3121,261;  159,658;22985,230;12,97493
 260,21; 3204,773;  168,736;23587,648;12,96404
 260,81; 3233,710;  173,736;24280,241;12,69356
 261,41; 3278,717;  166,735;24813,701;12,62623
 262,01; 3369,683;  201,658;25435,271;12,55478
 262,60; 3335,767;  149,812;25794,348;12,42352
 263,20; 3383,307;  156,120;26213,989;12,38469
 263,80; 3385,795;  187,427;26514,878;12,14841
 264,40; 3371,391;  156,120;26759,688;12,08586
 264,99; 3372,386;  171,197;27037,228;11,91538
 265,59; 3360,680;  158,350;27333,943;11,78384
 266,19; 3364,906;  152,120;27455,685;11,76691
 266,78; 3387,100;  199,658;27664,545;11,60552
 267,38; 3306,087;  177,735;27623,607;11,39826
 267,98; 3281,091;  158,350;27619,235;11,37160
 268,58; 3266,378;  172,812;27764,819;11,21182
 269,17; 3256,550;  159,504;27759,477;11,22119
 269,77; 3204,557;  181,812;27582,448;11,03166
 270,37; 3185,343;  157,504;27409,912;11,11035
 270,96; 3172,322;  201,505;27279,205;10,97145
 271,56; 3072,366;  167,274;27013,284;10,82132
 272,16; 3046,701;  161,120;26883,945;10,79819
 272,75; 3032,238;  170,889;26753,759;10,76388
 273,35; 3002,432;  174,351;26767,980;10,63443
 273,95; 2971,734;  173,966;26798,335;10,50830
 274,54; 2980,023;  140,351;26830,277;10,63949
 275,14; 3021,261;  179,428;27277,007;10,48741
 275,74; 2997,188;  149,505;27407,780;10,44704
 276,33; 3103,839;  183,428;27814,228;10,56941
 276,93; 3097,815;  174,428;28291,479;10,39720
 277,53; 3181,663;  176,043;28987,611;10,43199
 278,12; 3219,064;  159,889;29392,545;10,46492
 278,72; 3359,784;  193,890;30130,221;10,57542
 279,32; 3381,674;  167,582;30750,215;10,50953
 279,91; 3504,189;  146,505;31634,628;10,66334
 280,51; 3618,491;  171,274;32197,023;10,76389
 281,11; 3735,864;  162,889;32976,687;10,88864
 281,70; 3818,037;  156,736;33508,153;10,97795
 282,30; 3931,904;  156,274;34178,592;11,09751
 282,90; 4026,494;  162,582;34644,064;11,20576
 283,49; 4147,697;  185,505;35228,863;11,30654
 284,09; 4317,644;  195,889;35690,291;11,61241
 284,69; 4403,460;  192,582;36065,573;11,73830
 285,28; 4533,380;  205,043;36330,946;11,98126
 285,88; 4668,214;  210,658;36651,955;12,23215
 286,47; 4755,461;  167,120;36681,104;12,56598
 287,07; 4932,101;  194,889;36787,870;12,94568
 287,67; 5056,043;  183,197;36990,769;13,23870
 288,26; 5213,281;  162,043;36756,353;13,80334
 288,86; 5374,901;  171,736;36935,896;14,15282
 289,46; 5578,487;  179,889;37141,703;14,60588
 290,05; 5805,692;  161,813;37264,536;15,21150
 290,65; 6099,094;  171,812;37412,724;15,91605
 291,24; 6334,450;  180,659;37567,924;16,45959
 291,84; 6602,229;  181,812;37729,841;17,09921
 292,44; 6799,948;  164,813;37919,072;17,57453
 293,03; 7169,596;  224,813;38028,338;18,37073
 293,63; 7294,247;  161,120;38283,122;18,71131
 294,22; 7614,027;  187,505;38323,888;19,47359
 294,82; 7771,912;  169,658;38408,330;19,88106
 295,41; 7887,344;  161,659;38060,692;20,38492
 296,01; 8046,771;  206,812;37983,114;20,75364
 296,61; 8099,639;  182,659;37619,685;21,14746
 297,20; 8148,265;  177,812;37253,889;21,49756
 297,80; 8223,706;  183,736;37045,844;21,81094
 298,39; 8167,161;  156,966;36574,274;21,99557
 298,99; 8259,570;  176,658;36410,608;22,30756
 299,58; 8293,934;  184,736;36372,641;22,40859
 300,18; 8295,306;  202,813;36126,581;22,52685
 300,78; 8247,473;  167,505;35638,126;22,77933
 301,37; 8288,191;  187,581;35732,745;22,78963
 301,97; 8361,009;  183,197;35724,838;23,00910
 302,56; 8348,444;  162,582;35684,809;23,04434
 303,16; 8366,182;  168,274;35582,713;23,14849
 303,75; 8400,497;  171,659;35647,591;23,19555
 304,35; 8515,200;  169,890;35890,519;23,36272
 304,94; 8505,607;  163,120;35993,788;23,28309
 305,54; 8542,474;  193,505;35888,696;23,38962
 306,13; 8496,584;  149,582;35738,256;23,45410
 306,73; 8434,538;  146,121;35479,774;23,45757
 307,33; 8481,420;  170,274;35515,060;23,51449
 307,92; 8519,613;  175,351;35629,125;23,53561
 308,52; 8609,721;  159,351;36194,360;23,45045
 309,11; 8817,268;  163,043;36703,676;23,68384
 309,71; 8842,999;  148,735;36939,473;23,63167
 310,30; 8952,229;  163,890;37244,311;23,70075
 310,90; 9071,229;  187,274;37577,926;23,75983
 311,49; 9065,982;  173,428;37748,247;23,66626
 312,09; 9072,708;  141,659;37927,831;23,63576
 312,68; 9222,200;  201,966;38291,657;23,68156
 313,28; 9272,151;  153,428;38571,741;23,73536
 313,87; 9256,854;  143,043;38614,467;23,68982
 314,47; 9294,889;  165,043;38917,783;23,55923
 315,06; 9347,270;  145,505;39080,749;23,63351
 315,66; 9394,785;  145,428;39279,677;23,63494
 316,25; 9333,737;  133,505;39102,315;23,60922
 316,85; 9319,289;  135,120;39238,531;23,48687
 317,44; 9345,429;  153,351;39425,307;23,40622
 318,04; 9326,819;  143,659;39410,544;23,38653
 318,63; 9209,623;  137,736;39376,591;23,11965
 319,22; 9276,360;  172,043;39639,793;23,06774
 319,82; 9243,560;  157,659;39748,044;22,94977
 320,41; 9196,974;  167,889;39597,223;22,89941
 321,01; 9171,966;  161,351;39688,268;22,79615
 321,60; 9170,465;  160,659;39760,917;22,75189
 322,20; 9080,672;  148,197;39768,075;22,54544
 322,79; 9141,433;  193,274;39925,258;22,52130
 323,39; 9063,142;  154,274;40037,370;22,33745
 323,98; 8983,936;  154,890;40009,773;22,15298
 324,58; 8948,038;  165,351;39833,792;22,14024
 325,17; 8870,728;  157,505;39618,697;22,08049
 325,76; 8865,649;  177,813;39412,027;22,14352
 326,36; 8680,171;  146,813;39031,432;21,94533
 326,95; 8611,926;  173,889;38634,962;21,93916
 327,55; 8433,586;  149,736;38265,988;21,73312
 328,14; 8317,816;  147,967;37855,696;21,66625
 328,74; 8199,411;  194,582;37389,310;21,52141
 329,33; 8046,120;  177,120;36931,530;21,40968
 329,92; 7859,712;  157,043;36304,241;21,30917
 330,52; 7680,747;  165,505;35558,328;21,23380
 331,11; 7611,012;  166,812;35056,964;21,33611
 331,71; 7402,112;  166,813;34465,013;21,09527
 332,30; 7281,068;  171,966;34036,249;20,99292
 332,89; 7089,412;  198,813;33347,851;20,78672
 333,49; 6957,781;  168,812;32742,856;20,84165
 334,08; 6825,501;  165,659;32308,017;20,71983
 334,68; 6685,603;  171,966;31756,930;20,62259
 335,27; 6616,181;  172,351;31450,397;20,60177
 335,86; 6549,627;  208,889;31068,657;20,54694
 336,46; 6432,471;  169,967;30889,501;20,38607
 337,05; 6330,303;  176,428;30713,484;20,15216
 337,65; 6280,534;  160,120;30600,208;20,10643
 338,24; 6309,218;  208,659;30594,707;20,07684
 338,83; 6230,346;  186,197;30525,301;19,92197
 339,43; 6170,104;  157,197;30473,265;19,83406
 340,02; 6127,584;  168,582;30301,347;19,77582
 340,61; 6142,877;  158,428;30447,009;19,75810
 341,21; 6130,180;  206,274;30485,003;19,56458
 341,80; 6098,484;  173,197;30393,691;19,60685
 342,40; 6098,336;  165,428;30508,153;19,55298
 342,99; 6082,720;  163,736;30672,928;19,40066
 343,58; 6106,043;  168,351;30852,069;19,35128
 344,18; 6139,000;  174,197;31058,459;19,31340
 344,77; 6131,328;  160,889;31360,896;19,13602
 345,36; 6228,080;  140,966;31824,885;19,21200
 345,96; 6312,291;  184,043;32059,395;19,22566
 346,55; 6316,047;  163,890;32437,166;19,06270
 347,14; 6345,208;  149,274;32826,988;18,96073
 347,74; 6402,908;  134,582;33245,559;18,93126
 348,33; 6585,730;  166,813;33966,786;18,99089
 348,92; 6699,277;  175,583;34647,951;18,92442
 349,52; 6768,230;  149,890;35150,713;18,90910
 350,11; 6799,525;  157,966;35334,352;18,88073
 350,70; 6827,390;  160,659;35388,173;18,92479
 351,29; 6704,622;  135,658;35090,372;18,79278
 351,89; 6753,105;  173,658;35177,782;18,79621
 352,48; 6714,134;  142,659;35197,568;18,74623
 353,07; 6666,001;  160,736;35083,376;18,62764
 353,67; 6677,781;  178,890;35005,158;18,66089
 354,26; 6597,524;  167,274;34726,113;18,60667
 354,85; 6546,391;  171,274;34533,751;18,55255
 355,45; 6525,434;  142,582;34330,205;18,67007
 356,04; 6497,572;  164,890;34307,459;18,54776
 356,63; 6482,677;  179,043;34034,219;18,61941
 357,22; 6448,933;  164,812;33846,692;18,65728
 357,82; 6411,938;  162,581;33687,197;18,64110
 358,41; 6352,274;  180,659;33502,491;18,52124
 359,00; 6309,189;  148,351;33273,236;18,59882
 359,60; 6318,363;  168,120;33191,121;18,62412
 360,19; 6287,255;  175,890;33021,117;18,60655
 360,78; 6267,902;  162,889;32772,267;18,72165
 361,37; 6268,628;  154,659;32572,996;18,85960
 361,97; 6204,326;  173,889;32486,917;18,66255
 362,56; 6145,329;  155,966;32014,805;18,79969
 363,15; 6173,595;  189,197;31691,067;18,99696
 363,74; 6055,624;  161,274;31418,021;18,85785
 364,34; 6031,762;  189,043;30932,689;19,00464
 364,93; 5929,048;  153,120;30395,858;19,09856
 365,52; 5854,704;  143,736;30064,811;19,08678
 366,11; 5816,659;  161,582;29743,130;19,11691
 366,71; 5688,052;  158,351;29204,485;19,03765
 367,30; 5674,371;  163,428;28772,328;19,26304
 367,89; 5658,810;  199,351;28622,666;19,20768
 368,48; 5625,153;  170,658;28178,096;19,47517
 369,07; 5534,160;  171,043;27760,327;19,43913
 369,67; 5474,998;  183,658;27444,956;19,40971
 370,26; 5410,612;  160,736;27075,248;19,50575
 370,85; 5378,234;  160,351;26821,071;19,57143
 371,44; 5385,198;  167,043;26615,862;19,72926
 372,03; 5336,617;  152,658;26269,045;19,84945
 372,63; 5262,122;  137,736;25954,970;19,84870
 373,22; 5263,297;  162,966;25610,494;20,04254
 373,81; 5177,380;  148,736;25247,484;20,03544
 374,40; 5200,902;  159,197;24987,436;20,30633
 374,99; 5159,014;  140,351;24717,444;20,42009
 375,59; 5127,023;  148,044;24349,892;20,57272
 376,18; 5162,091;  186,889;24267,566;20,66055
 376,77; 5138,761;  170,351;24000,435;20,84932
 377,36; 5106,978;  197,274;23986,312;20,63852
 377,95; 5115,428;  174,582;23649,867;21,04701
 378,55; 5101,504;  160,351;23466,883;21,20072
 379,14; 5096,277;  168,120;23379,649;21,23151
 379,73; 5084,495;  170,505;23286,173;21,25827
 380,32; 5172,257;  180,813;23283,734;21,60525
 380,91; 5124,862;  149,812;23099,468;21,67810
 381,50; 5207,901;  171,120;23048,150;22,01676
 382,10; 5203,719;  156,889;22974,273;22,11835
 382,69; 5189,560;  142,351;22882,736;22,19491
 383,28; 5230,285;  177,658;22790,856;22,34370
 383,87; 5213,421;  168,582;22710,068;22,38024
 384,46; 5253,168;  151,581;22677,627;22,64750
 385,05; 5309,431;  177,197;22642,179;22,84549
 385,64; 5311,582;  165,428;22705,207;22,83143
 386,24; 5309,792;  142,120;22645,399;22,96409
 386,83; 5437,247;  186,427;22618,260;23,40789
 387,42; 5496,265;  177,812;22772,358;23,53866
 388,01; 5604,744;  168,658;23051,584;23,75608
 388,60; 5700,867;  163,197;23344,535;23,88848
 389,19; 5773,928;  144,350;23523,601;24,07938
 389,78; 5881,771;  161,273;23860,090;24,13833
 390,37; 6101,106;  208,350;24368,082;24,39081
 390,96; 6153,964;  165,274;24562,757;24,54634
 391,56; 6275,497;  172,350;24588,165;24,99670
 392,15; 6375,162;  152,273;24974,428;25,06990
 392,74; 6391,711;  142,119;25152,900;24,98759
 393,33; 6596,088;  155,888;25422,700;25,48877
 393,92; 6769,993;  163,734;26023,518;25,54646
 394,51; 6835,260;  145,427;26179,289;25,69666
 395,10; 6994,635;  178,272;26398,099;25,99698
 395,69; 7052,562;  168,426;26501,989;26,14206
 396,28; 7150,456;  180,733;26670,518;26,31098
 396,87; 7207,087;  167,579;26690,495;26,54123
 397,46; 7312,880;  171,886;26806,867;26,81058
 398,06; 7443,053;  182,348;27061,734;27,01217
 398,65; 7494,253;  175,500;27133,720;27,14850
 399,24; 7594,723;  185,962;27326,145;27,29813
 399,83; 7640,809;  160,653;27355,790;27,50549
 400,42; 7745,254;  183,036;27517,177;27,66583
 401,01; 7848,624;  167,496;27637,897;27,96147
 401,60; 7884,207;  175,264;27650,356;28,05793
 402,19; 7940,761;  192,108;27498,901;28,37628
 402,78; 8009,621;  196,490;27587,235;28,52471
 403,37; 7990,296;  179,334;27355,096;28,74238
 403,96; 8012,683;  195,255;27210,715;28,93687
 404,55; 8029,973;  185,406;27006,667;29,24757
 405,14; 8026,138;  167,018;26923,474;29,37280
 405,73; 8033,865;  189,015;26719,659;29,56901
 406,32; 8060,772;  174,013;26758,283;29,66701
 406,91; 7999,815;  176,242;26376,733;29,86041
 407,50; 8062,474;  182,087;26206,333;30,28094
 408,09; 8002,099;  161,316;25865,726;30,50365
 408,68; 7957,412;  174,700;25712,892;30,47479
 409,27; 7946,662;  158,086;25475,338;30,76391
 409,86; 7961,783;  170,703;25386,944;30,89707
 410,45; 8013,192;  195,012;25335,928;31,09743
 411,04; 7962,171;  205,014;25176,578;31,06396
 411,63; 7886,750;  183,324;24835,835;31,24804
 412,22; 7869,988;  186,403;24610,232;31,45938
 412,81; 7841,442;  190,942;24314,971;31,71320
 413,40; 7735,776;  203,097;23917,493;31,76416
 413,99; 7691,720;  223,865;23552,539;32,01149
 414,58; 7532,020;  175,404;23127,269;32,05236
 415,17; 7528,784;  180,788;22902,085;32,33969
 415,76; 7511,650;  179,326;22787,167;32,43266
 416,35; 7484,401;  171,788;22547,639;32,68082
 416,94; 7549,984;  187,480;22647,273;32,78082
 417,53; 7654,679;  177,096;22929,200;32,86546
 418,12; 7680,055;  174,480;22941,237;32,96725
 418,71; 7814,740;  192,558;23416,393;32,82052
 419,30; 7924,000;  183,711;23499,485;33,19765
 419,89; 7999,582;  168,635;23672,564;33,31761
 420,48; 8148,859;  197,558;23996,170;33,41078
 421,07; 8241,647;  198,712;24121,029;33,62105
 421,66; 8222,584;  165,251;24123,199;33,63115
 422,25; 8252,966;  179,252;24057,444;33,81208
 422,84; 8268,420;  207,252;23981,666;33,90690
 423,43; 8187,992;  183,867;23641,425;34,12173
 424,02; 8120,318;  209,252;23360,823;34,17075
 424,60; 7949,931;  176,022;22896,260;34,21579
 425,19; 7907,749;  192,329;22515,582;34,56225
 425,78; 7867,370;  203,021;22553,920;34,29101
 426,37; 7816,414;  207,945;22403,315;34,27953
 426,96; 7838,294;  185,329;22186,660;34,78410
 427,55; 7750,303;  186,176;22054,224;34,58986
 428,14; 7717,086;  166,484;21703,464;35,05878
 428,73; 7670,723;  191,176;21606,163;34,92669
 429,32; 7652,707;  196,714;21629,006;34,78859
 429,91; 7712,457;  219,637;21572,447;35,09055
 430,50; 7683,965;  205,330;21383,891;35,31229
 431,08; 7611,764;  222,407;21230,317;35,17416
 431,67; 7634,025;  247,869;21148,467;35,33945
 432,26; 7565,903;  264,177;20848,571;35,47214
 432,85; 7417,701;  274,792;20434,026;35,43244
 433,44; 7321,923;  283,023;20003,455;35,69344
 434,03; 7196,353;  297,178;19563,537;35,80944
 434,62; 7044,819;  254,946;19179,864;35,87795
 435,21; 7033,135;  290,177;19042,249;35,95847
 435,79; 6933,891;  263,793;18856,990;35,87386
 436,38; 6939,339;  250,332;18691,737;36,27168
 436,97; 6877,882;  250,947;18642,582;36,03233
 437,56; 6799,446;  254,025;18351,865;36,16687
 438,15; 6779,353;  235,717;18377,146;36,07012
 438,74; 6846,230;  260,102;18385,903;36,33565
 439,33; 6794,012;  217,640;18320,525;36,32776
 439,91; 6822,663;  192,563;18428,673;36,35699
 440,50; 6889,123;  236,563;18595,687;36,23572
 441,09; 6926,924;  217,333;18592,446;36,51456
 441,68; 6918,571;  223,257;18627,250;36,37968
 442,27; 6869,520;  206,872;18582,693;36,25769
 442,86; 6875,853;  188,565;18552,215;36,41590
 443,44; 6911,237;  190,488;18634,592;36,43847
 444,03; 6988,322;  247,411;18634,232;36,66165
 444,62; 6881,698;  190,719;18500,645;36,54291
 445,21; 6806,190;  205,026;18266,318;36,54868
 445,80; 6853,945;  226,411;18152,187;36,97209
 446,39; 6714,393;  239,027;17863,787;36,74017
 446,97; 6641,597;  189,797;17675,944;36,89664
 447,56; 6545,219;  195,874;17426,605;36,84896
 448,15; 6481,863;  202,104;17234,244;36,87005
 448,74; 6404,877;  216,489;16946,706;36,98929
 449,33; 6307,940;  203,720;16837,137;36,69853
 449,91; 6213,584;  197,720;16571,969;36,73978
 450,50; 6120,281;  196,874;16352,158;36,66544
 451,09; 6134,551;  212,028;16194,380;37,05665
 451,68; 6093,012;  228,413;16106,125;36,93605
 452,26; 6068,925;  214,875;15981,176;37,13014
 452,85; 6026,093;  217,182;15846,246;37,16737
 453,44; 5985,165;  212,029;15903,695;36,79110
 454,03; 5987,414;  202,644;15906,960;36,83554
 454,61; 5971,607;  191,798;15898,889;36,79745
 455,20; 6080,845;  218,645;16022,343;37,09385
 455,79; 6063,590;  216,952;16018,447;37,00054
 456,38; 6047,862;  224,183;16123,486;36,62852
 456,97; 6095,748;  203,337;16212,360;36,80681
 457,55; 6121,333;  206,799;16181,497;37,02439
 458,14; 6134,889;  225,029;16148,192;37,11486
 458,73; 6036,237;  219,799;16057,076;36,72625
 459,31; 6132,449;  241,876;16120,625;37,09721
 459,90; 6153,681;  252,184;16294,142;36,78789
 460,49; 6202,576;  255,338;16293,941;37,08077
 461,08; 6186,969;  204,338;16456,660;36,81093
 461,66; 6201,672;  214,107;16525,378;36,70814
 462,25; 6255,175;  222,646;16612,370;36,80677
 462,84; 6298,412;  254,877;16583,162;37,01268
 463,43; 6246,658;  185,954;16564,634;37,00362
 464,01; 6242,307;  215,416;16600,833;36,78205
 464,60; 6234,887;  255,185;16541,332;36,71650
 465,19; 6129,840;  186,185;16280,073;36,93113
 465,77; 6129,830;  208,108;16224,816;36,97215
 466,36; 5992,590;  213,646;16079,451;36,42389
 466,95; 5906,211;  208,262;15675,404;36,83906
 467,53; 5790,562;  206,955;15353,045;36,86501
 468,12; 5689,611;  232,339;15045,237;36,84135
 468,71; 5610,146;  210,954;14836,132;36,91710
 469,29; 5460,249;  198,570;14501,362;36,78777
 469,88; 5372,138;  205,186;14282,025;36,70534
 470,47; 5440,206;  260,494;14413,224;36,59868
 471,06; 5416,838;  220,571;14387,442;36,67900
 471,64; 5451,885;  224,340;14464,133;36,71083
 472,23; 5431,970;  189,571;14523,674;36,57291
 472,81; 5439,824;  188,725;14656,674;36,29471
 473,40; 5513,653;  200,956;14772,748;36,45878
 473,99; 5633,670;  265,110;14980,228;36,48330
 474,57; 5616,868;  206,571;15143,530;36,22087
 475,16; 5669,872;  224,110;15394,527;35,89725
 475,75; 5713,684;  224,572;15414,590;36,13631
 476,33; 5764,037;  234,187;15502,849;36,21699
 476,92; 5795,958;  237,110;15605,929;36,16965
 477,51; 5800,813;  221,726;15663,640;36,12951
 478,09; 5756,078;  217,803;15644,369;35,90089
 478,68; 5718,687;  238,572;15603,456;35,66650
 479,27; 5782,615;  240,956;15674,837;35,90580
 479,85; 5777,988;  219,803;15637,978;36,04956
 480,44; 5749,494;  208,110;15856,166;35,41260
 481,02; 6401,661;  219,188;17968,451;34,83228
 481,61; 7122,760;  248,264;19970,767;34,85610
 482,20; 7526,088;  235,341;21240,690;34,70900
 482,78; 7797,855;  267,033;22083,887;34,51837
 483,37; 7975,121;  256,957;22430,942;34,80729
 483,95; 8113,861;  285,419;22760,871;34,83108
 484,54; 8150,933;  297,034;22980,650;34,62367
 485,13; 8048,119;  249,111;22742,125;34,67302
 485,71; 7993,124;  236,034;22475,039;34,88056
 486,30; 7855,312;  279,111;22180,537;34,59227
 486,88; 7715,940;  295,881;21674,398;34,70802
 487,47; 7416,184;  283,573;20857,412;34,66835
 488,05; 7049,391;  272,419;19825,109;34,66005
 488,64; 6574,223;  276,881;18192,310;35,15038
 489,23; 5785,062;  285,035;15745,010;35,57592
 489,81; 5077,708;  281,035;13849,581;35,35141
 490,40; 4827,303;  232,420;13397,359;34,90243
 490,98; 4747,049;  221,497;13073,242;35,21352
 491,57; 4712,018;  255,804;13059,061;34,80531
 492,15; 4659,132;  235,420;12974,733;34,72489
 492,74; 4623,287;  234,650;12846,903;34,79661
 493,32; 4596,085;  243,881;12749,573;34,80178
 493,91; 4509,587;  240,420;12637,603;34,43659
 494,50; 4480,622;  243,420;12650,727;34,15085
 495,08; 4422,119;  215,420;12512,058;34,21015
 495,67; 4421,683;  247,112;12491,178;34,09464
 496,25; 4347,908;  184,574;12416,349;34,03704
 496,84; 4364,650;  204,728;12390,787;34,13673
 497,42; 4310,313;  200,497;12326,303;33,89314
 498,01; 4299,886;  215,728;12255,632;33,92185
 498,59; 4255,986;  190,036;12186,805;33,89205
 499,18; 4218,277;  187,651;12114,924;33,79336
 499,76; 4211,104;  216,189;11966,896;33,99723
 500,35; 4103,855;  204,036;11786,830;33,66907
 500,93; 4054,913;  196,113;11749,085;33,40093
 501,52; 4050,867;  195,959;11697,027;33,51783
 502,10; 4050,144;  211,498;11619,679;33,64819
 502,69; 3948,990;  191,882;11415,840;33,47400
 503,27; 3838,792;  186,805;11186,637;33,20038
 503,86; 3840,241;  192,036;11204,325;33,12849
 504,44; 3791,515;  179,113;11002,449;33,37605
 505,03; 3698,600;  170,113;10733,959;33,40154
 505,61; 3619,330;  170,729;10617,000;33,01275
 506,19; 3576,601;  205,806;10445,759;32,91807
 506,78; 3482,181;  173,498;10168,059;33,10483
 507,36; 3437,619;  190,959;10037,887;32,97129
 507,95; 3383,284;  189,883; 9848,550;33,06254
 508,53; 3334,361;  184,114; 9732,004;32,99417
 509,12; 3272,081;  197,037; 9524,512;32,96760
 509,70; 3199,274;  200,729; 9443,900;32,44065
 510,29; 3161,307;  206,499; 9226,253;32,75930
 510,87; 3067,498;  175,652; 9074,139;32,49817
 511,46; 3025,571;  180,575; 8843,750;32,84010
 512,04; 2959,279;  196,883; 8702,130;32,47873
 512,62; 2907,989;  185,883; 8533,403;32,60976
 513,21; 2835,785;  167,422; 8325,086;32,70989
 513,79; 2788,304;  178,961; 8262,228;32,28080
 514,38; 2720,510;  159,191; 8057,646;32,42810
 514,96; 2731,264;  194,884; 7984,845;32,55960
 515,54; 2618,865;  167,038; 7780,852;32,20235
 516,13; 2614,905;  187,807; 7717,258;32,23473
 516,71; 2536,586;  185,499; 7564,707;31,86096
 517,30; 2498,046;  173,884; 7383,421;32,23732
 517,88; 2500,277;  185,346; 7380,376;32,17403
 518,46; 2399,477;  182,730; 7217,165;31,51279
 519,05; 2402,811;  173,346; 7161,810;31,90207
 519,63; 2414,166;  188,192; 7105,007;32,18206
 520,22; 2358,704;  193,962; 7021,946;31,70397
 520,80; 2317,634;  171,808; 6988,162;31,48055
 521,38; 2340,502;  206,192; 6901,977;31,87542
 521,97; 2276,429;  172,270; 6909,575;31,23147
 522,55; 2278,173;  188,270; 6874,201;31,25822
 523,13; 2250,030;  175,962; 6833,198;31,15509
 523,72; 2250,016;  171,115; 6841,505;31,16612
 524,30; 2308,920;  204,808; 7000,123;30,96415
 524,89; 2275,667;  167,193; 7005,329;30,83404
 525,47; 2318,113;  192,885; 7125,620;30,65496
 526,05; 2330,392;  159,193; 7138,613;31,10860
 526,64; 2343,575;  191,501; 7231,768;30,56808
 527,22; 2373,609;  188,424; 7391,074;30,33863
 527,80; 2414,628;  223,501; 7539,195;29,95105
 528,39; 2432,040;  183,809; 7687,979;29,95976
 528,97; 2483,001;  180,193; 7809,328;30,18439
 529,55; 2526,662;  198,962; 8015,293;29,77996
 530,14; 2599,950;  204,886; 8249,588;29,77194
 530,72; 2592,573;  189,116; 8305,827;29,61122
 531,30; 2607,034;  169,424; 8459,496;29,40396
 531,89; 2615,094;  191,501; 8534,631;29,04896
 532,47; 2695,440;  213,040; 8625,173;29,50976
 533,05; 2696,363;  207,270; 8632,158;29,54453
 533,63; 2684,207;  211,424; 8749,848;28,96064
 534,22; 2720,001;  188,501; 8791,222;29,42674
 534,80; 2722,340;  208,655; 8853,756;29,07640
 535,38; 2799,835;  275,886; 8898,008;29,27295
 535,97; 2700,568;  206,578; 8900,999;28,68494
 536,55; 2736,432;  243,040; 8965,481;28,58594
 537,13; 2723,009;  254,270; 8946,000;28,40331
 537,71; 2764,002;  292,193; 9061,938;28,18564
 538,30; 2799,510;  307,963; 9077,428;28,41162
 538,88; 2836,482;  341,040; 9183,698;28,22050
 539,46; 2885,391;  399,271; 9398,690;27,62534
 540,05; 2939,923;  408,348; 9550,944;27,68989
 540,63; 3032,443;  458,655; 9772,278;27,63466
 541,21; 3052,940;  477,579; 9910,233;27,30262
 541,79; 3091,923;  510,579;10030,445;27,11534
 542,38; 3173,146;  546,117;10221,344;27,15212
 542,96; 3175,742;  549,117;10407,554;26,64342
 543,54; 3234,711;  565,425;10603,450;26,59175
 544,12; 3227,759;  536,809;10752,456;26,34145
 544,70; 3238,151;  502,194;10843,896;26,45558
 545,29; 3274,112;  515,655;10970,737;26,38388
 545,87; 3267,000;  498,963;10975,829;26,42047
 546,45; 3220,455;  465,502;11027,299;26,08413
 547,03; 3240,303;  422,886;11113,555;26,35398
 547,62; 3268,905;  401,271;11293,363;26,32767
 548,20; 3310,667;  408,502;11475,233;26,22423
 548,78; 3296,386;  372,887;11560,463;26,13165
 549,36; 3321,303;  348,579;11804,510;25,94921
 549,94; 3353,842;  300,886;11939,025;26,23233
 550,53; 3407,751;  316,887;12176,495;26,06211
 551,11; 3407,312;  283,733;12333,782;25,92171
 551,69; 3501,004;  286,810;12701,743;25,88974
 552,27; 3516,372;  254,810;12968,716;25,65350
 552,85; 3608,432;  251,349;13359,822;25,61003
 553,44; 3670,808;  255,964;13683,196;25,43223
 554,02; 3783,436;  266,195;14035,057;25,54490
 554,60; 3774,696;  202,887;14335,565;25,27340
 555,18; 3906,286;  265,810;14769,183;25,10089
 555,76; 3970,753;  230,964;15101,336;25,14926
 556,34; 4032,524;  232,426;15500,831;24,88864
 556,93; 4114,293;  213,964;15928,892;24,81926
 557,51; 4183,959;  202,349;16232,502;24,83826
 558,09; 4257,576;  225,964;16663,672;24,52661
 558,67; 4346,011;  228,964;17046,783;24,48027
 559,25; 4405,110;  219,349;17289,914;24,52034
 559,83; 4454,843;  222,041;17666,482;24,26447
 560,41; 4520,296;  221,118;18092,111;24,05674
 561,00; 4586,028;  225,041;18387,571;24,01090
 561,58; 4623,365;  214,195;18606,710;23,97263
 562,16; 4727,492;  205,964;18977,926;24,08660
 562,74; 4709,846;  204,579;19399,816;23,47076
 563,32; 4817,732;  190,041;19853,753;23,53417
 563,90; 4907,558;  219,503;20234,754;23,42242
 564,48; 5006,145;  216,580;20709,776;23,37149
 565,06; 5127,406;  217,964;21330,740;23,25342
 565,65; 5288,831;  211,965;22108,701;23,18549
 566,23; 5489,823;  256,580;22934,406;23,07648
 566,81; 5603,153;  211,580;23718,492;22,93612
 567,39; 5782,737;  221,888;24719,674;22,69940
 567,97; 5926,595;  228,811;25351,994;22,67939
 568,55; 6164,203;  232,811;26207,678;22,83512
 569,13; 6249,720;  217,272;26990,385;22,53174
 569,71; 6464,766;  203,118;27980,119;22,54256
 570,29; 6725,866;  242,656;29092,807;22,47202
 570,87; 6885,845;  244,502;29913,214;22,38500
 571,45; 6988,944;  241,503;30550,093;22,26247
 572,03; 6997,760;  195,195;31007,646;22,07733
 572,61; 7182,853;  203,503;31830,593;22,06763
 573,20; 7327,565;  224,195;32535,115;21,98443
 573,78; 7452,356;  213,272;33207,570;21,94041
 574,36; 7517,274;  226,964;33632,418;21,82371
 574,94; 7590,014;  261,657;33911,771;21,77811
 575,52; 7597,853;  235,427;34266,879;21,63418
 576,10; 7705,321;  280,965;34851,132;21,47619
 576,68; 7801,274;  254,811;35575,810;21,36537
 577,26; 7927,727;  284,965;36289,971;21,22694
 577,84; 8014,537;  289,965;36750,654;21,18603
 578,42; 8060,198;  316,657;37033,112;21,09011
 579,00; 8006,287;  271,426;37053,464;21,02891
 579,58; 8019,749;  311,657;37332,472;20,82097
 580,16; 7999,503;  285,042;37284,248;20,85034
 580,74; 7970,237;  284,426;37554,224;20,62209
 581,32; 7956,550;  296,196;37586,676;20,54239
 581,90; 7887,076;  310,196;37581,009;20,32926
 582,48; 7866,358;  307,426;37677,757;20,22709
 583,06; 7898,423;  300,811;37746,037;20,28994
 583,64; 7862,536;  304,349;37780,599;20,16794
 584,22; 7747,226;  313,350;37545,859;19,96609
 584,80; 7616,787;  307,503;37180,475;19,82288
 585,38; 7536,448;  319,349;36758,709;19,80578
 585,96; 7471,824;  294,888;36902,600;19,60498
 586,54; 7416,186;  315,504;36956,176;19,37924
 587,12; 7379,098;  282,580;37117,071;19,26596
 587,70; 7403,250;  311,195;37185,499;19,23305
 588,28; 7382,526;  302,042;37143,111;19,21900
 588,86; 7360,608;  300,811;37268,571;19,09717
 589,44; 7294,053;  280,735;37308,523;18,94069
 590,02; 7285,946;  291,119;37426,182;18,83618
 590,59; 7278,144;  266,580;37666,399;18,74759
 591,17; 7306,498;  269,889;37827,013;18,73575
 591,75; 7244,671;  256,965;37972,087;18,52760
 592,33; 7260,530;  275,888;38186,632;18,42391
 592,91; 7250,485;  230,581;38399,691;18,39158
 593,49; 7291,170;  240,581;38748,375;18,30951
 594,07; 7307,050;  246,735;38931,213;18,25103
 594,65; 7242,484;  265,504;38898,142;18,05981
 595,23; 7282,271;  257,811;39352,694;17,96772
 595,81; 7241,199;  249,581;39469,737;17,82659
 596,39; 7250,147;  245,581;39543,926;17,82407
 596,97; 7245,545;  241,504;39798,288;17,70630
 597,55; 7209,258;  237,811;39651,571;17,68785
 598,12; 7131,636;  246,120;39626,649;17,48457
 598,70; 7146,380;  228,043;39852,344;17,45983
 599,28; 7093,405;  251,119;39977,257;17,22364
 599,86; 7061,910;  234,350;40039,943;17,15226
 600,44; 7001,641;  208,966;40177,255;16,99516
 601,02; 7055,588;  259,966;40228,736;17,00233
 601,60; 7003,328;  237,812;40202,710;16,92865
 602,18; 6928,996;  217,735;40097,307;16,82882
 602,75; 6857,465;  215,119;40249,607;16,59156
 603,33; 6859,960;  236,889;40295,737;16,53336
 603,91; 6818,048;  223,043;40138,357;16,52249
 604,49; 6854,267;  250,658;40288,167;16,49356
 605,07; 6783,483;  251,042;40263,127;16,32617
 605,65; 6763,357;  260,273;40471,874;16,17216
 606,23; 6739,035;  331,657;40515,733;15,94507
 606,80; 6759,371;  361,196;40525,896;15,92985
 607,38; 6692,418;  397,889;40587,125;15,66223
 607,96; 6659,021;  454,350;40587,503;15,46021
 608,54; 6703,417;  511,197;40653,470;15,42568
 609,12; 6608,781;  512,581;40764,347;15,14518
 609,70; 6631,304;  552,966;40734,177;15,12732
 610,27; 6598,408;  555,042;40801,490;15,01590
 610,85; 6544,604;  551,196;40905,160;14,85209
 611,43; 6486,833;  557,812;40867,604;14,70864
 612,01; 6384,467;  517,350;40518,863;14,66724
 612,59; 6408,757;  522,427;40590,898;14,69068
 613,16; 6310,243;  480,657;40654,339;14,51096
 613,74; 6236,370;  453,658;40488,188;14,44431
 614,32; 6172,562;  417,350;40340,468;14,41574
 614,90; 6101,685;  384,812;40241,242;14,34367
 615,48; 5987,805;  331,042;39964,541;14,27268
 616,05; 5965,365;  308,811;39898,288;14,28802
 616,63; 5876,540;  318,273;39639,727;14,13546
 617,21; 5807,861;  332,658;39528,903;13,96869
 617,79; 5762,258;  301,581;39520,040;13,92374
 618,36; 5750,466;  312,042;39418,339;13,90677
 618,94; 5617,641;  249,042;39104,815;13,81673
 619,52; 5584,641;  275,119;38882,576;13,75258
 620,10; 5523,285;  266,735;38715,509;13,67157
 620,67; 5450,489;  275,042;38774,563;13,44289
 621,25; 5450,243;  291,119;38557,432;13,48215
 621,83; 5396,726;  268,581;38479,478;13,42064
 622,41; 5382,642;  307,581;38411,001;13,31917
 622,98; 5294,959;  285,888;38252,334;13,19342
 623,56; 5275,303;  286,196;38230,543;13,14849
 624,14; 5229,444;  267,196;38002,253;13,15023
 624,72; 5215,846;  267,119;37973,980;13,12421
 625,29; 5139,483;  248,811;38047,764;12,93864
 625,87; 5173,121;  293,042;38038,366;12,92896
 626,45; 5061,126;  247,119;37783,187;12,82502
 627,02; 5044,846;  251,735;37628,141;12,82390
 627,60; 5002,137;  242,350;37684,324;12,71244
 628,18; 4967,012;  241,273;37768,578;12,59280
 628,76; 4937,770;  230,427;37731,465;12,55257
 629,33; 4917,499;  258,580;37792,406;12,41259
 629,91; 4860,516;  256,888;37646,970;12,31243
 630,49; 4889,322;  266,504;37850,895;12,29984
 631,06; 4861,820;  260,580;37942,027;12,21089
 631,64; 4831,245;  250,426;37932,856;12,15638
 632,22; 4773,790;  215,734;37806,724;12,12539
 632,79; 4830,046;  246,426;38100,867;12,10854
 633,37; 4808,211;  225,273;38199,535;12,06854
 633,95; 4754,990;  231,273;38183,468;11,91952
 634,52; 4759,881;  220,042;38426,202;11,88248
 635,10; 4733,441;  219,658;38358,111;11,83525
 635,68; 4763,875;  230,811;38613,772;11,81009
 636,25; 4721,585;  216,426;38579,276;11,74355
 636,83; 4707,616;  202,580;38728,080;11,69365
 637,41; 4660,852;  211,888;38767,877;11,53897
 637,98; 4705,827;  234,042;38993,842;11,53717
 638,56; 4693,665;  219,272;39084,864;11,51248
 639,13; 4652,729;  221,734;39174,443;11,37532
 639,71; 4710,555;  251,273;39337,189;11,40892
 640,29; 4567,791;  189,965;39119,223;11,24559
 640,86; 4583,994;  202,350;39287,655;11,21047
 641,44; 4589,736;  204,888;39340,471;11,20425
 642,02; 4586,016;  237,965;39258,826;11,14289
 642,59; 4501,065;  213,350;39387,719;10,94521
 643,17; 4513,345;  212,119;39379,920;10,98154
 643,74; 4488,164;  210,504;39459,352;10,89882
 644,32; 4492,521;  227,119;39378,938;10,89452
 644,89; 4464,877;  225,119;39367,062;10,83175
 645,47; 4434,465;  246,196;39331,417;10,71574
 646,05; 4407,437;  218,888;39319,925;10,71212
 646,62; 4401,948;  228,965;39372,588;10,66070
 647,20; 4381,613;  232,888;39402,635;10,59166
 647,77; 4329,277;  193,965;39253,605;10,58717
 648,35; 4312,327;  197,734;39207,191;10,54768
 648,92; 4288,222;  235,811;39205,238;10,39895
 649,50; 4247,810;  196,042;39167,978;10,39663
 650,08; 4235,936;  190,504;39030,871;10,41554
 650,65; 4221,370;  194,273;39391,841;10,27384
 651,23; 4350,342;  188,888;40426,042;10,34232
 651,80; 4398,391;  184,504;41327,243;10,24212
 652,38; 4446,825;  208,042;41660,444;10,22566
 652,95; 4434,028;  190,427;42079,184;10,13065
 653,53; 4469,693;  198,196;42293,846;10,14712
 654,10; 4493,665;  225,196;42352,740;10,13225
 654,68; 4441,945;  193,427;42393,402;10,06758
 655,25; 4462,225;  192,427;42359,219;10,12597
 655,83; 4419,890;  191,427;42474,266;10,00042
 656,40; 4443,093;  226,427;42427,467; 9,99185
 656,98; 4398,911;  192,735;42242,129;10,00294
 657,55; 4375,037;  206,888;42173,407; 9,93208
 658,13; 4279,240;  181,273;41698,454; 9,87053
 658,70; 4252,059;  207,812;41351,656; 9,82953
 659,28; 4119,339;  206,196;40187,549; 9,78742
 659,85; 4018,234;  201,658;39548,750; 9,69977
 660,43; 3986,514;  223,735;39614,412; 9,55246
 661,00; 3957,410;  203,273;39858,690; 9,46689
 661,58; 3987,690;  186,658;40191,430; 9,50145
 662,15; 3980,585;  182,581;40429,015; 9,43687
 662,73; 4106,634;  238,965;40668,755; 9,56638
 663,30; 3993,299;  196,965;40872,571; 9,33319
 663,88; 4067,194;  204,735;41060,772; 9,45383
 664,45; 4033,936;  188,658;41364,743; 9,33862
 665,03; 4054,216;  199,812;41705,867; 9,28637
 665,60; 4186,650;  256,042;42058,991; 9,40270
 666,17; 4111,237;  199,735;42310,730; 9,28855
 666,75; 4154,056;  201,042;42626,085; 9,31764
 667,32; 4196,566;  217,658;42924,748; 9,31674
 667,90; 4181,846;  211,196;43205,103; 9,23538
 668,47; 4222,665;  220,735;43481,227; 9,25077
 669,05; 4212,099;  194,427;43837,428; 9,20576
 669,62; 4198,456;  182,966;43827,475; 9,20045
 670,19; 4192,043;  179,042;43903,676; 9,17789
 670,77; 4232,016;  199,350;44081,646; 9,18973
 671,34; 4229,373;  192,043;44029,078; 9,20986
 671,92; 4232,114;  183,812;44422,741; 9,15100
 672,49; 4222,086;  202,427;44412,249; 9,09223
 673,06; 4217,443;  168,735;44470,527; 9,13893
 673,64; 4206,339;  176,658;44374,574; 9,11735
 674,21; 4166,849;  179,196;44332,545; 9,03137
 674,79; 4206,129;  194,427;44712,130; 9,01148
 675,36; 4217,794;  204,658;44691,562; 9,02094
 675,93; 4203,151;  182,812;44607,686; 9,04975
 676,51; 4247,585;  205,120;44758,887; 9,07323
 677,08; 4251,865;  204,350;44770,473; 9,08204
 677,65; 4198,606;  207,350;44997,289; 8,91105
 678,23; 4234,271;  200,120;45220,490; 8,96072
 678,80; 4219,397;  192,658;45409,153; 8,90546
 679,38; 4229,985;  180,043;45516,123; 8,93315
 679,95; 4295,034;  196,273;45780,093; 8,99170
 680,52; 4256,699;  188,273;46156,987; 8,85042
 681,10; 4313,363;  195,427;46372,034; 8,91780
 681,67; 4338,182;  196,812;46758,466; 8,89438
 682,24; 4330,846;  178,889;46751,667; 8,91499
 682,82; 4380,895;  190,350;47447,252; 8,86758
 683,39; 4442,252;  222,197;47756,992; 8,87782
 683,96; 4401,302;  192,966;48020,501; 8,79898
 684,54; 4403,889;  169,889;48379,163; 8,78254
 685,11; 4492,400;  214,966;48699,441; 8,82228
 685,68; 4471,218;  204,120;49063,488; 8,73343
 686,25; 4452,652;  179,812;49106,766; 8,73310
 686,83; 4493,086;  186,812;49313,506; 8,76565
 687,40; 4536,751;  182,812;49672,630; 8,79765
 687,97; 4573,415;  218,043;50095,677; 8,73212
 688,55; 4529,234;  172,581;50087,493; 8,72816
 689,12; 4550,591;  165,197;50476,156; 8,71658
 689,69; 4590,486;  178,351;50406,280; 8,78423
 690,26; 4580,074;  174,889;50529,250; 8,74837
 690,84; 4610,123;  179,658;50761,374; 8,75902
 691,41; 4604,095;  197,427;50830,268; 8,70318
 691,98; 4649,221;  191,812;51103,469; 8,75518
 692,56; 4630,194;  178,504;51218,362; 8,72199
 693,13; 4700,781;  238,889;51178,563; 8,75917
 693,70; 4686,446;  205,889;51408,149; 8,75070
 694,27; 4662,726;  176,581;51558,580; 8,73097
 694,84; 4716,544;  182,351;51652,089; 8,80944
 695,42; 4752,286;  221,120;51597,521; 8,81955
 695,99; 4737,797;  189,428;51860,645; 8,80252
 696,56; 4736,846;  175,197;51781,846; 8,83927
 697,13; 4785,741;  195,889;52116,893; 8,84007
 697,71; 4779,560;  167,274;52217,248; 8,86126
 698,28; 4835,686;  187,197;52507,295; 8,88471
 698,85; 4789,812;  152,735;52560,650; 8,84805
 699,42; 4795,631;  176,505;52729,236; 8,78951
 699,99; 4877,449;  197,658;52862,437; 8,88600
 700,57; 4875,960;  202,428;52872,792; 8,87317
 701,14; 4870,624;  175,966;52889,685; 8,90595
 701,71; 4912,674;  196,735;53186,578; 8,89970
 702,28; 4894,415;  183,274;53135,010; 8,89705
 702,85; 4905,157;  190,197;53235,673; 8,88852
 703,43; 4968,052;  201,735;53567,412; 8,93143
 704,00; 4964,486;  216,197;53752,613; 8,86927
 704,57; 4992,997;  200,658;53756,507; 8,94830
 705,14; 5031,200;  227,812;53921,708; 8,94587
 705,71; 5032,787;  229,351;53972,524; 8,93776
 706,28; 5010,914;  205,812;53836,417; 8,95963
 706,86; 5090,424;  243,966;54208,388; 8,98084
 707,43; 5092,935;  246,735;54119,358; 8,99566
 708,00; 5056,754;  224,966;54205,790; 8,95093
 708,57; 5069,418;  206,889;53966,298; 9,04498
 709,14; 5092,544;  228,735;54224,576; 9,00775
 709,71; 5067,594;  210,812;54160,008; 9,00251
 710,28; 5116,412;  203,274;54413,517; 9,06312
 710,86; 5120,307;  220,659;54615,410; 9,00758
 711,43; 5179,433;  226,736;54592,611; 9,10994
 712,00; 5157,021;  209,274;54738,197; 9,07362
 712,57; 5201,224;  207,889;54805,629; 9,14568
 713,14; 5202,120;  194,505;54915,830; 9,15112
 713,71; 5219,938;  213,812;54751,031; 9,17928
 714,28; 5234,833;  204,043;54965,462; 9,18674
 714,85; 5201,960;  184,736;54614,433; 9,21781
 715,42; 5239,624;  205,813;54796,480; 9,22101
 716,00; 5308,981;  240,889;54925,296; 9,26789
 716,57; 5278,953;  196,659;55051,267; 9,26503
 717,14; 5252,926;  184,197;55061,544; 9,23647
 717,71; 5255,052;  175,659;55038,669; 9,25832
 718,28; 5325,947;  212,582;55201,023; 9,29898
 718,85; 5312,996;  184,890;55088,994; 9,34012
 719,42; 5379,123;  203,274;55255,425; 9,40172
 719,99; 5354,556;  185,890;55139,242; 9,40555
 720,56; 5410,913;  190,736;55352,520; 9,46340
 721,13; 5382,732;  189,274;55473,182; 9,39416
 721,70; 5397,089;  179,582;55344,460; 9,45802
 722,27; 5427,446;  204,351;55323,123; 9,47607
 722,84; 5505,187;  231,351;55580,709; 9,52827
 723,41; 5440,313;  188,428;55544,910; 9,48739
 723,98; 5466,439;  206,582;55718,034; 9,47527
 724,55; 5549,258;  212,967;55811,158; 9,59796
 725,12; 5481,461;  152,043;55726,205; 9,58974
 725,69; 5587,741;  191,813;55993,021; 9,66991
 726,27; 5565,867;  196,582;56056,607; 9,61204
 726,84; 5636,301;  194,659;56335,116; 9,69291
 727,41; 5662,427;  201,197;56236,317; 9,74608
 727,98; 5716,015;  209,890;56581,287; 9,76759
 728,55; 5703,449;  219,659;56459,488; 9,75072
 729,12; 5730,652;  170,428;56522,304; 9,86697
 729,69; 5779,316;  208,428;56703,275; 9,86088
 730,26; 5825,519;  220,197;56955,706; 9,87974
 730,82; 5771,261;  188,736;56848,677; 9,85268
 731,39; 5814,541;  195,505;56936,955; 9,90288
 731,96; 5833,052;  177,659;57276,540; 9,90456
 732,53; 5953,485;  205,659;57489,203;10,03399
 733,10; 5949,150;  204,967;57472,942;10,03036
 733,67; 5984,122;  202,351;57720,836;10,05202
 734,24; 5933,095;  189,890;57335,344;10,05015
 734,81; 5986,529;  224,274;57488,238;10,06262
 735,38; 5986,193;  199,044;57064,516;10,17691
 735,95; 5970,550;  196,582;57047,563;10,15632
 736,52; 6015,138;  211,659;57259,072;10,17308
 737,09; 6022,418;  207,044;56841,811;10,26821
 737,66; 6103,236;  243,351;57003,089;10,32402
 738,23; 6053,747;  212,967;57072,290;10,27234
 738,80; 6164,181;  237,967;57224,414;10,39934
 739,37; 6139,999;  225,890;57565,538;10,31417
 739,94; 6184,048;  210,044;57662,201;10,39823
 740,51; 6282,944;  281,044;57624,633;10,46656
 741,07; 6205,532;  195,813;57570,603;10,47449
 741,64; 6298,658;  236,659;57748,342;10,54046
 742,21; 6287,168;  197,351;57784,774;10,57491
 742,78; 6288,756;  172,890;57592,975;10,65109
 743,35; 6318,575;  202,044;57862,022;10,60793
 743,92; 6383,855;  232,967;57863,300;10,67300
 744,49; 6394,981;  210,736;57890,270;10,72173
 745,06; 6397,876;  196,659;57883,933;10,74971
 745,63; 6428,618;  184,121;57887,673;10,82169
 746,19; 6455,744;  194,890;57883,489;10,85284
 746,76; 6440,947;  204,121;57854,844;10,81830
 747,33; 6504,919;  193,505;57855,506;10,94553
 747,90; 6584,430;  218,890;58128,477;10,99220
 748,47; 6572,941;  224,890;57917,755;11,00318
 749,04; 6563,374;  217,582;57928,186;10,99589
 749,61; 6638,424;  225,275;57930,618;11,11361
 750,17; 6650,011;  231,890;58048,204;11,10088
 750,74; 6693,214;  216,736;57886,328;11,23032
 751,31; 6654,418;  193,582;57814,144;11,21272
 751,88; 6676,851;  182,429;57683,653;11,29441
 752,45; 6703,516;  202,505;57890,623;11,26924
 753,02; 6731,104;  207,429;57675,055;11,35191
 753,58; 6691,614;  185,813;57587,102;11,33389
 754,15; 6762,587;  187,582;57867,688;11,39909
 754,72; 6729,790;  191,736;57590,581;11,39057
 755,29; 6712,993;  191,121;57369,244;11,40624
 755,86; 6772,196;  202,813;57576,214;11,45022
 756,42; 6824,245;  205,813;57391,030;11,57368
 756,99; 6835,371;  177,275;57450,231;11,62520
 757,56; 6806,344;  197,583;57420,202;11,54921
 758,13; 6781,547;  157,967;57159,095;11,62009
 758,70; 6872,673;  180,659;57218,681;11,73255
 759,26; 6884,568;  179,506;57355,728;11,72701
 759,83; 6905,079;  184,659;57453,698;11,73482
 760,40; 6902,282;  170,044;57199,591;11,80482
 760,97; 6944,408;  166,813;57254,408;11,87227
 761,53; 6904,304;  150,275;56895,686;11,90233
 762,10; 6925,122;  161,660;56964,964;11,90681
 762,67; 6990,248;  191,660;56804,626;12,00889
 763,24; 6907,374;  148,583;56295,981;12,03759
 763,80; 7022,808;  178,044;56531,798;12,14607
 764,37; 7032,011;  179,813;56466,768;12,17369
 764,94; 6988,753;  168,736;55931,584;12,23039
 765,50; 6987,340;  164,352;55935,554;12,23389
 766,07; 7103,313;  206,352;56058,986;12,34850
 766,64; 7039,977;  177,121;55645,341;12,37259
 767,21; 7046,873;  171,890;55546,850;12,41533
 767,77; 7106,076;  203,044;55444,205;12,49617
 768,34; 7101,740;  193,737;55432,560;12,50570
 768,91; 7149,867;  192,583;55187,530;12,65077
 769,47; 7157,377;  198,813;55212,039;12,64889
 770,04; 7216,888;  206,506;55181,624;12,75192
 770,61; 7162,860;  174,660;54959,364;12,75575
 771,18; 7154,448;  170,198;54780,488;12,78926
 771,74; 7247,420;  194,429;54899,227;12,89282
 772,31; 7253,393;  197,044;54632,582;12,96276
 772,88; 7212,442;  168,044;54479,322;12,97041
 773,44; 7225,337;  185,044;54184,292;13,03776
 774,01; 7258,002;  193,814;54340,647;13,04636
 774,58; 7241,820;  178,275;53962,155;13,13320
 775,14; 7275,023;  169,198;54196,664;13,15225
 775,71; 7309,226;  176,506;54065,327;13,23599
 776,27; 7360,353;  220,275;53907,835;13,29931
 776,84; 7405,863;  238,044;53973,575;13,33907
 777,41; 7393,374;  196,967;53729,468;13,44306
 777,97; 7324,423;  187,737;53504,515;13,38544
 778,54; 7377,703;  198,275;53530,486;13,46171
 779,11; 7415,983;  213,352;53513,379;13,51337
 779,67; 7447,725;  171,737;53421,657;13,66385
 780,24; 7448,697;  199,352;53172,166;13,68503
 780,80; 7497,285;  199,121;53242,136;13,75895
 781,37; 7458,257;  202,891;53157,568;13,70109
 781,94; 7426,768;  192,429;52956,230;13,71080
 782,50; 7494,817;  200,044;52875,585;13,84850
 783,07; 7488,097;  219,660;53026,632;13,76416
 783,63; 7464,685;  191,583;52769,680;13,83295
 784,20; 7492,503;  211,045;52526,804;13,91829
 784,77; 7512,399;  201,198;52434,697;13,99715
 785,33; 7504,371;  181,737;52201,052;14,07676
 785,90; 7530,805;  192,198;52177,561;14,11668
 786,46; 7555,700;  217,275;51982,992;14,17623
 787,03; 7539,134;  179,045;51778,040;14,26402
 787,59; 7557,799;  186,045;51767,394;14,29151
 788,16; 7606,463;  212,429;51729,826;14,35250
 788,73; 7617,820;  204,814;51557,720;14,43542
 789,29; 7589,715;  194,891;51128,305;14,51861
 789,86; 7620,765;  201,583;51112,583;14,57285
 790,42; 7622,275;  200,737;50957,553;14,62176
 790,99; 7587,940;  222,737;50473,601;14,65687
 791,55; 7582,758;  191,660;50591,648;14,66488
 792,12; 7622,423;  213,891;50651,926;14,68838
 792,68; 7608,318;  197,737;50201,665;14,82000
 793,25; 7613,137;  206,737;49911,482;14,90079
 793,81; 7640,878;  239,199;49631,529;14,98548
 794,38; 7551,543;  181,583;49369,807;14,98318
 794,94; 7562,900;  195,429;49160,854;15,04627
 795,51; 7595,565;  213,583;49002,901;15,13032
 796,07; 7526,768;  207,660;48750,794;15,07753
 796,64; 7633,048;  222,122;48777,611;15,26280
 797,20; 7556,789;  212,814;48362,427;15,25241
 797,77; 7529,300;  194,660;48004,013;15,34143
 798,33; 7497,811;  192,276;47803,983;15,34399
 798,90; 7522,245;  221,045;47785,338;15,35017
 799,46; 7477,140;  200,583;47269,385;15,45940
 800,03; 7464,189;  206,352;47162,048;15,45678
 800,59; 7452,008;  218,891;46871,018;15,50437
 801,15; 7455,826;  214,891;46787,680;15,54757
 801,72; 7439,875;  201,968;46438,266;15,65417
 802,28; 7447,540;  235,506;46138,852;15,71135
 802,85; 7360,051;  214,122;45847,130;15,65956
 803,41; 7360,638;  198,353;45765,485;15,71810
 803,98; 7305,995;  200,122;45290,763;15,75909
 804,54; 7312,814;  212,122;45030,502;15,84326
 805,11; 7298,940;  216,737;44806,780;15,88292
 805,67; 7326,374;  231,276;44752,212;15,93654
 806,23; 7283,884;  210,737;44247,028;16,06209
 806,80; 7260,241;  235,276;44246,921;15,96161
 807,36; 7276,983;  231,199;44253,199;16,00514
 807,93; 7283,186;  229,814;43874,554;16,16087
 808,49; 7245,774;  195,968;43471,525;16,29050
 809,05; 7216,438;  183,968;43316,495;16,30433
 809,62; 7254,334;  232,660;43239,850;16,32674
 810,18; 7283,075;  226,122;43062,281;16,47429
 810,74; 7227,355;  177,891;42862,636;16,51518
 811,31; 7208,251;  181,507;42578,991;16,57349
 811,87; 7214,377;  205,353;42354,192;16,62922
 812,44; 7264,964;  235,199;42481,316;16,64003
 813,00; 7217,321;  158,353;42043,210;16,85327
 813,56; 7248,755;  217,276;42186,718;16,75381
 814,13; 7249,035;  210,122;42031,996;16,83070
 814,69; 7257,392;  218,968;41868,659;16,89910
 815,25; 7165,364;  176,814;41388,245;16,95780
 815,82; 7180,106;  230,430;41435,984;16,86587
 816,38; 7220,001;  228,045;41226,493;17,05420
 816,94; 7112,050;  194,199;40905,617;16,99241
 817,51; 7106,869;  193,353;40746,895;17,04787
 818,07; 7099,149;  205,507;40307,173;17,19041
 818,63; 7084,660;  212,661;40269,758;17,15551
 819,20; 7089,709;  208,584;40081,806;17,25751
 819,76; 7054,912;  197,353;39707,853;17,35630
 820,32; 7072,269;  231,891;39668,669;17,34517
 820,89; 7046,549;  235,045;39379,870;17,40078
 821,45; 7043,444;  197,276;39125,302;17,58673
 822,01; 7000,570;  216,584;38867,272;17,55205
 822,57; 7027,543;  224,353;38665,473;17,69769
 823,14; 6924,900;  186,738;38532,982;17,57190
 823,70; 6940,564;  193,814;38150,260;17,77498
 824,26; 6955,383;  206,353;38061,615;17,82851
 824,82; 6957,278;  218,738;37957,431;17,85579
 825,39; 6903,096;  198,276;37608,324;17,92251
 825,95; 6954,300;  225,045;37651,218;17,98008
 826,51; 6935,118;  215,738;37258,727;18,13941
 827,08; 6959,321;  240,815;37370,851;18,09453
 827,64; 6953,447;  218,968;37118,744;18,25073
 828,20; 6863,804;  191,584;36883,637;18,18437
 828,76; 6920,161;  225,276;36860,838;18,27428
 829,32; 6938,441;  230,968;36636,193;18,42448
 829,89; 6868,413;  194,353;36527,702;18,36897
 830,45; 6875,463;  199,815;36446,518;18,41726
 831,01; 6912,666;  200,968;36177,027;18,65601
 831,57; 6895,099;  203,892;36156,536;18,61117
 832,14; 6872,995;  203,276;36053,506;18,60440
 832,70; 6867,659;  200,815;35769,707;18,74347
 833,26; 6876,786;  181,738;35798,985;18,79721
 833,82; 6867,604;  196,738;35711,571;18,78332
 834,38; 6881,576;  195,045;35691,925;18,83695
 834,95; 6876,010;  203,815;35513,357;18,89630
 835,51; 6868,213;  164,122;35363,558;19,04602
 836,07; 6909,878;  198,353;35421,759;19,05416
 836,63; 6923,773;  222,815;35418,268;19,03927
 837,19; 6892,822;  200,353;35244,854;19,09706
 837,75; 6895,949;  178,045;34918,747;19,33727
 838,32; 6921,152;  224,430;35092,563;19,20585
 838,88; 6925,201;  219,199;35063,764;19,24547
 839,44; 6934,558;  199,661;35085,735;19,30540
 840,00; 6930,607;  196,430;34895,013;19,40764
 840,56; 6870,502;  192,507;34621,906;19,39620
 841,12; 6825,321;  181,584;34629,415;19,28637
 841,68; 6851,216;  175,276;34439,462;19,48373
 842,25; 6882,419;  194,969;34457,740;19,51813
 842,81; 6837,930;  186,584;34105,172;19,60974
 843,37; 6857,979;  167,892;34191,988;19,66279
 843,93; 6854,182;  195,738;34043,958;19,67148
 844,49; 6896,155;  198,276;34133,313;19,73735
 845,05; 6822,588;  157,738;33943,745;19,72666
 845,61; 6895,792;  204,046;33997,177;19,80209
 846,17; 6897,072;  190,430;33835,993;19,93321
 846,73; 6879,967;  210,584;33760,733;19,87885
 847,29; 6848,862;  177,969;33559,472;19,98380
 847,86; 6885,681;  186,046;33541,827;20,08538
 848,42; 6879,268;  184,276;33285,951;20,22554
 848,98; 6855,702;  194,892;33276,229;20,13465
 849,54; 6881,828;  182,892;33273,199;20,24441
 850,10; 6856,262;  193,430;33140,093;20,22309
 850,66; 6850,850;  175,353;32964,140;20,35908
 851,22; 6859,899;  175,969;32787,956;20,49532
 851,78; 6908,795;  221,507;32957,542;20,42791
 852,34; 6909,075;  204,815;32642,820;20,66792
 852,90; 6793,739;  191,815;32523,713;20,41923
 853,46; 6805,250;  182,892;32289,837;20,62594
 854,02; 6881,299;  197,969;32354,730;20,78359
 854,58; 6778,041;  190,353;32101,932;20,64356
 855,14; 6805,705;  175,507;32011,671;20,82600
 855,70; 6832,831;  162,046;31832,410;21,06318
 856,26; 6871,881;  210,200;31797,304;21,08988
 856,82; 6794,699;  186,661;31677,351;20,98410
 857,38; 6836,210;  205,738;31474,475;21,20480
 857,94; 6789,567;  191,584;31372,061;21,16062
 858,50; 6793,847;  199,584;31225,185;21,25426
 859,06; 6745,434;  181,200;31125,617;21,21299
 859,62; 6781,791;  201,354;31059,818;21,32458
 860,18; 6773,533;  192,892;30953,019;21,39341
 860,74; 6713,659;  164,815;30701,297;21,44597
 861,30; 6728,016;  174,969;30538,651;21,58186
 861,86; 6755,834;  221,354;30549,237;21,54612
 862,42; 6747,961;  194,584;30434,438;21,67132
 862,98; 6742,010;  218,200;30329,101;21,66594
 863,54; 6710,521;  203,892;30103,609;21,76150
 864,10; 6717,031;  193,969;30201,657;21,73797
 864,66; 6641,081;  175,661;29887,935;21,76010
 865,22; 6688,284;  193,892;29813,443;21,92603
 865,78; 6668,025;  201,892;29713,183;21,91071
 866,34; 6637,690;  181,661;29595,076;21,94927
 866,90; 6654,585;  199,508;29425,969;22,08641
 867,45; 6639,250;  197,277;29235,863;22,18418
 868,01; 6621,760;  197,969;29115,679;22,21404
 868,57; 6624,117;  191,277;28967,034;22,35507
 869,13; 6619,936;  179,200;28827,158;22,48236
 869,69; 6596,985;  186,815;28728,282;22,45915
 870,25; 6563,034;  175,277;28598,176;22,47398
 870,81; 6596,545;  191,738;28497,223;22,62744
 871,37; 6591,133;  196,277;28424,501;22,65412
 871,93; 6577,567;  208,431;28244,625;22,71755
 872,49; 6589,385;  211,200;28052,826;22,90881
 873,04; 6496,434;  175,662;27902,642;22,79647
 873,60; 6526,637;  177,046;27704,382;23,06649
 874,16; 6547,071;  203,585;27665,737;23,09901
 874,72; 6512,302;  202,277;27678,967;22,96501
 875,28; 6454,456;  200,969;27562,737;22,85483
 875,84; 6505,610;  195,508;27448,660;23,15366
 876,40; 6488,917;  194,815;27469,506;23,07671
 876,95; 6469,379;  201,200;27363,737;23,07656
 877,51; 6507,302;  222,046;27441,352;23,09117
 878,07; 6599,763;  232,892;27403,506;23,43293
 878,63; 6535,994;  187,431;27394,813;23,33397
 879,19; 6555,533;  202,738;27420,967;23,34022
 879,75; 6555,840;  192,662;27375,429;23,40887
 880,30; 6586,071;  186,200;27431,506;23,48981
 880,86; 6665,840;  232,123;27589,198;23,51756
 881,42; 6679,763;  182,123;27618,813;23,68230
 881,98; 6711,994;  214,585;27641,198;23,69016
 882,54; 6784,917;  195,738;27716,198;23,94284
 883,09; 6818,302;  201,815;27776,506;23,99478
 883,65; 6805,840;  192,738;27912,967;23,85659
 884,21; 6935,302;  210,431;28105,044;24,10814
 884,77; 6964,225;  189,200;28176,813;24,20723
 885,32; 6980,840;  194,969;28300,121;24,14458
 885,88; 7042,610;  220,046;28479,275;24,14278
 886,44; 7059,225;  213,662;28540,429;24,16641
 887,00; 7141,456;  212,508;28577,967;24,42741
 887,56; 7211,148;  197,354;28749,198;24,56512
 888,11; 7231,763;  193,200;28698,813;24,69185
 888,67; 7218,917;  223,969;28872,890;24,41610
 889,23; 7228,302;  201,508;28810,121;24,56181
 889,79; 7222,302;  182,277;28811,506;24,59034
 890,34; 7200,533;  196,892;28675,275;24,59283
 890,90; 7295,225;  241,508;28849,737;24,65625
 891,46; 7245,763;  183,969;28693,352;24,77007
 892,01; 7321,610;  223,200;28722,275;24,90751
 892,57; 7235,917;  231,277;28595,198;24,69560
 893,13; 7187,840;  202,815;28441,813;24,73539
 893,69; 7202,687;  195,508;28309,583;24,92410
 894,24; 7169,917;  206,585;28274,506;24,80887
 894,80; 7149,994;  205,200;28011,813;24,97533
 895,36; 7087,917;  213,123;28115,583;24,63867
 895,91; 7086,610;  211,123;27745,044;24,97097
 896,47; 7130,225;  212,123;27720,890;25,14872
 897,03; 7085,456;  198,969;27481,737;25,24116
 897,58; 7102,071;  213,969;27439,198;25,30044
 898,14; 7050,533;  208,738;27180,121;25,36686
 898,70; 6976,687;  186,508;27003,660;25,32028
 899,25; 7019,840;  200,969;27023,737;25,42195
 899,81; 7056,840;  227,508;26837,044;25,66498
 900,37; 6975,456;  186,969;26631,813;25,67036
 900,92; 6973,148;  197,815;26642,352;25,62092
 901,48; 6917,302;  195,892;26476,813;25,57524
 902,03; 6935,302;  193,277;26345,967;25,77947
 902,59; 6926,840;  204,662;26182,121;25,87697
 903,15; 6940,148;  218,969;26068,275;26,00139
 903,70; 6868,687;  200,200;25846,506;26,00174
 904,26; 6858,148;  183,277;25718,121;26,14025
 904,82; 6838,225;  199,046;25720,890;26,01371
 905,37; 6902,687;  205,969;25503,275;26,47206
 905,93; 6783,071;  188,046;25377,198;26,18200
 906,48; 6788,456;  204,431;25371,660;26,16110
 907,04; 6829,225;  218,277;25215,275;26,44697
 907,60; 6727,687;  192,431;24980,352;26,36468
 908,15; 6734,533;  186,431;24939,813;26,45336
 908,71; 6762,379;  218,200;24906,506;26,50720
 909,26; 6710,610;  188,969;24688,352;26,61961
 909,82; 6721,148;  219,662;24614,352;26,65124
 910,37; 6718,610;  237,585;24410,660;26,81092
 910,93; 6625,533;  196,200;24339,198;26,63022
 911,48; 6557,302;  194,892;24158,737;26,55004
 912,04; 6538,763;  193,123;24019,583;26,63275
 912,60; 6581,379;  206,200;24062,660;26,72307
 913,15; 6559,148;  201,508;23844,198;26,89051
 913,71; 6507,533;  193,969;23685,044;26,87643
 914,26; 6497,994;  183,431;23645,583;26,91383
 914,82; 6544,148;  207,354;23579,352;27,11276
 915,37; 6478,840;  196,969;23434,737;27,03302
 915,93; 6549,533;  228,815;23294,583;27,40302
 916,48; 6449,302;  185,277;23200,506;27,21687
 917,04; 6486,533;  205,200;23056,506;27,48785
 917,59; 6485,994;  223,354;22962,198;27,54159
 918,15; 6366,148;  167,123;22779,890;27,41383
 918,70; 6378,687;  186,354;22726,506;27,47245
 919,26; 6355,456;  200,969;22634,198;27,43469
 919,81; 6353,687;  188,585;22441,352;27,70488
 920,37; 6354,687;  191,738;22381,583;27,77373
 920,92; 6365,148;  218,123;22312,198;27,82205
 921,48; 6287,994;  184,738;22106,967;27,84049
 922,03; 6304,456;  195,431;21999,352;28,01801
 922,59; 6242,379;  190,354;21877,121;27,90653
 923,14; 6270,763;  188,662;21779,506;28,16982
 923,69; 6250,763;  218,046;21704,890;28,07633
 924,25; 6246,610;  213,431;21735,275;28,03282
 924,80; 6202,917;  198,354;21509,506;28,17569
 925,36; 6195,379;  197,431;21458,890;28,21042
 925,91; 6212,610;  196,585;21229,813;28,60248
 926,47; 6197,840;  175,585;21187,583;28,66103
 927,02; 6162,533;  225,123;21094,121;28,45086
 927,57; 6155,917;  193,200;20976,044;28,69057
 928,13; 6104,763;  195,431;20853,813;28,60501
 928,68; 6078,071;  194,738;20792,737;28,56264
 929,24; 6055,840;  166,585;20607,967;28,81046
 929,79; 6040,763;  179,354;20529,813;28,80235
 930,34; 6017,610;  203,585;20309,583;28,91687
 930,90; 6031,687;  191,969;20296,352;29,04699
 931,45; 6020,379;  210,123;20243,583;29,00276
 932,01; 6048,763;  208,585;20208,121;29,20157
 932,56; 6005,071;  214,354;20034,506;29,21631
 933,11; 6020,610;  215,815;19957,121;29,40431
 933,67; 5924,917;  190,662;19764,275;29,29585
 934,22; 5931,763;  199,585;19690,890;29,40890
 934,77; 5928,456;  221,508;19653,583;29,36870
 935,33; 5925,379;  214,738;19504,890;29,60392
 935,88; 5900,763;  242,354;19462,198;29,44046
 936,43; 5861,456;  202,354;19315,275;29,60878
 936,99; 5859,071;  200,969;19299,275;29,62620
 937,54; 5828,148;  177,892;19066,660;29,91331
 938,09; 5783,379;  204,738;18974,121;29,72202
 938,65; 5820,763;  205,431;18924,583;29,99779
 939,20; 5736,687;  189,738;18772,967;29,84922
 939,75; 5753,610;  187,431;18742,121;29,99877
 940,31; 5691,840;  178,508;18582,737;29,95688
 940,86; 5718,763;  196,277;18584,352;30,03298
 941,41; 5758,071;  252,969;18432,583;30,28173
 941,96; 5629,225;  193,508;18346,660;29,94366
 942,52; 5635,071;  192,585;18258,890;30,12507
 943,07; 5537,071;  176,200;18119,352;29,87698
 943,62; 5562,225;  204,969;18047,044;30,02597
 944,18; 5544,225;  165,662;17957,813;30,22998
 944,73; 5537,687;  195,354;17878,044;30,21222
 945,28; 5463,610;  162,200;17716,506;30,20005
 945,83; 5489,379;  199,354;17765,121;30,11554
 946,39; 5440,071;  188,815;17704,737;29,97990
 946,94; 5468,610;  213,892;17588,044;30,24445
 947,49; 5409,225;  188,892;17413,583;30,30727
 948,04; 5426,225;  204,969;17371,660;30,41504
 948,59; 5415,763;  213,354;17314,660;30,42113
 949,15; 5364,456;  185,508;17229,813;30,38521
 949,70; 5352,456;  187,738;17119,737;30,50270
 950,25; 5330,687;  213,969;17039,506;30,41043
 950,80; 5259,994;  166,969;16955,967;30,33549
 951,36; 5256,840;  168,046;16814,044;30,57068
 951,91; 5282,071;  205,508;16763,890;30,65857
 952,46; 5216,917;  164,046;16651,890;30,64604
 953,01; 5254,225;  206,892;16679,737;30,64032
 953,56; 5199,533;  180,508;16494,967;30,76427
 954,11; 5213,379;  196,738;16426,890;30,90939
 954,67; 5198,456;  191,585;16356,121;30,97442
 955,22; 5122,379;  168,508;16227,429;30,84809
 955,77; 5159,456;  206,738;16148,275;31,06800
 956,32; 5179,763;  231,892;16046,813;31,28609
 956,87; 5111,379;  181,200;15985,660;31,19486
 957,42; 5103,687;  179,738;15918,737;31,28502
 957,98; 5106,533;  188,508;15825,352;31,45152
 958,53; 5098,994;  205,508;15717,352;31,54677
 959,08; 5034,687;  172,969;15658,352;31,39553
 959,63; 5061,687;  176,354;15513,737;31,85245
 960,18; 5060,610;  204,200;15491,890;31,76680
 960,73; 5050,379;  195,200;15507,737;31,70721
 961,28; 5015,225;  174,354;15304,583;31,99470
 961,83; 5064,840;  202,046;15323,198;32,15889
 962,39; 4959,994;  178,354;15182,890;31,86796
 962,94; 4982,302;  202,431;15142,044;31,99461
 963,49; 4958,994;  193,738;14953,121;32,28628
 964,04; 4961,994;  211,431;14970,429;32,18757
 964,59; 4881,533;  168,662;14941,506;31,90226
 965,14; 4906,763;  203,354;14791,121;32,24215
 965,69; 4876,994;  185,200;14679,583;32,36974
 966,24; 4845,225;  188,892;14595,967;32,31976
 966,79; 4819,456;  207,200;14472,121;32,33285
 967,34; 4819,302;  178,046;14375,583;32,69057
 967,89; 4789,610;  180,815;14289,583;32,66617
 968,44; 4773,763;  192,200;14242,121;32,60918
 968,99; 4759,456;  193,969;14188,890;32,62245
 969,55; 4730,225;  196,123;14075,890;32,66699
 970,10; 4714,610;  200,662;13983,506;32,75048
 970,65; 4714,379;  202,969;13850,044;33,05770
 971,20; 4657,610;  178,200;13807,352;32,86639
 971,75; 4588,840;  175,585;13630,737;32,79975
 972,30; 4629,610;  196,277;13554,737;33,18745
 972,85; 4603,840;  185,354;13454,967;33,29778
 973,40; 4588,917;  182,662;13392,275;33,35643
 973,95; 4616,840;  198,354;13319,967;33,67335
 974,50; 4553,148;  205,354;13249,044;33,33255
 975,05; 4500,917;  208,892;13171,198;33,11159
 975,60; 4522,456;  203,277;13097,198;33,49779
 976,15; 4486,302;  191,123;13030,967;33,45195
 976,70; 4437,533;  207,969;12860,890;33,42757
 977,25; 4428,840;  203,354;12841,737;33,43376
 977,80; 4344,687;  186,585;12697,198;33,23659
 978,35; 4334,610;  207,969;12517,583;33,52372
 978,89; 4307,917;  181,431;12512,121;33,46517
 979,44; 4299,994;  200,123;12440,506;33,49463
 979,99; 4255,302;  180,431;12248,121;33,76679
 980,54; 4253,840;  218,123;12175,429;33,75106
 981,09; 4219,840;  207,662;12134,121;33,64099
 981,64; 4155,379;  196,738;11998,044;33,54409
 982,19; 4192,225;  237,277;11998,352;33,62744
 982,74; 4147,840;  210,123;11824,583;33,90358
 983,29; 4110,456;  185,815;11610,737;34,35158
 983,84; 4057,148;  201,585;11545,890;33,98677
 984,39; 4111,379;  226,892;11488,737;34,49245
 984,94; 3999,763;  175,200;11339,352;34,25754
 985,49; 4022,687;  225,892;11338,506;34,16653
 986,03; 4003,225;  213,662;11234,660;34,38494
 986,58; 3955,610;  234,969;11079,813;34,30792
 987,13; 3915,379;  207,200;10994,660;34,37490
 987,68; 3877,302;  205,585;10860,967;34,45880
 988,23; 3909,148;  207,200;10776,275;35,02623
 988,78; 3808,456;  197,431;10642,506;34,57156
 989,33; 3801,456;  209,354;10544,121;34,75745
 989,88; 3799,763;  218,585;10536,275;34,70911
 990,42; 3731,840;  200,200;10366,583;34,73842
 990,97; 3729,379;  191,200;10237,352;35,21924
 991,52; 3677,917;  230,815;10193,506;34,60011
 992,07; 3679,302;  231,892;10087,352;34,97969
 992,62; 3614,687;  207,662;10011,352;34,75247
 993,17; 3579,687;  217,585; 9937,352;34,59035
 993,71; 3557,148;  207,738; 9787,813;34,96225
 994,26; 3511,456;  194,738; 9684,352;34,95103
 994,81; 3499,533;  226,200; 9634,506;34,79195
 995,36; 3434,302;  196,200; 9451,813;34,98528
 995,91; 3429,071;  209,738; 9454,352;34,82388
 996,45; 3402,148;  205,277; 9278,506;35,23411
 997,00; 3353,456;  182,969; 9219,583;35,08490
 997,55; 3346,763;  196,508; 9138,660;35,22928
 998,10; 3347,379;  231,277; 9013,813;35,48066
 998,65; 3299,840;  201,508; 8976,967;35,30679
 999,19; 3277,763;  214,585; 8838,352;35,52019
 999,74; 3252,840;  231,508; 8736,044;35,52613
1000,29; 3242,610;  217,815; 8668,352;35,79411
1000,84; 3157,533;  197,508; 8500,967;35,64809
1001,38; 3118,610;  194,738; 8412,890;35,57821
1001,93; 3120,610;  212,815; 8341,737;35,77097
1002,48; 3072,917;  198,046; 8233,198;35,77868
1003,03; 3073,763;  201,738; 8155,583;36,10864
1003,57; 3059,379;  209,662; 8099,737;36,11775
1004,12; 3050,225;  231,892; 8007,890;36,24400
1004,67; 2960,994;  205,277; 7901,275;35,80715
1005,22; 2948,687;  186,662; 7760,967;36,46572
1005,76; 2881,225;  189,585; 7647,121;36,09289
1006,31; 2881,379;  220,815; 7583,660;36,13500
1006,86; 2857,687;  203,585; 7439,352;36,68031
1007,40; 2769,302;  182,508; 7381,890;35,93078
1007,95; 2772,071;  206,277; 7252,967;36,41134
1008,50; 2722,917;  212,046; 7168,352;36,09489
1009,04; 2690,687;  206,354; 7058,275;36,25746
1009,59; 2667,840;  208,508; 6946,044;36,50196
1010,14; 2611,994;  199,431; 6835,198;36,35696
1010,68; 2587,456;  206,738; 6679,890;36,77833
1011,23; 2554,994;  190,277; 6618,660;36,78557
1011,78; 2538,994;  215,969; 6559,660;36,61946
1012,32; 2499,533;  202,662; 6432,044;36,87157
1012,87; 2499,148;  224,508; 6443,737;36,57432
1013,42; 2447,148;  187,123; 6314,737;36,88263
1013,96; 2466,917;  231,815; 6319,429;36,71557
1014,51; 2420,917;  174,738; 6245,044;37,00273
1015,06; 2396,994;  175,969; 6219,660;36,74948
1015,60; 2505,379;  240,123; 6291,583;37,43321
1016,15; 2431,610;  202,200; 6213,506;37,08694
1016,69; 2447,225;  202,046; 6238,660;37,19269
1017,24; 2432,533;  177,815; 6240,506;37,19005
1017,79; 2516,071;  234,046; 6329,429;37,43858
1018,33; 2475,148;  193,277; 6292,890;37,41009
1018,88; 2510,225;  207,585; 6384,737;37,27673
1019,42; 2502,840;  197,277; 6367,737;37,36453
1019,97; 2500,071;  189,354; 6353,967;37,48357
1020,51; 2554,763;  203,738; 6397,352;37,95886
1021,06; 2523,379;  201,277; 6371,506;37,63397
1021,61; 2493,148;  159,200; 6297,121;38,02506
1022,15; 2493,071;  153,738; 6283,813;38,16157
1022,70; 2497,687;  200,277; 6325,813;37,50544
1023,24; 2474,225;  185,815; 6250,352;37,73429
1023,79; 2475,456;  205,354; 6176,660;38,01684
1024,33; 2444,379;  196,738; 6121,429;37,93684
1024,88; 2428,302;  195,815; 6046,813;38,15565
1025,42; 2372,456;  202,892; 5918,352;37,95956
1025,97; 2360,456;  193,969; 5849,121;38,30996
1026,51; 2318,071;  170,585; 5767,198;38,37118
1027,06; 2297,379;  193,200; 5735,429;37,96629
1027,60; 2278,148;  198,354; 5592,198;38,55866
1028,15; 2266,840;  217,508; 5508,044;38,73582
1028,69; 2175,456;  158,431; 5393,352;38,53019
1029,24; 2200,687;  182,200; 5384,506;38,79984
1029,78; 2141,840;  189,892; 5270,429;38,42012
1030,33; 2087,917;  176,969; 5142,890;38,48124
1030,87; 2087,225;  186,738; 5085,198;38,79764
1031,42; 2051,379;  168,662; 5008,198;38,90284
1031,96; 2045,379;  193,046; 4918,044;39,20282
1032,51; 2004,071;  177,585; 4858,044;39,02366
1033,05; 1993,917;  196,200; 4792,737;39,11026
1033,60; 1927,225;  158,200; 4685,506;39,07456
1034,14; 1928,148;  186,662; 4624,813;39,23900
1034,69; 1921,379;  193,662; 4567,583;39,50042
1035,23; 1877,687;  206,200; 4500,198;38,92611
1035,77; 1867,456;  186,585; 4430,429;39,60728
1036,32; 1808,994;  168,662; 4328,121;39,43620
1036,86; 1813,610;  190,508; 4308,660;39,41336
1037,41; 1767,302;  202,200; 4246,967;38,69449
1037,95; 1753,302;  173,738; 4210,198;39,13240
1038,50; 1728,687;  179,585; 4143,813;39,07701
1039,04; 1760,302;  205,431; 4094,044;39,98523
1039,58; 1689,687;  165,815; 4001,737;39,72634
1040,13; 1659,994;  188,354; 3959,044;39,02841
1040,67; 1691,456;  217,892; 3944,121;39,54570
1041,21; 1665,917;  211,738; 3852,660;39,93986
1041,76; 1611,763;  173,046; 3750,429;40,21704
1042,30; 1611,687;  188,892; 3728,660;40,19457
1042,85; 1563,917;  194,738; 3691,198;39,15901
1043,39; 1546,610;  177,123; 3602,429;39,98144
1043,93; 1547,148;  200,277; 3574,121;39,92096
1044,48; 1532,687;  194,738; 3533,352;40,07496
1045,02; 1495,610;  179,431; 3447,506;40,27383
1045,56; 1499,840;  205,046; 3442,583;39,99319
1046,11; 1468,225;  203,892; 3383,583;39,76276
1046,65; 1449,456;  199,815; 3333,660;39,87564
1047,19; 1418,917;  186,200; 3264,890;40,04031
1047,74; 1391,610;  174,277; 3213,198;40,05805
1048,28; 1395,763;  196,123; 3186,275;40,11971
1048,82; 1394,994;  220,662; 3138,506;40,24659
1049,37; 1362,302;  198,738; 3115,198;39,89644
1049,91; 1345,071;  192,046; 3056,275;40,25604
1050,45; 1352,456;  214,815; 3013,352;40,65126
1050,99; 1321,763;  193,123; 2964,198;40,72933
1051,54; 1279,763;  182,738; 2924,352;40,01385
1052,08; 1304,840;  210,662; 2901,275;40,66652
1052,62; 1291,610;  206,662; 2865,506;40,80525
1053,16; 1246,225;  177,508; 2794,044;40,84473
1053,71; 1245,610;  203,354; 2766,813;40,65817
1054,25; 1211,610;  207,508; 2710,275;40,11967
1054,79; 1216,763;  196,277; 2685,352;40,99863
1055,33; 1170,840;  178,738; 2626,967;40,52325
1055,88; 1191,763;  207,123; 2608,890;40,99649
1056,42; 1196,302;  215,431; 2607,429;41,00635
1056,96; 1175,917;  208,815; 2542,506;41,44088
1057,50; 1130,840;  195,277; 2498,198;40,62508
1058,05; 1123,533;  198,738; 2464,121;40,82287
1058,59; 1139,994;  219,354; 2419,429;41,84586
1059,13; 1067,840;  181,662; 2333,583;41,18082
1059,67; 1092,456;  211,200; 2345,813;41,28409
1060,21; 1061,379;  200,354; 2293,121;41,14289
1060,76; 1067,302;  213,277; 2277,044;41,38185
1061,30; 1082,687;  215,277; 2266,813;42,28097
1061,84; 1044,379;  203,508; 2235,583;41,37993
1062,38; 1003,456;  197,123; 2165,352;40,96743
1062,92; 1043,302;  238,892; 2192,737;41,17061
1063,46;  993,917;  220,585; 2149,198;40,09786
1064,01;  974,071;  193,277; 2103,506;40,87438
1064,55;  993,687;  214,046; 2065,660;42,10600
1065,09;  932,763;  175,277; 2029,275;40,85692
1065,63;  989,840;  235,046; 2050,660;41,57241
1066,17;  990,917;  230,585; 1993,890;43,11973
1066,71;  961,302;  220,969; 1982,890;42,01849
1067,25;  916,148;  199,892; 1944,352;41,05889
1067,80;  939,533;  226,277; 1947,275;41,44431
1068,34;  941,379;  232,431; 1928,737;41,79365
1068,88;  891,071;  207,508; 1864,813;41,24546
1069,42;  917,994;  225,738; 1883,352;41,76220
1069,96;  877,840;  219,508; 1816,429;41,22512
1070,50;  899,610;  232,431; 1834,198;41,65267
1071,04;  850,840;  197,200; 1793,429;40,94904
1071,58;  854,610;  207,892; 1748,198;41,98629
1072,12;  853,687;  206,123; 1714,198;42,93974
1072,66;  854,071;  201,508; 1739,967;42,41668
1073,21;  853,148;  223,046; 1720,429;42,08022
1073,75;  841,763;  212,738; 1698,967;42,32356
1074,29;  837,840;  214,815; 1662,198;43,04494
1074,83;  842,456;  230,585; 1641,044;43,38098
1075,37;  804,456;  214,815; 1632,429;41,59388
1075,91;  821,533;  219,123; 1610,813;43,28618
1076,45;  798,533;  216,431; 1611,890;41,71399
1076,99;  796,994;  213,662; 1561,660;43,27400
1077,53;  755,302;  197,354; 1536,121;41,67625
1078,07;  786,302;  203,662; 1516,275;44,38781
1078,61;  768,379;  211,738; 1506,583;42,98898
1079,15;  749,225;  207,200; 1507,121;41,69676
1079,69;  745,840;  217,738; 1469,583;42,18591
1080,23;  764,840;  233,046; 1447,429;43,79132
1080,77;  774,610;  248,585; 1467,429;43,15769
1081,31;  714,302;  200,431; 1402,429;42,75141
1081,85;  745,687;  215,431; 1412,967;44,27888
1082,39;  713,610;  205,431; 1390,506;42,88158
1082,93;  726,071;  209,508; 1369,506;44,53141
1083,47;  696,302;  192,277; 1327,660;44,39252
1084,01;  714,994;  220,508; 1339,275;44,19923
1084,55;  700,302;  196,508; 1332,890;44,33315
1085,09;  687,456;  226,892; 1326,429;41,88705
1085,63;  690,071;  216,354; 1300,198;43,70714
1086,17;  673,148;  211,200; 1271,967;43,54848
1086,71;  660,225;  195,585; 1253,429;43,92333
1087,24;  682,533;  231,815; 1272,275;43,31906
1087,78;  677,840;  224,815; 1230,198;45,05996
1088,32;  653,302;  202,508; 1208,429;44,81407
1088,86;  662,225;  235,969; 1233,429;42,73414
1089,40;  636,533;  214,892; 1198,121;42,88324
1089,94;  603,148;  189,892; 1158,890;42,64774
1090,48;  623,533;  217,662; 1164,352;42,87264
1091,02;  617,763;  221,431; 1158,121;42,31203
1091,56;  628,917;  216,123; 1138,890;44,73438
1092,10;  601,379;  200,123; 1101,660;44,50799
1092,63;  623,840;  230,354; 1124,352;44,01425
1093,17;  607,071;  224,431; 1091,967;44,10654
1093,71;  587,148;  211,662; 1090,352;42,73252
1094,25;  615,763;  237,662; 1088,660;44,43041
1094,79;  586,225;  217,123; 1073,429;43,10399
1095,33;  575,071;  202,585; 1055,813;43,65611
1095,87;  571,379;  212,815; 1041,429;43,27271
1096,40;  550,687;  196,431; 1004,044;43,86452
1096,94;  570,225;  210,815; 1015,890;44,64300
1097,48;  572,917;  216,662; 1002,660;45,32527
1098,02;  552,840;  211,969;  990,352;43,79223
1098,56;  525,994;  183,354;  958,737;44,18984
1099,10;  516,763;  190,431;  937,660;43,67239
1099,63;  518,994;  201,046;  943,813;42,80588
1100,17;  531,994;  211,892;  949,660;43,38792
1100,71;  551,225;  224,354;  957,198;44,60309

