
Integration time [ms]: 150,000
Averaging Nr. [scans]: 13
Smoothing Nr. [pixels]: 0
Data measured with spectrometer [name]: 2009305U1
Wave   ;Sample   ;Dark     ;Reference;Reflectance
[nm]   ;[counts] ;[counts] ;[counts] ;[%]

 175,72;  215,300;  210,429;  220,471;48,50120
 176,32;  239,154;  234,648;  230,585; 0,00000
 176,92;  279,668;  262,887;  268,668;290,29294
 177,52;  269,914;  262,888;  271,098;85,57943
 178,12;  254,280;  248,802;  249,361; 0,00000
 178,72;  270,147;  274,414;  267,670; 0,00000
 179,32;  257,066;  266,802;  262,612; 0,00000
 179,92;  257,179;  263,191;  265,430;-268,44576
 180,52;  264,946;  254,820;  268,737;72,76310
 181,12;  269,638;  276,192;  277,116; 0,00000
 181,73;  292,385;  291,885;  288,587; 0,00000
 182,33;  375,784;  389,661;  393,065;-407,73134
 182,93;  277,022;  283,427;  290,438;-91,35369
 183,53;  252,656;  251,797;  236,920; 0,00000
 184,13;  249,651;  253,876;  247,983; 0,00000
 184,73;  295,015;  300,257;  296,133; 0,00000
 185,33;  267,275;  232,186;  372,780;24,95765
 185,93;  279,462;  248,024;  381,707;23,51705
 186,53;  291,333;  264,567;  409,937;18,41250
 187,13;  310,560;  281,653;  423,343;20,40127
 187,73;  270,178;  262,717;  385,993; 6,05186
 188,33;  268,876;  252,789;  388,871;11,82151
 188,93;  282,214;  266,312;  397,447;12,12604
 189,53;  285,621;  262,685;  389,189;18,13091
 190,13;  337,405;  302,512;  438,346;25,68749
 190,73;  257,186;  236,141;  373,017;15,37513
 191,34;  301,388;  261,693;  413,108;26,21654
 191,94;  268,395;  255,246;  380,611;10,48899
 192,54;  295,047;  257,506;  424,486;22,48249
 193,14;  301,474;  268,575;  408,916;23,44188
 193,74;  296,413;  272,881;  412,134;16,89873
 194,34;  278,122;  266,808;  418,552; 7,45556
 194,94;  249,428;  227,652;  383,410;13,98076
 195,54;  232,082;  208,879;  357,892;15,57090
 196,14;  255,362;  234,502;  389,705;13,44009
 196,74;  258,895;  226,261;  383,948;20,69547
 197,34;  236,530;  201,816;  382,226;19,24161
 197,94;  261,551;  237,192;  405,872;14,44122
 198,54;  268,427;  248,810;  433,270;10,63490
 199,14;  243,924;  213,204;  426,334;14,41402
 199,74;  238,355;  214,896;  414,917;11,72799
 200,34;  222,674;  204,436;  423,461; 8,32710
 200,94;  266,680;  239,507;  465,153;12,04240
 201,54;  253,502;  219,510;  466,497;13,76271
 202,14;  286,271;  252,131;  532,390;12,18165
 202,74;  254,691;  226,050;  532,910; 9,33359
 203,34;  225,409;  209,365;  519,700; 5,16996
 203,94;  208,345;  181,285;  517,229; 8,05492
 204,54;  271,053;  255,962;  626,255; 4,07550
 205,14;  236,528;  193,050;  622,361;10,12750
 205,74;  269,703;  258,442;  734,687; 2,36451
 206,34;  237,598;  206,130;  735,988; 5,93895
 206,94;  260,848;  221,052;  795,015; 6,93361
 207,54;  219,165;  200,130;  838,519; 2,98176
 208,14;  246,089;  221,900;  945,937; 3,34078
 208,74;  259,403;  216,972; 1009,200; 5,35583
 209,34;  254,084;  207,589; 1093,029; 5,25109
 209,94;  260,520;  228,973; 1205,044; 3,23202
 210,54;  264,850;  213,902; 1295,806; 4,70914
 211,14;  278,352;  220,127; 1408,339; 4,90022
 211,73;  281,692;  222,586; 1574,499; 4,37206
 212,33;  302,019;  235,122; 1649,570; 4,72955
 212,93;  289,158;  214,357; 1776,803; 4,78742
 213,53;  260,910;  194,126; 1826,321; 4,09164
 214,13;  288,012;  219,445; 1935,939; 3,99458
 214,73;  266,809;  189,438; 1943,698; 4,41047
 215,33;  269,289;  182,512; 1998,428; 4,77872
 215,93;  302,742;  208,595; 2126,191; 4,90964
 216,53;  267,209;  174,510; 2141,740; 4,71213
 217,13;  319,115;  228,594; 2418,262; 4,13400
 217,73;  334,680;  205,673; 2614,511; 5,35558
 218,33;  293,847;  157,908; 2807,307; 5,13095
 218,93;  351,851;  191,686; 3161,954; 5,39228
 219,53;  386,739;  209,600; 3448,890; 5,46844
 220,13;  375,187;  161,910; 3786,790; 5,88371
 220,73;  388,150;  186,512; 4185,518; 5,04220
 221,32;  436,326;  180,434; 4593,661; 5,79829
 221,92;  471,270;  199,986; 5099,221; 5,53726
 222,52;  480,498;  172,596; 5559,673; 5,71556
 223,12;  510,712;  194,520; 6010,807; 5,43632
 223,72;  543,757;  205,135; 6493,928; 5,38453
 224,32;  578,763;  191,213; 6911,624; 5,76677
 224,92;  598,587;  181,366; 7344,678; 5,82440
 225,52;  631,586;  202,821; 7700,521; 5,71862
 226,12;  647,443;  192,748; 8066,245; 5,77501
 226,72;  674,810;  168,670; 8499,269; 6,07567
 227,31;  685,710;  171,901; 8927,785; 5,86816
 227,91;  757,577;  207,128; 9414,017; 5,97867
 228,51;  780,754;  182,892; 9974,762; 6,10570
 229,11;  800,992;  180,131;10317,185; 6,12467
 229,71;  829,320;  187,587;10733,659; 6,08504
 230,31;  855,266;  173,368;11216,731; 6,17472
 230,91;  894,551;  166,043;11565,381; 6,39079
 231,51;  912,734;  173,442;11906,181; 6,30111
 232,10;  964,485;  177,908;12197,330; 6,54422
 232,70; 1007,660;  184,577;12456,399; 6,70709
 233,30; 1060,682;  210,672;12752,518; 6,77740
 233,90; 1045,429;  182,133;12908,496; 6,78352
 234,50; 1072,646;  175,365;13023,978; 6,98348
 235,10; 1113,125;  177,674;13013,063; 7,28806
 235,70; 1154,290;  200,590;13031,384; 7,43290
 236,29; 1144,377;  197,357;12914,215; 7,44697
 236,89; 1139,491;  173,352;12748,510; 7,68292
 237,49; 1164,047;  203,594;12569,041; 7,76723
 238,09; 1128,214;  183,361;12260,911; 7,82321
 238,69; 1173,254;  239,118;11895,749; 8,01377
 239,29; 1102,524;  178,822;11552,457; 8,12143
 239,89; 1119,130;  191,198;11110,071; 8,49842
 240,48; 1060,883;  179,438;10589,197; 8,46749
 241,08; 1069,056;  175,052;10137,146; 8,97406
 241,68; 1057,393;  206,746; 9754,974; 8,90896
 242,28; 1017,634;  164,902; 9426,357; 9,20732
 242,88; 1042,365;  222,522; 8991,600; 9,34925
 243,48; 1032,770;  215,747; 8668,150; 9,66616
 244,07;  981,247;  209,513; 8380,764; 9,44450
 244,67;  984,411;  202,054; 8190,795; 9,79324
 245,27;  984,308;  210,124; 8029,884; 9,90035
 245,87;  989,214;  223,060; 7888,991; 9,99427
 246,47;  989,869;  198,355; 7872,983;10,31338
 247,06;  977,359;  177,822; 7878,253;10,38301
 247,66;  989,066;  184,977; 7935,530;10,37460
 248,26; 1057,394;  218,895; 8133,080;10,59489
 248,86; 1086,191;  216,663; 8278,227;10,78610
 249,46; 1057,996;  157,903; 8522,136;10,76121
 250,05; 1158,792;  206,053; 8952,569;10,89278
 250,65; 1162,541;  179,047; 9274,583;10,81293
 251,25; 1234,361;  187,282; 9907,953;10,77167
 251,85; 1301,711;  195,198;10524,307;10,71257
 252,44; 1337,841;  169,742;11264,331;10,52855
 253,04; 1478,227;  206,358;12113,056;10,68196
 253,64; 1526,301;  143,430;13006,464;10,75074
 254,24; 1703,515;  212,899;14105,755;10,72937
 254,84; 1799,073;  181,595;15148,059;10,80735
 255,43; 1932,790;  168,896;16312,624;10,92619
 256,03; 2048,438;  194,277;17467,521;10,73430
 256,63; 2201,699;  198,582;18768,103;10,78712
 257,23; 2314,110;  175,275;19875,242;10,85705
 257,82; 2439,310;  204,348;21036,119;10,72862
 258,42; 2541,189;  153,500;22163,356;10,84828
 259,02; 2721,400;  209,435;23283,654;10,88646
 259,62; 2800,078;  172,037;24180,867;10,94614
 260,21; 2897,237;  182,357;24979,227;10,94848
 260,81; 2966,120;  198,132;25684,848;10,86051
 261,41; 3039,720;  169,501;26214,764;11,02012
 262,01; 3124,687;  217,650;26863,677;10,90983
 262,60; 3132,956;  175,121;27340,242;10,88835
 263,20; 3187,020;  177,201;27847,328;10,87750
 263,80; 3262,630;  198,881;28114,814;10,97491
 264,40; 3269,223;  180,497;28415,209;10,93946
 264,99; 3353,031;  196,727;28590,679;11,11612
 265,59; 3350,686;  187,182;28862,443;11,03217
 266,19; 3295,598;  175,266;29141,858;10,77218
 266,78; 3415,335;  224,263;29260,189;10,99008
 267,38; 3384,490;  203,645;29254,933;10,94907
 267,98; 3368,580;  191,263;29300,433;10,91518
 268,58; 3389,083;  203,953;29350,295;10,92806
 269,17; 3363,554;  183,871;29483,367;10,85235
 269,77; 3322,927;  190,427;29199,954;10,79818
 270,37; 3267,589;  163,649;29137,046;10,71307
 270,96; 3329,606;  227,348;28929,069;10,80862
 271,56; 3204,369;  191,890;28726,004;10,55746
 272,16; 3214,287;  184,193;28432,833;10,72651
 272,75; 3183,620;  192,962;28286,587;10,64533
 273,35; 3172,524;  190,887;28298,022;10,60811
 273,95; 3158,897;  188,116;28310,478;10,56377
 274,54; 3151,581;  164,745;28262,474;10,63017
 275,14; 3221,373;  220,579;28745,908;10,51975
 275,74; 3171,475;  170,270;28741,982;10,50411
 276,33; 3270,200;  220,350;29251,805;10,50533
 276,93; 3277,923;  195,131;29623,502;10,47558
 277,53; 3344,653;  193,126;30254,336;10,48370
 278,12; 3404,688;  168,968;30774,086;10,57248
 278,72; 3559,890;  238,356;31410,537;10,65544
 279,32; 3569,818;  187,740;32161,276;10,57774
 279,91; 3664,014;  179,124;33102,941;10,58471
 280,51; 3765,810;  178,511;33601,453;10,73304
 281,11; 3862,299;  183,893;34504,918;10,71765
 281,70; 3918,193;  178,661;34913,893;10,76582
 282,30; 4059,292;  180,121;35773,388;10,89861
 282,90; 4154,488;  177,198;36202,547;11,04026
 283,49; 4300,724;  204,502;36835,605;11,18236
 284,09; 4399,002;  221,199;37309,550;11,26446
 284,69; 4512,507;  216,125;37747,852;11,44734
 285,28; 4614,341;  202,738;38115,506;11,63619
 285,88; 4752,791;  259,962;38474,761;11,75678
 286,47; 4766,212;  189,967;38536,425;11,93395
 287,07; 4880,542;  229,356;38611,308;12,11816
 287,67; 5033,924;  221,517;38768,381;12,48456
 288,26; 5130,781;  174,817;38695,857;12,86560
 288,86; 5251,883;  189,123;38843,622;13,09747
 289,46; 5438,721;  211,970;38900,184;13,50993
 290,05; 5622,085;  186,128;39004,831;14,00345
 290,65; 5816,260;  183,658;39212,631;14,43185
 291,24; 6001,086;  198,510;39404,157;14,80036
 291,84; 6193,238;  208,505;39453,026;15,24985
 292,44; 6403,107;  191,133;39596,483;15,76429
 293,03; 6687,228;  271,587;39860,492;16,20566
 293,63; 6771,542;  186,813;39993,525;16,54176
 294,22; 6998,926;  212,508;40106,352;17,01119
 294,82; 7106,533;  191,421;40157,479;17,30246
 295,41; 7131,962;  171,815;39861,432;17,53644
 296,01; 7300,301;  223,961;39766,197;17,89565
 296,61; 7369,491;  209,741;39457,294;18,24254
 297,20; 7300,680;  202,962;39006,227;18,29155
 297,80; 7405,262;  211,284;38788,963;18,64803
 298,39; 7300,634;  169,659;38372,383;18,66614
 298,99; 7366,091;  217,271;38164,322;18,83893
 299,58; 7394,519;  213,747;37956,827;19,02540
 300,18; 7331,495;  216,667;37800,970;18,93032
 300,78; 7257,890;  193,127;37264,339;19,05728
 301,37; 7328,538;  208,726;37271,230;19,21028
 301,97; 7323,929;  211,201;37289,700;19,18289
 302,56; 7303,009;  193,581;37253,418;19,18365
 303,16; 7260,348;  172,734;37078,033;19,20487
 303,75; 7291,976;  188,589;37057,458;19,26663
 304,35; 7350,655;  185,366;37374,251;19,26729
 304,94; 7376,547;  194,432;37388,740;19,30972
 305,54; 7424,710;  208,280;37298,200;19,45658
 306,13; 7299,834;  156,366;37154,852;19,30746
 306,73; 7280,457;  173,748;36900,488;19,35023
 307,33; 7263,348;  204,055;36849,500;19,26377
 307,92; 7281,021;  210,664;36912,899;19,26410
 308,52; 7363,168;  177,041;37460,201;19,27446
 309,11; 7431,602;  190,422;37920,271;19,19218
 309,71; 7436,313;  168,035;38370,265;19,02580
 310,30; 7510,072;  175,356;38576,914;19,10005
 310,90; 7643,918;  231,663;39068,606;19,08558
 311,49; 7576,331;  193,355;39159,445;18,94718
 312,09; 7613,903;  167,744;39363,223;18,99749
 312,68; 7789,218;  248,511;39753,860;19,08781
 313,28; 7681,867;  168,741;39814,515;18,95064
 313,87; 7670,826;  164,048;40027,671;18,83115
 314,47; 7685,768;  185,962;40306,046;18,69340
 315,06; 7667,155;  166,126;40477,224;18,60785
 315,66; 7682,903;  164,975;40737,223;18,52973
 316,25; 7595,320;  153,427;40643,194;18,37969
 316,85; 7601,883;  153,898;40734,856;18,35340
 317,44; 7581,640;  189,807;40867,845;18,17156
 318,04; 7561,357;  159,890;40870,723;18,18058
 318,63; 7490,699;  158,671;40936,999;17,98021
 319,22; 7492,665;  190,581;41190,460;17,81001
 319,82; 7424,965;  178,276;41035,669;17,73654
 320,41; 7406,229;  201,197;40992,060;17,66335
 321,01; 7321,347;  203,744;41116,556;17,39700
 321,60; 7303,429;  195,199;41157,555;17,35308
 322,20; 7206,793;  172,741;41109,093;17,18290
 322,79; 7242,781;  210,049;41351,428;17,09406
 323,39; 7135,857;  177,750;41303,995;16,91890
 323,98; 7099,941;  170,972;41256,738;16,86465
 324,58; 7060,795;  172,272;41097,866;16,83182
 325,17; 6989,872;  181,658;40840,514;16,74473
 325,76; 6870,912;  197,509;40619,988;16,50914
 326,36; 6749,543;  180,051;40206,407;16,41292
 326,95; 6682,224;  202,661;39889,848;16,32659
 327,55; 6550,743;  176,429;39424,295;16,24117
 328,14; 6400,487;  171,284;38993,532;16,04545
 328,74; 6336,579;  203,889;38486,527;16,01951
 329,33; 6225,859;  197,051;38099,263;15,90622
 329,92; 6085,759;  170,115;37390,773;15,89344
 330,52; 5936,063;  194,900;36753,951;15,70381
 331,11; 5807,056;  194,815;36201,067;15,58685
 331,71; 5665,937;  182,508;35406,171;15,56746
 332,30; 5575,547;  209,586;34888,971;15,47306
 332,89; 5502,195;  256,897;34328,024;15,39514
 333,49; 5287,005;  202,892;33721,513;15,16803
 334,08; 5185,731;  181,968;33201,168;15,15410
 334,68; 5033,996;  190,814;32709,086;14,89372
 335,27; 4962,029;  207,747;32353,450;14,78979
 335,86; 4942,364;  248,353;31983,374;14,79126
 336,46; 4835,417;  208,593;31623,029;14,72834
 337,05; 4748,572;  172,738;31336,121;14,68337
 337,65; 4710,238;  172,276;31199,905;14,62555
 338,24; 4727,676;  242,280;31201,282;14,48818
 338,83; 4676,898;  214,280;31102,964;14,44742
 339,43; 4597,476;  173,196;31037,849;14,33446
 340,02; 4603,602;  182,426;30912,670;14,38705
 340,61; 4588,220;  188,510;30916,175;14,31840
 341,21; 4570,195;  215,889;30897,142;14,19207
 341,80; 4530,708;  183,583;30821,607;14,18866
 342,40; 4543,978;  188,823;30988,864;14,14009
 342,99; 4526,580;  178,589;31092,947;14,06463
 343,58; 4523,936;  185,974;31243,570;13,96748
 344,18; 4577,469;  204,128;31328,523;14,05117
 344,77; 4571,875;  180,119;31602,291;13,97662
 345,36; 4624,609;  172,430;31986,233;13,99449
 345,96; 4684,113;  205,513;32341,747;13,93629
 346,55; 4727,090;  181,058;32641,496;14,00484
 347,14; 4718,473;  171,208;33114,167;13,80345
 347,74; 4788,255;  152,755;33466,209;13,91480
 348,33; 4911,939;  188,754;34256,551;13,86407
 348,92; 5038,527;  201,374;34950,810;13,92009
 349,52; 5074,432;  165,372;35433,956;13,91907
 350,11; 5186,880;  182,272;35698,568;14,09102
 350,70; 5154,570;  188,279;35899,257;13,90690
 351,29; 5098,312;  169,570;35546,859;13,93194
 351,89; 5139,129;  204,961;35530,376;13,96776
 352,48; 5141,844;  163,279;35571,108;14,06063
 353,07; 5162,405;  202,978;35476,825;14,05979
 353,67; 5152,379;  199,067;35419,275;14,06384
 354,26; 5157,177;  186,439;35165,217;14,21073
 354,85; 5106,840;  199,668;34931,082;14,12892
 355,45; 5073,076;  165,736;34786,939;14,17437
 356,04; 5087,400;  192,132;34652,317;14,20558
 356,63; 5126,074;  219,508;34441,196;14,33759
 357,22; 5065,555;  193,803;34187,128;14,33150
 357,82; 5045,773;  188,497;33996,951;14,36704
 358,41; 5089,205;  211,124;33907,360;14,47663
 359,00; 4993,719;  179,735;33655,822;14,38037
 359,60; 5043,203;  192,972;33552,540;14,53925
 360,19; 5027,209;  212,056;33467,315;14,47937
 360,78; 5030,677;  191,891;33182,267;14,66727
 361,37; 5055,569;  185,584;32868,620;14,90065
 361,97; 5036,453;  184,662;32884,072;14,83755
 362,56; 5060,054;  183,118;32498,935;15,09148
 363,15; 5082,728;  244,352;32151,436;15,16396
 363,74; 5000,902;  194,347;31857,602;15,18023
 364,34; 4991,431;  206,427;31372,574;15,35321
 364,93; 4912,037;  177,194;30884,883;15,41908
 365,52; 4857,056;  147,199;30457,990;15,53855
 366,11; 4853,961;  177,119;30039,333;15,66140
 366,71; 4798,511;  181,812;29653,306;15,66496
 367,30; 4780,971;  186,738;29277,288;15,79287
 367,89; 4800,244;  221,821;29050,142;15,88169
 368,48; 4751,301;  194,885;28695,076;15,98732
 369,07; 4699,340;  199,587;28183,641;16,07970
 369,67; 4644,430;  216,194;27770,277;16,07107
 370,26; 4608,046;  179,818;27525,192;16,19370
 370,85; 4593,276;  183,045;27267,402;16,28331
 371,44; 4616,692;  204,893;26926,466;16,51025
 372,03; 4538,288;  155,350;26684,008;16,52152
 372,63; 4529,128;  163,123;26347,866;16,67385
 373,22; 4504,599;  176,663;25951,941;16,79103
 373,81; 4477,110;  170,045;25679,506;16,88419
 374,40; 4432,114;  181,438;25331,197;16,90146
 374,99; 4442,517;  181,429;25017,957;17,15654
 375,59; 4415,581;  171,591;24667,551;17,32526
 376,18; 4448,851;  214,814;24477,788;17,45061
 376,77; 4419,906;  198,816;24274,139;17,53285
 377,36; 4425,472;  225,661;24175,791;17,53565
 377,95; 4381,217;  205,197;23865,011;17,65027
 378,55; 4399,731;  181,974;23670,094;17,95698
 379,14; 4412,922;  198,584;23579,434;18,02474
 379,73; 4383,770;  199,428;23529,562;17,93536
 380,32; 4484,849;  198,508;23496,891;18,39759
 380,91; 4451,119;  169,501;23363,238;18,46023
 381,50; 4471,484;  195,272;23304,673;18,50421
 382,10; 4462,464;  185,816;23232,199;18,55670
 382,69; 4456,811;  159,353;23132,285;18,70662
 383,28; 4527,844;  218,657;23091,643;18,83963
 383,87; 4498,744;  183,349;22871,313;19,02063
 384,46; 4523,183;  167,190;22847,244;19,20627
 385,05; 4549,011;  208,810;22858,623;19,16219
 385,64; 4593,269;  184,735;22839,410;19,45971
 386,24; 4603,092;  173,344;22742,923;19,62707
 386,83; 4685,567;  210,266;22783,134;19,82602
 387,42; 4688,975;  202,504;22935,038;19,73590
 388,01; 4787,804;  196,646;23147,628;20,00419
 388,60; 4867,631;  186,345;23441,571;20,13004
 389,19; 4917,927;  177,101;23666,670;20,18268
 389,78; 5022,568;  191,564;23903,303;20,37389
 390,37; 5217,296;  256,726;24465,949;20,49041
 390,96; 5227,166;  194,882;24627,730;20,59639
 391,56; 5308,575;  196,868;24821,753;20,75830
 392,15; 5376,580;  188,950;25046,924;20,86908
 392,74; 5427,192;  161,783;25236,263;20,99908
 393,33; 5572,412;  188,406;25643,710;21,15082
 393,92; 5685,709;  194,624;26056,842;21,23207
 394,51; 5749,332;  169,251;26286,286;21,36568
 395,10; 5878,549;  210,689;26531,558;21,53371
 395,69; 5936,920;  206,306;26640,765;21,67858
 396,28; 5981,655;  212,607;26750,921;21,73856
 396,87; 6045,100;  203,057;26911,697;21,87323
 397,46; 6119,287;  210,742;26980,349;22,07184
 398,06; 6203,950;  233,810;27284,332;22,07033
 398,65; 6264,145;  208,403;27317,647;22,33829
 399,24; 6376,091;  220,553;27584,578;22,49500
 399,83; 6367,381;  190,904;27527,511;22,59416
 400,42; 6495,905;  237,182;27677,659;22,80836
 401,01; 6557,263;  212,379;27835,164;22,96975
 401,60; 6619,917;  217,717;27768,416;23,23788
 402,19; 6626,820;  248,835;27762,789;23,18091
 402,78; 6665,016;  247,547;27893,063;23,21341
 403,37; 6670,768;  234,801;27638,610;23,48567
 403,96; 6679,440;  238,585;27506,740;23,62043
 404,55; 6646,575;  249,438;27387,643;23,57244
 405,14; 6621,130;  223,990;27224,622;23,69256
 405,73; 6605,167;  238,761;27159,643;23,64858
 406,32; 6645,702;  243,788;27038,260;23,89267
 406,91; 6599,213;  246,346;26692,896;24,02154
 407,50; 6592,484;  248,547;26492,868;24,17261
 408,09; 6533,096;  218,910;26199,863;24,30313
 408,68; 6521,285;  232,895;26081,519;24,32775
 409,27; 6479,656;  218,453;25850,515;24,42723
 409,86; 6481,398;  229,344;25690,972;24,55481
 410,45; 6512,398;  282,075;25648,265;24,56153
 411,04; 6500,265;  269,037;25560,881;24,63731
 411,63; 6430,406;  250,780;25219,244;24,74972
 412,22; 6400,333;  251,595;24982,074;24,86300
 412,81; 6406,067;  264,919;24674,605;25,15865
 413,40; 6321,168;  278,170;24339,823;25,11464
 413,99; 6265,279;  326,625;23914,045;25,17721
 414,58; 6103,409;  237,937;23563,499;25,14611
 415,17; 6100,113;  257,688;23243,803;25,41719
 415,76; 6040,030;  247,055;23069,934;25,38232
 416,35; 6010,419;  241,910;22787,273;25,58623
 416,94; 6012,642;  269,059;22851,293;25,43408
 417,53; 6125,874;  247,228;23048,903;25,78164
 418,12; 6130,466;  251,309;23214,972;25,60200
 418,71; 6268,174;  281,248;23668,748;25,59883
 419,30; 6268,680;  246,157;23696,754;25,68175
 419,89; 6307,443;  240,776;23882,689;25,66064
 420,48; 6435,385;  275,709;24266,150;25,67554
 421,07; 6482,498;  264,713;24381,782;25,78168
 421,66; 6500,112;  229,953;24349,998;25,99563
 422,25; 6476,371;  257,894;24381,351;25,77772
 422,84; 6473,091;  278,667;24347,434;25,73635
 423,43; 6413,879;  261,967;24039,535;25,87275
 424,02; 6372,530;  289,817;23843,936;25,82441
 424,60; 6266,828;  250,685;23329,884;26,06738
 425,19; 6177,319;  258,597;22947,244;26,08671
 425,78; 6151,561;  275,752;22860,788;26,01638
 426,37; 6136,158;  271,298;22636,995;26,22257
 426,96; 6079,511;  255,760;22590,193;26,07521
 427,55; 6024,306;  259,464;22413,767;26,02132
 428,14; 5946,778;  243,085;22078,248;26,12160
 428,73; 5956,774;  259,998;21867,954;26,36425
 429,32; 5954,211;  269,528;21912,478;26,26575
 429,91; 5973,626;  291,383;21806,341;26,41066
 430,50; 5905,657;  268,159;21717,530;26,28281
 431,08; 5876,127;  294,473;21541,004;26,27090
 431,67; 5890,341;  322,325;21464,263;26,33636
 432,26; 5876,144;  365,099;21224,997;26,41933
 432,85; 5805,665;  366,713;20868,758;26,52882
 433,44; 5690,013;  387,414;20449,869;26,43046
 434,03; 5619,238;  409,194;20023,224;26,56284
 434,62; 5453,415;  354,414;19582,767;26,51814
 435,21; 5440,169;  359,253;19360,026;26,74058
 435,79; 5387,327;  364,267;19146,797;26,74326
 436,38; 5401,472;  352,047;19019,882;27,04880
 436,97; 5320,971;  354,895;18943,334;26,71594
 437,56; 5294,623;  358,835;18708,895;26,89794
 438,15; 5259,920;  325,446;18620,754;26,97125
 438,74; 5293,223;  341,524;18609,894;27,10531
 439,33; 5267,464;  315,445;18619,801;27,05377
 439,91; 5264,330;  268,606;18672,050;27,14559
 440,50; 5308,998;  326,376;18766,482;27,02057
 441,09; 5323,916;  321,540;18860,811;26,98260
 441,68; 5344,015;  308,934;18768,741;27,27591
 442,27; 5317,446;  282,776;18831,541;27,14289
 442,86; 5368,162;  281,335;18802,067;27,46558
 443,44; 5357,636;  284,562;18914,410;27,23089
 444,03; 5453,969;  358,567;18959,563;27,39317
 444,62; 5358,034;  284,566;18818,667;27,37369
 445,21; 5291,965;  304,256;18614,073;27,24062
 445,80; 5307,366;  340,037;18553,912;27,27223
 446,39; 5259,676;  365,804;18230,809;27,39362
 446,97; 5144,400;  290,509;18002,232;27,40496
 447,56; 5048,541;  295,827;17707,859;27,29557
 448,15; 5036,266;  290,124;17577,138;27,45495
 448,74; 4986,904;  307,972;17227,962;27,65328
 449,33; 4927,908;  284,671;17052,543;27,69127
 449,91; 4875,725;  298,682;16846,722;27,65912
 450,50; 4808,877;  278,065;16616,503;27,73100
 451,09; 4799,781;  302,451;16500,784;27,76416
 451,68; 4800,949;  324,147;16340,042;27,95224
 452,26; 4792,746;  322,306;16271,619;28,02904
 452,85; 4720,012;  300,996;16153,248;27,87627
 453,44; 4756,592;  325,626;16163,362;27,97727
 454,03; 4736,998;  287,002;16123,239;28,10009
 454,61; 4680,569;  287,858;16013,449;27,93352
 455,20; 4769,389;  313,940;16205,588;28,03642
 455,79; 4777,662;  318,084;16290,217;27,92099
 456,38; 4809,131;  319,948;16385,324;27,94322
 456,97; 4799,458;  301,637;16439,548;27,87114
 457,55; 4790,643;  306,336;16427,891;27,81560
 458,14; 4824,690;  335,405;16460,830;27,83980
 458,73; 4814,774;  312,568;16309,517;28,14416
 459,31; 4843,856;  346,808;16355,856;28,09066
 459,90; 4872,047;  360,880;16477,998;27,98991
 460,49; 4912,513;  418,877;16571,056;27,82062
 461,08; 4880,154;  318,043;16643,015;27,94560
 461,66; 4888,049;  318,269;16744,052;27,82078
 462,25; 4923,646;  321,201;16797,523;27,93369
 462,84; 4938,593;  350,583;16858,948;27,79203
 463,43; 4865,605;  291,365;16859,773;27,60821
 464,01; 4921,254;  327,369;16865,551;27,77745
 464,60; 4955,669;  373,054;16816,779;27,86847
 465,19; 4831,050;  305,064;16516,141;27,91909
 465,77; 4785,309;  313,531;16582,103;27,48722
 466,36; 4816,540;  346,750;16386,592;27,86680
 466,95; 4687,628;  319,674;16039,136;27,78692
 467,53; 4591,508;  327,844;15681,118;27,77039
 468,12; 4528,038;  359,615;15391,526;27,73050
 468,71; 4455,820;  326,373;15167,250;27,82481
 469,29; 4357,765;  304,308;14864,015;27,84024
 469,88; 4277,169;  319,158;14561,858;27,78975
 470,47; 4338,210;  379,705;14682,200;27,67702
 471,06; 4291,028;  341,090;14661,746;27,58210
 471,64; 4301,981;  345,472;14733,635;27,49836
 472,23; 4322,790;  300,874;14725,544;27,88220
 472,81; 4332,313;  310,020;14898,880;27,57099
 473,40; 4371,804;  323,797;15009,018;27,56517
 473,99; 4533,365;  431,336;15281,733;27,62236
 474,57; 4463,525;  331,028;15366,241;27,48546
 475,16; 4507,177;  346,252;15525,042;27,41276
 475,75; 4540,171;  368,649;15666,045;27,26949
 476,33; 4567,152;  369,810;15732,989;27,32079
 476,92; 4600,369;  356,260;15814,728;27,45491
 477,51; 4611,330;  357,499;15907,107;27,35651
 478,09; 4595,068;  355,346;15916,459;27,24562
 478,68; 4558,864;  362,733;15812,664;27,15955
 479,27; 4562,516;  385,650;15952,003;26,83266
 479,85; 4494,904;  348,271;15827,937;26,78761
 480,44; 4552,025;  344,428;15987,655;26,89724
 481,02; 4911,600;  364,818;17333,660;26,79488
 481,61; 5442,058;  377,431;19714,478;26,19131
 482,20; 5735,426;  373,972;21052,524;25,92761
 482,78; 5975,605;  396,734;22081,012;25,72772
 483,37; 6121,012;  395,135;22762,560;25,59918
 483,95; 6233,030;  430,599;22964,722;25,74953
 484,54; 6261,464;  433,199;23253,698;25,53960
 485,13; 6184,270;  399,298;23122,537;25,45839
 485,71; 6121,320;  370,142;22961,640;25,45727
 486,30; 6075,904;  421,065;22592,300;25,50529
 486,88; 6020,979;  475,529;22254,018;25,46297
 487,47; 5749,054;  441,146;21403,198;25,32151
 488,05; 5540,648;  428,457;20438,197;25,54851
 488,64; 5157,651;  412,233;19075,317;25,42676
 489,23; 4718,062;  448,305;17056,793;25,70828
 489,81; 4056,160;  431,230;14535,918;25,70018
 490,40; 3873,548;  391,001;13746,606;26,07555
 490,98; 3749,655;  372,927;13490,697;25,74163
 491,57; 3724,544;  397,998;13358,578;25,66664
 492,15; 3691,513;  372,620;13216,472;25,84032
 492,74; 3690,742;  382,458;13144,172;25,92351
 493,32; 3659,649;  406,618;13104,771;25,61814
 493,91; 3589,437;  372,701;12964,108;25,54708
 494,50; 3557,164;  382,097;12862,461;25,44050
 495,08; 3516,773;  373,404;12774,074;25,34838
 495,67; 3529,537;  377,776;12767,867;25,43775
 496,25; 3460,167;  338,629;12740,037;25,17083
 496,84; 3424,311;  338,007;12708,145;24,94964
 497,42; 3414,125;  341,401;12638,328;24,98774
 498,01; 3377,426;  358,162;12521,136;24,82340
 498,59; 3340,026;  321,248;12429,800;24,93095
 499,18; 3308,797;  316,778;12366,233;24,83115
 499,76; 3311,762;  353,014;12303,516;24,75836
 500,35; 3211,997;  338,100;12079,470;24,47667
 500,93; 3226,615;  337,093;12013,090;24,74754
 501,52; 3170,815;  315,017;11935,706;24,57511
 502,10; 3192,167;  337,797;11927,614;24,62826
 502,69; 3098,001;  308,186;11716,502;24,45422
 503,27; 3043,597;  294,790;11475,700;24,58482
 503,86; 3024,280;  324,954;11438,905;24,28772
 504,44; 2948,068;  294,958;11287,979;24,13449
 505,03; 2881,618;  289,958;11053,183;24,07884
 505,61; 2865,919;  304,956;10931,532;24,09961
 506,19; 2791,053;  315,419;10718,890;23,79624
 506,78; 2750,112;  285,966;10464,283;24,20975
 507,36; 2704,743;  309,957;10296,927;23,97910
 507,95; 2646,954;  311,740;10161,181;23,70911
 508,53; 2626,351;  299,274; 9978,139;24,04287
 509,12; 2596,500;  312,123; 9867,696;23,90623
 509,70; 2551,610;  325,740; 9678,871;23,79812
 510,29; 2507,797;  337,360; 9470,265;23,76502
 510,87; 2437,251;  294,197; 9288,886;23,82577
 511,46; 2387,996;  296,660; 9110,736;23,72722
 512,04; 2354,571;  304,511; 8952,708;23,70505
 512,62; 2305,349;  314,276; 8767,473;23,55409
 513,21; 2239,307;  294,437; 8630,503;23,33079
 513,79; 2184,402;  301,451; 8491,100;22,99184
 514,38; 2138,662;  277,446; 8276,924;23,26671
 514,96; 2141,356;  327,446; 8199,239;23,04317
 515,54; 2063,782;  279,295; 8031,149;23,02014
 516,13; 2040,814;  302,603; 7921,444;22,81463
 516,71; 2002,740;  298,301; 7784,378;22,76812
 517,30; 1940,548;  290,537; 7676,005;22,34132
 517,88; 1958,600;  304,767; 7570,020;22,76359
 518,46; 1881,900;  286,539; 7422,922;22,35531
 519,05; 1869,511;  293,774; 7412,589;22,13483
 519,63; 1851,260;  302,695; 7289,617;22,16376
 520,22; 1855,158;  315,242; 7211,547;22,32959
 520,80; 1812,144;  288,704; 7164,413;22,15684
 521,38; 1836,794;  338,005; 7157,098;21,97929
 521,97; 1787,987;  279,324; 7074,849;22,20083
 522,55; 1766,491;  306,862; 7048,777;21,65006
 523,13; 1748,259;  293,711; 7019,990;21,62485
 523,72; 1734,028;  297,385; 6998,783;21,43796
 524,30; 1791,406;  325,176; 7133,770;21,53498
 524,89; 1754,434;  278,170; 7138,946;21,51745
 525,47; 1773,105;  297,255; 7264,267;21,18339
 526,05; 1754,686;  264,487; 7333,844;21,07970
 526,64; 1785,733;  305,335; 7460,569;20,68972
 527,22; 1814,278;  309,562; 7560,942;20,75075
 527,80; 1849,750;  344,027; 7740,589;20,35706
 528,39; 1816,233;  295,492; 7772,747;20,33822
 528,97; 1836,688;  296,798; 7954,480;20,10909
 529,55; 1887,358;  321,096; 8083,012;20,17881
 530,14; 1918,069;  330,417; 8333,147;19,83887
 530,72; 1897,503;  293,644; 8490,141;19,56761
 531,30; 1897,593;  287,726; 8630,475;19,29661
 531,89; 1931,186;  313,187; 8692,068;19,31044
 532,47; 1989,449;  338,035; 8823,397;19,46191
 533,05; 1977,089;  326,642; 8809,544;19,45615
 533,63; 1970,065;  334,113; 8917,583;19,05932
 534,22; 1950,022;  299,114; 8954,348;19,07410
 534,80; 1982,543;  334,350; 9017,298;18,98195
 535,38; 2056,998;  424,265; 9164,644;18,68035
 535,97; 1954,056;  320,882; 9102,002;18,59870
 536,55; 1993,464;  384,043; 9186,753;18,28324
 537,13; 1991,302;  379,956; 9140,418;18,39339
 537,71; 1996,932;  430,263; 9176,936;17,91160
 538,30; 1986,604;  462,270; 9290,418;17,26675
 538,88; 2006,366;  502,356; 9416,092;16,87295
 539,46; 2076,817;  566,350; 9652,534;16,62377
 540,05; 2066,203;  580,738; 9772,863;16,16019
 540,63; 2134,667;  625,046; 9942,134;16,20272
 541,21; 2137,341;  677,819;10113,095;15,46878
 541,79; 2158,396;  717,050;10281,765;15,06941
 542,38; 2202,448;  761,045;10444,689;14,88492
 542,96; 2208,093;  761,208;10577,167;14,74013
 543,54; 2264,290;  785,280;10800,663;14,76738
 544,12; 2273,231;  760,589;10923,979;14,88324
 544,70; 2256,845;  738,593;11123,609;14,61964
 545,29; 2276,351;  746,968;11267,168;14,53758
 545,87; 2288,319;  729,665;11244,150;14,82387
 546,45; 2252,037;  675,660;11262,704;14,88968
 547,03; 2239,101;  640,894;11381,789;14,87965
 547,62; 2216,963;  598,743;11496,637;14,84893
 548,20; 2294,041;  612,592;11674,966;15,19971
 548,78; 2290,679;  562,835;11793,192;15,38548
 549,36; 2270,591;  519,526;12014,494;15,23331
 549,94; 2292,858;  472,129;12145,369;15,59746
 550,53; 2319,208;  474,909;12398,853;15,46719
 551,11; 2296,000;  443,760;12561,077;15,28589
 551,69; 2340,345;  469,603;12876,559;15,07818
 552,27; 2356,335;  411,137;13100,879;15,32890
 552,85; 2389,569;  413,529;13537,801;15,05638
 553,44; 2437,904;  412,679;13849,157;15,07258
 554,02; 2498,671;  421,451;14228,259;15,04490
 554,60; 2481,897;  371,223;14466,355;14,97449
 555,18; 2555,491;  397,834;14897,933;14,88029
 555,76; 2602,836;  384,912;15322,232;14,84821
 556,34; 2645,273;  391,304;15682,821;14,73999
 556,93; 2699,528;  361,373;16088,353;14,86716
 557,51; 2699,264;  354,304;16468,350;14,55227
 558,09; 2778,571;  381,219;16808,743;14,59351
 558,67; 2810,423;  368,462;17224,180;14,48743
 559,25; 2830,291;  387,844;17472,060;14,29651
 559,83; 2874,233;  374,542;17839,166;14,31288
 560,41; 2897,092;  365,379;18235,187;14,16754
 561,00; 2947,369;  376,308;18626,049;14,08820
 561,58; 2968,901;  352,994;18796,229;14,18356
 562,16; 2977,111;  347,530;19164,918;13,97421
 562,74; 3014,551;  339,066;19555,485;13,92291
 563,32; 3031,803;  343,926;20050,506;13,63949
 563,90; 3125,665;  360,539;20411,537;13,79047
 564,48; 3157,912;  370,378;20854,554;13,60823
 565,06; 3230,844;  372,384;21477,336;13,54402
 565,65; 3306,851;  353,624;22233,407;13,49751
 566,23; 3469,326;  412,001;23021,505;13,52230
 566,81; 3470,322;  351,383;23763,861;13,32170
 567,39; 3635,379;  360,928;24679,805;13,46465
 567,97; 3671,838;  384,230;25464,026;13,10859
 568,55; 3802,788;  413,464;26378,032;13,05365
 569,13; 3882,548;  354,232;27136,111;13,17427
 569,71; 3971,527;  345,683;28132,950;13,04858
 570,29; 4147,086;  409,065;29246,951;12,96219
 570,87; 4201,834;  387,451;29999,379;12,88124
 571,45; 4244,331;  389,077;30668,475;12,73227
 572,03; 4267,645;  353,544;31270,987;12,65984
 572,61; 4342,654;  341,618;31978,938;12,64657
 573,20; 4442,586;  373,228;32704,824;12,58632
 573,78; 4509,507;  375,234;33318,171;12,54980
 574,36; 4562,007;  381,386;33938,719;12,45814
 574,94; 4683,295;  445,700;34388,861;12,48439
 575,52; 4607,207;  385,861;34576,077;12,34665
 576,10; 4703,770;  442,012;35242,734;12,24618
 576,68; 4713,841;  424,544;35783,530;12,13071
 577,26; 4800,382;  449,787;36541,774;12,05419
 577,84; 4843,079;  453,694;37055,134;11,99238
 578,42; 4905,393;  513,240;37331,755;11,92920
 579,00; 4857,287;  448,542;37584,759;11,87182
 579,58; 4891,660;  497,623;37754,647;11,79385
 580,16; 4833,624;  462,395;37776,249;11,71476
 580,74; 4826,399;  469,165;38010,867;11,60638
 581,32; 4807,449;  474,239;38026,355;11,53919
 581,90; 4794,567;  497,626;38043,001;11,44466
 582,48; 4767,635;  494,857;38099,453;11,36238
 583,06; 4734,047;  488,238;38198,764;11,25895
 583,64; 4720,657;  491,546;38382,838;11,16117
 584,22; 4676,222;  504,016;38075,661;11,10467
 584,80; 4657,153;  508,317;37821,207;11,11904
 585,38; 4571,555;  514,919;37327,143;11,01981
 585,96; 4545,826;  481,851;37420,177;11,00206
 586,54; 4483,780;  501,400;37307,996;10,81975
 587,12; 4471,884;  463,628;37530,769;10,81350
 587,70; 4491,294;  510,928;37611,641;10,72854
 588,28; 4418,761;  477,858;37629,493;10,60762
 588,86; 4463,030;  482,167;37745,176;10,68315
 589,44; 4387,418;  469,022;37772,098;10,50422
 590,02; 4430,090;  466,558;38029,588;10,55168
 590,59; 4396,569;  438,476;38154,901;10,49435
 591,17; 4408,653;  446,722;38353,173;10,45186
 591,75; 4386,252;  434,948;38433,722;10,39850
 592,33; 4407,262;  463,945;38675,014;10,31983
 592,91; 4374,655;  404,566;38865,378;10,32243
 593,49; 4390,759;  426,185;39257,308;10,20978
 594,07; 4410,933;  432,031;39491,060;10,18689
 594,65; 4394,359;  448,477;39415,532;10,12620
 595,23; 4407,241;  436,327;39822,395;10,08203
 595,81; 4376,843;  418,021;39951,678;10,01380
 596,39; 4384,057;  415,022;40133,813; 9,99284
 596,97; 4410,170;  411,951;40303,587;10,02270
 597,55; 4379,422;  415,787;40272,969; 9,94459
 598,12; 4338,053;  379,879;40227,054; 9,93339
 598,70; 4350,570;  384,183;40374,478; 9,91837
 599,28; 4374,450;  417,260;40522,243; 9,86708
 599,86; 4313,994;  410,413;40465,982; 9,74541
 600,44; 4323,488;  372,800;40589,695; 9,82345
 601,02; 4351,857;  424,194;40739,744; 9,74230
 601,60; 4302,616;  399,794;40707,509; 9,68257
 602,18; 4285,147;  372,725;40657,689; 9,71187
 602,75; 4240,298;  390,405;40810,676; 9,52466
 603,33; 4251,473;  387,260;40826,496; 9,55560
 603,91; 4210,536;  379,267;40766,288; 9,48639
 604,49; 4244,653;  399,645;40918,327; 9,48947
 605,07; 4184,360;  419,640;40854,908; 9,31049
 605,65; 4245,882;  427,108;40968,815; 9,41937
 606,23; 4254,779;  485,860;41130,809; 9,27279
 606,80; 4239,352;  547,482;41160,884; 9,09028
 607,38; 4230,359;  598,574;41169,156; 8,95177
 607,96; 4274,680;  675,559;41200,713; 8,88120
 608,54; 4279,474;  731,878;41337,331; 8,73675
 609,12; 4249,079;  752,867;41435,725; 8,59382
 609,70; 4266,518;  801,028;41419,969; 8,53171
 610,27; 4242,551;  805,635;41394,050; 8,46773
 610,85; 4236,096;  828,720;41554,473; 8,36664
 611,43; 4194,635;  820,875;41544,044; 8,28462
 612,01; 4143,439;  795,024;41166,761; 8,29396
 612,59; 4178,891;  782,567;41314,227; 8,37944
 613,16; 4079,245;  749,093;41198,453; 8,23289
 613,74; 4089,969;  710,029;41053,414; 8,37793
 614,32; 4096,719;  671,416;41145,959; 8,46286
 614,90; 4081,352;  608,410;40921,085; 8,61501
 615,48; 3983,126;  537,787;40466,942; 8,62863
 616,05; 3981,917;  515,477;40556,976; 8,65712
 616,63; 3952,323;  515,783;40369,471; 8,62289
 617,21; 3925,232;  502,943;40301,616; 8,59900
 617,79; 3906,564;  471,637;40150,627; 8,65679
 618,36; 3871,952;  494,947;40059,040; 8,53553
 618,94; 3762,781;  419,788;39722,709; 8,50571
 619,52; 3774,101;  460,630;39491,591; 8,48934
 620,10; 3765,905;  427,636;39463,743; 8,55175
 620,67; 3750,896;  452,013;39260,159; 8,50049
 621,25; 3778,682;  457,640;39178,536; 8,57687
 621,83; 3710,178;  445,249;39091,913; 8,44815
 622,41; 3728,910;  472,710;38960,724; 8,46029
 622,98; 3696,805;  433,013;38660,377; 8,53784
 623,56; 3667,927;  445,858;38758,773; 8,40988
 624,14; 3652,341;  422,642;38592,299; 8,46143
 624,72; 3619,516;  413,403;38498,176; 8,41836
 625,29; 3603,269;  401,705;38672,999; 8,36544
 625,87; 3654,740;  452,253;38624,572; 8,38955
 626,45; 3591,969;  400,857;38355,438; 8,40771
 627,02; 3560,504;  411,022;38241,987; 8,32514
 627,60; 3543,046;  391,492;38177,062; 8,34063
 628,18; 3529,771;  375,482;38304,341; 8,31633
 628,76; 3551,964;  377,321;38278,995; 8,37600
 629,33; 3554,741;  398,017;38256,602; 8,33820
 629,91; 3546,059;  393,636;38332,358; 8,30925
 630,49; 3555,244;  402,169;38344,343; 8,31021
 631,06; 3525,443;  391,014;38561,355; 8,21169
 631,64; 3553,129;  399,781;38570,518; 8,26117
 632,22; 3518,691;  356,547;38450,251; 8,30096
 632,79; 3576,495;  386,085;38721,784; 8,32229
 633,37; 3523,354;  366,409;38772,136; 8,21999
 633,95; 3510,427;  380,549;38718,244; 8,16397
 634,52; 3536,921;  344,710;38943,543; 8,27023
 635,10; 3530,084;  357,482;38921,926; 8,22676
 635,68; 3560,087;  353,393;39211,839; 8,25225
 636,25; 3528,251;  339,696;39104,527; 8,22538
 636,83; 3537,503;  334,244;39427,610; 8,19387
 637,41; 3570,206;  345,930;39291,272; 8,27898
 637,98; 3597,146;  369,699;39619,369; 8,22287
 638,56; 3603,070;  350,541;39736,047; 8,25819
 639,13; 3580,702;  337,628;39806,545; 8,21678
 639,71; 3685,193;  402,091;39826,373; 8,32761
 640,29; 3553,816;  312,168;39716,869; 8,22655
 640,86; 3572,421;  323,861;39894,696; 8,20948
 641,44; 3563,795;  330,477;39943,908; 8,16218
 642,02; 3580,246;  357,015;39948,428; 8,14124
 642,59; 3564,159;  334,169;40035,178; 8,13579
 643,17; 3568,225;  331,016;40039,313; 8,15248
 643,74; 3565,368;  328,862;40171,987; 8,12312
 644,32; 3600,358;  359,862;40031,352; 8,16832
 644,89; 3608,578;  357,016;39901,795; 8,22248
 645,47; 3594,414;  367,401;40017,007; 8,13883
 646,05; 3603,634;  366,017;39912,373; 8,18689
 646,62; 3557,547;  340,017;39976,892; 8,11752
 647,20; 3595,536;  348,479;40112,874; 8,16574
 647,77; 3578,910;  320,633;39946,778; 8,22254
 648,35; 3588,823;  318,864;39738,682; 8,29522
 648,92; 3545,505;  336,249;39838,663; 8,12420
 649,50; 3533,110;  310,172;39786,567; 8,16421
 650,08; 3544,176;  320,557;39662,395; 8,19387
 650,65; 3595,627;  317,250;39898,145; 8,28273
 651,23; 3632,770;  300,635;40709,588; 8,24603
 651,80; 3705,529;  300,635;41761,877; 8,21223
 652,38; 3792,672;  324,558;42164,704; 8,28896
 652,95; 3787,354;  295,789;42632,531; 8,24713
 653,53; 3814,190;  322,251;42930,436; 8,19547
 654,10; 3893,718;  365,636;43113,955; 8,25315
 654,68; 3837,554;  300,867;42913,706; 8,29958
 655,25; 3824,005;  307,252;43032,456; 8,23110
 655,83; 3839,994;  304,098;43190,129; 8,24487
 656,40; 3883,830;  322,637;43142,111; 8,31676
 656,98; 3858,050;  318,945;43018,092; 8,28847
 657,55; 3849,963;  309,714;42845,611; 8,32297
 658,13; 3813,491;  309,791;42472,900; 8,30987
 658,70; 3784,403;  327,099;42161,958; 8,26417
 659,28; 3710,931;  322,253;41234,632; 8,28277
 659,85; 3641,305;  343,254;40317,075; 8,25053
 660,43; 3639,525;  345,869;40357,133; 8,23182
 661,00; 3644,669;  326,562;40518,191; 8,25572
 661,58; 3630,658;  316,562;40828,941; 8,18045
 662,15; 3722,648;  299,408;40983,230; 8,41425
 662,73; 3810,637;  377,716;41372,980; 8,37394
 663,30; 3739,781;  311,486;41576,731; 8,30795
 663,88; 3749,385;  331,409;41704,558; 8,26134
 664,45; 3805,298;  306,871;41859,309; 8,41931
 665,03; 3822,441;  324,410;42232,367; 8,34694
 665,60; 3950,354;  415,487;42783,963; 8,34315
 666,17; 3901,267;  316,564;42807,406; 8,43641
 666,75; 3889,564;  313,564;43193,464; 8,33957
 667,32; 3975,246;  340,488;43441,368; 8,43314
 667,90; 4003,697;  325,642;43905,888; 8,43973
 668,47; 4025,763;  345,103;44130,177; 8,40620
 669,05; 4051,983;  317,027;44485,158; 8,45622
 669,62; 4039,357;  291,565;44558,216; 8,46640
 670,19; 4035,039;  288,104;44634,351; 8,44927
 670,77; 4110,952;  313,951;44841,332; 8,52734
 671,34; 4103,095;  306,643;44754,544; 8,54135
 671,92; 4144,085;  294,874;45131,525; 8,58496
 672,49; 4172,689;  322,105;45166,353; 8,58657
 673,06; 4117,756;  268,490;45249,334; 8,55757
 673,64; 4170,284;  302,952;45140,161; 8,62527
 674,21; 4153,350;  289,491;45045,527; 8,63316
 674,79; 4237,340;  323,568;45349,893; 8,69219
 675,36; 4229,175;  323,953;45390,720; 8,66542
 675,93; 4210,857;  290,337;45408,470; 8,68945
 676,51; 4273,308;  316,491;45568,759; 8,74391
 677,08; 4264,221;  318,876;45659,279; 8,70161
 677,65; 4288,903;  317,415;45807,183; 8,73051
 678,23; 4314,969;  302,877;46022,780; 8,77537
 678,80; 4362,189;  307,108;46030,530; 8,86872
 679,38; 4372,179;  305,185;46184,434; 8,86456
 679,95; 4412,168;  323,031;46395,185; 8,87551
 680,52; 4434,850;  302,032;46786,704; 8,89071
 681,10; 4524,993;  318,032;47129,070; 8,98711
 681,67; 4541,598;  316,417;47439,205; 8,96632
 682,24; 4588,588;  291,340;47425,109; 9,11713
 682,82; 4597,808;  301,033;48114,937; 8,98646
 683,39; 4715,721;  344,494;48527,072; 9,07221
 683,96; 4734,556;  306,033;48747,822; 9,14195
 684,54; 4743,161;  282,495;49060,803; 9,14477
 685,11; 4856,535;  337,726;49360,169; 9,21784
 685,68; 4804,294;  301,265;49795,766; 9,09804
 686,25; 4847,745;  285,342;49890,978; 9,19735
 686,83; 4877,811;  290,957;50080,882; 9,21241
 687,40; 4925,416;  278,958;50513,940; 9,24945
 687,97; 4997,098;  335,496;50846,844; 9,22882
 688,55; 4994,088;  279,650;50880,748; 9,31687
 689,12; 5018,462;  273,112;51153,729; 9,32644
 689,69; 5034,836;  286,959;51219,865; 9,32183
 690,26; 5042,364;  288,959;51368,000; 9,30598
 690,84; 5117,276;  294,267;51612,058; 9,39832
 691,41; 5133,497;  312,729;51610,193; 9,39767
 691,98; 5212,871;  304,883;51946,020; 9,50403
 692,56; 5226,399;  294,191;52029,617; 9,53352
 693,13; 5296,234;  344,499;52126,752; 9,56261
 693,70; 5256,762;  317,960;52271,348; 9,50622
 694,27; 5256,829;  292,191;52377,022; 9,53183
 694,84; 5329,972;  283,345;52627,849; 9,64118
 695,42; 5424,962;  358,423;52537,599; 9,70989
 695,99; 5379,413;  313,192;52812,811; 9,65001
 696,56; 5391,941;  305,039;52635,485; 9,72073
 697,13; 5487,545;  325,346;53021,543; 9,79615
 697,71; 5461,073;  300,193;53194,447; 9,75698
 698,28; 5519,140;  297,732;53457,274; 9,82215
 698,85; 5504,822;  270,116;53464,102; 9,84078
 699,42; 5545,427;  270,501;53696,160; 9,87339
 699,99; 5605,647;  320,963;53684,987; 9,90308
 700,57; 5651,636;  309,579;53846,353; 9,97830
 701,14; 5627,703;  297,964;53927,565; 9,93805
 701,71; 5724,231;  318,964;54135,315;10,04391
 702,28; 5721,605;  307,349;54182,989;10,04954
 702,85; 5714,210;  310,734;54232,431;10,02097
 703,43; 5811,891;  336,426;54564,874;10,09704
 704,00; 5845,342;  351,503;54703,624;10,10787
 704,57; 5815,409;  333,503;54663,606;10,09000
 705,14; 5910,091;  366,427;55021,741;10,14296
 705,71; 5896,696;  351,812;55013,799;10,14395
 706,28; 5903,147;  322,043;54893,165;10,22721
 706,86; 5985,136;  356,658;55263,223;10,25101
 707,43; 5996,203;  389,197;55096,896;10,24902
 708,00; 6006,884;  364,813;55111,108;10,30585
 708,57; 6005,182;  328,890;55065,858;10,37012
 709,14; 6071,556;  355,736;55208,455;10,42030
 709,71; 6060,853;  338,813;55246,898;10,42112
 710,28; 6115,996;  340,737;55489,956;10,47206
 710,86; 6154,678;  344,122;55641,168;10,50790
 711,43; 6204,975;  363,737;55624,687;10,57028
 712,00; 6238,272;  340,507;55743,361;10,64524
 712,57; 6302,493;  360,199;55809,342;10,71666
 713,14; 6310,098;  335,353;55867,708;10,75903
 713,71; 6387,933;  331,507;55872,997;10,90433
 714,28; 6343,538;  324,508;56002,824;10,81037
 714,85; 6316,835;  312,277;55590,344;10,86246
 715,42; 6382,517;  303,893;55835,940;10,94616
 716,00; 6501,122;  386,585;56035,998;10,98760
 716,57; 6434,958;  300,355;56146,902;10,98475
 717,14; 6457,409;  296,970;56012,191;11,05701
 717,71; 6450,937;  288,201;56080,326;11,04589
 718,28; 6557,234;  337,432;56173,923;11,13931
 718,85; 6533,685;  288,279;56151,750;11,17977
 719,42; 6556,136;  307,818;56427,193;11,13398
 719,99; 6553,895;  289,125;56093,251;11,22635
 720,56; 6646,499;  316,203;56343,617;11,29857
 721,13; 6670,104;  291,664;56560,906;11,33557
 721,70; 6699,017;  299,357;56479,348;11,39135
 722,27; 6736,776;  315,896;56447,560;11,43896
 722,84; 6803,842;  371,127;56606,926;11,43883
 723,41; 6787,447;  290,588;56622,138;11,53325
 723,98; 6871,283;  297,896;56860,735;11,62139
 724,55; 6876,426;  324,281;56918,485;11,57741
 725,12; 6877,262;  251,512;56796,774;11,71760
 725,69; 6927,559;  289,051;57077,140;11,68997
 726,27; 6980,779;  296,590;57087,582;11,76981
 726,84; 7098,538;  313,436;57426,794;11,88006
 727,41; 7091,373;  338,052;57489,929;11,81645
 727,98; 7176,671;  316,744;57737,603;11,94675
 728,55; 7236,506;  346,437;57500,276;12,05530
 729,12; 7221,111;  295,668;57679,180;12,06870
 729,69; 7309,331;  317,745;57808,546;12,16123
 730,26; 7345,398;  333,822;58132,450;12,13104
 730,82; 7309,926;  304,053;57925,585;12,15843
 731,39; 7386,915;  312,284;58041,951;12,25476
 731,96; 7457,135;  309,823;58448,779;12,29350
 732,53; 7490,048;  328,669;58661,837;12,27668
 733,10; 7566,422;  323,823;58635,741;12,42044
 733,67; 7632,719;  328,054;58841,568;12,48372
 734,24; 7601,017;  310,593;58491,319;12,53065
 734,81; 7668,237;  352,516;58693,607;12,53957
 735,38; 7629,765;  320,286;58334,742;12,59941
 735,95; 7623,908;  320,517;58207,647;12,61661
 736,52; 7722,513;  339,902;58423,397;12,71034
 737,09; 7670,349;  335,671;58058,686;12,70668
 737,66; 7774,107;  376,364;58246,975;12,78325
 738,23; 7765,097;  322,595;58314,418;12,83371
 738,80; 7923,394;  398,672;58660,937;12,91526
 739,37; 7882,230;  359,211;58834,457;12,86531
 739,94; 7888,681;  331,980;58848,438;12,91380
 740,51; 8062,363;  457,904;58906,111;13,01059
 741,07; 7944,198;  326,904;58854,016;13,01498
 741,64; 8067,111;  354,904;59132,843;13,12092
 742,21; 8082,869;  328,135;59186,363;13,17528
 742,78; 8042,244;  304,520;58860,344;13,21427
 743,35; 8114,387;  326,751;59209,940;13,22557
 743,92; 8179,838;  369,520;59396,614;13,23175
 744,49; 8210,366;  361,136;59206,903;13,33865
 745,06; 8246,509;  328,675;59118,961;13,46793
 745,63; 8254,268;  315,136;59212,327;13,47964
 746,19; 8300,257;  329,368;59178,077;13,54472
 746,76; 8299,401;  315,060;59189,366;13,56167
 747,33; 8382,467;  318,445;59148,501;13,70732
 747,90; 8483,303;  342,445;59377,174;13,78995
 748,47; 8495,062;  335,215;59260,771;13,84772
 749,04; 8476,051;  338,676;59297,137;13,80188
 749,61; 8522,579;  361,907;59176,810;13,87518
 750,17; 8594,415;  352,523;59399,714;13,95814
 750,74; 8567,789;  335,216;59300,619;13,96170
 751,31; 8545,701;  310,139;59240,907;13,97498
 751,88; 8562,229;  294,601;59138,889;14,05001
 752,45; 8626,834;  320,063;59230,024;14,10079
 753,02; 8638,131;  350,678;59124,082;14,10069
 753,58; 8661,506;  316,678;59082,601;14,20011
 754,15; 8719,418;  323,140;59156,044;14,27140
 754,72; 8720,946;  317,063;58842,025;14,35948
 755,29; 8736,089;  298,910;58758,237;14,43256
 755,86; 8779,233;  316,833;58818,372;14,46526
 756,42; 8822,376;  316,833;58810,738;14,54090
 756,99; 8786,212;  286,218;58738,411;14,54179
 757,56; 8796,586;  288,142;58803,162;14,54062
 758,13; 8796,960;  232,757;58630,912;14,66519
 758,70; 8903,103;  270,911;58731,278;14,76589
 759,26; 8899,247;  257,989;58774,490;14,76722
 759,83; 8922,467;  265,989;58868,548;14,77150
 760,40; 8967,687;  232,681;58704,375;14,93886
 760,97; 8979,754;  234,374;58750,203;14,94532
 761,53; 8932,820;  224,605;58341,261;14,98403
 762,10; 8932,579;  222,913;58241,934;15,01174
 762,67; 9025,799;  247,528;58252,146;15,13374
 763,24; 8914,250;  214,913;57818,050;15,10219
 763,80; 9069,701;  250,760;57981,724;15,27593
 764,37; 9056,614;  254,606;57965,090;15,25201
 764,94; 8961,911;  245,529;57482,225;15,22866
 765,50; 9040,285;  251,684;57604,744;15,32368
 766,07; 9109,198;  284,607;57530,187;15,41532
 766,64; 9055,802;  261,761;57140,937;15,46092
 767,21; 9065,023;  273,838;57176,996;15,44938
 767,77; 9157,474;  280,454;56999,131;15,65096
 768,34; 9153,694;  301,762;57055,035;15,59722
 768,91; 9206,607;  318,300;56858,324;15,72038
 769,47; 9253,211;  311,531;56753,613;15,84222
 770,04; 9184,355;  306,762;56771,748;15,72230
 770,61; 9175,037;  290,609;56396,190;15,83519
 771,18; 9178,026;  285,224;56340,248;15,86442
 771,74; 9248,785;  301,302;56538,076;15,91038
 772,31; 9318,620;  298,840;56210,672;16,13215
 772,88; 9267,918;  272,917;56079,807;16,11808
 773,44; 9231,599;  273,225;55882,558;16,10948
 774,01; 9253,666;  310,533;55919,693;16,08212
 774,58; 9323,348;  282,457;55535,135;16,36281
 775,14; 9291,645;  275,842;55845,501;16,22433
 775,71; 9325,557;  285,919;55677,559;16,31950
 776,27; 9410,239;  346,996;55599,002;16,40346
 776,84; 9493,229;  398,535;55670,137;16,45455
 777,41; 9461,218;  301,150;55439,657;16,61283
 777,97; 9392,362;  298,843;55128,176;16,58513
 778,54; 9456,890;  304,997;55210,542;16,66843
 779,11; 9493,648;  325,228;55243,062;16,69480
 779,67; 9495,176;  290,690;55108,274;16,79112
 780,24; 9475,089;  297,151;54843,716;16,82588
 780,80; 9538,617;  313,921;54847,005;16,91578
 781,37; 9577,299;  308,844;54844,525;16,99521
 781,94; 9552,134;  292,075;54671,198;17,02870
 782,50; 9517,278;  303,537;54516,487;16,99546
 783,07; 9591,421;  322,999;54478,391;17,11450
 783,63; 9583,872;  279,153;54390,834;17,19540
 784,20; 9600,784;  314,769;54270,200;17,21053
 784,77; 9548,312;  306,769;54102,796;17,17886
 785,33; 9514,379;  272,384;53903,393;17,23256
 785,90; 9580,907;  297,077;53778,297;17,35905
 786,46; 9619,358;  321,462;53734,201;17,40764
 787,03; 9630,270;  278,385;53483,413;17,57707
 787,59; 9615,875;  279,001;53492,394;17,54610
 788,16; 9703,173;  295,155;53466,683;17,69371
 788,73; 9662,239;  290,001;53245,126;17,69845
 789,29; 9658,382;  278,309;52894,492;17,82735
 789,86; 9687,141;  319,002;52748,088;17,86821
 790,42; 9676,900;  295,310;52568,993;17,94706
 790,99; 9662,812;  299,771;52310,358;18,00218
 791,55; 9661,648;  282,002;52318,724;18,02505
 792,12; 9715,484;  320,695;52386,013;18,04424
 792,68; 9695,858;  301,157;52024,148;18,16349
 793,25; 9719,463;  299,542;51748,437;18,30928
 793,81; 9719,606;  386,234;51357,033;18,31121
 794,38; 9617,365;  261,158;51107,938;18,40079
 794,94; 9654,585;  281,081;51000,842;18,48097
 795,51; 9639,036;  307,620;50705,669;18,51543
 796,07; 9624,872;  307,004;50507,420;18,56133
 796,64; 9672,553;  321,005;50645,632;18,58245
 797,20; 9674,158;  290,159;50092,613;18,84244
 797,77; 9543,686;  265,928;49761,517;18,74462
 798,33; 9574,445;  293,313;49617,806;18,81648
 798,90; 9610,819;  317,390;49516,172;18,88955
 799,46; 9543,270;  276,698;48859,691;19,07369
 800,03; 9536,875;  284,775;48971,442;19,00335
 800,59; 9596,557;  323,468;48783,192;19,13566
 801,15; 9573,085;  321,391;48491,789;19,20618
 801,72; 9491,843;  296,315;48094,001;19,23844
 802,28; 9480,295;  324,084;47851,905;19,26495
 802,85; 9444,592;  288,930;47575,886;19,36192
 803,41; 9471,504;  289,085;47498,021;19,45060
 803,98; 9411,032;  288,931;47040,771;19,51175
 804,54; 9369,329;  285,162;46674,830;19,58231
 805,11; 9358,627;  294,239;46584,195;19,58176
 805,67; 9420,539;  311,316;46593,638;19,68186
 806,23; 9349,529;  296,393;46081,542;19,77308
 806,80; 9343,595;  315,932;45931,677;19,79067
 807,36; 9358,200;  314,086;45848,889;19,86198
 807,93; 9365,959;  336,394;45595,870;19,95066
 808,49; 9288,410;  283,933;45222,852;20,03715
 809,05; 9257,861;  279,087;45020,448;20,06817
 809,62; 9269,235;  294,010;44972,583;20,08843
 810,18; 9290,840;  298,395;44863,103;20,17840
 810,74; 9229,522;  262,857;44524,699;20,25823
 811,31; 9223,896;  268,242;44358,373;20,31215
 811,87; 9237,654;  293,011;44152,046;20,39407
 812,44; 9327,029;  312,935;44118,412;20,57755
 813,00; 9221,326;  242,319;43858,701;20,58632
 813,56; 9262,854;  287,089;43919,144;20,57149
 814,13; 9292,074;  284,397;43833,432;20,68399
 814,69; 9280,448;  278,551;43654,644;20,75313
 815,25; 9225,514;  244,397;43192,779;20,91142
 815,82; 9264,042;  289,321;43147,914;20,94031
 816,38; 9310,417;  318,167;42990,126;21,07297
 816,94; 9196,791;  262,937;42604,800;21,09934
 817,51; 9196,934;  246,014;42349,396;21,25939
 818,07; 9131,693;  256,014;42045,916;21,23881
 818,63; 9175,221;  275,630;41873,436;21,39438
 819,20; 9186,364;  266,245;41944,801;21,40218
 819,76; 9121,277;  256,399;41441,475;21,52449
 820,32; 9136,112;  304,092;41310,533;21,53813
 820,89; 9115,179;  287,015;41095,822;21,63299
 821,45; 9038,245;  256,631;40794,495;21,66275
 822,01; 9036,235;  278,170;40478,553;21,78602
 822,57; 9055,763;  279,939;40359,150;21,89620
 823,14; 8981,675;  245,247;40150,208;21,89309
 823,70; 8984,434;  267,093;39855,728;22,01981
 824,26; 8938,654;  255,940;39693,940;22,01611
 824,82; 8970,490;  299,402;39626,075;22,04887
 825,39; 8910,941;  262,017;39235,287;22,19194
 825,95; 8951,700;  269,864;39183,422;22,31057
 826,51; 8844,227;  278,633;38870,710;22,19521
 827,08; 8922,986;  313,095;38988,384;22,26200
 827,64; 8863,976;  295,710;38658,519;22,33482
 828,20; 8860,734;  253,172;38377,039;22,57788
 828,76; 8916,185;  307,711;38348,327;22,62969
 829,32; 8905,867;  294,634;38190,539;22,72339
 829,89; 8843,549;  244,635;38065,367;22,73598
 830,45; 8905,846;  276,404;38015,502;22,86605
 831,01; 8881,067;  260,481;37845,406;22,93628
 831,57; 8859,825;  271,404;37624,156;22,99274
 832,14; 8890,045;  267,097;37710,599;23,02923
 832,70; 8851,112;  257,174;37407,811;23,13268
 833,26; 8895,409;  229,944;37299,869;23,37600
 833,82; 8902,245;  260,329;37228,312;23,37676
 834,38; 8948,696;  245,252;37213,601;23,54296
 834,95; 8904,455;  250,867;37046,736;23,51782
 835,51; 8917,059;  220,406;36916,948;23,69884
 836,07; 8988,049;  267,791;36998,236;23,74123
 836,63; 9009,731;  275,022;36999,833;23,78422
 837,19; 9060,951;  272,715;36822,430;24,04461
 837,75; 8976,710;  236,561;36472,718;24,11997
 838,32; 9040,699;  284,946;36590,161;24,11707
 838,88; 9086,689;  283,023;36670,527;24,19420
 839,44; 9094,601;  276,869;36566,816;24,29800
 840,00; 9119,975;  266,254;36430,489;24,48198
 840,56; 9043,503;  260,331;36155,240;24,46913
 841,12; 9095,185;  239,486;36161,605;24,65250
 841,68; 9073,482;  236,409;35952,125;24,74281
 842,25; 9043,856;  256,332;35987,337;24,59355
 842,81; 9043,077;  236,948;35649,241;24,86743
 843,37; 9068,989;  231,640;35706,453;24,91162
 843,93; 9068,133;  250,256;35579,127;24,95941
 844,49; 9144,122;  273,718;35613,262;25,10051
 845,05; 9055,727;  216,487;35393,474;25,12791
 845,61; 9113,640;  268,641;35485,839;25,11556
 846,17; 9114,475;  243,642;35369,667;25,25431
 846,73; 9133,311;  250,026;35271,571;25,36520
 847,29; 9084,070;  239,181;35004,783;25,44150
 847,86; 9088,674;  245,104;35011,456;25,43715
 848,42; 9051,279;  242,643;34765,437;25,51542
 848,98; 9121,115;  262,412;34724,496;25,70565
 849,54; 9084,566;  253,643;34742,246;25,60534
 850,10; 9121,556;  265,797;34517,996;25,85457
 850,66; 9077,007;  236,336;34407,208;25,87195
 851,22; 9062,304;  231,182;34400,497;25,84518
 851,78; 9143,909;  277,490;34418,324;25,97013
 852,34; 9085,975;  264,490;34216,998;25,98184
 852,90; 9076,041;  237,106;34041,056;26,14764
 853,46; 9075,569;  245,799;33860,345;26,26771
 854,02; 9063,482;  256,568;33917,018;26,16398
 854,58; 9055,625;  256,722;33505,307;26,46399
 855,14; 9078,923;  238,338;33525,288;26,55871
 855,70; 9038,758;  207,492;33415,039;26,59415
 856,26; 9072,978;  252,031;33282,635;26,70538
 856,82; 9032,276;  241,031;33141,617;26,72063
 857,38; 9072,188;  292,339;33004,444;26,83976
 857,94; 9020,255;  255,878;32893,502;26,85360
 858,50; 9057,629;  263,570;32755,483;27,06538
 859,06; 8969,695;  248,878;32506,080;27,03526
 859,62; 9068,915;  259,724;32519,368;27,30715
 860,18; 9028,290;  250,340;32376,196;27,32363
 860,74; 8971,971;  229,802;32079,946;27,44782
 861,30; 8954,345;  227,033;31975,774;27,48869
 861,86; 9017,720;  316,187;32026,216;27,44095
 862,42; 8951,401;  245,572;31830,428;27,56330
 862,98; 9016,314;  276,803;31859,948;27,67144
 863,54; 8899,457;  237,342;31497,160;27,71006
 864,10; 8947,370;  239,034;31610,141;27,75910
 864,66; 8919,590;  224,880;31321,584;27,96023
 865,22; 8899,657;  244,342;31234,488;27,92925
 865,78; 8895,031;  250,573;31170,238;27,95780
 866,34; 8917,251;  231,727;31085,143;28,15093
 866,90; 8844,471;  255,574;30876,431;28,04917
 867,45; 8841,999;  249,112;30704,182;28,21496
 868,01; 8811,066;  253,651;30485,855;28,30563
 868,57; 8826,440;  238,036;30324,067;28,54615
 869,13; 8752,045;  223,882;30228,433;28,42290
 869,69; 8769,265;  239,113;30057,030;28,60747
 870,25; 8759,947;  228,883;29990,626;28,66453
 870,81; 8739,628;  238,037;29950,376;28,61300
 871,37; 8765,233;  268,499;29863,973;28,70957
 871,93; 8809,223;  264,730;29639,570;29,08779
 872,49; 8732,828;  289,192;29427,166;28,97812
 873,04; 8699,433;  232,269;29228,301;29,20111
 873,60; 8724,653;  230,807;29150,667;29,37029
 874,16; 8749,488;  242,115;29056,879;29,52436
 874,72; 8712,104;  235,731;28980,110;29,48880
 875,28; 8652,796;  237,731;28893,340;29,36621
 875,84; 8694,104;  249,115;28810,417;29,56794
 876,40; 8737,565;  242,808;28833,187;29,71195
 876,95; 8791,335;  248,038;28684,956;30,04298
 877,51; 8809,950;  268,038;28741,571;29,99948
 878,07; 8775,412;  285,808;28664,187;29,91575
 878,63; 8790,488;  246,346;28737,340;29,98892
 879,19; 8837,335;  259,808;28726,956;30,13132
 879,75; 8847,642;  229,577;28770,187;30,19580
 880,30; 8878,796;  243,269;28768,187;30,27363
 880,86; 9001,412;  279,346;28888,187;30,48731
 881,42; 8942,873;  229,038;28904,802;30,38745
 881,98; 8985,796;  261,115;28898,494;30,46606
 882,54; 9065,258;  236,654;29083,725;30,60485
 883,09; 9113,642;  255,038;29226,187;30,57733
 883,65; 9204,027;  242,423;29270,110;30,87261
 884,21; 9332,104;  282,731;29509,033;30,96311
 884,77; 9336,488;  233,731;29549,648;31,05056
 885,32; 9387,488;  236,192;29678,571;31,08205
 885,88; 9515,950;  288,038;29793,187;31,27560
 886,44; 9550,412;  254,115;30006,571;31,24548
 887,00; 9607,565;  269,269;29921,263;31,49298
 887,56; 9676,488;  246,731;30080,879;31,60726
 888,11; 9696,565;  249,885;30138,802;31,60597
 888,67; 9784,488;  277,654;30316,494;31,64847
 889,23; 9829,258;  247,654;30270,417;31,91446
 889,79; 9782,565;  241,808;30227,494;31,81771
 890,34; 9789,027;  257,423;30135,033;31,90216
 890,90; 9951,258;  322,115;30343,340;32,07445
 891,46; 9841,796;  241,115;30146,033;32,10402
 892,01; 9883,873;  255,423;30155,417;32,20218
 892,57; 9909,181;  281,192;30099,340;32,28902
 893,13; 9782,488;  247,654;29844,648;32,21555
 893,69; 9817,181;  233,423;29838,494;32,37201
 894,24; 9795,412;  244,269;29695,417;32,43046
 894,80; 9815,027;  248,500;29548,494;32,65027
 895,36; 9741,642;  248,731;29467,263;32,48935
 895,91; 9686,796;  242,654;29224,110;32,58685
 896,47; 9726,950;  260,654;29114,417;32,80784
 897,03; 9673,565;  246,654;28924,110;32,87220
 897,58; 9620,335;  254,192;28778,187;32,83601
 898,14; 9588,104;  253,423;28698,648;32,81634
 898,70; 9510,488;  215,269;28459,110;32,91061
 899,25; 9536,027;  244,885;28531,802;32,84608
 899,81; 9527,412;  250,192;28214,187;33,17559
 900,37; 9519,488;  214,654;27953,340;33,54461
 900,92; 9538,565;  248,038;28080,956;33,37964
 901,48; 9486,873;  236,577;27881,417;33,46120
 902,03; 9447,488;  238,346;27766,417;33,45364
 902,59; 9424,796;  235,577;27669,802;33,49546
 903,15; 9426,565;  253,192;27441,417;33,74024
 903,70; 9328,719;  239,115;27252,571;33,64843
 904,26; 9306,181;  233,192;27078,263;33,79760
 904,82; 9343,873;  235,654;27069,110;33,94352
 905,37; 9323,565;  246,808;26941,263;34,00241
 905,93; 9262,642;  230,731;26746,648;34,06223
 906,48; 9311,412;  253,654;26748,263;34,18717
 907,04; 9310,027;  248,808;26615,725;34,36587
 907,60; 9232,104;  246,654;26451,263;34,28958
 908,15; 9249,796;  217,423;26205,956;34,75523
 908,71; 9238,027;  255,654;26253,494;34,55046
 909,26; 9184,181;  235,731;26051,340;34,66294
 909,82; 9231,796;  247,500;25919,494;34,99649
 910,37; 9240,642;  280,885;25889,033;34,98792
 910,93; 9177,796;  223,346;25666,110;35,19449
 911,48; 9124,873;  225,423;25556,725;35,13223
 912,04; 9129,719;  230,269;25385,879;35,37760
 912,60; 9228,181;  243,654;25411,187;35,69888
 913,15; 9122,950;  244,192;25191,187;35,59049
 913,71; 9097,565;  226,038;25009,110;35,79672
 914,26; 9127,027;  207,654;24982,187;36,00218
 914,82; 9095,104;  233,808;24938,879;35,86833
 915,37; 9040,104;  226,577;24800,956;35,86470
 915,93; 9145,335;  281,346;24688,956;36,31650
 916,48; 9071,950;  220,192;24487,879;36,47549
 917,04; 9077,719;  258,269;24466,340;36,43186
 917,59; 9082,027;  268,269;24344,110;36,60831
 918,15; 8978,873;  203,808;24117,033;36,69545
 918,70; 8978,258;  225,346;24020,263;36,78479
 919,26; 8994,412;  230,269;23902,802;37,02241
 919,81; 8908,950;  224,654;23739,263;36,93149
 920,37; 8894,642;  234,038;23688,956;36,92447
 920,92; 8887,027;  252,808;23585,802;37,00433
 921,48; 8834,335;  228,423;23421,494;37,10553
 922,03; 8773,335;  237,577;23409,110;36,83726
 922,59; 8787,796;  235,500;23233,417;37,18726
 923,14; 8758,950;  222,038;23090,956;37,32976
 923,69; 8771,181;  256,962;23011,263;37,41806
 924,25; 8763,335;  263,038;22969,956;37,43483
 924,80; 8670,950;  233,654;22738,802;37,49052
 925,36; 8639,412;  221,192;22737,110;37,38786
 925,91; 8596,258;  227,885;22552,187;37,48549
 926,47; 8607,565;  208,269;22441,340;37,77839
 927,02; 8648,412;  308,346;22397,110;37,75705
 927,57; 8603,104;  221,577;22235,571;38,07363
 928,13; 8531,335;  214,269;22163,110;37,89296
 928,68; 8538,181;  221,423;22072,725;38,06070
 929,24; 8496,796;  197,500;21805,879;38,40777
 929,79; 8441,719;  215,192;21702,110;38,28621
 930,34; 8449,335;  230,654;21651,340;38,36796
 930,90; 8425,873;  216,423;21565,494;38,45343
 931,45; 8437,412;  233,654;21543,340;38,49779
 932,01; 8397,565;  234,808;21374,110;38,61413
 932,56; 8373,873;  240,038;21245,340;38,72277
 933,11; 8403,488;  251,577;21204,110;38,90657
 933,67; 8322,719;  212,346;21073,340;38,87817
 934,22; 8357,104;  235,038;20982,494;39,14728
 934,77; 8290,412;  253,423;20843,340;39,03361
 935,33; 8236,258;  242,346;20720,571;39,03615
 935,88; 8216,565;  231,808;20664,802;39,07777
 936,43; 8224,104;  219,192;20546,571;39,37995
 936,99; 8177,796;  227,731;20466,187;39,28198
 937,54; 8085,873;  201,731;20228,187;39,36864
 938,09; 8133,181;  233,577;20285,033;39,39666
 938,65; 8097,796;  233,654;20099,494;39,58626
 939,20; 8063,565;  206,962;19953,263;39,78772
 939,75; 8008,488;  209,654;19835,110;39,73836
 940,31; 8002,181;  207,500;19826,725;39,72981
 940,86; 8037,873;  229,038;19791,494;39,91746
 941,41; 8118,565;  318,500;19668,648;40,31011
 941,96; 7992,181;  212,731;19607,340;40,11140
 942,52; 7974,950;  218,269;19443,879;40,34556
 943,07; 7918,258;  207,346;19295,494;40,39633
 943,62; 7955,181;  224,115;19169,263;40,80763
 944,18; 7974,181;  191,346;19165,263;41,01860
 944,73; 7931,335;  228,962;19085,725;40,84674
 945,28; 7839,258;  201,577;18843,417;40,97064
 945,83; 7899,258;  207,654;18876,340;41,20056
 946,39; 7887,181;  208,962;18816,571;41,26387
 946,94; 7886,412;  251,038;18726,956;41,32608
 947,49; 7868,258;  214,269;18608,033;41,61187
 948,04; 7965,412;  266,269;18638,340;41,90677
 948,59; 7876,258;  236,192;18466,033;41,90967
 949,15; 7855,181;  202,115;18418,417;42,01218
 949,70; 7881,258;  215,885;18278,340;42,43816
 950,25; 7829,488;  227,731;18187,879;42,32570
 950,80; 7815,950;  186,654;18065,494;42,67221
 951,36; 7748,873;  189,038;18013,725;42,41216
 951,91; 7814,027;  235,577;17995,648;42,67128
 952,46; 7695,104;  213,962;17770,956;42,61061
 953,01; 7767,181;  238,038;17784,110;42,91070
 953,56; 7684,335;  194,654;17578,802;43,08339
 954,11; 7673,181;  229,346;17578,648;42,90567
 954,67; 7703,642;  207,500;17465,187;43,43654
 955,22; 7633,335;  196,654;17353,033;43,34645
 955,77; 7650,181;  233,192;17342,110;43,35159
 956,32; 7640,873;  271,808;17259,879;43,37788
 956,87; 7543,335;  211,269;17057,802;43,52270
 957,42; 7558,796;  214,500;17054,340;43,61262
 957,98; 7530,412;  207,654;16927,725;43,79621
 958,53; 7536,104;  248,577;16912,263;43,73298
 959,08; 7504,796;  203,423;16808,494;43,97074
 959,63; 7500,335;  207,192;16637,571;44,38816
 960,18; 7497,104;  234,192;16604,110;44,36743
 960,73; 7460,258;  229,115;16584,340;44,21304
 961,28; 7359,950;  201,038;16439,340;44,08658
 961,83; 7439,335;  235,577;16461,725;44,39598
 962,39; 7357,181;  199,962;16238,033;44,62643
 962,94; 7399,642;  229,115;16205,263;44,88270
 963,49; 7308,796;  223,115;16012,340;44,87669
 964,04; 7342,642;  233,500;16038,417;44,98057
 964,59; 7264,950;  192,038;15881,956;45,07934
 965,14; 7284,258;  242,962;15896,263;44,98282
 965,69; 7242,412;  221,038;15762,263;45,17902
 966,24; 7204,335;  213,500;15696,648;45,15125
 966,79; 7150,412;  241,115;15591,110;45,01172
 967,34; 7097,565;  193,654;15448,879;45,25605
 967,89; 7126,488;  221,346;15349,956;45,64294
 968,44; 7089,642;  214,269;15290,263;45,60477
 968,99; 7097,488;  229,038;15280,340;45,63359
 969,55; 7095,335;  226,500;15127,648;46,09601
 970,10; 7032,412;  233,808;15016,802;45,98936
 970,65; 7025,950;  248,962;14934,802;46,14641
 971,20; 7015,642;  208,885;14882,494;46,38775
 971,75; 6935,104;  199,500;14642,187;46,63678
 972,30; 6960,181;  230,808;14579,417;46,89913
 972,85; 6878,796;  211,500;14515,571;46,61118
 973,40; 6866,181;  210,885;14380,417;46,96906
 973,95; 6882,027;  237,808;14345,187;47,09748
 974,50; 6866,565;  263,269;14222,956;47,30261
 975,05; 6794,412;  222,500;14148,263;47,19247
 975,60; 6804,950;  234,731;14046,187;47,57079
 976,15; 6757,873;  210,115;13950,417;47,65367
 976,70; 6707,258;  217,500;13911,187;47,39233
 977,25; 6690,488;  237,038;13847,802;47,41431
 977,80; 6612,950;  216,577;13657,725;47,58800
 978,35; 6564,873;  231,423;13469,956;47,84103
 978,89; 6530,719;  194,115;13448,263;47,80846
 979,44; 6515,873;  223,962;13453,879;47,55821
 979,99; 6428,412;  211,038;13226,879;47,76774
 980,54; 6430,565;  252,654;13184,725;47,77202
 981,09; 6396,335;  243,808;13054,417;48,02681
 981,64; 6295,258;  235,731;12931,725;47,72786
 982,19; 6306,565;  259,808;12909,340;47,80222
 982,74; 6218,719;  242,962;12781,571;47,65885
 983,29; 6163,796;  215,269;12692,879;47,67361
 983,84; 6127,412;  238,423;12495,879;48,04413
 984,39; 6176,181;  313,192;12472,033;48,21996
 984,94; 6033,565;  197,192;12341,571;48,05823
 985,49; 6088,412;  252,731;12332,417;48,30987
 986,03; 6045,796;  238,962;12142,879;48,78087
 986,58; 6010,488;  280,654;12086,187;48,53516
 987,13; 5918,488;  230,500;11883,725;48,81042
 987,68; 5898,258;  248,577;11819,494;48,82656
 988,23; 5908,796;  239,269;11738,879;49,30191
 988,78; 5833,873;  213,269;11583,879;49,43098
 989,33; 5772,258;  257,808;11489,494;49,09726
 989,88; 5777,488;  259,346;11477,187;49,19077
 990,42; 5690,181;  225,269;11282,187;49,42527
 990,97; 5627,412;  215,654;11123,110;49,61522
 991,52; 5589,642;  248,885;11134,033;49,06463
 992,07; 5585,181;  269,577;11035,110;49,37613
 992,62; 5571,642;  240,654;10844,494;50,27413
 993,17; 5477,181;  249,346;10701,340;50,01758
 993,71; 5421,104;  251,731;10676,263;49,58854
 994,26; 5380,412;  230,962;10506,956;50,11145
 994,81; 5376,027;  260,808;10500,417;49,95522
 995,36; 5258,488;  221,346;10309,340;49,93205
 995,91; 5244,950;  227,654;10275,648;49,93331
 996,45; 5187,104;  240,500;10146,956;49,93313
 997,00; 5114,335;  212,962; 9983,187;50,16643
 997,55; 5137,719;  252,423; 9988,417;50,17768
 998,10; 5060,335;  248,500; 9817,494;50,28569
 998,65; 5050,565;  242,654; 9754,033;50,54905
 999,19; 4975,565;  257,269; 9619,187;50,39882
 999,74; 4968,104;  270,962; 9535,571;50,69984
1000,29; 4917,642;  240,115; 9479,802;50,62430
1000,84; 4848,104;  236,269; 9276,494;51,01460
1001,38; 4802,412;  234,731; 9204,033;50,92571
1001,93; 4756,335;  251,269; 9136,187;50,70464
1002,48; 4677,642;  226,269; 9021,417;50,61169
1003,03; 4687,258;  253,192; 8993,187;50,73305
1003,57; 4615,027;  233,654; 8831,494;50,95900
1004,12; 4590,796;  284,731; 8781,263;50,68027
1004,67; 4529,412;  231,423; 8640,802;51,10946
1005,22; 4447,027;  222,115; 8490,417;51,09769
1005,76; 4416,027;  221,346; 8363,340;51,51908
1006,31; 4376,565;  253,654; 8360,802;50,85526
1006,86; 4318,335;  223,115; 8200,494;51,33540
1007,40; 4249,027;  210,346; 8055,571;51,47948
1007,95; 4209,719;  240,654; 7977,187;51,30290
1008,50; 4159,027;  235,500; 7856,417;51,48366
1009,04; 4139,642;  233,577; 7796,033;51,65075
1009,59; 4074,565;  233,038; 7635,571;51,89476
1010,14; 4019,796;  218,885; 7497,494;52,22030
1010,68; 3968,181;  232,269; 7414,417;52,01663
1011,23; 3906,258;  228,346; 7290,494;52,07922
1011,78; 3886,335;  244,577; 7217,187;52,22948
1012,32; 3838,412;  267,423; 7108,110;52,20219
1012,87; 3824,950;  261,731; 7091,494;52,17193
1013,42; 3730,719;  222,654; 6908,033;52,47370
1013,96; 3767,719;  267,423; 6969,033;52,23068
1014,51; 3684,565;  195,192; 6870,340;52,27409
1015,06; 3689,565;  218,577; 6820,417;52,57607
1015,60; 3738,181;  268,192; 6919,648;52,16886
1016,15; 3702,796;  217,654; 6860,802;52,46221
1016,69; 3755,488;  229,885; 6884,110;52,98294
1017,24; 3745,796;  213,962; 6871,571;53,04959
1017,79; 3815,181;  273,500; 6962,725;52,94606
1018,33; 3802,181;  231,885; 6942,340;53,20497
1018,88; 3834,488;  256,654; 6979,340;53,22031
1019,42; 3874,181;  218,038; 6976,263;54,09915
1019,97; 3850,335;  222,192; 6987,033;53,63234
1020,51; 3920,488;  266,192; 7069,187;53,71600
1021,06; 3852,719;  213,962; 7018,494;53,47550
1021,61; 3857,565;  199,115; 6993,956;53,84159
1022,15; 3814,719;  181,808; 6943,571;53,72728
1022,70; 3845,258;  232,192; 6960,571;53,69890
1023,24; 3838,873;  207,577; 6896,340;54,28950
1023,79; 3808,488;  224,269; 6824,187;54,30703
1024,33; 3783,104;  219,731; 6798,802;54,16225
1024,88; 3744,796;  242,115; 6705,648;54,19143
1025,42; 3704,181;  234,346; 6583,494;54,65040
1025,97; 3650,488;  214,115; 6508,033;54,59832
1026,51; 3595,719;  201,423; 6397,494;54,78143
1027,06; 3572,488;  213,577; 6362,571;54,62538
1027,60; 3512,258;  231,808; 6233,879;54,65530
1028,15; 3502,488;  243,654; 6151,417;55,16190
1028,69; 3377,565;  188,038; 6007,417;54,80872
1029,24; 3371,565;  217,269; 5916,110;55,34979
1029,78; 3288,488;  204,269; 5840,725;54,71912
1030,33; 3249,565;  192,423; 5734,725;55,16015
1030,87; 3186,796;  209,577; 5652,879;54,69510
1031,42; 3165,412;  195,577; 5588,802;55,06602
1031,96; 3166,412;  234,885; 5527,956;55,38423
1032,51; 3082,565;  203,346; 5395,571;55,45251
1033,05; 3041,719;  220,808; 5369,494;54,78895
1033,60; 2991,488;  190,731; 5234,956;55,52404
1034,14; 2976,181;  220,346; 5180,417;55,56038
1034,69; 2930,027;  215,115; 5142,263;55,10107
1035,23; 2878,027;  223,654; 5014,879;55,40072
1035,77; 2876,642;  212,577; 4986,648;55,80280
1036,32; 2767,488;  203,962; 4901,956;54,56641
1036,86; 2792,950;  232,192; 4857,494;55,36412
1037,41; 2737,335;  230,192; 4769,340;55,23376
1037,95; 2678,258;  194,962; 4686,187;55,29218
1038,50; 2693,027;  206,654; 4643,879;56,03442
1039,04; 2660,258;  237,500; 4581,879;55,76764
1039,58; 2592,027;  194,885; 4480,340;55,93669
1040,13; 2584,873;  215,269; 4413,340;56,44506
1040,67; 2606,719;  242,269; 4389,956;57,00648
1041,21; 2561,719;  242,346; 4332,571;56,70527
1041,76; 2461,796;  206,115; 4262,110;55,61351
1042,30; 2468,565;  214,038; 4213,187;56,37518
1042,85; 2412,719;  218,577; 4124,802;56,17040
1043,39; 2383,181;  201,731; 4044,879;56,76206
1043,93; 2393,873;  237,808; 4033,571;56,80189
1044,48; 2365,104;  226,500; 3957,340;57,32231
1045,02; 2308,873;  222,269; 3891,648;56,86532
1045,56; 2312,104;  249,038; 3869,648;56,98116
1046,11; 2268,796;  220,038; 3814,571;56,99650
1046,65; 2259,488;  227,500; 3729,263;58,02758
1047,19; 2199,565;  203,346; 3711,187;56,90736
1047,74; 2178,104;  193,885; 3613,956;58,01690
1048,28; 2139,412;  226,038; 3590,956;56,86241
1048,82; 2151,027;  234,192; 3563,417;57,57600
1049,37; 2116,488;  231,885; 3506,110;57,55878
1049,91; 2090,258;  233,269; 3454,263;57,65265
1050,45; 2065,104;  235,808; 3403,340;57,75145
1050,99; 2056,104;  226,346; 3366,263;58,27407
1051,54; 1984,796;  206,654; 3318,187;57,14683
1052,08; 2006,258;  243,654; 3287,956;57,89846
1052,62; 1960,873;  239,500; 3222,725;57,70175
1053,16; 1915,027;  208,500; 3179,494;57,43959
1053,71; 1901,335;  228,808; 3150,648;57,24224
1054,25; 1862,258;  238,654; 3097,571;56,79086
1054,79; 1849,565;  238,038; 3047,494;57,36082
1055,33; 1794,412;  198,500; 2947,417;58,05600
1055,88; 1824,796;  236,346; 2969,802;58,11142
1056,42; 1801,873;  236,500; 2937,648;57,95214
1056,96; 1753,335;  241,115; 2886,340;57,16789
1057,50; 1738,335;  233,346; 2852,110;57,46943
1058,05; 1709,335;  231,038; 2782,648;57,93583
1058,59; 1712,104;  258,885; 2744,725;58,45988
1059,13; 1632,488;  209,192; 2702,187;57,09184
1059,67; 1654,335;  236,115; 2685,417;57,90300
1060,21; 1607,258;  227,577; 2614,033;57,81296
1060,76; 1597,258;  243,423; 2595,802;57,55173
1061,30; 1593,565;  255,962; 2583,725;57,46305
1061,84; 1586,335;  232,269; 2529,494;58,94352
1062,38; 1515,412;  217,731; 2442,879;58,31885
1062,92; 1545,412;  259,962; 2486,033;57,74523
1063,46; 1493,412;  237,654; 2412,417;57,74227
1064,01; 1477,565;  216,423; 2378,187;58,33859
1064,55; 1467,950;  242,808; 2363,571;57,76893
1065,09; 1415,412;  205,500; 2291,340;58,00595
1065,63; 1451,335;  254,962; 2318,571;57,97478
1066,17; 1451,027;  263,115; 2297,956;58,37861
1066,71; 1440,796;  247,962; 2242,187;59,81444
1067,25; 1395,950;  230,731; 2198,187;59,22467
1067,80; 1375,104;  245,962; 2177,802;58,44905
1068,34; 1380,104;  259,192; 2178,802;58,39268
1068,88; 1311,488;  223,500; 2097,725;58,05005
1069,42; 1340,412;  252,654; 2098,648;58,92530
1069,96; 1295,104;  230,038; 2062,417;58,12474
1070,50; 1325,642;  259,115; 2094,879;58,09719
1071,04; 1256,719;  211,500; 1993,956;58,63928
1071,58; 1250,027;  227,654; 1994,187;57,87456
1072,12; 1246,796;  233,269; 1991,187;57,65498
1072,66; 1239,027;  235,423; 1944,879;58,70897
1073,21; 1243,335;  253,654; 1916,033;59,53401
1073,75; 1205,488;  253,731; 1908,110;57,52961
1074,29; 1192,719;  234,269; 1875,110;58,41214
1074,83; 1205,488;  263,808; 1872,648;58,53165
1075,37; 1181,181;  256,731; 1849,417;58,04344
1075,91; 1175,950;  241,577; 1847,033;58,19986
1076,45; 1148,335;  243,269; 1791,571;58,45535
1076,99; 1141,027;  250,269; 1789,263;57,87921
1077,53; 1092,950;  225,885; 1743,187;57,14521
1078,07; 1114,565;  242,269; 1731,956;58,55568
1078,61; 1090,412;  234,269; 1698,725;58,46147
1079,15; 1069,950;  237,269; 1681,340;57,66203
1079,69; 1059,873;  240,346; 1654,956;57,93308
1080,23; 1089,104;  255,038; 1672,648;58,83604
1080,77; 1109,950;  301,500; 1688,033;58,30732
1081,31; 1025,412;  237,423; 1599,802;57,83916
1081,85; 1040,027;  260,346; 1605,033;57,98234
1082,39; 1013,950;  231,423; 1567,494;58,56926
1082,93; 1016,104;  252,346; 1582,263;57,42896
1083,47;  983,335;  225,731; 1515,648;58,73275
1084,01;  981,873;  243,038; 1548,802;56,58258
1084,55;  971,796;  225,885; 1493,263;58,85466
1085,09;  973,565;  247,500; 1507,879;57,60692
1085,63;  951,104;  243,654; 1471,110;57,63548
1086,17;  929,796;  234,192; 1451,956;57,12143
1086,71;  911,027;  238,885; 1434,648;56,21031
1087,24;  963,181;  260,808; 1458,263;58,65545
1087,78;  940,104;  262,654; 1424,879;58,28906
1088,32;  893,104;  231,269; 1359,110;58,68159
1088,86;  913,950;  248,885; 1383,571;58,61226
1089,40;  894,335;  246,423; 1360,956;58,13302
1089,94;  870,796;  223,269; 1333,494;58,32394
1090,48;  869,027;  253,192; 1335,187;56,91663
1091,02;  879,104;  251,192; 1318,033;58,85712
1091,56;  845,873;  241,577; 1291,187;57,57342
1092,10;  832,796;  224,577; 1264,725;58,47429
1092,63;  862,565;  265,269; 1300,417;57,70152
1093,17;  831,335;  252,115; 1252,725;57,88663
1093,71;  805,488;  224,654; 1213,340;58,74811
1094,25;  834,873;  258,962; 1235,340;58,98443
1094,79;  810,488;  229,962; 1198,956;59,91026
1095,33;  804,796;  245,346; 1208,340;58,09484
1095,87;  788,796;  242,808; 1185,802;57,89945
1096,40;  766,873;  220,577; 1155,340;58,44218
1096,94;  782,335;  228,808; 1159,802;59,45546
1097,48;  782,719;  253,192; 1150,340;59,02336
1098,02;  764,258;  237,192; 1108,879;60,46501
1098,56;  704,027;  202,885; 1073,879;57,53681
1099,10;  728,488;  221,731; 1070,879;59,67837
1099,63;  724,104;  215,038; 1068,340;59,65830
1100,17;  734,796;  243,269; 1095,417;57,68093
1100,71;  760,719;  275,731; 1097,648;59,00697

