
Integration time [ms]: 150,000
Averaging Nr. [scans]: 13
Smoothing Nr. [pixels]: 0
Data measured with spectrometer [name]: 2009305U1
Wave   ;Sample   ;Dark     ;Reference;Reflectance
[nm]   ;[counts] ;[counts] ;[counts] ;[%]

 175,72;  209,485;  214,189;  215,558;-343,74615
 176,32;  226,017;  237,941;  227,089; 0,00000
 176,92;  266,423;  266,800;  265,274; 0,00000
 177,52;  271,948;  264,340;  268,527;181,67944
 178,12;  252,696;  238,942;  236,243; 0,00000
 178,72;  272,455;  273,476;  264,295; 0,00000
 179,32;  271,774;  267,557;  251,348; 0,00000
 179,92;  262,733;  254,948;  263,094;95,55748
 180,52;  246,417;  239,814;  250,957;59,25631
 181,12;  259,835;  264,488;  252,536; 0,00000
 181,73;  283,539;  265,720;  278,915;135,04550
 182,33;  377,010;  365,807;  380,210;77,78145
 182,93;  283,742;  269,955;  282,562;109,36292
 183,53;  240,827;  248,550;  241,803; 0,00000
 184,13;  247,032;  249,322;  239,610; 0,00000
 184,73;  288,367;  285,933;  290,886;49,14525
 185,33;  268,842;  235,755;  362,541;26,09660
 185,93;  269,360;  243,974;  376,062;19,21893
 186,53;  300,229;  255,134;  395,991;32,01466
 187,13;  314,532;  275,994;  429,562;25,09498
 187,73;  279,962;  243,899;  388,560;24,92926
 188,33;  290,195;  248,507;  379,205;31,89649
 188,93;  298,024;  258,332;  392,557;29,57184
 189,53;  295,352;  257,546;  395,018;27,50077
 190,13;  329,503;  293,211;  432,470;26,06117
 190,73;  275,714;  231,998;  373,710;30,84828
 191,34;  309,668;  270,556;  402,286;29,69107
 191,94;  279,237;  243,808;  387,024;24,73808
 192,54;  301,169;  261,619;  410,675;26,53355
 193,14;  299,494;  268,685;  427,994;19,33899
 193,74;  299,071;  266,990;  419,237;21,07190
 194,34;  293,595;  265,303;  411,983;19,28820
 194,94;  254,596;  221,915;  378,644;20,85188
 195,54;  233,509;  208,218;  354,878;17,24472
 196,14;  271,979;  235,537;  393,258;23,10515
 196,74;  261,715;  233,368;  382,966;18,94854
 197,34;  243,642;  204,545;  376,384;22,75217
 197,94;  275,301;  239,763;  400,779;22,07077
 198,54;  291,812;  243,537;  421,363;27,14739
 199,14;  247,063;  221,011;  407,982;13,93391
 199,74;  247,038;  216,934;  397,255;16,69433
 200,34;  240,396;  203,705;  418,165;17,10841
 200,94;  273,822;  240,620;  447,641;16,03821
 201,54;  268,667;  216,393;  453,323;22,06286
 202,14;  293,074;  255,709;  524,133;13,92022
 202,74;  270,820;  224,395;  499,408;16,88092
 203,34;  243,110;  199,483;  512,537;13,93590
 203,94;  222,791;  173,633;  521,575;14,12836
 204,54;  285,672;  252,457;  610,073; 9,28800
 205,14;  243,666;  207,395;  611,779; 8,96930
 205,74;  298,931;  249,791;  719,452;10,46291
 206,34;  270,933;  212,939;  729,504;11,22685
 206,94;  277,062;  212,630;  803,397;10,90657
 207,54;  251,485;  183,785;  839,349;10,32697
 208,14;  265,907;  204,402;  918,672; 8,61094
 208,74;  273,371;  214,241;  988,163; 7,64034
 209,34;  269,242;  210,781; 1065,206; 6,84220
 209,94;  285,973;  220,165; 1181,535; 6,84527
 210,54;  291,406;  213,019; 1295,905; 7,23874
 211,14;  298,871;  226,626; 1395,989; 6,17815
 211,73;  301,295;  218,700; 1510,413; 6,39425
 212,33;  316,925;  233,312; 1640,752; 5,94079
 212,93;  305,577;  207,856; 1741,387; 6,37227
 213,53;  278,499;  187,780; 1770,051; 5,73351
 214,13;  322,429;  218,949; 1914,268; 6,10385
 214,73;  295,689;  198,170; 1919,057; 5,66680
 215,33;  288,666;  175,165; 1954,304; 6,37953
 215,93;  343,572;  207,405; 2072,193; 7,30200
 216,53;  292,692;  167,471; 2159,330; 6,28666
 217,13;  350,522;  222,019; 2364,360; 5,99823
 217,73;  358,752;  202,637; 2560,201; 6,62187
 218,33;  326,608;  166,489; 2807,003; 6,06392
 218,93;  376,834;  186,887; 3094,434; 6,53289
 219,53;  404,659;  189,643; 3429,276; 6,63704
 220,13;  391,171;  159,031; 3714,530; 6,52904
 220,73;  446,845;  192,089; 4067,542; 6,57359
 221,32;  479,602;  194,164; 4531,855; 6,58041
 221,92;  505,466;  205,415; 4975,586; 6,29016
 222,52;  535,738;  178,330; 5386,586; 6,86235
 223,12;  578,661;  182,023; 5841,020; 7,00899
 223,72;  626,482;  205,484; 6300,447; 6,90730
 224,32;  656,661;  207,178; 6761,748; 6,85755
 224,92;  685,328;  188,177; 7083,804; 7,20964
 225,52;  742,113;  211,322; 7490,055; 7,29236
 226,12;  773,458;  188,557; 7866,345; 7,61808
 226,72;  769,266;  162,249; 8245,072; 7,50996
 227,31;  837,086;  165,402; 8661,128; 7,90614
 227,91;  899,691;  201,013; 9089,641; 7,86035
 228,51;  924,617;  185,159; 9531,313; 7,91189
 229,11;  988,817;  197,940; 9980,610; 8,08447
 229,71; 1045,038;  181,394;10339,400; 8,50210
 230,31; 1098,455;  186,796;10785,058; 8,60197
 230,91; 1160,554;  168,848;11129,666; 9,04774
 231,51; 1222,649;  169,867;11523,333; 9,27278
 232,10; 1288,634;  180,489;11854,717; 9,49223
 232,70; 1354,134;  188,919;12078,137; 9,80060
 233,30; 1437,649;  213,405;12356,836;10,08154
 233,90; 1477,932;  177,635;12473,046;10,57546
 234,50; 1528,559;  182,175;12555,669;10,88120
 235,10; 1574,943;  183,101;12576,958;11,23010
 235,70; 1682,088;  205,397;12584,858;11,92856
 236,29; 1716,025;  187,933;12551,491;12,35965
 236,89; 1714,823;  172,003;12378,863;12,63896
 237,49; 1772,137;  192,326;12126,835;13,23733
 238,09; 1781,010;  180,862;11911,042;13,64129
 238,69; 1859,491;  225,614;11581,454;14,38799
 239,29; 1829,985;  182,399;11188,524;14,96971
 239,89; 1832,849;  206,003;10810,346;15,34132
 240,48; 1800,600;  177,862;10330,252;15,98380
 241,08; 1798,960;  192,399; 9880,607;16,58264
 241,68; 1775,741;  202,401; 9523,253;16,87978
 242,28; 1739,124;  175,712; 9149,143;17,42268
 242,88; 1788,326;  225,257; 8792,618;18,24447
 243,48; 1763,701;  220,634; 8443,639;18,76525
 244,07; 1707,127;  183,936; 8223,620;18,94590
 244,67; 1740,394;  204,556; 7962,911;19,79593
 245,27; 1700,757;  192,392; 7829,028;19,75169
 245,87; 1721,763;  210,333; 7720,715;20,12454
 246,47; 1743,398;  191,469; 7702,972;20,66069
 247,06; 1742,972;  179,553; 7722,552;20,72675
 247,66; 1758,574;  187,171; 7779,882;20,69620
 248,26; 1807,872;  210,701; 7890,442;20,79719
 248,86; 1842,423;  211,085; 8126,364;20,60999
 249,46; 1848,136;  154,944; 8345,368;20,67283
 250,05; 1955,420;  206,862; 8792,168;20,36688
 250,65; 1985,886;  188,083; 9157,356;20,04401
 251,25; 2079,331;  179,014; 9703,802;19,95129
 251,85; 2170,733;  195,233;10367,122;19,42117
 252,44; 2240,730;  165,395;11046,604;19,07266
 253,04; 2429,691;  201,704;11902,465;19,04139
 253,64; 2454,386;  159,082;12793,481;18,16710
 254,24; 2681,985;  207,323;13814,356;18,18664
 254,84; 2803,213;  180,790;14868,291;17,85479
 255,43; 2944,230;  186,395;16102,429;17,32740
 256,03; 3089,693;  190,468;17276,838;16,96806
 256,63; 3258,413;  196,618;18422,996;16,79870
 257,23; 3329,143;  178,618;19564,591;16,25157
 257,82; 3484,364;  197,843;20708,684;16,02333
 258,42; 3562,788;  157,994;21782,338;15,74519
 259,02; 3699,243;  209,704;22995,297;15,31467
 259,62; 3766,096;  175,762;23756,714;15,22557
 260,21; 3819,358;  194,779;24520,191;14,90038
 260,81; 3827,663;  182,634;25211,492;14,56331
 261,41; 3838,056;  176,996;25866,186;14,25136
 262,01; 3899,956;  215,144;26416,013;14,06370
 262,60; 3867,528;  176,157;26869,898;13,82860
 263,20; 3887,924;  179,469;27357,245;13,64517
 263,80; 3904,277;  208,451;27635,383;13,47517
 264,40; 3836,289;  161,376;27866,762;13,26426
 264,99; 3839,739;  193,220;28169,565;13,03429
 265,59; 3813,819;  184,750;28343,725;12,88779
 266,19; 3788,020;  174,759;28619,503;12,70274
 266,78; 3851,343;  224,832;28718,883;12,72726
 267,38; 3790,433;  195,367;28791,657;12,57179
 267,98; 3799,291;  191,755;28847,044;12,58942
 268,58; 3738,639;  188,444;28839,636;12,39109
 269,17; 3746,885;  185,515;28911,008;12,39794
 269,77; 3730,978;  204,693;28753,791;12,35165
 270,37; 3693,675;  168,604;28565,089;12,41376
 270,96; 3713,505;  221,613;28474,558;12,35939
 271,56; 3644,849;  183,002;28230,744;12,34269
 272,16; 3630,762;  185,611;28068,801;12,35565
 272,75; 3646,569;  198,150;27900,934;12,44792
 273,35; 3625,979;  187,152;27828,502;12,44088
 273,95; 3642,620;  190,227;27766,823;12,51929
 274,54; 3663,203;  172,554;27813,153;12,62870
 275,14; 3763,837;  210,768;28303,999;12,64742
 275,74; 3757,954;  166,073;28335,025;12,75121
 276,33; 3895,555;  221,770;28762,875;12,87191
 276,93; 3974,356;  202,940;29199,854;13,00627
 277,53; 4090,077;  196,702;29722,149;13,18650
 278,12; 4183,899;  183,235;30326,347;13,27223
 278,72; 4402,064;  233,163;31030,743;13,53646
 279,32; 4508,898;  196,393;31636,183;13,71671
 279,91; 4661,668;  177,853;32532,789;13,85821
 280,51; 4866,012;  186,549;33084,492;14,22418
 281,11; 5039,565;  192,314;33941,307;14,36265
 281,70; 5199,283;  167,852;34479,830;14,66378
 282,30; 5387,310;  177,618;35166,359;14,88963
 282,90; 5559,349;  182,695;35640,212;15,16365
 283,49; 5779,953;  196,844;36289,468;15,46884
 284,09; 6007,771;  217,082;36847,417;15,80845
 284,69; 6185,654;  226,546;37163,301;16,13327
 285,28; 6401,412;  203,851;37498,991;16,61761
 285,88; 6623,569;  259,995;37821,039;16,94195
 286,47; 6804,682;  192,387;37991,170;17,49341
 287,07; 7001,616;  215,008;38113,294;17,90743
 287,67; 7234,701;  222,942;38171,947;18,47679
 288,26; 7482,693;  180,008;38068,462;19,27417
 288,86; 7704,732;  181,313;38157,641;19,81081
 289,46; 7980,616;  205,315;38354,489;20,38131
 290,05; 8316,511;  184,398;38439,914;21,25736
 290,65; 8715,324;  183,463;38596,771;22,21069
 291,24; 9023,641;  199,547;38781,442;22,87107
 291,84; 9454,413;  208,618;38885,534;23,90520
 292,44; 9778,906;  194,404;39033,654;24,67736
 293,03;10190,244;  271,009;39236,470;25,45648
 293,63;10549,400;  179,464;39476,345;26,38870
 294,22;10856,962;  213,545;39585,587;27,03293
 294,82;11100,225;  178,684;39565,336;27,72904
 295,41;11343,437;  183,929;39330,754;28,50680
 296,01;11500,288;  226,764;39303,332;28,84983
 296,61;11665,346;  210,470;38942,581;29,57462
 297,20;11685,531;  193,995;38456,892;30,03310
 297,80;11879,882;  206,092;38424,643;30,54483
 298,39;11847,118;  167,541;37727,276;31,09600
 298,99;12001,607;  211,767;37661,579;31,48171
 299,58;12014,958;  203,786;37499,407;31,66906
 300,18;12081,395;  221,706;37193,047;32,07806
 300,78;12057,563;  175,626;36853,450;32,39543
 301,37;12150,906;  201,680;36875,438;32,58250
 301,97;12250,206;  209,315;36842,853;32,86849
 302,56;12272,388;  198,155;36758,323;33,02565
 303,16;12299,914;  169,384;36630,112;33,27013
 303,75;12349,294;  193,781;36655,095;33,33811
 304,35;12523,443;  179,407;36911,775;33,60534
 304,94;12589,219;  186,007;36855,657;33,82419
 305,54;12598,141;  222,395;36786,394;33,84681
 306,13;12549,712;  169,408;36755,293;33,83902
 306,73;12488,329;  166,019;36475,199;33,93718
 307,33;12584,881;  196,326;36414,918;34,20496
 307,92;12550,731;  200,855;36507,106;34,01584
 308,52;12741,260;  176,076;36939,210;34,17876
 309,11;13020,570;  195,147;37686,722;34,20881
 309,71;13114,277;  166,144;37888,139;34,32515
 310,30;13251,231;  175,855;38130,050;34,45041
 310,90;13452,539;  221,701;38537,588;34,53094
 311,49;13524,013;  201,931;38661,049;34,63959
 312,09;13565,267;  167,399;38923,376;34,56981
 312,68;13823,192;  241,780;39331,282;34,74440
 313,28;13759,192;  181,778;39442,645;34,58256
 313,87;13851,744;  160,700;39541,427;34,76585
 314,47;13928,082;  182,918;40011,248;34,51102
 315,06;14001,256;  167,855;40035,659;34,69818
 315,66;14029,575;  168,783;40348,915;34,49663
 316,25;13944,978;  154,539;40089,497;34,53225
 316,85;13938,639;  155,168;40383,544;34,26306
 317,44;13977,006;  180,840;40406,289;34,29711
 318,04;13879,528;  165,002;40424,695;34,06515
 318,63;13862,804;  158,558;40511,786;33,96072
 319,22;13878,183;  190,078;40686,910;33,80043
 319,82;13814,412;  180,543;40654,466;33,68556
 320,41;13769,221;  196,463;40573,198;33,61529
 321,01;13710,844;  197,398;40760,949;33,31426
 321,60;13727,579;  190,928;40874,040;33,27339
 322,20;13578,051;  165,548;40743,295;33,05384
 322,79;13544,423;  218,471;40992,169;32,68272
 323,39;13511,008;  171,406;40860,299;32,78438
 323,98;13430,217;  170,010;40859,317;32,58892
 324,58;13272,196;  177,076;40800,412;32,23546
 325,17;13210,542;  189,924;40494,505;32,30555
 325,76;13026,821;  199,085;40370,518;31,93248
 326,36;12856,191;  170,859;39894,033;31,93434
 326,95;12691,540;  206,621;39497,481;31,77563
 327,55;12476,412;  177,542;39227,249;31,49542
 328,14;12251,741;  176,785;38763,511;31,29303
 328,74;12030,798;  209,693;38184,974;31,12842
 329,33;11823,037;  197,397;37834,739;30,88858
 329,92;11574,121;  175,379;37192,219;30,79340
 330,52;11287,253;  201,093;36450,770;30,58278
 331,11;11045,438;  180,389;35875,935;30,43811
 331,71;10747,591;  191,622;35259,636;30,10142
 332,30;10535,219;  202,700;34695,580;29,95551
 332,89;10364,435;  250,243;34166,123;29,82141
 333,49;10035,476;  192,775;33426,991;29,61617
 334,08; 9832,861;  183,850;33033,046;29,37366
 334,68; 9606,745;  187,696;32492,424;29,15688
 335,27; 9409,253;  201,172;32106,561;28,86058
 335,86; 9271,284;  240,851;31779,627;28,63279
 336,46; 9092,419;  200,403;31431,751;28,47145
 337,05; 8961,950;  195,928;31286,144;28,19544
 337,65; 8869,835;  164,850;31106,780;28,13330
 338,24; 8797,564;  234,933;31002,478;27,83007
 338,83; 8722,179;  208,857;30860,618;27,77433
 339,43; 8641,914;  174,308;30800,148;27,64857
 340,02; 8522,863;  180,461;30780,672;27,26256
 340,61; 8479,474;  186,702;30834,148;27,05861
 341,21; 8466,721;  218,616;30789,974;26,97984
 341,80; 8387,143;  193,311;30683,102;26,87402
 342,40; 8321,023;  179,940;30869,141;26,52752
 342,99; 8294,435;  178,550;30981,584;26,34768
 343,58; 8236,191;  179,474;31143,354;26,01973
 344,18; 8272,665;  207,244;31238,145;25,99158
 344,77; 8274,209;  183,692;31457,986;25,86954
 345,36; 8316,001;  168,467;31990,481;25,60345
 345,96; 8338,678;  215,320;32255,990;25,35327
 346,55; 8345,174;  175,868;32462,949;25,30209
 347,14; 8343,292;  176,940;32857,826;24,98816
 347,74; 8434,517;  152,030;33424,117;24,89320
 348,33; 8573,941;  171,567;34040,934;24,80818
 348,92; 8637,195;  196,803;34770,980;24,41242
 349,52; 8733,658;  160,954;35290,692;24,40298
 350,11; 8711,889;  170,229;35473,195;24,19530
 350,70; 8724,820;  177,624;35733,771;24,03859
 351,29; 8552,086;  160,447;35334,324;23,85759
 351,89; 8591,634;  203,301;35364,596;23,85672
 352,48; 8486,474;  169,394;35393,470;23,61192
 353,07; 8375,637;  192,711;35321,778;23,29389
 353,67; 8342,682;  195,958;35250,128;23,24039
 354,26; 8199,612;  188,863;34892,952;23,08301
 354,85; 8087,293;  192,322;34797,999;22,81409
 355,45; 8015,643;  165,464;34574,213;22,81449
 356,04; 7970,419;  187,558;34570,339;22,63593
 356,63; 7861,014;  221,775;34254,747;22,44658
 357,22; 7745,482;  190,604;34095,480;22,28257
 357,82; 7677,225;  183,222;33882,581;22,23782
 358,41; 7614,180;  201,392;33706,126;22,12460
 359,00; 7478,311;  175,847;33457,043;21,94171
 359,60; 7477,551;  182,395;33448,121;21,92995
 360,19; 7373,252;  203,174;33155,556;21,75891
 360,78; 7322,040;  199,696;33047,144;21,68310
 361,37; 7219,399;  192,081;32793,417;21,55531
 361,97; 7164,642;  192,853;32733,461;21,42489
 362,56; 7051,209;  189,614;32275,950;21,38479
 363,15; 7018,618;  246,003;32026,395;21,31067
 363,74; 6920,454;  199,688;31712,339;21,32720
 364,34; 6803,324;  220,693;31202,337;21,24688
 364,93; 6680,940;  182,228;30709,831;21,28799
 365,52; 6547,668;  159,236;30243,627;21,23504
 366,11; 6455,555;  182,924;29926,554;21,08899
 366,71; 6347,183;  179,155;29502,526;21,03451
 367,30; 6272,514;  185,082;29082,998;21,06530
 367,89; 6225,536;  227,707;28792,062;20,99760
 368,48; 6161,864;  205,458;28502,732;21,04940
 369,07; 6032,205;  188,932;27957,078;21,04308
 369,67; 5970,864;  211,689;27646,075;20,99254
 370,26; 5865,154;  185,548;27359,701;20,90076
 370,85; 5848,271;  189,159;27009,117;21,10038
 371,44; 5788,181;  193,545;26764,090;21,05578
 372,03; 5730,952;  165,462;26478,539;21,15104
 372,63; 5653,527;  162,159;26213,803;21,07878
 373,22; 5613,526;  179,855;25772,385;21,23147
 373,81; 5532,643;  150,851;25447,914;21,27437
 374,40; 5506,523;  180,247;25165,098;21,31802
 374,99; 5431,323;  175,003;24893,227;21,26496
 375,59; 5400,895;  165,246;24443,769;21,56494
 376,18; 5361,746;  212,619;24379,745;21,30633
 376,77; 5407,180;  187,853;24176,985;21,75705
 377,36; 5404,540;  216,543;24104,508;21,71804
 377,95; 5340,208;  197,232;23771,687;21,81589
 378,55; 5332,998;  170,552;23558,026;22,07355
 379,14; 5323,758;  198,774;23458,074;22,03413
 379,73; 5295,772;  187,771;23331,848;22,07045
 380,32; 5389,886;  182,391;23391,356;22,43743
 380,91; 5395,005;  166,381;23172,271;22,72733
 381,50; 5401,876;  206,076;23155,377;22,64034
 382,10; 5378,424;  176,699;23080,048;22,71164
 382,69; 5433,951;  170,081;22958,543;23,09884
 383,28; 5508,491;  207,846;23008,182;23,24810
 383,87; 5436,619;  171,384;22770,776;23,29813
 384,46; 5451,802;  165,299;22696,791;23,46273
 385,05; 5526,402;  209,383;22706,713;23,63400
 385,64; 5560,939;  182,155;22713,477;23,87248
 386,24; 5550,238;  154,376;22624,168;24,01385
 386,83; 5672,225;  202,529;22717,160;24,29397
 387,42; 5761,042;  198,001;22748,484;24,66927
 388,01; 5870,151;  191,214;23039,805;24,85465
 388,60; 5976,660;  191,378;23338,183;24,99387
 389,19; 6069,603;  169,359;23497,482;25,29241
 389,78; 6202,218;  175,515;23720,862;25,59615
 390,37; 6422,816;  247,218;24314,312;25,65992
 390,96; 6498,917;  192,683;24448,210;25,99916
 391,56; 6548,182;  199,510;24610,599;26,00733
 392,15; 6711,345;  178,132;24917,388;26,40829
 392,74; 6853,520;  164,729;25115,546;26,80790
 393,33; 6977,913;  181,432;25416,493;26,93269
 393,92; 7210,432;  192,876;25942,884;27,25264
 394,51; 7311,362;  173,431;26060,073;27,57380
 395,10; 7515,016;  203,089;26385,330;27,92705
 395,69; 7578,528;  195,092;26539,661;28,02641
 396,28; 7753,429;  199,467;26611,227;28,60075
 396,87; 7827,730;  200,682;26746,332;28,73182
 397,46; 7936,594;  206,440;26847,330;29,01612
 398,06; 8117,176;  202,119;27071,381;29,45766
 398,65; 8203,803;  193,165;27109,494;29,76126
 399,24; 8347,152;  221,005;27278,489;30,03290
 399,83; 8462,119;  189,189;27298,240;30,51723
 400,42; 8545,674;  236,301;27508,840;30,46791
 401,01; 8724,911;  213,253;27567,715;31,11616
 401,60; 8794,052;  224,418;27684,981;31,20706
 402,19; 8893,214;  248,905;27543,300;31,67064
 402,78; 9024,323;  246,517;27580,827;32,11278
 403,37; 8991,776;  231,210;27267,734;32,40271
 403,96; 9028,849;  243,044;27231,134;32,55438
 404,55; 9133,760;  240,407;27143,881;33,05652
 405,14; 9154,539;  235,394;26939,063;33,40045
 405,73; 9164,440;  241,365;26833,687;33,55508
 406,32; 9263,942;  244,217;26835,458;33,91991
 406,91; 9195,859;  242,212;26543,444;34,04269
 407,50; 9264,773;  242,555;26316,254;34,60276
 408,09; 9210,542;  204,140;25984,802;34,93472
 408,68; 9242,627;  213,888;25886,917;35,16819
 409,27; 9246,783;  204,070;25622,542;35,57536
 409,86; 9276,155;  204,441;25397,463;36,00884
 410,45; 9347,941;  259,802;25416,635;36,12593
 411,04; 9370,625;  240,550;25244,193;36,51498
 411,63; 9308,199;  223,545;24981,317;36,69415
 412,22; 9310,866;  238,764;24764,442;36,99022
 412,81; 9283,664;  230,556;24502,804;37,29819
 413,40; 9220,448;  250,201;24098,627;37,61358
 413,99; 9221,195;  293,038;23704,255;38,13624
 414,58; 9080,077;  213,736;23268,030;38,45852
 415,17; 9034,408;  223,094;23082,308;38,54600
 415,76; 9034,123;  218,992;22812,098;39,01691
 416,35; 8985,810;  220,543;22674,067;39,03738
 416,94; 9098,249;  243,767;22688,319;39,45047
 417,53; 9255,599;  215,866;22926,848;39,80336
 418,12; 9372,559;  221,256;23043,853;40,09755
 418,71; 9588,319;  244,817;23442,467;40,27780
 419,30; 9669,673;  225,951;23472,149;40,62480
 419,89; 9830,094;  212,648;23762,027;40,83949
 420,48;10014,537;  244,971;24051,404;41,03750
 421,07;10153,304;  238,899;24127,366;41,50289
 421,66;10219,465;  216,143;24191,203;41,72387
 422,25;10255,314;  224,553;24110,050;41,99520
 422,84;10260,620;  248,328;24111,537;41,95702
 423,43;10195,996;  222,471;23808,297;42,28610
 424,02;10213,763;  262,091;23494,797;42,83475
 424,60;10003,777;  220,276;23056,334;42,84234
 425,19; 9964,822;  237,645;22756,866;43,19500
 425,78; 9979,949;  245,646;22596,469;43,55232
 426,37; 9935,419;  243,427;22466,555;43,61219
 426,96; 9943,624;  228,965;22364,059;43,88804
 427,55; 9904,899;  230,060;22136,521;44,16432
 428,14; 9837,550;  225,837;21916,458;44,31276
 428,73; 9827,056;  235,976;21736,089;44,60944
 429,32; 9843,663;  255,117;21645,903;44,82559
 429,91; 9933,543;  270,054;21658,852;45,18014
 430,50; 9891,475;  255,140;21531,251;45,29181
 431,08; 9811,074;  271,610;21315,476;45,33133
 431,67; 9899,558;  339,311;21209,105;45,80901
 432,26; 9877,542;  356,242;21017,755;46,08230
 432,85; 9791,389;  375,547;20698,697;46,33062
 433,44; 9643,859;  399,559;20270,525;46,52164
 434,03; 9504,609;  405,728;19760,938;47,00998
 434,62; 9327,128;  370,098;19362,107;47,16210
 435,21; 9200,004;  383,394;19170,565;46,92888
 435,79; 9172,098;  384,184;18931,114;47,38204
 436,38; 9181,374;  370,200;18816,645;47,76625
 436,97; 9159,540;  365,125;18766,920;47,79107
 437,56; 9138,582;  353,995;18484,688;48,45147
 438,15; 9114,584;  330,604;18384,305;48,65474
 438,74; 9131,019;  336,683;18415,342;48,64485
 439,33; 9172,803;  296,142;18388,591;49,06279
 439,91; 9200,914;  246,614;18453,572;49,18065
 440,50; 9320,837;  300,769;18603,147;49,28358
 441,09; 9424,985;  299,397;18636,410;49,76595
 441,68; 9405,941;  273,565;18668,114;49,64719
 442,27; 9458,623;  259,328;18674,437;49,95515
 442,86; 9453,406;  242,665;18625,875;50,10410
 443,44; 9537,050;  263,275;18667,052;50,39061
 444,03; 9690,380;  323,666;18748,596;50,83718
 444,62; 9569,137;  247,204;18609,085;50,76785
 445,21; 9529,446;  263,355;18383,530;51,13687
 445,80; 9565,606;  292,217;18229,040;51,70029
 446,39; 9454,389;  329,906;18000,199;51,63742
 446,97; 9273,151;  252,079;17791,578;51,43290
 447,56; 9204,992;  255,631;17560,750;51,71511
 448,15; 9134,318;  258,309;17370,256;51,87025
 448,74; 9034,305;  272,465;17065,523;52,17537
 449,33; 8947,301;  263,782;16883,615;52,24793
 449,91; 8844,179;  252,952;16650,160;52,39445
 450,50; 8766,719;  261,333;16390,283;52,73366
 451,09; 8726,359;  269,797;16269,159;52,85562
 451,68; 8749,523;  285,880;16162,962;53,30730
 452,26; 8675,482;  279,887;16121,618;52,99670
 452,85; 8642,958;  264,960;15938,908;53,45174
 453,44; 8653,258;  266,135;15957,870;53,44930
 454,03; 8684,993;  249,430;15871,189;53,99881
 454,61; 8683,962;  251,290;15867,249;54,00035
 455,20; 8813,562;  282,759;16099,004;53,93697
 455,79; 8850,157;  280,054;16082,231;54,23369
 456,38; 8877,801;  281,155;16179,615;54,07219
 456,97; 8924,584;  271,920;16242,570;54,17854
 457,55; 8957,132;  259,237;16302,661;54,21470
 458,14; 9046,906;  284,764;16238,267;54,92300
 458,73; 8972,529;  278,316;16146,963;54,78862
 459,31; 8991,908;  304,328;16219,548;54,58662
 459,90; 9069,398;  319,244;16329,843;54,65226
 460,49; 9207,233;  368,702;16321,867;55,40300
 461,08; 9183,124;  277,566;16523,637;54,81669
 461,66; 9238,704;  285,866;16569,365;54,98104
 462,25; 9275,288;  276,725;16639,544;54,99397
 462,84; 9377,367;  315,336;16667,785;55,41696
 463,43; 9271,885;  243,893;16630,563;55,09351
 464,01; 9385,678;  275,053;16650,967;55,63430
 464,60; 9376,836;  337,196;16678,545;55,31759
 465,19; 9183,253;  257,134;16363,054;55,42135
 465,77; 9179,596;  270,218;16285,172;55,63162
 466,36; 9169,821;  296,509;16209,535;55,76131
 466,95; 8955,795;  268,587;15877,138;55,65672
 467,53; 8773,439;  278,457;15519,410;55,73787
 468,12; 8601,400;  295,689;15248,873;55,54477
 468,71; 8494,445;  288,751;14958,377;55,93662
 469,29; 8307,015;  258,153;14647,343;55,93687
 469,88; 8206,474;  275,312;14348,432;56,35682
 470,47; 8271,405;  335,786;14490,029;56,06531
 471,06; 8202,931;  275,940;14454,645;55,90772
 471,64; 8289,727;  287,783;14563,726;56,05195
 472,23; 8324,243;  253,422;14599,914;56,25641
 472,81; 8302,350;  252,488;14717,219;55,65166
 473,40; 8406,807;  260,884;14859,691;55,79855
 473,99; 8568,064;  362,346;14993,558;56,08365
 474,57; 8590,282;  269,422;15174,767;55,82467
 475,16; 8712,657;  281,721;15305,585;56,11696
 475,75; 8781,291;  312,431;15514,397;55,70898
 476,33; 8781,877;  298,979;15530,930;55,69147
 476,92; 8855,422;  298,348;15619,455;55,85154
 477,51; 8933,802;  290,821;15695,633;56,10572
 478,09; 8888,391;  303,744;15773,367;55,49358
 478,68; 8841,121;  291,055;15604,147;55,83501
 479,27; 8940,650;  321,816;15720,118;55,97262
 479,85; 8857,839;  301,978;15655,887;55,72432
 480,44; 8969,145;  295,521;15808,940;55,91046
 481,02; 9698,603;  308,145;17329,472;55,16878
 481,61;10916,515;  333,449;19544,252;55,08914
 482,20;11674,513;  324,683;20897,640;55,16869
 482,78;12174,376;  362,596;21900,162;54,84269
 483,37;12474,777;  354,927;22425,539;54,91398
 483,95;12700,238;  395,852;22773,904;54,98417
 484,54;12820,349;  404,370;22980,950;54,99495
 485,13;12711,875;  370,478;22856,298;54,88524
 485,71;12631,607;  355,398;22656,211;55,04826
 486,30;12475,735;  394,398;22216,176;55,36367
 486,88;12264,337;  442,708;21883,556;55,13601
 487,47;11815,246;  420,865;21188,013;54,86734
 488,05;11355,795;  398,947;20170,730;55,41659
 488,64;10564,714;  399,418;18761,207;55,36114
 489,23; 9451,192;  401,488;16678,837;55,59691
 489,81; 8128,357;  408,414;14269,392;55,69551
 490,40; 7725,254;  347,262;13531,982;55,95866
 490,98; 7538,457;  340,881;13269,027;55,67369
 491,57; 7469,319;  371,412;13148,992;55,54970
 492,15; 7412,816;  352,345;13080,476;55,47139
 492,74; 7382,141;  354,794;12967,235;55,71758
 493,32; 7269,586;  360,881;12861,264;55,26795
 493,91; 7225,160;  331,811;12723,984;55,62664
 494,50; 7176,820;  343,443;12677,844;55,40096
 495,08; 7144,564;  309,904;12610,081;55,56554
 495,67; 7095,455;  335,040;12580,143;55,20913
 496,25; 7000,310;  277,742;12489,746;55,04885
 496,84; 7001,827;  292,963;12438,968;55,23516
 497,42; 6946,655;  282,361;12411,385;54,94502
 498,01; 6937,532;  315,196;12348,935;55,03141
 498,59; 6841,821;  271,516;12220,764;54,98509
 499,18; 6816,467;  272,427;12135,404;55,16355
 499,76; 6797,990;  304,512;12126,222;54,92842
 500,35; 6655,600;  274,525;11882,268;54,97258
 500,93; 6580,207;  268,207;11829,538;54,59579
 501,52; 6546,988;  264,670;11761,134;54,64565
 502,10; 6528,161;  290,455;11706,567;54,63950
 502,69; 6430,441;  260,384;11558,929;54,60931
 503,27; 6288,653;  238,444;11337,076;54,51311
 503,86; 6264,737;  265,227;11249,514;54,61902
 504,44; 6169,966;  241,002;11138,141;54,40844
 505,03; 6012,825;  235,695;10826,037;54,55093
 505,61; 5927,531;  240,077;10744,335;54,14427
 506,19; 5811,632;  261,617;10535,673;54,01971
 506,78; 5692,602;  236,553;10322,851;54,09367
 507,36; 5586,697;  243,694;10171,022;53,82116
 507,95; 5494,882;  237,020; 9973,227;54,00318
 508,53; 5418,602;  242,322; 9839,173;53,93728
 509,12; 5321,921;  251,249; 9659,148;53,89803
 509,70; 5226,715;  269,098; 9505,752;53,67329
 510,29; 5173,199;  272,720; 9400,156;53,68955
 510,87; 5056,961;  230,091; 9153,690;54,09107
 511,46; 4944,768;  234,863; 8960,280;53,97914
 512,04; 4842,034;  239,639; 8768,642;53,96170
 512,62; 4746,742;  243,632; 8671,860;53,42890
 513,21; 4638,494;  231,490; 8494,772;53,33237
 513,79; 4559,961;  239,355; 8338,467;53,34666
 514,38; 4476,681;  219,118; 8148,363;53,69443
 514,96; 4404,810;  265,347; 8089,691;52,90492
 515,54; 4304,795;  226,505; 7901,708;53,13592
 516,13; 4265,551;  253,814; 7786,374;53,25862
 516,71; 4145,125;  238,669; 7644,758;52,74654
 517,30; 4057,327;  215,753; 7536,848;52,47268
 517,88; 4041,828;  240,675; 7425,253;52,90711
 518,46; 3949,211;  225,986; 7288,193;52,72041
 519,05; 3929,491;  223,607; 7229,415;52,89730
 519,63; 3885,479;  232,297; 7143,552;52,85844
 520,22; 3866,500;  255,847; 7092,353;52,81430
 520,80; 3802,743;  230,848; 7009,668;52,69198
 521,38; 3820,798;  276,455; 6990,066;52,79339
 521,97; 3746,407;  218,700; 6925,044;52,60254
 522,55; 3716,677;  237,700; 6907,205;52,16245
 523,13; 3687,624;  229,243; 6936,984;51,55805
 523,72; 3702,019;  243,832; 6869,906;52,19058
 524,30; 3768,583;  266,325; 7045,709;51,66042
 524,89; 3735,497;  231,316; 7010,513;51,69020
 525,47; 3779,416;  242,866; 7146,411;51,22803
 526,05; 3780,800;  209,944; 7199,048;51,09175
 526,64; 3833,926;  254,101; 7339,352;50,52503
 527,22; 3920,890;  245,250; 7461,704;50,93416
 527,80; 3964,234;  280,870; 7600,456;50,32203
 528,39; 3964,515;  241,413; 7663,103;50,16515
 528,97; 4031,067;  240,641; 7829,094;49,94991
 529,55; 4128,495;  239,089; 8015,082;50,01813
 530,14; 4205,193;  259,954; 8237,239;49,45591
 530,72; 4253,887;  245,103; 8350,136;49,46043
 531,30; 4277,744;  224,494; 8461,862;49,20564
 531,89; 4363,641;  240,879; 8581,457;49,43018
 532,47; 4383,050;  266,189; 8671,445;48,97960
 533,05; 4409,260;  263,793; 8687,260;49,21331
 533,63; 4429,396;  272,883; 8768,614;48,92472
 534,22; 4449,742;  246,729; 8828,838;48,97412
 534,80; 4475,841;  281,276; 8887,929;48,73631
 535,38; 4553,795;  373,572; 8984,402;48,54610
 535,97; 4457,281;  276,113; 8949,201;48,20853
 536,55; 4517,482;  338,662; 9045,371;47,99540
 537,13; 4499,975;  327,955; 9016,890;48,01532
 537,71; 4531,193;  388,954; 9083,112;47,64394
 538,30; 4606,241;  429,886; 9176,107;47,75039
 538,88; 4647,146;  490,053; 9203,411;47,70942
 539,46; 4785,957;  570,584; 9481,398;47,30626
 540,05; 4815,609;  599,435; 9536,598;47,17575
 540,63; 4943,621;  672,128; 9742,556;47,09252
 541,21; 5023,491;  731,748; 9908,693;46,76658
 541,79; 5081,850;  775,363;10055,518;46,40533
 542,38; 5175,673;  839,434;10166,974;46,48856
 542,96; 5225,014;  848,986;10375,769;45,93396
 543,54; 5353,491;  873,516;10592,503;46,09508
 544,12; 5343,644;  835,211;10691,792;45,74033
 544,70; 5398,475;  809,525;10916,203;45,40513
 545,29; 5466,429;  809,511;11052,604;45,46399
 545,87; 5433,312;  772,825;11032,364;45,42589
 546,45; 5399,866;  698,587;11026,149;45,52167
 547,03; 5406,492;  664,668;11148,418;45,23023
 547,62; 5402,670;  610,980;11293,456;44,85562
 548,20; 5487,091;  607,908;11465,733;44,93703
 548,78; 5506,585;  554,771;11565,622;44,97213
 549,36; 5565,303;  502,615;11751,942;45,00437
 549,94; 5582,695;  443,597;11930,164;44,74007
 550,53; 5639,394;  450,535;12231,870;44,04305
 551,11; 5677,288;  410,774;12298,547;44,30194
 551,69; 5789,970;  408,384;12662,781;43,91555
 552,27; 5850,434;  359,147;12914,013;43,73832
 552,85; 6008,930;  369,543;13319,351;43,54803
 553,44; 6084,752;  355,922;13599,997;43,25580
 554,02; 6243,046;  359,309;14018,069;43,07665
 554,60; 6284,134;  294,083;14289,506;42,80007
 555,18; 6447,662;  324,692;14718,459;42,53904
 555,76; 6549,982;  311,848;15037,349;42,36280
 556,34; 6701,350;  310,320;15450,365;42,21275
 556,93; 6879,483;  296,231;15897,257;42,19756
 557,51; 6951,965;  271,628;16243,813;41,82482
 558,09; 7086,060;  296,923;16662,802;41,48348
 558,67; 7253,014;  303,633;16960,740;41,72021
 559,25; 7338,426;  310,322;17282,808;41,40880
 559,83; 7424,923;  280,407;17639,604;41,15695
 560,41; 7538,350;  267,702;18006,370;40,98757
 561,00; 7663,040;  288,403;18325,531;40,88587
 561,58; 7772,915;  263,779;18613,649;40,92201
 562,16; 7863,942;  259,313;18912,848;40,76777
 562,74; 8009,007;  254,617;19380,447;40,54407
 563,32; 8139,025;  247,791;19781,485;40,39806
 563,90; 8277,027;  276,633;20185,482;40,18511
 564,48; 8410,121;  285,700;20606,145;39,98151
 565,06; 8616,335;  274,171;21238,677;39,79185
 565,65; 8905,804;  278,953;21985,989;39,74219
 566,23; 9214,693;  321,557;22741,832;39,66560
 566,81; 9423,221;  273,707;23427,612;39,51607
 567,39; 9774,806;  291,947;24471,683;39,21821
 567,97;10018,002;  296,324;25214,529;39,01436
 568,55;10376,077;  316,867;26013,016;39,14676
 569,13;10603,309;  271,480;26819,818;38,91705
 569,71;10984,968;  269,543;27843,960;38,86002
 570,29;11398,419;  320,692;28939,781;38,70747
 570,87;11694,699;  305,695;29680,252;38,77166
 571,45;11892,527;  307,556;30389,579;38,51128
 572,03;12049,960;  272,872;30866,845;38,49480
 572,61;12318,628;  271,021;31664,002;38,37675
 573,20;12648,375;  290,705;32358,359;38,53625
 573,78;12848,884;  294,714;33093,996;38,27575
 574,36;13009,642;  311,712;33626,183;38,11536
 574,94;13161,190;  389,335;33969,315;38,03413
 575,52;13221,429;  322,269;34198,569;38,07724
 576,10;13435,046;  372,188;34841,964;37,89656
 576,68;13619,152;  366,102;35372,237;37,85922
 577,26;13875,786;  390,658;36176,678;37,68267
 577,84;14027,654;  399,482;36690,512;37,55245
 578,42;14161,278;  448,030;37063,485;37,45208
 579,00;14137,974;  405,406;37037,737;37,48756
 579,58;14260,715;  446,643;37354,945;37,42809
 580,16;14181,316;  409,801;37316,270;37,31464
 580,74;14196,034;  414,494;37448,571;37,21313
 581,32;14148,228;  421,337;37659,715;36,86221
 581,90;14125,098;  448,647;37531,564;36,88073
 582,48;14092,098;  442,032;37614,781;36,72063
 583,06;14130,805;  445,105;37679,826;36,75521
 583,64;14103,626;  450,104;37807,602;36,54828
 584,22;13953,492;  469,733;37684,438;36,23234
 584,80;13882,432;  467,569;37350,549;36,37142
 585,38;13638,081;  472,550;36894,232;36,14751
 585,96;13518,550;  437,639;36929,291;35,84631
 586,54;13446,006;  458,962;36894,024;35,64436
 587,12;13415,482;  433,958;37022,685;35,47957
 587,70;13494,114;  448,794;37166,823;35,52838
 588,28;13397,431;  433,573;37170,643;35,28822
 588,86;13350,135;  442,806;37285,533;35,03359
 589,44;13310,169;  418,817;37384,794;34,87356
 590,02;13302,696;  419,968;37450,085;34,78986
 590,59;13330,942;  388,423;37681,779;34,70462
 591,17;13325,741;  391,828;37860,748;34,51904
 591,75;13261,257;  371,129;37944,448;34,30660
 592,33;13315,040;  393,664;38193,543;34,18364
 592,91;13324,217;  340,749;38417,906;34,09779
 593,49;13309,830;  343,446;38788,470;33,72708
 594,07;13366,381;  366,908;38934,917;33,70533
 594,65;13349,993;  375,809;39015,549;33,57731
 595,23;13341,298;  367,275;39459,127;33,18856
 595,81;13310,579;  345,355;39582,612;33,04315
 596,39;13306,194;  338,125;39621,661;33,01146
 596,97;13316,576;  341,133;39869,654;32,82552
 597,55;13219,504;  327,735;39833,342;32,63276
 598,12;13144,111;  321,141;39747,801;32,52360
 598,70;13127,331;  318,751;39928,985;32,33654
 599,28;13111,370;  338,674;39948,286;32,24646
 599,86;13019,126;  324,981;40101,572;31,91361
 600,44;13041,305;  293,984;40215,022;31,93134
 601,02;13042,748;  349,612;40207,774;31,84576
 601,60;12980,705;  331,822;40239,155;31,69564
 602,18;12869,727;  304,679;40238,521;31,46466
 602,75;12809,092;  298,277;40280,464;31,29097
 603,33;12774,703;  320,597;40295,076;31,15514
 603,91;12731,468;  300,761;40336,602;31,04895
 604,49;12704,280;  320,598;40364,363;30,92537
 605,07;12675,206;  347,590;40355,098;30,81325
 605,65;12710,189;  356,985;40524,051;30,75456
 606,23;12642,891;  451,575;40557,778;30,39758
 606,80;12686,605;  517,431;40644,520;30,32658
 607,38;12633,328;  588,683;40656,720;30,06048
 607,96;12570,541;  671,123;40772,737;29,67317
 608,54;12627,548;  747,908;40712,876;29,72513
 609,12;12524,798;  756,970;40844,436;29,35538
 609,70;12543,640;  832,365;40810,872;29,29393
 610,27;12491,465;  835,506;40857,624;29,12379
 610,85;12464,819;  863,980;41064,690;28,85730
 611,43;12357,396;  874,904;40960,397;28,64500
 612,01;12242,334;  828,974;40712,118;28,61700
 612,59;12205,781;  815,749;40785,669;28,49651
 613,16;12093,210;  763,887;40663,382;28,39465
 613,74;11982,665;  723,751;40515,915;28,29430
 614,32;11935,266;  666,139;40597,345;28,22135
 614,90;11754,551;  579,669;40433,792;28,03946
 615,48;11667,594;  506,119;40107,852;28,18431
 616,05;11535,544;  458,962;40151,920;27,90566
 616,63;11437,263;  456,728;39861,602;27,86593
 617,21;11370,683;  452,353;39721,421;27,80389
 617,79;11235,938;  426,279;39680,626;27,53748
 618,36;11151,642;  435,206;39594,000;27,36661
 618,94;10947,119;  378,736;39283,147;27,16500
 619,52;10883,840;  396,191;38990,785;27,17388
 620,10;10836,631;  380,508;39005,527;27,07085
 620,67;10674,225;  396,806;38863,288;26,71786
 621,25;10559,923;  408,360;38743,644;26,48099
 621,83;10433,055;  377,274;38621,503;26,29359
 622,41;10479,389;  424,966;38674,860;26,28615
 622,98;10290,584;  382,420;38389,742;26,06909
 623,56;10231,982;  395,034;38367,461;25,90550
 624,14;10134,807;  386,440;38175,066;25,79709
 624,72;10055,004;  360,735;38143,000;25,65825
 625,29;10012,866;  357,804;38178,069;25,52881
 625,87;10006,733;  404,894;38104,494;25,46934
 626,45; 9853,598;  336,802;37904,529;25,33237
 627,02; 9774,591;  356,280;37840,131;25,12632
 627,60; 9684,010;  349,214;37792,854;24,93026
 628,18; 9637,336;  330,277;37808,590;24,83319
 628,76; 9537,378;  329,960;37875,812;24,52313
 629,33; 9526,941;  355,118;37827,914;24,47595
 629,91; 9459,323;  346,739;37853,604;24,29578
 630,49; 9526,634;  358,577;38040,982;24,32981
 631,06; 9443,493;  333,730;38133,547;24,10002
 631,64; 9354,085;  332,572;38103,446;23,88484
 632,22; 9271,240;  301,645;37955,072;23,82146
 632,79; 9348,356;  331,029;38277,680;23,76317
 633,37; 9265,257;  295,820;38268,412;23,62082
 633,95; 9216,970;  301,571;38339,417;23,43823
 634,52; 9204,632;  288,658;38475,524;23,34827
 635,10; 9114,324;  293,738;38482,876;23,09711
 635,68; 9136,330;  289,491;38762,275;22,99506
 636,25; 9071,422;  273,792;38695,031;22,89783
 636,83; 9035,763;  257,960;38901,274;22,71493
 637,41; 8973,177;  279,720;38982,882;22,46188
 637,98; 8949,023;  315,104;39167,217;22,22252
 638,56; 8941,269;  284,944;39155,575;22,26958
 639,13; 8848,084;  269,805;39304,993;21,97576
 639,71; 8934,404;  332,346;39407,254;22,01428
 640,29; 8750,643;  241,576;39252,211;21,81217
 640,86; 8707,564;  265,961;39474,419;21,53005
 641,44; 8622,023;  263,269;39389,782;21,36340
 642,02; 8623,174;  295,808;39364,759;21,31454
 642,59; 8595,710;  268,347;39627,659;21,15729
 643,17; 8484,631;  260,963;39595,868;20,90680
 643,74; 8473,167;  270,655;39578,153;20,86755
 644,32; 8410,703;  300,810;39472,822;20,70328
 644,89; 8357,393;  284,041;39628,723;20,51955
 645,47; 8321,698;  302,887;39555,316;20,42883
 646,05; 8218,542;  296,041;39450,293;20,23407
 646,62; 8134,924;  273,503;39488,732;20,04686
 647,20; 8117,306;  288,581;39729,633;19,84918
 647,77; 8041,150;  260,889;39484,533;19,83564
 648,35; 7942,532;  260,120;39330,587;19,66296
 648,92; 7887,529;  288,735;39436,257;19,41066
 649,50; 7846,527;  254,120;39275,235;19,45718
 650,08; 7737,986;  249,659;39204,673;19,22301
 650,65; 7717,445;  261,044;39367,112;19,06712
 651,23; 7826,904;  240,583;40243,782;18,96429
 651,80; 7956,671;  249,814;41338,221;18,75677
 652,38; 8046,207;  254,353;41778,968;18,76442
 652,95; 8075,589;  234,199;42072,868;18,74197
 653,53; 8025,279;  266,507;42366,538;18,42937
 654,10; 8103,507;  289,585;42626,054;18,45672
 654,68; 7979,197;  244,277;42476,416;18,31525
 655,25; 7971,041;  242,124;42587,239;18,25220
 655,83; 7914,961;  244,816;42716,832;18,05929
 656,40; 7889,497;  275,201;42627,810;17,97834
 656,98; 7797,495;  259,894;42512,787;17,83925
 657,55; 7759,339;  244,818;42439,995;17,80896
 658,13; 7635,490;  249,356;42070,588;17,66121
 658,70; 7521,180;  272,818;41609,950;17,53475
 659,28; 7266,946;  263,203;40731,697;17,30666
 659,85; 7090,636;  265,588;39896,905;17,22135
 660,43; 7037,095;  272,281;39862,805;17,08695
 661,00; 6968,324;  252,204;40042,091;16,87896
 661,58; 7016,398;  254,666;40300,991;16,88478
 662,15; 6997,626;  236,666;40429,353;16,82137
 662,73; 7070,547;  316,667;40864,254;16,65668
 663,30; 7004,006;  266,052;41035,616;16,52692
 663,88; 6981,927;  260,052;41252,824;16,39771
 664,45; 6947,694;  259,591;41389,340;16,26099
 665,03; 7005,537;  250,130;41772,086;16,26948
 665,60; 7120,458;  338,130;42357,294;16,14103
 666,17; 6989,686;  249,515;42340,195;16,01345
 666,75; 6991,991;  248,054;42744,788;15,86931
 667,32; 7042,681;  271,208;43056,150;15,82677
 667,90; 7006,448;  252,285;43353,589;15,67044
 668,47; 7050,369;  279,132;43609,951;15,62684
 669,05; 7063,597;  245,594;43943,005;15,60276
 669,62; 7018,441;  230,748;44033,136;15,49617
 670,19; 6967,515;  234,671;44168,729;15,32488
 670,77; 6959,820;  245,595;44346,783;15,22459
 671,34; 6888,818;  248,980;44259,915;15,08679
 671,92; 6918,354;  246,442;44644,123;15,02761
 672,49; 6883,659;  261,211;44613,177;14,93158
 673,06; 6812,195;  210,442;44741,693;14,82499
 673,64; 6800,654;  233,366;44608,132;14,79960
 674,21; 6723,421;  237,443;44696,109;14,58878
 674,79; 6811,188;  257,828;44884,395;14,68488
 675,36; 6756,185;  263,598;44990,603;14,51603
 675,93; 6717,798;  240,982;44888,734;14,50648
 676,51; 6657,796;  254,214;44973,404;14,31954
 677,08; 6639,178;  254,522;45112,073;14,23318
 677,65; 6622,252;  239,830;45269,436;14,17384
 678,23; 6623,480;  243,830;45430,951;14,11829
 678,80; 6604,093;  237,215;45558,852;14,04821
 679,38; 6584,476;  239,831;45647,752;13,97255
 679,95; 6594,012;  256,985;46004,653;13,85213
 680,52; 6530,317;  243,908;46254,553;13,66294
 681,10; 6621,237;  264,370;46665,685;13,69976
 681,67; 6600,312;  241,371;46968,277;13,60874
 682,24; 6564,694;  230,217;46969,716;13,55273
 682,82; 6608,384;  244,833;47622,001;13,43168
 683,39; 6602,920;  279,141;47941,440;13,26788
 683,96; 6611,302;  246,449;48189,033;13,27599
 684,54; 6646,453;  230,757;48536,857;13,28134
 685,11; 6649,989;  287,065;48894,450;13,09045
 685,68; 6651,448;  253,527;49293,042;13,04646
 686,25; 6618,754;  226,373;49349,712;13,01292
 686,83; 6627,367;  243,528;49455,536;12,97212
 687,40; 6587,595;  228,528;49946,821;12,79020
 687,97; 6681,131;  273,067;50289,490;12,81192
 688,55; 6619,436;  229,144;50252,853;12,77453
 689,12; 6579,280;  211,375;50562,599;12,64697
 689,69; 6585,277;  213,145;50693,654;12,62296
 690,26; 6531,275;  236,145;50728,246;12,46755
 690,84; 6529,349;  231,838;50999,378;12,40460
 691,41; 6564,501;  259,838;51025,201;12,41922
 691,98; 6534,344;  245,915;51347,486;12,30575
 692,56; 6517,188;  240,146;51441,464;12,25953
 693,13; 6569,109;  288,916;51465,133;12,27170
 693,70; 6488,798;  263,686;51731,803;12,09509
 694,27; 6436,873;  225,070;51867,319;12,02853
 694,84; 6494,870;  236,840;51824,066;12,13097
 695,42; 6501,714;  293,763;51962,274;12,01496
 695,99; 6491,404;  243,225;52131,713;12,04155
 696,56; 6459,017;  236,764;52005,690;12,01928
 697,13; 6454,861;  256,765;52523,514;11,85858
 697,71; 6406,089;  235,534;52456,568;11,81622
 698,28; 6420,471;  233,611;52836,776;11,76138
 698,85; 6380,853;  215,381;52882,831;11,70642
 699,42; 6364,158;  215,304;53105,500;11,62570
 699,99; 6375,156;  256,459;53092,016;11,58064
 700,57; 6346,538;  247,228;53235,532;11,51067
 701,14; 6318,766;  243,228;53337,048;11,44302
 701,71; 6365,841;  263,537;53587,795;11,44377
 702,28; 6315,300;  246,152;53549,387;11,38608
 702,85; 6327,990;  252,614;53534,596;11,40231
 703,43; 6319,833;  263,768;53809,804;11,31002
 704,00; 6325,369;  290,461;54164,704;11,20184
 704,57; 6330,675;  265,692;54119,912;11,26185
 705,14; 6319,672;  292,231;54448,736;11,12967
 705,71; 6320,054;  293,308;54471,329;11,12397
 706,28; 6298,283;  270,770;54236,614;11,16913
 706,86; 6352,819;  292,847;54631,053;11,15232
 707,43; 6333,278;  325,694;54424,415;11,10485
 708,00; 6300,198;  308,925;54463,008;11,06338
 708,57; 6236,811;  274,848;54461,677;11,00261
 709,14; 6227,270;  294,926;54571,655;10,92981
 709,71; 6230,345;  278,464;54643,863;10,94792
 710,28; 6263,035;  288,696;54940,379;10,93167
 710,86; 6226,340;  276,927;55024,741;10,86694
 711,43; 6296,799;  298,696;55004,795;10,96423
 712,00; 6240,796;  275,543;55092,542;10,88212
 712,57; 6273,332;  295,082;55238,981;10,88065
 713,14; 6225,792;  262,851;55323,497;10,82977
 713,71; 6222,481;  271,390;55283,397;10,81780
 714,28; 6216,633;  251,006;55376,528;10,82190
 714,85; 6147,400;  238,852;55000,583;10,78956
 715,42; 6178,705;  257,929;55360,560;10,74500
 716,00; 6238,164;  316,007;55452,384;10,74093
 716,57; 6213,700;  241,469;55471,515;10,81337
 717,14; 6157,005;  240,854;55441,185;10,71760
 717,71; 6180,849;  233,777;55422,008;10,77598
 718,28; 6223,923;  284,162;55531,832;10,75115
 718,85; 6177,382;  222,855;55573,425;10,75784
 719,42; 6235,918;  246,701;55727,171;10,79518
 719,99; 6173,608;  222,163;55500,072;10,76641
 720,56; 6230,375;  270,702;55861,049;10,72070
 721,13; 6199,911;  235,779;55948,950;10,70507
 721,70; 6202,908;  227,933;55828,466;10,74626
 722,27; 6225,291;  245,626;55805,135;10,76263
 722,84; 6286,827;  304,396;55979,420;10,74527
 723,41; 6208,670;  227,627;56033,167;10,71765
 723,98; 6229,514;  246,627;56203,144;10,69203
 724,55; 6268,127;  270,166;56298,507;10,70523
 725,12; 6221,586;  198,551;56162,869;10,76228
 725,69; 6269,199;  237,782;56351,615;10,74854
 726,27; 6278,735;  235,475;56568,054;10,72782
 726,84; 6309,655;  248,321;56848,416;10,70905
 727,41; 6350,499;  258,860;56781,009;10,77744
 727,98; 6346,727;  263,552;57066,448;10,70927
 728,55; 6397,340;  276,322;56943,579;10,80168
 729,12; 6360,184;  235,015;57116,941;10,76822
 729,69; 6451,028;  254,400;57310,611;10,86057
 730,26; 6435,333;  266,015;57456,819;10,78725
 730,82; 6458,023;  250,785;57256,873;10,88873
 731,39; 6458,559;  251,016;57459,543;10,85073
 731,96; 6499,018;  228,863;57805,059;10,89019
 732,53; 6513,400;  248,555;57933,806;10,86039
 733,10; 6552,167;  262,402;57982,245;10,89706
 733,67; 6592,318;  273,941;58282,068;10,89223
 734,24; 6585,085;  240,326;57903,584;11,00312
 734,81; 6606,159;  270,710;57944,331;10,98500
 735,38; 6544,541;  250,865;57717,770;10,95183
 735,95; 6634,077;  244,250;57536,593;11,15302
 736,52; 6630,460;  261,865;57870,340;11,05496
 737,09; 6616,534;  267,866;57496,010;11,09361
 737,66; 6690,993;  298,558;57632,141;11,14955
 738,23; 6688,298;  252,482;57559,195;11,23048
 738,80; 6777,757;  317,251;58055,019;11,18939
 739,37; 6769,293;  285,406;58111,765;11,21269
 739,94; 6806,291;  255,637;58239,435;11,29739
 740,51; 6872,135;  384,022;58245,643;11,21315
 741,07; 6824,671;  248,253;58188,082;11,35043
 741,64; 6844,437;  283,792;58474,675;11,27435
 742,21; 6847,435;  257,407;58503,345;11,31414
 742,78; 6854,125;  227,177;58323,630;11,40680
 743,35; 6910,353;  252,946;58575,530;11,41480
 743,92; 7004,735;  287,178;58675,123;11,50504
 744,49; 6989,579;  278,024;58564,408;11,51479
 745,06; 7021,653;  244,948;58591,847;11,61451
 745,63; 6973,343;  238,256;58472,825;11,56545
 746,19; 7058,187;  253,794;58514,648;11,67918
 746,76; 6994,954;  259,256;58633,856;11,53875
 747,33; 7068,105;  261,334;58547,065;11,67828
 747,90; 7162,103;  272,257;58807,888;11,77034
 748,47; 7188,792;  253,257;58711,327;11,86412
 749,04; 7171,405;  264,181;58650,305;11,83025
 749,61; 7215,480;  284,335;58667,590;11,87180
 750,17; 7249,554;  277,335;58816,567;11,91034
 750,74; 7227,013;  273,028;58534,160;11,93589
 751,31; 7247,549;  247,028;58625,368;11,99164
 751,88; 7282,547;  227,106;58477,499;12,11226
 752,45; 7332,775;  252,490;58571,015;12,14071
 753,02; 7370,927;  266,875;58456,762;12,20839
 753,58; 7413,386;  234,799;58355,047;12,35127
 754,15; 7441,460;  244,107;58484,563;12,35800
 754,72; 7437,765;  233,492;58180,233;12,43258
 755,29; 7428,763;  228,569;58285,441;12,40197
 755,86; 7509,760;  257,569;58302,264;12,49415
 756,42; 7551,681;  263,416;58081,780;12,60545
 756,99; 7529,448;  226,032;58234,450;12,59027
 757,56; 7614,753;  232,724;57973,504;12,78477
 758,13; 7567,058;  193,955;58021,174;12,75023
 758,70; 7652,825;  228,802;58049,997;12,83962
 759,26; 7704,053;  220,110;58127,436;12,92400
 759,83; 7702,974;  236,264;58269,337;12,86630
 760,40; 7743,741;  210,111;58042,930;13,02657
 760,97; 7760,046;  205,496;58100,984;13,04860
 761,53; 7780,043;  209,265;57683,038;13,17258
 762,10; 7804,502;  191,419;57703,324;13,23740
 762,67; 7853,808;  233,266;57670,993;13,26748
 763,24; 7788,421;  182,497;57193,278;13,34120
 763,80; 7875,418;  211,113;57339,333;13,41597
 764,37; 7924,570;  217,575;57282,310;13,50570
 764,94; 7886,490;  197,267;56821,441;13,57940
 765,50; 7932,949;  206,268;56873,650;13,63515
 766,07; 8020,639;  241,960;56870,704;13,73627
 766,64; 8021,944;  217,576;56598,220;13,84228
 767,21; 8040,326;  216,730;56470,274;13,90774
 767,77; 8066,785;  236,038;56430,405;13,93511
 768,34; 8135,629;  237,731;56366,306;14,07108
 768,91; 8150,242;  251,270;56110,591;14,14083
 769,47; 8164,932;  234,962;56116,799;14,19060
 770,04; 8218,391;  238,963;56033,777;14,30138
 770,61; 8187,312;  228,655;55788,985;14,32435
 771,18; 8204,925;  219,656;55601,731;14,41851
 771,74; 8265,537;  233,964;55799,940;14,45412
 772,31; 8246,689;  240,118;55558,455;14,47363
 772,88; 8278,532;  217,580;55339,971;14,62374
 773,44; 8304,607;  219,042;55193,949;14,70774
 774,01; 8363,297;  245,427;55259,926;14,75587
 774,58; 8361,833;  213,735;54880,904;14,90492
 775,14; 8404,446;  222,043;55078,496;14,91603
 775,71; 8423,751;  228,735;54891,628;14,99192
 776,27; 8489,287;  286,428;54917,528;15,01500
 776,84; 8616,746;  317,198;54931,275;15,19672
 777,41; 8539,974;  231,044;54727,021;15,24687
 777,97; 8517,356;  227,275;54442,230;15,29113
 778,54; 8580,892;  239,737;54507,053;15,37050
 779,11; 8611,121;  263,045;54582,031;15,36861
 779,67; 8639,426;  224,430;54410,777;15,52973
 780,24; 8648,116;  237,584;54120,908;15,60878
 780,80; 8747,575;  239,354;54303,578;15,73725
 781,37; 8735,726;  257,585;54112,556;15,74254
 781,94; 8757,108;  240,278;53924,918;15,86456
 782,50; 8836,106;  247,201;53832,280;16,02854
 783,07; 8869,411;  272,125;53840,719;16,04912
 783,63; 8848,563;  236,817;53596,158;16,13915
 784,20; 8906,560;  278,971;53472,443;16,21926
 784,77; 8879,173;  243,895;53404,035;16,24390
 785,33; 8939,940;  219,280;53117,705;16,48567
 785,90; 8973,630;  240,896;53087,452;16,52470
 786,46; 9019,396;  264,050;53024,275;16,59460
 787,03; 8962,625;  223,665;52807,253;16,61918
 787,59; 9019,545;  239,435;52801,153;16,70438
 788,16; 9083,774;  254,051;52656,131;16,84995
 788,73; 9138,694;  250,820;52510,262;17,00721
 789,29; 9051,615;  238,975;52208,701;16,95726
 789,86; 9148,843;  264,590;52071,294;17,14885
 790,42; 9118,764;  246,052;52061,810;17,12358
 790,99; 9122,607;  254,668;51573,633;17,28004
 791,55; 9160,913;  234,591;51552,380;17,39420
 792,12; 9182,987;  271,130;51593,896;17,36434
 792,68; 9146,523;  246,900;51222,873;17,45847
 793,25; 9113,059;  254,285;50957,158;17,47194
 793,81; 9219,749;  318,054;50694,751;17,67026
 794,38; 9138,516;  225,593;50385,421;17,76905
 794,94; 9170,282;  228,901;50355,937;17,83744
 795,51; 9220,742;  255,286;50031,222;18,01163
 796,07; 9181,662;  245,748;49761,353;18,04666
 796,64; 9237,198;  266,056;49916,100;18,06875
 797,20; 9188,888;  254,826;49492,769;18,14467
 797,77; 9127,193;  228,749;48990,670;18,24876
 798,33; 9134,652;  245,442;48932,570;18,25782
 798,90; 9243,573;  269,673;48837,932;18,47688
 799,46; 9229,801;  236,673;48280,448;18,71861
 800,03; 9242,799;  248,673;48187,195;18,76179
 800,59; 9229,950;  267,520;47942,711;18,79894
 801,15; 9238,948;  269,443;47774,765;18,88105
 801,72; 9211,176;  243,059;47471,896;18,98865
 802,28; 9235,943;  271,136;47138,566;19,12801
 802,85; 9205,633;  252,752;46922,467;19,18349
 803,41; 9153,861;  235,522;46761,367;19,16857
 803,98; 9232,089;  244,137;46338,883;19,49886
 804,54; 9154,625;  246,907;46077,091;19,43636
 805,11; 9167,007;  259,292;45925,607;19,50610
 805,67; 9234,236;  268,754;45871,892;19,65979
 806,23; 9146,464;  254,600;45359,331;19,71382
 806,80; 9149,000;  276,216;45208,385;19,74706
 807,36; 9164,459;  271,370;45200,747;19,79348
 807,93; 9211,687;  291,832;44961,494;19,96849
 808,49; 9184,839;  248,602;44472,164;20,20696
 809,05; 9142,375;  239,602;44295,449;20,20793
 809,62; 9175,372;  269,218;44247,272;20,25136
 810,18; 9258,985;  261,910;44107,327;20,51999
 810,74; 9190,521;  230,449;43921,535;20,50778
 811,31; 9197,519;  239,911;43566,512;20,67461
 811,87; 9235,208;  260,527;43418,644;20,79489
 812,44; 9298,821;  273,373;43441,929;20,90746
 813,00; 9307,127;  204,297;43203,291;21,16987
 813,56; 9349,201;  257,682;43274,807;21,13465
 814,13; 9404,660;  240,836;43033,938;21,41426
 814,69; 9412,965;  239,759;42947,377;21,47909
 815,25; 9347,732;  228,067;42476,739;21,58568
 815,82; 9426,883;  270,760;42486,947;21,68866
 816,38; 9486,727;  295,145;42253,155;21,90662
 816,94; 9415,648;  244,145;42005,748;21,96157
 817,51; 9436,799;  214,530;41797,649;22,17792
 818,07; 9404,027;  225,377;41456,087;22,26168
 818,63; 9396,717;  251,377;41378,988;22,23650
 819,20; 9455,869;  245,070;41232,888;22,47204
 819,76; 9394,943;  223,070;40815,866;22,59483
 820,32; 9459,402;  281,994;40768,843;22,66763
 820,89; 9437,477;  257,302;40517,051;22,80236
 821,45; 9398,397;  231,456;40146,567;22,96609
 822,01; 9372,087;  256,149;39951,622;22,96468
 822,57; 9445,546;  255,610;39727,138;23,28244
 823,14; 9383,005;  209,918;39562,961;23,30973
 823,70; 9332,926;  236,073;39154,246;23,37431
 824,26; 9346,770;  231,688;39047,685;23,48280
 824,82; 9404,767;  267,843;38961,663;23,61339
 825,39; 9321,380;  234,535;38655,255;23,65090
 825,95; 9369,839;  261,920;38714,310;23,68622
 826,51; 9357,914;  254,382;38197,210;23,99276
 827,08; 9438,603;  279,613;38328,034;24,07193
 827,64; 9382,293;  261,460;38219,088;24,02899
 828,20; 9336,675;  228,845;37884,450;24,18718
 828,76; 9453,673;  272,614;37821,504;24,45095
 829,32; 9463,594;  273,461;37616,713;24,60989
 829,89; 9442,129;  225,000;37473,305;24,74510
 830,45; 9432,050;  246,692;37449,821;24,68975
 831,01; 9478,355;  241,693;37288,414;24,93247
 831,57; 9465,968;  246,693;37078,238;25,03092
 832,14; 9496,812;  228,001;37221,369;25,05533
 832,70; 9461,271;  226,155;36888,808;25,18944
 833,26; 9460,730;  207,002;36787,708;25,29675
 833,82; 9523,266;  237,463;36728,070;25,44710
 834,38; 9564,264;  232,002;36600,432;25,66034
 834,95; 9533,877;  217,541;36509,871;25,67026
 835,51; 9568,182;  207,388;36330,003;25,91394
 836,07; 9607,410;  234,234;36352,519;25,95133
 836,63; 9684,485;  259,927;36447,188;26,04385
 837,19; 9701,405;  244,696;36265,627;26,25337
 837,75; 9604,787;  206,312;35912,528;26,32168
 838,32; 9757,785;  254,235;35994,121;26,59088
 838,88; 9776,705;  248,851;36033,790;26,62532
 839,44; 9761,011;  246,159;36008,229;26,60599
 840,00; 9750,777;  237,390;35960,360;26,63101
 840,56; 9722,390;  229,083;35646,953;26,80372
 841,12; 9745,388;  217,006;35633,777;26,90359
 841,68; 9716,155;  211,853;35437,908;26,98089
 842,25; 9805,614;  216,315;35358,039;27,28750
 842,81; 9722,150;  219,777;35046,401;27,28479
 843,37; 9785,070;  203,777;35194,840;27,38212
 843,93; 9805,145;  233,239;35044,818;27,49633
 844,49; 9907,527;  245,932;35105,872;27,71547
 845,05; 9853,909;  193,855;34941,619;27,80051
 845,61; 9929,830;  249,240;34930,058;27,91338
 846,17; 9905,904;  217,317;34837,881;27,98506
 846,73; 9954,209;  237,856;34691,243;28,20145
 847,29; 9909,361;  207,164;34501,759;28,29075
 847,86; 9977,820;  208,549;34340,737;28,62187
 848,42; 9977,202;  229,473;34260,252;28,64386
 848,98;10028,738;  234,242;34187,307;28,84716
 849,54;10094,659;  213,781;34310,361;28,97909
 850,10;10091,964;  237,320;34163,031;29,04772
 850,66;10055,961;  214,935;33960,701;29,16225
 851,22;10061,728;  202,474;33760,832;29,37943
 851,78;10230,264;  259,244;33908,348;29,63235
 852,34;10178,954;  241,936;33671,787;29,72498
 852,90;10203,413;  216,552;33518,379;29,98893
 853,46;10129,411;  214,091;33287,511;29,97972
 854,02;10229,716;  230,938;33345,642;30,19438
 854,58;10185,636;  226,938;33129,004;30,26770
 855,14;10195,249;  209,400;32998,674;30,45462
 855,70;10158,554;  187,169;32836,036;30,54129
 856,26;10230,167;  233,400;32768,167;30,72641
 856,82;10236,396;  222,939;32634,683;30,89453
 857,38;10253,009;  248,401;32505,660;31,01506
 857,94;10175,391;  223,555;32328,407;30,99792
 858,50;10221,927;  249,402;32301,461;31,11352
 859,06;10238,078;  219,556;32019,516;31,50483
 859,62;10266,922;  243,941;32037,108;31,52558
 860,18;10292,458;  231,249;31813,009;31,85766
 860,74;10208,378;  203,634;31693,909;31,77090
 861,30;10208,068;  206,327;31504,579;31,95623
 861,86;10328,681;  272,019;31546,172;32,15646
 862,42;10211,140;  232,943;31357,457;32,05897
 862,98;10325,369;  251,635;31246,204;32,50161
 863,54;10274,212;  223,174;31084,489;32,56841
 864,10;10306,441;  229,944;31171,466;32,56626
 864,66;10294,130;  195,944;30835,367;32,95815
 865,22;10288,897;  218,714;30772,421;32,95896
 865,78;10347,818;  227,483;30606,475;33,31360
 866,34;10312,431;  205,484;30534,376;33,32448
 866,90;10329,813;  220,869;30421,738;33,47236
 867,45;10338,118;  226,715;30172,100;33,76615
 868,01;10341,962;  229,177;30075,154;33,88324
 868,57;10261,729;  213,408;29902,209;33,84549
 869,13;10304,726;  206,024;29751,186;34,18056
 869,69;10292,877;  223,870;29625,086;34,24691
 870,25;10258,798;  193,871;29556,910;34,27754
 870,81;10303,949;  225,409;29469,426;34,46360
 871,37;10300,793;  229,948;29372,326;34,55739
 871,93;10319,944;  240,718;29217,919;34,78330
 872,49;10265,480;  260,180;28988,435;34,82739
 873,04;10223,786;  205,488;28812,336;35,02063
 873,60;10243,476;  206,565;28641,082;35,29833
 874,16;10276,627;  229,104;28658,598;35,34190
 874,72;10250,396;  222,412;28514,521;35,44446
 875,28;10248,935;  216,258;28490,290;35,48371
 875,84;10272,088;  228,719;28408,367;35,64051
 876,40;10283,242;  212,104;28312,675;35,83962
 876,95;10353,012;  228,642;28234,137;36,15137
 877,51;10376,012;  253,719;28337,983;36,04258
 878,07;10408,704;  260,950;28323,675;36,16097
 878,63;10416,704;  224,642;28244,290;36,37470
 879,19;10486,396;  243,258;28254,137;36,56843
 879,75;10531,319;  212,488;28314,444;36,71926
 880,30;10612,242;  216,181;28316,521;36,99621
 880,86;10680,012;  265,642;28463,752;36,93286
 881,42;10725,319;  220,412;28442,213;37,22267
 881,98;10796,858;  227,642;28588,290;37,26719
 882,54;10883,165;  219,719;28630,290;37,53337
 883,09;10953,935;  244,642;28851,367;37,43628
 883,65;11004,781;  221,950;28772,521;37,76748
 884,21;11172,473;  256,565;29089,983;37,85853
 884,77;11226,858;  216,950;29134,598;38,07332
 885,32;11328,473;  218,642;29290,829;38,21464
 885,88;11422,396;  257,719;29403,521;38,30630
 886,44;11475,550;  236,335;29567,752;38,31801
 887,00;11545,858;  245,412;29449,752;38,69441
 887,56;11627,396;  225,412;29655,367;38,74279
 888,11;11648,242;  236,565;29563,444;38,91201
 888,67;11762,704;  258,642;29856,137;38,86836
 889,23;11817,473;  235,950;29842,137;39,11859
 889,79;11729,935;  209,796;29709,444;39,05178
 890,34;11846,858;  239,181;29678,060;39,42975
 890,90;12009,858;  298,488;29797,829;39,70044
 891,46;11916,396;  218,181;29684,137;39,70078
 892,01;11904,473;  248,950;29659,213;39,63080
 892,57;11936,935;  264,027;29633,444;39,74511
 893,13;11884,858;  227,181;29408,521;39,94908
 893,69;11844,627;  217,181;29394,983;39,85032
 894,24;11869,550;  221,488;29295,290;40,06377
 894,80;11883,627;  230,104;29098,213;40,36815
 895,36;11877,088;  227,335;28963,290;40,54069
 895,91;11783,165;  229,873;28788,521;40,45462
 896,47;11831,627;  254,719;28706,906;40,68899
 897,03;11695,242;  226,950;28519,213;40,53508
 897,58;11732,781;  241,950;28356,598;40,87133
 898,14;11689,165;  238,258;28184,137;40,97530
 898,70;11703,781;  203,104;28064,983;41,27746
 899,25;11754,165;  226,488;28075,521;41,39346
 899,81;11720,396;  243,412;27861,675;41,55578
 900,37;11685,319;  202,873;27585,213;41,93376
 900,92;11672,242;  224,027;27578,675;41,85108
 901,48;11637,627;  211,950;27435,983;41,96908
 902,03;11605,242;  218,181;27323,060;42,01111
 902,59;11648,473;  221,796;27093,444;42,52317
 903,15;11604,242;  247,950;27007,675;42,43800
 903,70;11469,396;  226,258;26764,213;42,36626
 904,26;11546,088;  213,181;26678,829;42,82120
 904,82;11595,242;  225,565;26587,444;43,12924
 905,37;11520,165;  247,335;26491,752;42,95325
 905,93;11497,396;  213,181;26311,137;43,23793
 906,48;11582,781;  241,335;26193,829;43,70079
 907,04;11626,319;  243,719;26203,367;43,84728
 907,60;11546,319;  237,412;25991,060;43,91187
 908,15;11489,627;  215,181;25851,829;43,97785
 908,71;11600,012;  245,412;25870,213;44,31098
 909,26;11483,088;  227,642;25635,906;44,29837
 909,82;11498,242;  246,565;25497,752;44,55900
 910,37;11560,319;  267,104;25509,675;44,73877
 910,93;11446,242;  206,335;25202,675;44,96621
 911,48;11370,781;  220,258;25081,829;44,85044
 912,04;11389,396;  219,950;24986,752;45,09846
 912,60;11471,242;  245,181;25042,521;45,27123
 913,15;11446,396;  224,642;24781,137;45,69770
 913,71;11359,396;  217,488;24642,444;45,61690
 914,26;11371,781;  202,565;24568,137;45,84015
 914,82;11419,781;  233,181;24515,213;46,06945
 915,37;11390,165;  213,104;24375,829;46,25745
 915,93;11374,473;  266,719;24251,598;46,31149
 916,48;11318,704;  211,719;24169,367;46,36091
 917,04;11294,088;  236,565;23978,983;46,57286
 917,59;11296,627;  265,104;23943,367;46,58924
 918,15;11184,088;  192,950;23755,367;46,64691
 918,70;11120,319;  220,104;23580,060;46,66197
 919,26;11162,012;  234,719;23524,213;46,91941
 919,81;11118,627;  214,719;23313,598;47,20535
 920,37;11144,550;  219,258;23324,137;47,28565
 920,92;11148,627;  243,258;23221,598;47,45934
 921,48;10995,396;  200,258;22960,675;47,42944
 922,03;11059,704;  204,796;22954,521;47,71446
 922,59;10981,704;  217,104;22834,213;47,59494
 923,14;10957,935;  215,488;22707,060;47,76210
 923,69;11026,550;  246,950;22638,675;48,14100
 924,25;11018,627;  251,488;22610,598;48,15549
 924,80;10905,627;  218,258;22348,598;48,29284
 925,36;10884,088;  212,719;22296,675;48,32182
 925,91;10910,319;  215,104;22124,137;48,81647
 926,47;10825,781;  194,181;22086,675;48,56276
 927,02;10892,012;  276,412;22066,983;48,71648
 927,57;10858,781;  216,258;21846,752;49,20148
 928,13;10766,858;  210,335;21785,137;48,92987
 928,68;10810,473;  219,181;21642,906;49,43721
 929,24;10662,704;  197,027;21414,521;49,32570
 929,79;10662,781;  208,104;21342,983;49,46646
 930,34;10626,627;  227,104;21287,983;49,37839
 930,90;10623,627;  206,027;21223,060;49,56742
 931,45;10684,935;  224,412;21149,290;49,99084
 932,01;10638,242;  216,565;21035,137;50,05952
 932,56;10552,858;  242,565;20796,983;50,16096
 933,11;10647,704;  242,565;20884,137;50,40866
 933,67;10485,242;  205,104;20678,598;50,21194
 934,22;10508,088;  226,642;20597,290;50,47187
 934,77;10490,473;  238,181;20439,829;50,74978
 935,33;10461,781;  227,412;20276,983;51,04533
 935,88;10443,165;  234,796;20294,598;50,88968
 936,43;10471,550;  212,565;20171,444;51,40061
 936,99;10424,319;  222,796;20050,598;51,45060
 937,54;10305,550;  203,796;19941,521;51,17993
 938,09;10351,396;  227,488;19924,598;51,39794
 938,65;10298,473;  227,181;19744,060;51,60299
 939,20;10262,858;  206,642;19583,213;51,89884
 939,75;10233,550;  205,027;19543,060;51,85907
 940,31;10241,858;  204,796;19451,675;52,14903
 940,86;10285,088;  223,565;19400,983;52,46547
 941,41;10355,165;  312,335;19371,444;52,69307
 941,96;10253,935;  211,950;19202,444;52,87901
 942,52;10191,242;  212,719;19112,598;52,79676
 943,07;10130,781;  200,104;18928,060;53,02595
 943,62;10084,319;  209,258;18923,983;52,76627
 944,18;10106,858;  205,488;18856,675;53,08707
 944,73;10081,396;  227,796;18680,675;53,39871
 945,28;10034,935;  192,488;18573,444;53,54698
 945,83;10020,704;  210,104;18589,752;53,37752
 946,39;10065,242;  200,873;18441,521;54,07905
 946,94;10014,935;  234,565;18404,444;53,82738
 947,49; 9989,781;  212,950;18280,367;54,11305
 948,04;10024,627;  251,873;18238,675;54,33292
 948,59; 9950,319;  239,027;18198,983;54,07192
 949,15; 9916,242;  204,181;18080,829;54,32820
 949,70; 9886,396;  209,181;17925,213;54,62405
 950,25; 9855,088;  230,335;17842,060;54,64969
 950,80; 9846,319;  181,950;17741,598;55,03737
 951,36; 9820,550;  188,565;17691,521;55,03062
 951,91; 9912,319;  233,104;17673,060;55,50023
 952,46; 9828,781;  201,488;17468,060;55,75683
 953,01; 9869,935;  232,027;17526,829;55,72719
 953,56; 9729,627;  193,027;17334,675;55,63409
 954,11; 9792,858;  218,412;17268,598;56,15450
 954,67; 9746,935;  213,950;17218,829;56,06029
 955,22; 9693,935;  191,642;16997,213;56,54251
 955,77; 9709,012;  235,335;17039,060;56,37843
 956,32; 9623,935;  268,181;16936,060;56,13044
 956,87; 9608,319;  204,642;16800,137;56,66404
 957,42; 9581,704;  208,950;16734,060;56,71826
 957,98; 9508,781;  200,796;16645,675;56,60111
 958,53; 9559,242;  238,335;16610,521;56,93136
 959,08; 9459,858;  195,335;16467,444;56,93498
 959,63; 9457,088;  210,104;16366,444;57,23440
 960,18; 9462,319;  227,335;16340,675;57,31266
 960,73; 9427,242;  217,258;16254,521;57,42865
 961,28; 9398,319;  197,412;16149,060;57,67998
 961,83; 9430,396;  231,488;16073,906;58,06505
 962,39; 9306,473;  200,719;15938,906;57,85771
 962,94; 9358,396;  232,258;15930,752;58,13385
 963,49; 9287,396;  210,488;15737,829;58,45758
 964,04; 9324,012;  240,488;15765,137;58,51033
 964,59; 9247,242;  191,719;15615,521;58,71135
 965,14; 9263,550;  235,642;15577,598;58,84457
 965,69; 9173,781;  222,719;15471,137;58,70158
 966,24; 9153,935;  204,335;15326,367;59,18252
 966,79; 9094,704;  228,719;15205,367;59,19872
 967,34; 9095,858;  194,335;15094,213;59,74225
 967,89; 9089,858;  206,642;15108,137;59,61292
 968,44; 9020,704;  212,873;14961,983;59,71771
 968,99; 9045,781;  217,642;14902,137;60,11878
 969,55; 8993,781;  216,104;14849,290;59,98473
 970,10; 8940,088;  222,642;14737,906;60,05710
 970,65; 8935,396;  228,488;14609,137;60,54600
 971,20; 8878,473;  190,258;14599,521;60,29604
 971,75; 8809,088;  193,488;14411,060;60,59825
 972,30; 8807,242;  221,642;14359,983;60,72566
 972,85; 8737,088;  205,950;14229,367;60,83495
 973,40; 8750,781;  193,027;14118,598;61,45352
 973,95; 8732,550;  223,412;14089,675;61,36576
 974,50; 8764,012;  247,027;13970,829;62,05995
 975,05; 8669,935;  219,642;13900,598;61,76683
 975,60; 8661,473;  227,027;13843,598;61,94251
 976,15; 8627,242;  212,873;13719,906;62,29621
 976,70; 8588,858;  215,027;13672,137;62,22607
 977,25; 8545,704;  230,565;13538,213;62,48391
 977,80; 8479,781;  214,412;13440,598;62,49246
 978,35; 8414,242;  227,104;13235,752;62,93612
 978,89; 8409,012;  204,181;13192,829;63,16924
 979,44; 8403,319;  231,642;13167,060;63,17289
 979,99; 8324,242;  204,181;12977,137;63,57230
 980,54; 8257,242;  240,181;12900,290;63,32537
 981,09; 8231,165;  232,104;12816,367;63,56400
 981,64; 8214,550;  229,950;12700,367;64,02833
 982,19; 8203,088;  260,565;12648,675;64,11408
 982,74; 8101,781;  234,104;12451,598;64,39681
 983,29; 8029,935;  210,950;12410,213;64,09391
 983,84; 7956,550;  225,796;12255,598;64,26335
 984,39; 8044,165;  291,950;12216,213;65,01211
 984,94; 7839,242;  199,565;12051,367;64,46005
 985,49; 7868,781;  244,335;12037,367;64,65212
 986,03; 7856,858;  236,719;11921,213;65,21582
 986,58; 7737,242;  273,565;11776,675;64,88399
 987,13; 7643,781;  230,796;11715,213;64,54820
 987,68; 7554,319;  242,412;11545,137;64,69155
 988,23; 7583,704;  240,642;11498,444;65,22642
 988,78; 7515,396;  219,565;11302,906;65,82700
 989,33; 7427,473;  244,335;11278,444;65,09939
 989,88; 7436,396;  258,950;11255,906;65,26757
 990,42; 7344,935;  219,950;11016,213;65,99491
 990,97; 7267,473;  213,335;10954,752;65,67232
 991,52; 7239,396;  241,258;10833,675;66,06744
 992,07; 7227,550;  258,796;10754,444;66,39660
 992,62; 7096,704;  230,796;10633,444;66,00154
 993,17; 7092,319;  244,181;10547,598;66,46473
 993,71; 7053,550;  250,719;10477,829;66,51763
 994,26; 6928,473;  217,950;10350,829;66,22524
 994,81; 6956,781;  239,412;10327,060;66,59004
 995,36; 6827,550;  218,258;10112,752;66,79768
 995,91; 6791,627;  227,565;10022,598;67,01419
 996,45; 6811,473;  230,027; 9909,829;67,99154
 997,00; 6669,012;  209,719; 9800,213;67,35098
 997,55; 6711,165;  229,488; 9758,367;68,02140
 998,10; 6604,858;  268,027; 9650,213;67,54109
 998,65; 6593,242;  219,258; 9554,060;68,28195
 999,19; 6497,165;  243,565; 9446,906;67,94924
 999,74; 6474,088;  268,181; 9374,675;68,14815
1000,29; 6368,935;  240,950; 9283,598;67,76759
1000,84; 6312,550;  229,412; 9153,983;68,16169
1001,38; 6268,858;  237,027; 9050,213;68,44097
1001,93; 6268,550;  242,027; 8986,829;68,91549
1002,48; 6171,858;  217,488; 8809,137;69,30416
1003,03; 6159,396;  242,565; 8779,213;69,31094
1003,57; 6091,319;  236,796; 8641,137;69,66071
1004,12; 6041,088;  275,488; 8548,213;69,69409
1004,67; 5939,242;  230,719; 8484,675;69,16106
1005,22; 5829,242;  229,412; 8324,675;69,17416
1005,76; 5758,165;  212,565; 8206,598;69,37175
1006,31; 5691,935;  247,181; 8143,983;68,94885
1006,86; 5647,396;  220,796; 8013,906;69,63331
1007,40; 5602,319;  210,488; 7877,367;70,32628
1007,95; 5542,088;  233,642; 7772,060;70,41858
1008,50; 5444,550;  230,335; 7641,521;70,35601
1009,04; 5405,781;  234,104; 7598,675;70,22373
1009,59; 5304,935;  237,181; 7462,675;70,13712
1010,14; 5196,781;  216,181; 7333,290;69,98066
1010,68; 5177,781;  238,642; 7215,213;70,79607
1011,23; 5077,704;  235,181; 7121,752;70,31835
1011,78; 5017,242;  236,335; 7045,675;70,21103
1012,32; 4955,704;  251,104; 6957,983;70,14589
1012,87; 4948,781;  257,565; 6925,521;70,35463
1013,42; 4871,242;  220,104; 6811,367;70,56520
1013,96; 4951,473;  261,873; 6784,752;71,89464
1014,51; 4819,935;  191,796; 6700,675;71,10500
1015,06; 4849,319;  200,488; 6667,752;71,88250
1015,60; 4904,627;  256,642; 6798,598;71,04885
1016,15; 4872,473;  218,335; 6680,290;72,02368
1016,69; 4936,012;  220,488; 6731,137;72,42786
1017,24; 4944,704;  207,258; 6735,060;72,57337
1017,79; 5009,242;  266,488; 6773,598;72,88572
1018,33; 5023,473;  229,565; 6800,675;72,95431
1018,88; 5037,858;  233,412; 6847,521;72,63935
1019,42; 5063,704;  226,565; 6854,137;72,98509
1019,97; 5029,550;  213,565; 6845,444;72,61871
1020,51; 5119,165;  254,335; 6915,752;73,02997
1021,06; 5101,781;  205,642; 6857,137;73,60960
1021,61; 5041,935;  196,488; 6808,290;73,28481
1022,15; 5022,242;  174,796; 6810,060;73,05582
1022,70; 5048,319;  226,412; 6803,290;73,31605
1023,24; 4982,473;  216,950; 6727,213;73,20016
1023,79; 5003,858;  228,335; 6680,675;74,01226
1024,33; 4936,858;  219,258; 6624,290;73,65458
1024,88; 4881,858;  240,565; 6540,060;73,67722
1025,42; 4822,781;  233,642; 6455,060;73,76355
1025,97; 4757,319;  212,488; 6340,444;74,16553
1026,51; 4642,550;  194,104; 6210,367;73,94035
1027,06; 4611,473;  214,873; 6179,290;73,71382
1027,60; 4559,165;  233,719; 6063,829;74,19151
1028,15; 4525,935;  239,488; 5980,060;74,66933
1028,69; 4400,858;  186,027; 5848,137;74,43923
1029,24; 4401,627;  210,950; 5824,290;74,65567
1029,78; 4311,242;  205,412; 5707,906;74,61763
1030,33; 4257,012;  191,104; 5582,752;75,41122
1030,87; 4222,704;  208,181; 5519,675;75,58180
1031,42; 4130,319;  203,181; 5462,367;74,67198
1031,96; 4123,165;  235,258; 5394,444;75,35893
1032,51; 4041,319;  205,104; 5323,137;74,95488
1033,05; 4003,935;  217,719; 5227,444;75,57731
1033,60; 3919,473;  184,335; 5090,213;76,13597
1034,14; 3877,088;  206,488; 5045,213;75,85883
1034,69; 3844,396;  209,719; 5001,983;75,84468
1035,23; 3764,242;  218,027; 4920,444;75,41260
1035,77; 3777,012;  200,488; 4851,983;76,88977
1036,32; 3651,627;  192,104; 4765,598;75,64289
1036,86; 3628,319;  216,412; 4730,983;75,57546
1037,41; 3553,396;  222,412; 4647,137;75,28117
1037,95; 3506,935;  187,719; 4576,137;75,63582
1038,50; 3459,012;  204,642; 4510,137;75,58643
1039,04; 3437,473;  231,258; 4502,983;75,05669
1039,58; 3403,550;  186,950; 4391,367;76,50525
1040,13; 3362,012;  203,719; 4340,906;76,33913
1040,67; 3334,165;  243,181; 4308,213;76,03837
1041,21; 3310,935;  246,642; 4242,906;76,67894
1041,76; 3199,165;  195,642; 4154,290;75,87244
1042,30; 3192,781;  204,488; 4094,752;76,81465
1042,85; 3158,627;  211,258; 4034,598;77,08885
1043,39; 3088,627;  199,488; 3983,367;76,35388
1043,93; 3082,935;  239,873; 3941,060;76,81487
1044,48; 3006,935;  212,642; 3882,060;76,15085
1045,02; 2963,473;  217,950; 3808,290;76,46972
1045,56; 2981,396;  238,796; 3774,829;77,56150
1046,11; 2934,242;  219,258; 3703,598;77,91962
1046,65; 2886,935;  231,873; 3656,983;77,51756
1047,19; 2859,704;  204,796; 3602,521;78,13780
1047,74; 2763,935;  192,488; 3532,906;76,97979
1048,28; 2769,704;  221,950; 3503,444;77,64005
1048,82; 2758,242;  241,950; 3495,137;77,34854
1049,37; 2719,319;  230,412; 3450,829;77,28525
1049,91; 2699,012;  223,027; 3376,983;78,50410
1050,45; 2647,012;  239,181; 3303,444;78,57780
1050,99; 2645,627;  224,565; 3282,598;79,17056
1051,54; 2567,396;  204,950; 3204,598;78,75744
1052,08; 2571,473;  249,104; 3177,213;79,31292
1052,62; 2511,319;  229,642; 3147,521;78,19642
1053,16; 2492,627;  207,104; 3077,060;79,63618
1053,71; 2445,012;  222,565; 3052,752;78,52649
1054,25; 2430,319;  225,796; 3010,060;79,17796
1054,79; 2394,935;  239,258; 2989,060;78,39390
1055,33; 2336,242;  197,258; 2897,675;79,20941
1055,88; 2331,858;  233,565; 2871,213;79,55164
1056,42; 2309,242;  236,027; 2866,060;78,82850
1056,96; 2287,781;  236,796; 2825,829;79,21818
1057,50; 2236,935;  229,565; 2775,290;78,85256
1058,05; 2195,012;  220,796; 2712,137;79,24310
1058,59; 2206,088;  247,488; 2702,983;79,76398
1059,13; 2131,550;  208,950; 2628,444;79,46289
1059,67; 2097,396;  243,258; 2590,213;79,00185
1060,21; 2076,781;  221,335; 2572,290;78,92306
1060,76; 2087,781;  227,796; 2531,060;80,75431
1061,30; 2056,781;  253,027; 2506,213;80,05346
1061,84; 2017,319;  230,796; 2447,367;80,59850
1062,38; 1936,781;  214,488; 2410,598;78,42470
1062,92; 1986,781;  261,258; 2426,213;79,70246
1063,46; 1929,165;  243,027; 2356,829;79,76804
1064,01; 1910,012;  215,335; 2301,752;81,22426
1064,55; 1887,858;  232,335; 2289,829;80,46307
1065,09; 1848,781;  210,488; 2225,675;81,29730
1065,63; 1873,088;  264,565; 2251,060;80,97295
1066,17; 1841,012;  258,642; 2236,829;79,99090
1066,71; 1791,242;  259,873; 2181,213;79,70317
1067,25; 1767,858;  225,950; 2165,521;79,49735
1067,80; 1768,935;  233,642; 2149,752;80,12549
1068,34; 1765,088;  247,565; 2133,137;80,48082
1068,88; 1710,319;  223,412; 2033,829;82,13066
1069,42; 1728,165;  258,950; 2107,137;79,49497
1069,96; 1663,627;  232,642; 1976,521;82,05757
1070,50; 1703,858;  260,719; 2028,829;81,62042
1071,04; 1631,550;  225,719; 1940,367;81,98946
1071,58; 1627,627;  230,488; 1941,598;81,65102
1072,12; 1601,319;  225,565; 1930,675;80,68419
1072,66; 1582,396;  226,719; 1907,367;80,66394
1073,21; 1570,473;  238,565; 1891,983;80,55484
1073,75; 1569,781;  230,719; 1850,290;82,68001
1074,29; 1537,935;  236,412; 1835,983;81,36700
1074,83; 1533,088;  261,027; 1831,213;81,01340
1075,37; 1526,319;  258,873; 1820,983;81,13683
1075,91; 1471,396;  248,412; 1758,060;81,01124
1076,45; 1477,396;  229,565; 1769,752;81,01816
1076,99; 1461,012;  244,873; 1749,752;80,81305
1077,53; 1424,473;  235,412; 1680,521;82,28175
1078,07; 1433,781;  241,565; 1668,983;83,52255
1078,61; 1397,242;  232,488; 1675,367;80,72430
1079,15; 1387,858;  239,258; 1633,060;82,40769
1079,69; 1373,165;  231,488; 1615,521;82,48916
1080,23; 1391,242;  253,104; 1621,752;83,15786
1080,77; 1396,165;  280,104; 1640,906;82,01499
1081,31; 1334,781;  230,104; 1558,290;83,17182
1081,85; 1346,704;  255,104; 1566,137;83,26261
1082,39; 1314,935;  228,258; 1534,521;83,18972
1082,93; 1294,319;  247,412; 1547,675;80,51504
1083,47; 1263,242;  218,027; 1479,367;82,86545
1084,01; 1262,396;  249,950; 1512,752;80,17458
1084,55; 1227,165;  231,027; 1450,367;81,69486
1085,09; 1241,165;  246,565; 1467,290;81,47617
1085,63; 1228,473;  238,719; 1444,829;82,06168
1086,17; 1210,935;  229,258; 1403,675;83,58842
1086,71; 1190,473;  224,181; 1383,213;83,37058
1087,24; 1215,165;  257,719; 1404,060;83,52198
1087,78; 1182,550;  253,104; 1397,598;81,21021
1088,32; 1138,012;  224,719; 1317,137;83,60288
1088,86; 1156,396;  256,181; 1356,906;81,78386
1089,40; 1140,781;  232,565; 1315,521;83,86449
1089,94; 1115,165;  220,335; 1295,829;83,20182
1090,48; 1110,550;  238,719; 1271,137;84,44558
1091,02; 1116,781;  262,335; 1291,598;83,01530
1091,56; 1100,165;  238,565; 1262,213;84,16955
1092,10; 1059,396;  215,104; 1222,983;83,76923
1092,63; 1095,704;  251,027; 1249,213;84,62115
1093,17; 1043,935;  256,181; 1214,290;82,21960
1093,71; 1025,473;  225,873; 1196,367;82,39101
1094,25; 1046,781;  254,335; 1224,983;81,64093
1094,79; 1015,704;  230,258; 1179,829;82,71588
1095,33;  993,165;  236,796; 1174,906;80,62696
1095,87; 1000,088;  231,565; 1156,675;83,07373
1096,40;  959,627;  218,565; 1126,213;81,64635
1096,94;  975,012;  245,642; 1116,521;83,75094
1097,48;  985,781;  245,412; 1123,598;84,30660
1098,02;  943,473;  227,642; 1097,598;82,28358
1098,56;  912,242;  205,950; 1056,829;83,00739
1099,10;  912,858;  210,104; 1066,444;82,06478
1099,63;  895,935;  213,565; 1045,906;81,98199
1100,17;  912,165;  245,488; 1052,675;82,59267
1100,71;  921,088;  266,488; 1075,444;80,91913

