
Integration time [ms]: 150,000
Averaging Nr. [scans]: 13
Smoothing Nr. [pixels]: 0
Data measured with spectrometer [name]: 2009305U1
Wave   ;Sample   ;Dark     ;Reference;Reflectance
[nm]   ;[counts] ;[counts] ;[counts] ;[%]

 175,72;  220,969;  210,429;  220,471;104,95717
 176,32;  238,975;  234,648;  230,585; 0,00000
 176,92;  280,881;  262,887;  268,668;311,27049
 177,52;  260,507;  262,888;  271,098;-29,01408
 178,12;  244,917;  248,802;  249,361; 0,00000
 178,72;  277,140;  274,414;  267,670; 0,00000
 179,32;  259,344;  266,802;  262,612; 0,00000
 179,92;  266,931;  263,191;  265,430;167,01880
 180,52;  266,644;  254,820;  268,737;84,96296
 181,12;  254,860;  276,192;  277,116; 0,00000
 181,73;  283,252;  291,885;  288,587; 0,00000
 182,33;  396,731;  389,661;  393,065;207,73391
 182,93;  281,829;  283,427;  290,438;-22,79673
 183,53;  236,927;  251,797;  236,920; 0,00000
 184,13;  252,631;  253,876;  247,983; 0,00000
 184,73;  297,901;  300,257;  296,133; 0,00000
 185,33;  276,526;  232,186;  372,780;31,53769
 185,93;  271,527;  248,024;  381,707;17,58126
 186,53;  300,483;  264,567;  409,937;24,70635
 187,13;  327,887;  281,653;  423,343;32,63005
 187,73;  290,212;  262,717;  385,993;22,30382
 188,33;  283,040;  252,789;  388,871;22,22983
 188,93;  289,808;  266,312;  397,447;17,91724
 189,53;  293,710;  262,685;  389,189;24,52450
 190,13;  328,313;  302,512;  438,346;18,99421
 190,73;  273,728;  236,141;  373,017;27,46070
 191,34;  307,838;  261,693;  413,108;30,47628
 191,94;  273,881;  255,246;  380,611;14,86453
 192,54;  301,612;  257,506;  424,486;26,41407
 193,14;  302,788;  268,575;  408,916;24,37843
 193,74;  304,638;  272,881;  412,134;22,80523
 194,34;  292,726;  266,808;  418,552;17,08000
 194,94;  252,187;  227,652;  383,410;15,75199
 195,54;  246,222;  208,879;  357,892;25,05997
 196,14;  258,633;  234,502;  389,705;15,54753
 196,74;  260,976;  226,261;  383,948;22,01489
 197,34;  236,304;  201,816;  382,226;19,11630
 197,94;  264,135;  237,192;  405,872;15,97273
 198,54;  272,386;  248,810;  433,270;12,78108
 199,14;  245,941;  213,204;  426,334;15,36034
 199,74;  242,465;  214,896;  414,917;13,78321
 200,34;  230,905;  204,436;  423,461;12,08478
 200,94;  274,770;  239,507;  465,153;15,62785
 201,54;  251,899;  219,510;  466,497;13,11391
 202,14;  303,137;  252,131;  532,390;18,19983
 202,74;  266,678;  226,050;  532,910;13,23994
 203,34;  246,057;  209,365;  519,700;11,82336
 203,94;  221,066;  181,285;  517,229;11,84159
 204,54;  283,786;  255,962;  626,255; 7,51408
 205,14;  241,926;  193,050;  622,361;11,38468
 205,74;  293,470;  258,442;  734,687; 7,35512
 206,34;  258,290;  206,130;  735,988; 9,84403
 206,94;  275,249;  221,052;  795,015; 9,44267
 207,54;  234,963;  200,130;  838,519; 5,45647
 208,14;  253,925;  221,900;  945,937; 4,42312
 208,74;  264,830;  216,972; 1009,200; 6,04089
 209,34;  271,468;  207,589; 1093,029; 7,21444
 209,94;  284,250;  228,973; 1205,044; 5,66325
 210,54;  274,058;  213,902; 1295,806; 5,56024
 211,14;  284,510;  220,127; 1408,339; 5,41847
 211,73;  287,633;  222,586; 1574,499; 4,81147
 212,33;  301,246;  235,122; 1649,570; 4,67491
 212,93;  303,474;  214,357; 1776,803; 5,70369
 213,53;  258,354;  194,126; 1826,321; 3,93506
 214,13;  308,202;  219,445; 1935,939; 5,17081
 214,73;  275,291;  189,438; 1943,698; 4,89397
 215,33;  279,327;  182,512; 1998,428; 5,33151
 215,93;  314,852;  208,595; 2126,191; 5,54114
 216,53;  290,486;  174,510; 2141,740; 5,89541
 217,13;  340,951;  228,594; 2418,262; 5,13124
 217,73;  344,900;  205,673; 2614,511; 5,77988
 218,33;  305,917;  157,908; 2807,307; 5,58653
 218,93;  375,304;  191,686; 3161,954; 6,18187
 219,53;  365,134;  209,600; 3448,890; 4,80147
 220,13;  367,009;  161,910; 3786,790; 5,65809
 220,73;  418,607;  186,512; 4185,518; 5,80381
 221,32;  444,522;  180,434; 4593,661; 5,98402
 221,92;  470,651;  199,986; 5099,221; 5,52464
 222,52;  489,227;  172,596; 5559,673; 5,87760
 223,12;  533,338;  194,520; 6010,807; 5,82534
 223,72;  568,939;  205,135; 6493,928; 5,78496
 224,32;  605,082;  191,213; 6911,624; 6,15839
 224,92;  616,050;  181,366; 7344,678; 6,06820
 225,52;  672,081;  202,821; 7700,521; 6,25872
 226,12;  692,642;  192,748; 8066,245; 6,34908
 226,72;  712,561;  168,670; 8499,269; 6,52883
 227,31;  720,760;  171,901; 8927,785; 6,26846
 227,91;  805,521;  207,128; 9414,017; 6,49941
 228,51;  813,930;  182,892; 9974,762; 6,44451
 229,11;  863,850;  180,131;10317,185; 6,74475
 229,71;  892,303;  187,587;10733,659; 6,68226
 230,31;  933,541;  173,368;11216,731; 6,88352
 230,91;  966,526;  166,043;11565,381; 7,02219
 231,51; 1013,331;  173,442;11906,181; 7,15851
 232,10; 1071,256;  177,908;12197,330; 7,43254
 232,70; 1133,418;  184,577;12456,399; 7,73187
 233,30; 1175,741;  210,672;12752,518; 7,69479
 233,90; 1200,479;  182,133;12908,496; 8,00186
 234,50; 1211,776;  175,365;13023,978; 8,06633
 235,10; 1252,666;  177,674;13013,063; 8,37522
 235,70; 1336,520;  200,590;13031,384; 8,85316
 236,29; 1348,843;  197,357;12914,215; 9,05480
 236,89; 1318,377;  173,352;12748,510; 9,10545
 237,49; 1390,473;  203,594;12569,041; 9,59835
 238,09; 1350,521;  183,361;12260,911; 9,66388
 238,69; 1404,234;  239,118;11895,749; 9,99530
 239,29; 1353,976;  178,822;11552,457;10,33227
 239,89; 1351,024;  191,198;11110,071;10,62221
 240,48; 1312,412;  179,438;10589,197;10,88377
 241,08; 1336,834;  175,052;10137,146;11,66202
 241,68; 1338,354;  206,746; 9754,974;11,85150
 242,28; 1282,030;  164,902; 9426,357;12,06212
 242,88; 1325,803;  222,522; 8991,600;12,58149
 243,48; 1320,102;  215,747; 8668,150;13,06557
 244,07; 1265,567;  209,513; 8380,764;12,92402
 244,67; 1267,435;  202,054; 8190,795;13,33603
 245,27; 1280,556;  210,124; 8029,884;13,68880
 245,87; 1288,259;  223,060; 7888,991;13,89523
 246,47; 1312,126;  198,355; 7872,983;14,51237
 247,06; 1319,191;  177,822; 7878,253;14,82215
 247,66; 1336,817;  184,977; 7935,530;14,86139
 248,26; 1420,808;  218,895; 8133,080;15,18683
 248,86; 1456,713;  216,663; 8278,227;15,38225
 249,46; 1478,652;  157,903; 8522,136;15,79044
 250,05; 1591,902;  206,053; 8952,569;15,84459
 250,65; 1612,858;  179,047; 9274,583;15,76390
 251,25; 1728,955;  187,282; 9907,953;15,85973
 251,85; 1856,823;  195,198;10524,307;16,08682
 252,44; 1957,645;  169,742;11264,331;16,11509
 253,04; 2151,068;  206,358;12113,056;16,33291
 253,64; 2237,605;  143,430;13006,464;16,28057
 254,24; 2473,378;  212,899;14105,755;16,27080
 254,84; 2604,268;  181,595;15148,059;16,18734
 255,43; 2846,401;  168,896;16312,624;16,58542
 256,03; 3024,024;  194,277;17467,521;16,38226
 256,63; 3259,269;  198,582;18768,103;16,48231
 257,23; 3426,794;  175,275;19875,242;16,50520
 257,82; 3676,812;  204,348;21036,119;16,66908
 258,42; 3819,935;  153,500;22163,356;16,65815
 259,02; 4043,990;  209,435;23283,654;16,61835
 259,62; 4161,542;  172,037;24180,867;16,61682
 260,21; 4278,814;  182,357;24979,227;16,52006
 260,81; 4374,517;  198,132;25684,848;16,38652
 261,41; 4474,453;  169,501;26214,764;16,52873
 262,01; 4612,437;  217,650;26863,677;16,49322
 262,60; 4616,333;  175,121;27340,242;16,34895
 263,20; 4726,554;  177,201;27847,328;16,44139
 263,80; 4708,205;  198,881;28114,814;16,15323
 264,40; 4772,828;  180,497;28415,209;16,26484
 264,99; 4785,709;  196,727;28590,679;16,16183
 265,59; 4790,007;  187,182;28862,443;16,05155
 266,19; 4792,883;  175,266;29141,858;15,94118
 266,78; 4849,445;  224,263;29260,189;15,92917
 267,38; 4789,939;  203,645;29254,933;15,78689
 267,98; 4766,263;  191,263;29300,433;15,71670
 268,58; 4743,830;  203,953;29350,295;15,57615
 269,17; 4696,306;  183,871;29483,367;15,40107
 269,77; 4628,889;  190,427;29199,954;15,30002
 270,37; 4543,554;  163,649;29137,046;15,11699
 270,96; 4552,027;  227,348;28929,069;15,06766
 271,56; 4413,776;  191,890;28726,004;14,79592
 272,16; 4352,896;  184,193;28432,833;14,75718
 272,75; 4343,421;  192,962;28286,587;14,77367
 273,35; 4268,769;  190,887;28298,022;14,50835
 273,95; 4188,946;  188,116;28310,478;14,22650
 274,54; 4212,824;  164,745;28262,474;14,40714
 275,14; 4255,264;  220,579;28745,908;14,14422
 275,74; 4167,481;  170,270;28741,982;13,99010
 276,33; 4255,996;  220,350;29251,805;13,90094
 276,93; 4253,371;  195,131;29623,502;13,79023
 277,53; 4342,059;  193,126;30254,336;13,80162
 278,12; 4403,830;  168,968;30774,086;13,83710
 278,72; 4550,548;  238,356;31410,537;13,83346
 279,32; 4594,575;  187,740;32161,276;13,78276
 279,91; 4698,104;  179,124;33102,941;13,72557
 280,51; 4808,323;  178,511;33601,453;13,85220
 281,11; 4968,457;  183,893;34504,918;13,94062
 281,70; 5004,745;  178,661;34913,893;13,89392
 282,30; 5174,391;  180,121;35773,388;14,03150
 282,90; 5264,575;  177,198;36202,547;14,12166
 283,49; 5362,832;  204,502;36835,605;14,08183
 284,09; 5531,434;  221,199;37309,550;14,31780
 284,69; 5627,388;  216,125;37747,852;14,41784
 285,28; 5754,449;  202,738;38115,506;14,64338
 285,88; 5949,849;  259,962;38474,761;14,88922
 286,47; 5991,897;  189,967;38536,425;15,13029
 287,07; 6143,820;  229,356;38611,308;15,40949
 287,67; 6310,333;  221,517;38768,381;15,79588
 288,26; 6418,572;  174,817;38695,857;16,20869
 288,86; 6575,097;  189,123;38843,622;16,52065
 289,46; 6842,307;  211,970;38900,184;17,13787
 290,05; 7016,430;  186,128;39004,831;17,59539
 290,65; 7247,415;  183,658;39212,631;18,09875
 291,24; 7521,962;  198,510;39404,157;18,67959
 291,84; 7868,961;  208,505;39453,026;19,51981
 292,44; 8094,661;  191,133;39596,483;20,05699
 293,03; 8417,639;  271,587;39860,492;20,57660
 293,63; 8557,236;  186,813;39993,525;21,02767
 294,22; 8844,396;  212,508;40106,352;21,63714
 294,82; 9010,091;  191,421;40157,479;22,06540
 295,41; 9057,283;  171,815;39861,432;22,38739
 296,01; 9253,444;  223,961;39766,197;22,83503
 296,61; 9335,038;  209,741;39457,294;23,25061
 297,20; 9304,802;  202,962;39006,227;23,45638
 297,80; 9383,731;  211,284;38788,963;23,77657
 298,39; 9333,977;  169,659;38372,383;23,98865
 298,99; 9382,674;  217,271;38164,322;24,15314
 299,58; 9350,142;  213,747;37956,827;24,20681
 300,18; 9373,341;  216,667;37800,970;24,36303
 300,78; 9268,740;  193,127;37264,339;24,48157
 301,37; 9307,425;  208,726;37271,230;24,54961
 301,97; 9290,044;  211,201;37289,700;24,48547
 302,56; 9308,878;  193,581;37253,418;24,59616
 303,16; 9241,623;  172,734;37078,033;24,57341
 303,75; 9246,993;  188,589;37057,458;24,56925
 304,35; 9371,490;  185,366;37374,251;24,70126
 304,94; 9322,693;  194,432;37388,740;24,54209
 305,54; 9328,753;  208,280;37298,200;24,59017
 306,13; 9268,170;  156,366;37154,852;24,62751
 306,73; 9213,152;  173,748;36900,488;24,61260
 307,33; 9260,176;  204,055;36849,500;24,71282
 307,92; 9237,978;  210,664;36912,899;24,59609
 308,52; 9312,712;  177,041;37460,201;24,50348
 309,11; 9500,070;  190,422;37920,271;24,67449
 309,71; 9519,222;  168,035;38370,265;24,47812
 310,30; 9586,452;  175,356;38576,914;24,50707
 310,90; 9675,683;  231,663;39068,606;24,31710
 311,49; 9735,357;  193,355;39159,445;24,48796
 312,09; 9760,680;  167,744;39363,223;24,47460
 312,68; 9982,739;  248,511;39753,860;24,64028
 313,28; 9876,132;  168,741;39814,515;24,48531
 313,87; 9917,250;  164,048;40027,671;24,46642
 314,47; 9991,663;  185,962;40306,046;24,44088
 315,06; 9968,364;  166,126;40477,224;24,31648
 315,66; 9986,141;  164,975;40737,223;24,20661
 316,25; 9900,334;  153,427;40643,194;24,07252
 316,85; 9861,066;  153,898;40734,856;23,92050
 317,44; 9877,227;  189,807;40867,845;23,81487
 318,04; 9840,222;  159,890;40870,723;23,77827
 318,63; 9814,552;  158,671;40936,999;23,67895
 319,22; 9812,414;  190,581;41190,460;23,46795
 319,82; 9785,662;  178,276;41035,669;23,51444
 320,41; 9707,401;  201,197;40992,060;23,30474
 321,01; 9717,675;  203,744;41116,556;23,25416
 321,60; 9695,080;  195,199;41157,555;23,19173
 322,20; 9594,472;  172,741;41109,093;23,01556
 322,79; 9564,687;  210,049;41351,428;22,73779
 323,39; 9543,778;  177,750;41303,995;22,77385
 323,98; 9437,291;  170,972;41256,738;22,55360
 324,58; 9415,190;  172,272;41097,866;22,58469
 325,17; 9377,075;  181,658;40840,514;22,61602
 325,76; 9264,848;  197,509;40619,988;22,43143
 326,36; 9085,397;  180,051;40206,407;22,24871
 326,95; 9018,913;  202,661;39889,848;22,21435
 327,55; 8829,645;  176,429;39424,295;22,04761
 328,14; 8711,550;  171,284;38993,532;21,99838
 328,74; 8605,739;  203,889;38486,527;21,94689
 329,33; 8457,149;  197,051;38099,263;21,79318
 329,92; 8273,334;  170,115;37390,773;21,77076
 330,52; 8052,015;  194,900;36753,951;21,49157
 331,11; 7906,095;  194,815;36201,067;21,41650
 331,71; 7741,720;  182,508;35406,171;21,46061
 332,30; 7626,154;  209,586;34888,971;21,38610
 332,89; 7500,977;  256,897;34328,024;21,26164
 333,49; 7284,236;  202,892;33721,513;21,12660
 334,08; 7135,629;  181,968;33201,168;21,05945
 334,68; 6996,676;  190,814;32709,086;20,92935
 335,27; 6903,468;  207,747;32353,450;20,82929
 335,86; 6890,480;  248,353;31983,374;20,92996
 336,46; 6729,732;  208,593;31623,029;20,75841
 337,05; 6646,295;  172,738;31336,121;20,77296
 337,65; 6547,077;  172,276;31199,905;20,54556
 338,24; 6554,937;  242,280;31201,282;20,39038
 338,83; 6526,492;  214,280;31102,964;20,43535
 339,43; 6428,674;  173,196;31037,849;20,26745
 340,02; 6443,116;  182,426;30912,670;20,37305
 340,61; 6466,194;  188,510;30916,175;20,43007
 341,21; 6445,662;  215,889;30897,142;20,30482
 341,80; 6427,521;  183,583;30821,607;20,37970
 342,40; 6402,417;  188,823;30988,864;20,17398
 342,99; 6434,977;  178,589;31092,947;20,23781
 343,58; 6434,611;  185,974;31243,570;20,11951
 344,18; 6449,584;  204,128;31328,523;20,06611
 344,77; 6543,530;  180,119;31602,291;20,25134
 345,36; 6569,298;  172,430;31986,233;20,10721
 345,96; 6655,873;  205,513;32341,747;20,07192
 346,55; 6660,118;  181,058;32641,496;19,95987
 347,14; 6747,618;  171,208;33114,167;19,96302
 347,74; 6866,910;  152,755;33466,209;20,15449
 348,33; 7002,120;  188,754;34256,551;19,99943
 348,92; 7133,485;  201,374;34950,810;19,94885
 349,52; 7226,750;  165,372;35433,956;20,02172
 350,11; 7332,711;  182,272;35698,568;20,13284
 350,70; 7316,224;  188,279;35899,257;19,96010
 351,29; 7258,260;  169,570;35546,859;20,03740
 351,89; 7300,209;  204,961;35530,376;20,08539
 352,48; 7278,562;  163,279;35571,108;20,09522
 353,07; 7297,255;  202,978;35476,825;20,11200
 353,67; 7266,628;  199,067;35419,275;20,06678
 354,26; 7207,018;  186,439;35165,217;20,07097
 354,85; 7216,651;  199,668;34931,082;20,20356
 355,45; 7145,747;  165,736;34786,939;20,16109
 356,04; 7134,843;  192,132;34652,317;20,14705
 356,63; 7151,484;  219,508;34441,196;20,25609
 357,22; 7146,122;  193,803;34187,128;20,45201
 357,82; 7076,613;  188,497;33996,951;20,37394
 358,41; 7063,723;  211,124;33907,360;20,33639
 359,00; 7027,536;  179,735;33655,822;20,45580
 359,60; 7024,229;  192,972;33552,540;20,47765
 360,19; 7037,110;  212,056;33467,315;20,52323
 360,78; 6995,507;  191,891;33182,267;20,62303
 361,37; 6968,954;  185,584;32868,620;20,75502
 361,97; 6972,996;  184,662;32884,072;20,75981
 362,56; 6909,556;  183,118;32498,935;20,81469
 363,15; 6993,289;  244,352;32151,436;21,15184
 363,74; 6868,511;  194,347;31857,602;21,07858
 364,34; 6799,073;  206,427;31372,574;21,15323
 364,93; 6719,705;  177,194;30884,883;21,30577
 365,52; 6673,172;  147,199;30457,990;21,53020
 366,11; 6577,398;  177,119;30039,333;21,43270
 366,71; 6505,337;  181,812;29653,306;21,45641
 367,30; 6554,882;  186,738;29277,288;21,89076
 367,89; 6518,573;  221,821;29050,142;21,84224
 368,48; 6475,636;  194,885;28695,076;22,03758
 369,07; 6361,686;  199,587;28183,641;22,02004
 369,67; 6339,303;  216,194;27770,277;22,22215
 370,26; 6239,427;  179,818;27525,192;22,15954
 370,85; 6232,310;  183,045;27267,402;22,33490
 371,44; 6205,902;  204,893;26926,466;22,45754
 372,03; 6173,243;  155,350;26684,008;22,68450
 372,63; 6130,145;  163,123;26347,866;22,78816
 373,22; 6075,283;  176,663;25951,941;22,88479
 373,81; 6023,525;  170,045;25679,506;22,94631
 374,40; 6007,951;  181,438;25331,197;23,16727
 374,99; 5974,133;  181,429;25017,957;23,32333
 375,59; 5957,670;  171,591;24667,551;23,62054
 376,18; 5983,505;  214,814;24477,788;23,77570
 376,77; 5953,859;  198,816;24274,139;23,90432
 377,36; 6016,648;  225,661;24175,791;24,17936
 377,95; 5921,847;  205,197;23865,011;24,16186
 378,55; 5903,829;  181,974;23670,094;24,36063
 379,14; 5937,709;  198,584;23579,434;24,54627
 379,73; 5963,049;  199,428;23529,562;24,70462
 380,32; 6006,089;  198,508;23496,891;24,92697
 380,91; 6005,347;  169,501;23363,238;25,16130
 381,50; 6055,311;  195,272;23304,673;25,35781
 382,10; 6013,319;  185,816;23232,199;25,28598
 382,69; 6051,739;  159,353;23132,285;25,64926
 383,28; 6104,285;  218,657;23091,643;25,73179
 383,87; 6102,869;  183,349;22871,313;26,09101
 384,46; 6129,908;  167,190;22847,244;26,29058
 385,05; 6174,603;  208,810;22858,623;26,33926
 385,64; 6217,013;  184,735;22839,410;26,62708
 386,24; 6254,167;  173,344;22742,923;26,94256
 386,83; 6364,561;  210,266;22783,134;27,26413
 387,42; 6423,216;  202,504;22935,038;27,36480
 388,01; 6531,235;  196,646;23147,628;27,60052
 388,60; 6673,513;  186,345;23441,571;27,89553
 389,19; 6727,714;  177,101;23666,670;27,88733
 389,78; 6908,124;  191,564;23903,303;28,32589
 390,37; 7146,794;  256,726;24465,949;28,46051
 390,96; 7192,442;  194,882;24627,730;28,63997
 391,56; 7341,375;  196,868;24821,753;29,01336
 392,15; 7406,409;  188,950;25046,924;29,03479
 392,74; 7513,131;  161,783;25236,263;29,31805
 393,33; 7675,508;  188,406;25643,710;29,41274
 393,92; 7903,362;  194,624;26056,842;29,80695
 394,51; 7975,090;  169,251;26286,286;29,88792
 395,10; 8189,474;  210,689;26531,558;30,31353
 395,69; 8295,657;  206,306;26640,765;30,60154
 396,28; 8421,641;  212,607;26750,921;30,93276
 396,87; 8538,084;  203,057;26911,697;31,20723
 397,46; 8721,046;  210,742;26980,349;31,79092
 398,06; 8817,749;  233,810;27284,332;31,73299
 398,65; 8894,794;  208,403;27317,647;32,04217
 399,24; 9111,780;  220,553;27584,578;32,49240
 399,83; 9137,008;  190,904;27527,511;32,72573
 400,42; 9319,154;  237,182;27677,659;33,09699
 401,01; 9415,975;  212,379;27835,164;33,31886
 401,60; 9484,805;  217,717;27768,416;33,63649
 402,19; 9567,378;  248,835;27762,789;33,86843
 402,78; 9629,149;  247,547;27893,063;33,93535
 403,37; 9612,387;  234,801;27638,610;34,22001
 403,96; 9633,930;  238,585;27506,740;34,45538
 404,55; 9680,499;  249,438;27387,643;34,75197
 405,14; 9643,852;  223,990;27224,622;34,88756
 405,73; 9689,652;  238,761;27159,643;35,10617
 406,32; 9716,714;  243,788;27038,260;35,35403
 406,91; 9664,968;  246,346;26692,896;35,61380
 407,50; 9728,852;  248,547;26492,868;36,12326
 408,09; 9685,642;  218,910;26199,863;36,43720
 408,68; 9631,399;  232,895;26081,519;36,35978
 409,27; 9624,565;  218,453;25850,515;36,69667
 409,86; 9640,635;  229,344;25690,972;36,96265
 410,45; 9720,795;  282,075;25648,265;37,20985
 411,04; 9779,377;  269,037;25560,881;37,60240
 411,63; 9656,349;  250,780;25219,244;37,66979
 412,22; 9604,087;  251,595;24982,074;37,81768
 412,81; 9549,293;  264,919;24674,605;38,03561
 413,40; 9484,808;  278,170;24339,823;38,26270
 413,99; 9476,040;  326,625;23914,045;38,78938
 414,58; 9303,054;  237,937;23563,499;38,86344
 415,17; 9246,509;  257,688;23243,803;39,10544
 415,76; 9181,768;  247,055;23069,934;39,14805
 416,35; 9163,924;  241,910;22787,273;39,57361
 416,94; 9238,396;  269,059;22851,293;39,71855
 417,53; 9348,104;  247,228;23048,903;39,91319
 418,12; 9391,733;  251,309;23214,972;39,80386
 418,71; 9538,489;  281,248;23668,748;39,58200
 419,30; 9650,960;  246,157;23696,754;40,10475
 419,89; 9767,170;  240,776;23882,689;40,29452
 420,48; 9940,183;  275,709;24266,150;40,28468
 421,07;10021,885;  264,713;24381,782;40,45754
 421,66; 9989,091;  229,953;24349,998;40,46070
 422,25; 9976,864;  257,894;24381,351;40,28846
 422,84;10111,429;  278,667;24347,434;40,85278
 423,43; 9945,343;  261,967;24039,535;40,72484
 424,02; 9907,814;  289,817;23843,936;40,83361
 424,60; 9696,090;  250,685;23329,884;40,92605
 425,19; 9566,365;  258,597;22947,244;41,02390
 425,78; 9588,112;  275,752;22860,788;41,23243
 426,37; 9509,813;  271,298;22636,995;41,30663
 426,96; 9483,030;  255,760;22590,193;41,31410
 427,55; 9431,685;  259,464;22413,767;41,40153
 428,14; 9306,862;  243,085;22078,248;41,51000
 428,73; 9295,359;  259,998;21867,954;41,81498
 429,32; 9231,051;  269,528;21912,478;41,40620
 429,91; 9318,656;  291,383;21806,341;41,95812
 430,50; 9259,716;  268,159;21717,530;41,91991
 431,08; 9183,206;  294,473;21541,004;41,83616
 431,67; 9184,863;  322,325;21464,263;41,91923
 432,26; 9178,763;  365,099;21224,997;42,25171
 432,85; 9042,566;  366,713;20868,758;42,31701
 433,44; 8938,610;  387,414;20449,869;42,62288
 434,03; 8789,059;  409,194;20023,224;42,72383
 434,62; 8513,076;  354,414;19582,767;42,43037
 435,21; 8528,404;  359,253;19360,026;42,99378
 435,79; 8482,875;  364,267;19146,797;43,22425
 436,38; 8424,983;  352,047;19019,882;43,24517
 436,97; 8387,641;  354,895;18943,334;43,21366
 437,56; 8307,280;  358,835;18708,895;43,31564
 438,15; 8279,912;  325,446;18620,754;43,47817
 438,74; 8307,308;  341,524;18609,894;43,60424
 439,33; 8327,554;  315,445;18619,801;43,77160
 439,91; 8323,483;  268,606;18672,050;43,76831
 440,50; 8351,765;  326,376;18766,482;43,52138
 441,09; 8467,785;  321,540;18860,811;43,94048
 441,68; 8426,100;  308,934;18768,741;43,97210
 442,27; 8413,963;  282,776;18831,541;43,83681
 442,86; 8405,709;  281,335;18802,067;43,86638
 443,44; 8492,988;  284,562;18914,410;44,06062
 444,03; 8586,712;  358,567;18959,563;44,23497
 444,62; 8482,235;  284,566;18818,667;44,23019
 445,21; 8369,987;  304,256;18614,073;44,05140
 445,80; 8416,313;  340,037;18553,912;44,34134
 446,39; 8387,499;  365,804;18230,809;44,90172
 446,97; 8128,528;  290,509;18002,232;44,25328
 447,56; 8072,103;  295,827;17707,859;44,66036
 448,15; 7986,296;  290,124;17577,138;44,51996
 448,74; 7893,289;  307,972;17227,962;44,83051
 449,33; 7862,291;  284,671;17052,543;45,19130
 449,91; 7763,632;  298,682;16846,722;45,11078
 450,50; 7635,477;  278,065;16616,503;45,03131
 451,09; 7642,210;  302,451;16500,784;45,31182
 451,68; 7620,919;  324,147;16340,042;45,55956
 452,26; 7547,753;  322,306;16271,619;45,30256
 452,85; 7492,948;  300,996;16153,248;45,36864
 453,44; 7512,499;  325,626;16163,362;45,37816
 454,03; 7509,945;  287,002;16123,239;45,61023
 454,61; 7453,275;  287,858;16013,449;45,56533
 455,20; 7582,834;  313,940;16205,588;45,74034
 455,79; 7619,894;  318,084;16290,217;45,71593
 456,38; 7645,014;  319,948;16385,324;45,59536
 456,97; 7661,012;  301,637;16439,548;45,60302
 457,55; 7635,226;  306,336;16427,891;45,46019
 458,14; 7615,659;  335,405;16460,830;45,14767
 458,73; 7579,695;  312,568;16309,517;45,42820
 459,31; 7672,236;  346,808;16355,856;45,75805
 459,90; 7709,308;  360,880;16477,998;45,59394
 460,49; 7742,181;  418,877;16571,056;45,33942
 461,08; 7750,375;  318,043;16643,015;45,52738
 461,66; 7727,463;  318,269;16744,052;45,10710
 462,25; 7830,050;  321,201;16797,523;45,57358
 462,84; 7832,536;  350,583;16858,948;45,32220
 463,43; 7771,721;  291,365;16859,773;45,14831
 464,01; 7803,274;  327,369;16865,551;45,20391
 464,60; 7821,281;  373,054;16816,779;45,29525
 465,19; 7642,416;  305,064;16516,141;45,26135
 465,77; 7641,712;  313,531;16582,103;45,04502
 466,36; 7643,659;  346,750;16386,592;45,49240
 466,95; 7462,560;  319,674;16039,136;45,43976
 467,53; 7311,090;  327,844;15681,118;45,48376
 468,12; 7227,761;  359,615;15391,526;45,69044
 468,71; 7106,993;  326,373;15167,250;45,68881
 469,29; 6963,616;  304,308;14864,015;45,73793
 469,88; 6840,814;  319,158;14561,858;45,78946
 470,47; 6900,011;  379,705;14682,200;45,58859
 471,06; 6858,491;  341,090;14661,746;45,51050
 471,64; 6925,197;  345,472;14733,635;45,73013
 472,23; 6869,716;  300,874;14725,544;45,53894
 472,81; 6949,967;  310,020;14898,880;45,51382
 473,40; 7002,611;  323,797;15009,018;45,47983
 473,99; 7172,642;  431,336;15281,733;45,39479
 474,57; 7159,515;  331,028;15366,241;45,41663
 475,16; 7221,934;  346,252;15525,042;45,29796
 475,75; 7261,652;  368,649;15666,045;45,05997
 476,33; 7286,315;  369,810;15732,989;45,02001
 476,92; 7295,944;  356,260;15814,728;44,89244
 477,51; 7335,647;  357,499;15907,107;44,87668
 478,09; 7319,095;  355,346;15916,459;44,75097
 478,68; 7318,390;  362,733;15812,664;45,02064
 479,27; 7322,655;  385,650;15952,003;44,56410
 479,85; 7279,541;  348,271;15827,937;44,77662
 480,44; 7298,380;  344,428;15987,655;44,45343
 481,02; 7804,621;  364,818;17333,660;43,84390
 481,61; 8743,972;  377,431;19714,478;43,26690
 482,20; 9215,007;  373,972;21052,524;42,75461
 482,78; 9680,755;  396,734;22081,012;42,81453
 483,37; 9843,962;  395,135;22762,560;42,24370
 483,95;10010,928;  430,599;22964,722;42,51477
 484,54;10066,964;  433,199;23253,698;42,21540
 485,13;10016,534;  399,298;23122,537;42,32335
 485,71; 9893,085;  370,142;22961,640;42,15277
 486,30; 9792,455;  421,065;22592,300;42,26824
 486,88; 9655,885;  475,529;22254,018;42,15332
 487,47; 9263,083;  441,146;21403,198;42,08527
 488,05; 8911,783;  428,457;20438,197;42,39599
 488,64; 8382,785;  412,233;19075,317;42,70758
 489,23; 7559,688;  448,305;17056,793;42,81777
 489,81; 6610,457;  431,230;14535,918;43,80974
 490,40; 6224,452;  391,001;13746,606;43,67792
 490,98; 6112,780;  372,927;13490,697;43,75632
 491,57; 6065,418;  397,998;13358,578;43,72814
 492,15; 6023,142;  372,620;13216,472;43,99398
 492,74; 5924,634;  382,458;13144,172;43,42815
 493,32; 5892,253;  406,618;13104,771;43,20025
 493,91; 5849,412;  372,701;12964,108;43,49563
 494,50; 5816,205;  382,097;12862,461;43,54126
 495,08; 5761,447;  373,404;12774,074;43,44961
 495,67; 5743,789;  377,776;12767,867;43,30891
 496,25; 5652,422;  338,629;12740,037;42,84831
 496,84; 5621,355;  338,007;12708,145;42,71050
 497,42; 5545,085;  341,401;12638,328;42,31695
 498,01; 5558,243;  358,162;12521,136;42,75337
 498,59; 5480,785;  321,248;12429,800;42,61068
 499,18; 5451,002;  316,778;12366,233;42,60960
 499,76; 5442,885;  353,014;12303,516;42,59128
 500,35; 5314,888;  338,100;12079,470;42,38677
 500,93; 5250,144;  337,093;12013,090;42,07821
 501,52; 5219,937;  315,017;11935,706;42,20852
 502,10; 5216,168;  337,797;11927,614;42,09187
 502,69; 5096,582;  308,186;11716,502;41,97286
 503,27; 5005,839;  294,790;11475,700;42,13475
 503,86; 4969,677;  324,954;11438,905;41,79183
 504,44; 4906,952;  294,958;11287,979;41,95384
 505,03; 4766,891;  289,958;11053,183;41,59472
 505,61; 4737,171;  304,956;10931,532;41,70878
 506,19; 4667,057;  315,419;10718,890;41,82872
 506,78; 4558,105;  285,966;10464,283;41,97294
 507,36; 4460,024;  309,957;10296,927;41,55482
 507,95; 4394,502;  311,740;10161,181;41,45172
 508,53; 4351,473;  299,274; 9978,139;41,86647
 509,12; 4254,139;  312,123; 9867,696;41,25358
 509,70; 4248,692;  325,740; 9678,871;41,94266
 510,29; 4154,169;  337,360; 9470,265;41,79184
 510,87; 4033,441;  294,197; 9288,886;41,57169
 511,46; 3945,378;  296,660; 9110,736;41,39649
 512,04; 3885,195;  304,511; 8952,708;41,40382
 512,62; 3836,748;  314,276; 8767,473;41,67030
 513,21; 3726,572;  294,437; 8630,503;41,17212
 513,79; 3655,976;  301,451; 8491,100;40,96055
 514,38; 3571,604;  277,446; 8276,924;41,17966
 514,96; 3568,983;  327,446; 8199,239;41,17915
 515,54; 3453,866;  279,295; 8031,149;40,95241
 516,13; 3434,226;  302,603; 7921,444;41,10367
 516,71; 3338,805;  298,301; 7784,378;40,61545
 517,30; 3302,347;  290,537; 7676,005;40,78022
 517,88; 3270,360;  304,767; 7570,020;40,81885
 518,46; 3188,686;  286,539; 7422,922;40,66691
 519,05; 3158,852;  293,774; 7412,589;40,24656
 519,63; 3116,622;  302,695; 7289,617;40,27420
 520,22; 3105,912;  315,242; 7211,547;40,46616
 520,80; 3075,287;  288,704; 7164,413;40,52793
 521,38; 3080,365;  338,005; 7157,098;40,21590
 521,97; 3009,992;  279,324; 7074,849;40,18332
 522,55; 2989,714;  306,862; 7048,777;39,79362
 523,13; 2968,336;  293,711; 7019,990;39,76381
 523,72; 2948,160;  297,385; 6998,783;39,55555
 524,30; 3022,469;  325,176; 7133,770;39,61600
 524,89; 2953,751;  278,170; 7138,946;38,99822
 525,47; 3009,958;  297,255; 7264,267;38,93639
 526,05; 3010,796;  264,487; 7333,844;38,84808
 526,64; 3058,398;  305,335; 7460,569;38,47621
 527,22; 3097,803;  309,562; 7560,942;38,45117
 527,80; 3131,902;  344,027; 7740,589;37,69150
 528,39; 3115,324;  295,492; 7772,747;37,71214
 528,97; 3156,835;  296,798; 7954,480;37,34860
 529,55; 3223,675;  321,096; 8083,012;37,39513
 530,14; 3299,617;  330,417; 8333,147;37,10234
 530,72; 3303,590;  293,644; 8490,141;36,72235
 531,30; 3319,607;  287,726; 8630,475;36,34152
 531,89; 3387,499;  313,187; 8692,068;36,69120
 532,47; 3443,898;  338,035; 8823,397;36,60260
 533,05; 3447,993;  326,642; 8809,544;36,79579
 533,63; 3422,091;  334,113; 8917,583;35,97587
 534,22; 3430,600;  299,114; 8954,348;36,18026
 534,80; 3441,795;  334,350; 9017,298;35,78790
 535,38; 3572,337;  424,265; 9164,644;36,01757
 535,97; 3457,146;  320,882; 9102,002;35,71600
 536,55; 3503,109;  384,043; 9186,753;35,43301
 537,13; 3455,496;  379,956; 9140,418;35,10705
 537,71; 3518,429;  430,263; 9176,936;35,30675
 538,30; 3555,784;  462,270; 9290,418;35,04149
 538,88; 3552,771;  502,356; 9416,092;34,22151
 539,46; 3665,056;  566,350; 9652,534;34,10349
 540,05; 3683,864;  580,738; 9772,863;33,75853
 540,63; 3769,974;  625,046; 9942,134;33,75441
 541,21; 3814,707;  677,819;10113,095;33,24638
 541,79; 3869,599;  717,050;10281,765;32,96020
 542,38; 3948,951;  761,045;10444,689;32,92052
 542,96; 4001,864;  761,208;10577,167;33,01415
 543,54; 4092,733;  785,280;10800,663;33,02373
 544,12; 4076,314;  760,589;10923,979;32,62420
 544,70; 4073,744;  738,593;11123,609;32,11503
 545,29; 4149,414;  746,968;11267,168;32,34203
 545,87; 4128,137;  729,665;11244,150;32,32181
 546,45; 4070,579;  675,660;11262,704;32,06673
 547,03; 4088,108;  640,894;11381,789;32,09429
 547,62; 4091,311;  598,743;11496,637;32,04811
 548,20; 4150,120;  612,592;11674,966;31,97802
 548,78; 4114,127;  562,835;11793,192;31,62226
 549,36; 4159,611;  519,526;12014,494;31,66677
 549,94; 4142,369;  472,129;12145,369;31,44148
 550,53; 4194,336;  474,909;12398,853;31,19293
 551,11; 4240,297;  443,760;12561,077;31,33150
 551,69; 4321,717;  469,603;12876,559;31,04802
 552,27; 4352,886;  411,137;13100,879;31,06249
 552,85; 4462,235;  413,529;13537,801;30,84899
 553,44; 4530,869;  412,679;13849,157;30,64933
 554,02; 4633,298;  421,451;14228,259;30,50558
 554,60; 4631,734;  371,223;14466,355;30,22682
 555,18; 4789,041;  397,834;14897,933;30,28398
 555,76; 4863,468;  384,912;15322,232;29,98232
 556,34; 4940,488;  391,304;15682,821;29,74973
 556,93; 5033,506;  361,373;16088,353;29,70776
 557,51; 5088,582;  354,304;16468,350;29,37982
 558,09; 5176,151;  381,219;16808,743;29,18841
 558,67; 5289,424;  368,462;17224,180;29,19461
 559,25; 5347,993;  387,844;17472,060;29,03352
 559,83; 5430,691;  374,542;17839,166;28,95080
 560,41; 5459,001;  365,379;18235,187;28,50406
 561,00; 5570,917;  376,308;18626,049;28,46401
 561,58; 5611,690;  352,994;18796,229;28,51287
 562,16; 5675,114;  347,530;19164,918;28,31203
 562,74; 5727,038;  339,066;19555,485;28,03837
 563,32; 5847,474;  343,926;20050,506;27,92746
 563,90; 5937,516;  360,539;20411,537;27,81396
 564,48; 6000,282;  370,378;20854,554;27,48416
 565,06; 6174,619;  372,384;21477,336;27,49229
 565,65; 6308,885;  353,624;22233,407;27,21810
 566,23; 6520,656;  412,001;23021,505;27,01809
 566,81; 6663,853;  351,383;23763,861;26,96199
 567,39; 6901,978;  360,928;24679,805;26,89701
 567,97; 7078,707;  384,230;25464,026;26,69271
 568,55; 7258,118;  413,464;26378,032;26,36152
 569,13; 7399,212;  354,232;27136,111;26,30503
 569,71; 7646,974;  345,683;28132,950;26,27567
 570,29; 7959,581;  409,065;29246,951;26,18263
 570,87; 8140,474;  387,451;29999,379;26,18209
 571,45; 8223,452;  389,077;30668,475;25,87362
 572,03; 8295,371;  353,544;31270,987;25,68721
 572,61; 8480,963;  341,618;31978,938;25,72704
 573,20; 8641,246;  373,228;32704,824;25,57257
 573,78; 8788,798;  375,234;33318,171;25,53981
 574,36; 8871,987;  381,386;33938,719;25,30177
 574,94; 9029,226;  445,700;34388,861;25,28794
 575,52; 8934,757;  385,861;34576,077;25,00392
 576,10; 9138,782;  442,012;35242,734;24,99020
 576,68; 9195,324;  424,544;35783,530;24,80495
 577,26; 9417,025;  449,787;36541,774;24,84551
 577,84; 9463,575;  453,694;37055,134;24,61619
 578,42; 9568,225;  513,240;37331,755;24,59356
 579,00; 9510,429;  448,542;37584,759;24,40175
 579,58; 9566,151;  497,623;37754,647;24,34045
 580,16; 9517,033;  462,395;37776,249;24,26616
 580,74; 9539,330;  469,165;38010,867;24,16024
 581,32; 9515,573;  474,239;38026,355;24,07676
 581,90; 9413,878;  497,626;38043,001;23,74794
 582,48; 9445,895;  494,857;38099,453;23,80304
 583,06; 9455,953;  488,238;38198,764;23,78040
 583,64; 9462,426;  491,546;38382,838;23,67531
 584,22; 9367,229;  504,016;38075,661;23,59016
 584,80; 9188,550;  508,317;37821,207;23,26336
 585,38; 9091,193;  514,919;37327,143;23,29735
 585,96; 9045,468;  481,851;37420,177;23,18355
 586,54; 9012,804;  501,400;37307,996;23,12467
 587,12; 8934,708;  463,628;37530,769;22,85334
 587,70; 8996,303;  510,928;37611,641;22,87119
 588,28; 8898,260;  477,858;37629,493;22,66496
 588,86; 8914,533;  482,167;37745,176;22,62932
 589,44; 8884,958;  469,022;37772,098;22,56097
 590,02; 8899,113;  466,558;38029,588;22,44908
 590,59; 8836,802;  438,476;38154,901;22,26703
 591,17; 8879,537;  446,722;38353,173;22,24638
 591,75; 8815,641;  434,948;38433,722;22,05517
 592,33; 8842,041;  463,945;38675,014;21,92583
 592,91; 8872,646;  404,566;38865,378;22,01742
 593,49; 8919,519;  426,185;39257,308;21,87249
 594,07; 8947,441;  432,031;39491,060;21,80139
 594,65; 8888,147;  448,477;39415,532;21,65848
 595,23; 8932,541;  436,327;39822,395;21,57162
 595,81; 8950,955;  418,021;39951,678;21,58397
 596,39; 8926,374;  415,022;40133,813;21,42903
 596,97; 8912,153;  411,951;40303,587;21,30823
 597,55; 8805,253;  415,787;40272,969;21,04882
 598,12; 8801,779;  379,879;40227,054;21,13550
 598,70; 8751,164;  384,183;40374,478;20,92253
 599,28; 8799,826;  417,260;40522,243;20,90156
 599,86; 8755,622;  410,413;40465,982;20,83408
 600,44; 8706,945;  372,800;40589,695;20,72299
 601,02; 8786,179;  424,194;40739,744;20,74134
 601,60; 8677,181;  399,794;40707,509;20,53549
 602,18; 8608,206;  372,725;40657,689;20,44306
 602,75; 8592,659;  390,405;40810,676;20,29243
 603,33; 8575,627;  387,260;40826,496;20,24857
 603,91; 8543,355;  379,267;40766,288;20,21463
 604,49; 8491,460;  399,645;40918,327;19,97058
 605,07; 8482,886;  419,640;40854,908;19,94112
 605,65; 8483,274;  427,108;40968,815;19,87130
 606,23; 8482,842;  485,860;41130,809;19,67522
 606,80; 8427,781;  547,482;41160,884;19,40320
 607,38; 8372,131;  598,574;41169,156;19,16058
 607,96; 8458,933;  675,559;41200,713;19,20628
 608,54; 8410,320;  731,878;41337,331;18,90988
 609,12; 8382,136;  752,867;41435,725;18,75303
 609,70; 8370,574;  801,028;41419,969;18,63551
 610,27; 8359,343;  805,635;41394,050;18,61050
 610,85; 8356,340;  828,720;41554,473;18,48368
 611,43; 8254,917;  820,875;41544,044;18,25507
 612,01; 8177,880;  795,024;41166,761;18,28719
 612,59; 8179,327;  782,567;41314,227;18,24934
 613,16; 8102,029;  749,093;41198,453;18,17813
 613,74; 8029,981;  710,029;41053,414;18,14412
 614,32; 7989,676;  671,416;41145,959;18,08114
 614,90; 7904,711;  608,410;40921,085;18,09927
 615,48; 7788,577;  537,787;40466,942;18,15914
 616,05; 7737,838;  515,477;40556,976;18,03719
 616,63; 7663,946;  515,783;40369,471;17,93601
 617,21; 7661,789;  502,943;40301,616;17,98765
 617,79; 7592,975;  471,637;40150,627;17,94738
 618,36; 7544,239;  494,947;40059,040;17,81740
 618,94; 7438,843;  419,788;39722,709;17,85886
 619,52; 7385,660;  460,630;39491,591;17,74240
 620,10; 7221,983;  427,636;39463,743;17,40529
 620,67; 7234,685;  452,013;39260,159;17,47744
 621,25; 7191,088;  457,640;39178,536;17,38970
 621,83; 7132,474;  445,249;39091,913;17,30350
 622,41; 7183,240;  472,710;38960,724;17,43538
 622,98; 7028,637;  433,013;38660,377;17,25367
 623,56; 6950,353;  445,858;38758,773;16,97729
 624,14; 6943,657;  422,642;38592,299;17,08429
 624,72; 6857,642;  413,403;38498,176;16,92078
 625,29; 6870,015;  401,705;38672,999;16,90121
 625,87; 6878,699;  452,253;38624,572;16,83536
 626,45; 6734,036;  400,857;38355,438;16,68621
 627,02; 6700,287;  411,022;38241,987;16,62465
 627,60; 6682,174;  391,492;38177,062;16,64837
 628,18; 6625,520;  375,482;38304,341;16,47832
 628,76; 6621,933;  377,321;38278,995;16,47582
 629,33; 6615,153;  398,017;38256,602;16,42200
 629,91; 6584,906;  393,636;38332,358;16,31913
 630,49; 6581,683;  402,169;38344,343;16,28666
 631,06; 6569,014;  391,014;38561,355;16,18534
 631,64; 6557,410;  399,781;38570,518;16,13181
 632,22; 6479,127;  356,547;38450,251;16,07242
 632,79; 6532,097;  386,085;38721,784;16,03208
 633,37; 6465,205;  366,409;38772,136;15,87991
 633,95; 6491,080;  380,549;38718,244;15,93870
 634,52; 6455,487;  344,710;38943,543;15,83151
 635,10; 6502,624;  357,482;38921,926;15,93474
 635,68; 6484,450;  353,393;39211,839;15,77793
 636,25; 6417,080;  339,696;39104,527;15,67757
 636,83; 6436,472;  334,244;39427,610;15,60937
 637,41; 6425,134;  345,930;39291,272;15,60958
 637,98; 6470,715;  369,699;39619,369;15,54412
 638,56; 6437,823;  350,541;39736,047;15,45564
 639,13; 6393,572;  337,628;39806,545;15,34358
 639,71; 6498,785;  402,091;39826,373;15,46431
 640,29; 6318,488;  312,168;39716,869;15,24265
 640,86; 6372,733;  323,861;39894,696;15,28619
 641,44; 6321,132;  330,477;39943,908;15,12279
 642,02; 6314,608;  357,015;39948,428;15,04769
 642,59; 6305,392;  334,169;40035,178;15,04048
 643,17; 6275,329;  331,016;40039,313;14,96995
 643,74; 6267,574;  328,862;40171,987;14,90524
 644,32; 6247,896;  359,862;40031,352;14,84198
 644,89; 6238,911;  357,016;39901,795;14,87401
 645,47; 6213,156;  367,401;40017,007;14,74354
 646,05; 6172,401;  366,017;39912,373;14,68247
 646,62; 6108,184;  340,017;39976,892;14,55253
 647,20; 6139,122;  348,479;40112,874;14,56238
 647,77; 6054,367;  320,633;39946,778;14,46957
 648,35; 6004,381;  318,864;39738,682;14,42299
 648,92; 6016,703;  336,249;39838,663;14,38002
 649,50; 5972,333;  310,172;39786,567;14,34315
 650,08; 5925,039;  320,557;39662,395;14,24560
 650,65; 5931,669;  317,250;39898,145;14,18467
 651,23; 6009,453;  300,635;40709,588;14,12761
 651,80; 6148,852;  300,635;41761,877;14,10526
 652,38; 6222,481;  324,558;42164,704;14,09633
 652,95; 6269,880;  295,789;42632,531;14,11089
 653,53; 6296,048;  322,251;42930,436;14,02030
 654,10; 6357,755;  365,636;43113,955;14,01720
 654,68; 6282,154;  300,867;42913,706;14,03635
 655,25; 6295,553;  307,252;43032,456;14,01585
 655,83; 6213,182;  304,098;43190,129;13,77858
 656,40; 6306,812;  322,637;43142,111;13,97536
 656,98; 6263,057;  318,945;43018,092;13,92092
 657,55; 6208,841;  309,714;42845,611;13,86858
 658,13; 6153,701;  309,791;42472,900;13,86024
 658,70; 6113,946;  327,099;42161,958;13,83260
 659,28; 5955,114;  322,253;41234,632;13,76811
 659,85; 5846,206;  343,254;40317,075;13,76639
 660,43; 5829,374;  345,869;40357,133;13,70490
 661,00; 5833,081;  326,562;40518,191;13,70066
 661,58; 5861,787;  316,562;40828,941;13,68773
 662,15; 5877,801;  299,408;40983,230;13,71158
 662,73; 5977,200;  377,716;41372,980;13,65886
 663,30; 5919,292;  311,486;41576,731;13,58966
 663,88; 5931,998;  331,409;41704,558;13,53677
 664,45; 5945,243;  306,871;41859,309;13,56929
 665,03; 6009,104;  324,410;42232,367;13,56471
 665,60; 6164,195;  415,487;42783,963;13,56836
 666,17; 6062,594;  316,564;42807,406;13,52298
 666,75; 6087,685;  313,564;43193,464;13,46580
 667,32; 6142,930;  340,488;43441,368;13,46247
 667,90; 6201,021;  325,642;43905,888;13,48175
 668,47; 6191,343;  345,103;44130,177;13,35213
 669,05; 6250,512;  317,027;44485,158;13,43386
 669,62; 6234,680;  291,565;44558,216;13,42571
 670,19; 6252,309;  288,104;44634,351;13,44918
 670,77; 6277,939;  313,951;44841,332;13,39398
 671,34; 6270,492;  306,643;44754,544;13,41762
 671,92; 6283,660;  294,874;45131,525;13,35690
 672,49; 6307,674;  322,105;45166,353;13,34746
 673,06; 6301,612;  268,490;45249,334;13,41265
 673,64; 6296,857;  302,952;45140,161;13,36815
 674,21; 6272,410;  289,491;45045,527;13,36785
 674,79; 6365,962;  323,568;45349,893;13,41969
 675,36; 6356,054;  323,953;45390,720;13,38481
 675,93; 6330,760;  290,337;45408,470;13,38802
 676,51; 6367,852;  316,491;45568,759;13,37250
 677,08; 6347,635;  318,876;45659,279;13,29666
 677,65; 6431,034;  317,415;45807,183;13,43955
 678,23; 6426,279;  302,877;46022,780;13,39330
 678,80; 6446,909;  307,108;46030,530;13,42813
 679,38; 6471,923;  305,185;46184,434;13,44124
 679,95; 6530,014;  323,031;46395,185;13,47231
 680,52; 6563,182;  302,032;46786,704;13,46928
 681,10; 6615,120;  318,032;47129,070;13,45214
 681,67; 6647,903;  316,417;47439,205;13,43615
 682,24; 6645,302;  291,340;47425,109;13,48070
 682,82; 6731,470;  301,033;48114,937;13,44889
 683,39; 6830,946;  344,494;48527,072;13,46224
 683,96; 6836,807;  306,033;48747,822;13,48169
 684,54; 6874,283;  282,495;49060,803;13,51377
 685,11; 6941,682;  337,726;49360,169;13,47129
 685,68; 6954,388;  301,265;49795,766;13,44215
 686,25; 6949,633;  285,342;49890,978;13,43455
 686,83; 7028,801;  290,957;50080,882;13,53255
 687,40; 7092,970;  278,958;50513,940;13,56428
 687,97; 7189,907;  335,496;50846,844;13,57004
 688,55; 7154,691;  279,650;50880,748;13,58674
 689,12; 7181,859;  273,112;51153,729;13,57835
 689,69; 7217,950;  286,959;51219,865;13,60808
 690,26; 7250,426;  288,959;51368,000;13,62881
 690,84; 7309,594;  294,267;51612,058;13,67036
 691,41; 7339,608;  312,729;51610,193;13,69830
 691,98; 7418,084;  304,883;51946,020;13,77429
 692,56; 7397,021;  294,191;52029,617;13,72914
 693,13; 7480,113;  344,499;52126,752;13,78004
 693,70; 7506,050;  317,960;52271,348;13,83565
 694,27; 7524,987;  292,191;52377,022;13,88657
 694,84; 7522,540;  283,345;52627,849;13,82990
 695,42; 7582,862;  358,423;52537,599;13,84545
 695,99; 7577,953;  313,192;52812,811;13,83774
 696,56; 7598,506;  305,039;52635,485;13,93733
 697,13; 7694,059;  325,346;53021,543;13,98339
 697,71; 7644,073;  300,193;53194,447;13,88408
 698,28; 7735,780;  297,732;53457,274;13,99193
 698,85; 7725,640;  270,116;53464,102;14,01573
 699,42; 7776,732;  270,501;53696,160;14,04986
 699,99; 7869,823;  320,963;53684,987;14,14597
 700,57; 7821,914;  309,579;53846,353;14,03210
 701,14; 7894,082;  297,964;53927,565;14,16404
 701,71; 7954,404;  318,964;54135,315;14,18796
 702,28; 7949,649;  307,349;54182,989;14,18508
 702,85; 8026,510;  310,734;54232,431;14,30922
 703,43; 8060,755;  336,426;54564,874;14,24405
 704,00; 8128,615;  351,503;54703,624;14,30876
 704,57; 8112,553;  333,503;54663,606;14,31812
 705,14; 8171,952;  366,427;55021,741;14,28137
 705,71; 8215,581;  351,812;55013,799;14,38618
 706,28; 8241,442;  322,043;54893,165;14,51207
 706,86; 8306,148;  356,658;55263,223;14,47821
 707,43; 8344,547;  389,197;55096,896;14,54156
 708,00; 8365,331;  364,813;55111,108;14,61381
 708,57; 8311,268;  328,890;55065,858;14,58316
 709,14; 8349,898;  355,736;55208,455;14,57387
 709,71; 8395,989;  338,813;55246,898;14,67393
 710,28; 8491,004;  340,737;55489,956;14,77857
 710,86; 8572,249;  344,122;55641,168;14,87987
 711,43; 8623,417;  363,737;55624,687;14,94668
 712,00; 8602,431;  340,507;55743,361;14,91245
 712,57; 8662,676;  360,199;55809,342;14,97314
 713,14; 8693,306;  335,353;55867,708;15,05060
 713,71; 8696,474;  331,507;55872,997;15,06075
 714,28; 8732,258;  324,508;56002,824;15,10058
 714,85; 8745,349;  312,277;55590,344;15,25573
 715,42; 8770,594;  303,893;55835,940;15,24651
 716,00; 8897,377;  386,585;56035,998;15,29359
 716,57; 8882,546;  300,355;56146,902;15,36745
 717,14; 8901,252;  296,970;56012,191;15,44332
 717,71; 8960,959;  288,201;56080,326;15,54477
 718,28; 9053,435;  337,432;56173,923;15,60987
 718,85; 9014,218;  288,279;56151,750;15,62012
 719,42; 9121,617;  307,818;56427,193;15,70545
 719,99; 9112,016;  289,125;56093,251;15,81046
 720,56; 9204,569;  316,203;56343,617;15,86432
 721,13; 9252,660;  291,664;56560,906;15,92521
 721,70; 9249,444;  299,357;56479,348;15,93109
 722,27; 9321,612;  315,896;56447,560;16,04391
 722,84; 9463,395;  371,127;56606,926;16,16811
 723,41; 9400,256;  290,588;56622,138;16,17152
 723,98; 9460,501;  297,896;56860,735;16,19898
 724,55; 9513,361;  324,281;56918,485;16,23679
 725,12; 9520,299;  251,512;56796,774;16,39180
 725,69; 9585,390;  289,051;57077,140;16,37023
 726,27; 9617,635;  296,590;57087,582;16,41289
 726,84; 9728,803;  313,436;57426,794;16,48540
 727,41; 9754,279;  338,052;57489,929;16,47580
 727,98; 9833,678;  316,744;57737,603;16,57400
 728,55; 9917,538;  346,437;57500,276;16,74621
 729,12; 9916,322;  295,668;57679,180;16,76554
 729,69; 9987,259;  317,745;57808,546;16,81924
 730,26;10030,735;  333,822;58132,450;16,77706
 730,82;10070,596;  304,053;57925,585;16,94947
 731,39;10161,072;  312,284;58041,951;17,06018
 731,96;10237,624;  309,823;58448,779;17,07599
 732,53;10349,946;  328,669;58661,837;17,17938
 733,10;10432,884;  323,823;58635,741;17,33618
 733,67;10448,129;  328,054;58841,568;17,29528
 734,24;10502,143;  310,593;58491,319;17,51706
 734,81;10551,081;  352,516;58693,607;17,48093
 735,38;10537,172;  320,286;58334,742;17,61093
 735,95;10606,109;  320,517;58207,647;17,76836
 736,52;10615,662;  339,902;58423,397;17,69136
 737,09;10624,369;  335,671;58058,686;17,82425
 737,66;10710,691;  376,364;58246,975;17,85764
 738,23;10768,705;  322,595;58314,418;18,01307
 738,80;10882,027;  398,672;58660,937;17,99339
 739,37;10911,580;  359,211;58834,457;18,04587
 739,94;10948,671;  331,980;58848,438;18,14308
 740,51;11123,608;  457,904;58906,111;18,24813
 741,07;11027,007;  326,904;58854,016;18,28230
 741,64;11124,560;  354,904;59132,843;18,32262
 742,21;11191,420;  328,135;59186,363;18,45670
 742,78;11128,819;  304,520;58860,344;18,48544
 743,35;11239,987;  326,751;59209,940;18,53370
 743,92;11441,925;  369,520;59396,614;18,75817
 744,49;11409,247;  361,136;59206,903;18,77469
 745,06;11375,646;  328,675;59118,961;18,79047
 745,63;11430,814;  315,136;59212,327;18,87302
 746,19;11536,213;  329,368;59178,077;19,04349
 746,76;11541,227;  315,060;59189,366;19,06802
 747,33;11611,934;  318,445;59148,501;19,19680
 747,90;11677,025;  342,445;59377,174;19,19985
 748,47;11708,962;  335,215;59260,771;19,30189
 749,04;11820,746;  338,676;59297,137;19,47485
 749,61;11868,991;  361,907;59176,810;19,56491
 750,17;11900,467;  352,523;59399,714;19,55714
 750,74;11933,481;  335,216;59300,619;19,66961
 751,31;11916,496;  310,139;59240,907;19,69490
 751,88;11983,664;  294,601;59138,889;19,86440
 752,45;12101,601;  320,063;59230,024;19,99923
 753,02;12084,385;  350,678;59124,082;19,96431
 753,58;12151,860;  316,678;59082,601;20,13953
 754,15;12248,721;  323,140;59156,044;20,27026
 754,72;12232,735;  317,063;58842,025;20,35998
 755,29;12195,750;  298,910;58758,237;20,35063
 755,86;12271,610;  316,833;58818,372;20,43498
 756,42;12329,701;  316,833;58810,738;20,53696
 756,99;12290,792;  286,218;58738,411;20,53742
 757,56;12381,807;  288,142;58803,162;20,66763
 758,13;12331,744;  232,757;58630,912;20,71810
 758,70;12468,682;  270,911;58731,278;20,86503
 759,26;12502,311;  257,989;58774,490;20,92456
 759,83;12513,941;  265,989;58868,548;20,90003
 760,40;12536,801;  232,681;58704,375;21,04287
 760,97;12601,047;  234,374;58750,203;21,13389
 761,53;12548,522;  224,605;58341,261;21,20548
 762,10;12526,844;  222,913;58241,934;21,20672
 762,67;12651,089;  247,528;58252,146;21,38375
 763,24;12613,335;  214,913;57818,050;21,52386
 763,80;12777,580;  250,760;57981,724;21,69862
 764,37;12783,671;  254,606;57965,090;21,71021
 764,94;12680,224;  245,529;57482,225;21,72504
 765,50;12800,546;  251,684;57604,744;21,88002
 766,07;12874,945;  284,607;57530,187;21,99355
 766,64;12832,420;  261,761;57140,937;22,10064
 767,21;12864,665;  273,838;57176,996;22,12676
 767,77;12900,295;  280,454;56999,131;22,24989
 768,34;12909,386;  301,762;57055,035;22,21480
 768,91;12911,401;  318,300;56858,324;22,27290
 769,47;12985,569;  311,531;56753,613;22,45494
 770,04;13013,737;  306,762;56771,748;22,50417
 770,61;12975,982;  290,609;56396,190;22,60982
 771,18;13007,766;  285,224;56340,248;22,69652
 771,74;13065,242;  301,302;56538,076;22,69679
 772,31;13090,717;  298,840;56210,672;22,87866
 772,88;13049,193;  272,917;56079,807;22,89372
 773,44;13026,823;  273,225;55882,558;22,93428
 774,01;13116,914;  310,533;55919,693;23,02927
 774,58;13109,698;  282,457;55535,135;23,21560
 775,14;13121,789;  275,842;55845,501;23,11684
 775,71;13171,111;  285,919;55677,559;23,26198
 776,27;13259,433;  346,996;55599,002;23,37008
 776,84;13331,832;  398,535;55670,137;23,39953
 777,41;13282,538;  301,150;55439,657;23,54324
 777,97;13290,860;  298,843;55128,176;23,69538
 778,54;13319,106;  304,997;55210,542;23,70272
 779,11;13431,043;  325,228;55243,062;23,86441
 779,67;13422,596;  290,690;55108,274;23,95565
 780,24;13387,302;  297,151;54843,716;23,99812
 780,80;13462,547;  313,921;54847,005;24,11128
 781,37;13568,869;  308,844;54844,525;24,31440
 781,94;13449,345;  292,075;54671,198;24,19544
 782,50;13518,513;  303,537;54516,487;24,37605
 783,07;13593,451;  322,999;54478,391;24,50440
 783,63;13581,004;  279,153;54390,834;24,58222
 784,20;13652,403;  314,769;54270,200;24,71972
 784,77;13610,648;  306,769;54102,796;24,73023
 785,33;13602,047;  272,384;53903,393;24,85439
 785,90;13668,907;  297,077;53778,297;25,00285
 786,46;13659,460;  321,462;53734,201;24,97157
 787,03;13694,782;  278,385;53483,413;25,21641
 787,59;13702,873;  279,001;53492,394;25,22649
 788,16;13687,118;  295,155;53466,683;25,18634
 788,73;13786,286;  290,001;53245,126;25,48627
 789,29;13713,301;  278,309;52894,492;25,53395
 789,86;13694,930;  319,002;52748,088;25,51242
 790,42;13745,483;  295,310;52568,993;25,73030
 790,99;13670,343;  299,771;52310,358;25,70740
 791,55;13716,742;  282,002;52318,724;25,81781
 792,12;13790,064;  320,695;52386,013;25,87014
 792,68;13713,848;  301,157;52024,148;25,93178
 793,25;13694,016;  299,542;51748,437;26,03452
 793,81;13679,030;  386,234;51357,033;26,07924
 794,38;13625,814;  261,158;51107,938;26,28417
 794,94;13697,213;  281,081;51000,842;26,45149
 795,51;13662,996;  307,620;50705,669;26,49979
 796,07;13598,472;  307,004;50507,420;26,47681
 796,64;13763,717;  321,005;50645,632;26,71200
 797,20;13592,655;  290,159;50092,613;26,71052
 797,77;13546,592;  265,928;49761,517;26,83202
 798,33;13490,453;  293,313;49617,806;26,75575
 798,90;13578,698;  317,390;49516,172;26,95454
 799,46;13475,943;  276,698;48859,691;27,16845
 800,03;13458,803;  284,775;48971,442;27,05880
 800,59;13479,971;  323,468;48783,192;27,14936
 801,15;13470,986;  321,391;48491,789;27,29808
 801,72;13383,538;  296,315;48094,001;27,38045
 802,28;13335,322;  324,084;47851,905;27,37605
 802,85;13307,259;  288,930;47575,886;27,53049
 803,41;13305,504;  289,085;47498,021;27,57194
 803,98;13245,903;  288,931;47040,771;27,71436
 804,54;13239,687;  285,162;46674,830;27,92545
 805,11;13241,624;  294,239;46584,195;27,97018
 805,67;13267,331;  311,316;46593,638;27,99344
 806,23;13155,576;  296,393;46081,542;28,08593
 806,80;13134,360;  315,932;45931,677;28,10088
 807,36;13223,220;  314,086;45848,889;28,35004
 807,93;13170,696;  336,394;45595,870;28,35716
 808,49;13114,556;  283,933;45222,852;28,55125
 809,05;13093,263;  279,087;45020,448;28,64056
 809,62;13101,585;  294,010;44972,583;28,66603
 810,18;13107,061;  298,395;44863,103;28,74172
 810,74;13016,383;  262,857;44524,699;28,81382
 811,31;13071,474;  268,242;44358,373;29,03877
 811,87;13100,719;  293,011;44152,046;29,20198
 812,44;13194,118;  312,935;44118,412;29,40542
 813,00;13062,209;  242,319;43858,701;29,39237
 813,56;13147,608;  287,089;43919,144;29,47493
 814,13;13192,315;  284,397;43833,432;29,63996
 814,69;13154,714;  278,551;43654,644;29,68493
 815,25;13033,267;  244,397;43192,779;29,77730
 815,82;13143,204;  289,321;43147,914;29,99138
 816,38;13124,680;  318,167;42990,126;30,01154
 816,94;12995,540;  262,937;42604,800;30,07096
 817,51;12996,555;  246,014;42349,396;30,28389
 818,07;12979,338;  256,014;42045,916;30,44593
 818,63;12981,275;  275,630;41873,436;30,54403
 819,20;12967,290;  266,245;41944,801;30,47381
 819,76;12861,766;  256,399;41441,475;30,60664
 820,32;12955,703;  304,092;41310,533;30,85274
 820,89;12894,410;  287,015;41095,822;30,89381
 821,45;12826,962;  256,631;40794,495;31,00886
 822,01;12809,900;  278,170;40478,553;31,17316
 822,57;12814,222;  279,939;40359,150;31,27378
 823,14;12756,928;  245,247;40150,208;31,35370
 823,70;12730,250;  267,093;39855,728;31,48165
 824,26;12695,803;  255,940;39693,940;31,54284
 824,82;12674,587;  299,402;39626,075;31,46766
 825,39;12592,140;  262,017;39235,287;31,63738
 825,95;12666,385;  269,864;39183,422;31,85656
 826,51;12542,707;  278,633;38870,710;31,77873
 827,08;12620,029;  313,095;38988,384;31,82118
 827,64;12577,735;  295,710;38658,519;32,01545
 828,20;12450,442;  253,172;38377,039;31,99379
 828,76;12563,764;  307,711;38348,327;32,21833
 829,32;12552,470;  294,634;38190,539;32,34607
 829,89;12506,869;  244,635;38065,367;32,42199
 830,45;12610,268;  276,404;38015,502;32,68193
 831,01;12571,436;  260,481;37845,406;32,75504
 831,57;12561,912;  271,404;37624,156;32,90389
 832,14;12603,081;  267,097;37710,599;32,94559
 832,70;12564,403;  257,174;37407,811;33,12791
 833,26;12549,955;  229,944;37299,869;33,23452
 833,82;12600,893;  260,329;37228,312;33,38176
 834,38;12615,984;  245,252;37213,601;33,46304
 834,95;12597,998;  250,867;37046,736;33,55575
 835,51;12651,013;  220,406;36916,948;33,87405
 836,07;12700,719;  267,791;36998,236;33,84911
 836,63;12800,964;  275,022;36999,833;34,10757
 837,19;12801,902;  272,715;36822,430;34,27985
 837,75;12696,377;  236,561;36472,718;34,38504
 838,32;12780,238;  284,946;36590,161;34,41735
 838,88;12815,714;  283,023;36670,527;34,44229
 839,44;12812,651;  276,869;36566,816;34,54340
 840,00;12796,358;  266,254;36430,489;34,64778
 840,56;12707,141;  260,331;36155,240;34,67570
 841,12;12778,617;  239,486;36161,605;34,90644
 841,68;12719,708;  236,409;35952,125;34,95184
 842,25;12758,107;  256,332;35987,337;34,98859
 842,81;12679,506;  236,948;35649,241;35,13627
 843,37;12686,367;  231,640;35706,453;35,10865
 843,93;12734,073;  250,256;35579,127;35,33602
 844,49;12815,318;  273,718;35613,262;35,48886
 845,05;12745,102;  216,487;35393,474;35,61594
 845,61;12838,732;  268,641;35485,839;35,69304
 846,17;12813,977;  243,642;35369,667;35,78639
 846,73;12780,145;  250,026;35271,571;35,77831
 847,29;12754,698;  239,181;35004,783;35,99971
 847,86;12770,250;  245,104;35011,456;36,02663
 848,42;12776,957;  242,643;34765,437;36,30736
 848,98;12777,894;  262,412;34724,496;36,31667
 849,54;12786,832;  253,643;34742,246;36,34009
 850,10;12727,846;  265,797;34517,996;36,38321
 850,66;12729,399;  236,336;34407,208;36,56056
 851,22;12794,490;  231,182;34400,497;36,76781
 851,78;12879,197;  277,490;34418,324;36,91095
 852,34;12829,750;  264,490;34216,998;37,00834
 852,90;12815,918;  237,106;34041,056;37,21107
 853,46;12769,470;  245,799;33860,345;37,25670
 854,02;12838,639;  256,568;33917,018;37,37939
 854,58;12705,268;  256,722;33505,307;37,44083
 855,14;12738,667;  238,338;33525,288;37,55324
 855,70;12686,682;  207,492;33415,039;37,57938
 856,26;12720,542;  252,031;33282,635;37,74836
 856,82;12704,941;  241,031;33141,617;37,88355
 857,38;12729,340;  292,339;33004,444;38,01957
 857,94;12652,431;  255,878;32893,502;37,98240
 858,50;12669,445;  263,570;32755,483;38,18142
 859,06;12620,383;  248,878;32506,080;38,35269
 859,62;12630,166;  259,724;32519,368;38,34649
 860,18;12589,335;  250,340;32376,196;38,40830
 860,74;12492,733;  229,802;32079,946;38,50197
 861,30;12521,825;  227,033;31975,774;38,72529
 861,86;12658,993;  316,187;32026,216;38,92398
 862,42;12543,853;  245,572;31830,428;38,93727
 862,98;12586,252;  276,803;31859,948;38,97474
 863,54;12459,267;  237,342;31497,160;39,09788
 864,10;12544,589;  239,034;31610,141;39,22576
 864,66;12447,834;  224,880;31321,584;39,30627
 865,22;12464,694;  244,342;31234,488;39,43302
 865,78;12429,016;  250,573;31170,238;39,38737
 866,34;12447,107;  231,727;31085,143;39,59166
 866,90;12448,122;  255,574;30876,431;39,81779
 867,45;12434,521;  249,112;30704,182;40,01110
 868,01;12420,381;  253,651;30485,855;40,24427
 868,57;12391,088;  238,036;30324,067;40,39433
 869,13;12299,717;  223,882;30228,433;40,24668
 869,69;12290,655;  239,113;30057,030;40,41711
 870,25;12306,746;  228,883;29990,626;40,58184
 870,81;12359,299;  238,037;29950,376;40,79538
 871,37;12364,236;  268,499;29863,973;40,87023
 871,93;12307,789;  264,730;29639,570;40,99787
 872,49;12248,342;  289,192;29427,166;41,04318
 873,04;12218,894;  232,269;29228,301;41,33885
 873,60;12180,755;  230,807;29150,667;41,32090
 874,16;12138,385;  242,115;29056,879;41,28533
 874,72;12203,385;  235,731;28980,110;41,63476
 875,28;12106,846;  237,731;28893,340;41,41987
 875,84;12179,769;  249,115;28810,417;41,77209
 876,40;12106,231;  242,808;28833,187;41,49446
 876,95;12142,308;  248,038;28684,956;41,82686
 877,51;12150,923;  268,038;28741,571;41,73309
 878,07;12162,077;  285,808;28664,187;41,84971
 878,63;12231,692;  246,346;28737,340;42,06714
 879,19;12208,154;  259,808;28726,956;41,97240
 879,75;12277,769;  229,577;28770,187;42,21421
 880,30;12277,231;  243,269;28768,187;42,18754
 880,86;12375,077;  279,346;28888,187;42,27970
 881,42;12387,923;  229,038;28904,802;42,40126
 881,98;12429,615;  261,115;28898,494;42,49167
 882,54;12499,615;  236,654;29083,725;42,51025
 883,09;12634,923;  255,038;29226,187;42,73177
 883,65;12693,692;  242,423;29270,110;42,89446
 884,21;12817,615;  282,731;29509,033;42,88905
 884,77;12874,538;  233,731;29549,648;43,11926
 885,32;13018,154;  236,192;29678,571;43,41348
 885,88;13191,231;  288,038;29793,187;43,73200
 886,44;13222,000;  254,115;30006,571;43,58593
 887,00;13268,538;  269,269;29921,263;43,83944
 887,56;13389,308;  246,731;30080,879;44,05213
 888,11;13506,385;  249,885;30138,802;44,35256
 888,67;13609,846;  277,654;30316,494;44,38318
 889,23;13652,615;  247,654;30270,417;44,64933
 889,79;13587,538;  241,808;30227,494;44,50700
 890,34;13622,846;  257,423;30135,033;44,73391
 890,90;13770,692;  322,115;30343,340;44,79690
 891,46;13698,846;  241,115;30146,033;45,00173
 892,01;13703,308;  255,423;30155,417;44,97621
 892,57;13732,385;  281,192;30099,340;45,11076
 893,13;13641,769;  247,654;29844,648;45,25499
 893,69;13709,308;  233,423;29838,494;45,51884
 894,24;13687,385;  244,269;29695,417;45,64547
 894,80;13661,538;  248,500;29548,494;45,77830
 895,36;13578,000;  248,731;29467,263;45,61923
 895,91;13526,923;  242,654;29224,110;45,83714
 896,47;13507,769;  260,654;29114,417;45,91122
 897,03;13435,538;  246,654;28924,110;45,99043
 897,58;13402,385;  254,192;28778,187;46,09520
 898,14;13436,923;  253,423;28698,648;46,34697
 898,70;13335,692;  215,269;28459,110;46,45410
 899,25;13373,385;  244,885;28531,802;46,41191
 899,81;13308,923;  250,192;28214,187;46,69837
 900,37;13241,385;  214,654;27953,340;46,96232
 900,92;13231,538;  248,038;28080,956;46,64800
 901,48;13177,077;  236,577;27881,417;46,80982
 902,03;13144,769;  238,346;27766,417;46,88459
 902,59;13115,077;  235,577;27669,802;46,94683
 903,15;13082,154;  253,192;27441,417;47,18573
 903,70;12931,231;  239,115;27252,571;46,98442
 904,26;12934,846;  233,192;27078,263;47,31466
 904,82;12928,077;  235,654;27069,110;47,30074
 905,37;12934,692;  246,808;26941,263;47,53004
 905,93;12801,308;  230,731;26746,648;47,40766
 906,48;12896,462;  253,654;26748,263;47,71841
 907,04;12861,385;  248,808;26615,725;47,83486
 907,60;12799,846;  246,654;26451,263;47,90452
 908,15;12751,000;  217,423;26205,956;48,22734
 908,71;12790,462;  255,654;26253,494;48,21480
 909,26;12679,615;  235,731;26051,340;48,20295
 909,82;12679,846;  247,500;25919,494;48,42766
 910,37;12690,769;  280,885;25889,033;48,46069
 910,93;12617,769;  223,346;25666,110;48,71492
 911,48;12542,615;  225,423;25556,725;48,62440
 912,04;12501,923;  230,269;25385,879;48,78297
 912,60;12530,692;  243,654;25411,187;48,82099
 913,15;12472,231;  244,192;25191,187;49,01608
 913,71;12421,462;  226,038;25009,110;49,20868
 914,26;12426,077;  207,654;24982,187;49,31848
 914,82;12423,462;  233,808;24938,879;49,34070
 915,37;12339,000;  226,577;24800,956;49,28883
 915,93;12351,308;  281,346;24688,956;49,45163
 916,48;12381,385;  220,192;24487,879;50,11270
 917,04;12368,923;  258,269;24466,340;50,02734
 917,59;12412,154;  268,269;24344,110;50,44013
 918,15;12291,769;  203,808;24117,033;50,54927
 918,70;12260,308;  225,346;24020,263;50,57787
 919,26;12298,462;  230,269;23902,802;50,97973
 919,81;12173,077;  224,654;23739,263;50,81276
 920,37;12226,154;  234,038;23688,956;51,12836
 920,92;12228,846;  252,808;23585,802;51,32663
 921,48;12108,000;  228,423;23421,494;51,22037
 922,03;12082,308;  237,577;23409,110;51,11760
 922,59;12117,615;  235,500;23233,417;51,66605
 923,14;12064,538;  222,038;23090,956;51,78426
 923,69;12076,385;  256,962;23011,263;51,94369
 924,25;12065,846;  263,038;22969,956;51,97891
 924,80;11956,692;  233,654;22738,802;52,09047
 925,36;11843,077;  221,192;22737,110;51,61631
 925,91;11864,385;  227,885;22552,187;52,12481
 926,47;11783,154;  208,269;22441,340;52,06156
 927,02;11812,385;  308,346;22397,110;52,08095
 927,57;11721,462;  221,577;22235,571;52,23897
 928,13;11726,692;  214,269;22163,110;52,45117
 928,68;11686,000;  221,423;22072,725;52,46633
 929,24;11526,923;  197,500;21805,879;52,43069
 929,79;11551,385;  215,192;21702,110;52,75858
 930,34;11486,462;  230,654;21651,340;52,54644
 930,90;11453,769;  216,423;21565,494;52,63623
 931,45;11477,308;  233,654;21543,340;52,76311
 932,01;11510,615;  234,808;21374,110;53,34049
 932,56;11468,231;  240,038;21245,340;53,45409
 933,11;11479,385;  251,577;21204,110;53,58688
 933,67;11374,846;  212,346;21073,340;53,50895
 934,22;11349,923;  235,038;20982,494;53,57228
 934,77;11356,231;  253,423;20843,340;53,92352
 935,33;11265,846;  242,346;20720,571;53,83035
 935,88;11280,923;  231,808;20664,802;54,07487
 936,43;11230,923;  219,192;20546,571;54,17192
 936,99;11218,231;  227,731;20466,187;54,30503
 937,54;11118,462;  201,731;20228,187;54,51155
 938,09;11108,308;  233,577;20285,033;54,23412
 938,65;11065,769;  233,654;20099,494;54,52634
 939,20;11035,385;  206,962;19953,263;54,83773
 939,75;10945,000;  209,654;19835,110;54,70113
 940,31;10907,462;  207,500;19826,725;54,53815
 940,86;10942,462;  229,038;19791,494;54,76523
 941,41;10930,000;  318,500;19668,648;54,83937
 941,96;10858,154;  212,731;19607,340;54,88857
 942,52;10779,154;  218,269;19443,879;54,93134
 943,07;10705,077;  207,346;19295,494;54,99607
 943,62;10755,385;  224,115;19169,263;55,58821
 944,18;10710,692;  191,346;19165,263;55,44109
 944,73;10683,923;  228,962;19085,725;55,44409
 945,28;10557,385;  201,577;18843,417;55,55142
 945,83;10525,692;  207,654;18876,340;55,26923
 946,39;10551,000;  208,962;18816,571;55,57962
 946,94;10560,769;  251,038;18726,956;55,80091
 947,49;10498,769;  214,269;18608,033;55,91297
 948,04;10517,231;  266,269;18638,340;55,79644
 948,59;10477,538;  236,192;18466,033;56,17902
 949,15;10451,692;  202,115;18418,417;56,26596
 949,70;10394,231;  215,885;18278,340;56,35084
 950,25;10306,231;  227,731;18187,879;56,11591
 950,80;10262,692;  186,654;18065,494;56,35734
 951,36;10212,692;  189,038;18013,725;56,23467
 951,91;10295,077;  235,577;17995,648;56,64110
 952,46;10167,923;  213,962;17770,956;56,69513
 953,01;10175,615;  238,038;17784,110;56,63705
 953,56;10101,692;  194,654;17578,802;56,98892
 954,11;10131,538;  229,346;17578,648;57,07545
 954,67;10106,769;  207,500;17465,187;57,36151
 955,22;10017,615;  196,654;17353,033;57,24379
 955,77; 9993,615;  233,192;17342,110;57,04875
 956,32; 9979,615;  271,808;17259,879;57,14485
 956,87; 9946,615;  211,269;17057,802;57,78843
 957,42; 9879,769;  214,500;17054,340;57,39525
 957,98; 9866,000;  207,654;16927,725;57,76498
 958,53; 9825,923;  248,577;16912,263;57,47435
 959,08; 9753,769;  203,423;16808,494;57,51464
 959,63; 9717,000;  207,192;16637,571;57,87942
 960,18; 9748,769;  234,192;16604,110;58,12233
 960,73; 9681,769;  229,115;16584,340;57,79593
 961,28; 9605,769;  201,038;16439,340;57,91696
 961,83; 9666,462;  235,577;16461,725;58,12152
 962,39; 9585,538;  199,962;16238,033;58,52061
 962,94; 9561,077;  229,115;16205,263;58,41184
 963,49; 9435,154;  223,115;16012,340;58,34383
 964,04; 9420,000;  233,500;16038,417;58,12432
 964,59; 9356,231;  192,038;15881,956;58,40816
 965,14; 9365,462;  242,962;15896,263;58,27844
 965,69; 9343,615;  221,038;15762,263;58,69921
 966,24; 9262,308;  213,500;15696,648;58,44294
 966,79; 9192,000;  241,115;15591,110;58,31197
 967,34; 9089,538;  193,654;15448,879;58,31369
 967,89; 9100,462;  221,346;15349,956;58,69089
 968,44; 9056,308;  214,269;15290,263;58,64979
 968,99; 9043,231;  229,038;15280,340;58,56100
 969,55; 8999,154;  226,500;15127,648;58,87234
 970,10; 9002,769;  233,808;15016,802;59,31790
 970,65; 8884,923;  248,962;14934,802;58,80468
 971,20; 8861,615;  208,885;14882,494;58,96798
 971,75; 8761,231;  199,500;14642,187;59,28074
 972,30; 8771,231;  230,808;14579,417;59,52091
 972,85; 8751,308;  211,500;14515,571;59,70194
 973,40; 8648,692;  210,885;14380,417;59,54895
 973,95; 8648,231;  237,808;14345,187;59,61719
 974,50; 8582,769;  263,269;14222,956;59,59661
 975,05; 8522,000;  222,500;14148,263;59,59817
 975,60; 8544,154;  234,731;14046,187;60,16327
 976,15; 8443,615;  210,115;13950,417;59,92226
 976,70; 8430,769;  217,500;13911,187;59,97851
 977,25; 8435,000;  237,038;13847,802;60,23146
 977,80; 8272,923;  216,577;13657,725;59,93793
 978,35; 8226,615;  231,423;13469,956;60,39334
 978,89; 8172,462;  194,115;13448,263;60,19509
 979,44; 8236,769;  223,962;13453,879;60,56582
 979,99; 8068,231;  211,038;13226,879;60,36638
 980,54; 8063,000;  252,654;13184,725;60,39517
 981,09; 8049,308;  243,808;13054,417;60,92997
 981,64; 7952,154;  235,731;12931,725;60,77841
 982,19; 7930,077;  259,808;12909,340;60,63678
 982,74; 7867,615;  242,962;12781,571;60,80940
 983,29; 7813,154;  215,269;12692,879;60,89215
 983,84; 7729,308;  238,423;12495,879;61,11288
 984,39; 7797,000;  313,192;12472,033;61,55034
 984,94; 7682,231;  197,192;12341,571;61,63377
 985,49; 7664,000;  252,731;12332,417;61,35316
 986,03; 7641,077;  238,962;12142,879;62,18218
 986,58; 7575,538;  280,654;12086,187;61,79208
 987,13; 7448,615;  230,500;11883,725;61,94093
 987,68; 7385,692;  248,577;11819,494;61,68150
 988,23; 7375,231;  239,269;11738,879;62,05395
 988,78; 7256,385;  213,269;11583,879;61,94141
 989,33; 7241,846;  257,808;11489,494;62,18156
 989,88; 7210,154;  259,346;11477,187;61,96208
 990,42; 7111,000;  225,269;11282,187;62,27532
 990,97; 7028,923;  215,654;11123,110;62,46433
 991,52; 7022,385;  248,885;11134,033;62,22699
 992,07; 6935,846;  269,577;11035,110;61,92234
 992,62; 6867,231;  240,654;10844,494;62,49224
 993,17; 6738,769;  249,346;10701,340;62,08789
 993,71; 6732,000;  251,731;10676,263;62,16364
 994,26; 6659,615;  230,962;10506,956;62,55992
 994,81; 6645,154;  260,808;10500,417;62,34951
 995,36; 6531,231;  221,346;10309,340;62,54846
 995,91; 6482,538;  227,654;10275,648;62,25008
 996,45; 6384,846;  240,500;10146,956;62,02366
 997,00; 6312,538;  212,962; 9983,187;62,43026
 997,55; 6322,000;  252,423; 9988,417;62,34162
 998,10; 6218,769;  248,500; 9817,494;62,39182
 998,65; 6228,462;  242,654; 9754,033;62,93312
 999,19; 6157,923;  257,269; 9619,187;63,02826
 999,74; 6095,000;  270,962; 9535,571;62,86329
1000,29; 6029,769;  240,115; 9479,802;62,66072
1000,84; 5917,077;  236,269; 9276,494;62,83923
1001,38; 5861,923;  234,731; 9204,033;62,73835
1001,93; 5854,846;  251,269; 9136,187;63,06842
1002,48; 5738,538;  226,269; 9021,417;62,67398
1003,03; 5706,385;  253,192; 8993,187;62,39355
1003,57; 5614,769;  233,654; 8831,494;62,58683
1004,12; 5613,077;  284,731; 8781,263;62,71201
1004,67; 5520,692;  231,423; 8640,802;62,89726
1005,22; 5417,385;  222,115; 8490,417;62,83357
1005,76; 5336,385;  221,346; 8363,340;62,82292
1006,31; 5342,154;  253,654; 8360,802;62,76560
1006,86; 5203,385;  223,115; 8200,494;62,42989
1007,40; 5144,077;  210,346; 8055,571;62,88833
1007,95; 5158,846;  240,654; 7977,187;63,57101
1008,50; 5077,308;  235,500; 7856,417;63,53314
1009,04; 4991,077;  233,577; 7796,033;62,90946
1009,59; 4895,538;  233,038; 7635,571;62,98520
1010,14; 4821,077;  218,885; 7497,494;63,22900
1010,68; 4790,000;  232,269; 7414,417;63,45916
1011,23; 4760,308;  228,346; 7290,494;64,17256
1011,78; 4726,308;  244,577; 7217,187;64,27623
1012,32; 4631,231;  267,423; 7108,110;63,79196
1012,87; 4584,923;  261,731; 7091,494;63,29930
1013,42; 4499,154;  222,654; 6908,033;63,96795
1013,96; 4534,692;  267,423; 6969,033;63,67529
1014,51; 4438,769;  195,192; 6870,340;63,57278
1015,06; 4449,462;  218,577; 6820,417;64,08644
1015,60; 4526,154;  268,192; 6919,648;64,01548
1016,15; 4486,923;  217,654; 6860,802;64,26575
1016,69; 4496,385;  229,885; 6884,110;64,11716
1017,24; 4467,769;  213,962; 6871,571;63,89392
1017,79; 4551,077;  273,500; 6962,725;63,94727
1018,33; 4525,231;  231,885; 6942,340;63,97995
1018,88; 4618,692;  256,654; 6979,340;64,88535
1019,42; 4607,615;  218,038; 6976,263;64,95162
1019,97; 4586,308;  222,192; 6987,033;64,51173
1020,51; 4625,231;  266,192; 7069,187;64,07529
1021,06; 4577,692;  213,962; 7018,494;64,12976
1021,61; 4553,846;  199,115; 6993,956;64,08879
1022,15; 4556,000;  181,808; 6943,571;64,69011
1022,70; 4572,385;  232,192; 6960,571;64,50577
1023,24; 4528,692;  207,577; 6896,340;64,60260
1023,79; 4487,000;  224,269; 6824,187;64,58764
1024,33; 4462,692;  219,731; 6798,802;64,49180
1024,88; 4410,077;  242,115; 6705,648;64,48426
1025,42; 4357,077;  234,346; 6583,494;64,93361
1025,97; 4285,846;  214,115; 6508,033;64,69311
1026,51; 4199,769;  201,423; 6397,494;64,53035
1027,06; 4178,385;  213,577; 6362,571;64,47896
1027,60; 4117,538;  231,808; 6233,879;64,73983
1028,15; 4070,385;  243,654; 6151,417;64,77461
1028,69; 3928,846;  188,038; 6007,417;64,28191
1029,24; 3937,385;  217,269; 5916,110;65,27846
1029,78; 3848,385;  204,269; 5840,725;64,65260
1030,33; 3765,231;  192,423; 5734,725;64,46433
1030,87; 3744,846;  209,577; 5652,879;64,94715
1031,42; 3661,077;  195,577; 5588,802;64,25654
1031,96; 3667,923;  234,885; 5527,956;64,85910
1032,51; 3585,538;  203,346; 5395,571;65,13956
1033,05; 3562,615;  220,808; 5369,494;64,90602
1033,60; 3448,077;  190,731; 5234,956;64,57575
1034,14; 3422,231;  220,346; 5180,417;64,55320
1034,69; 3399,692;  215,115; 5142,263;64,63327
1035,23; 3366,308;  223,654; 5014,879;65,59187
1035,77; 3317,538;  212,577; 4986,648;65,03802
1036,32; 3226,385;  203,962; 4901,956;64,33433
1036,86; 3211,462;  232,192; 4857,494;64,41243
1037,41; 3174,308;  230,192; 4769,340;64,86053
1037,95; 3069,077;  194,962; 4686,187;63,99402
1038,50; 3046,692;  206,654; 4643,879;64,00483
1039,04; 3065,692;  237,500; 4581,879;65,10004
1039,58; 3002,538;  194,885; 4480,340;65,51588
1040,13; 2925,308;  215,269; 4413,340;64,55437
1040,67; 2948,692;  242,269; 4389,956;65,25139
1041,21; 2898,077;  242,346; 4332,571;64,92872
1041,76; 2800,077;  206,115; 4262,110;63,95378
1042,30; 2784,000;  214,038; 4213,187;64,26273
1042,85; 2736,308;  218,577; 4124,802;64,45432
1043,39; 2722,462;  201,731; 4044,879;65,59026
1043,93; 2701,077;  237,808; 4033,571;64,89522
1044,48; 2677,692;  226,500; 3957,340;65,70081
1045,02; 2603,615;  222,269; 3891,648;64,89780
1045,56; 2587,769;  249,038; 3869,648;64,59494
1046,11; 2560,462;  220,038; 3814,571;65,11064
1046,65; 2518,846;  227,500; 3729,263;65,43406
1047,19; 2479,692;  203,346; 3711,187;64,89309
1047,74; 2416,615;  193,885; 3613,956;64,99078
1048,28; 2430,154;  226,038; 3590,956;65,50281
1048,82; 2426,000;  234,192; 3563,417;65,83537
1049,37; 2367,769;  231,885; 3506,110;65,23329
1049,91; 2341,692;  233,269; 3454,263;65,45877
1050,45; 2311,154;  235,808; 3403,340;65,51933
1050,99; 2278,077;  226,346; 3366,263;65,34347
1051,54; 2219,385;  206,654; 3318,187;64,68615
1052,08; 2230,385;  243,654; 3287,956;65,26064
1052,62; 2182,769;  239,500; 3222,725;65,13988
1053,16; 2136,385;  208,500; 3179,494;64,89022
1053,71; 2126,231;  228,808; 3150,648;64,93931
1054,25; 2113,385;  238,654; 3097,571;65,57485
1054,79; 2092,923;  238,038; 3047,494;66,02292
1055,33; 2049,385;  198,500; 2947,417;67,33140
1055,88; 2024,385;  236,346; 2969,802;65,41311
1056,42; 2015,615;  236,500; 2937,648;65,86516
1056,96; 1969,231;  241,115; 2886,340;65,32962
1057,50; 1936,154;  233,346; 2852,110;65,02335
1058,05; 1930,538;  231,038; 2782,648;66,60502
1058,59; 1909,615;  258,885; 2744,725;66,40534
1059,13; 1844,923;  209,192; 2702,187;65,61310
1059,67; 1847,923;  236,115; 2685,417;65,80682
1060,21; 1816,462;  227,577; 2614,033;66,57926
1060,76; 1793,769;  243,423; 2595,802;65,90546
1061,30; 1772,308;  255,962; 2583,725;65,14176
1061,84; 1732,846;  232,269; 2529,494;65,32129
1062,38; 1672,769;  217,731; 2442,879;65,39064
1062,92; 1723,769;  259,962; 2486,033;65,75745
1063,46; 1661,154;  237,654; 2412,417;65,45539
1064,01; 1632,385;  216,423; 2378,187;65,50030
1064,55; 1608,615;  242,808; 2363,571;64,40170
1065,09; 1594,615;  205,500; 2291,340;66,59740
1065,63; 1624,538;  254,962; 2318,571;66,36802
1066,17; 1586,692;  263,115; 2297,956;65,04574
1066,71; 1562,923;  247,962; 2242,187;65,93847
1067,25; 1539,846;  230,731; 2198,187;66,53849
1067,80; 1516,923;  245,962; 2177,802;65,79019
1068,34; 1500,000;  259,192; 2178,802;64,63854
1068,88; 1454,846;  223,500; 2097,725;65,69895
1069,42; 1471,231;  252,654; 2098,648;66,01196
1069,96; 1424,231;  230,038; 2062,417;65,17169
1070,50; 1454,308;  259,115; 2094,879;65,10601
1071,04; 1395,769;  211,500; 1993,956;66,44032
1071,58; 1375,769;  227,654; 1994,187;64,99259
1072,12; 1376,308;  233,269; 1991,187;65,02231
1072,66; 1349,077;  235,423; 1944,879;65,14669
1073,21; 1343,846;  253,654; 1916,033;65,58026
1073,75; 1323,846;  253,731; 1908,110;64,68382
1074,29; 1292,923;  234,269; 1875,110;64,51900
1074,83; 1310,308;  263,808; 1872,648;65,04685
1075,37; 1305,615;  256,731; 1849,417;65,85631
1075,91; 1275,692;  241,577; 1847,033;64,41257
1076,45; 1254,000;  243,269; 1791,571;65,27995
1076,99; 1249,231;  250,269; 1789,263;64,91002
1077,53; 1212,385;  225,885; 1743,187;65,01672
1078,07; 1220,000;  242,269; 1731,956;65,63332
1078,61; 1189,154;  234,269; 1698,725;65,20406
1079,15; 1166,615;  237,269; 1681,340;64,35598
1079,69; 1172,923;  240,346; 1654,956;65,92468
1080,23; 1179,615;  255,038; 1672,648;65,22084
1080,77; 1212,000;  301,500; 1688,033;65,66740
1081,31; 1123,769;  237,423; 1599,802;65,05871
1081,85; 1149,077;  260,346; 1605,033;66,09204
1082,39; 1099,231;  231,423; 1567,494;64,95221
1082,93; 1121,231;  252,346; 1582,263;65,33373
1083,47; 1057,923;  225,731; 1515,648;64,51517
1084,01; 1092,538;  243,038; 1548,802;65,05772
1084,55; 1044,769;  225,885; 1493,263;64,61246
1085,09; 1071,538;  247,500; 1507,879;65,38022
1085,63; 1044,231;  243,654; 1471,110;65,22247
1086,17; 1018,385;  234,192; 1451,956;64,39611
1086,71; 1009,000;  238,885; 1434,648;64,40366
1087,24; 1018,000;  260,808; 1458,263;63,23343
1087,78; 1015,308;  262,654; 1424,879;64,75974
1088,32;  958,538;  231,269; 1359,110;64,48335
1088,86;  990,923;  248,885; 1383,571;65,39590
1089,40;  960,154;  246,423; 1360,956;64,03857
1089,94;  919,615;  223,269; 1333,494;62,72117
1090,48;  952,615;  253,192; 1335,187;64,64203
1091,02;  937,692;  251,192; 1318,033;64,34890
1091,56;  923,615;  241,577; 1291,187;64,98020
1092,10;  885,154;  224,577; 1264,725;63,50797
1092,63;  926,692;  265,269; 1300,417;63,89647
1093,17;  911,231;  252,115; 1252,725;65,87138
1093,71;  871,692;  224,654; 1213,340;65,44425
1094,25;  895,923;  258,962; 1235,340;65,23713
1094,79;  842,154;  229,962; 1198,956;63,17812
1095,33;  862,154;  245,346; 1208,340;64,05103
1095,87;  853,077;  242,808; 1185,802;64,71611
1096,40;  814,385;  220,577; 1155,340;63,52491
1096,94;  819,077;  228,808; 1159,802;63,40203
1097,48;  828,385;  253,192; 1150,340;64,11342
1098,02;  784,923;  237,192; 1108,879;62,83575
1098,56;  765,538;  202,885; 1073,879;64,59903
1099,10;  743,385;  221,731; 1070,879;61,43261
1099,63;  753,615;  215,038; 1068,340;63,11681
1100,17;  780,692;  243,269; 1095,417;63,06686
1100,71;  796,385;  275,731; 1097,648;63,34626

