
Integration time [ms]: 150,000
Averaging Nr. [scans]: 13
Smoothing Nr. [pixels]: 0
Data measured with spectrometer [name]: 2009305U1
Wave   ;Sample   ;Dark     ;Reference;Reflectance
[nm]   ;[counts] ;[counts] ;[counts] ;[%]

 175,72;  229,501;  219,771;  228,149;116,13688
 176,32;  237,889;  243,540;  245,741;-256,80646
 176,92;  284,365;  279,310;  276,351; 0,00000
 177,52;  273,581;  275,694;  275,625; 0,00000
 178,12;  266,183;  247,848;  237,671; 0,00000
 178,72;  276,329;  283,232;  275,907; 0,00000
 179,32;  261,030;  273,156;  272,153; 0,00000
 179,92;  270,909;  272,771;  263,888; 0,00000
 180,52;  259,737;  246,926;  261,484;87,99875
 181,12;  278,625;  277,617;  270,726; 0,00000
 181,73;  300,329;  289,079;  292,196;360,86264
 182,33;  405,410;  381,387;  410,818;81,62404
 182,93;  302,069;  279,771;  292,658;173,02970
 183,53;  264,241;  255,771;  247,236; 0,00000
 184,13;  259,137;  255,463;  243,066; 0,00000
 184,73;  301,782;  297,694;  297,759; 0,00000
 185,33;  270,387;  256,691;  368,500;12,24979
 185,93;  268,758;  255,075;  382,746;10,71700
 186,53;  296,623;  270,306;  409,740;18,87441
 187,13;  316,842;  286,691;  442,672;19,32981
 187,73;  282,205;  258,383;  397,569;17,11512
 188,33;  282,672;  244,459;  389,070;26,42486
 188,93;  291,052;  265,151;  389,820;20,77549
 189,53;  279,157;  255,997;  401,808;15,88365
 190,13;  318,862;  303,534;  425,453;12,57166
 190,73;  262,524;  238,612;  373,568;17,71841
 191,34;  302,006;  272,382;  412,563;21,13297
 191,94;  281,564;  245,536;  389,124;25,09110
 192,54;  284,397;  257,845;  421,882;16,18647
 193,14;  306,574;  280,999;  427,015;17,51520
 193,74;  300,461;  277,460;  416,620;16,52808
 194,34;  298,135;  266,383;  422,879;20,28917
 194,94;  263,600;  229,152;  370,509;24,36894
 195,54;  245,746;  219,768;  356,227;19,03711
 196,14;  263,440;  237,307;  390,260;17,08603
 196,74;  264,569;  231,845;  381,671;21,84156
 197,34;  239,407;  216,922;  370,235;14,66602
 197,94;  275,534;  245,999;  399,200;19,27858
 198,54;  274,120;  248,999;  404,056;16,20100
 199,14;  251,903;  232,615;  417,339;10,44167
 199,74;  246,646;  222,076;  395,845;14,13955
 200,34;  235,696;  207,461;  420,541;13,25097
 200,94;  280,281;  248,153;  461,164;15,08269
 201,54;  262,354;  219,768;  445,273;18,88442
 202,14;  296,141;  261,153;  507,467;14,20475
 202,74;  259,044;  229,384;  505,376;10,74685
 203,34;  239,098;  209,000;  512,156; 9,92833
 203,94;  219,243;  174,153;  513,305;13,29484
 204,54;  288,597;  270,153;  616,582; 5,32414
 205,14;  238,890;  206,384;  598,674; 8,28629
 205,74;  294,073;  252,230;  701,528; 9,31284
 206,34;  257,770;  216,076;  694,450; 8,71571
 206,94;  261,592;  233,538;  772,940; 5,20103
 207,54;  240,399;  201,692;  795,827; 6,51486
 208,14;  252,974;  213,153;  877,320; 5,99563
 208,74;  269,519;  218,845;  976,513; 6,68810
 209,34;  265,928;  217,461; 1044,418; 5,86088
 209,94;  291,890;  220,307; 1137,587; 7,80382
 210,54;  273,472;  229,692; 1220,957; 4,41664
 211,14;  274,326;  224,922; 1339,805; 4,43130
 211,73;  284,829;  232,768; 1439,199; 4,31526
 212,33;  299,768;  239,461; 1581,273; 4,49448
 212,93;  301,648;  226,307; 1645,732; 5,30783
 213,53;  267,108;  189,768; 1712,865; 5,07782
 214,13;  314,876;  218,538; 1813,622; 6,03967
 214,73;  282,603;  197,307; 1816,698; 5,26716
 215,33;  273,736;  186,538; 1864,202; 5,19760
 215,93;  313,560;  218,230; 1998,417; 5,35506
 216,53;  277,225;  188,076; 2057,055; 4,76993
 217,13;  329,049;  225,846; 2256,567; 5,08211
 217,73;  321,047;  210,538; 2464,275; 4,90337
 218,33;  295,285;  155,769; 2660,450; 5,57020
 218,93;  347,888;  201,231; 2977,546; 5,28245
 219,53;  354,643;  200,923; 3232,648; 5,07040
 220,13;  339,923;  170,769; 3524,776; 5,04334
 220,73;  395,607;  183,538; 3882,522; 5,73319
 221,32;  416,519;  205,461; 4307,282; 5,14548
 221,92;  449,911;  201,846; 4696,208; 5,51947
 222,52;  461,726;  186,307; 5149,821; 5,54887
 223,12;  490,495;  202,461; 5611,108; 5,32543
 223,72;  531,084;  205,076; 5985,691; 5,63967
 224,32;  546,878;  205,384; 6429,001; 5,48707
 224,92;  552,545;  190,538; 6682,132; 5,57655
 225,52;  621,413;  200,922; 7052,984; 6,13669
 226,12;  614,908;  195,153; 7404,550; 5,82233
 226,72;  627,025;  165,999; 7775,960; 6,05818
 227,31;  646,461;  163,307; 8103,707; 6,08475
 227,91;  716,298;  197,999; 8551,866; 6,20430
 228,51;  735,305;  185,614; 8888,848; 6,31594
 229,11;  781,807;  198,538; 9299,491; 6,40888
 229,71;  801,956;  184,230; 9632,357; 6,53808
 230,31;  828,748;  180,769;10070,106; 6,55230
 230,91;  852,322;  166,076;10383,471; 6,71645
 231,51;  891,637;  165,923;10680,099; 6,90225
 232,10;  947,695;  181,461;10992,241; 7,08768
 232,70;  986,058;  196,460;11145,879; 7,21132
 233,30; 1082,561;  215,846;11504,976; 7,67743
 233,90; 1070,766;  186,999;11581,030; 7,75640
 234,50; 1121,393;  192,615;11706,819; 8,06637
 235,10; 1159,007;  183,769;11702,286; 8,46669
 235,70; 1218,158;  204,999;11795,849; 8,74102
 236,29; 1224,866;  204,461;11688,836; 8,88516
 236,89; 1219,052;  172,076;11527,215; 9,22028
 237,49; 1269,973;  209,922;11419,269; 9,45684
 238,09; 1269,385;  185,999;11083,219; 9,94186
 238,69; 1305,184;  244,230;10802,227;10,04882
 239,29; 1284,668;  197,384;10437,612;10,61778
 239,89; 1264,385;  191,076;10097,391;10,83459
 240,48; 1257,360;  177,999; 9657,197;11,38662
 241,08; 1247,567;  188,769; 9319,071;11,59653
 241,68; 1254,423;  211,384; 8946,742;11,94043
 242,28; 1229,267;  181,769; 8555,430;12,50944
 242,88; 1283,465;  230,307; 8220,974;13,17985
 243,48; 1248,306;  227,076; 7917,686;13,27892
 244,07; 1219,657;  211,615; 7674,921;13,50665
 244,67; 1240,230;  212,230; 7509,332;14,08778
 245,27; 1253,290;  209,691; 7358,738;14,59774
 245,87; 1254,595;  223,692; 7246,444;14,67947
 246,47; 1258,624;  201,691; 7259,452;14,97546
 247,06; 1286,810;  181,307; 7247,178;15,64567
 247,66; 1287,102;  192,076; 7295,913;15,41457
 248,26; 1335,866;  221,076; 7456,702;15,40696
 248,86; 1378,187;  210,691; 7654,849;15,68339
 249,46; 1388,201;  160,692; 7870,747;15,92089
 250,05; 1514,104;  206,076; 8287,338;16,18593
 250,65; 1519,266;  184,691; 8670,592;15,72696
 251,25; 1628,939;  190,692; 9157,724;16,03928
 251,85; 1693,654;  185,153; 9790,011;15,70561
 252,44; 1788,570;  164,768;10372,568;15,90746
 253,04; 1942,453;  201,768;11244,137;15,76369
 253,64; 1991,536;  150,768;12033,166;15,49155
 254,24; 2201,668;  213,922;13051,063;15,48433
 254,84; 2296,740;  196,692;14087,362;15,11841
 255,43; 2422,916;  186,461;15163,322;14,93274
 256,03; 2600,459;  195,307;16327,684;14,90885
 256,63; 2756,872;  203,922;17503,500;14,75730
 257,23; 2876,833;  178,691;18501,485;14,72560
 257,82; 3028,826;  207,383;19738,752;14,44570
 258,42; 3115,252;  159,460;20771,530;14,34010
 259,02; 3288,851;  210,307;21895,351;14,19662
 259,62; 3340,176;  183,691;22787,658;13,96430
 260,21; 3421,198;  199,845;23471,540;13,84237
 260,81; 3478,960;  187,076;24171,692;13,72498
 261,41; 3511,981;  184,383;24795,244;13,52085
 262,01; 3595,038;  216,537;25352,394;13,44096
 262,60; 3592,526;  177,307;25846,101;13,30494
 263,20; 3621,765;  185,999;26357,336;13,12797
 263,80; 3619,666;  209,152;26539,377;12,95285
 264,40; 3589,139;  176,845;26899,693;12,76920
 264,99; 3606,513;  200,537;27115,397;12,65463
 265,59; 3569,290;  186,306;27318,169;12,46867
 266,19; 3569,871;  184,229;27638,806;12,33179
 266,78; 3593,196;  232,152;27795,449;12,19391
 267,38; 3539,442;  205,998;27786,734;12,08613
 267,98; 3481,836;  185,460;27858,000;11,91208
 268,58; 3486,263;  192,691;27956,250;11,86293
 269,17; 3411,743;  183,614;28097,251;11,56470
 269,77; 3421,669;  204,383;27753,045;11,67855
 270,37; 3298,603;  169,999;27664,072;11,37920
 270,96; 3319,890;  221,076;27556,548;11,33624
 271,56; 3194,308;  189,460;27252,093;11,10331
 272,16; 3149,994;  183,845;27045,467;11,04233
 272,75; 3094,878;  184,845;27076,683;10,82125
 273,35; 3075,287;  194,307;26917,962;10,78064
 273,95; 3044,852;  191,768;26907,420;10,67945
 274,54; 3034,655;  177,999;27015,629;10,64422
 275,14; 3097,145;  222,153;27307,463;10,61458
 275,74; 3012,340;  163,537;27402,309;10,45863
 276,33; 3085,246;  221,999;27818,973;10,37522
 276,93; 3081,038;  200,230;28216,347;10,28268
 277,53; 3138,147;  186,999;28790,573;10,31741
 278,12; 3213,973;  179,384;29422,405;10,37714
 278,72; 3337,135;  256,461;29999,620;10,35759
 279,32; 3338,585;  188,076;30643,053;10,34481
 279,91; 3411,125;  164,768;31454,796;10,37505
 280,51; 3528,852;  195,461;32138,689;10,43536
 281,11; 3623,869;  194,076;32882,543;10,49236
 281,70; 3672,664;  177,691;33380,826;10,52603
 282,30; 3796,308;  181,999;34137,863;10,64414
 282,90; 3884,193;  183,307;34486,022;10,78890
 283,49; 3971,184;  198,153;35030,161;10,83208
 284,09; 4092,767;  222,153;35639,099;10,92871
 284,69; 4214,034;  226,230;36006,782;11,14517
 285,28; 4303,486;  206,076;36449,516;11,30524
 285,88; 4505,263;  253,999;36743,165;11,65076
 286,47; 4511,219;  194,922;36914,823;11,75465
 287,07; 4646,995;  222,153;36890,777;12,06711
 287,67; 4795,460;  210,769;36997,225;12,46299
 288,26; 4871,380;  188,691;36908,480;12,75249
 288,86; 5007,729;  184,153;37041,094;13,08729
 289,46; 5231,381;  202,384;37122,731;13,62121
 290,05; 5383,042;  190,768;37212,064;14,02510
 290,65; 5624,630;  187,384;37404,337;14,60960
 291,24; 5896,712;  198,691;37559,548;15,25131
 291,84; 6110,257;  211,691;37792,731;15,69559
 292,44; 6336,587;  204,076;37806,095;16,30899
 293,03; 6631,084;  272,230;38112,576;16,80443
 293,63; 6763,860;  184,768;38158,999;17,32515
 294,22; 7043,651;  217,153;38465,208;17,84796
 294,82; 7235,305;  199,152;38413,271;18,41244
 295,41; 7266,434;  174,922;38100,288;18,69860
 296,01; 7479,367;  222,999;38054,602;19,18070
 296,61; 7504,495;  224,230;37819,916;19,36463
 297,20; 7564,533;  192,691;37410,939;19,80706
 297,80; 7661,796;  213,615;37207,272;20,13367
 298,39; 7648,808;  177,845;36779,473;20,41156
 298,99; 7730,531;  224,537;36504,955;20,68883
 299,58; 7727,179;  211,384;36385,903;20,77649
 300,18; 7818,618;  223,845;36189,895;21,11650
 300,78; 7753,480;  190,999;35786,113;21,24584
 301,37; 7820,219;  217,845;35795,718;21,36827
 301,97; 7875,740;  215,768;35728,247;21,56980
 302,56; 7856,925;  198,153;35633,201;21,61355
 303,16; 7871,683;  180,922;35521,202;21,76203
 303,75; 7889,056;  195,768;35645,924;21,70170
 304,35; 7977,200;  177,153;35901,168;21,83418
 304,94; 8038,137;  194,384;35809,440;22,02370
 305,54; 8060,442;  215,384;35790,205;22,05228
 306,13; 7994,469;  159,923;35769,307;22,00135
 306,73; 7970,549;  171,769;35488,947;22,08212
 307,33; 8068,563;  207,922;35499,114;22,27366
 307,92; 8072,417;  208,076;35472,060;22,30134
 308,52; 8177,568;  183,768;35997,217;22,32066
 309,11; 8298,880;  193,922;36580,985;22,27429
 309,71; 8361,666;  193,768;36923,367;22,23792
 310,30; 8453,610;  189,999;37166,229;22,34844
 310,90; 8570,072;  235,153;37523,690;22,35250
 311,49; 8586,316;  205,384;37627,068;22,39592
 312,09; 8625,259;  172,999;37837,225;22,44108
 312,68; 8801,724;  256,615;38261,788;22,48407
 313,28; 8781,571;  174,230;38357,983;22,54189
 313,87; 8840,354;  164,691;38582,601;22,58234
 314,47; 8950,007;  190,845;38858,912;22,65219
 315,06; 8933,635;  175,230;38948,769;22,58861
 315,66; 9014,413;  181,845;39296,994;22,58094
 316,25; 8921,823;  161,153;39194,747;22,44392
 316,85; 8969,861;  159,307;39253,935;22,53648
 317,44; 9006,623;  184,306;39342,788;22,52977
 318,04; 8964,603;  173,384;39360,659;22,43386
 318,63; 8933,716;  162,769;39407,073;22,34960
 319,22; 8973,720;  196,076;39719,782;22,20856
 319,82; 9014,255;  183,614;39730,450;22,32958
 320,41; 9032,835;  209,537;39651,459;22,37035
 321,01; 8950,606;  209,461;39752,251;22,10553
 321,60; 8990,652;  196,537;39803,104;22,20368
 322,20; 8915,661;  176,076;39745,945;22,08646
 322,79; 8910,186;  216,999;39971,896;21,86696
 323,39; 8933,457;  177,538;40024,528;21,97385
 323,98; 8893,827;  175,922;39925,667;21,93198
 324,58; 8888,581;  184,768;39865,267;21,93474
 325,17; 8802,541;  189,999;39682,837;21,80786
 325,76; 8767,124;  207,230;39524,457;21,77136
 326,36; 8638,798;  174,768;39152,948;21,71479
 326,95; 8582,536;  216,999;38741,782;21,71469
 327,55; 8427,102;  185,537;38407,921;21,56214
 328,14; 8341,193;  178,922;37999,070;21,58181
 328,74; 8208,643;  200,153;37482,233;21,48080
 329,33; 8117,260;  197,922;37120,343;21,44859
 329,92; 7956,277;  175,845;36541,640;21,39492
 330,52; 7818,705;  202,538;35733,028;21,43558
 331,11; 7704,203;  193,384;35278,308;21,40754
 331,71; 7493,663;  188,307;34626,488;21,21296
 332,30; 7389,675;  207,999;34111,748;21,18254
 332,89; 7307,120;  271,076;33590,336;21,11705
 333,49; 7131,011;  194,999;32891,370;21,21340
 334,08; 6993,012;  190,845;32377,026;21,13381
 334,68; 6867,896;  187,614;32014,251;20,98959
 335,27; 6806,858;  200,307;31590,987;21,04622
 335,86; 6788,127;  250,076;31383,154;21,00033
 336,46; 6646,486;  204,153;31029,334;20,89958
 337,05; 6530,332;  189,461;30668,132;20,80429
 337,65; 6537,909;  164,307;30603,070;20,93910
 338,24; 6537,173;  230,999;30615,595;20,75451
 338,83; 6521,711;  217,384;30467,662;20,84056
 339,43; 6439,143;  186,076;30397,710;20,69755
 340,02; 6428,708;  195,845;30321,455;20,68958
 340,61; 6482,699;  201,307;30458,950;20,75969
 341,21; 6430,104;  212,999;30340,233;20,63616
 341,80; 6410,371;  187,384;30267,619;20,68796
 342,40; 6461,090;  192,769;30458,094;20,71123
 342,99; 6483,197;  190,999;30621,566;20,67723
 343,58; 6499,722;  189,692;30725,189;20,66457
 344,18; 6508,503;  205,999;30926,295;20,51577
 344,77; 6587,439;  189,768;31194,614;20,63442
 345,36; 6632,921;  169,537;31564,012;20,58765
 345,96; 6744,055;  219,768;31833,673;20,63740
 346,55; 6790,239;  170,769;32170,183;20,68622
 347,14; 6848,436;  183,538;32575,474;20,57579
 347,74; 6969,963;  157,846;33028,042;20,72430
 348,33; 7125,925;  180,923;33826,154;20,64186
 348,92; 7260,561;  205,308;34430,178;20,61441
 349,52; 7362,794;  164,615;34951,480;20,69223
 350,11; 7396,581;  185,845;35192,354;20,59827
 350,70; 7450,430;  180,615;35339,648;20,67695
 351,29; 7421,863;  169,383;35006,042;20,81853
 351,89; 7409,945;  202,922;35091,627;20,65718
 352,48; 7441,392;  169,999;35147,268;20,78891
 353,07; 7447,473;  206,461;35033,208;20,79153
 353,67; 7426,278;  204,923;34949,565;20,78408
 354,26; 7353,679;  201,307;34808,524;20,66729
 354,85; 7339,053;  203,153;34516,545;20,79625
 355,45; 7304,718;  167,230;34307,183;20,90656
 356,04; 7292,177;  182,846;34215,160;20,88995
 356,63; 7278,626;  234,691;34031,513;20,84200
 357,22; 7267,026;  193,614;33824,077;21,03275
 357,82; 7221,460;  197,152;33639,051;21,00451
 358,41; 7219,329;  221,461;33568,368;20,98506
 359,00; 7143,925;  178,153;33297,760;21,03217
 359,60; 7144,699;  197,384;33273,930;21,00375
 360,19; 7170,010;  215,461;33107,234;21,14373
 360,78; 7152,037;  189,537;32871,971;21,30349
 361,37; 7145,012;  193,461;32696,708;21,38725
 361,97; 7078,330;  210,307;32520,543;21,25649
 362,56; 7091,440;  191,307;32201,491;21,55606
 363,15; 7090,615;  258,537;31875,986;21,60857
 363,74; 6950,148;  189,537;31578,698;21,53804
 364,34; 6886,938;  225,153;31136,896;21,55099
 364,93; 6800,172;  197,768;30611,516;21,70862
 365,52; 6752,280;  167,768;30252,923;21,88625
 366,11; 6686,015;  203,307;29846,040;21,86947
 366,71; 6603,182;  188,230;29394,166;21,96455
 367,30; 6552,665;  195,384;29033,298;22,04487
 367,89; 6542,605;  238,307;28743,451;22,11635
 368,48; 6474,788;  207,306;28354,018;22,26719
 369,07; 6357,046;  195,153;27881,417;22,25614
 369,67; 6332,326;  216,383;27573,988;22,35555
 370,26; 6241,686;  180,922;27244,891;22,39422
 370,85; 6229,575;  192,999;26939,335;22,56973
 371,44; 6162,253;  206,384;26642,014;22,52971
 372,03; 6126,643;  176,460;26437,561;22,65778
 372,63; 6068,523;  172,153;26061,876;22,77495
 373,22; 6004,444;  188,230;25676,794;22,81891
 373,81; 5958,024;  170,845;25388,132;22,94925
 374,40; 5929,514;  181,230;25135,197;23,03555
 374,99; 5906,166;  192,922;24805,815;23,21240
 375,59; 5842,578;  171,538;24398,937;23,40755
 376,18; 5855,897;  216,999;24328,954;23,38632
 376,77; 5842,330;  215,307;24058,225;23,60040
 377,36; 5837,845;  227,768;24006,263;23,59307
 377,95; 5801,053;  214,076;23762,102;23,72588
 378,55; 5760,452;  186,922;23508,635;23,89846
 379,14; 5715,140;  209,153;23452,060;23,68889
 379,73; 5752,001;  208,537;23303,883;24,00251
 380,32; 5783,343;  196,461;23346,208;24,13366
 380,91; 5757,237;  180,460;23182,102;24,24512
 381,50; 5789,184;  203,307;23152,689;24,33999
 382,10; 5771,343;  189,691;23019,746;24,44870
 382,69; 5808,255;  158,461;23001,834;24,73275
 383,28; 5823,875;  220,307;22925,274;24,67992
 383,87; 5796,542;  188,230;22754,175;24,85299
 384,46; 5792,805;  174,845;22715,959;24,92317
 385,05; 5867,017;  222,230;22649,024;25,16984
 385,64; 5861,784;  194,922;22646,501;25,24037
 386,24; 5860,703;  173,614;22580,639;25,38083
 386,83; 5971,999;  210,922;22672,004;25,64915
 387,42; 6019,117;  206,999;22777,744;25,75067
 388,01; 6106,159;  207,691;22951,505;25,93439
 388,60; 6215,509;  197,537;23243,362;26,11307
 389,19; 6300,232;  189,998;23547,786;26,15930
 389,78; 6413,230;  192,460;23744,571;26,41279
 390,37; 6625,437;  262,614;24276,668;26,49625
 390,96; 6650,460;  206,845;24474,830;26,55192
 391,56; 6726,119;  207,690;24645,718;26,67330
 392,15; 6866,895;  194,691;24963,960;26,93743
 392,74; 6921,617;  163,305;25106,085;27,09526
 393,33; 7059,697;  197,767;25491,061;27,12944
 393,92; 7235,379;  212,613;25900,901;27,33840
 394,51; 7302,838;  183,460;26149,483;27,41806
 395,10; 7475,050;  232,382;26382,711;27,69628
 395,69; 7518,252;  219,459;26497,146;27,77563
 396,28; 7679,004;  217,689;26669,156;28,20757
 396,87; 7689,314;  220,150;26833,025;28,06598
 397,46; 7819,722;  218,150;26835,225;28,55900
 398,06; 7952,388;  237,996;27104,067;28,71425
 398,65; 7971,032;  214,456;27131,950;28,81611
 399,24; 8092,768;  234,071;27367,810;28,96282
 399,83; 8146,837;  214,762;27381,325;29,19793
 400,42; 8269,261;  264,761;27607,435;29,27475
 401,01; 8363,600;  246,452;27702,448;29,56421
 401,60; 8396,161;  247,450;27765,454;29,61229
 402,19; 8463,273;  273,987;27599,183;29,96972
 402,78; 8500,424;  272,523;27634,687;30,07036
 403,37; 8470,378;  255,290;27482,766;30,17205
 403,96; 8407,730;  262,134;27346,365;30,07505
 404,55; 8444,078;  280,362;27213,131;30,31146
 405,14; 8421,366;  248,128;27050,732;30,49419
 405,73; 8439,246;  266,356;26942,545;30,63740
 406,32; 8462,247;  287,200;26916,383;30,69958
 406,91; 8370,362;  258,428;26636,865;30,75214
 407,50; 8324,529;  276,812;26380,646;30,82964
 408,09; 8287,466;  247,888;26025,131;31,18867
 408,68; 8319,024;  270,579;25939,191;31,35520
 409,27; 8310,935;  262,119;25718,546;31,61801
 409,86; 8254,658;  263,197;25627,174;31,50713
 410,45; 8315,185;  302,584;25499,185;31,80033
 411,04; 8296,378;  302,354;25373,826;31,88494
 411,63; 8270,684;  288,818;25135,891;32,12397
 412,22; 8178,469;  291,820;24946,198;31,98884
 412,81; 8136,872;  299,282;24612,092;32,23646
 413,40; 8056,485;  317,283;24232,821;32,36056
 413,99; 7988,545;  359,360;23878,514;32,43818
 414,58; 7789,270;  282,898;23329,423;32,57052
 415,17; 7780,076;  291,436;23186,829;32,70807
 415,76; 7716,882;  283,051;22974,676;32,76024
 416,35; 7648,101;  277,128;22780,157;32,75547
 416,94; 7691,313;  303,128;22785,030;32,86281
 417,53; 7779,882;  278,359;23066,312;32,91881
 418,12; 7818,992;  282,436;23078,298;33,06107
 418,71; 7969,510;  308,898;23475,054;33,06812
 419,30; 7989,875;  282,129;23620,155;33,02655
 419,89; 8103,216;  273,590;23800,085;33,28004
 420,48; 8270,036;  318,206;24095,378;33,44313
 421,07; 8256,954;  300,899;24293,006;33,16114
 421,66; 8271,185;  259,284;24241,823;33,40723
 422,25; 8281,867;  284,746;24288,691;33,31586
 422,84; 8350,092;  309,361;24273,693;33,55291
 423,43; 8211,090;  287,900;23908,650;33,54335
 424,02; 8189,470;  314,592;23670,893;33,71629
 424,60; 7994,929;  269,516;23210,042;33,67583
 425,19; 7954,828;  306,208;22876,340;33,88824
 425,78; 7920,416;  304,516;22764,882;33,90818
 426,37; 7864,880;  307,285;22590,848;33,91556
 426,96; 7835,085;  297,285;22472,585;33,99187
 427,55; 7788,582;  280,286;22280,373;34,12848
 428,14; 7698,998;  279,594;22069,924;34,04907
 428,73; 7621,973;  281,132;21847,258;34,03876
 429,32; 7621,510;  306,593;21796,025;34,03960
 429,91; 7662,305;  313,132;21797,183;34,20758
 430,50; 7596,541;  304,132;21558,979;34,30939
 431,08; 7542,289;  311,363;21445,445;34,21452
 431,67; 7577,384;  364,132;21350,696;34,37081
 432,26; 7525,133;  383,825;21199,730;34,30698
 432,85; 7408,981;  397,210;20759,725;34,43470
 433,44; 7285,829;  420,902;20388,439;34,38044
 434,03; 7176,032;  425,595;20017,318;34,45556
 434,62; 7015,559;  383,133;19500,106;34,69391
 435,21; 6919,672;  403,363;19234,453;34,60399
 435,79; 6913,910;  391,749;19066,589;34,92485
 436,38; 6845,331;  387,288;18952,505;34,78571
 436,97; 6796,957;  382,518;18879,955;34,67745
 437,56; 6751,756;  377,750;18603,802;34,97195
 438,15; 6687,916;  364,365;18487,436;34,89227
 438,74; 6740,503;  385,981;18530,497;35,02173
 439,33; 6710,442;  341,673;18509,407;35,05539
 439,91; 6709,240;  305,442;18649,569;34,90925
 440,50; 6789,854;  345,212;18701,692;35,10827
 441,09; 6829,996;  354,520;18795,163;35,11524
 441,68; 6807,945;  334,212;18696,465;35,25566
 442,27; 6801,322;  331,597;18725,116;35,17394
 442,86; 6789,705;  304,059;18709,845;35,23700
 443,44; 6841,736;  325,521;18797,655;35,27592
 444,03; 6907,063;  403,905;18893,725;35,17156
 444,62; 6831,204;  327,982;18702,291;35,39302
 445,21; 6759,438;  326,059;18535,085;35,33072
 445,80; 6779,282;  358,060;18427,062;35,53723
 446,39; 6695,836;  400,059;18168,193;35,43297
 446,97; 6558,896;  327,368;17983,599;35,29365
 447,56; 6515,268;  319,368;17715,751;35,61603
 448,15; 6407,294;  330,522;17478,966;35,43629
 448,74; 6401,972;  339,906;17225,173;35,90151
 449,33; 6316,886;  329,599;17093,669;35,71500
 449,91; 6224,910;  335,368;16778,294;35,81809
 450,50; 6131,990;  328,522;16543,308;35,79121
 451,09; 6102,244;  338,676;16409,895;35,86267
 451,68; 6097,944;  361,061;16271,224;36,05798
 452,26; 6046,129;  357,369;16176,718;35,96077
 452,85; 5994,300;  335,907;16118,659;35,85175
 453,44; 6007,281;  344,369;16050,676;36,05502
 454,03; 5977,638;  320,292;16117,487;35,81235
 454,61; 5965,830;  333,908;15999,608;35,95066
 455,20; 6089,888;  346,293;16255,124;36,10319
 455,79; 6075,951;  356,831;16239,150;36,00935
 456,38; 6099,890;  364,139;16282,465;36,03238
 456,97; 6108,599;  342,678;16385,616;35,94055
 457,55; 6138,141;  339,985;16382,719;36,14194
 458,14; 6160,691;  365,677;16357,900;36,23645
 458,73; 6071,384;  360,370;16309,190;35,80838
 459,31; 6133,141;  378,601;16377,517;35,96831
 459,90; 6163,481;  403,678;16379,665;36,05288
 460,49; 6228,933;  457,832;16555,727;35,85004
 461,08; 6205,584;  356,063;16622,285;35,96115
 461,66; 6273,706;  356,294;16673,790;36,26422
 462,25; 6271,668;  359,679;16769,095;36,02803
 462,84; 6320,518;  380,294;16852,140;36,06290
 463,43; 6245,181;  327,602;16714,947;36,11066
 464,01; 6262,585;  356,371;16813,258;35,88901
 464,60; 6313,749;  406,679;16730,265;36,18733
 465,19; 6160,005;  335,833;16538,152;35,94653
 465,77; 6140,268;  351,449;16523,185;35,79590
 466,36; 6130,347;  391,371;16351,535;35,95813
 466,95; 5998,243;  362,217;16045,231;35,93713
 467,53; 5907,645;  367,910;15694,808;36,14387
 468,12; 5765,989;  407,680;15350,675;35,85834
 468,71; 5669,888;  374,910;15071,491;36,02864
 469,29; 5594,142;  352,449;14823,470;36,22199
 469,88; 5528,598;  357,218;14545,154;36,44913
 470,47; 5609,830;  420,296;14656,407;36,45332
 471,06; 5537,509;  383,450;14628,107;36,18241
 471,64; 5577,769;  374,219;14706,154;36,30738
 472,23; 5539,042;  348,989;14716,809;36,12276
 472,81; 5574,616;  344,527;14821,002;36,12820
 473,40; 5632,221;  360,296;14955,052;36,12205
 473,99; 5807,400;  479,835;15247,766;36,07523
 474,57; 5771,926;  366,066;15304,583;36,18740
 475,16; 5841,768;  385,296;15526,392;36,03749
 475,75; 5864,854;  407,527;15668,379;35,76030
 476,33; 5900,896;  389,682;15751,929;35,87506
 476,92; 5938,065;  394,143;15763,606;36,07102
 477,51; 5959,054;  400,912;15871,820;35,92641
 478,09; 5964,875;  396,758;15891,249;35,93610
 478,68; 5916,679;  408,681;15775,835;35,84267
 479,27; 5949,443;  417,681;15881,721;35,77178
 479,85; 5925,167;  397,835;15844,108;35,78424
 480,44; 5901,239;  384,374;15946,053;35,45161
 481,02; 6387,693;  401,297;17286,127;35,45429
 481,61; 7177,761;  427,220;19623,948;35,16506
 482,20; 7626,142;  402,759;21085,914;34,92399
 482,78; 7969,549;  430,835;21954,642;35,02500
 483,37; 8161,399;  426,067;22596,938;34,88962
 483,95; 8226,858;  467,682;22944,483;34,52082
 484,54; 8319,749;  469,528;23172,093;34,57856
 485,13; 8257,720;  424,144;23124,287;34,50893
 485,71; 8171,378;  411,144;22818,856;34,63198
 486,30; 8073,044;  465,683;22565,285;34,42307
 486,88; 7991,413;  504,760;22140,077;34,60385
 487,47; 7709,936;  466,067;21368,715;34,65527
 488,05; 7330,791;  464,914;20435,710;34,37959
 488,64; 6879,936;  454,068;18991,667;34,66397
 489,23; 6207,571;  473,221;17028,381;34,63784
 489,81; 5362,273;  461,068;14526,734;34,84517
 490,40; 5057,323;  440,991;13733,035;34,73003
 490,98; 4978,908;  404,222;13483,353;34,97699
 491,57; 4923,236;  431,221;13319,087;34,85460
 492,15; 4916,881;  399,299;13245,665;35,16623
 492,74; 4839,829;  414,683;13120,992;34,82637
 493,32; 4796,191;  428,222;12954,813;34,86958
 493,91; 4734,300;  403,530;12888,143;34,68886
 494,50; 4709,874;  408,992;12847,480;34,57721
 495,08; 4681,541;  388,915;12763,401;34,68933
 495,67; 4703,750;  412,837;12789,826;34,66847
 496,25; 4608,215;  363,530;12637,756;34,58210
 496,84; 4582,738;  361,760;12601,489;34,48587
 497,42; 4564,328;  371,991;12562,506;34,39015
 498,01; 4553,441;  400,914;12465,940;34,41789
 498,59; 4463,801;  356,145;12409,745;34,07824
 499,18; 4479,683;  343,606;12340,882;34,47514
 499,76; 4464,048;  378,837;12280,311;34,32525
 500,35; 4371,806;  361,146;12071,485;34,24888
 500,93; 4286,110;  352,376;12000,883;33,77029
 501,52; 4275,506;  353,068;11926,651;33,89130
 502,10; 4265,286;  370,453;11898,468;33,78581
 502,69; 4187,563;  353,300;11710,581;33,76040
 503,27; 4086,476;  335,761;11464,256;33,70370
 503,86; 4054,091;  355,377;11364,448;33,59697
 504,44; 3984,163;  325,146;11265,671;33,44462
 505,03; 3882,714;  321,761;11008,413;33,32150
 505,61; 3828,191;  351,300;10841,379;33,14456
 506,19; 3757,907;  353,838;10664,889;33,01379
 506,78; 3696,485;  333,531;10486,963;33,12135
 507,36; 3605,356;  329,761;10248,081;33,02570
 507,95; 3543,454;  341,531;10076,317;32,89156
 508,53; 3499,793;  335,069; 9980,666;32,81003
 509,12; 3449,263;  331,377; 9830,527;32,82279
 509,70; 3403,594;  355,839; 9687,006;32,66210
 510,29; 3364,306;  367,839; 9511,395;32,77136
 510,87; 3221,459;  319,454; 9273,182;32,41114
 511,46; 3198,957;  314,454; 9087,952;32,87746
 512,04; 3126,066;  323,993; 8935,610;32,53829
 512,62; 3109,546;  336,608; 8793,766;32,78807
 513,21; 3002,293;  313,685; 8608,556;32,41289
 513,79; 2933,288;  320,224; 8477,134;32,03497
 514,38; 2901,166;  309,839; 8319,811;32,35125
 514,96; 2899,603;  350,455; 8173,896;32,58346
 515,54; 2776,663;  303,147; 8027,878;32,02073
 516,13; 2780,572;  332,301; 7919,173;32,26983
 516,71; 2681,987;  322,532; 7769,944;31,68155
 517,30; 2672,878;  298,071; 7663,719;32,24166
 517,88; 2615,917;  328,378; 7554,196;31,65786
 518,46; 2573,452;  307,225; 7372,864;32,07392
 519,05; 2525,422;  313,686; 7362,833;31,37593
 519,63; 2498,719;  330,609; 7289,941;31,15399
 520,22; 2484,657;  341,764; 7235,244;31,08580
 520,80; 2467,053;  329,456; 7171,494;31,24211
 521,38; 2483,190;  368,225; 7145,341;31,20745
 521,97; 2423,253;  314,610; 7036,002;31,37212
 522,55; 2390,215;  333,764; 7019,392;30,75928
 523,13; 2398,313;  310,072; 7017,292;31,13424
 523,72; 2377,338;  324,763; 6992,802;30,78228
 524,30; 2429,732;  343,149; 7161,991;30,60025
 524,89; 2375,034;  304,225; 7158,944;30,20998
 525,47; 2390,024;  326,610; 7275,563;29,69389
 526,05; 2389,331;  295,303; 7303,368;29,88026
 526,64; 2435,533;  339,841; 7421,475;29,59333
 527,22; 2454,730;  332,072; 7546,546;29,42221
 527,80; 2518,610;  367,457; 7670,496;29,45560
 528,39; 2471,811;  329,149; 7770,418;28,79431
 528,97; 2514,057;  320,226; 7948,770;28,75819
 529,55; 2560,724;  343,072; 8102,468;28,58021
 530,14; 2636,718;  343,303; 8349,431;28,64575
 530,72; 2621,108;  320,149; 8430,507;28,37062
 531,30; 2660,807;  313,226; 8595,835;28,34350
 531,89; 2692,320;  335,995; 8704,659;28,15652
 532,47; 2739,728;  361,995; 8766,677;28,29057
 533,05; 2733,175;  344,457; 8865,220;28,03408
 533,63; 2731,303;  346,611; 8907,247;27,85648
 534,22; 2751,188;  331,995; 8954,319;28,05731
 534,80; 2765,898;  358,457; 9062,031;27,66037
 535,38; 2896,703;  462,380; 9153,311;28,00993
 535,97; 2781,573;  339,303; 9073,282;27,96286
 536,55; 2820,076;  404,688; 9141,176;27,64713
 537,13; 2780,039;  389,765; 9117,163;27,38816
 537,71; 2813,258;  442,841; 9165,067;27,17674
 538,30; 2851,992;  462,534; 9232,078;27,24724
 538,88; 2894,198;  507,150; 9329,741;27,05610
 539,46; 2971,552;  566,765; 9580,882;26,67801
 540,05; 3025,278;  568,457; 9683,822;26,95252
 540,63; 3108,214;  635,150; 9859,938;26,80890
 541,21; 3113,004;  678,765;10079,126;25,89516
 541,79; 3206,978;  715,458;10197,104;26,27730
 542,38; 3236,420;  737,842;10344,572;26,00862
 542,96; 3267,985;  758,535;10519,960;25,70782
 543,54; 3322,620;  798,765;10726,772;25,42157
 544,12; 3345,233;  755,611;10843,624;25,67029
 544,70; 3333,446;  724,150;11007,017;25,37517
 545,29; 3401,099;  743,919;11143,051;25,55195
 545,87; 3375,055;  728,227;11130,642;25,44436
 546,45; 3329,074;  662,688;11209,510;25,28142
 547,03; 3335,853;  636,381;11320,207;25,26690
 547,62; 3333,721;  623,458;11427,589;25,08543
 548,20; 3377,293;  612,458;11616,914;25,12469
 548,78; 3362,931;  570,612;11702,509;25,08395
 549,36; 3379,036;  527,843;11946,813;24,96891
 549,94; 3371,668;  497,458;12052,705;24,87363
 550,53; 3411,128;  508,535;12297,713;24,62083
 551,11; 3451,634;  456,843;12500,467;24,86619
 551,69; 3506,010;  475,766;12827,954;24,53205
 552,27; 3500,862;  425,843;13101,127;24,25997
 552,85; 3582,813;  448,612;13394,807;24,20944
 553,44; 3639,177;  427,920;13822,091;23,97504
 554,02; 3712,470;  442,997;14171,037;23,81602
 554,60; 3731,710;  393,381;14486,437;23,68775
 555,18; 3820,241;  425,074;14833,252;23,56417
 555,76; 3876,329;  405,227;15243,010;23,39366
 556,34; 3948,383;  409,689;15644,974;23,22696
 556,93; 4019,984;  403,689;16067,825;23,08646
 557,51; 4063,152;  383,535;16371,271;23,01524
 558,09; 4134,330;  398,458;16823,753;22,74463
 558,67; 4213,429;  398,228;17286,405;22,59096
 559,25; 4285,073;  418,612;17511,134;22,62077
 559,83; 4338,951;  395,459;17784,310;22,67828
 560,41; 4382,693;  382,228;18174,419;22,48439
 561,00; 4446,762;  388,459;18549,965;22,34563
 561,58; 4509,719;  386,920;18843,923;22,33732
 562,16; 4536,595;  366,920;19166,616;22,17948
 562,74; 4589,123;  373,689;19516,263;22,02125
 563,32; 4702,208;  366,920;19976,496;22,10801
 563,90; 4817,596;  393,228;20355,223;22,16396
 564,48; 4884,387;  394,535;20778,172;22,02674
 565,06; 4973,289;  391,536;21432,254;21,77565
 565,65; 5156,520;  395,074;22141,774;21,89503
 566,23; 5369,031;  434,689;22974,729;21,89145
 566,81; 5481,407;  376,459;23711,474;21,87677
 567,39; 5679,988;  395,920;24759,639;21,68826
 567,97; 5810,726;  414,305;25391,636;21,60527
 568,55; 6056,490;  438,151;26242,638;21,77272
 569,13; 6164,262;  396,997;26996,642;21,68174
 569,71; 6367,005;  395,612;28048,187;21,59435
 570,29; 6640,920;  443,304;29185,115;21,56307
 570,87; 6799,738;  421,920;29874,540;21,65450
 571,45; 6914,558;  415,228;30608,162;21,52600
 572,03; 6953,524;  384,228;31075,127;21,40470
 572,61; 7126,657;  374,305;31880,467;21,43185
 573,20; 7300,870;  404,074;32506,591;21,48366
 573,78; 7415,143;  400,690;33253,931;21,35087
 574,36; 7543,902;  415,382;33783,096;21,36353
 574,94; 7612,215;  476,767;34244,999;21,13065
 575,52; 7588,372;  404,998;34467,360;21,08889
 576,10; 7712,606;  470,075;35097,174;20,91579
 576,68; 7777,948;  458,382;35679,516;20,78174
 577,26; 7961,111;  484,459;36378,436;20,82982
 577,84; 8040,299;  486,382;36892,663;20,74894
 578,42; 8118,456;  533,305;37334,737;20,61102
 579,00; 8108,772;  480,536;37432,211;20,64382
 579,58; 8109,587;  553,613;37662,247;20,36177
 580,16; 8041,262;  476,459;37643,229;20,35367
 580,74; 8070,672;  493,382;37934,462;20,23790
 581,32; 8033,790;  504,997;37941,953;20,11059
 581,90; 7986,352;  534,074;37886,443;19,95129
 582,48; 7958,429;  493,074;37978,125;19,91555
 583,06; 7948,368;  513,997;38082,748;19,78871
 583,64; 7954,728;  506,690;38192,977;19,76326
 584,22; 7832,665;  520,921;38007,018;19,50521
 584,80; 7697,302;  520,382;37699,803;19,30347
 585,38; 7602,884;  535,689;37182,143;19,28480
 585,96; 7562,193;  507,074;37303,319;19,17348
 586,54; 7503,102;  532,998;37289,585;18,96287
 587,12; 7436,580;  489,151;37378,362;18,83323
 587,70; 7435,218;  525,536;37591,860;18,64140
 588,28; 7346,375;  495,921;37551,010;18,48722
 588,86; 7341,232;  504,767;37577,998;18,44044
 589,44; 7297,107;  485,998;37621,756;18,34111
 590,02; 7305,789;  485,229;37828,018;18,26473
 590,59; 7264,423;  469,767;38066,568;18,07243
 591,17; 7300,827;  471,306;38207,667;18,09798
 591,75; 7238,038;  456,767;38259,068;17,93878
 592,33; 7295,670;  472,075;38548,440;17,92081
 592,91; 7251,227;  430,306;38785,336;17,78364
 593,49; 7291,453;  450,768;39131,722;17,68489
 594,07; 7295,927;  458,845;39328,397;17,58982
 594,65; 7238,627;  467,844;39295,967;17,43783
 595,23; 7294,776;  461,459;39631,748;17,44515
 595,81; 7257,440;  455,690;39849,567;17,26601
 596,39; 7277,363;  436,229;40000,163;17,29134
 596,97; 7277,355;  434,844;40186,852;17,21299
 597,55; 7257,676;  439,536;40022,171;17,22508
 598,12; 7216,040;  401,845;40086,465;17,17087
 598,70; 7182,033;  424,691;40277,126;16,95591
 599,28; 7217,071;  444,075;40389,814;16,95549
 599,86; 7159,367;  403,537;40383,784;16,89792
 600,44; 7121,620;  389,768;40502,725;16,78224
 601,02; 7161,134;  457,153;40608,070;16,69696
 601,60; 7095,256;  418,152;40572,547;16,62858
 602,18; 7078,733;  402,075;40485,408;16,65694
 602,75; 7054,877;  397,075;40660,796;16,53549
 603,33; 7039,174;  416,460;40658,067;16,45738
 603,91; 7053,549;  415,229;40632,465;16,50615
 604,49; 7032,058;  426,075;40747,359;16,38336
 605,07; 7022,295;  434,844;40712,639;16,35504
 605,65; 6999,119;  442,306;40838,536;16,23125
 606,23; 7003,527;  508,536;40918,939;16,07257
 606,80; 7012,698;  561,460;41046,312;15,93494
 607,38; 7008,563;  613,922;41016,796;15,82719
 607,96; 7027,249;  664,921;41122,834;15,72579
 608,54; 7017,863;  717,229;41174,129;15,57369
 609,12; 6987,736;  719,844;41189,923;15,48772
 609,70; 7040,265;  760,537;41228,311;15,51785
 610,27; 6983,173;  774,229;41232,556;15,34652
 610,85; 6949,060;  797,229;41492,430;15,11685
 611,43; 6894,943;  795,768;41461,077;14,99847
 612,01; 6871,655;  757,844;41113,262;15,14991
 612,59; 6799,252;  760,075;41165,492;14,94645
 613,16; 6771,844;  706,690;41118,502;15,00837
 613,74; 6699,904;  702,998;40902,446;14,91788
 614,32; 6728,888;  651,768;40911,449;15,09481
 614,90; 6646,870;  595,921;40757,891;15,06636
 615,48; 6545,842;  535,998;40502,990;15,03702
 616,05; 6466,179;  511,305;40439,642;14,91390
 616,63; 6438,284;  513,998;40223,755;14,91897
 617,21; 6385,391;  502,767;40103,276;14,85492
 617,79; 6321,722;  488,152;39992,592;14,76687
 618,36; 6292,269;  495,152;40032,078;14,66254
 618,94; 6181,598;  426,690;39583,602;14,69704
 619,52; 6136,475;  456,998;39402,028;14,58332
 620,10; 6091,184;  437,998;39260,709;14,56154
 620,67; 6052,553;  449,998;39154,750;14,47511
 621,25; 6024,705;  473,229;39028,959;14,39858
 621,83; 5983,764;  436,459;39019,036;14,37775
 622,41; 5988,175;  486,459;38998,617;14,28566
 622,98; 5895,143;  453,998;38655,738;14,24319
 623,56; 5915,080;  451,459;38689,752;14,28835
 624,14; 5857,202;  436,383;38565,257;14,21710
 624,72; 5797,637;  423,075;38417,376;14,14570
 625,29; 5838,350;  413,228;38549,823;14,22550
 625,87; 5771,901;  452,075;38466,768;13,99413
 626,45; 5685,621;  417,690;38324,418;13,89709
 627,02; 5713,759;  413,921;38215,566;14,02013
 627,60; 5623,941;  397,614;38124,708;13,85298
 628,18; 5573,813;  398,613;38188,077;13,69482
 628,76; 5563,860;  383,921;38171,663;13,70799
 629,33; 5557,113;  422,305;38249,420;13,57441
 629,91; 5526,184;  401,306;38177,171;13,56654
 630,49; 5529,576;  425,075;38312,394;13,47285
 631,06; 5509,206;  399,536;38459,946;13,42516
 631,64; 5468,569;  407,536;38377,420;13,32907
 632,22; 5403,111;  372,459;38333,157;13,25226
 632,79; 5456,842;  403,844;38654,767;13,21013
 633,37; 5403,962;  375,383;38673,637;13,13005
 633,95; 5434,916;  399,382;38688,532;13,15133
 634,52; 5437,188;  362,536;38788,128;13,20644
 635,10; 5435,801;  379,921;38818,740;13,15306
 635,68; 5402,354;  384,382;39091,668;12,96390
 636,25; 5373,758;  348,459;39013,900;12,99687
 636,83; 5406,553;  341,844;39254,663;13,01553
 637,41; 5406,741;  358,074;39293,257;12,96685
 637,98; 5440,741;  395,997;39488,277;12,90471
 638,56; 5392,144;  373,766;39592,038;12,79602
 639,13; 5364,336;  359,767;39617,369;12,74803
 639,71; 5469,731;  429,536;39867,578;12,78003
 640,29; 5313,509;  329,459;39557,844;12,70521
 640,86; 5365,660;  337,459;39866,978;12,72012
 641,44; 5326,504;  341,459;39749,882;12,64969
 642,02; 5337,963;  373,998;39841,248;12,57743
 642,59; 5326,191;  345,844;39929,613;12,58179
 643,17; 5286,727;  343,844;39862,363;12,50776
 643,74; 5280,955;  356,229;40024,498;12,41477
 644,32; 5299,183;  364,305;39884,633;12,48694
 644,89; 5240,873;  380,382;39880,613;12,30497
 645,47; 5303,178;  377,306;39927,671;12,45468
 646,05; 5273,021;  378,690;39771,883;12,42431
 646,62; 5224,634;  358,229;39776,710;12,34549
 647,20; 5216,093;  372,613;40027,844;12,21397
 647,77; 5178,783;  323,690;39774,671;12,30665
 648,35; 5147,934;  338,306;39734,806;12,20826
 648,92; 5135,854;  362,767;39749,556;12,11850
 649,50; 5077,467;  326,767;39723,537;12,05860
 650,08; 5060,080;  319,152;39597,133;12,07019
 650,65; 5078,154;  338,229;39806,883;12,00934
 651,23; 5177,690;  308,613;40523,556;12,10763
 651,80; 5276,379;  314,690;41572,076;12,02618
 652,38; 5358,684;  340,998;42139,134;12,00457
 652,95; 5354,451;  312,690;42491,191;11,95339
 653,53; 5430,602;  336,844;42725,403;12,01682
 654,10; 5470,907;  372,767;42924,076;11,98116
 654,68; 5385,674;  320,306;42958,749;11,87981
 655,25; 5413,363;  305,075;42979,038;11,97050
 655,83; 5355,284;  310,767;43076,096;11,79581
 656,40; 5397,204;  351,229;43029,615;11,82326
 656,98; 5348,817;  322,536;42980,134;11,78285
 657,55; 5319,891;  331,383;42797,653;11,74699
 658,13; 5237,427;  323,921;42315,634;11,70113
 658,70; 5227,271;  345,998;42061,846;11,70124
 659,28; 5079,422;  321,613;41245,134;11,62610
 659,85; 4935,881;  363,075;40283,654;11,45476
 660,43; 4958,955;  353,844;40271,481;11,53653
 661,00; 4931,337;  327,229;40364,000;11,49970
 661,58; 4962,180;  330,998;40789,904;11,44663
 662,15; 4964,870;  313,613;40976,577;11,43856
 662,73; 5036,560;  400,767;41189,404;11,36540
 663,30; 5038,480;  332,306;41358,231;11,47122
 663,88; 5041,093;  340,075;41627,827;11,38599
 664,45; 5025,244;  323,306;41799,654;11,33643
 665,03; 5106,934;  330,537;42283,712;11,38507
 665,60; 5193,700;  421,229;42625,539;11,30802
 666,17; 5131,236;  337,921;42882,597;11,26654
 666,75; 5134,849;  329,844;43106,808;11,23269
 667,32; 5226,231;  355,075;43540,174;11,27971
 667,90; 5219,997;  335,229;43712,232;11,26119
 668,47; 5261,841;  353,152;44033,059;11,23786
 669,05; 5248,761;  342,998;44464,809;11,11868
 669,62; 5252,913;  308,152;44406,866;11,21294
 670,19; 5258,141;  315,614;44558,386;11,17138
 670,77; 5297,215;  329,537;44717,136;11,19159
 671,34; 5289,828;  323,844;44691,271;11,19286
 671,92; 5322,056;  313,844;45045,174;11,19620
 672,49; 5311,669;  344,152;45031,386;11,11619
 673,06; 5279,897;  284,383;45040,982;11,16151
 673,64; 5259,125;  308,768;45137,117;11,04292
 674,21; 5274,353;  298,921;45004,175;11,12941
 674,79; 5347,581;  343,844;45090,848;11,18228
 675,36; 5365,271;  348,229;45406,675;11,13452
 675,93; 5293,653;  300,614;45173,579;11,12705
 676,51; 5326,573;  325,614;45442,175;11,08453
 677,08; 5297,263;  331,691;45470,233;11,00074
 677,65; 5335,106;  327,383;45691,906;11,03885
 678,23; 5376,873;  321,998;45811,964;11,11206
 678,80; 5400,332;  312,383;45922,252;11,15537
 679,38; 5370,483;  320,614;46120,387;11,02597
 679,95; 5429,019;  342,998;46345,906;11,05587
 680,52; 5436,862;  323,229;46650,426;11,03808
 681,10; 5538,090;  336,922;47022,099;11,14094
 681,67; 5563,703;  321,383;47271,387;11,16575
 682,24; 5533,239;  298,998;47420,291;11,10802
 682,82; 5630,390;  321,614;48009,426;11,13235
 683,39; 5734,772;  360,614;48324,714;11,20454
 683,96; 5719,462;  315,922;48574,618;11,19703
 684,54; 5706,690;  290,922;48919,907;11,13691
 685,11; 5805,456;  362,537;49357,657;11,10911
 685,68; 5854,992;  312,922;49743,099;11,21192
 686,25; 5861,451;  300,691;49868,234;11,21855
 686,83; 5848,372;  302,537;50029,984;11,15246
 687,40; 5933,907;  290,768;50350,273;11,27286
 687,97; 5992,443;  337,229;50784,100;11,21024
 688,55; 5931,825;  289,152;50812,696;11,16840
 689,12; 5973,899;  268,768;51034,754;11,23810
 689,69; 5982,358;  280,922;51179,888;11,20148
 690,26; 5995,740;  305,306;51292,023;11,16062
 690,84; 6051,738;  304,152;51454,850;11,23657
 691,41; 6071,658;  328,768;51484,292;11,22633
 691,98; 6161,271;  317,460;51986,889;11,31000
 692,56; 6123,653;  302,614;51976,946;11,26486
 693,13; 6162,881;  354,153;51992,235;11,24892
 693,70; 6175,570;  338,845;52201,446;11,25421
 694,27; 6192,106;  302,306;52258,120;11,33617
 694,84; 6187,104;  305,383;52328,793;11,30591
 695,42; 6256,178;  350,153;52485,927;11,32816
 695,99; 6267,483;  325,922;52709,447;11,34242
 696,56; 6258,403;  319,614;52611,351;11,35703
 697,13; 6372,401;  330,922;53014,255;11,46753
 697,71; 6371,937;  315,383;52912,543;11,51498
 698,28; 6375,319;  312,306;53340,832;11,43349
 698,85; 6369,700;  271,383;53352,505;11,48867
 699,42; 6393,929;  289,306;53546,332;11,46257
 699,99; 6478,772;  330,691;53633,159;11,53433
 700,57; 6481,077;  333,076;53746,447;11,51023
 701,14; 6541,921;  300,076;53950,351;11,63432
 701,71; 6550,072;  328,230;54138,717;11,56251
 702,28; 6592,531;  312,383;54159,082;11,66301
 702,85; 6579,990;  320,076;54152,140;11,62860
 703,43; 6642,910;  344,230;54391,505;11,65402
 704,00; 6703,369;  356,999;54785,640;11,65998
 704,57; 6704,597;  317,768;54585,775;11,76905
 705,14; 6760,748;  347,614;54896,217;11,75673
 705,71; 6759,976;  359,460;55010,352;11,71164
 706,28; 6736,051;  321,614;54776,486;11,77936
 706,86; 6815,971;  356,537;55044,160;11,81151
 707,43; 6845,661;  382,537;55050,294;11,82255
 708,00; 6889,812;  368,307;54998,506;11,93755
 708,57; 6835,117;  327,999;54883,333;11,92756
 709,14; 6911,730;  368,153;55061,006;11,96423
 709,71; 6877,496;  341,922;55216,448;11,91003
 710,28; 6958,417;  339,076;55355,198;12,03164
 710,86; 6941,568;  333,537;55542,795;11,96906
 711,43; 7038,181;  367,307;55540,160;12,09086
 712,00; 7033,870;  330,922;55606,603;12,12640
 712,57; 7050,791;  352,153;55794,660;12,08213
 713,14; 7069,865;  328,691;55898,564;12,13099
 713,71; 7083,016;  334,845;55722,776;12,18347
 714,28; 7076,706;  327,307;55845,834;12,15702
 714,85; 7045,549;  307,691;55541,968;12,19869
 715,42; 7127,008;  312,691;55781,718;12,28490
 716,00; 7250,159;  393,307;55979,468;12,33554
 716,57; 7164,695;  303,922;56016,295;12,31463
 717,14; 7189,308;  307,922;55996,738;12,35685
 717,71; 7213,536;  284,538;55959,334;12,44549
 718,28; 7289,918;  347,153;56105,776;12,45146
 718,85; 7274,992;  288,845;56184,988;12,49844
 719,42; 7337,605;  320,384;56333,123;12,52790
 719,99; 7333,526;  288,076;55964,488;12,65428
 720,56; 7377,061;  333,999;56330,546;12,57767
 721,13; 7390,674;  284,922;56486,142;12,64341
 721,70; 7387,825;  299,538;56392,277;12,63673
 722,27; 7429,515;  322,768;56368,412;12,68028
 722,84; 7556,128;  379,307;56552,008;12,77635
 723,41; 7453,971;  280,692;56514,373;12,75620
 723,98; 7530,430;  304,845;56814,431;12,78648
 724,55; 7579,735;  329,153;56876,104;12,82223
 725,12; 7499,117;  266,538;56644,854;12,82865
 725,69; 7580,114;  303,922;56881,066;12,86066
 726,27; 7647,189;  300,307;57136,354;12,92645
 726,84; 7731,417;  305,076;57442,412;12,99735
 727,41; 7768,953;  330,153;57266,470;13,06512
 727,98; 7791,488;  322,999;57616,451;13,03550
 728,55; 7804,870;  343,153;57487,893;13,05757
 729,12; 7873,098;  297,538;57735,335;13,18916
 729,69; 7935,096;  323,307;57807,086;13,24163
 730,26; 7943,785;  317,461;58049,451;13,20988
 730,82; 7942,014;  309,769;57961,201;13,23860
 731,39; 7970,857;  321,307;58115,182;13,23592
 731,96; 8069,931;  297,922;58340,701;13,39014
 732,53; 8116,467;  323,769;58578,221;13,37700
 733,10; 8184,849;  333,384;58591,817;13,47696
 733,67; 8196,077;  334,461;58880,644;13,42806
 734,24; 8221,228;  297,538;58516,778;13,61009
 734,81; 8282,687;  344,076;58560,067;13,63648
 735,38; 8237,454;  323,846;58250,663;13,66139
 735,95; 8234,990;  319,846;58131,798;13,69119
 736,52; 8336,449;  343,076;58342,317;13,78186
 737,09; 8315,677;  338,230;57876,683;13,86455
 737,66; 8401,289;  382,230;58164,587;13,87804
 738,23; 8444,056;  313,769;58244,414;14,03452
 738,80; 8540,361;  406,923;58651,394;13,96431
 739,37; 8547,589;  368,153;58750,068;14,01022
 739,94; 8592,510;  331,538;58793,741;14,13045
 740,51; 8731,584;  468,769;58906,260;14,13958
 741,07; 8620,966;  327,230;58845,318;14,17294
 741,64; 8744,963;  364,692;59040,222;14,28240
 742,21; 8751,422;  337,615;59047,818;14,33108
 742,78; 8752,958;  301,461;58832,106;14,43944
 743,35; 8850,725;  327,538;59096,395;14,50290
 743,92; 8930,260;  357,923;59376,299;14,52486
 744,49; 8945,335;  378,846;59166,818;14,57184
 745,06; 8942,486;  322,077;59086,568;14,66942
 745,63; 8983,329;  308,000;59223,857;14,72495
 746,19; 8984,788;  322,461;59089,145;14,74020
 746,76; 8991,170;  324,153;59240,203;14,71079
 747,33; 9052,321;  325,846;59194,645;14,82360
 747,90; 9125,473;  341,000;59470,857;14,85624
 748,47; 9143,470;  332,230;59330,453;14,93475
 749,04; 9145,698;  333,692;59319,819;14,93912
 749,61; 9217,618;  369,846;59306,184;15,01242
 750,17; 9267,923;  336,769;59323,857;15,14086
 750,74; 9253,613;  337,384;59244,377;15,13611
 751,31; 9214,149;  302,923;59212,819;15,12687
 751,88; 9249,839;  294,307;59139,569;15,21878
 752,45; 9316,528;  313,846;59343,396;15,25115
 753,02; 9338,756;  347,923;59170,762;15,28460
 753,58; 9354,985;  313,615;58968,665;15,41448
 754,15; 9408,443;  310,000;59192,492;15,45187
 754,72; 9400,056;  313,384;58972,473;15,49065
 755,29; 9375,207;  294,923;58806,146;15,51888
 755,86; 9473,205;  312,615;58917,820;15,63102
 756,42; 9530,202;  322,077;58767,493;15,75509
 756,99; 9504,276;  277,307;58638,012;15,81024
 757,56; 9478,966;  283,538;58724,531;15,73455
 758,13; 9499,425;  233,231;58577,743;15,88186
 758,70; 9600,807;  266,923;58638,031;15,99059
 759,26; 9596,112;  253,846;58751,628;15,97029
 759,83; 9608,494;  272,077;58881,378;15,92992
 760,40; 9654,260;  241,692;58659,512;16,11249
 760,97; 9657,796;  233,231;58654,801;16,13200
 761,53; 9571,409;  228,231;58259,551;16,10023
 762,10; 9604,714;  224,154;58296,917;16,15312
 762,67; 9635,404;  262,000;58249,897;16,16441
 763,24; 9614,170;  224,077;57759,955;16,32041
 763,80; 9680,706;  252,846;57950,782;16,34003
 764,37; 9654,934;  259,923;57953,225;16,28441
 764,94; 9599,547;  254,692;57446,513;16,33949
 765,50; 9605,160;  239,231;57460,494;16,36792
 766,07; 9671,003;  287,231;57560,705;16,38415
 766,64; 9618,770;  259,615;57201,302;16,43638
 767,21; 9696,536;  274,923;57079,436;16,58603
 767,77; 9661,841;  295,231;57075,186;16,49633
 768,34; 9665,223;  300,385;57003,013;16,51570
 768,91; 9708,067;  294,308;56727,148;16,68135
 769,47; 9661,218;  301,231;56822,283;16,56018
 770,04; 9724,754;  295,769;56639,264;16,73482
 770,61; 9683,059;  284,615;56498,783;16,71899
 771,18; 9683,672;  284,000;56278,379;16,78681
 771,74; 9761,284;  288,231;56579,437;16,82866
 772,31; 9723,743;  305,385;56189,802;16,85328
 772,88; 9683,587;  272,077;55945,783;16,90477
 773,44; 9704,199;  285,462;55766,226;16,97658
 774,01; 9757,197;  304,692;55961,668;16,98350
 774,58; 9734,502;  287,000;55467,957;17,12095
 775,14; 9784,345;  272,846;55696,091;17,16157
 775,71; 9796,497;  274,539;55600,149;17,21076
 776,27; 9902,725;  344,462;55466,053;17,34032
 776,84; 9981,260;  388,308;55656,265;17,35717
 777,41; 9878,104;  303,616;55321,015;17,40266
 777,97; 9834,024;  272,616;55000,149;17,47093
 778,54; 9846,791;  301,385;55050,822;17,43471
 779,11; 9890,327;  325,616;55068,880;17,47194
 779,67; 9904,709;  285,000;55038,553;17,56910
 780,24; 9887,321;  295,769;54777,765;17,60499
 780,80; 9927,011;  309,462;54927,592;17,60871
 781,37; 9955,085;  315,000;54811,111;17,68949
 781,94; 9928,698;  308,693;54498,784;17,75233
 782,50; 9979,542;  301,308;54345,765;17,90791
 783,07;10006,924;  319,923;54492,054;17,88189
 783,63; 9991,382;  289,462;54200,958;17,99601
 784,20;10069,995;  306,693;54244,862;18,10092
 784,77;10059,762;  294,231;54086,612;18,15412
 785,33;10026,759;  263,846;53817,593;18,23012
 785,90;10088,449;  292,693;53804,035;18,30594
 786,46;10134,446;  319,846;53659,862;18,40007
 787,03;10106,290;  278,539;53536,766;18,45302
 787,59;10132,672;  294,693;53378,285;18,53299
 788,16;10182,361;  285,154;53344,420;18,65312
 788,73;10152,589;  297,539;53208,939;18,62557
 789,29;10175,818;  274,462;52859,458;18,82924
 789,86;10118,738;  318,385;52656,439;18,72510
 790,42;10151,428;  284,231;52592,420;18,86358
 790,99;10126,040;  301,923;52334,862;18,88057
 791,55;10109,730;  288,539;52213,074;18,91436
 792,12;10225,497;  318,462;52249,901;19,07714
 792,68;10164,186;  297,693;51828,267;19,14687
 793,25;10136,414;  305,308;51771,094;19,10222
 793,81;10198,642;  390,231;51371,228;19,23935
 794,38;10066,178;  261,924;51072,901;19,29554
 794,94;10104,637;  279,154;50907,728;19,40699
 795,51;10085,404;  288,077;50757,094;19,41256
 796,07;10078,632;  292,077;50415,844;19,52478
 796,64;10119,706;  292,385;50582,902;19,54110
 797,20;10053,703;  310,385;49989,883;19,61235
 797,77;10015,855;  264,001;49579,171;19,77455
 798,33;10040,237;  294,539;49574,921;19,77602
 798,90;10063,926;  309,539;49464,979;19,84396
 799,46; 9999,308;  273,693;48984,883;19,96588
 800,03; 9992,998;  294,231;48894,710;19,95611
 800,59;10010,303;  288,616;48555,152;20,14167
 801,15;10004,608;  311,539;48497,056;20,11615
 801,72; 9973,375;  296,924;48028,345;20,27271
 802,28; 9893,757;  312,385;47755,941;20,19531
 802,85; 9926,292;  285,847;47556,768;20,39403
 803,41; 9858,674;  288,001;47328,056;20,34580
 803,98; 9858,133;  279,308;46980,806;20,51074
 804,54; 9845,131;  278,308;46717,787;20,60062
 805,11; 9806,820;  297,693;46456,614;20,60084
 805,67; 9819,741;  311,462;46437,518;20,61368
 806,23; 9767,661;  299,385;45931,268;20,74926
 806,80; 9810,428;  309,231;45820,249;20,87669
 807,36; 9787,194;  313,001;45797,615;20,82945
 807,93; 9837,653;  322,847;45528,057;21,04803
 808,49; 9742,804;  289,770;45086,653;21,10199
 809,05; 9748,879;  270,078;44936,249;21,22143
 809,62; 9786,337;  297,616;44852,307;21,29680
 810,18; 9725,489;  296,155;44766,211;21,20378
 810,74; 9690,101;  258,385;44459,500;21,33819
 811,31; 9714,022;  258,924;44243,634;21,49633
 811,87; 9733,173;  283,001;44068,846;21,58271
 812,44; 9843,478;  314,078;44003,058;21,81191
 813,00; 9717,629;  243,309;43807,115;21,74815
 813,56; 9825,396;  286,847;43819,712;21,91114
 814,13; 9836,547;  275,539;43770,538;21,98186
 814,69; 9808,467;  270,616;43553,981;22,03584
 815,25; 9683,388;  243,001;43104,731;22,02521
 815,82; 9764,770;  287,616;43037,173;22,16901
 816,38; 9804,075;  322,847;42924,770;22,25540
 816,94; 9742,149;  247,309;42650,750;22,39167
 817,51; 9694,916;  250,693;42287,039;22,46680
 818,07; 9640,298;  254,232;42149,789;22,40349
 818,63; 9669,141;  268,232;41827,770;22,62034
 819,20; 9708,754;  272,847;41797,135;22,72383
 819,76; 9596,521;  249,616;41386,808;22,72130
 820,32; 9699,441;  299,847;41280,405;22,93672
 820,89; 9704,823;  287,693;41097,693;23,07554
 821,45; 9635,743;  264,232;40781,443;23,12971
 822,01; 9552,356;  276,847;40505,347;23,05706
 822,57; 9593,661;  282,924;40350,174;23,23777
 823,14; 9496,274;  248,847;40103,847;23,20268
 823,70; 9514,348;  256,463;39804,367;23,40930
 824,26; 9520,422;  254,924;39677,655;23,50293
 824,82; 9568,958;  279,001;39539,482;23,66236
 825,39; 9519,263;  261,078;39160,155;23,80053
 825,95; 9539,953;  271,616;39187,982;23,81604
 826,51; 9571,027;  279,232;38892,117;24,06398
 827,08; 9553,794;  303,078;38838,252;24,00590
 827,64; 9524,868;  289,616;38783,309;23,99160
 828,20; 9458,096;  254,616;38231,675;24,23431
 828,76; 9566,324;  281,078;38318,271;24,41097
 829,32; 9585,245;  306,540;38212,867;24,47798
 829,89; 9597,781;  242,232;38075,310;24,72849
 830,45; 9601,316;  273,770;37933,521;24,76794
 831,01; 9610,006;  281,463;37882,425;24,80932
 831,57; 9624,311;  260,078;37700,252;25,01119
 832,14; 9628,155;  253,001;37611,002;25,09544
 832,70; 9615,075;  249,232;37460,906;25,16910
 833,26; 9635,688;  231,693;37300,041;25,36934
 833,82; 9694,762;  262,847;37248,099;25,50183
 834,38; 9672,836;  253,540;37196,080;25,49715
 834,95; 9622,987;  244,078;37014,983;25,50633
 835,51; 9627,216;  220,078;36893,349;25,65121
 836,07; 9725,982;  259,232;36913,791;25,82694
 836,63; 9748,210;  276,540;36964,849;25,81659
 837,19; 9753,438;  264,694;36823,138;25,95500
 837,75; 9692,205;  225,617;36588,195;26,03388
 838,32; 9770,587;  281,694;36579,945;26,14146
 838,88; 9792,738;  286,309;36594,234;26,18279
 839,44; 9828,812;  263,155;36528,138;26,37712
 840,00; 9850,810;  277,001;36482,426;26,44302
 840,56; 9771,499;  258,540;36065,407;26,56742
 841,12; 9826,112;  247,924;36118,619;26,70199
 841,68; 9795,109;  232,078;35960,446;26,76593
 842,25; 9830,645;  251,386;35870,504;26,89359
 842,81; 9807,104;  239,540;35651,484;27,01790
 843,37; 9814,332;  230,386;35667,311;27,04508
 843,93; 9796,330;  248,848;35569,446;27,03092
 844,49; 9878,096;  273,463;35597,196;27,19031
 845,05; 9771,478;  211,540;35434,639;27,14111
 845,61; 9853,091;  268,924;35604,389;27,12336
 846,17; 9824,704;  241,155;35367,677;27,28294
 846,73; 9857,932;  250,386;35265,889;27,43798
 847,29; 9886,006;  233,232;35046,254;27,72748
 847,86; 9878,926;  237,463;35047,927;27,69703
 848,42; 9911,232;  231,771;34748,985;28,04242
 848,98; 9943,075;  265,155;34750,812;28,06361
 849,54; 9952,457;  240,540;34827,331;28,07984
 850,10; 9913,608;  269,232;34579,928;28,10895
 850,66; 9948,144;  231,386;34474,139;28,37610
 851,22; 9950,064;  223,540;34348,889;28,50234
 851,78; 9978,831;  280,540;34463,101;28,37204
 852,34; 9931,751;  252,463;34143,928;28,55966
 852,90; 9939,903;  242,617;34116,909;28,62727
 853,46; 9949,746;  243,925;33769,120;28,95083
 854,02;10016,359;  256,078;33873,101;29,03374
 854,58; 9980,202;  248,771;33591,082;29,18643
 855,14;10004,277;  234,771;33489,448;29,37784
 855,70; 9968,120;  212,232;33313,275;29,47305
 856,26;10016,348;  250,925;33331,178;29,52040
 856,82;10050,653;  239,540;33079,005;29,87598
 857,38;10116,574;  293,540;33035,063;30,00176
 857,94;10087,648;  244,309;32908,967;30,13452
 858,50;10051,107;  276,232;32697,102;30,14995
 859,06;10031,335;  236,002;32592,313;30,27333
 859,62;10093,871;  270,540;32577,064;30,40665
 860,18;10030,330;  252,079;32320,198;30,49213
 860,74; 9999,481;  215,925;32223,794;30,56610
 861,30; 9948,555;  223,540;31985,545;30,61839
 861,86;10111,706;  315,156;32028,218;30,89122
 862,42; 9981,704;  247,386;31845,583;30,80656
 862,98;10026,009;  280,156;31846,256;30,87443
 863,54;10010,775;  249,079;31524,314;31,21222
 864,10; 9997,388;  248,463;31708,833;30,98795
 864,66; 9945,385;  229,156;31374,506;31,19641
 865,22; 9959,075;  243,463;31222,872;31,36151
 865,78; 9934,534;  249,463;31099,622;31,39391
 866,34; 9976,762;  228,309;31151,218;31,52502
 866,90; 9945,606;  247,309;30873,584;31,66659
 867,45; 9941,603;  252,463;30662,488;31,86166
 868,01; 9881,216;  247,925;30551,545;31,78924
 868,57; 9867,367;  225,310;30301,757;32,05850
 869,13; 9873,210;  225,156;30207,046;32,17961
 869,69; 9902,131;  237,694;30017,565;32,45292
 870,25; 9839,205;  224,848;29960,161;32,33313
 870,81; 9879,818;  239,233;29956,757;32,44074
 871,37; 9901,738;  247,002;29845,277;32,61925
 871,93; 9887,582;  267,694;29726,104;32,65583
 872,49; 9900,656;  285,310;29389,854;33,03727
 873,04; 9747,346;  231,387;29272,527;32,76717
 873,60; 9756,420;  231,387;29057,661;33,04289
 874,16; 9753,033;  259,002;29020,258;33,00979
 874,72; 9782,648;  226,310;28936,027;33,28608
 875,28; 9759,725;  245,156;28957,104;33,13801
 875,84; 9801,494;  255,079;28820,796;33,41913
 876,40; 9756,110;  239,925;28773,642;33,35067
 876,95; 9832,571;  251,694;28707,104;33,66979
 877,51; 9860,110;  269,694;28800,181;33,61462
 878,07; 9918,648;  289,540;28699,488;33,89344
 878,63; 9908,725;  242,771;28721,565;33,94088
 879,19; 9984,187;  258,079;28695,719;34,20153
 879,75;10048,571;  237,387;28775,565;34,37915
 880,30;10022,417;  248,925;28722,104;34,32526
 880,86;10159,571;  289,463;28815,642;34,60017
 881,42;10182,187;  223,848;28931,719;34,68853
 881,98;10224,879;  264,310;28987,642;34,67762
 882,54;10317,033;  247,463;29057,719;34,95134
 883,09;10464,571;  248,156;29168,104;35,32653
 883,65;10502,802;  232,463;29314,565;35,31498
 884,21;10611,417;  264,617;29406,796;35,50455
 884,77;10604,494;  222,463;29545,027;35,40629
 885,32;10714,648;  236,463;29663,796;35,60698
 885,88;10828,340;  284,079;29835,027;35,68164
 886,44;10911,725;  247,310;29985,873;35,86056
 887,00;10931,802;  259,002;29880,335;36,03079
 887,56;11008,033;  239,387;30103,950;36,05827
 888,11;11053,879;  244,617;30155,642;36,13805
 888,67;11138,263;  270,156;30233,642;36,27117
 889,23;11243,494;  256,925;30326,950;36,53661
 889,79;11204,648;  221,617;30207,258;36,62763
 890,34;11211,033;  258,310;30105,258;36,69629
 890,90;11365,110;  315,617;30287,412;36,86630
 891,46;11308,110;  230,002;30215,412;36,94499
 892,01;11319,187;  262,079;30159,027;36,98407
 892,57;11357,263;  287,310;30135,642;37,08734
 893,13;11300,956;  241,463;29936,565;37,24349
 893,69;11279,033;  230,694;29820,027;37,33892
 894,24;11255,571;  244,694;29728,488;37,34552
 894,80;11227,648;  248,387;29520,104;37,50809
 895,36;11260,263;  245,310;29464,565;37,69759
 895,91;11149,033;  247,002;29223,873;37,62322
 896,47;11202,263;  262,310;29086,796;37,95368
 897,03;11118,263;  237,617;29003,104;37,82535
 897,58;11103,110;  250,079;28808,642;38,00272
 898,14;11081,263;  253,540;28610,104;38,18419
 898,70;11029,417;  218,463;28388,104;38,37803
 899,25;11041,956;  251,233;28472,719;38,23584
 899,81;11052,648;  255,387;28214,335;38,61827
 900,37;10976,033;  207,079;28039,950;38,69149
 900,92;10974,956;  233,233;28046,873;38,62034
 901,48;10911,648;  224,694;27881,642;38,64112
 902,03;10918,340;  241,848;27736,873;38,83063
 902,59;10882,802;  232,540;27614,104;38,89574
 903,15;10869,340;  255,387;27490,642;38,97138
 903,70;10757,033;  243,694;27184,488;39,02386
 904,26;10761,110;  237,079;27075,796;39,21212
 904,82;10758,340;  235,002;27008,565;39,30496
 905,37;10777,494;  251,694;26900,565;39,49811
 905,93;10707,110;  227,617;26680,412;39,61582
 906,48;10758,187;  253,617;26681,181;39,74853
 907,04;10744,417;  243,925;26703,873;39,68448
 907,60;10672,494;  251,771;26460,104;39,76111
 908,15;10705,648;  220,233;26310,027;40,18972
 908,71;10693,263;  251,694;26259,488;40,14785
 909,26;10669,263;  242,079;26061,796;40,38458
 909,82;10628,417;  253,617;25973,873;40,33708
 910,37;10678,725;  275,310;25934,412;40,54474
 910,93;10601,033;  227,540;25626,258;40,84258
 911,48;10514,725;  245,540;25466,258;40,71726
 912,04;10507,417;  223,463;25345,796;40,93551
 912,60;10544,494;  229,771;25470,181;40,86591
 913,15;10516,263;  235,002;25217,258;41,15426
 913,71;10439,033;  232,925;25056,565;41,11447
 914,26;10432,956;  214,387;24952,335;41,30726
 914,82;10434,033;  238,771;24873,873;41,38510
 915,37;10451,263;  226,771;24823,642;41,56826
 915,93;10472,879;  291,002;24707,642;41,70056
 916,48;10385,263;  218,002;24588,488;41,71957
 917,04;10335,648;  256,771;24472,258;41,62162
 917,59;10362,340;  269,156;24299,950;42,00104
 918,15;10266,956;  205,540;24127,412;42,05948
 918,70;10298,187;  230,233;24085,719;42,20393
 919,26;10258,802;  236,310;23955,027;42,25563
 919,81;10240,648;  213,002;23737,104;42,62712
 920,37;10196,879;  234,387;23711,642;42,43465
 920,92;10209,187;  256,925;23632,104;42,57619
 921,48;10162,802;  215,925;23362,950;42,97259
 922,03;10192,187;  229,925;23411,258;42,97536
 922,59;10200,879;  237,233;23188,181;43,41279
 923,14;10165,340;  241,387;23117,104;43,38204
 923,69;10137,417;  253,079;23007,642;43,43893
 924,25;10212,725;  261,925;23030,950;43,70323
 924,80;10136,725;  223,848;22742,412;44,02091
 925,36;10124,956;  230,156;22713,335;44,00979
 925,91;10074,263;  220,617;22526,796;44,17451
 926,47;10080,956;  211,002;22422,027;44,43718
 927,02;10132,879;  303,694;22439,412;44,40418
 927,57;10058,879;  230,079;22282,181;44,57081
 928,13;10041,187;  219,771;22184,412;44,71467
 928,68;10098,648;  225,617;22158,642;45,01445
 929,24;10069,187;  198,233;21911,873;45,45969
 929,79;10003,494;  222,848;21785,258;45,35971
 930,34; 9940,802;  226,694;21600,950;45,44770
 930,90; 9964,571;  224,156;21626,719;45,51051
 931,45; 9965,417;  226,617;21524,335;45,72697
 932,01; 9937,263;  230,002;21376,642;45,90451
 932,56; 9867,340;  249,310;21230,873;45,84039
 933,11; 9902,263;  251,156;21304,488;45,84123
 933,67; 9823,263;  220,079;21047,412;46,10857
 934,22; 9850,879;  229,771;20985,796;46,35332
 934,77; 9793,725;  249,925;20872,719;46,27792
 935,33; 9691,494;  229,387;20730,335;46,15449
 935,88; 9703,417;  234,002;20730,565;46,20001
 936,43; 9696,956;  218,002;20557,104;46,60458
 936,99; 9711,725;  222,387;20398,719;47,03203
 937,54; 9619,110;  206,387;20254,950;46,94961
 938,09; 9664,033;  234,002;20262,796;47,08237
 938,65; 9629,802;  242,617;20134,565;47,19088
 939,20; 9629,956;  206,694;20059,181;47,46640
 939,75; 9588,187;  208,617;19935,412;47,54736
 940,31; 9543,033;  212,694;19782,258;47,67781
 940,86; 9594,725;  225,233;19784,488;47,90311
 941,41; 9682,033;  332,694;19728,488;48,20292
 941,96; 9517,417;  213,463;19530,258;48,16510
 942,52; 9531,725;  225,925;19473,104;48,34890
 943,07; 9465,263;  209,079;19286,258;48,51967
 943,62; 9401,648;  215,233;19190,181;48,41339
 944,18; 9364,802;  204,156;19129,104;48,40513
 944,73; 9398,033;  251,387;19083,565;48,56924
 945,28; 9295,033;  194,463;18868,335;48,73424
 945,83; 9269,417;  211,233;18904,181;48,45776
 946,39; 9300,187;  225,002;18854,335;48,71449
 946,94; 9286,879;  234,387;18772,873;48,83081
 947,49; 9197,187;  218,002;18646,950;48,72326
 948,04; 9270,725;  271,848;18616,950;49,05329
 948,59; 9212,648;  244,771;18571,027;48,93458
 949,15; 9138,263;  197,233;18398,104;49,12419
 949,70; 9140,187;  227,694;18305,181;49,30161
 950,25; 9152,494;  232,387;18258,796;49,48355
 950,80; 9105,340;  181,540;18098,181;49,80733
 951,36; 9077,802;  189,310;17997,488;49,91242
 951,91; 9116,494;  238,694;18064,796;49,80225
 952,46; 8984,187;  211,848;17810,642;49,84625
 953,01; 9052,956;  231,233;17894,719;49,94327
 953,56; 8944,187;  196,463;17687,104;50,01374
 954,11; 8968,571;  236,233;17578,642;50,35251
 954,67; 8896,263;  214,310;17560,488;50,05110
 955,22; 8862,956;  208,156;17351,335;50,48539
 955,77; 8882,263;  256,925;17345,027;50,47570
 956,32; 8878,340;  287,848;17339,873;50,37814
 956,87; 8770,187;  216,233;17181,027;50,42180
 957,42; 8759,110;  218,387;17060,796;50,70963
 957,98; 8762,033;  216,540;17052,488;50,75742
 958,53; 8781,879;  251,848;16944,796;51,09961
 959,08; 8752,956;  205,387;16840,104;51,38392
 959,63; 8674,263;  213,463;16698,335;51,32464
 960,18; 8732,110;  240,310;16663,104;51,70740
 960,73; 8691,033;  227,694;16622,796;51,62114
 961,28; 8656,956;  200,233;16484,565;51,93165
 961,83; 8682,417;  253,463;16457,950;52,01617
 962,39; 8637,879;  195,233;16332,873;52,31648
 962,94; 8588,340;  228,694;16245,488;52,19300
 963,49; 8550,571;  229,233;16088,796;52,46890
 964,04; 8549,725;  239,925;16038,181;52,59948
 964,59; 8481,494;  188,694;15921,104;52,71157
 965,14; 8474,571;  238,617;15892,335;52,61341
 965,69; 8434,802;  215,694;15766,796;52,85225
 966,24; 8364,263;  210,771;15661,104;52,77228
 966,79; 8363,340;  241,617;15580,412;52,94890
 967,34; 8276,494;  204,694;15437,796;52,98855
 967,89; 8273,110;  223,387;15377,181;53,12018
 968,44; 8252,417;  222,848;15322,335;53,17776
 968,99; 8271,110;  226,617;15221,719;53,64747
 969,55; 8201,033;  223,848;15129,488;53,51789
 970,10; 8176,956;  237,694;15034,642;53,65472
 970,65; 8131,879;  242,925;14971,642;53,56172
 971,20; 8054,802;  209,079;14867,335;53,52426
 971,75; 7992,725;  204,694;14685,873;53,78036
 972,30; 7971,187;  223,002;14625,104;53,79898
 972,85; 7979,956;  211,156;14534,104;54,24023
 973,40; 7924,417;  203,310;14416,565;54,32329
 973,95; 7927,725;  239,694;14371,335;54,40296
 974,50; 7894,263;  258,694;14305,181;54,35928
 975,05; 7842,340;  224,848;14154,027;54,68730
 975,60; 7824,802;  232,463;14079,796;54,82889
 976,15; 7742,648;  206,925;13992,719;54,66296
 976,70; 7760,110;  234,079;13964,565;54,81256
 977,25; 7741,725;  238,387;13904,796;54,90351
 977,80; 7632,956;  224,617;13683,258;55,04522
 978,35; 7593,110;  239,387;13569,873;55,16470
 978,89; 7522,033;  197,540;13494,565;55,08369
 979,44; 7582,187;  216,617;13471,950;55,56684
 979,99; 7482,571;  203,771;13263,642;55,73409
 980,54; 7458,802;  245,002;13232,873;55,54259
 981,09; 7359,263;  253,079;13134,719;55,16522
 981,64; 7338,417;  243,617;12957,104;55,80531
 982,19; 7339,187;  259,540;12995,565;55,58756
 982,74; 7279,417;  240,540;12766,719;56,19333
 983,29; 7188,417;  214,848;12646,027;56,09741
 983,84; 7171,802;  238,310;12546,796;56,33099
 984,39; 7251,033;  320,002;12613,181;56,38111
 984,94; 7061,802;  207,848;12371,258;56,34895
 985,49; 7047,263;  255,771;12332,258;56,23732
 986,03; 7020,571;  253,079;12205,950;56,61813
 986,58; 6958,494;  291,156;12056,642;56,66862
 987,13; 6859,648;  236,848;11931,335;56,63182
 987,68; 6777,571;  244,848;11804,335;56,51396
 988,23; 6755,494;  238,463;11760,335;56,56226
 988,78; 6697,802;  225,771;11591,642;56,94267
 989,33; 6652,648;  258,156;11502,412;56,86897
 989,88; 6657,417;  269,617;11457,796;57,09419
 990,42; 6555,340;  220,771;11289,488;57,22948
 990,97; 6481,725;  225,540;11129,181;57,37703
 991,52; 6494,187;  259,463;11156,258;57,21612
 992,07; 6448,263;  280,463;11006,565;57,50272
 992,62; 6365,879;  234,617;10952,488;57,20596
 993,17; 6334,187;  243,771;10793,412;57,73102
 993,71; 6303,417;  255,310;10649,181;58,18917
 994,26; 6205,033;  225,387;10543,796;57,95124
 994,81; 6226,802;  263,540;10517,873;58,15358
 995,36; 6116,802;  225,463;10316,950;58,37929
 995,91; 6072,494;  238,848;10271,104;58,14890
 996,45; 6049,494;  228,925;10182,488;58,47724
 997,00; 5956,802;  224,617;10036,181;58,42274
 997,55; 5913,340;  251,540; 9979,796;58,19954
 998,10; 5857,879;  263,617; 9872,950;58,21696
 998,65; 5806,417;  239,848; 9776,796;58,36845
 999,19; 5773,802;  257,771; 9693,258;58,46048
 999,74; 5689,802;  268,771; 9553,335;58,38757
1000,29; 5685,802;  239,233; 9525,258;58,65340
1000,84; 5571,263;  238,233; 9348,335;58,53975
1001,38; 5522,956;  246,617; 9214,412;58,83652
1001,93; 5513,033;  244,002; 9188,873;58,90561
1002,48; 5421,263;  229,848; 9065,412;58,75591
1003,03; 5400,187;  259,002; 8988,642;58,89343
1003,57; 5306,340;  244,079; 8888,642;58,56006
1004,12; 5326,340;  299,002; 8834,642;58,89820
1004,67; 5224,494;  235,310; 8676,104;59,10800
1005,22; 5134,494;  229,771; 8522,873;59,14220
1005,76; 5046,110;  223,079; 8398,027;58,99769
1006,31; 5030,263;  262,387; 8335,027;59,06217
1006,86; 4939,110;  233,079; 8203,873;59,04093
1007,40; 4875,879;  224,387; 8113,488;58,96099
1007,95; 4874,879;  244,771; 7994,412;59,74610
1008,50; 4790,571;  248,540; 7885,412;59,47502
1009,04; 4706,494;  243,079; 7761,104;59,36952
1009,59; 4646,725;  246,617; 7645,335;59,47122
1010,14; 4568,571;  222,310; 7512,335;59,61930
1010,68; 4555,494;  243,771; 7444,950;59,87524
1011,23; 4489,725;  239,540; 7324,104;59,99219
1011,78; 4457,187;  252,925; 7200,104;60,51754
1012,32; 4439,571;  281,617; 7150,027;60,53736
1012,87; 4382,110;  269,617; 7052,488;60,63055
1013,42; 4321,494;  224,540; 6985,873;60,59388
1013,96; 4332,187;  276,387; 7006,412;60,26426
1014,51; 4264,340;  206,771; 6821,104;61,34510
1015,06; 4262,187;  208,771; 6839,181;61,13371
1015,60; 4323,494;  273,694; 6944,104;60,71291
1016,15; 4276,033;  217,387; 6865,873;61,04617
1016,69; 4306,340;  233,617; 6917,181;60,93640
1017,24; 4295,417;  217,463; 6887,027;61,14274
1017,79; 4376,263;  266,310; 6977,565;61,23971
1018,33; 4345,187;  230,387; 6973,565;61,02166
1018,88; 4377,263;  256,002; 7040,412;60,74606
1019,42; 4364,571;  235,540; 7027,335;60,79440
1019,97; 4368,956;  228,002; 7042,642;60,76555
1020,51; 4455,033;  264,002; 7104,796;61,26527
1021,06; 4409,725;  213,540; 7013,335;61,71046
1021,61; 4380,033;  195,310; 7018,642;61,32961
1022,15; 4361,417;  188,925; 7005,104;61,21454
1022,70; 4369,648;  230,771; 6977,258;61,34863
1023,24; 4333,494;  216,848; 6956,950;61,07691
1023,79; 4282,494;  224,848; 6841,950;61,32059
1024,33; 4283,956;  223,463; 6815,104;61,60063
1024,88; 4280,725;  253,848; 6720,565;62,27080
1025,42; 4204,494;  237,233; 6653,642;61,82993
1025,97; 4145,571;  225,002; 6550,258;61,98278
1026,51; 4023,494;  201,387; 6445,258;61,21375
1027,06; 4009,340;  214,925; 6373,335;61,61356
1027,60; 3971,494;  248,310; 6281,719;61,70946
1028,15; 3923,110;  238,387; 6152,642;62,30240
1028,69; 3792,956;  187,387; 6030,181;61,70967
1029,24; 3782,725;  213,848; 5970,642;61,99417
1029,78; 3721,033;  211,310; 5860,181;62,13141
1030,33; 3669,956;  204,694; 5736,873;62,63828
1030,87; 3620,494;  217,233; 5712,335;61,93264
1031,42; 3549,110;  206,079; 5575,488;62,26068
1031,96; 3547,494;  236,310; 5524,027;62,62030
1032,51; 3481,648;  216,233; 5425,335;62,68672
1033,05; 3467,648;  224,848; 5379,719;62,90749
1033,60; 3371,110;  192,771; 5262,796;62,68881
1034,14; 3322,571;  219,617; 5207,412;62,21094
1034,69; 3330,263;  224,233; 5146,104;63,10671
1035,23; 3271,648;  219,463; 5064,335;62,99826
1035,77; 3219,725;  223,848; 4983,950;62,93724
1036,32; 3168,956;  189,079; 4903,104;63,21301
1036,86; 3152,340;  227,694; 4854,412;63,21212
1037,41; 3094,033;  234,925; 4783,104;62,86269
1037,95; 3034,879;  202,079; 4684,258;63,20140
1038,50; 3002,956;  218,540; 4675,950;62,46712
1039,04; 3007,340;  240,233; 4619,565;63,18560
1039,58; 2956,417;  201,387; 4517,642;63,82918
1040,13; 2908,417;  217,540; 4454,181;63,51440
1040,67; 2900,110;  241,617; 4438,873;63,33882
1041,21; 2851,417;  248,233; 4341,104;63,60290
1041,76; 2787,956;  213,002; 4282,027;63,28184
1042,30; 2768,263;  212,617; 4238,719;63,47694
1042,85; 2709,494;  215,771; 4141,873;63,51651
1043,39; 2660,417;  196,694; 4062,719;63,72755
1043,93; 2686,648;  238,156; 4062,873;64,01760
1044,48; 2640,571;  226,310; 3987,335;64,19158
1045,02; 2587,187;  217,002; 3953,950;63,42568
1045,56; 2576,110;  255,463; 3939,565;62,99082
1046,11; 2563,417;  239,617; 3856,565;64,24754
1046,65; 2508,494;  235,310; 3768,258;64,34243
1047,19; 2442,110;  212,002; 3726,181;63,46028
1047,74; 2399,956;  194,310; 3648,873;63,84732
1048,28; 2401,340;  225,233; 3585,796;64,75425
1048,82; 2422,879;  254,925; 3615,335;64,51457
1049,37; 2357,110;  243,771; 3534,412;64,22271
1049,91; 2329,802;  227,079; 3486,873;64,50478
1050,45; 2304,033;  232,310; 3441,258;64,56082
1050,99; 2273,494;  224,925; 3392,181;64,67963
1051,54; 2226,187;  209,079; 3325,104;64,73336
1052,08; 2230,263;  245,848; 3293,027;65,12304
1052,62; 2167,879;  237,002; 3273,027;63,59885
1053,16; 2120,725;  210,310; 3173,181;64,47852
1053,71; 2140,956;  240,310; 3164,950;64,98735
1054,25; 2114,494;  232,617; 3096,027;65,72154
1054,79; 2071,187;  233,771; 3062,027;64,96638
1055,33; 1997,263;  201,310; 3002,258;64,11950
1055,88; 2001,956;  234,233; 2977,412;64,44068
1056,42; 2009,263;  236,310; 2939,027;65,59894
1056,96; 1986,956;  240,694; 2917,104;65,24642
1057,50; 1962,110;  244,771; 2851,488;65,88127
1058,05; 1921,956;  226,156; 2811,258;65,59896
1058,59; 1916,110;  250,540; 2786,488;65,67836
1059,13; 1849,879;  206,310; 2734,335;65,01396
1059,67; 1849,494;  241,233; 2698,027;65,46179
1060,21; 1795,802;  227,233; 2656,796;64,56177
1060,76; 1813,725;  243,617; 2615,181;66,20559
1061,30; 1796,417;  260,617; 2603,565;65,54989
1061,84; 1765,110;  235,156; 2537,412;66,45456
1062,38; 1702,417;  210,694; 2454,412;66,48445
1062,92; 1727,648;  275,079; 2525,181;64,55571
1063,46; 1687,187;  239,771; 2429,642;66,09592
1064,01; 1657,033;  230,540; 2389,181;66,08291
1064,55; 1649,033;  237,540; 2352,412;66,74129
1065,09; 1594,110;  208,694; 2310,565;65,91343
1065,63; 1640,417;  262,079; 2338,873;66,36856
1066,17; 1635,263;  279,233; 2297,335;67,19337
1066,71; 1579,571;  250,771; 2276,412;65,59901
1067,25; 1549,879;  233,540; 2190,258;67,27280
1067,80; 1559,340;  244,617; 2191,258;67,53806
1068,34; 1557,033;  264,310; 2199,181;66,81184
1068,88; 1492,494;  216,233; 2112,104;67,31795
1069,42; 1511,417;  269,540; 2133,796;66,61516
1069,96; 1465,187;  238,387; 2086,873;66,36781
1070,50; 1488,879;  281,310; 2090,796;66,73546
1071,04; 1416,110;  223,310; 2012,873;66,65313
1071,58; 1418,802;  232,848; 1994,488;67,32100
1072,12; 1415,110;  240,617; 1989,565;67,15421
1072,66; 1385,110;  232,925; 1979,488;65,96867
1073,21; 1398,494;  257,925; 1962,181;66,92477
1073,75; 1377,648;  242,310; 1920,642;67,64681
1074,29; 1367,802;  238,848; 1893,258;68,23908
1074,83; 1356,956;  264,233; 1894,565;67,02455
1075,37; 1360,725;  260,079; 1867,335;68,47984
1075,91; 1331,879;  249,463; 1835,565;68,24375
1076,45; 1312,033;  262,233; 1804,642;68,06234
1076,99; 1289,571;  253,617; 1787,719;67,52836
1077,53; 1274,648;  227,002; 1742,335;69,13638
1078,07; 1263,187;  246,540; 1739,719;68,08603
1078,61; 1232,879;  248,310; 1702,181;67,72053
1079,15; 1229,648;  233,540; 1692,488;68,27575
1079,69; 1217,648;  241,925; 1681,335;67,78634
1080,23; 1237,187;  266,848; 1681,412;68,59632
1080,77; 1251,571;  297,079; 1717,104;67,21658
1081,31; 1171,340;  239,925; 1636,565;66,68971
1081,85; 1204,033;  259,387; 1622,642;69,29339
1082,39; 1146,417;  234,233; 1573,027;68,13479
1082,93; 1176,263;  264,925; 1595,565;68,48871
1083,47; 1132,725;  226,540; 1525,488;69,76296
1084,01; 1148,879;  239,079; 1553,412;69,22144
1084,55; 1116,571;  234,617; 1512,642;69,00912
1085,09; 1117,725;  253,156; 1508,642;68,86328
1085,63; 1088,571;  248,387; 1479,258;68,25935
1086,17; 1085,340;  235,694; 1460,258;69,38360
1086,71; 1052,494;  225,925; 1436,565;68,27537
1087,24; 1084,648;  255,848; 1447,335;69,56016
1087,78; 1068,263;  265,310; 1439,258;68,39773
1088,32; 1013,110;  222,848; 1381,181;68,22406
1088,86; 1047,802;  261,463; 1399,181;69,11545
1089,40; 1022,340;  240,694; 1374,181;68,95946
1089,94;  987,340;  218,079; 1325,258;69,47943
1090,48;  991,494;  254,463; 1340,027;67,89384
1091,02; 1006,417;  256,925; 1335,565;69,48491
1091,56;  977,725;  242,079; 1302,873;69,34862
1092,10;  946,956;  221,540; 1267,565;69,34972
1092,63; 1001,956;  262,387; 1282,950;72,46676
1093,17;  975,263;  264,694; 1276,796;70,20728
1093,71;  922,417;  229,079; 1222,642;69,78301
1094,25;  955,956;  274,156; 1260,565;69,11936
1094,79;  917,263;  234,156; 1223,796;69,02585
1095,33;  908,571;  251,694; 1210,565;68,50523
1095,87;  901,571;  246,463; 1197,488;68,88438
1096,40;  879,417;  226,540; 1154,335;70,36872
1096,94;  887,956;  245,310; 1165,950;69,80425
1097,48;  901,725;  256,617; 1172,027;70,47202
1098,02;  860,187;  233,002; 1120,719;70,65139
1098,56;  833,263;  211,156; 1089,796;70,80345
1099,10;  817,648;  224,002; 1093,181;68,29966
1099,63;  824,648;  213,387; 1062,104;72,02181
1100,17;  844,187;  250,540; 1095,258;70,27749
1100,71;  846,110;  271,848; 1098,796;69,44348

