
Integration time [ms]: 150,000
Averaging Nr. [scans]: 13
Smoothing Nr. [pixels]: 0
Data measured with spectrometer [name]: 2009305U1
Wave   ;Sample   ;Dark     ;Reference;Reflectance
[nm]   ;[counts] ;[counts] ;[counts] ;[%]

 175,72;  211,851;  214,189;  215,558;-170,88224
 176,32;  230,072;  237,941;  227,089; 0,00000
 176,92;  279,994;  266,800;  265,274; 0,00000
 177,52;  262,881;  264,340;  268,527;-34,85030
 178,12;  243,100;  238,942;  236,243; 0,00000
 178,72;  262,870;  273,476;  264,295; 0,00000
 179,32;  268,209;  267,557;  251,348; 0,00000
 179,92;  263,506;  254,948;  263,094;105,05269
 180,52;  240,501;  239,814;  250,957; 6,17065
 181,12;  257,298;  264,488;  252,536; 0,00000
 181,73;  280,173;  265,720;  278,915;109,53656
 182,33;  380,407;  365,807;  380,210;101,36916
 182,93;  285,968;  269,955;  282,562;127,01958
 183,53;  249,313;  248,550;  241,803; 0,00000
 184,13;  251,744;  249,322;  239,610; 0,00000
 184,73;  291,179;  285,933;  290,886;105,93127
 185,33;  278,673;  235,755;  362,541;33,85059
 185,93;  274,574;  243,974;  376,062;23,16670
 186,53;  304,393;  255,134;  395,991;34,97108
 187,13;  322,295;  275,994;  429,562;30,15049
 187,73;  278,669;  243,899;  388,560;24,03586
 188,33;  287,015;  248,507;  379,205;29,46323
 188,93;  300,853;  258,332;  392,557;31,67904
 189,53;  299,206;  257,546;  395,018;30,30468
 190,13;  336,341;  293,211;  432,470;30,97150
 190,73;  276,638;  231,998;  373,710;31,50036
 191,34;  304,100;  270,556;  402,286;25,46426
 191,94;  293,135;  243,808;  387,024;34,44253
 192,54;  305,469;  261,619;  410,675;29,41833
 193,14;  307,794;  268,685;  427,994;24,54929
 193,74;  303,457;  266,990;  419,237;23,95239
 194,34;  295,852;  265,303;  411,983;20,82672
 194,94;  252,266;  221,915;  378,644;19,36535
 195,54;  244,608;  208,218;  354,878;24,81266
 196,14;  273,184;  235,537;  393,258;23,86941
 196,74;  260,627;  233,368;  382,966;18,22137
 197,34;  251,125;  204,545;  376,384;27,10693
 197,94;  270,318;  239,763;  400,779;18,97594
 198,54;  279,014;  243,537;  421,363;19,95028
 199,14;  252,212;  221,011;  407,982;16,68739
 199,74;  251,585;  216,934;  397,255;19,21638
 200,34;  239,895;  203,705;  418,165;16,87463
 200,94;  269,640;  240,620;  447,641;14,01792
 201,54;  261,523;  216,393;  453,323;19,04762
 202,14;  302,716;  255,709;  524,133;17,51241
 202,74;  268,250;  224,395;  499,408;15,94633
 203,34;  245,408;  199,483;  512,537;14,66989
 203,94;  226,970;  173,633;  521,575;15,32932
 204,54;  292,368;  252,457;  610,073;11,16033
 205,14;  252,657;  207,395;  611,779;11,19260
 205,74;  301,583;  249,791;  719,452;11,02767
 206,34;  269,018;  212,939;  729,504;10,85616
 206,94;  279,874;  212,630;  803,397;11,38250
 207,54;  245,990;  183,785;  839,349; 9,48885
 208,14;  273,898;  204,402;  918,672; 9,72972
 208,74;  275,090;  214,241;  988,163; 7,86242
 209,34;  269,674;  210,781; 1065,206; 6,89268
 209,94;  288,448;  220,165; 1181,535; 7,10268
 210,54;  300,982;  213,019; 1295,905; 8,12305
 211,14;  297,931;  226,626; 1395,989; 6,09777
 211,73;  309,011;  218,700; 1510,413; 6,99156
 212,33;  323,497;  233,312; 1640,752; 6,40772
 212,93;  325,112;  207,856; 1741,387; 7,64612
 213,53;  303,618;  187,780; 1770,051; 7,32099
 214,13;  315,923;  218,949; 1914,268; 5,72008
 214,73;  300,409;  198,170; 1919,057; 5,94103
 215,33;  300,987;  175,165; 1954,304; 7,07204
 215,93;  344,726;  207,405; 2072,193; 7,36386
 216,53;  319,578;  167,471; 2159,330; 7,63645
 217,13;  383,724;  222,019; 2364,360; 7,54806
 217,73;  363,243;  202,637; 2560,201; 6,81237
 218,33;  354,045;  166,489; 2807,003; 7,10300
 218,93;  408,386;  186,887; 3094,434; 7,61808
 219,53;  437,265;  189,643; 3429,276; 7,64351
 220,13;  432,872;  159,031; 3714,530; 7,70190
 220,73;  472,888;  192,089; 4067,542; 7,24559
 221,32;  515,321;  194,164; 4531,855; 7,40386
 221,92;  578,042;  205,415; 4975,586; 7,81161
 222,52;  585,578;  178,330; 5386,586; 7,81929
 223,12;  626,469;  182,023; 5841,020; 7,85380
 223,72;  683,381;  205,484; 6300,447; 7,84085
 224,32;  717,305;  207,178; 6761,748; 7,78278
 224,92;  752,118;  188,177; 7083,804; 8,17824
 225,52;  788,171;  211,322; 7490,055; 7,92512
 226,12;  819,488;  188,557; 7866,345; 8,21761
 226,72;  842,855;  162,249; 8245,072; 8,42040
 227,31;  869,437;  165,402; 8661,128; 8,28693
 227,91;  969,285;  201,013; 9089,641; 8,64331
 228,51; 1000,278;  185,159; 9531,313; 8,72144
 229,11; 1058,519;  197,940; 9980,610; 8,79697
 229,71; 1080,397;  181,394;10339,400; 8,85019
 230,31; 1127,110;  186,796;10785,058; 8,87234
 230,91; 1199,203;  168,848;11129,666; 9,40035
 231,51; 1255,517;  169,867;11523,333; 9,56228
 232,10; 1329,694;  180,489;11854,717; 9,84394
 232,70; 1391,083;  188,919;12078,137;10,11138
 233,30; 1483,604;  213,405;12356,836;10,45997
 233,90; 1494,417;  177,635;12473,046;10,70954
 234,50; 1545,655;  182,175;12555,669;11,01936
 235,10; 1584,118;  183,101;12576,958;11,30413
 235,70; 1681,433;  205,397;12584,858;11,92326
 236,29; 1675,941;  187,933;12551,491;12,03544
 236,89; 1725,605;  172,003;12378,863;12,72729
 237,49; 1765,856;  192,326;12126,835;13,18470
 238,09; 1765,403;  180,862;11911,042;13,50824
 238,69; 1828,327;  225,614;11581,454;14,11356
 239,29; 1790,303;  182,399;11188,524;14,60917
 239,89; 1771,715;  206,003;10810,346;14,76482
 240,48; 1815,062;  177,862;10330,252;16,12625
 241,08; 1761,148;  192,399; 9880,607;16,19236
 241,68; 1787,936;  202,401; 9523,253;17,01063
 242,28; 1747,268;  175,712; 9149,143;17,51344
 242,88; 1791,527;  225,257; 8792,618;18,28183
 243,48; 1785,328;  220,634; 8443,639;19,02825
 244,07; 1761,560;  183,936; 8223,620;19,62295
 244,67; 1802,723;  204,556; 7962,911;20,59930
 245,27; 1789,088;  192,392; 7829,028;20,90836
 245,87; 1804,351;  210,333; 7720,715;21,22419
 246,47; 1845,044;  191,469; 7702,972;22,01390
 247,06; 1822,748;  179,553; 7722,552;21,78437
 247,66; 1888,634;  187,171; 7779,882;22,40917
 248,26; 1963,281;  210,701; 7890,442;22,82082
 248,86; 2006,715;  211,085; 8126,364;22,68561
 249,46; 2044,374;  154,944; 8345,368;23,06877
 250,05; 2182,084;  206,862; 8792,168;23,00701
 250,65; 2269,526;  188,083; 9157,356;23,20637
 251,25; 2365,802;  179,014; 9703,802;22,95892
 251,85; 2499,358;  195,233;10367,122;22,65189
 252,44; 2628,980;  165,395;11046,604;22,64073
 253,04; 2863,273;  201,704;11902,465;22,74697
 253,64; 2962,794;  159,082;12793,481;22,19110
 254,24; 3215,787;  207,323;13814,356;22,10962
 254,84; 3384,220;  180,790;14868,291;21,81059
 255,43; 3605,437;  186,395;16102,429;21,48174
 256,03; 3811,839;  190,468;17276,838;21,19450
 256,63; 4026,034;  196,618;18422,996;21,01030
 257,23; 4208,336;  178,618;19564,591;20,78677
 257,82; 4388,348;  197,843;20708,684;20,43068
 258,42; 4470,889;  157,994;21782,338;19,94463
 259,02; 4717,190;  209,704;22995,297;19,78218
 259,62; 4743,701;  175,762;23756,714;19,37131
 260,21; 4858,689;  194,779;24520,191;19,17299
 260,81; 4945,586;  182,634;25211,492;19,02984
 261,41; 4943,512;  176,996;25866,186;18,55456
 262,01; 5022,100;  215,144;26416,013;18,34655
 262,60; 4981,183;  176,157;26869,898;18,00057
 263,20; 4996,159;  179,469;27357,245;17,72290
 263,80; 4993,863;  208,451;27635,383;17,44786
 264,40; 4934,738;  161,376;27866,762;17,22900
 264,99; 4900,895;  193,220;28169,565;16,82734
 265,59; 4822,690;  184,750;28343,725;16,47056
 266,19; 4803,237;  174,759;28619,503;16,27182
 266,78; 4765,887;  224,832;28718,883;15,93685
 267,38; 4711,186;  195,367;28791,657;15,79163
 267,98; 4624,942;  191,755;28847,044;15,47075
 268,58; 4653,692;  188,444;28839,636;15,58486
 269,17; 4511,384;  185,515;28911,008;15,05934
 269,77; 4460,010;  204,693;28753,791;14,90526
 270,37; 4373,736;  168,604;28565,089;14,80863
 270,96; 4333,101;  221,613;28474,558;14,55242
 271,56; 4200,462;  183,002;28230,744;14,32365
 272,16; 4125,022;  185,611;28068,801;14,12827
 272,75; 4105,017;  198,150;27900,934;14,10280
 273,35; 4080,854;  187,152;27828,502;14,08651
 273,95; 4005,622;  190,227;27766,823;13,83563
 274,54; 3971,155;  172,554;27813,153;13,74283
 275,14; 4032,124;  210,768;28303,999;13,60241
 275,74; 4024,533;  166,073;28335,025;13,69757
 276,33; 4065,960;  221,770;28762,875;13,46896
 276,93; 4086,112;  202,940;29199,854;13,39167
 277,53; 4162,546;  196,702;29722,149;13,43195
 278,12; 4256,233;  183,235;30326,347;13,51220
 278,72; 4421,254;  233,163;31030,743;13,59877
 279,32; 4454,885;  196,393;31636,183;13,54491
 279,91; 4572,620;  177,853;32532,789;13,58299
 280,51; 4742,585;  186,549;33084,492;13,84900
 281,11; 4858,048;  192,314;33941,307;13,82481
 281,70; 4921,091;  167,852;34479,830;13,85300
 282,30; 5123,462;  177,618;35166,359;14,13553
 282,90; 5244,874;  182,695;35640,212;14,27675
 283,49; 5417,382;  196,844;36289,468;14,46428
 284,09; 5597,234;  217,082;36847,417;14,68769
 284,69; 5754,615;  226,546;37163,301;14,96631
 285,28; 5871,629;  203,851;37498,991;15,19710
 285,88; 6132,049;  259,995;37821,039;15,63336
 286,47; 6251,116;  192,387;37991,170;16,02890
 287,07; 6409,588;  215,008;38113,294;16,34528
 287,67; 6631,405;  222,942;38171,947;16,88704
 288,26; 6832,412;  180,008;38068,462;17,55787
 288,86; 7078,976;  181,313;38157,641;18,16306
 289,46; 7408,906;  205,315;38354,489;18,88269
 290,05; 7699,351;  184,398;38439,914;19,64410
 290,65; 8069,774;  183,463;38596,771;20,53015
 291,24; 8423,281;  199,547;38781,442;21,31501
 291,84; 8797,880;  208,618;38885,534;22,20772
 292,44; 9186,823;  194,404;39033,654;23,15292
 293,03; 9647,880;  271,009;39236,470;24,06457
 293,63; 9934,995;  179,464;39476,345;24,82520
 294,22;10370,142;  213,545;39585,587;25,79647
 294,82;10682,777;  178,684;39565,336;26,66917
 295,41;10825,861;  183,929;39330,754;27,18466
 296,01;11092,477;  226,764;39303,332;27,80621
 296,61;11325,045;  210,470;38942,581;28,69602
 297,20;11410,231;  193,995;38456,892;29,31361
 297,80;11560,061;  206,092;38424,643;29,70801
 298,39;11567,973;  167,541;37727,276;30,35280
 298,99;11732,441;  211,767;37661,579;30,76297
 299,58;11810,503;  203,786;37499,407;31,12086
 300,18;11894,884;  221,706;37193,047;31,57359
 300,78;11910,239;  175,626;36853,450;31,99375
 301,37;11978,131;  201,680;36875,438;32,11138
 301,97;12132,027;  209,315;36842,853;32,54589
 302,56;12167,088;  198,155;36758,323;32,73763
 303,16;12244,652;  169,384;36630,112;33,11856
 303,75;12303,125;  193,781;36655,095;33,21148
 304,35;12541,617;  179,407;36911,775;33,65481
 304,94;12589,296;  186,007;36855,657;33,82440
 305,54;12577,398;  222,395;36786,394;33,79008
 306,13;12671,612;  169,408;36755,293;34,17221
 306,73;12599,082;  166,019;36475,199;34,24220
 307,33;12625,932;  196,326;36414,918;34,31830
 307,92;12689,452;  200,855;36507,106;34,39792
 308,52;12949,042;  176,076;36939,210;34,74395
 309,11;13174,246;  195,147;37686,722;34,61871
 309,71;13373,885;  166,144;37888,139;35,01337
 310,30;13430,380;  175,855;38130,050;34,92242
 310,90;13699,149;  221,701;38537,588;35,17457
 311,49;13780,967;  201,931;38661,049;35,30772
 312,09;13841,687;  167,399;38923,376;35,28304
 312,68;14130,618;  241,780;39331,282;35,53086
 313,28;14134,759;  181,778;39442,645;35,53916
 313,87;14173,247;  160,700;39541,427;35,58225
 314,47;14266,709;  182,918;40011,248;35,36124
 315,06;14404,457;  167,855;40035,659;35,70952
 315,66;14487,071;  168,783;40348,915;35,63524
 316,25;14426,372;  154,539;40089,497;35,73769
 316,85;14426,769;  155,168;40383,544;35,47645
 317,44;14465,565;  180,840;40406,289;35,51166
 318,04;14445,600;  165,002;40424,695;35,47120
 318,63;14438,483;  158,558;40511,786;35,38732
 319,22;14472,384;  190,078;40686,910;35,26771
 319,82;14481,838;  180,543;40654,466;35,33459
 320,41;14385,533;  196,463;40573,198;35,14170
 321,01;14386,746;  197,398;40760,949;34,98054
 321,60;14392,184;  190,928;40874,040;34,90701
 322,20;14293,567;  165,548;40743,295;34,81716
 322,79;14361,397;  218,471;40992,169;34,68639
 323,39;14282,660;  171,406;40860,299;34,68085
 323,98;14203,013;  170,010;40859,317;34,48818
 324,58;14125,443;  177,076;40800,412;34,33585
 325,17;13981,658;  189,924;40494,505;34,21878
 325,76;13902,610;  199,085;40370,518;34,11261
 326,36;13734,312;  170,859;39894,033;34,14494
 326,95;13521,179;  206,621;39497,481;33,88716
 327,55;13381,738;  177,542;39227,249;33,81382
 328,14;13174,046;  176,785;38763,511;33,68324
 328,74;12967,406;  209,693;38184,974;33,59478
 329,33;12757,059;  197,397;37834,739;33,37022
 329,92;12483,131;  175,379;37192,219;33,24906
 330,52;12176,903;  201,093;36450,770;33,03701
 331,11;11952,278;  180,389;35875,935;32,97859
 331,71;11712,158;  191,622;35259,636;32,85198
 332,30;11518,296;  202,700;34695,580;32,80560
 332,89;11333,954;  250,243;34166,123;32,68001
 333,49;11019,734;  192,775;33426,991;32,57775
 334,08;10806,645;  183,850;33033,046;32,33807
 334,68;10568,156;  187,696;32492,424;32,13294
 335,27;10469,839;  201,172;32106,561;32,18474
 335,86;10313,201;  240,851;31779,627;31,93640
 336,46;10130,954;  200,403;31431,751;31,79674
 337,05;10017,014;  195,928;31286,144;31,58899
 337,65; 9864,249;  164,850;31106,780;31,34710
 338,24; 9857,425;  234,933;31002,478;31,27481
 338,83; 9782,909;  208,857;30860,618;31,23492
 339,43; 9720,257;  174,308;30800,148;31,16959
 340,02; 9614,147;  180,461;30780,672;30,82883
 340,61; 9633,210;  186,702;30834,148;30,82315
 341,21; 9583,560;  218,616;30789,974;30,63306
 341,80; 9557,996;  193,311;30683,102;30,71417
 342,40; 9541,002;  179,940;30869,141;30,50279
 342,99; 9542,954;  178,550;30981,584;30,40091
 343,58; 9526,290;  179,474;31143,354;30,18619
 344,18; 9615,120;  207,244;31238,145;30,31777
 344,77; 9615,251;  183,692;31457,986;30,15754
 345,36; 9747,871;  168,467;31990,481;30,10307
 345,96; 9806,477;  215,320;32255,990;29,93432
 346,55; 9853,853;  175,868;32462,949;29,97479
 347,14; 9983,437;  176,940;32857,826;30,00683
 347,74;10089,678;  152,030;33424,117;29,86783
 348,33;10279,870;  171,567;34040,934;29,84497
 348,92;10433,083;  196,803;34770,980;29,60672
 349,52;10593,850;  160,954;35290,692;29,69819
 350,11;10668,036;  170,229;35473,195;29,73633
 350,70;10677,776;  177,624;35733,771;29,53119
 351,29;10596,854;  160,447;35334,324;29,67090
 351,89;10603,460;  203,301;35364,596;29,57843
 352,48;10568,265;  169,394;35393,470;29,52205
 353,07;10518,553;  192,711;35321,778;29,39401
 353,67;10509,776;  195,958;35250,128;29,42252
 354,26;10408,838;  188,863;34892,952;29,44891
 354,85;10335,358;  192,322;34797,999;29,31032
 355,45;10216,518;  165,464;34574,213;29,21075
 356,04;10177,384;  187,558;34570,339;29,05474
 356,63;10202,679;  221,775;34254,747;29,32716
 357,22;10142,686;  190,604;34095,480;29,35295
 357,82;10067,985;  183,222;33882,581;29,33220
 358,41;10026,554;  201,392;33706,126;29,32470
 359,00; 9941,582;  175,847;33457,043;29,34310
 359,60; 9963,332;  182,395;33448,121;29,40245
 360,19; 9912,972;  203,174;33155,556;29,46615
 360,78; 9889,370;  199,696;33047,144;29,49902
 361,37; 9826,206;  192,081;32793,417;29,55132
 361,97; 9801,587;  192,853;32733,461;29,52844
 362,56; 9792,645;  189,614;32275,950;29,92873
 363,15; 9768,298;  246,003;32026,395;29,96280
 363,74; 9641,407;  199,688;31712,339;29,96168
 364,34; 9558,960;  220,693;31202,337;30,14129
 364,93; 9463,705;  182,228;30709,831;30,40356
 365,52; 9325,278;  159,236;30243,627;30,46777
 366,11; 9236,598;  182,924;29926,554;30,43904
 366,71; 9137,768;  179,155;29502,526;30,55110
 367,30; 9102,377;  185,082;29082,998;30,85792
 367,89; 9098,736;  227,707;28792,062;31,05629
 368,48; 9002,770;  205,458;28502,732;31,08890
 369,07; 8871,160;  188,932;27957,078;31,26686
 369,67; 8839,914;  211,689;27646,075;31,45040
 370,26; 8787,293;  185,548;27359,701;31,65414
 370,85; 8760,723;  189,159;27009,117;31,95965
 371,44; 8672,257;  193,545;26764,090;31,91019
 372,03; 8686,746;  165,462;26478,539;32,38422
 372,63; 8558,339;  162,159;26213,803;32,22898
 373,22; 8562,286;  179,855;25772,385;32,75343
 373,81; 8524,937;  150,851;25447,914;33,10300
 374,40; 8468,293;  180,247;25165,098;33,17229
 374,99; 8443,908;  175,003;24893,227;33,45267
 375,59; 8382,770;  165,246;24443,769;33,84689
 376,18; 8454,288;  212,619;24379,745;34,10281
 376,77; 8416,917;  187,853;24176,985;34,30330
 377,36; 8428,904;  216,543;24104,508;34,37865
 377,95; 8484,208;  197,232;23771,687;35,15236
 378,55; 8432,670;  170,552;23558,026;35,32711
 379,14; 8471,887;  198,774;23458,074;35,56905
 379,73; 8480,418;  187,771;23331,848;35,83054
 380,32; 8554,834;  182,391;23391,356;36,07418
 380,91; 8515,182;  166,381;23172,271;36,28984
 381,50; 8629,635;  206,076;23155,377;36,70508
 382,10; 8609,065;  176,699;23080,048;36,81717
 382,69; 8675,607;  170,081;22958,543;37,32383
 383,28; 8783,625;  207,846;23008,182;37,61251
 383,87; 8739,284;  171,384;22770,776;37,91208
 384,46; 8783,134;  165,299;22696,791;38,24796
 385,05; 8898,695;  209,383;22706,713;38,62375
 385,64; 8970,521;  182,155;22713,477;39,00511
 386,24; 9002,233;  154,376;22624,168;39,37667
 386,83; 9154,611;  202,529;22717,160;39,76118
 387,42; 9291,115;  198,001;22748,484;40,32337
 388,01; 9498,187;  191,214;23039,805;40,73325
 388,60; 9692,987;  191,378;23338,183;41,04933
 389,19; 9875,690;  169,359;23497,482;41,60785
 389,78;10087,516;  175,515;23720,862;42,09750
 390,37;10499,806;  247,218;24314,312;42,60003
 390,96;10567,194;  192,683;24448,210;42,77174
 391,56;10710,385;  199,510;24610,599;43,05779
 392,15;10923,441;  178,132;24917,388;43,43424
 392,74;11037,430;  164,729;25115,546;43,57653
 393,33;11318,961;  181,432;25416,493;44,13514
 393,92;11589,265;  192,876;25942,884;44,25781
 394,51;11794,615;  173,431;26060,073;44,89259
 395,10;12033,738;  203,089;26385,330;45,18578
 395,69;12220,730;  195,092;26539,661;45,64750
 396,28;12360,425;  199,467;26611,227;46,04372
 396,87;12516,559;  200,682;26746,332;46,39509
 397,46;12687,214;  206,440;26847,330;46,84819
 398,06;12980,032;  202,119;27071,381;47,55588
 398,65;13098,631;  193,165;27109,494;47,94660
 399,24;13250,225;  221,005;27278,489;48,15385
 399,83;13330,930;  189,189;27298,240;48,47732
 400,42;13569,553;  236,301;27508,840;48,88893
 401,01;13752,142;  213,253;27567,715;49,49426
 401,60;13766,419;  224,418;27684,981;49,31436
 402,19;13910,863;  248,905;27543,300;50,05408
 402,78;14059,407;  246,517;27580,827;50,53316
 403,37;14038,478;  231,210;27267,734;51,06895
 403,96;14096,899;  243,044;27231,134;51,33322
 404,55;14103,350;  240,407;27143,881;51,52845
 405,14;14047,721;  235,394;26939,063;51,72445
 405,73;14125,084;  241,365;26833,687;52,20950
 406,32;14177,741;  244,217;26835,458;52,39892
 406,91;14159,432;  242,212;26543,444;52,91471
 407,50;14088,406;  242,555;26316,254;53,10275
 408,09;14040,539;  204,140;25984,802;53,66968
 408,68;14023,609;  213,888;25886,917;53,79077
 409,27;14006,704;  204,070;25622,542;54,30159
 409,86;13902,381;  204,441;25397,463;54,37196
 410,45;13995,006;  259,802;25416,635;54,59830
 411,04;14012,225;  240,550;25244,193;55,07867
 411,63;13867,535;  223,545;24981,317;55,10993
 412,22;13842,593;  238,764;24764,442;55,46770
 412,81;13695,970;  230,556;24502,804;55,47658
 413,40;13498,524;  250,201;24098,627;55,55219
 413,99;13468,010;  293,038;23704,255;56,27632
 414,58;13253,493;  213,736;23268,030;56,56108
 415,17;13124,575;  223,094;23082,308;56,43886
 415,76;13078,931;  218,992;22812,098;56,91975
 416,35;13017,349;  220,543;22674,067;56,99242
 416,94;13083,870;  243,767;22688,319;57,20811
 417,53;13242,505;  215,866;22926,848;57,35833
 418,12;13322,527;  221,256;23043,853;57,40482
 418,71;13597,755;  244,817;23442,467;57,56160
 419,30;13720,787;  225,951;23472,149;58,05180
 419,89;13801,533;  212,648;23762,027;57,70379
 420,48;14066,915;  244,971;24051,404;58,05970
 421,07;14114,458;  238,899;24127,366;58,08476
 421,66;14198,860;  216,143;24191,203;58,32193
 422,25;14143,921;  224,553;24110,050;58,27539
 422,84;14212,409;  248,328;24111,537;58,51720
 423,43;13996,086;  222,471;23808,297;58,39785
 424,02;13895,859;  262,091;23494,797;58,68351
 424,60;13614,579;  220,276;23056,334;58,65418
 425,19;13421,010;  237,645;22756,866;58,54272
 425,78;13408,012;  245,646;22596,469;58,88985
 426,37;13303,642;  243,427;22466,555;58,76857
 426,96;13266,093;  228,965;22364,059;58,89800
 427,55;13183,229;  230,060;22136,521;59,12945
 428,14;13004,055;  225,837;21916,458;58,91126
 428,73;12963,883;  235,976;21736,089;59,19925
 429,32;12845,547;  255,117;21645,903;58,85913
 429,91;12944,729;  270,054;21658,852;59,25848
 430,50;12804,457;  255,140;21531,251;58,98313
 431,08;12729,075;  271,610;21315,476;59,19761
 431,67;12727,467;  339,311;21209,105;59,35926
 432,26;12649,249;  356,242;21017,755;59,49713
 432,85;12403,169;  375,547;20698,697;59,18188
 433,44;12204,768;  399,559;20270,525;59,40933
 434,03;11938,985;  405,728;19760,938;59,58735
 434,62;11713,324;  370,098;19362,107;59,72631
 435,21;11648,643;  383,394;19170,565;59,96245
 435,79;11493,485;  384,184;18931,114;59,89833
 436,38;11408,279;  370,200;18816,645;59,83852
 436,97;11354,045;  365,125;18766,920;59,71657
 437,56;11178,791;  353,995;18484,688;59,70426
 438,15;11144,566;  330,604;18384,305;59,89886
 438,74;11086,304;  336,683;18415,342;59,46028
 439,33;11131,966;  296,142;18388,591;59,89142
 439,91;11092,278;  246,614;18453,572;59,56879
 440,50;11189,729;  300,769;18603,147;59,49479
 441,09;11250,324;  299,397;18636,410;59,72034
 441,68;11155,297;  273,565;18668,114;59,15738
 442,27;11152,539;  259,328;18674,437;59,15366
 442,86;11134,708;  242,665;18625,875;59,24995
 443,44;11228,901;  263,275;18667,052;59,58356
 444,03;11238,489;  323,666;18748,596;59,23943
 444,62;11147,857;  247,204;18609,085;59,36566
 445,21;10981,711;  263,355;18383,530;59,15150
 445,80;10919,577;  292,217;18229,040;59,24884
 446,39;10758,415;  329,906;18000,199;59,01718
 446,97;10580,398;  252,079;17791,578;58,88606
 447,56;10490,707;  255,631;17560,750;59,14479
 448,15;10309,623;  258,309;17370,256;58,73858
 448,74;10190,564;  272,465;17065,523;59,06071
 449,33;10065,936;  263,782;16883,615;58,97865
 449,91; 9898,735;  252,952;16650,160;58,82577
 450,50; 9736,150;  261,333;16390,283;58,74416
 451,09; 9674,141;  269,797;16269,159;58,77949
 451,68; 9638,174;  285,880;16162,962;58,90436
 452,26; 9559,186;  279,887;16121,618;58,57503
 452,85; 9465,781;  264,960;15938,908;58,70136
 453,44; 9452,327;  266,135;15957,870;58,54159
 454,03; 9483,904;  249,430;15871,189;59,11290
 454,61; 9445,202;  251,290;15867,249;58,87510
 455,20; 9493,323;  282,759;16099,004;58,23484
 455,79; 9514,125;  280,054;16082,231;58,43544
 456,38; 9525,823;  281,155;16179,615;58,14820
 456,97; 9542,693;  271,920;16242,570;58,04881
 457,55; 9502,882;  259,237;16302,661;57,61641
 458,14; 9532,608;  284,764;16238,267;57,96749
 458,73; 9461,911;  278,316;16146,963;57,87258
 459,31; 9500,329;  304,328;16219,548;57,78117
 459,90; 9549,993;  319,244;16329,843;57,65399
 460,49; 9595,578;  368,702;16321,867;57,83727
 461,08; 9558,637;  277,566;16523,637;57,12810
 461,66; 9634,395;  285,866;16569,365;57,41105
 462,25; 9657,318;  276,725;16639,544;57,32871
 462,84; 9693,589;  315,336;16667,785;57,35075
 463,43; 9622,116;  243,893;16630,563;57,23080
 464,01; 9626,605;  275,053;16650,967;57,10553
 464,60; 9585,683;  337,196;16678,545;56,59562
 465,19; 9428,108;  257,134;16363,054;56,94164
 465,77; 9458,043;  270,218;16285,172;57,37029
 466,36; 9325,517;  296,509;16209,535;56,73973
 466,95; 9162,673;  268,587;15877,138;56,98213
 467,53; 8955,995;  278,457;15519,410;56,93567
 468,12; 8763,233;  295,689;15248,873;56,62703
 468,71; 8631,709;  288,751;14958,377;56,87233
 469,29; 8431,345;  258,153;14647,343;56,80092
 469,88; 8288,163;  275,312;14348,432;56,93727
 470,47; 8364,069;  335,786;14490,029;56,71998
 471,06; 8297,174;  275,940;14454,645;56,57240
 471,64; 8354,753;  287,783;14563,726;56,50744
 472,23; 8293,154;  253,422;14599,914;56,03970
 472,81; 8373,858;  252,488;14717,219;56,14601
 473,40; 8404,209;  260,884;14859,691;55,78076
 473,99; 8609,780;  362,346;14993,558;56,36877
 474,57; 8612,258;  269,422;15174,767;55,97211
 475,16; 8702,399;  281,721;15305,585;56,04868
 475,75; 8690,678;  312,431;15514,397;55,11292
 476,33; 8789,016;  298,979;15530,930;55,73834
 476,92; 8824,497;  298,348;15619,455;55,64969
 477,51; 8841,595;  290,821;15695,633;55,50716
 478,09; 8837,507;  303,744;15773,367;55,16465
 478,68; 8741,164;  291,055;15604,147;55,18225
 479,27; 8790,612;  321,816;15720,118;54,99825
 479,85; 8763,076;  301,978;15655,887;55,10712
 480,44; 8821,596;  295,521;15808,940;54,95936
 481,02; 9572,878;  308,145;17329,472;54,43015
 481,61;10686,946;  333,449;19544,252;53,89414
 482,20;11388,345;  324,683;20897,640;53,77770
 482,78;11910,639;  362,596;21900,162;53,61814
 483,37;12166,791;  354,927;22425,539;53,51852
 483,95;12357,947;  395,852;22773,904;53,45458
 484,54;12446,456;  404,370;22980,950;53,33884
 485,13;12341,319;  370,478;22856,298;53,23729
 485,71;12196,123;  355,398;22656,211;53,09549
 486,30;12075,497;  394,398;22216,176;53,52955
 486,88;11891,736;  442,708;21883,556;53,39820
 487,47;11453,051;  420,865;21188,013;53,12326
 488,05;10941,358;  398,947;20170,730;53,32048
 488,64;10148,960;  399,418;18761,207;53,09690
 489,23; 9146,915;  401,488;16678,837;53,72759
 489,81; 7841,187;  408,414;14269,392;53,62372
 490,40; 7491,980;  347,262;13531,982;54,18938
 490,98; 7332,983;  340,881;13269,027;54,08434
 491,57; 7246,202;  371,412;13148,992;53,80353
 492,15; 7179,062;  352,345;13080,476;53,63487
 492,74; 7144,913;  354,794;12967,235;53,83668
 493,32; 7075,675;  360,881;12861,264;53,71671
 493,91; 6990,247;  331,811;12723,984;53,73098
 494,50; 6940,746;  343,443;12677,844;53,48701
 495,08; 6874,053;  309,904;12610,081;53,36629
 495,67; 6890,526;  335,040;12580,143;53,53557
 496,25; 6741,299;  277,742;12489,746;52,92789
 496,84; 6733,927;  292,963;12438,968;53,02949
 497,42; 6729,010;  282,361;12411,385;53,15060
 498,01; 6665,000;  315,196;12348,935;52,76668
 498,59; 6581,885;  271,516;12220,764;52,80976
 499,18; 6544,545;  272,427;12135,404;52,87136
 499,76; 6513,535;  304,512;12126,222;52,52221
 500,35; 6398,722;  274,525;11882,268;52,75959
 500,93; 6303,059;  268,207;11829,538;52,19859
 501,52; 6256,264;  264,670;11761,134;52,11684
 502,10; 6249,179;  290,455;11706,567;52,19574
 502,69; 6099,756;  260,384;11558,929;51,68251
 503,27; 6007,543;  238,444;11337,076;51,98027
 503,86; 5910,121;  265,227;11249,514;51,39063
 504,44; 5838,863;  241,002;11138,141;51,37000
 505,03; 5717,033;  235,695;10826,037;51,75790
 505,61; 5613,817;  240,077;10744,335;51,15773
 506,19; 5540,192;  261,617;10535,673;51,37771
 506,78; 5370,808;  236,553;10322,851;50,90326
 507,36; 5308,076;  243,694;10171,022;51,01456
 507,95; 5206,824;  237,020; 9973,227;51,04456
 508,53; 5110,324;  242,322; 9839,173;50,72499
 509,12; 5055,278;  251,249; 9659,148;51,06378
 509,70; 4971,336;  269,098; 9505,752;50,90845
 510,29; 4883,209;  272,720; 9400,156;50,51243
 510,87; 4766,675;  230,091; 9153,690;50,83806
 511,46; 4653,112;  234,863; 8960,280;50,63654
 512,04; 4576,486;  239,639; 8768,642;50,84823
 512,62; 4485,178;  243,632; 8671,860;50,32547
 513,21; 4351,853;  231,490; 8494,772;49,86351
 513,79; 4281,381;  239,355; 8338,467;49,90702
 514,38; 4189,913;  219,118; 8148,363;50,07785
 514,96; 4154,736;  265,347; 8089,691;49,70882
 515,54; 4018,064;  226,505; 7901,708;49,40011
 516,13; 4024,291;  253,814; 7786,374;50,05571
 516,71; 3902,908;  238,669; 7644,758;49,47603
 517,30; 3850,321;  215,753; 7536,848;49,64514
 517,88; 3804,249;  240,675; 7425,253;49,60032
 518,46; 3704,010;  225,986; 7288,193;49,24840
 519,05; 3679,949;  223,607; 7229,415;49,33538
 519,63; 3666,216;  232,297; 7143,552;49,68589
 520,22; 3595,446;  255,847; 7092,353;48,84950
 520,80; 3562,222;  230,848; 7009,668;49,14385
 521,38; 3561,939;  276,455; 6990,066;48,93766
 521,97; 3508,930;  218,700; 6925,044;49,06146
 522,55; 3483,650;  237,700; 6907,205;48,66853
 523,13; 3452,489;  229,243; 6936,984;48,05262
 523,72; 3407,784;  243,832; 6869,906;47,75003
 524,30; 3526,004;  266,325; 7045,709;48,08223
 524,89; 3455,244;  231,316; 7010,513;47,55619
 525,47; 3480,298;  242,866; 7146,411;46,89521
 526,05; 3493,233;  209,944; 7199,048;46,97725
 526,64; 3572,038;  254,101; 7339,352;46,82879
 527,22; 3612,676;  245,250; 7461,704;46,66317
 527,80; 3671,455;  280,870; 7600,456;46,32209
 528,39; 3626,250;  241,413; 7663,103;45,60736
 528,97; 3710,418;  240,641; 7829,094;45,72444
 529,55; 3772,445;  239,089; 8015,082;45,43928
 530,14; 3875,281;  259,954; 8237,239;45,32026
 530,72; 3902,331;  245,103; 8350,136;45,12292
 531,30; 3950,672;  224,494; 8461,862;45,23505
 531,89; 4015,562;  240,879; 8581,457;45,25685
 532,47; 4054,004;  266,189; 8671,445;45,06483
 533,05; 4035,697;  263,793; 8687,260;44,77852
 533,63; 4040,450;  272,883; 8768,614;44,34659
 534,22; 4057,500;  246,729; 8828,838;44,40366
 534,80; 4075,738;  281,276; 8887,929;44,08754
 535,38; 4187,266;  373,572; 8984,402;44,28951
 535,97; 4064,872;  276,113; 8949,201;43,68409
 536,55; 4155,530;  338,662; 9045,371;43,83824
 537,13; 4114,012;  327,955; 9016,890;43,57331
 537,71; 4134,544;  388,954; 9083,112;43,08168
 538,30; 4193,036;  429,886; 9176,107;43,02601
 538,88; 4258,975;  490,053; 9203,411;43,25453
 539,46; 4366,227;  570,584; 9481,398;42,59592
 540,05; 4396,489;  599,435; 9536,598;42,48613
 540,63; 4502,067;  672,128; 9742,556;42,22446
 541,21; 4588,720;  731,748; 9908,693;42,02893
 541,79; 4637,456;  775,363;10055,518;41,61668
 542,38; 4703,944;  839,434;10166,974;41,43119
 542,96; 4745,434;  848,986;10375,769;40,89994
 543,54; 4823,268;  873,516;10592,503;40,63954
 544,12; 4850,347;  835,211;10691,792;40,73559
 544,70; 4903,171;  809,525;10916,203;40,50437
 545,29; 4924,258;  809,511;11052,604;40,17094
 545,87; 4912,763;  772,825;11032,364;40,35209
 546,45; 4897,180;  698,587;11026,149;40,65426
 547,03; 4907,310;  664,668;11148,418;40,46875
 547,62; 4898,951;  610,980;11293,456;40,14024
 548,20; 4957,598;  607,908;11465,733;40,06042
 548,78; 4965,926;  554,771;11565,622;40,06190
 549,36; 4979,002;  502,615;11751,942;39,79249
 549,94; 5012,503;  443,597;11930,164;39,77607
 550,53; 5096,917;  450,535;12231,870;39,43850
 551,11; 5099,451;  410,774;12298,547;39,44117
 551,69; 5225,408;  408,384;12662,781;39,30854
 552,27; 5271,798;  359,147;12914,013;39,12946
 552,85; 5368,924;  369,543;13319,351;38,60583
 553,44; 5450,787;  355,922;13599,997;38,46901
 554,02; 5588,179;  359,309;14018,069;38,28217
 554,60; 5642,210;  294,083;14289,506;38,21340
 555,18; 5793,507;  324,692;14718,459;37,99433
 555,76; 5862,658;  311,848;15037,349;37,69522
 556,34; 6004,903;  310,320;15450,365;37,61272
 556,93; 6136,288;  296,231;15897,257;37,43380
 557,51; 6217,233;  271,628;16243,813;37,22474
 558,09; 6328,238;  296,923;16662,802;36,85299
 558,67; 6458,150;  303,633;16960,740;36,94829
 559,25; 6534,521;  310,322;17282,808;36,67228
 559,83; 6592,401;  280,407;17639,604;36,36109
 560,41; 6718,769;  267,702;18006,370;36,36726
 561,00; 6843,106;  288,403;18325,531;36,34006
 561,58; 6893,758;  263,779;18613,649;36,13093
 562,16; 6987,424;  259,313;18912,848;36,06883
 562,74; 7042,691;  254,617;19380,447;35,49165
 563,32; 7186,642;  247,791;19781,485;35,52247
 563,90; 7343,320;  276,633;20185,482;35,49521
 564,48; 7446,020;  285,700;20606,145;35,23702
 565,06; 7639,561;  274,171;21238,677;35,13267
 565,65; 7874,402;  278,953;21985,989;34,99073
 566,23; 8131,309;  321,557;22741,832;34,83344
 566,81; 8354,993;  273,707;23427,612;34,90248
 567,39; 8685,792;  291,947;24471,683;34,71438
 567,97; 8861,175;  296,324;25214,529;34,37186
 568,55; 9163,971;  316,867;26013,016;34,42969
 569,13; 9375,332;  271,480;26819,818;34,29161
 569,71; 9633,666;  269,543;27843,960;33,95946
 570,29;10037,051;  320,692;28939,781;33,95062
 570,87;10210,065;  305,695;29680,252;33,71751
 571,45;10422,479;  307,556;30389,579;33,62448
 572,03;10517,442;  272,872;30866,845;33,48558
 572,61;10757,966;  271,021;31664,002;33,40538
 573,20;10945,365;  290,705;32358,359;33,22557
 573,78;11142,274;  294,714;33093,996;33,07255
 574,36;11278,508;  311,712;33626,183;32,91902
 574,94;11460,862;  389,335;33969,315;32,97062
 575,52;11416,855;  322,269;34198,569;32,75029
 576,10;11623,741;  372,188;34841,964;32,64179
 576,68;11731,931;  366,102;35372,237;32,46811
 577,26;11899,804;  390,658;36176,678;32,16101
 577,84;12036,185;  399,482;36690,512;32,06496
 578,42;12160,980;  448,030;37063,485;31,98909
 579,00;12054,598;  405,406;37037,737;31,80030
 579,58;12116,175;  446,643;37354,945;31,61763
 580,16;12018,195;  409,801;37316,270;31,45355
 580,74;12107,504;  414,494;37448,571;31,57365
 581,32;11977,846;  421,337;37659,715;31,03387
 581,90;11879,651;  448,647;37531,564;30,82553
 582,48;11906,596;  442,032;37614,781;30,84131
 583,06;11904,598;  445,105;37679,826;30,77636
 583,64;11893,598;  450,104;37807,602;30,63239
 584,22;11752,280;  469,733;37684,438;30,31744
 584,80;11575,386;  467,569;37350,549;30,11638
 585,38;11334,369;  472,550;36894,232;29,82240
 585,96;11259,891;  437,639;36929,291;29,65679
 586,54;11250,673;  458,962;36894,024;29,61903
 587,12;11193,983;  433,958;37022,685;29,40803
 587,70;11160,892;  448,794;37166,823;29,17395
 588,28;11124,532;  433,573;37170,643;29,10129
 588,86;11106,375;  442,806;37285,533;28,94349
 589,44;11009,885;  418,817;37384,794;28,65085
 590,02;11021,613;  419,968;37450,085;28,62979
 590,59;11018,591;  388,423;37681,779;28,50419
 591,17;11038,010;  391,828;37860,748;28,41337
 591,75;10979,323;  371,129;37944,448;28,23332
 592,33;11015,754;  393,664;38193,543;28,10086
 592,91;11031,387;  340,749;38417,906;28,07625
 593,49;11074,721;  343,446;38788,470;27,91330
 594,07;11092,100;  366,908;38934,917;27,80852
 594,65;10979,185;  375,809;39015,549;27,44164
 595,23;11130,190;  367,275;39459,127;27,53237
 595,81;11056,489;  345,355;39582,612;27,29838
 596,39;11094,226;  338,125;39621,661;27,38068
 596,97;11077,662;  341,133;39869,654;27,16147
 597,55;11003,100;  327,735;39833,342;27,02241
 598,12;10911,405;  321,141;39747,801;26,86067
 598,70;10957,625;  318,751;39928,985;26,85890
 599,28;10932,982;  338,674;39948,286;26,74681
 599,86;10926,229;  324,981;40101,572;26,65198
 600,44;10831,671;  293,984;40215,022;26,39633
 601,02;10886,172;  349,612;40207,774;26,43514
 601,60;10817,713;  331,822;40239,155;26,27560
 602,18;10760,822;  304,679;40238,521;26,18366
 602,75;10711,257;  298,277;40280,464;26,04405
 603,33;10637,169;  320,597;40295,076;25,80790
 603,91;10559,893;  300,761;40336,602;25,62487
 604,49;10565,703;  320,598;40364,363;25,58477
 605,07;10592,180;  347,590;40355,098;25,60667
 605,65;10528,172;  356,985;40524,051;25,32221
 606,23;10502,765;  451,575;40557,778;25,06144
 606,80;10515,532;  517,431;40644,520;24,91609
 607,38;10476,259;  588,683;40656,720;24,67697
 607,96;10443,834;  671,123;40772,737;24,36987
 608,54;10434,601;  747,908;40712,876;24,23796
 609,12;10403,505;  756,970;40844,436;24,06372
 609,70;10394,173;  832,365;40810,872;23,91737
 610,27;10382,536;  835,506;40857,624;23,85438
 610,85;10305,777;  863,980;41064,690;23,48664
 611,43;10260,532;  874,904;40960,397;23,41402
 612,01;10166,618;  828,974;40712,118;23,41251
 612,59;10086,003;  815,749;40785,669;23,19308
 613,16;10047,313;  763,887;40663,382;23,26703
 613,74; 9921,911;  723,751;40515,915;23,11551
 614,32; 9842,118;  666,139;40597,345;22,97947
 614,90; 9805,802;  579,669;40433,792;23,14976
 615,48; 9648,039;  506,119;40107,852;23,08465
 616,05; 9538,564;  458,962;40151,920;22,87459
 616,63; 9420,627;  456,728;39861,602;22,74820
 617,21; 9368,981;  452,353;39721,421;22,70649
 617,79; 9298,753;  426,279;39680,626;22,60253
 618,36; 9264,224;  435,206;39594,000;22,54671
 618,94; 9135,321;  378,736;39283,147;22,50795
 619,52; 9022,744;  396,191;38990,785;22,35171
 620,10; 8954,741;  380,508;39005,527;22,19865
 620,67; 8854,215;  396,806;38863,288;21,98644
 621,25; 8792,004;  408,360;38743,644;21,86926
 621,83; 8776,029;  377,274;38621,503;21,96084
 622,41; 8808,403;  424,966;38674,860;21,91754
 622,98; 8652,006;  382,420;38389,742;21,75788
 623,56; 8608,318;  395,034;38367,461;21,62960
 624,14; 8534,463;  386,440;38175,066;21,56210
 624,72; 8418,040;  360,735;38143,000;21,32563
 625,29; 8434,676;  357,804;38178,069;21,35594
 625,87; 8381,171;  404,894;38104,494;21,15746
 626,45; 8242,976;  336,802;37904,529;21,04512
 627,02; 8203,463;  356,280;37840,131;20,93484
 627,60; 8148,665;  349,214;37792,854;20,82984
 628,18; 8127,812;  330,277;37808,590;20,80546
 628,76; 8051,392;  329,960;37875,812;20,56534
 629,33; 8077,901;  355,118;37827,914;20,60904
 629,91; 8031,280;  346,739;37853,604;20,48836
 630,49; 8034,866;  358,577;38040,982;20,37102
 631,06; 7970,640;  333,730;38133,547;20,20356
 631,64; 7939,515;  332,572;38103,446;20,13971
 632,22; 7859,171;  301,645;37955,072;20,07128
 632,79; 7893,066;  331,029;38277,680;19,92808
 633,37; 7858,333;  295,820;38268,412;19,91571
 633,95; 7831,476;  301,571;38339,417;19,79582
 634,52; 7835,727;  288,658;38475,524;19,76352
 635,10; 7821,751;  293,738;38482,876;19,71245
 635,68; 7873,726;  289,491;38762,275;19,71325
 636,25; 7776,572;  273,792;38695,031;19,52769
 636,83; 7802,622;  257,960;38901,274;19,52385
 637,41; 7761,999;  279,720;38982,882;19,33248
 637,98; 7785,185;  315,104;39167,217;19,22696
 638,56; 7818,361;  284,944;39155,575;19,38074
 639,13; 7777,088;  269,805;39304,993;19,23209
 639,71; 7807,338;  332,346;39407,254;19,12990
 640,29; 7708,888;  241,576;39252,211;19,14173
 640,86; 7710,753;  265,961;39474,419;18,98772
 641,44; 7679,234;  263,269;39389,782;18,95381
 642,02; 7658,022;  295,808;39364,759;18,84416
 642,59; 7622,811;  268,347;39627,659;18,68545
 643,17; 7595,907;  260,963;39595,868;18,64742
 643,74; 7588,157;  270,655;39578,153;18,61605
 644,32; 7534,869;  300,810;39472,822;18,46742
 644,89; 7538,504;  284,041;39628,723;18,43823
 645,47; 7541,061;  302,887;39555,316;18,44007
 646,05; 7466,850;  296,041;39450,293;18,31425
 646,62; 7400,177;  273,503;39488,732;18,17323
 647,20; 7464,504;  288,581;39729,633;18,19405
 647,77; 7368,292;  260,889;39484,533;18,12020
 648,35; 7321,312;  260,120;39330,587;18,07296
 648,92; 7275,023;  288,735;39436,257;17,84605
 649,50; 7251,812;  254,120;39275,235;17,93309
 650,08; 7225,139;  249,659;39204,673;17,90650
 650,65; 7211,235;  261,044;39367,112;17,77267
 651,23; 7318,254;  240,583;40243,782;17,69276
 651,80; 7543,581;  249,814;41338,221;17,75140
 652,38; 7565,216;  254,353;41778,968;17,60609
 652,95; 7548,620;  234,199;42072,868;17,48244
 653,53; 7677,485;  266,507;42366,538;17,60326
 654,10; 7664,274;  289,585;42626,054;17,41923
 654,68; 7596,447;  244,277;42476,416;17,40894
 655,25; 7608,543;  242,124;42587,239;17,39615
 655,83; 7617,716;  244,816;42716,832;17,35943
 656,40; 7593,120;  275,201;42627,810;17,27855
 656,98; 7572,678;  259,894;42512,787;17,30718
 657,55; 7516,543;  244,818;42439,995;17,23355
 658,13; 7400,178;  249,356;42070,588;17,09854
 658,70; 7352,428;  272,818;41609,950;17,12651
 659,28; 7163,601;  263,203;40731,697;17,05128
 659,85; 6963,467;  265,588;39896,905;16,90047
 660,43; 6948,794;  272,281;39862,805;16,86392
 661,00; 6924,890;  252,204;40042,091;16,76980
 661,58; 6976,217;  254,666;40300,991;16,78444
 662,15; 6988,390;  236,666;40429,353;16,79839
 662,73; 7106,332;  316,667;40864,254;16,74493
 663,30; 7024,044;  266,052;41035,616;16,57607
 663,88; 7019,755;  260,052;41252,824;16,48999
 664,45; 7045,698;  259,591;41389,340;16,49927
 665,03; 7112,717;  250,130;41772,086;16,52761
 665,60; 7215,659;  338,130;42357,294;16,36760
 666,17; 7127,294;  249,515;42340,195;16,34038
 666,75; 7197,313;  248,054;42744,788;16,35246
 667,32; 7259,410;  271,208;43056,150;16,33332
 667,90; 7220,275;  252,285;43353,589;16,16654
 668,47; 7296,910;  279,132;43609,951;16,19581
 669,05; 7315,468;  245,594;43943,005;16,17916
 669,62; 7272,718;  230,748;44033,136;16,07668
 670,19; 7305,814;  234,671;44168,729;16,09490
 670,77; 7314,602;  245,595;44346,783;16,02906
 671,34; 7338,314;  248,980;44259,915;16,10812
 671,92; 7391,872;  246,442;44644,123;16,09415
 672,49; 7374,199;  261,211;44613,177;16,03759
 673,06; 7321,218;  210,442;44741,693;15,96806
 673,64; 7349,622;  233,366;44608,132;16,03672
 674,21; 7320,103;  237,443;44696,109;15,93089
 674,79; 7397,814;  257,828;44884,395;15,99941
 675,36; 7363,141;  263,598;44990,603;15,87306
 675,93; 7313,314;  240,982;44888,734;15,84029
 676,51; 7319,103;  254,214;44973,404;15,79834
 677,08; 7346,891;  254,522;45112,073;15,81087
 677,65; 7335,680;  239,830;45269,436;15,75819
 678,23; 7372,084;  243,830;45430,951;15,77497
 678,80; 7396,795;  237,215;45558,852;15,79727
 679,38; 7359,276;  239,831;45647,752;15,67886
 679,95; 7442,219;  256,985;46004,653;15,70623
 680,52; 7439,238;  243,908;46254,553;15,63840
 681,10; 7532,103;  264,370;46665,685;15,66277
 681,67; 7550,046;  241,371;46968,277;15,64126
 682,24; 7548,834;  230,217;46969,716;15,65831
 682,82; 7660,315;  244,833;47622,001;15,65202
 683,39; 7702,796;  279,141;47941,440;15,57553
 683,96; 7747,200;  246,449;48189,033;15,64528
 684,54; 7739,911;  230,757;48536,857;15,54494
 685,11; 7887,854;  287,065;48894,450;15,63711
 685,68; 7894,642;  253,527;49293,042;15,58155
 686,25; 7850,046;  226,373;49349,712;15,51945
 686,83; 7919,373;  243,528;49455,536;15,59751
 687,40; 7984,316;  228,528;49946,821;15,59946
 687,97; 8039,335;  273,067;50289,490;15,52744
 688,55; 7981,431;  229,144;50252,853;15,49723
 689,12; 8057,450;  211,375;50562,599;15,58269
 689,69; 8137,547;  213,145;50693,654;15,69794
 690,26; 8096,258;  236,145;50728,246;15,56702
 690,84; 8152,047;  231,838;50999,378;15,60093
 691,41; 8133,681;  259,838;51025,201;15,51027
 691,98; 8175,470;  245,915;51347,486;15,51724
 692,56; 8170,258;  240,146;51441,464;15,48810
 693,13; 8256,662;  288,916;51465,133;15,56924
 693,70; 8217,605;  263,686;51731,803;15,45407
 694,27; 8264,701;  225,070;51867,319;15,56793
 694,84; 8216,105;  236,840;51824,066;15,46752
 695,42; 8317,893;  293,763;51962,274;15,53002
 695,99; 8245,759;  243,225;52131,713;15,42256
 696,56; 8277,163;  236,764;52005,690;15,53132
 697,13; 8372,951;  256,765;52523,514;15,52839
 697,71; 8326,201;  235,534;52456,568;15,49312
 698,28; 8412,374;  233,611;52836,776;15,54804
 698,85; 8387,317;  215,381;52882,831;15,51610
 699,42; 8408,644;  215,304;53105,500;15,49123
 699,99; 8513,201;  256,459;53092,016;15,62725
 700,57; 8521,990;  247,228;53235,532;15,61620
 701,14; 8510,855;  243,228;53337,048;15,57173
 701,71; 8594,182;  263,537;53587,795;15,62262
 702,28; 8553,663;  246,152;53549,387;15,58538
 702,85; 8617,452;  252,614;53534,596;15,69919
 703,43; 8668,240;  263,768;53809,804;15,69579
 704,00; 8727,567;  290,461;54164,704;15,66074
 704,57; 8738,279;  265,692;54119,912;15,73245
 705,14; 8804,298;  292,231;54448,736;15,71753
 705,71; 8811,317;  293,308;54471,329;15,72226
 706,28; 8791,798;  270,770;54236,614;15,78967
 706,86; 8860,356;  292,847;54631,053;15,76701
 707,43; 8919,606;  325,694;54424,415;15,88561
 708,00; 8928,395;  308,925;54463,008;15,91656
 708,57; 8885,414;  274,848;54461,677;15,89051
 709,14; 8931,818;  294,926;54571,655;15,91270
 709,71; 8980,991;  278,464;54643,863;16,00747
 710,28; 9001,702;  288,696;54940,379;15,94280
 710,86; 8995,799;  276,927;55024,741;15,92552
 711,43; 9062,279;  298,696;55004,795;16,01939
 712,00; 9055,222;  275,543;55092,542;16,01634
 712,57; 9129,549;  295,082;55238,981;16,07907
 713,14; 9184,107;  262,851;55323,497;16,20260
 713,71; 9110,357;  271,390;55283,397;16,06734
 714,28; 9134,299;  251,006;55376,528;16,11466
 714,85; 9087,703;  238,852;55000,583;16,15882
 715,42; 9151,953;  257,929;55360,560;16,14083
 716,00; 9288,280;  316,007;55452,384;16,27287
 716,57; 9278,838;  241,469;55471,515;16,36314
 717,14; 9238,780;  240,854;55441,185;16,30049
 717,71; 9271,646;  233,777;55422,008;16,37644
 718,28; 9361,126;  284,162;55531,832;16,42959
 718,85; 9290,530;  222,855;55573,425;16,38226
 719,42; 9394,703;  246,701;55727,171;16,48869
 719,99; 9343,184;  222,163;55500,072;16,50030
 720,56; 9476,050;  270,702;55861,049;16,55926
 721,13; 9493,684;  235,779;55948,950;16,61709
 721,70; 9415,396;  227,933;55828,466;16,52406
 722,27; 9530,954;  245,626;55805,135;16,71240
 722,84; 9602,588;  304,396;55979,420;16,70083
 723,41; 9556,069;  227,627;56033,167;16,71598
 723,98; 9607,165;  246,627;56203,144;16,72824
 724,55; 9714,415;  270,166;56298,507;16,85620
 725,12; 9664,281;  198,551;56162,869;16,91387
 725,69; 9731,377;  237,782;56351,615;16,91846
 726,27; 9772,935;  235,475;56568,054;16,93063
 726,84; 9881,108;  248,321;56848,416;17,01903
 727,41; 9910,512;  258,860;56781,009;17,07588
 727,98; 9997,377;  263,552;57066,448;17,13614
 728,55;10037,704;  276,322;56943,579;17,22579
 729,12;10071,877;  235,015;57116,941;17,29348
 729,69;10105,974;  254,400;57310,611;17,26644
 730,26;10188,762;  266,015;57456,819;17,35025
 730,82;10159,628;  250,785;57256,873;17,38208
 731,39;10255,032;  251,016;57459,543;17,48693
 731,96;10378,743;  228,863;57805,059;17,62861
 732,53;10401,532;  248,555;57933,806;17,60065
 733,10;10498,166;  262,402;57982,245;17,73353
 733,67;10567,263;  273,941;58282,068;17,74462
 734,24;10524,282;  240,326;57903,584;17,83450
 734,81;10624,147;  270,710;57944,331;17,95177
 735,38;10617,013;  250,865;57717,770;18,03847
 735,95;10575,955;  244,250;57536,593;18,03331
 736,52;10696,359;  261,865;57870,340;18,11278
 737,09;10606,840;  267,866;57496,010;18,06624
 737,66;10761,782;  298,558;57632,141;18,24973
 738,23;10805,417;  252,482;57559,195;18,41483
 738,80;10919,205;  317,251;58055,019;18,36225
 739,37;11000,840;  285,406;58111,765;18,53036
 739,94;11030,782;  255,637;58239,435;18,58303
 740,51;11207,417;  384,022;58245,643;18,70566
 741,07;11069,513;  248,253;58188,082;18,67672
 741,64;11148,533;  283,792;58474,675;18,67086
 742,21;11229,706;  257,407;58503,345;18,83788
 742,78;11262,263;  227,177;58323,630;18,99442
 743,35;11327,052;  252,946;58575,530;18,98768
 743,92;11411,687;  287,178;58675,123;19,05275
 744,49;11437,321;  278,024;58564,408;19,14563
 745,06;11454,110;  244,948;58591,847;19,21124
 745,63;11460,052;  238,256;58472,825;19,26999
 746,19;11567,533;  253,794;58514,648;19,41911
 746,76;11556,322;  259,256;58633,856;19,35271
 747,33;11613,495;  261,334;58547,065;19,47674
 747,90;11716,283;  272,257;58807,888;19,55053
 748,47;11789,995;  253,257;58711,327;19,73506
 749,04;11771,399;  264,181;58650,305;19,70882
 749,61;11869,110;  284,335;58667,590;19,84263
 750,17;11843,360;  277,335;58816,567;19,75773
 750,74;11922,072;  273,028;58534,160;19,99454
 751,31;11942,091;  247,028;58625,368;20,03322
 751,88;12008,726;  227,106;58477,499;20,22582
 752,45;12095,591;  252,490;58571,015;20,30761
 753,02;12121,918;  266,875;58456,762;20,37303
 753,58;12180,476;  234,799;58355,047;20,55338
 754,15;12236,880;  244,107;58484,563;20,59183
 754,72;12231,822;  233,492;58180,233;20,70579
 755,29;12254,072;  228,569;58285,441;20,71332
 755,86;12311,015;  257,569;58302,264;20,76580
 756,42;12408,726;  263,416;58081,780;21,00597
 756,99;12313,284;  226,032;58234,450;20,83707
 757,56;12363,688;  232,724;57973,504;21,00935
 758,13;12409,092;  193,955;58021,174;21,12351
 758,70;12515,034;  228,802;58049,997;21,24867
 759,26;12568,977;  220,110;58127,436;21,32522
 759,83;12648,304;  236,264;58269,337;21,38787
 760,40;12636,784;  210,111;58042,930;21,48724
 760,97;12665,188;  205,496;58100,984;21,52101
 761,53;12643,977;  209,265;57683,038;21,63545
 762,10;12665,612;  191,419;57703,324;21,68976
 762,67;12779,323;  233,266;57670,993;21,84289
 763,24;12655,496;  182,497;57193,278;21,87832
 763,80;12806,362;  211,113;57339,333;22,04733
 764,37;12770,996;  217,575;57282,310;21,99856
 764,94;12750,631;  197,267;56821,441;22,16962
 765,50;12838,573;  206,268;56873,650;22,29202
 766,07;12962,900;  241,960;56870,704;22,46375
 766,64;12868,074;  217,576;56598,220;22,43766
 767,21;12888,785;  216,730;56470,274;22,52668
 767,77;12968,881;  236,038;56430,405;22,65858
 768,34;13023,516;  237,731;56366,306;22,77946
 768,91;12998,535;  251,270;56110,591;22,82030
 769,47;13095,247;  234,962;56116,799;23,01335
 770,04;13067,420;  238,963;56033,777;22,99220
 770,61;13027,362;  228,655;55788,985;23,03569
 771,18;13111,612;  219,656;55601,731;23,27821
 771,74;13218,632;  233,964;55799,940;23,36802
 772,31;13208,805;  240,118;55558,455;23,44374
 772,88;13231,901;  217,580;55339,971;23,60986
 773,44;13211,228;  219,042;55193,949;23,63294
 774,01;13320,478;  245,427;55259,926;23,76656
 774,58;13330,190;  213,735;54880,904;23,99329
 775,14;13355,440;  222,043;55078,496;23,94139
 775,71;13396,767;  228,735;54891,628;24,08953
 776,27;13513,940;  286,428;54917,528;24,21242
 776,84;13611,575;  317,198;54931,275;24,34240
 777,41;13557,132;  231,044;54727,021;24,45334
 777,97;13550,459;  227,275;54442,230;24,57474
 778,54;13563,479;  239,737;54507,053;24,55206
 779,11;13685,421;  263,045;54582,031;24,71028
 779,67;13649,979;  224,430;54410,777;24,77663
 780,24;13722,921;  237,584;54120,908;25,02692
 780,80;13807,710;  239,354;54303,578;25,09674
 781,37;13856,575;  257,585;54112,556;25,25113
 781,94;13845,902;  240,278;53924,918;25,34361
 782,50;13882,460;  247,201;53832,280;25,44600
 783,07;13928,094;  272,125;53840,719;25,49249
 783,63;13925,575;  236,817;53596,158;25,65391
 784,20;13976,979;  278,971;53472,443;25,75130
 784,77;13962,845;  243,895;53404,035;25,80684
 785,33;13960,249;  219,280;53117,705;25,97614
 785,90;13993,268;  240,896;53087,452;26,02321
 786,46;14033,979;  264,050;53024,275;26,09907
 787,03;14086,845;  223,665;52807,253;26,36408
 787,59;14101,018;  239,435;52801,153;26,37201
 788,16;14081,191;  254,051;52656,131;26,38663
 788,73;14175,364;  250,820;52510,262;26,64503
 789,29;14135,230;  238,975;52208,701;26,73913
 789,86;14229,095;  264,590;52071,294;26,95502
 790,42;14204,422;  246,052;52061,810;26,93847
 790,99;14194,518;  254,668;51573,633;27,16316
 791,55;14255,768;  234,591;51552,380;27,32226
 792,12;14355,865;  271,130;51593,896;27,44344
 792,68;14332,961;  246,900;51222,873;27,63275
 793,25;14335,903;  254,285;50957,158;27,77282
 793,81;14355,999;  318,054;50694,751;27,86595
 794,38;14216,634;  225,593;50385,421;27,89292
 794,94;14241,269;  228,901;50355,937;27,95371
 795,51;14263,827;  255,286;50031,222;28,14320
 796,07;14215,769;  245,748;49761,353;28,21337
 796,64;14266,250;  266,056;49916,100;28,19775
 797,20;14239,500;  254,826;49492,769;28,40223
 797,77;14146,596;  228,749;48990,670;28,54245
 798,33;14138,000;  245,442;48932,570;28,53436
 798,90;14207,404;  269,673;48837,932;28,69720
 799,46;14135,731;  236,673;48280,448;28,92999
 800,03;14136,981;  248,673;48187,195;28,97108
 800,59;14146,539;  267,520;47942,711;29,11162
 801,15;14161,789;  269,443;47774,765;29,24377
 801,72;14083,116;  243,059;47471,896;29,30425
 802,28;14065,520;  271,136;47138,566;29,43277
 802,85;13981,231;  252,752;46922,467;29,41625
 803,41;14014,020;  235,522;46761,367;29,61472
 803,98;13946,116;  244,137;46338,883;29,72568
 804,54;13908,674;  246,907;46077,091;29,80954
 805,11;13913,462;  259,292;45925,607;29,89987
 805,67;13917,712;  268,754;45871,892;29,92987
 806,23;13777,808;  254,600;45359,331;29,98180
 806,80;13853,135;  276,216;45208,385;30,21648
 807,36;13912,155;  271,370;45200,747;30,36050
 807,93;13883,020;  291,832;44961,494;30,42599
 808,49;13779,809;  248,602;44472,164;30,59728
 809,05;13780,059;  239,602;44295,449;30,73476
 809,62;13828,386;  269,218;44247,272;30,83167
 810,18;13890,251;  261,910;44107,327;31,08270
 810,74;13801,424;  230,449;43921,535;31,06120
 811,31;13799,213;  239,911;43566,512;31,29556
 811,87;13860,540;  260,527;43418,644;31,51206
 812,44;13877,713;  273,373;43441,929;31,51447
 813,00;13803,963;  204,297;43203,291;31,62787
 813,56;13955,290;  257,682;43274,807;31,84222
 814,13;13908,386;  240,836;43033,938;31,93868
 814,69;13911,790;  239,759;42947,377;32,01310
 815,25;13812,655;  228,067;42476,739;32,15388
 815,82;13918,675;  270,760;42486,947;32,32863
 816,38;13937,848;  295,145;42253,155;32,51513
 816,94;13801,406;  244,145;42005,748;32,46346
 817,51;13796,117;  214,530;41797,649;32,66130
 818,07;13741,137;  225,377;41456,087;32,78081
 818,63;13731,848;  251,377;41378,988;32,77718
 819,20;13699,252;  245,070;41232,888;32,82483
 819,76;13629,041;  223,070;40815,866;33,02549
 820,32;13645,906;  281,994;40768,843;33,00803
 820,89;13615,464;  257,302;40517,051;33,17994
 821,45;13552,483;  231,456;40146,567;33,37339
 822,01;13552,810;  256,149;39951,622;33,49667
 822,57;13605,675;  255,610;39727,138;33,82201
 823,14;13472,541;  209,918;39562,961;33,70164
 823,70;13436,252;  236,073;39154,246;33,91778
 824,26;13448,118;  231,688;39047,685;34,04892
 824,82;13468,676;  267,843;38961,663;34,11613
 825,39;13439,233;  234,535;38655,255;34,36869
 825,95;13506,714;  261,920;38714,310;34,44466
 826,51;13413,657;  254,382;38197,210;34,68185
 827,08;13520,907;  279,613;38328,034;34,80116
 827,64;13514,388;  261,460;38219,088;34,91506
 828,20;13442,945;  228,845;37884,450;35,09199
 828,76;13517,734;  272,614;37821,504;35,27433
 829,32;13517,907;  273,461;37616,713;35,46677
 829,89;13448,080;  225,000;37473,305;35,49982
 830,45;13556,484;  246,692;37449,821;35,77600
 831,01;13510,965;  241,693;37288,414;35,81767
 831,57;13511,292;  246,693;37078,238;36,01423
 832,14;13585,696;  228,001;37221,369;36,10835
 832,70;13527,792;  226,155;36888,808;36,28116
 833,26;13452,196;  207,002;36787,708;36,20814
 833,82;13560,292;  237,463;36728,070;36,51030
 834,38;13619,850;  232,002;36600,432;36,81173
 834,95;13586,331;  217,541;36509,871;36,83640
 835,51;13548,119;  207,388;36330,003;36,93180
 836,07;13582,061;  234,234;36352,519;36,95587
 836,63;13653,619;  259,927;36447,188;37,01217
 837,19;13675,100;  244,696;36265,627;37,28500
 837,75;13534,965;  206,312;35912,528;37,32866
 838,32;13614,985;  254,235;35994,121;37,38330
 838,88;13721,773;  248,851;36033,790;37,64970
 839,44;13729,177;  246,159;36008,229;37,70201
 840,00;13654,350;  237,390;35960,360;37,55836
 840,56;13593,139;  229,083;35646,953;37,73252
 841,12;13656,158;  217,006;35633,777;37,94573
 841,68;13670,639;  211,853;35437,908;38,20691
 842,25;13682,043;  216,315;35358,039;38,31835
 842,81;13641,139;  219,777;35046,401;38,53765
 843,37;13678,620;  203,777;35194,840;38,50938
 843,93;13707,178;  233,239;35044,818;38,70534
 844,49;13764,043;  245,932;35105,872;38,77836
 845,05;13758,832;  193,855;34941,619;39,03842
 845,61;13879,620;  249,240;34930,058;39,30236
 846,17;13852,024;  217,317;34837,881;39,38326
 846,73;13910,351;  237,856;34691,243;39,68404
 847,29;13829,755;  207,164;34501,759;39,72227
 847,86;13909,697;  208,549;34340,737;40,14143
 848,42;13895,870;  229,473;34260,252;40,15893
 848,98;13984,274;  234,242;34187,307;40,49718
 849,54;13950,678;  213,781;34310,361;40,28820
 850,10;13968,851;  237,320;34163,031;40,47529
 850,66;13922,332;  214,935;33960,701;40,61961
 851,22;13920,659;  202,474;33760,832;40,87859
 851,78;13990,294;  259,244;33908,348;40,80658
 852,34;13977,852;  241,936;33671,787;41,08877
 852,90;13956,563;  216,552;33518,379;41,25903
 853,46;13894,582;  214,091;33287,511;41,36401
 854,02;13940,448;  230,938;33345,642;41,40007
 854,58;13880,083;  226,938;33129,004;41,49631
 855,14;13856,256;  209,400;32998,674;41,61988
 855,70;13860,121;  187,169;32836,036;41,87880
 856,26;13872,448;  233,400;32768,167;41,92146
 856,82;13805,544;  222,939;32634,683;41,90643
 857,38;13861,410;  248,401;32505,660;42,20138
 857,94;13851,737;  223,555;32328,407;42,44898
 858,50;13811,833;  249,402;32301,461;42,31376
 859,06;13780,545;  219,556;32019,516;42,64467
 859,62;13763,102;  243,941;32037,108;42,52222
 860,18;13718,275;  231,249;31813,009;42,70511
 860,74;13730,218;  203,634;31693,909;42,95480
 861,30;13649,160;  206,327;31504,579;42,95075
 861,86;13771,564;  272,019;31546,172;43,16518
 862,42;13623,199;  232,943;31357,457;43,02157
 862,98;13714,064;  251,635;31246,204;43,43480
 863,54;13533,314;  223,174;31084,489;43,12888
 864,10;13672,872;  229,944;31171,466;43,44624
 864,66;13538,122;  195,944;30835,367;43,54579
 865,22;13591,988;  218,714;30772,421;43,76973
 865,78;13503,391;  227,483;30606,475;43,70095
 866,34;13550,411;  205,484;30534,376;44,00071
 866,90;13473,276;  220,869;30421,738;43,88088
 867,45;13452,142;  226,715;30172,100;44,16516
 868,01;13450,084;  229,177;30075,154;44,29712
 868,57;13402,719;  213,408;29902,209;44,42521
 869,13;13413,738;  206,024;29751,186;44,70347
 869,69;13348,757;  223,870;29625,086;44,64063
 870,25;13376,392;  193,871;29556,910;44,89495
 870,81;13414,103;  225,409;29469,426;45,09878
 871,37;13439,815;  229,948;29372,326;45,32872
 871,93;13370,911;  240,718;29217,919;45,31215
 872,49;13334,546;  260,180;28988,435;45,51048
 873,04;13340,027;  205,488;28812,336;45,91397
 873,60;13238,200;  206,565;28641,082;45,83034
 874,16;13265,988;  229,104;28658,598;45,85690
 874,72;13226,758;  222,412;28514,521;45,96457
 875,28;13270,065;  216,258;28490,290;46,16889
 875,84;13292,604;  228,719;28408,367;46,35929
 876,40;13300,219;  212,104;28312,675;46,57598
 876,95;13289,373;  228,642;28234,137;46,63632
 877,51;13326,912;  253,719;28337,983;46,54988
 878,07;13390,912;  260,950;28323,675;46,78791
 878,63;13318,065;  224,642;28244,290;46,72943
 879,19;13452,296;  243,258;28254,137;47,15682
 879,75;13492,681;  212,488;28314,444;47,25718
 880,30;13482,835;  216,181;28316,521;47,21172
 880,86;13627,065;  265,642;28463,752;47,38411
 881,42;13651,835;  220,412;28442,213;47,59237
 881,98;13722,912;  227,642;28588,290;47,58449
 882,54;13762,527;  219,719;28630,290;47,66820
 883,09;13901,835;  244,642;28851,367;47,74119
 883,65;13947,296;  221,950;28772,521;48,07381
 884,21;14080,912;  256,565;29089,983;47,94557
 884,77;14133,912;  216,950;29134,598;48,12619
 885,32;14176,450;  218,642;29290,829;48,01086
 885,88;14362,296;  257,719;29403,521;48,39317
 886,44;14459,681;  236,335;29567,752;48,49185
 887,00;14531,527;  245,412;29449,752;48,91778
 887,56;14621,988;  225,412;29655,367;48,91811
 888,11;14653,912;  236,565;29563,444;49,16086
 888,67;14754,604;  258,642;29856,137;48,97699
 889,23;14851,527;  235,950;29842,137;49,36663
 889,79;14854,988;  209,796;29709,444;49,64531
 890,34;14821,527;  239,181;29678,060;49,53431
 890,90;15035,527;  298,488;29797,829;49,95718
 891,46;14913,912;  218,181;29684,137;49,87359
 892,01;15034,450;  248,950;29659,213;50,27327
 892,57;15018,373;  264,027;29633,444;50,23711
 893,13;15014,219;  227,181;29408,521;50,67292
 893,69;14989,373;  217,181;29394,983;50,62819
 894,24;14903,681;  221,488;29295,290;50,49973
 894,80;14915,219;  230,104;29098,213;50,86968
 895,36;14864,219;  227,335;28963,290;50,93578
 895,91;14746,296;  229,873;28788,521;50,83022
 896,47;14702,296;  254,719;28706,906;50,77844
 897,03;14618,142;  226,950;28519,213;50,86618
 897,58;14589,373;  241,950;28356,598;51,03184
 898,14;14500,219;  238,258;28184,137;51,03422
 898,70;14439,065;  203,104;28064,983;51,09477
 899,25;14517,912;  226,488;28075,521;51,31748
 899,81;14470,527;  243,412;27861,675;51,51343
 900,37;14315,527;  202,873;27585,213;51,53925
 900,92;14338,065;  224,027;27578,675;51,59649
 901,48;14296,835;  211,950;27435,983;51,73695
 902,03;14160,835;  218,181;27323,060;51,43965
 902,59;14272,681;  221,796;27093,444;52,28888
 903,15;14180,681;  247,950;27007,675;52,06605
 903,70;14062,681;  226,258;26764,213;52,13824
 904,26;14088,988;  213,181;26678,829;52,42950
 904,82;14035,681;  225,565;26587,444;52,38669
 905,37;14078,681;  247,335;26491,752;52,70205
 905,93;13926,219;  213,181;26311,137;52,54449
 906,48;13971,681;  241,335;26193,829;52,90569
 907,04;13919,373;  243,719;26203,367;52,68043
 907,60;13843,681;  237,412;25991,060;52,83240
 908,15;13763,142;  215,181;25851,829;52,84607
 908,71;13803,758;  245,412;25870,213;52,91103
 909,26;13833,835;  227,642;25635,906;53,55026
 909,82;13703,142;  246,565;25497,752;53,29087
 910,37;13713,681;  267,104;25509,675;53,26944
 910,93;13631,758;  206,335;25202,675;53,70955
 911,48;13542,142;  220,258;25081,829;53,58424
 912,04;13578,988;  219,950;24986,752;53,93930
 912,60;13578,835;  245,181;25042,521;53,77050
 913,15;13439,912;  224,642;24781,137;53,81578
 913,71;13371,296;  217,488;24642,444;53,85397
 914,26;13348,142;  202,565;24568,137;53,95144
 914,82;13482,681;  233,181;24515,213;54,56504
 915,37;13372,988;  213,104;24375,829;54,46358
 915,93;13322,835;  266,719;24251,598;54,43478
 916,48;13230,373;  211,719;24169,367;54,34028
 917,04;13194,142;  236,565;23978,983;54,57564
 917,59;13236,988;  265,104;23943,367;54,78394
 918,15;13095,142;  192,950;23755,367;54,75751
 918,70;13080,219;  220,104;23580,060;55,05197
 919,26;13054,912;  234,719;23524,213;55,04710
 919,81;13001,527;  214,719;23313,598;55,35683
 920,37;12995,219;  219,258;23324,137;55,29551
 920,92;12975,065;  243,258;23221,598;55,40786
 921,48;12869,296;  200,258;22960,675;55,66259
 922,03;12881,758;  204,796;22954,521;55,72358
 922,59;12767,219;  217,104;22834,213;55,48947
 923,14;12676,142;  215,488;22707,060;55,40144
 923,69;12713,219;  246,950;22638,675;55,67355
 924,25;12743,681;  251,488;22610,598;55,87071
 924,80;12624,065;  218,258;22348,598;56,05792
 925,36;12499,065;  212,719;22296,675;55,63472
 925,91;12476,527;  215,104;22124,137;55,96515
 926,47;12494,142;  194,181;22086,675;56,18346
 927,02;12522,988;  276,412;22066,983;56,20127
 927,57;12414,835;  216,258;21846,752;56,39528
 928,13;12417,373;  210,335;21785,137;56,58007
 928,68;12426,988;  219,181;21642,906;56,98266
 929,24;12364,296;  197,027;21414,521;57,34546
 929,79;12305,604;  208,104;21342,983;57,23950
 930,34;12214,681;  227,104;21287,983;56,91869
 930,90;12245,527;  206,027;21223,060;57,28449
 931,45;12209,527;  224,412;21149,290;57,27687
 932,01;12197,373;  216,565;21035,137;57,54866
 932,56;12077,681;  242,565;20796,983;57,57943
 933,11;12110,681;  242,565;20884,137;57,49618
 933,67;11993,219;  205,104;20678,598;57,57745
 934,22;11965,373;  226,642;20597,290;57,62571
 934,77;11941,296;  238,181;20439,829;57,93149
 935,33;11902,912;  227,412;20276,983;58,23317
 935,88;11801,065;  234,796;20294,598;57,65894
 936,43;11750,219;  212,565;20171,444;57,80712
 936,99;11719,527;  222,796;20050,598;57,98288
 937,54;11601,604;  203,796;19941,521;57,74631
 938,09;11630,450;  227,488;19924,598;57,89155
 938,65;11617,681;  227,181;19744,060;58,36230
 939,20;11503,835;  206,642;19583,213;58,30336
 939,75;11462,527;  205,027;19543,060;58,21430
 940,31;11422,527;  204,796;19451,675;58,28338
 940,86;11450,065;  223,565;19400,983;58,54021
 941,41;11459,065;  312,335;19371,444;58,48506
 941,96;11283,219;  211,950;19202,444;58,29901
 942,52;11281,142;  212,719;19112,598;58,56346
 943,07;11183,758;  200,104;18928,060;58,64844
 943,62;11143,065;  209,258;18923,983;58,42356
 944,18;11189,681;  205,488;18856,675;58,89273
 944,73;11143,758;  227,796;18680,675;59,15587
 945,28;10998,450;  192,488;18573,444;58,78890
 945,83;11103,296;  210,104;18589,752;59,26769
 946,39;11062,835;  200,873;18441,521;59,54811
 946,94;11137,758;  234,565;18404,444;60,00696
 947,49;11006,835;  212,950;18280,367;59,74227
 948,04;11057,758;  251,873;18238,675;60,07674
 948,59;11006,988;  239,027;18198,983;59,95539
 949,15;10951,142;  204,181;18080,829;60,11732
 949,70;10860,604;  209,181;17925,213;60,12307
 950,25;10883,219;  230,335;17842,060;60,48746
 950,80;10795,604;  181,950;17741,598;60,44343
 951,36;10764,604;  188,565;17691,521;60,42430
 951,91;10840,142;  233,104;17673,060;60,82033
 952,46;10683,988;  201,488;17468,060;60,70980
 953,01;10656,450;  232,027;17526,829;60,27489
 953,56;10564,912;  193,027;17334,675;60,50693
 954,11;10562,142;  218,412;17268,598;60,66638
 954,67;10557,450;  213,950;17218,829;60,82666
 955,22;10436,450;  191,642;16997,213;60,96078
 955,77;10466,065;  235,335;17039,060;60,88371
 956,32;10427,065;  268,181;16936,060;60,94887
 956,87;10314,681;  204,642;16800,137;60,92038
 957,42;10292,373;  208,950;16734,060;61,01880
 957,98;10249,835;  200,796;16645,675;61,10740
 958,53;10235,296;  238,335;16610,521;61,06064
 959,08;10170,604;  195,335;16467,444;61,30286
 959,63;10098,988;  210,104;16366,444;61,20745
 960,18;10061,912;  227,335;16340,675;61,03376
 960,73;10122,835;  217,258;16254,521;61,76600
 961,28; 9972,373;  197,412;16149,060;61,27869
 961,83; 9983,065;  231,488;16073,906;61,55359
 962,39; 9911,065;  200,719;15938,906;61,69927
 962,94; 9907,604;  232,258;15930,752;61,63232
 963,49; 9817,450;  210,488;15737,829;61,87126
 964,04; 9882,219;  240,488;15765,137;62,10595
 964,59; 9760,142;  191,719;15615,521;62,03673
 965,14; 9746,835;  235,642;15577,598;61,99465
 965,69; 9746,835;  222,719;15471,137;62,45970
 966,24; 9632,681;  204,335;15326,367;62,34840
 966,79; 9631,373;  228,719;15205,367;62,78210
 967,34; 9546,681;  194,335;15094,213;62,76793
 967,89; 9517,373;  206,642;15108,137;62,48186
 968,44; 9527,988;  212,873;14961,983;63,15714
 968,99; 9488,296;  217,642;14902,137;63,13227
 969,55; 9428,373;  216,104;14849,290;62,95464
 970,10; 9368,527;  222,642;14737,906;63,00874
 970,65; 9311,604;  228,488;14609,137;63,16207
 971,20; 9249,527;  190,258;14599,521;62,87115
 971,75; 9142,142;  193,488;14411,060;62,94081
 972,30; 9125,450;  221,642;14359,983;62,97633
 972,85; 9067,219;  205,950;14229,367;63,18909
 973,40; 8940,527;  193,027;14118,598;62,81609
 973,95; 8933,835;  223,412;14089,675;62,81738
 974,50; 8941,373;  247,027;13970,829;63,35231
 975,05; 8832,065;  219,642;13900,598;62,95191
 975,60; 8781,988;  227,027;13843,598;62,82758
 976,15; 8771,373;  212,873;13719,906;63,36329
 976,70; 8730,912;  215,027;13672,137;63,28168
 977,25; 8706,065;  230,565;13538,213;63,68894
 977,80; 8611,296;  214,412;13440,598;63,48682
 978,35; 8551,988;  227,104;13235,752;63,99500
 978,89; 8472,604;  204,181;13192,829;63,65884
 979,44; 8444,835;  231,642;13167,060;63,49383
 979,99; 8305,219;  204,181;12977,137;63,42337
 980,54; 8322,373;  240,181;12900,290;63,83983
 981,09; 8286,758;  232,104;12816,367;64,00576
 981,64; 8186,450;  229,950;12700,367;63,80300
 982,19; 8234,912;  260,565;12648,675;64,37097
 982,74; 8080,604;  234,104;12451,598;64,22348
 983,29; 8043,988;  210,950;12410,213;64,20911
 983,84; 7966,604;  225,796;12255,598;64,34693
 984,39; 8018,373;  291,950;12216,213;64,79581
 984,94; 7813,912;  199,565;12051,367;64,24632
 985,49; 7856,450;  244,335;12037,367;64,54756
 986,03; 7814,450;  236,719;11921,213;64,85288
 986,58; 7755,912;  273,565;11776,675;65,04629
 987,13; 7603,912;  230,796;11715,213;64,20104
 987,68; 7600,219;  242,412;11545,137;65,09764
 988,23; 7566,065;  240,642;11498,444;65,06975
 988,78; 7481,373;  219,565;11302,906;65,52003
 989,33; 7409,681;  244,335;11278,444;64,93815
 989,88; 7405,835;  258,950;11255,906;64,98966
 990,42; 7272,988;  219,950;11016,213;65,32851
 990,97; 7252,450;  213,335;10954,752;65,53246
 991,52; 7201,912;  241,258;10833,675;65,71355
 992,07; 7119,450;  258,796;10754,444;65,36665
 992,62; 7047,219;  230,796;10633,444;65,52585
 993,17; 6951,527;  244,181;10547,598;65,09827
 993,71; 6943,758;  250,719;10477,829;65,44409
 994,26; 6873,065;  217,950;10350,829;65,67843
 994,81; 6812,373;  239,412;10327,060;65,15851
 995,36; 6726,219;  218,258;10112,752;65,77356
 995,91; 6686,219;  227,565;10022,598;65,93805
 996,45; 6627,681;  230,027; 9909,829;66,09282
 997,00; 6508,912;  209,719; 9800,213;65,68162
 997,55; 6538,219;  229,488; 9758,367;66,20643
 998,10; 6435,988;  268,027; 9650,213;65,74119
 998,65; 6433,296;  219,258; 9554,060;66,56851
 999,19; 6301,527;  243,565; 9446,906;65,82351
 999,74; 6275,373;  268,181; 9374,675;65,96603
1000,29; 6198,065;  240,950; 9283,598;65,87800
1000,84; 6117,988;  229,412; 9153,983;65,98162
1001,38; 6101,219;  237,027; 9050,213;66,53884
1001,93; 6029,681;  242,027; 8986,829;66,18393
1002,48; 5873,373;  217,488; 8809,137;65,83003
1003,03; 5908,681;  242,565; 8779,213;66,37401
1003,57; 5829,681;  236,796; 8641,137;66,54757
1004,12; 5786,988;  275,488; 8548,213;66,62255
1004,67; 5697,142;  230,719; 8484,675;66,22792
1005,22; 5572,450;  229,412; 8324,675;66,00203
1005,76; 5504,065;  212,565; 8206,598;66,19312
1006,31; 5476,681;  247,181; 8143,983;66,22301
1006,86; 5410,604;  220,796; 8013,906;66,59482
1007,40; 5343,142;  210,488; 7877,367;66,94581
1007,95; 5273,527;  233,642; 7772,060;66,85600
1008,50; 5214,296;  230,335; 7641,521;67,24917
1009,04; 5157,219;  234,104; 7598,675;66,84864
1009,59; 5050,988;  237,181; 7462,675;66,62254
1010,14; 5010,681;  216,181; 7333,290;67,36583
1010,68; 4969,219;  238,642; 7215,213;67,80662
1011,23; 4912,758;  235,181; 7121,752;67,92316
1011,78; 4858,219;  236,335; 7045,675;67,87566
1012,32; 4821,296;  251,104; 6957,983;68,14186
1012,87; 4754,065;  257,565; 6925,521;67,43446
1013,42; 4679,912;  220,104; 6811,367;67,66241
1013,96; 4683,065;  261,873; 6784,752;67,77977
1014,51; 4609,912;  191,796; 6700,675;67,87829
1015,06; 4649,681;  200,488; 6667,752;68,79559
1015,60; 4689,142;  256,642; 6798,598;67,75497
1016,15; 4628,142;  218,335; 6680,290;68,24262
1016,69; 4629,912;  220,488; 6731,137;67,72633
1017,24; 4661,450;  207,258; 6735,060;68,23418
1017,79; 4705,296;  266,488; 6773,598;68,21474
1018,33; 4650,681;  229,565; 6800,675;67,28111
1018,88; 4728,373;  233,412; 6847,521;67,96019
1019,42; 4724,373;  226,565; 6854,137;67,86510
1019,97; 4641,527;  213,565; 6845,444;66,76783
1020,51; 4738,065;  254,335; 6915,752;67,30896
1021,06; 4694,450;  205,642; 6857,137;67,48570
1021,61; 4647,527;  196,488; 6808,290;67,31960
1022,15; 4606,758;  174,796; 6810,060;66,79406
1022,70; 4629,450;  226,412; 6803,290;66,94723
1023,24; 4603,527;  216,950; 6727,213;67,37941
1023,79; 4595,758;  228,335; 6680,675;67,68743
1024,33; 4530,296;  219,258; 6624,290;67,30705
1024,88; 4454,912;  240,565; 6540,060;66,89975
1025,42; 4420,373;  233,642; 6455,060;67,29545
1025,97; 4355,065;  212,488; 6340,444;67,60129
1026,51; 4250,373;  194,104; 6210,367;67,42174
1027,06; 4210,450;  214,873; 6179,290;66,99023
1027,60; 4157,373;  233,719; 6063,829;67,29983
1028,15; 4127,065;  239,488; 5980,060;67,72108
1028,69; 3992,758;  186,027; 5848,137;67,23167
1029,24; 3956,681;  210,950; 5824,290;66,72909
1029,78; 3892,912;  205,412; 5707,906;67,01506
1030,33; 3822,527;  191,104; 5582,752;67,35275
1030,87; 3795,296;  208,181; 5519,675;67,53496
1031,42; 3708,988;  203,181; 5462,367;66,66065
1031,96; 3722,296;  235,258; 5394,444;67,58892
1032,51; 3611,296;  205,104; 5323,137;66,55277
1033,05; 3592,912;  217,719; 5227,444;67,37281
1033,60; 3521,296;  184,335; 5090,213;68,01965
1034,14; 3483,527;  206,488; 5045,213;67,72525
1034,69; 3443,219;  209,719; 5001,983;67,47334
1035,23; 3395,296;  218,027; 4920,444;67,56672
1035,77; 3346,142;  200,488; 4851,983;67,62674
1036,32; 3297,835;  192,104; 4765,598;67,90718
1036,86; 3260,988;  216,412; 4730,983;67,43890
1037,41; 3214,681;  222,412; 4647,137;67,62611
1037,95; 3172,527;  187,719; 4576,137;68,01558
1038,50; 3141,373;  204,642; 4510,137;68,20891
1039,04; 3111,527;  231,258; 4502,983;67,42637
1039,58; 3024,065;  186,950; 4391,367;67,47940
1040,13; 2990,758;  203,719; 4340,906;67,36555
1040,67; 3004,681;  243,181; 4308,213;67,93303
1041,21; 2943,835;  246,642; 4242,906;67,49286
1041,76; 2889,758;  195,642; 4154,290;68,05645
1042,30; 2871,988;  204,488; 4094,752;68,56862
1042,85; 2812,373;  211,258; 4034,598;68,03253
1043,39; 2760,604;  199,488; 3983,367;67,68492
1043,93; 2726,142;  239,873; 3941,060;67,17492
1044,48; 2683,604;  212,642; 3882,060;67,33934
1045,02; 2632,450;  217,950; 3808,290;67,24989
1045,56; 2634,450;  238,796; 3774,829;67,74977
1046,11; 2575,219;  219,258; 3703,598;67,61571
1046,65; 2569,296;  231,873; 3656,983;68,24375
1047,19; 2504,681;  204,796; 3602,521;67,68896
1047,74; 2466,373;  192,488; 3532,906;68,07187
1048,28; 2452,681;  221,950; 3503,444;67,97912
1048,82; 2448,988;  241,950; 3495,137;67,84236
1049,37; 2414,758;  230,412; 3450,829;67,82805
1049,91; 2403,988;  223,027; 3376,983;69,15004
1050,45; 2347,681;  239,181; 3303,444;68,80936
1050,99; 2326,450;  224,565; 3282,598;68,73323
1051,54; 2245,142;  204,950; 3204,598;68,01439
1052,08; 2260,373;  249,104; 3177,213;68,68832
1052,62; 2233,681;  229,642; 3147,521;68,68135
1053,16; 2183,065;  207,104; 3077,060;68,84990
1053,71; 2181,681;  222,565; 3052,752;69,22213
1054,25; 2163,065;  225,796; 3010,060;69,57924
1054,79; 2118,912;  239,258; 2989,060;68,35597
1055,33; 2040,296;  197,258; 2897,675;68,25014
1055,88; 2047,758;  233,565; 2871,213;68,78068
1056,42; 2057,604;  236,027; 2866,060;69,26062
1056,96; 1999,450;  236,796; 2825,829;68,08156
1057,50; 1956,373;  229,565; 2775,290;67,83167
1058,05; 1938,912;  220,796; 2712,137;68,96349
1058,59; 1914,450;  247,488; 2702,983;67,88701
1059,13; 1867,527;  208,950; 2628,444;68,55056
1059,67; 1860,296;  243,258; 2590,213;68,89940
1060,21; 1790,681;  221,335; 2572,290;66,75354
1060,76; 1802,835;  227,796; 2531,060;68,38290
1061,30; 1785,988;  253,027; 2506,213;68,03527
1061,84; 1735,373;  230,796; 2447,367;67,87858
1062,38; 1695,065;  214,488; 2410,598;67,41817
1062,92; 1739,604;  261,258; 2426,213;68,28528
1063,46; 1678,296;  243,027; 2356,829;67,89989
1064,01; 1635,835;  215,335; 2301,752;68,08322
1064,55; 1640,527;  232,335; 2289,829;68,44210
1065,09; 1583,681;  210,488; 2225,675;68,14219
1065,63; 1624,142;  264,565; 2251,060;68,44102
1066,17; 1594,988;  258,642; 2236,829;67,55410
1066,71; 1567,912;  259,873; 2181,213;68,07948
1067,25; 1551,604;  225,950; 2165,521;68,34778
1067,80; 1521,065;  233,642; 2149,752;67,18943
1068,34; 1518,142;  247,565; 2133,137;67,38419
1068,88; 1465,527;  223,412; 2033,829;68,60934
1069,42; 1492,835;  258,950; 2107,137;66,76191
1069,96; 1467,988;  232,642; 1976,521;70,83899
1070,50; 1453,835;  260,719; 2028,829;67,47972
1071,04; 1407,835;  225,719; 1940,367;68,94216
1071,58; 1378,373;  230,488; 1941,598;67,08422
1072,12; 1389,219;  225,565; 1930,675;68,24510
1072,66; 1380,450;  226,719; 1907,367;68,64797
1073,21; 1364,681;  238,565; 1891,983;68,10836
1073,75; 1355,065;  230,719; 1850,290;69,42246
1074,29; 1318,450;  236,412; 1835,983;67,64553
1074,83; 1322,142;  261,027; 1831,213;67,57894
1075,37; 1318,988;  258,873; 1820,983;67,86434
1075,91; 1299,758;  248,412; 1758,060;69,64180
1076,45; 1276,065;  229,565; 1769,752;67,94632
1076,99; 1258,681;  244,873; 1749,752;67,36806
1077,53; 1232,681;  235,412; 1680,521;69,00994
1078,07; 1224,835;  241,565; 1668,983;68,88450
1078,61; 1208,912;  232,488; 1675,367;67,67187
1079,15; 1195,681;  239,258; 1633,060;68,61973
1079,69; 1173,988;  231,488; 1615,521;68,09810
1080,23; 1204,604;  253,104; 1621,752;69,52116
1080,77; 1214,604;  280,104; 1640,906;68,67274
1081,31; 1129,527;  230,104; 1558,290;67,71813
1081,85; 1131,296;  255,104; 1566,137;66,83222
1082,39; 1115,758;  228,258; 1534,521;67,94188
1082,93; 1112,604;  247,412; 1547,675;66,53977
1083,47; 1079,065;  218,027; 1479,367;68,26377
1084,01; 1114,527;  249,950; 1512,752;68,46497
1084,55; 1052,988;  231,027; 1450,367;67,41034
1085,09; 1080,527;  246,565; 1467,290;68,31690
1085,63; 1054,835;  238,719; 1444,829;67,66511
1086,17; 1036,527;  229,258; 1403,675;68,73785
1086,71; 1011,219;  224,181; 1383,213;67,90477
1087,24; 1028,758;  257,719; 1404,060;67,26087
1087,78; 1013,527;  253,104; 1397,598;66,44184
1088,32;  969,681;  224,719; 1317,137;68,19386
1088,86; 1003,912;  256,181; 1356,906;67,93075
1089,40;  966,681;  232,565; 1315,521;67,78812
1089,94;  941,142;  220,335; 1295,829;67,02107
1090,48;  960,296;  238,719; 1271,137;69,89198
1091,02;  945,219;  262,335; 1291,598;66,34692
1091,56;  917,988;  238,565; 1262,213;66,37272
1092,10;  895,604;  215,104; 1222,983;67,51804
1092,63;  929,604;  251,027; 1249,213;67,98097
1093,17;  910,065;  256,181; 1214,290;68,24737
1093,71;  875,219;  225,873; 1196,367;66,90881
1094,25;  892,142;  254,335; 1224,983;65,70947
1094,79;  851,142;  230,258; 1179,829;65,38579
1095,33;  849,835;  236,796; 1174,906;65,34828
1095,87;  856,373;  231,565; 1156,675;67,53877
1096,40;  823,527;  218,565; 1126,213;66,65155
1096,94;  837,681;  245,642; 1116,521;67,98172
1097,48;  827,912;  245,412; 1123,598;66,32987
1098,02;  796,835;  227,642; 1097,598;65,42773
1098,56;  773,065;  205,950; 1056,829;66,65054
1099,10;  770,450;  210,104; 1066,444;65,43498
1099,63;  776,912;  213,565; 1045,906;67,68218
1100,17;  779,758;  245,488; 1052,675;66,18907
1100,71;  794,296;  266,488; 1075,444;65,24556

