
Integration time [ms]: 150,000
Averaging Nr. [scans]: 13
Smoothing Nr. [pixels]: 0
Data measured with spectrometer [name]: 2009305U1
Wave   ;Sample   ;Dark     ;Reference;Reflectance
[nm]   ;[counts] ;[counts] ;[counts] ;[%]

 175,72;  215,261;  210,429;  220,471;48,11846
 176,32;  240,516;  234,648;  230,585; 0,00000
 176,92;  276,043;  262,887;  268,668;227,57563
 177,52;  271,244;  262,888;  271,098;101,78657
 178,12;  252,292;  248,802;  249,361; 0,00000
 178,72;  268,757;  274,414;  267,670; 0,00000
 179,32;  258,194;  266,802;  262,612; 0,00000
 179,92;  259,117;  263,191;  265,430;-181,90411
 180,52;  246,228;  254,820;  268,737;-61,73825
 181,12;  270,716;  276,192;  277,116; 0,00000
 181,73;  285,388;  291,885;  288,587; 0,00000
 182,33;  382,299;  389,661;  393,065;-216,32969
 182,93;  291,802;  283,427;  290,438;119,45492
 183,53;  249,208;  251,797;  236,920; 0,00000
 184,13;  244,867;  253,876;  247,983; 0,00000
 184,73;  298,684;  300,257;  296,133; 0,00000
 185,33;  273,202;  232,186;  372,780;29,17347
 185,93;  273,050;  248,024;  381,707;18,72072
 186,53;  284,651;  264,567;  409,937;13,81603
 187,13;  300,882;  281,653;  423,343;13,57144
 187,73;  275,934;  262,717;  385,993;10,72115
 188,33;  266,659;  252,789;  388,871;10,19219
 188,93;  282,072;  266,312;  397,447;12,01788
 189,53;  275,059;  262,685;  389,189; 9,78134
 190,13;  318,946;  302,512;  438,346;12,09823
 190,73;  260,780;  236,141;  373,017;18,00119
 191,34;  294,606;  261,693;  413,108;21,73726
 191,94;  263,484;  255,246;  380,611; 6,57157
 192,54;  285,808;  257,506;  424,486;16,94933
 193,14;  295,654;  268,575;  408,916;19,29479
 193,74;  293,625;  272,881;  412,134;14,89614
 194,34;  288,535;  266,808;  418,552;14,31832
 194,94;  251,057;  227,652;  383,410;15,02656
 195,54;  231,194;  208,879;  357,892;14,97527
 196,14;  254,542;  234,502;  389,705;12,91170
 196,74;  246,774;  226,261;  383,948;13,00841
 197,34;  245,137;  201,816;  382,226;24,01237
 197,94;  261,201;  237,192;  405,872;14,23332
 198,54;  272,989;  248,810;  433,270;13,10774
 199,14;  240,151;  213,204;  426,334;12,64375
 199,74;  238,671;  214,896;  414,917;11,88622
 200,34;  230,156;  204,436;  423,461;11,74283
 200,94;  267,180;  239,507;  465,153;12,26406
 201,54;  242,613;  219,510;  466,497; 9,35392
 202,14;  285,630;  252,131;  532,390;11,95289
 202,74;  257,357;  226,050;  532,910;10,20257
 203,34;  233,368;  209,365;  519,700; 7,73446
 203,94;  213,767;  181,285;  517,229; 9,66878
 204,54;  277,910;  255,962;  626,255; 5,92716
 205,14;  245,137;  193,050;  622,361;12,13268
 205,74;  283,405;  258,442;  734,687; 5,24174
 206,34;  244,557;  206,130;  735,988; 7,25224
 206,94;  256,860;  221,052;  795,015; 6,23878
 207,54;  225,320;  200,130;  838,519; 3,94587
 208,14;  252,636;  221,900;  945,937; 4,24505
 208,74;  255,131;  216,972; 1009,200; 4,81656
 209,34;  252,740;  207,589; 1093,029; 5,09925
 209,94;  275,224;  228,973; 1205,044; 4,73849
 210,54;  271,886;  213,902; 1295,806; 5,35943
 211,14;  280,108;  220,127; 1408,339; 5,04801
 211,73;  274,519;  222,586; 1574,499; 3,84146
 212,33;  296,584;  235,122; 1649,570; 4,34527
 212,93;  284,091;  214,357; 1776,803; 4,46315
 213,53;  258,881;  194,126; 1826,321; 3,96733
 214,13;  295,584;  219,445; 1935,939; 4,43573
 214,73;  268,014;  189,438; 1943,698; 4,47916
 215,33;  259,147;  182,512; 1998,428; 4,22022
 215,93;  300,337;  208,595; 2126,191; 4,78419
 216,53;  272,037;  174,510; 2141,740; 4,95757
 217,13;  339,698;  228,594; 2418,262; 5,07403
 217,73;  321,761;  205,673; 2614,511; 4,81927
 218,33;  288,117;  157,908; 2807,307; 4,91465
 218,93;  347,645;  191,686; 3161,954; 5,25067
 219,53;  367,406;  209,600; 3448,890; 4,87160
 220,13;  361,614;  161,910; 3786,790; 5,50925
 220,73;  387,417;  186,512; 4185,518; 5,02389
 221,32;  423,515;  180,434; 4593,661; 5,50801
 221,92;  459,424;  199,986; 5099,221; 5,29548
 222,52;  469,152;  172,596; 5559,673; 5,50495
 223,12;  498,557;  194,520; 6010,807; 5,22735
 223,72;  535,538;  205,135; 6493,928; 5,25384
 224,32;  571,204;  191,213; 6911,624; 5,65428
 224,92;  569,252;  181,366; 7344,678; 5,41489
 225,52;  626,534;  202,821; 7700,521; 5,65123
 226,12;  633,856;  192,748; 8066,245; 5,60245
 226,72;  646,638;  168,670; 8499,269; 5,73750
 227,31;  676,840;  171,901; 8927,785; 5,76685
 227,91;  738,074;  207,128; 9414,017; 5,76684
 228,51;  758,933;  182,892; 9974,762; 5,88285
 229,11;  778,401;  180,131;10317,185; 5,90181
 229,71;  822,773;  187,587;10733,659; 6,02296
 230,31;  846,537;  173,368;11216,731; 6,09568
 230,91;  887,218;  166,043;11565,381; 6,32646
 231,51;  914,963;  173,442;11906,181; 6,32010
 232,10;  982,069;  177,908;12197,330; 6,69051
 232,70; 1000,997;  184,577;12456,399; 6,65280
 233,30; 1081,931;  210,672;12752,518; 6,94682
 233,90; 1088,748;  182,133;12908,496; 7,12391
 234,50; 1110,333;  175,365;13023,978; 7,27680
 235,10; 1141,559;  177,674;13013,063; 7,50959
 235,70; 1177,386;  200,590;13031,384; 7,61291
 236,29; 1178,615;  197,357;12914,215; 7,71620
 236,89; 1167,205;  173,352;12748,510; 7,90331
 237,49; 1242,303;  203,594;12569,041; 8,40010
 238,09; 1243,403;  183,361;12260,911; 8,77696
 238,69; 1277,292;  239,118;11895,749; 8,90630
 239,29; 1226,804;  178,822;11552,457; 9,21414
 239,89; 1236,619;  191,198;11110,071; 9,57444
 240,48; 1196,682;  179,438;10589,197; 9,77202
 241,08; 1197,139;  175,052;10137,146;10,25976
 241,68; 1206,688;  206,746; 9754,974;10,47254
 242,28; 1165,156;  164,902; 9426,357;10,80018
 242,88; 1213,873;  222,522; 8991,600;11,30508
 243,48; 1193,937;  215,747; 8668,150;11,57292
 244,07; 1184,968;  209,513; 8380,764;11,93765
 244,67; 1201,368;  202,054; 8190,795;12,50902
 245,27; 1186,827;  210,124; 8029,884;12,49019
 245,87; 1210,198;  223,060; 7888,991;12,87694
 246,47; 1201,702;  198,355; 7872,983;13,07356
 247,06; 1236,636;  177,822; 7878,253;13,75006
 247,66; 1254,068;  184,977; 7935,530;13,79374
 248,26; 1307,517;  218,895; 8133,080;13,75533
 248,86; 1345,434;  216,663; 8278,227;14,00188
 249,46; 1346,135;  157,903; 8522,136;14,20611
 250,05; 1484,027;  206,053; 8952,569;14,61123
 250,65; 1516,997;  179,047; 9274,583;14,70997
 251,25; 1625,883;  187,282; 9907,953;14,79940
 251,85; 1735,344;  195,198;10524,307;14,91074
 252,44; 1815,563;  169,742;11264,331;14,83445
 253,04; 1989,725;  206,358;12113,056;14,97785
 253,64; 2073,769;  143,430;13006,464;15,00687
 254,24; 2294,661;  212,899;14105,755;14,98441
 254,84; 2459,289;  181,595;15148,059;15,21865
 255,43; 2624,155;  168,896;16312,624;15,20875
 256,03; 2792,789;  194,277;17467,521;15,04357
 256,63; 3000,561;  198,582;18768,103;15,08913
 257,23; 3160,230;  175,275;19875,242;15,15208
 257,82; 3379,741;  204,348;21036,119;15,24303
 258,42; 3468,691;  153,500;22163,356;15,06230
 259,02; 3691,575;  209,435;23283,654;15,09104
 259,62; 3822,485;  172,037;24180,867;15,20461
 260,21; 3906,654;  182,357;24979,227;15,01922
 260,81; 3977,740;  198,132;25684,848;14,82972
 261,41; 4054,248;  169,501;26214,764;14,91537
 262,01; 4179,119;  217,650;26863,677;14,86702
 262,60; 4193,922;  175,121;27340,242;14,79397
 263,20; 4220,523;  177,201;27847,328;14,61259
 263,80; 4263,585;  198,881;28114,814;14,56052
 264,40; 4237,949;  180,497;28415,209;14,37044
 264,99; 4307,410;  196,727;28590,679;14,47732
 265,59; 4285,863;  187,182;28862,443;14,29344
 266,19; 4266,720;  175,266;29141,858;14,12473
 266,78; 4300,446;  224,263;29260,189;14,03841
 267,38; 4259,069;  203,645;29254,933;13,95953
 267,98; 4215,331;  191,263;29300,433;13,82406
 268,58; 4234,425;  203,953;29350,295;13,82840
 269,17; 4105,252;  183,871;29483,367;13,38378
 269,77; 4082,143;  190,427;29199,954;13,41530
 270,37; 4006,030;  163,649;29137,046;13,26175
 270,96; 4017,419;  227,348;28929,069;13,20503
 271,56; 3881,916;  191,890;28726,004;12,93198
 272,16; 3809,858;  184,193;28432,833;12,83483
 272,75; 3781,835;  192,962;28286,587;12,77469
 273,35; 3728,301;  190,887;28298,022;12,58547
 273,95; 3703,816;  188,116;28310,478;12,50144
 274,54; 3625,262;  164,745;28262,474;12,31600
 275,14; 3704,172;  220,579;28745,908;12,21228
 275,74; 3627,901;  170,270;28741,982;12,10159
 276,33; 3708,791;  220,350;29251,805;12,01607
 276,93; 3714,929;  195,131;29623,502;11,96056
 277,53; 3750,673;  193,126;30254,336;11,83434
 278,12; 3791,708;  168,968;30774,086;11,83704
 278,72; 3955,715;  238,356;31410,537;11,92524
 279,32; 3933,525;  187,740;32161,276;11,71527
 279,91; 4017,012;  179,124;33102,941;11,65688
 280,51; 4095,083;  178,511;33601,453;11,71821
 281,11; 4225,137;  183,893;34504,918;11,77483
 281,70; 4282,442;  178,661;34913,893;11,81446
 282,30; 4394,762;  180,121;35773,388;11,84112
 282,90; 4466,026;  177,198;36202,547;11,90503
 283,49; 4555,282;  204,502;36835,605;11,87728
 284,09; 4691,527;  221,199;37309,550;12,05319
 284,69; 4786,885;  216,125;37747,852;12,17839
 285,28; 4867,854;  202,738;38115,506;12,30487
 285,88; 5033,968;  259,962;38474,761;12,49256
 286,47; 5051,122;  189,967;38536,425;12,67693
 287,07; 5160,929;  229,356;38611,308;12,84868
 287,67; 5315,707;  221,517;38768,381;13,21558
 288,26; 5437,457;  174,817;38695,857;13,66173
 288,86; 5536,648;  189,123;38843,622;13,83416
 289,46; 5725,282;  211,970;38900,184;14,25062
 290,05; 5876,210;  186,128;39004,831;14,65809
 290,65; 6083,197;  183,658;39212,631;15,11579
 291,24; 6291,056;  198,510;39404,157;15,53997
 291,84; 6517,253;  208,505;39453,026;16,07549
 292,44; 6703,170;  191,133;39596,483;16,52577
 293,03; 6982,964;  271,587;39860,492;16,95267
 293,63; 7129,228;  186,813;39993,525;17,44031
 294,22; 7350,074;  212,508;40106,352;17,89140
 294,82; 7442,358;  191,421;40157,479;18,14274
 295,41; 7495,673;  171,815;39861,432;18,45283
 296,01; 7617,273;  223,961;39766,197;18,69725
 296,61; 7716,983;  209,741;39457,294;19,12792
 297,20; 7649,847;  202,962;39006,227;19,19139
 297,80; 7744,170;  211,284;38788,963;19,52654
 298,39; 7689,114;  169,659;38372,383;19,68303
 298,99; 7719,294;  217,271;38164,322;19,76971
 299,58; 7681,848;  213,747;37956,827;19,78668
 300,18; 7666,033;  216,667;37800,970;19,82042
 300,78; 7569,569;  193,127;37264,339;19,89803
 301,37; 7601,999;  208,726;37271,230;19,94812
 301,97; 7636,407;  211,201;37289,700;20,02564
 302,56; 7538,962;  193,581;37253,418;19,82033
 303,16; 7528,741;  172,734;37078,033;19,93212
 303,75; 7526,413;  188,589;37057,458;19,90249
 304,35; 7583,946;  185,366;37374,251;19,89460
 304,94; 7617,278;  194,432;37388,740;19,95694
 305,54; 7587,592;  208,280;37298,200;19,89573
 306,13; 7512,538;  156,366;37154,852;19,88236
 306,73; 7461,973;  173,748;36900,488;19,84446
 307,33; 7460,100;  204,055;36849,500;19,80067
 307,92; 7482,686;  210,664;36912,899;19,81357
 308,52; 7507,149;  177,041;37460,201;19,66064
 309,11; 7625,762;  190,422;37920,271;19,70678
 309,71; 7664,903;  168,035;38370,265;19,62416
 310,30; 7663,478;  175,356;38576,914;19,49953
 310,90; 7781,862;  231,663;39068,606;19,44077
 311,49; 7800,241;  193,355;39159,445;19,52181
 312,09; 7743,062;  167,744;39363,223;19,32702
 312,68; 7924,419;  248,511;39753,860;19,43005
 313,28; 7838,147;  168,741;39814,515;19,34483
 313,87; 7866,130;  164,048;40027,671;19,32108
 314,47; 7872,169;  185,962;40306,046;19,15800
 315,06; 7882,912;  166,126;40477,224;19,14308
 315,66; 7934,600;  164,975;40737,223;19,15010
 316,25; 7823,978;  153,427;40643,194;18,94442
 316,85; 7824,519;  153,898;40734,856;18,90202
 317,44; 7844,831;  189,807;40867,845;18,81857
 318,04; 7725,748;  159,890;40870,723;18,58438
 318,63; 7711,064;  158,671;40936,999;18,52061
 319,22; 7797,355;  190,581;41190,460;18,55316
 319,82; 7709,690;  178,276;41035,669;18,43342
 320,41; 7645,178;  201,197;40992,060;18,24914
 321,01; 7666,074;  203,744;41116,556;18,23959
 321,60; 7593,868;  195,199;41157,555;18,06212
 322,20; 7537,095;  172,741;41109,093;17,98977
 322,79; 7532,465;  210,049;41351,428;17,79818
 323,39; 7503,328;  177,750;41303,995;17,81242
 323,98; 7405,054;  170,972;41256,738;17,60727
 324,58; 7418,086;  172,272;41097,866;17,70485
 325,17; 7293,249;  181,658;40840,514;17,49088
 325,76; 7259,889;  197,509;40619,988;17,47142
 326,36; 7177,492;  180,051;40206,407;17,48208
 326,95; 7110,692;  202,661;39889,848;17,40620
 327,55; 6978,679;  176,429;39424,295;17,33152
 328,14; 6884,821;  171,284;38993,532;17,29301
 328,74; 6794,904;  203,889;38486,527;17,21672
 329,33; 6699,790;  197,051;38099,263;17,15662
 329,92; 6517,325;  170,115;37390,773;17,05292
 330,52; 6397,505;  194,900;36753,951;16,96599
 331,11; 6288,191;  194,815;36201,067;16,92311
 331,71; 6139,473;  182,508;35406,171;16,91183
 332,30; 6046,201;  209,586;34888,971;16,83022
 332,89; 5989,399;  256,897;34328,024;16,82510
 333,49; 5775,014;  202,892;33721,513;16,62396
 334,08; 5697,203;  181,968;33201,168;16,70312
 334,68; 5582,247;  190,814;32709,086;16,57970
 335,27; 5503,931;  207,747;32353,450;16,47556
 335,86; 5474,883;  248,353;31983,374;16,46928
 336,46; 5409,341;  208,593;31623,029;16,55528
 337,05; 5338,854;  172,738;31336,121;16,57752
 337,65; 5219,569;  172,276;31199,905;16,26709
 338,24; 5281,395;  242,280;31201,282;16,27673
 338,83; 5253,636;  214,280;31102,964;16,31457
 339,43; 5194,234;  173,196;31037,849;16,26792
 340,02; 5199,847;  182,426;30912,670;16,32731
 340,61; 5197,744;  188,510;30916,175;16,30203
 341,21; 5220,827;  215,889;30897,142;16,31269
 341,80; 5233,635;  183,583;30821,607;16,48296
 342,40; 5205,977;  188,823;30988,864;16,28944
 342,99; 5227,937;  178,589;31092,947;16,33334
 343,58; 5223,713;  185,974;31243,570;16,22063
 344,18; 5312,287;  204,128;31328,523;16,41207
 344,77; 5350,573;  180,119;31602,291;16,45480
 345,36; 5416,307;  172,430;31986,233;16,48302
 345,96; 5489,126;  205,513;32341,747;16,44130
 346,55; 5507,738;  181,058;32641,496;16,40976
 347,14; 5593,482;  171,208;33114,167;16,45958
 347,74; 5679,462;  152,755;33466,209;16,59001
 348,33; 5837,002;  188,754;34256,551;16,57943
 348,92; 5962,264;  201,374;34950,810;16,57837
 349,52; 6061,807;  165,372;35433,956;16,71866
 350,11; 6128,230;  182,272;35698,568;16,74149
 350,70; 6131,008;  188,279;35899,257;16,64118
 351,29; 6096,570;  169,570;35546,859;16,75369
 351,89; 6151,747;  204,961;35530,376;16,83430
 352,48; 6160,580;  163,279;35571,108;16,93778
 353,07; 6173,865;  202,978;35476,825;16,92723
 353,67; 6165,084;  199,067;35419,275;16,93919
 354,26; 6134,420;  186,439;35165,217;17,00454
 354,85; 6125,948;  199,668;34931,082;17,06317
 355,45; 6085,186;  165,736;34786,939;17,09776
 356,04; 6113,515;  192,132;34652,317;17,18326
 356,63; 6099,255;  219,508;34441,196;17,18135
 357,22; 6091,986;  193,803;34187,128;17,35100
 357,82; 6035,040;  188,497;33996,951;17,29314
 358,41; 6092,080;  211,124;33907,360;17,45286
 359,00; 6036,018;  179,735;33655,822;17,49393
 359,60; 6041,611;  192,972;33552,540;17,53212
 360,19; 6060,994;  212,056;33467,315;17,58801
 360,78; 6068,078;  191,891;33182,267;17,81182
 361,37; 6018,521;  185,584;32868,620;17,84699
 361,97; 6027,906;  184,662;32884,072;17,86957
 362,56; 6004,696;  183,118;32498,935;18,01464
 363,15; 6036,947;  244,352;32151,436;18,15457
 363,74; 5971,627;  194,347;31857,602;18,24601
 364,34; 5932,022;  206,427;31372,574;18,37120
 364,93; 5820,862;  177,194;30884,883;18,37868
 365,52; 5738,575;  147,199;30457,990;18,44682
 366,11; 5768,879;  177,119;30039,333;18,72520
 366,71; 5704,047;  181,812;29653,306;18,73755
 367,30; 5657,816;  186,738;29277,288;18,80706
 367,89; 5698,260;  221,821;29050,142;18,99673
 368,48; 5608,666;  194,885;28695,076;18,99560
 369,07; 5560,931;  199,587;28183,641;19,15857
 369,67; 5507,775;  216,194;27770,277;19,20434
 370,26; 5467,355;  179,818;27525,192;19,33613
 370,85; 5395,868;  183,045;27267,402;19,24662
 371,44; 5428,049;  204,893;26926,466;19,54659
 372,03; 5359,883;  155,350;26684,008;19,61853
 372,63; 5280,534;  163,123;26347,866;19,54348
 373,22; 5265,309;  176,663;25951,941;19,74235
 373,81; 5245,700;  170,045;25679,506;19,89715
 374,40; 5241,220;  181,438;25331,197;20,11861
 374,99; 5198,490;  181,429;25017,957;20,20033
 375,59; 5141,031;  171,591;24667,551;20,28677
 376,18; 5196,698;  214,814;24477,788;20,53287
 376,77; 5153,839;  198,816;24274,139;20,58134
 377,36; 5211,902;  225,661;24175,791;20,81926
 377,95; 5156,702;  205,197;23865,011;20,92791
 378,55; 5143,228;  181,974;23670,094;21,12240
 379,14; 5175,810;  198,584;23579,434;21,28762
 379,73; 5107,357;  199,428;23529,562;21,03687
 380,32; 5192,382;  198,508;23496,891;21,43442
 380,91; 5172,596;  169,501;23363,238;21,57089
 381,50; 5187,985;  195,272;23304,673;21,60468
 382,10; 5188,459;  185,816;23232,199;21,70685
 382,69; 5223,305;  159,353;23132,285;22,04312
 383,28; 5261,247;  218,657;23091,643;22,04605
 383,87; 5226,602;  183,349;22871,313;22,22876
 384,46; 5272,171;  167,190;22847,244;22,50868
 385,05; 5290,662;  208,810;22858,623;22,43662
 385,64; 5309,186;  184,735;22839,410;22,61984
 386,24; 5335,901;  173,344;22742,923;22,87396
 386,83; 5443,086;  210,266;22783,134;23,18190
 387,42; 5483,918;  202,504;22935,038;23,23284
 388,01; 5594,658;  196,646;23147,628;23,51974
 388,60; 5678,371;  186,345;23441,571;23,61631
 389,19; 5740,460;  177,101;23666,670;23,68438
 389,78; 5862,984;  191,564;23903,303;23,91819
 390,37; 6046,523;  256,726;24465,949;23,91567
 390,96; 6102,030;  194,882;24627,730;24,17708
 391,56; 6177,871;  196,868;24821,753;24,28845
 392,15; 6277,007;  188,950;25046,924;24,49136
 392,74; 6324,085;  161,783;25236,263;24,57599
 393,33; 6474,950;  188,406;25643,710;24,69640
 393,92; 6671,663;  194,624;26056,842;25,04440
 394,51; 6703,156;  169,251;26286,286;25,01779
 395,10; 6874,109;  210,689;26531,558;25,31611
 395,69; 6922,163;  206,306;26640,765;25,40569
 396,28; 7035,248;  212,607;26750,921;25,70865
 396,87; 7112,919;  203,057;26911,697;25,87126
 397,46; 7273,621;  210,742;26980,349;26,38395
 398,06; 7350,577;  233,810;27284,332;26,30917
 398,65; 7434,979;  208,403;27317,647;26,65724
 399,24; 7549,077;  220,553;27584,578;26,78160
 399,83; 7576,809;  190,904;27527,511;27,01837
 400,42; 7721,207;  237,182;27677,659;27,27367
 401,01; 7741,171;  212,379;27835,164;27,25573
 401,60; 7873,618;  217,717;27768,416;27,78841
 402,19; 7896,787;  248,835;27762,789;27,79663
 402,78; 7936,763;  247,547;27893,063;27,81361
 403,37; 7935,666;  234,801;27638,610;28,10144
 403,96; 7960,195;  238,585;27506,740;28,31732
 404,55; 7993,023;  249,438;27387,643;28,53389
 405,14; 7930,920;  223,990;27224,622;28,54352
 405,73; 7998,018;  238,761;27159,643;28,82245
 406,32; 8006,423;  243,788;27038,260;28,97103
 406,91; 7930,842;  246,346;26692,896;29,05671
 407,50; 7966,518;  248,547;26492,868;29,40816
 408,09; 7900,947;  218,910;26199,863;29,56796
 408,68; 7883,410;  232,895;26081,519;29,59738
 409,27; 7851,216;  218,453;25850,515;29,77818
 409,86; 7906,006;  229,344;25690,972;30,14993
 410,45; 7926,919;  282,075;25648,265;30,13793
 411,04; 7913,075;  269,037;25560,881;30,22333
 411,63; 7855,614;  250,780;25219,244;30,45776
 412,22; 7874,969;  251,595;24982,074;30,82583
 412,81; 7823,515;  264,919;24674,605;30,96556
 413,40; 7728,090;  278,170;24339,823;30,96180
 413,99; 7726,878;  326,625;23914,045;31,37372
 414,58; 7535,318;  237,937;23563,499;31,28491
 415,17; 7500,958;  257,688;23243,803;31,51150
 415,76; 7460,541;  247,055;23069,934;31,60638
 416,35; 7375,531;  241,910;22787,273;31,64119
 416,94; 7480,140;  269,059;22851,293;31,93254
 417,53; 7577,900;  247,228;23048,903;32,14971
 418,12; 7621,725;  251,309;23214,972;32,09600
 418,71; 7781,601;  281,248;23668,748;32,06992
 419,30; 7834,524;  246,157;23696,754;32,35895
 419,89; 7861,328;  240,776;23882,689;32,23323
 420,48; 8041,905;  275,709;24266,150;32,37204
 421,07; 8025,051;  264,713;24381,782;32,17778
 421,66; 8114,922;  229,953;24349,998;32,69052
 422,25; 8158,830;  257,894;24381,351;32,75209
 422,84; 8145,063;  278,667;24347,434;32,68300
 423,43; 8079,725;  261,967;24039,535;32,87871
 424,02; 8023,256;  289,817;23843,936;32,83264
 424,60; 7858,411;  250,685;23329,884;32,96356
 425,19; 7747,755;  258,597;22947,244;33,00840
 425,78; 7789,086;  275,752;22860,788;33,26687
 426,37; 7712,039;  271,298;22636,995;33,26854
 426,96; 7685,328;  255,760;22590,193;33,26508
 427,55; 7602,193;  259,464;22413,767;33,14358
 428,14; 7591,455;  243,085;22078,248;33,65384
 428,73; 7507,918;  259,998;21867,954;33,54283
 429,32; 7533,078;  269,528;21912,478;33,56081
 429,91; 7545,045;  291,383;21806,341;33,71451
 430,50; 7533,166;  268,159;21717,530;33,87049
 431,08; 7493,412;  294,473;21541,004;33,88289
 431,67; 7493,526;  322,325;21464,263;33,91932
 432,26; 7454,741;  365,099;21224,997;33,98694
 432,85; 7351,283;  366,713;20868,758;34,06768
 433,44; 7232,334;  387,414;20449,869;34,11806
 434,03; 7150,865;  409,194;20023,224;34,37167
 434,62; 6976,321;  354,414;19582,767;34,43824
 435,21; 6917,402;  359,253;19360,026;34,51517
 435,79; 6884,640;  364,267;19146,797;34,71509
 436,38; 6863,915;  352,047;19019,882;34,88282
 436,97; 6792,299;  354,895;18943,334;34,63123
 437,56; 6729,957;  358,835;18708,895;34,71990
 438,15; 6726,934;  325,446;18620,754;34,98978
 438,74; 6758,747;  341,524;18609,894;35,12751
 439,33; 6747,514;  315,445;18619,801;35,13955
 439,91; 6723,167;  268,606;18672,050;35,07257
 440,50; 6804,814;  326,376;18766,482;35,13232
 441,09; 6855,045;  321,540;18860,811;35,24144
 441,68; 6843,484;  308,934;18768,741;35,39880
 442,27; 6851,534;  282,776;18831,541;35,41345
 442,86; 6810,648;  281,335;18802,067;35,25407
 443,44; 6902,038;  284,562;18914,410;35,52083
 444,03; 6964,408;  358,567;18959,563;35,51338
 444,62; 6856,855;  284,566;18818,667;35,46052
 445,21; 6792,136;  304,256;18614,073;35,43389
 445,80; 6817,773;  340,037;18553,912;35,56484
 446,39; 6739,166;  365,804;18230,809;35,67512
 446,97; 6630,466;  290,509;18002,232;35,79525
 447,56; 6506,400;  295,827;17707,859;35,66828
 448,15; 6476,854;  290,124;17577,138;35,78831
 448,74; 6413,661;  307,972;17227,962;36,08565
 449,33; 6344,019;  284,671;17052,543;36,13665
 449,91; 6275,905;  298,682;16846,722;36,12043
 450,50; 6195,889;  278,065;16616,503;36,22025
 451,09; 6149,354;  302,451;16500,784;36,09571
 451,68; 6118,325;  324,147;16340,042;36,17767
 452,26; 6069,336;  322,306;16271,619;36,03309
 452,85; 6040,764;  300,996;16153,248;36,20791
 453,44; 6089,148;  325,626;16163,362;36,39107
 454,03; 6028,519;  287,002;16123,239;36,25557
 454,61; 5994,819;  287,858;16013,449;36,29092
 455,20; 6108,474;  313,940;16205,588;36,46277
 455,79; 6098,927;  318,084;16290,217;36,19331
 456,38; 6128,283;  319,948;16385,324;36,15437
 456,97; 6133,655;  301,637;16439,548;36,13862
 457,55; 6156,853;  306,336;16427,891;36,29003
 458,14; 6163,433;  335,405;16460,830;36,14186
 458,73; 6080,833;  312,568;16309,517;36,05853
 459,31; 6159,900;  346,808;16355,856;36,31129
 459,90; 6191,336;  360,880;16477,998;36,17555
 460,49; 6289,130;  418,877;16571,056;36,34341
 461,08; 6227,765;  318,043;16643,015;36,20050
 461,66; 6252,523;  318,269;16744,052;36,12768
 462,25; 6283,484;  321,201;16797,523;36,18698
 462,84; 6305,359;  350,583;16858,948;36,07127
 463,43; 6249,501;  291,365;16859,773;35,96083
 464,01; 6306,169;  327,369;16865,551;36,15149
 464,60; 6291,616;  373,054;16816,779;35,99283
 465,19; 6177,778;  305,064;16516,141;36,22655
 465,77; 6182,327;  313,531;16582,103;36,07444
 466,36; 6166,054;  346,750;16386,592;36,28031
 466,95; 5999,231;  319,674;16039,136;36,13074
 467,53; 5880,864;  327,844;15681,118;36,16831
 468,12; 5791,267;  359,615;15391,526;36,13415
 468,71; 5687,633;  326,373;15167,250;36,12495
 469,29; 5547,243;  304,308;14864,015;36,00989
 469,88; 5481,871;  319,158;14561,858;36,24813
 470,47; 5541,152;  379,705;14682,200;36,08774
 471,06; 5418,389;  341,090;14661,746;35,45437
 471,64; 5550,391;  345,472;14733,635;36,17500
 472,23; 5455,304;  300,874;14725,544;35,73344
 472,81; 5513,616;  310,020;14898,880;35,66828
 473,40; 5530,498;  323,797;15009,018;35,45538
 473,99; 5720,681;  431,336;15281,733;35,61753
 474,57; 5658,107;  331,028;15366,241;35,43069
 475,16; 5708,612;  346,252;15525,042;35,32798
 475,75; 5746,843;  368,649;15666,045;35,15758
 476,33; 5762,633;  369,810;15732,989;35,10226
 476,92; 5762,868;  356,260;15814,728;34,97505
 477,51; 5766,432;  357,499;15907,107;34,78501
 478,09; 5805,874;  355,346;15916,459;35,02660
 478,68; 5747,099;  362,733;15812,664;34,85042
 479,27; 5782,066;  385,650;15952,003;34,66718
 479,85; 5739,492;  348,271;15827,937;34,82776
 480,44; 5767,781;  344,428;15987,655;34,66902
 481,02; 6154,944;  364,818;17333,660;34,12210
 481,61; 6871,056;  377,431;19714,478;33,58126
 482,20; 7236,709;  373,972;21052,524;33,18770
 482,78; 7564,883;  396,734;22081,012;33,05689
 483,37; 7719,424;  395,135;22762,560;32,74534
 483,95; 7810,113;  430,599;22964,722;32,74817
 484,54; 7855,153;  433,199;23253,698;32,52319
 485,13; 7759,290;  399,298;23122,537;32,38971
 485,71; 7699,911;  370,142;22961,640;32,44481
 486,30; 7605,123;  421,065;22592,300;32,40261
 486,88; 7495,807;  475,529;22254,018;32,23492
 487,47; 7205,184;  441,146;21403,198;32,26801
 488,05; 6939,718;  428,457;20438,197;32,54046
 488,64; 6436,769;  412,233;19075,317;32,28049
 489,23; 5859,960;  448,305;17056,793;32,58367
 489,81; 5076,442;  431,230;14535,918;32,93382
 490,40; 4781,168;  391,001;13746,606;32,87134
 490,98; 4649,494;  372,927;13490,697;32,60133
 491,57; 4634,741;  397,998;13358,578;32,68946
 492,15; 4567,363;  372,620;13216,472;32,65954
 492,74; 4544,398;  382,458;13144,172;32,61271
 493,32; 4494,752;  406,618;13104,771;32,19471
 493,91; 4464,619;  372,701;12964,108;32,49771
 494,50; 4390,013;  382,097;12862,461;32,11377
 495,08; 4347,194;  373,404;12774,074;32,04496
 495,67; 4401,794;  377,776;12767,867;32,47771
 496,25; 4279,935;  338,629;12740,037;31,78112
 496,84; 4254,143;  338,007;12708,145;31,65798
 497,42; 4205,073;  341,401;12638,328;31,41982
 498,01; 4210,758;  358,162;12521,136;31,67479
 498,59; 4114,206;  321,248;12429,800;31,32462
 499,18; 4079,112;  316,778;12366,233;31,22410
 499,76; 4083,162;  353,014;12303,516;31,21332
 500,35; 3977,921;  338,100;12079,470;30,99997
 500,93; 3940,067;  337,093;12013,090;30,85795
 501,52; 3894,287;  315,017;11935,706;30,80084
 502,10; 3895,379;  337,797;11927,614;30,69575
 502,69; 3835,065;  308,186;11716,502;30,91499
 503,27; 3714,865;  294,790;11475,700;30,58852
 503,86; 3711,747;  324,954;11438,905;30,47335
 504,44; 3638,991;  294,958;11287,979;30,41960
 505,03; 3549,544;  289,958;11053,183;30,28447
 505,61; 3517,408;  304,956;10931,532;30,23036
 506,19; 3477,566;  315,419;10718,890;30,39512
 506,78; 3383,681;  285,966;10464,283;30,43445
 507,36; 3316,080;  309,957;10296,927;30,10045
 507,95; 3257,819;  311,740;10161,181;29,91113
 508,53; 3237,825;  299,274; 9978,139;30,36049
 509,12; 3169,185;  312,123; 9867,696;29,89943
 509,70; 3138,528;  325,740; 9678,871;30,07322
 510,29; 3104,657;  337,360; 9470,265;30,30029
 510,87; 2983,411;  294,197; 9288,886;29,89780
 511,46; 2915,066;  296,660; 9110,736;29,70710
 512,04; 2873,451;  304,511; 8952,708;29,70492
 512,62; 2804,663;  314,276; 8767,473;29,46089
 513,21; 2710,740;  294,437; 8630,503;28,98613
 513,79; 2689,701;  301,451; 8491,100;29,16181
 514,38; 2603,148;  277,446; 8276,924;29,07317
 514,96; 2599,626;  327,446; 8199,239;28,86484
 515,54; 2545,275;  279,295; 8031,149;29,23146
 516,13; 2512,764;  302,603; 7921,444;29,00914
 516,71; 2458,575;  298,301; 7784,378;28,85722
 517,30; 2396,215;  290,537; 7676,005;28,51110
 517,88; 2377,084;  304,767; 7570,020;28,52367
 518,46; 2321,265;  286,539; 7422,922;28,51201
 519,05; 2325,864;  293,774; 7412,589;28,54535
 519,63; 2292,074;  302,695; 7289,617;28,47290
 520,22; 2283,370;  315,242; 7211,547;28,53888
 520,80; 2218,646;  288,704; 7164,413;28,06899
 521,38; 2260,126;  338,005; 7157,098;28,18734
 521,97; 2194,168;  279,324; 7074,849;28,17802
 522,55; 2182,509;  306,862; 7048,777;27,82069
 523,13; 2173,356;  293,711; 7019,990;27,94479
 523,72; 2155,827;  297,385; 6998,783;27,73215
 524,30; 2213,083;  325,176; 7133,770;27,72830
 524,89; 2178,753;  278,170; 7138,946;27,70215
 525,47; 2203,526;  297,255; 7264,267;27,36139
 526,05; 2163,645;  264,487; 7333,844;26,86465
 526,64; 2226,874;  305,335; 7460,569;26,85500
 527,22; 2254,069;  309,562; 7560,942;26,81568
 527,80; 2301,622;  344,027; 7740,589;26,46628
 528,39; 2266,498;  295,492; 7772,747;26,36002
 528,97; 2329,055;  296,798; 7954,480;26,53880
 529,55; 2359,077;  321,096; 8083,012;26,25616
 530,14; 2419,731;  330,417; 8333,147;26,10751
 530,72; 2416,267;  293,644; 8490,141;25,89671
 531,30; 2440,699;  287,726; 8630,475;25,80653
 531,89; 2462,440;  313,187; 8692,068;25,65083
 532,47; 2502,321;  338,035; 8823,397;25,50611
 533,05; 2485,102;  326,642; 8809,544;25,44483
 533,63; 2504,945;  334,113; 8917,583;25,29084
 534,22; 2498,835;  299,114; 8954,348;25,41492
 534,80; 2516,642;  334,350; 9017,298;25,13307
 535,38; 2603,020;  424,265; 9164,644;24,92746
 535,97; 2495,870;  320,882; 9102,002;24,76891
 536,55; 2548,779;  384,043; 9186,753;24,59170
 537,13; 2537,140;  379,956; 9140,418;24,62409
 537,71; 2527,248;  430,263; 9176,936;23,97466
 538,30; 2549,654;  462,270; 9290,418;23,64465
 538,88; 2576,629;  502,356; 9416,092;23,27053
 539,46; 2671,906;  566,350; 9652,534;23,17316
 540,05; 2653,085;  580,738; 9772,863;22,54480
 540,63; 2735,110;  625,046; 9942,134;22,64724
 541,21; 2770,208;  677,819;10113,095;22,17623
 541,79; 2788,717;  717,050;10281,765;21,65948
 542,38; 2828,808;  761,045;10444,689;21,35315
 542,96; 2865,468;  761,208;10577,167;21,43712
 543,54; 2935,638;  785,280;10800,663;21,47055
 544,12; 2917,557;  760,589;10923,979;21,22292
 544,70; 2925,335;  738,593;11123,609;21,05670
 545,29; 2984,958;  746,968;11267,168;21,27326
 545,87; 2971,640;  729,665;11244,150;21,32273
 546,45; 2928,369;  675,660;11262,704;21,27798
 547,03; 2943,663;  640,894;11381,789;21,43926
 547,62; 2950,181;  598,743;11496,637;21,57699
 548,20; 2986,360;  612,592;11674,966;21,45803
 548,78; 2972,892;  562,835;11793,192;21,46020
 549,36; 3008,331;  519,526;12014,494;21,65126
 549,94; 3019,349;  472,129;12145,369;21,82102
 550,53; 3060,262;  474,909;12398,853;21,68203
 551,11; 3082,462;  443,760;12561,077;21,77629
 551,69; 3172,368;  469,603;12876,559;21,78428
 552,27; 3162,422;  411,137;13100,879;21,68118
 552,85; 3225,250;  413,529;13537,801;21,42382
 553,44; 3299,834;  412,679;13849,157;21,48744
 554,02; 3386,287;  421,451;14228,259;21,47373
 554,60; 3403,647;  371,223;14466,355;21,51398
 555,18; 3514,379;  397,834;14897,933;21,49327
 555,76; 3560,917;  384,912;15322,232;21,26222
 556,34; 3624,666;  391,304;15682,821;21,14481
 556,93; 3716,909;  361,373;16088,353;21,33618
 557,51; 3727,907;  354,304;16468,350;20,93579
 558,09; 3837,019;  381,219;16808,743;21,03665
 558,67; 3884,727;  368,462;17224,180;20,86096
 559,25; 3949,970;  387,844;17472,060;20,85039
 559,83; 3988,837;  374,542;17839,166;20,69495
 560,41; 4074,219;  365,379;18235,187;20,75478
 561,00; 4127,294;  376,308;18626,049;20,55364
 561,58; 4161,843;  352,994;18796,229;20,65174
 562,16; 4176,506;  347,530;19164,918;20,34807
 562,74; 4227,254;  339,066;19555,485;20,23368
 563,32; 4324,471;  343,926;20050,506;20,19906
 563,90; 4392,126;  360,539;20411,537;20,10666
 564,48; 4466,926;  370,378;20854,554;19,99860
 565,06; 4530,018;  372,384;21477,336;19,69980
 565,65; 4726,110;  353,624;22233,407;19,98413
 566,23; 4868,492;  412,001;23021,505;19,71070
 566,81; 4981,219;  351,383;23763,861;19,77508
 567,39; 5140,779;  360,928;24679,805;19,65490
 567,97; 5262,968;  384,230;25464,026;19,45286
 568,55; 5432,201;  413,464;26378,032;19,32917
 569,13; 5520,041;  354,232;27136,111;19,28845
 569,71; 5691,294;  345,683;28132,950;19,23763
 570,29; 5887,682;  409,065;29246,951;18,99799
 570,87; 6006,132;  387,451;29999,379;18,97438
 571,45; 6096,303;  389,077;30668,475;18,84854
 572,03; 6101,446;  353,544;31270,987;18,59113
 572,61; 6240,743;  341,618;31978,938;18,64610
 573,20; 6391,716;  373,228;32704,824;18,61488
 573,78; 6482,101;  375,234;33318,171;18,53771
 574,36; 6572,486;  381,386;33938,719;18,44932
 574,94; 6650,960;  445,700;34388,861;18,28133
 575,52; 6584,825;  385,861;34576,077;18,13081
 576,10; 6758,316;  442,012;35242,734;18,14992
 576,68; 6806,018;  424,544;35783,530;18,04767
 577,26; 6939,547;  449,787;36541,774;17,98116
 577,84; 7024,598;  453,694;37055,134;17,95258
 578,42; 7096,365;  513,240;37331,755;17,87993
 579,00; 6997,577;  448,542;37584,759;17,63517
 579,58; 7052,340;  497,623;37754,647;17,59324
 580,16; 7020,528;  462,395;37776,249;17,57560
 580,74; 7067,424;  469,165;38010,867;17,57581
 581,32; 7007,276;  474,239;38026,355;17,39725
 581,90; 6936,763;  497,626;38043,001;17,15028
 582,48; 6933,004;  494,857;38099,453;17,12064
 583,06; 6979,519;  488,238;38198,764;17,21345
 583,64; 6976,008;  491,546;38382,838;17,11333
 584,22; 6930,488;  504,016;38075,661;17,10458
 584,80; 6836,914;  508,317;37821,207;16,96089
 585,38; 6737,458;  514,919;37327,143;16,90346
 585,96; 6705,355;  481,851;37420,177;16,84837
 586,54; 6727,407;  501,400;37307,996;16,91547
 587,12; 6669,538;  463,628;37530,769;16,74235
 587,70; 6695,866;  510,928;37611,641;16,67067
 588,28; 6696,557;  477,858;37629,493;16,73869
 588,86; 6640,095;  482,167;37745,176;16,52558
 589,44; 6637,923;  469,022;37772,098;16,53725
 590,02; 6664,364;  466,558;38029,588;16,49975
 590,59; 6659,488;  438,476;38154,901;16,49417
 591,17; 6659,366;  446,722;38353,173;16,38941
 591,75; 6625,986;  434,948;38433,722;16,29273
 592,33; 6700,291;  463,945;38675,014;16,32078
 592,91; 6719,298;  404,566;38865,378;16,41861
 593,49; 6720,146;  426,185;39257,308;16,20855
 594,07; 6760,612;  432,031;39491,060;16,20261
 594,65; 6767,424;  448,477;39415,532;16,21613
 595,23; 6773,339;  436,327;39822,395;16,08948
 595,81; 6750,701;  418,021;39951,678;16,01845
 596,39; 6800,260;  415,022;40133,813;16,07611
 596,97; 6811,115;  411,951;40303,587;16,04137
 597,55; 6792,401;  415,787;40272,969;15,99866
 598,12; 6691,123;  379,879;40227,054;15,83862
 598,70; 6721,163;  384,183;40374,478;15,84629
 599,28; 6769,437;  417,260;40522,243;15,83887
 599,86; 6698,786;  410,413;40465,982;15,69912
 600,44; 6684,130;  372,800;40589,695;15,69323
 601,02; 6733,192;  424,194;40739,744;15,64905
 601,60; 6636,212;  399,794;40707,509;15,47202
 602,18; 6598,103;  372,725;40657,689;15,45335
 602,75; 6587,266;  390,405;40810,676;15,33107
 603,33; 6638,159;  387,260;40826,496;15,45751
 603,91; 6587,922;  379,267;40766,288;15,37290
 604,49; 6592,213;  399,645;40918,327;15,28324
 605,07; 6551,235;  419,640;40854,908;15,16398
 605,65; 6597,666;  427,108;40968,815;15,22027
 606,23; 6559,091;  485,860;41130,809;14,94215
 606,80; 6576,699;  547,482;41160,884;14,84539
 607,38; 6542,731;  598,574;41169,156;14,65140
 607,96; 6582,087;  675,559;41200,713;14,57497
 608,54; 6574,252;  731,878;41337,331;14,38815
 609,12; 6551,127;  752,867;41435,725;14,25234
 609,70; 6525,593;  801,028;41419,969;14,09334
 610,27; 6559,364;  805,635;41394,050;14,17579
 610,85; 6569,217;  828,720;41554,473;14,09550
 611,43; 6505,225;  820,875;41544,044;13,95852
 612,01; 6426,021;  795,024;41166,761;13,94787
 612,59; 6414,117;  782,567;41314,227;13,89420
 613,16; 6348,979;  749,093;41198,453;13,84419
 613,74; 6339,818;  710,029;41053,414;13,95468
 614,32; 6314,292;  671,416;41145,959;13,94179
 614,90; 6298,331;  608,410;40921,085;14,11447
 615,48; 6163,185;  537,787;40466,942;14,08845
 616,05; 6153,197;  515,477;40556,976;14,07969
 616,63; 6114,210;  515,783;40369,471;14,04745
 617,21; 6041,349;  502,943;40301,616;13,91606
 617,79; 6045,164;  471,637;40150,627;14,04655
 618,36; 5977,129;  494,947;40059,040;13,85646
 618,94; 5931,279;  419,788;39722,709;14,02311
 619,52; 5896,977;  460,630;39491,591;13,92829
 620,10; 5869,738;  427,636;39463,743;13,94120
 620,67; 5828,792;  452,013;39260,159;13,85477
 621,25; 5856,813;  457,640;39178,536;13,94382
 621,83; 5771,216;  445,249;39091,913;13,78118
 622,41; 5805,609;  472,710;38960,724;13,85600
 622,98; 5713,906;  433,013;38660,377;13,81443
 623,56; 5716,879;  445,858;38758,773;13,75782
 624,14; 5674,709;  422,642;38592,299;13,75980
 624,72; 5645,850;  413,403;38498,176;13,73895
 625,29; 5595,461;  401,705;38672,999;13,57089
 625,87; 5665,347;  452,253;38624,572;13,65674
 626,45; 5558,058;  400,857;38355,438;13,58782
 627,02; 5570,075;  411,022;38241,987;13,63712
 627,60; 5523,364;  391,492;38177,062;13,58157
 628,18; 5513,281;  375,482;38304,341;13,54588
 628,76; 5496,187;  377,321;38278,995;13,50564
 629,33; 5516,715;  398,017;38256,602;13,52058
 629,91; 5505,661;  393,636;38332,358;13,47443
 630,49; 5570,278;  402,169;38344,343;13,62102
 631,06; 5522,482;  391,014;38561,355;13,44360
 631,64; 5498,262;  399,781;38570,518;13,35704
 632,22; 5461,829;  356,547;38450,251;13,40191
 632,79; 5508,950;  386,085;38721,784;13,36317
 633,37; 5492,878;  366,409;38772,136;13,34819
 633,95; 5498,264;  380,549;38718,244;13,34904
 634,52; 5472,393;  344,710;38943,543;13,28455
 635,10; 5521,553;  357,482;38921,926;13,39076
 635,68; 5526,690;  353,393;39211,839;13,31318
 636,25; 5516,440;  339,696;39104,527;13,35423
 636,83; 5503,956;  334,244;39427,610;13,22401
 637,41; 5534,484;  345,930;39291,272;13,32265
 637,98; 5550,386;  369,699;39619,369;13,19931
 638,56; 5541,839;  350,541;39736,047;13,18073
 639,13; 5501,006;  337,628;39806,545;13,08214
 639,71; 5595,324;  402,091;39826,373;13,17268
 640,29; 5495,950;  312,168;39716,869;13,15524
 640,86; 5537,880;  323,861;39894,696;13,17642
 641,44; 5515,734;  330,477;39943,908;13,08965
 642,02; 5539,588;  357,015;39948,428;13,09014
 642,59; 5518,288;  334,169;40035,178;13,05790
 643,17; 5539,912;  331,016;40039,313;13,11790
 643,74; 5524,535;  328,862;40171,987;13,04032
 644,32; 5526,850;  359,862;40031,352;13,02444
 644,89; 5531,166;  357,016;39901,795;13,08428
 645,47; 5529,635;  367,401;40017,007;13,01963
 646,05; 5543,873;  366,017;39912,373;13,09313
 646,62; 5494,266;  340,017;39976,892;13,00367
 647,20; 5464,504;  348,479;40112,874;12,86584
 647,77; 5468,743;  320,633;39946,778;12,99170
 648,35; 5457,520;  318,864;39738,682;13,03572
 648,92; 5476,451;  336,249;39838,663;13,01237
 649,50; 5441,612;  310,172;39786,567;12,99876
 650,08; 5429,312;  320,557;39662,395;12,98555
 650,65; 5453,859;  317,250;39898,145;12,97750
 651,23; 5466,405;  300,635;40709,588;12,78373
 651,80; 5687,797;  300,635;41761,877;12,99325
 652,38; 5726,113;  324,558;42164,704;12,90998
 652,95; 5761,582;  295,789;42632,531;12,91028
 653,53; 5786,513;  322,251;42930,436;12,82444
 654,10; 5816,982;  365,636;43113,955;12,75219
 654,68; 5843,144;  300,867;42913,706;13,00612
 655,25; 5783,844;  307,252;43032,456;12,81818
 655,83; 5829,082;  304,098;43190,129;12,88295
 656,40; 5832,244;  322,637;43142,111;12,86706
 656,98; 5783,944;  318,945;43018,092;12,79885
 657,55; 5788,106;  309,714;42845,611;12,87945
 658,13; 5733,575;  309,791;42472,900;12,86381
 658,70; 5729,583;  327,099;42161,958;12,91383
 659,28; 5578,360;  322,253;41234,632;12,84723
 659,85; 5491,444;  343,254;40317,075;12,87891
 660,43; 5499,991;  345,869;40357,133;12,88168
 661,00; 5454,460;  326,562;40518,191;12,75862
 661,58; 5532,006;  316,562;40828,941;12,87370
 662,15; 5545,475;  299,408;40983,230;12,89473
 662,73; 5676,483;  377,716;41372,980;12,92531
 663,30; 5641,414;  311,486;41576,731;12,91626
 663,88; 5699,499;  331,409;41704,558;12,97481
 664,45; 5684,660;  306,871;41859,309;12,94218
 665,03; 5766,207;  324,410;42232,367;12,98512
 665,60; 5897,522;  415,487;42783,963;12,93895
 666,17; 5842,068;  316,564;42807,406;13,00399
 666,75; 5900,922;  313,564;43193,464;13,03025
 667,32; 5968,161;  340,488;43441,368;13,05698
 667,90; 6037,553;  325,642;43905,888;13,10665
 668,47; 6073,792;  345,103;44130,177;13,08366
 669,05; 6097,799;  317,027;44485,158;13,08811
 669,62; 6112,422;  291,565;44558,216;13,14953
 670,19; 6149,276;  288,104;44634,351;13,21684
 670,77; 6163,361;  313,951;44841,332;13,13666
 671,34; 6178,523;  306,643;44754,544;13,21070
 671,92; 6229,377;  294,874;45131,525;13,23583
 672,49; 6232,769;  322,105;45166,353;13,18043
 673,06; 6205,238;  268,490;45249,334;13,19839
 673,64; 6241,785;  302,952;45140,161;13,24532
 674,21; 6248,331;  289,491;45045,527;13,31405
 674,79; 6311,185;  323,568;45349,893;13,29804
 675,36; 6325,654;  323,953;45390,720;13,31736
 675,93; 6285,739;  290,337;45408,470;13,28823
 676,51; 6346,439;  316,491;45568,759;13,32518
 677,08; 6362,216;  318,876;45659,279;13,32882
 677,65; 6411,377;  317,415;45807,183;13,39634
 678,23; 6450,693;  302,877;46022,780;13,44670
 678,80; 6459,239;  307,108;46030,530;13,45510
 679,38; 6497,554;  305,185;46184,434;13,49710
 679,95; 6586,947;  323,031;46395,185;13,59588
 680,52; 6591,262;  302,032;46786,704;13,52969
 681,10; 6716,578;  318,032;47129,070;13,66888
 681,67; 6732,355;  316,417;47439,205;13,61536
 682,24; 6736,286;  291,340;47425,109;13,67373
 682,82; 6844,986;  301,033;48114,937;13,68630
 683,39; 6951,916;  344,494;48527,072;13,71330
 683,96; 6977,155;  306,033;48747,822;13,77142
 684,54; 7006,317;  282,495;49060,803;13,78445
 685,11; 7119,247;  337,726;49360,169;13,83350
 685,68; 7174,486;  301,265;49795,766;13,88684
 686,25; 7215,032;  285,342;49890,978;13,96956
 686,83; 7248,732;  290,957;50080,882;13,97426
 687,40; 7321,971;  278,958;50513,940;14,02014
 687,97; 7389,825;  335,496;50846,844;13,96583
 688,55; 7373,909;  279,650;50880,748;14,01997
 689,12; 7430,302;  273,112;51153,729;14,06663
 689,69; 7501,848;  286,959;51219,865;14,16548
 690,26; 7528,548;  288,959;51368,000;14,17331
 690,84; 7539,402;  294,267;51612,058;14,11817
 691,41; 7613,025;  312,729;51610,193;14,23130
 691,98; 7700,418;  304,883;51946,020;14,32101
 692,56; 7717,656;  294,191;52029,617;14,34890
 693,13; 7739,510;  344,499;52126,752;14,28098
 693,70; 7787,825;  317,960;52271,348;14,37801
 694,27; 7775,218;  292,191;52377,022;14,36700
 694,84; 7780,918;  283,345;52627,849;14,32351
 695,42; 7913,156;  358,423;52537,599;14,47845
 695,99; 7919,780;  313,192;52812,811;14,48884
 696,56; 7924,403;  305,039;52635,485;14,56010
 697,13; 8043,718;  325,346;53021,543;14,64692
 697,71; 8073,187;  300,193;53194,447;14,69535
 698,28; 8065,118;  297,732;53457,274;14,61146
 698,85; 8055,049;  270,116;53464,102;14,63499
 699,42; 8123,903;  270,501;53696,160;14,69968
 699,99; 8215,680;  320,963;53684,987;14,79408
 700,57; 8177,996;  309,579;53846,353;14,69722
 701,14; 8263,080;  297,964;53927,565;14,85209
 701,71; 8318,165;  318,964;54135,315;14,86389
 702,28; 8329,788;  307,349;54182,989;14,89066
 702,85; 8362,642;  310,734;54232,431;14,93259
 703,43; 8477,957;  336,426;54564,874;15,01340
 704,00; 8551,658;  351,503;54703,624;15,08709
 704,57; 8490,742;  333,503;54663,606;15,01422
 705,14; 8655,365;  366,427;55021,741;15,16584
 705,71; 8658,604;  351,812;55013,799;15,19665
 706,28; 8644,689;  322,043;54893,165;15,25101
 706,86; 8712,004;  356,658;55263,223;15,21739
 707,43; 8768,089;  389,197;55096,896;15,31574
 708,00; 8749,327;  364,813;55111,108;15,31522
 708,57; 8761,412;  328,890;55065,858;15,40553
 709,14; 8806,727;  355,736;55208,455;15,40670
 709,71; 8876,351;  338,813;55246,898;15,54878
 710,28; 8940,358;  340,737;55489,956;15,59337
 710,86; 8965,443;  344,122;55641,168;15,59093
 711,43; 9051,220;  363,737;55624,687;15,72083
 712,00; 9047,920;  340,507;55743,361;15,71654
 712,57; 9099,082;  360,199;55809,342;15,76018
 713,14; 9139,705;  335,353;55867,708;15,85445
 713,71; 9174,328;  331,507;55872,997;15,92111
 714,28; 9162,028;  324,508;56002,824;15,87246
 714,85; 9190,190;  312,277;55590,344;16,06046
 715,42; 9245,428;  303,893;55835,940;16,10158
 716,00; 9356,359;  386,585;56035,998;16,11836
 716,57; 9401,444;  300,355;56146,902;16,29660
 717,14; 9366,067;  296,970;56012,191;16,27759
 717,71; 9373,767;  288,201;56080,326;16,28467
 718,28; 9534,621;  337,432;56173,923;16,47164
 718,85; 9450,629;  288,279;56151,750;16,40133
 719,42; 9580,482;  307,818;56427,193;16,52311
 719,99; 9538,183;  289,125;56093,251;16,57415
 720,56; 9643,729;  316,203;56343,617;16,64815
 721,13; 9652,429;  291,664;56560,906;16,63567
 721,70; 9657,898;  299,357;56479,348;16,65814
 722,27; 9718,214;  315,896;56447,560;16,75047
 722,84; 9755,606;  371,127;56606,926;16,68773
 723,41; 9776,537;  290,588;56622,138;16,83949
 723,98; 9816,468;  297,896;56860,735;16,82831
 724,55; 9924,629;  324,281;56918,485;16,96348
 725,12; 9843,406;  251,512;56796,774;16,96321
 725,69;10002,491;  289,051;57077,140;17,10471
 726,27; 9982,037;  296,590;57087,582;17,05455
 726,84;10104,968;  313,436;57426,794;17,14403
 727,41;10182,283;  338,052;57489,929;17,22469
 727,98;10186,984;  316,744;57737,603;17,18929
 728,55;10228,607;  346,437;57500,276;17,29047
 729,12;10261,461;  295,668;57679,180;17,36700
 729,69;10341,699;  317,745;57808,546;17,43575
 730,26;10438,092;  333,822;58132,450;17,48185
 730,82;10391,945;  304,053;57925,585;17,50716
 731,39;10446,184;  312,284;58041,951;17,55406
 731,96;10608,115;  309,823;58448,779;17,71324
 732,53;10638,584;  328,669;58661,837;17,67419
 733,10;10684,361;  323,823;58635,741;17,76744
 733,67;10753,754;  328,054;58841,568;17,81759
 734,24;10743,146;  310,593;58491,319;17,93129
 734,81;10812,461;  352,516;58693,607;17,92895
 735,38;10750,777;  320,286;58334,742;17,97912
 735,95;10768,938;  320,517;58207,647;18,04965
 736,52;10854,177;  339,902;58423,397;18,10200
 737,09;10861,954;  335,671;58058,686;18,23585
 737,66;10887,731;  376,364;58246,975;18,16357
 738,23;10939,585;  322,595;58314,418;18,30774
 738,80;11107,823;  398,672;58660,937;18,38094
 739,37;11155,139;  359,211;58834,457;18,46239
 739,94;11212,377;  331,980;58848,438;18,59374
 740,51;11353,770;  457,904;58906,111;18,64192
 741,07;11224,239;  326,904;58854,016;18,61929
 741,64;11370,016;  354,904;59132,843;18,74021
 742,21;11408,870;  328,135;59186,363;18,82614
 742,78;11414,955;  304,520;58860,344;18,97409
 743,35;11516,039;  326,751;59209,940;19,00252
 743,92;11661,970;  369,520;59396,614;19,13096
 744,49;11628,363;  361,136;59206,903;19,14705
 745,06;11584,293;  328,675;59118,961;19,14537
 745,63;11666,840;  315,136;59212,327;19,27376
 746,19;11705,155;  329,368;59178,077;19,33056
 746,76;11754,009;  315,060;59189,366;19,42944
 747,33;11726,401;  318,445;59148,501;19,39137
 747,90;11811,563;  342,445;59377,174;19,42775
 748,47;11795,801;  335,215;59260,771;19,44926
 749,04;11843,809;  338,676;59297,137;19,51396
 749,61;11947,048;  361,907;59176,810;19,69763
 750,17;12011,363;  352,523;59399,714;19,74495
 750,74;12032,217;  335,216;59300,619;19,83706
 751,31;11967,686;  310,139;59240,907;19,78177
 751,88;12046,079;  294,601;59138,889;19,97047
 752,45;12126,471;  320,063;59230,024;20,04145
 753,02;12134,787;  350,678;59124,082;20,05007
 753,58;12158,025;  316,678;59082,601;20,15002
 754,15;12214,956;  323,140;59156,044;20,21287
 754,72;12156,656;  317,063;58842,025;20,22999
 755,29;12171,279;  298,910;58758,237;20,30877
 755,86;12226,364;  316,833;58818,372;20,35764
 756,42;12359,679;  316,833;58810,738;20,58821
 756,99;12255,149;  286,218;58738,411;20,47644
 757,56;12310,695;  288,142;58803,162;20,54610
 758,13;12284,626;  232,757;58630,912;20,63741
 758,70;12411,557;  270,911;58731,278;20,76731
 759,26;12475,180;  257,989;58774,490;20,87820
 759,83;12521,572;  265,989;58868,548;20,91305
 760,40;12516,811;  232,681;58704,375;21,00868
 760,97;12546,742;  234,374;58750,203;21,04109
 761,53;12487,211;  224,605;58341,261;21,09999
 762,10;12454,449;  222,913;58241,934;21,08194
 762,67;12593,073;  247,528;58252,146;21,28373
 763,24;12473,234;  214,913;57818,050;21,28065
 763,80;12595,242;  250,760;57981,724;21,38277
 764,37;12534,173;  254,606;57965,090;21,27788
 764,94;12533,488;  245,529;57482,225;21,46867
 765,50;12552,419;  251,684;57604,744;21,44739
 766,07;12670,888;  284,607;57530,187;21,63710
 766,64;12573,204;  261,761;57140,937;21,64490
 767,21;12597,135;  273,838;57176,996;21,65661
 767,77;12633,527;  280,454;56999,131;21,77955
 768,34;12648,535;  301,762;57055,035;21,75517
 768,91;12667,619;  318,300;56858,324;21,84173
 769,47;12743,320;  311,531;56753,613;22,02574
 770,04;12700,020;  306,762;56771,748;21,94857
 770,61;12658,104;  290,609;56396,190;22,04325
 771,18;12666,420;  285,224;56340,248;22,08757
 771,74;12779,197;  301,302;56538,076;22,18814
 772,31;12803,435;  298,840;56210,672;22,36485
 772,88;12741,828;  272,917;56079,807;22,34296
 773,44;12766,066;  273,225;55882,558;22,46537
 774,01;12828,689;  310,533;55919,693;22,51096
 774,58;12785,236;  282,457;55535,135;22,62837
 775,14;12899,705;  275,842;55845,501;22,71719
 775,71;12891,174;  285,919;55677,559;22,75660
 776,27;12939,105;  346,996;55599,002;22,79032
 776,84;13035,190;  398,535;55670,137;22,86283
 777,41;12975,351;  301,150;55439,657;22,98612
 777,97;12916,821;  298,843;55128,176;23,01319
 778,54;13054,751;  304,997;55210,542;23,22125
 779,11;13058,451;  325,228;55243,062;23,18595
 779,67;13036,305;  290,690;55108,274;23,25096
 780,24;13047,852;  297,151;54843,716;23,37581
 780,80;13038,782;  313,921;54847,005;23,33420
 781,37;13096,021;  308,844;54844,525;23,44736
 781,94;13033,875;  292,075;54671,198;23,43142
 782,50;13071,806;  303,537;54516,487;23,55206
 783,07;13113,660;  322,999;54478,391;23,61844
 783,63;13103,591;  279,153;54390,834;23,69994
 784,20;13088,214;  314,769;54270,200;23,67407
 784,77;13095,221;  306,769;54102,796;23,77211
 785,33;13013,537;  272,384;53903,393;23,75706
 785,90;13075,391;  297,077;53778,297;23,89309
 786,46;13035,552;  321,462;53734,201;23,80348
 787,03;13022,560;  278,385;53483,413;23,95295
 787,59;13059,953;  279,001;53492,394;24,01830
 788,16;13158,883;  295,155;53466,683;24,19289
 788,73;13156,660;  290,001;53245,126;24,29729
 789,29;13145,130;  278,309;52894,492;24,45411
 789,86;13206,676;  319,002;52748,088;24,58115
 790,42;13162,914;  295,310;52568,993;24,61584
 790,99;13169,922;  299,771;52310,358;24,74525
 791,55;13148,468;  282,002;52318,724;24,72574
 792,12;13291,707;  320,695;52386,013;24,91296
 792,68;13233,715;  301,157;52024,148;25,00350
 793,25;13204,722;  299,542;51748,437;25,08349
 793,81;13212,038;  386,234;51357,033;25,16304
 794,38;13131,815;  261,158;51107,938;25,31263
 794,94;13221,053;  281,081;51000,842;25,51268
 795,51;13154,369;  307,620;50705,669;25,49057
 796,07;13114,531;  307,004;50507,420;25,51279
 796,64;13219,615;  321,005;50645,632;25,63081
 797,20;13142,238;  290,159;50092,613;25,80612
 797,77;13038,400;  265,928;49761,517;25,80527
 798,33;13006,946;  293,313;49617,806;25,77550
 798,90;13029,262;  317,390;49516,172;25,83778
 799,46;12976,192;  276,698;48859,691;26,13979
 800,03;12887,508;  284,775;48971,442;25,88539
 800,59;12905,439;  323,468;48783,192;25,96377
 801,15;12896,600;  321,391;48491,789;26,10568
 801,72;12843,300;  296,315;48094,001;26,25020
 802,28;12792,001;  324,084;47851,905;26,23288
 802,85;12747,162;  288,930;47575,886;26,34602
 803,41;12722,247;  289,085;47498,021;26,33646
 803,98;12648,870;  288,931;47040,771;26,43733
 804,54;12630,724;  285,162;46674,830;26,61274
 805,11;12634,578;  294,239;46584,195;26,65878
 805,67;12592,663;  311,316;46593,638;26,53572
 806,23;12531,132;  296,393;46081,542;26,72207
 806,80;12519,447;  315,932;45931,677;26,75286
 807,36;12559,147;  314,086;45848,889;26,89165
 807,93;12570,309;  336,394;45595,870;27,03061
 808,49;12490,778;  283,933;45222,852;27,16319
 809,05;12418,863;  279,087;45020,448;27,13323
 809,62;12494,717;  294,010;44972,583;27,30774
 810,18;12501,878;  298,395;44863,103;27,38374
 810,74;12466,348;  262,857;44524,699;27,57113
 811,31;12385,663;  268,242;44358,373;27,48330
 811,87;12385,133;  293,011;44152,046;27,57042
 812,44;12393,217;  312,935;44118,412;27,57711
 813,00;12341,687;  242,319;43858,701;27,74042
 813,56;12364,463;  287,089;43919,144;27,68005
 814,13;12426,702;  284,397;43833,432;27,88192
 814,69;12355,402;  278,551;43654,644;27,84218
 815,25;12278,256;  244,397;43192,779;28,01935
 815,82;12303,341;  289,321;43147,914;28,03176
 816,38;12325,041;  318,167;42990,126;28,13762
 816,94;12235,818;  262,937;42604,800;28,27670
 817,51;12165,902;  246,014;42349,396;28,31100
 818,07;12176,218;  256,014;42045,916;28,52413
 818,63;12134,918;  275,630;41873,436;28,50941
 819,20;12161,310;  266,245;41944,801;28,54001
 819,76;12101,318;  256,399;41441,475;28,76022
 820,32;12116,095;  304,092;41310,533;28,80524
 820,89;12068,026;  287,015;41095,822;28,86880
 821,45;12068,495;  256,631;40794,495;29,13786
 822,01;12032,811;  278,170;40478,553;29,24012
 822,57;12068,665;  279,939;40359,150;29,41357
 823,14;11915,442;  245,247;40150,208;29,24497
 823,70;11937,757;  267,093;39855,728;29,47983
 824,26;11827,226;  255,940;39693,940;29,34045
 824,82;11899,850;  299,402;39626,075;29,49766
 825,39;11781,857;  262,017;39235,287;29,55831
 825,95;11854,942;  269,864;39183,422;29,77132
 826,51;11748,104;  278,633;38870,710;29,71975
 827,08;11819,342;  313,095;38988,384;29,75090
 827,64;11751,350;  295,710;38658,519;29,86132
 828,20;11691,050;  253,172;38377,039;30,00188
 828,76;11655,981;  307,711;38348,327;29,83198
 829,32;11724,758;  294,634;38190,539;30,16190
 829,89;11567,689;  244,635;38065,367;29,93875
 830,45;11585,927;  276,404;38015,502;29,96766
 831,01;11653,166;  260,481;37845,406;30,31185
 831,57;11605,404;  271,404;37624,156;30,34315
 832,14;11588,412;  267,097;37710,599;30,23573
 832,70;11555,035;  257,174;37407,811;30,41095
 833,26;11524,504;  229,944;37299,869;30,46826
 833,82;11582,897;  260,329;37228,312;30,62804
 834,38;11569,135;  245,252;37213,601;30,63129
 834,95;11562,682;  250,867;37046,736;30,74208
 835,51;11512,612;  220,406;36916,948;30,77185
 836,07;11637,774;  267,791;36998,236;30,95520
 836,63;11641,782;  275,022;36999,833;30,95117
 837,19;11654,020;  272,715;36822,430;31,13925
 837,75;11567,951;  236,561;36472,718;31,27095
 838,32;11614,420;  284,946;36590,161;31,20619
 838,88;11657,197;  283,023;36670,527;31,25846
 839,44;11641,744;  276,869;36566,816;31,31687
 840,00;11668,905;  266,254;36430,489;31,53019
 840,56;11547,067;  260,331;36155,240;31,44383
 841,12;11659,613;  239,486;36161,605;31,79135
 841,68;11637,390;  236,409;35952,125;31,92147
 842,25;11588,552;  256,332;35987,337;31,71537
 842,81;11531,175;  236,948;35649,241;31,89352
 843,37;11584,644;  231,640;35706,453;32,00300
 843,93;11610,498;  250,256;35579,127;32,15569
 844,49;11686,737;  273,718;35613,262;32,29532
 845,05;11594,052;  216,487;35393,474;32,34377
 845,61;11663,521;  268,641;35485,839;32,35601
 846,17;11668,683;  243,642;35369,667;32,52586
 846,73;11636,075;  250,026;35271,571;32,51156
 847,29;11610,237;  239,181;35004,783;32,70778
 847,86;11642,783;  245,104;35011,456;32,78365
 848,42;11596,406;  242,643;34765,437;32,88773
 848,98;11630,953;  262,412;34724,496;32,98855
 849,54;11690,114;  253,643;34742,246;33,16015
 850,10;11643,276;  265,797;34517,996;33,21678
 850,66;11648,437;  236,336;34407,208;33,39716
 851,22;11655,676;  231,182;34400,497;33,43495
 851,78;11724,222;  277,490;34418,324;33,52798
 852,34;11654,538;  264,490;34216,998;33,54700
 852,90;11611,238;  237,106;34041,056;33,64734
 853,46;11608,707;  245,799;33860,345;33,80355
 854,02;11685,407;  256,568;33917,018;33,95332
 854,58;11603,261;  256,722;33505,307;34,12638
 855,14;11583,423;  238,338;33525,288;34,08268
 855,70;11556,738;  207,492;33415,039;34,17671
 856,26;11593,054;  252,031;33282,635;34,33489
 856,82;11546,600;  241,031;33141,617;34,36282
 857,38;11608,377;  292,339;33004,444;34,59281
 857,94;11521,154;  255,878;32893,502;34,51623
 858,50;11526,008;  263,570;32755,483;34,66228
 859,06;11451,554;  248,878;32506,080;34,72922
 859,62;11507,408;  259,724;32519,368;34,86611
 860,18;11425,954;  250,340;32376,196;34,78698
 860,74;11412,885;  229,802;32079,946;35,11156
 861,30;11365,662;  227,033;31975,774;35,08369
 861,86;11441,285;  316,187;32026,216;35,08385
 862,42;11301,524;  245,572;31830,428;35,00396
 862,98;11400,070;  276,803;31859,948;35,21900
 863,54;11271,001;  237,342;31497,160;35,29662
 864,10;11356,931;  239,034;31610,141;35,43993
 864,66;11294,016;  224,880;31321,584;35,59585
 865,22;11302,024;  244,342;31234,488;35,68128
 865,78;11236,878;  250,573;31170,238;35,53177
 866,34;11243,347;  231,727;31085,143;35,69012
 866,90;11208,893;  255,574;30876,431;35,77078
 867,45;11151,824;  249,112;30704,182;35,79933
 868,01;11101,140;  253,651;30485,855;35,88057
 868,57;11062,455;  238,036;30324,067;35,97822
 869,13;11025,463;  223,882;30228,433;35,99981
 869,69;11070,932;  239,113;30057,030;36,32654
 870,25;11041,478;  228,883;29990,626;36,33052
 870,81;11121,025;  238,037;29950,376;36,62784
 871,37;11139,955;  268,499;29863,973;36,73351
 871,93;11104,040;  264,730;29639,570;36,89998
 872,49;11038,279;  289,192;29427,166;36,89030
 873,04;10995,902;  232,269;29228,301;37,12105
 873,60;10975,679;  230,807;29150,667;37,15395
 874,16;10975,302;  242,115;29056,879;37,24891
 874,72;10965,071;  235,731;28980,110;37,32674
 875,28;10992,840;  237,731;28893,340;37,53230
 875,84;11038,610;  249,115;28810,417;37,77662
 876,40;10993,840;  242,808;28833,187;37,60367
 876,95;11018,533;  248,038;28684,956;37,87504
 877,51;11049,148;  268,038;28741,571;37,86362
 878,07;11109,610;  285,808;28664,187;38,14102
 878,63;11145,610;  246,346;28737,340;38,25512
 879,19;11165,456;  259,808;28726,956;38,30959
 879,75;11141,379;  229,577;28770,187;38,23255
 880,30;11178,379;  243,269;28768,187;38,33529
 880,86;11326,610;  279,346;28888,187;38,61486
 881,42;11261,302;  229,038;28904,802;38,47243
 881,98;11356,533;  261,115;28898,494;38,74453
 882,54;11444,687;  236,654;29083,725;38,85328
 883,09;11478,610;  255,038;29226,187;38,74051
 883,65;11516,533;  242,423;29270,110;38,83916
 884,21;11647,763;  282,731;29509,033;38,88632
 884,77;11735,994;  233,731;29549,648;39,23556
 885,32;11710,994;  236,192;29678,571;38,97376
 885,88;11945,610;  288,038;29793,187;39,51030
 886,44;11928,687;  254,115;30006,571;39,23902
 887,00;11979,994;  269,269;29921,263;39,49389
 887,56;12022,379;  246,731;30080,879;39,47037
 888,11;12095,840;  249,885;30138,802;39,63327
 888,67;12117,302;  277,654;30316,494;39,41446
 889,23;12140,840;  247,654;30270,417;39,61390
 889,79;12112,456;  241,808;30227,494;39,58771
 890,34;12148,763;  257,423;30135,033;39,80017
 890,90;12282,225;  322,115;30343,340;39,83885
 891,46;12204,687;  241,115;30146,033;40,00536
 892,01;12240,148;  255,423;30155,417;40,08270
 892,57;12259,610;  281,192;30099,340;40,17157
 893,13;12184,610;  247,654;29844,648;40,33165
 893,69;12116,302;  233,423;29838,494;40,13798
 894,24;12132,994;  244,269;29695,417;40,36761
 894,80;12084,610;  248,500;29548,494;40,39629
 895,36;12051,533;  248,731;29467,263;40,39492
 895,91;12015,302;  242,654;29224,110;40,62131
 896,47;12048,379;  260,654;29114,417;40,85334
 897,03;11894,533;  246,654;28924,110;40,61685
 897,58;11870,379;  254,192;28778,187;40,72426
 898,14;11791,302;  253,423;28698,648;40,56174
 898,70;11735,840;  215,269;28459,110;40,78968
 899,25;11770,763;  244,885;28531,802;40,74632
 899,81;11758,379;  250,192;28214,187;41,15359
 900,37;11631,994;  214,654;27953,340;41,16035
 900,92;11667,533;  248,038;28080,956;41,02874
 901,48;11593,302;  236,577;27881,417;41,08081
 902,03;11551,148;  238,346;27766,417;41,09551
 902,59;11553,687;  235,577;27669,802;41,25544
 903,15;11568,379;  253,192;27441,417;41,61797
 903,70;11491,225;  239,115;27252,571;41,65372
 904,26;11450,225;  233,192;27078,263;41,78433
 904,82;11461,456;  235,654;27069,110;41,83510
 905,37;11467,687;  246,808;26941,263;42,03449
 905,93;11418,071;  230,731;26746,648;42,19104
 906,48;11445,456;  253,654;26748,263;42,24181
 907,04;11446,533;  248,808;26615,725;42,46884
 907,60;11361,610;  246,654;26451,263;42,41603
 908,15;11335,610;  217,423;26205,956;42,78112
 908,71;11381,687;  255,654;26253,494;42,79599
 909,26;11255,071;  235,731;26051,340;42,68480
 909,82;11240,994;  247,500;25919,494;42,82291
 910,37;11193,148;  280,885;25889,033;42,61247
 910,93;11159,840;  223,346;25666,110;42,98469
 911,48;11064,302;  225,423;25556,725;42,78848
 912,04;11075,456;  230,269;25385,879;43,11240
 912,60;11092,840;  243,654;25411,187;43,10787
 913,15;11031,917;  244,192;25191,187;43,24258
 913,71;10924,379;  226,038;25009,110;43,16794
 914,26;10858,610;  207,654;24982,187;42,99155
 914,82;10864,225;  233,808;24938,879;43,02929
 915,37;10839,456;  226,577;24800,956;43,18676
 915,93;10837,225;  281,346;24688,956;43,24831
 916,48;10706,148;  220,192;24487,879;43,20954
 917,04;10782,533;  258,269;24466,340;43,47419
 917,59;10727,302;  268,269;24344,110;43,44203
 918,15;10632,994;  203,808;24117,033;43,61263
 918,70;10523,148;  225,346;24020,263;43,27732
 919,26;10610,148;  230,269;23902,802;43,84777
 919,81;10491,917;  224,654;23739,263;43,66334
 920,37;10497,456;  234,038;23688,956;43,75806
 920,92;10512,763;  252,808;23585,802;43,97188
 921,48;10415,687;  228,423;23421,494;43,92374
 922,03;10393,148;  237,577;23409,110;43,82779
 922,59;10345,225;  235,500;23233,417;43,95931
 923,14;10341,763;  222,038;23090,956;44,25100
 923,69;10355,994;  256,962;23011,263;44,38296
 924,25;10379,148;  263,038;22969,956;44,55078
 924,80;10222,302;  233,654;22738,802;44,38384
 925,36;10219,687;  221,192;22737,110;44,40634
 925,91;10189,456;  227,885;22552,187;44,62209
 926,47;10186,302;  208,269;22441,340;44,87924
 927,02;10188,071;  308,346;22397,110;44,72738
 927,57;10088,840;  221,577;22235,571;44,82269
 928,13;10088,379;  214,269;22163,110;44,98693
 928,68;10103,225;  221,423;22072,725;45,22294
 929,24;10019,302;  197,500;21805,879;45,45367
 929,79;10002,148;  215,192;21702,110;45,54844
 930,34; 9926,763;  230,654;21651,340;45,26517
 930,90; 9951,917;  216,423;21565,494;45,60149
 931,45; 9942,302;  233,654;21543,340;45,55979
 932,01; 9913,763;  234,808;21374,110;45,78654
 932,56; 9898,687;  240,038;21245,340;45,98195
 933,11; 9938,379;  251,577;21204,110;46,23213
 933,67; 9836,148;  212,346;21073,340;46,13300
 934,22; 9801,302;  235,038;20982,494;46,10813
 934,77; 9794,840;  253,423;20843,340;46,34024
 935,33; 9681,687;  242,346;20720,571;46,09452
 935,88; 9718,763;  231,808;20664,802;46,42959
 936,43; 9687,840;  219,192;20546,571;46,58076
 936,99; 9660,456;  227,731;20466,187;46,60793
 937,54; 9567,148;  201,731;20228,187;46,76523
 938,09; 9612,379;  233,577;20285,033;46,77367
 938,65; 9558,071;  233,654;20099,494;46,93694
 939,20; 9500,148;  206,962;19953,263;47,06292
 939,75; 9454,533;  209,654;19835,110;47,10657
 940,31; 9409,994;  207,500;19826,725;46,90549
 940,86; 9467,533;  229,038;19791,494;47,22564
 941,41; 9496,994;  318,500;19668,648;47,43372
 941,96; 9359,687;  212,731;19607,340;47,16236
 942,52; 9311,456;  218,269;19443,879;47,29726
 943,07; 9305,610;  207,346;19295,494;47,66446
 943,62; 9290,533;  224,115;19169,263;47,85614
 944,18; 9232,917;  191,346;19165,263;47,65263
 944,73; 9230,687;  228,962;19085,725;47,73738
 945,28; 9088,302;  201,577;18843,417;47,67086
 945,83; 9164,302;  207,654;18876,340;47,97685
 946,39; 9187,763;  208,962;18816,571;48,25339
 946,94; 9161,610;  251,038;18726,956;48,22803
 947,49; 9110,533;  214,269;18608,033;48,36565
 948,04; 9117,687;  266,269;18638,340;48,17866
 948,59; 9067,071;  236,192;18466,033;48,44189
 949,15; 9030,071;  202,115;18418,417;48,46184
 949,70; 9023,071;  215,885;18278,340;48,75963
 950,25; 8961,533;  227,731;18187,879;48,62879
 950,80; 8947,225;  186,654;18065,494;48,99966
 951,36; 8869,071;  189,038;18013,725;48,69669
 951,91; 8880,687;  235,577;17995,648;48,67722
 952,46; 8790,763;  213,962;17770,956;48,85120
 953,01; 8847,917;  238,038;17784,110;49,07012
 953,56; 8727,610;  194,654;17578,802;49,08469
 954,11; 8782,071;  229,346;17578,648;49,29723
 954,67; 8732,456;  207,500;17465,187;49,39802
 955,22; 8642,379;  196,654;17353,033;49,22790
 955,77; 8666,917;  233,192;17342,110;49,29432
 956,32; 8646,302;  271,808;17259,879;49,29632
 956,87; 8561,917;  211,269;17057,802;49,56894
 957,42; 8563,379;  214,500;17054,340;49,57814
 957,98; 8499,302;  207,654;16927,725;49,59099
 958,53; 8497,148;  248,577;16912,263;49,50028
 959,08; 8425,994;  203,423;16808,494;49,51843
 959,63; 8390,456;  207,192;16637,571;49,80569
 960,18; 8408,456;  234,192;16604,110;49,93467
 960,73; 8365,225;  229,115;16584,340;49,74624
 961,28; 8292,994;  201,038;16439,340;49,83252
 961,83; 8292,533;  235,577;16461,725;49,65415
 962,39; 8184,379;  199,962;16238,033;49,78415
 962,94; 8188,763;  229,115;16205,263;49,82207
 963,49; 8113,763;  223,115;16012,340;49,97489
 964,04; 8166,148;  233,500;16038,417;50,19101
 964,59; 8081,148;  192,038;15881,956;50,28140
 965,14; 8079,840;  242,962;15896,263;50,06534
 965,69; 8067,148;  221,038;15762,263;50,48579
 966,24; 8047,687;  213,500;15696,648;50,59815
 966,79; 7971,071;  241,115;15591,110;50,35804
 967,34; 7918,379;  193,654;15448,879;50,63659
 967,89; 7915,687;  221,346;15349,956;50,85953
 968,44; 7851,763;  214,269;15290,263;50,65997
 968,99; 7896,071;  229,038;15280,340;50,93933
 969,55; 7820,379;  226,500;15127,648;50,96170
 970,10; 7803,225;  233,808;15016,802;51,20355
 970,65; 7769,917;  248,962;14934,802;51,21229
 971,20; 7703,148;  208,885;14882,494;51,07307
 971,75; 7661,071;  199,500;14642,187;51,66332
 972,30; 7609,225;  230,808;14579,417;51,42252
 972,85; 7572,533;  211,500;14515,571;51,46110
 973,40; 7513,994;  210,885;14380,417;51,54093
 973,95; 7503,994;  237,808;14345,187;51,50628
 974,50; 7473,994;  263,269;14222,956;51,65392
 975,05; 7448,917;  222,500;14148,263;51,89243
 975,60; 7443,763;  234,731;14046,187;52,19604
 976,15; 7363,379;  210,115;13950,417;52,06045
 976,70; 7351,687;  217,500;13911,187;52,09836
 977,25; 7355,225;  237,038;13847,802;52,29822
 977,80; 7251,225;  216,577;13657,725;52,33666
 978,35; 7182,917;  231,423;13469,956;52,50955
 978,89; 7197,763;  194,115;13448,263;52,84118
 979,44; 7192,994;  223,962;13453,879;52,67631
 979,99; 7065,302;  211,038;13226,879;52,66094
 980,54; 7047,379;  252,654;13184,725;52,54166
 981,09; 7038,379;  243,808;13054,417;53,03862
 981,64; 6964,148;  235,731;12931,725;52,99638
 982,19; 6967,379;  259,808;12909,340;53,02624
 982,74; 6922,533;  242,962;12781,571;53,27202
 983,29; 6848,379;  215,269;12692,879;53,16010
 983,84; 6808,225;  238,423;12495,879;53,59841
 984,39; 6814,763;  313,192;12472,033;53,47197
 984,94; 6627,610;  197,192;12341,571;52,94974
 985,49; 6672,533;  252,731;12332,417;53,14543
 986,03; 6648,994;  238,962;12142,879;53,84809
 986,58; 6591,840;  280,654;12086,187;53,45957
 987,13; 6539,610;  230,500;11883,725;54,14046
 987,68; 6503,533;  248,577;11819,494;54,05756
 988,23; 6437,917;  239,269;11738,879;53,90312
 988,78; 6352,533;  213,269;11583,879;53,99239
 989,33; 6338,302;  257,808;11489,494;54,13697
 989,88; 6296,994;  259,346;11477,187;53,82184
 990,42; 6217,302;  225,269;11282,187;54,19262
 990,97; 6162,148;  215,654;11123,110;54,51770
 991,52; 6132,917;  248,885;11134,033;54,05561
 992,07; 6098,302;  269,577;11035,110;54,14247
 992,62; 5996,917;  240,654;10844,494;54,28470
 993,17; 5935,148;  249,346;10701,340;54,39921
 993,71; 5915,071;  251,731;10676,263;54,32704
 994,26; 5803,148;  230,962;10506,956;54,22528
 994,81; 5824,379;  260,808;10500,417;54,33382
 995,36; 5692,917;  221,346;10309,340;54,23844
 995,91; 5671,071;  227,654;10275,648;54,17417
 996,45; 5661,687;  240,500;10146,956;54,72377
 997,00; 5550,840;  212,962; 9983,187;54,63414
 997,55; 5579,610;  252,423; 9988,417;54,71641
 998,10; 5492,148;  248,500; 9817,494;54,79832
 998,65; 5456,148;  242,654; 9754,033;54,81323
 999,19; 5418,994;  257,269; 9619,187;55,13534
 999,74; 5353,533;  270,962; 9535,571;54,86007
1000,29; 5327,533;  240,115; 9479,802;55,06050
1000,84; 5229,148;  236,269; 9276,494;55,22959
1001,38; 5202,533;  234,731; 9204,033;55,38672
1001,93; 5183,763;  251,269; 9136,187;55,51536
1002,48; 5083,763;  226,269; 9021,417;55,22925
1003,03; 5072,687;  253,192; 8993,187;55,14299
1003,57; 5031,071;  233,654; 8831,494;55,79793
1004,12; 4984,610;  284,731; 8781,263;55,31526
1004,67; 4890,687;  231,423; 8640,802;55,40556
1005,22; 4813,840;  222,115; 8490,417;55,53408
1005,76; 4740,533;  221,346; 8363,340;55,50466
1006,31; 4711,994;  253,654; 8360,802;54,99271
1006,86; 4650,379;  223,115; 8200,494;55,49772
1007,40; 4576,994;  210,346; 8055,571;55,65995
1007,95; 4546,456;  240,654; 7977,187;55,65545
1008,50; 4487,071;  235,500; 7856,417;55,78818
1009,04; 4398,917;  233,577; 7796,033;55,07920
1009,59; 4340,763;  233,038; 7635,571;55,49081
1010,14; 4279,917;  218,885; 7497,494;55,79407
1010,68; 4203,225;  232,269; 7414,417;55,28925
1011,23; 4175,148;  228,346; 7290,494;55,88671
1011,78; 4136,840;  244,577; 7217,187;55,82219
1012,32; 4106,994;  267,423; 7108,110;56,12845
1012,87; 4101,148;  261,731; 7091,494;56,21596
1013,42; 3966,302;  222,654; 6908,033;55,99755
1013,96; 4012,917;  267,423; 6969,033;55,88947
1014,51; 3897,763;  195,192; 6870,340;55,46800
1015,06; 3958,225;  218,577; 6820,417;56,64554
1015,60; 3992,148;  268,192; 6919,648;55,98708
1016,15; 3950,917;  217,654; 6860,802;56,19720
1016,69; 3930,379;  229,885; 6884,110;55,61120
1017,24; 3966,840;  213,962; 6871,571;56,36976
1017,79; 4038,610;  273,500; 6962,725;56,28619
1018,33; 4013,225;  231,885; 6942,340;56,34998
1018,88; 4058,456;  256,654; 6979,340;56,55182
1019,42; 4080,379;  218,038; 6976,263;57,15022
1019,97; 4064,687;  222,192; 6987,033;56,80096
1020,51; 4133,687;  266,192; 7069,187;56,84988
1021,06; 4081,225;  213,962; 7018,494;56,83364
1021,61; 4063,148;  199,115; 6993,956;56,86716
1022,15; 4027,533;  181,808; 6943,571;56,87459
1022,70; 4067,302;  232,192; 6960,571;56,99901
1023,24; 4059,533;  207,577; 6896,340;57,58846
1023,79; 4048,071;  224,269; 6824,187;57,93712
1024,33; 3990,302;  219,731; 6798,802;57,31160
1024,88; 3963,917;  242,115; 6705,648;57,58154
1025,42; 3917,687;  234,346; 6583,494;58,01314
1025,97; 3836,917;  214,115; 6508,033;57,56037
1026,51; 3779,610;  201,423; 6397,494;57,74928
1027,06; 3764,917;  213,577; 6362,571;57,75482
1027,60; 3689,148;  231,808; 6233,879;57,60246
1028,15; 3681,225;  243,654; 6151,417;58,18735
1028,69; 3566,994;  188,038; 6007,417;58,06386
1029,24; 3557,071;  217,269; 5916,110;58,60494
1029,78; 3497,610;  204,269; 5840,725;58,42928
1030,33; 3433,225;  192,423; 5734,725;58,47393
1030,87; 3404,302;  209,577; 5652,879;58,69094
1031,42; 3350,610;  195,577; 5588,802;58,49993
1031,96; 3349,840;  234,885; 5527,956;58,84969
1032,51; 3284,533;  203,346; 5395,571;59,34232
1033,05; 3256,302;  220,808; 5369,494;58,95667
1033,60; 3148,687;  190,731; 5234,956;58,64044
1034,14; 3158,687;  220,346; 5180,417;59,23988
1034,69; 3085,687;  215,115; 5142,263;58,26030
1035,23; 3065,840;  223,654; 5014,879;59,32067
1035,77; 3037,225;  212,577; 4986,648;59,16644
1036,32; 2951,687;  203,962; 4901,956;58,48719
1036,86; 2959,994;  232,192; 4857,494;58,97565
1037,41; 2917,840;  230,192; 4769,340;59,21041
1037,95; 2843,148;  194,962; 4686,187;58,96357
1038,50; 2807,763;  206,654; 4643,879;58,62019
1039,04; 2810,533;  237,500; 4581,879;59,22671
1039,58; 2729,687;  194,885; 4480,340;59,14895
1040,13; 2705,840;  215,269; 4413,340;59,32656
1040,67; 2732,302;  242,269; 4389,956;60,03425
1041,21; 2690,610;  242,346; 4332,571;59,85645
1041,76; 2587,379;  206,115; 4262,110;58,70973
1042,30; 2569,687;  214,038; 4213,187;58,90375
1042,85; 2532,994;  218,577; 4124,802;59,24946
1043,39; 2506,610;  201,731; 4044,879;59,97372
1043,93; 2511,610;  237,808; 4033,571;59,90368
1044,48; 2470,610;  226,500; 3957,340;60,15024
1045,02; 2413,148;  222,269; 3891,648;59,70708
1045,56; 2406,763;  249,038; 3869,648;59,59563
1046,11; 2369,610;  220,038; 3814,571;59,80113
1046,65; 2314,379;  227,500; 3729,263;59,59508
1047,19; 2295,687;  203,346; 3711,187;59,64754
1047,74; 2261,225;  193,885; 3613,956;60,44729
1048,28; 2241,610;  226,038; 3590,956;59,89957
1048,82; 2251,610;  234,192; 3563,417;60,59721
1049,37; 2199,610;  231,885; 3506,110;60,09743
1049,91; 2184,610;  233,269; 3454,263;60,58193
1050,45; 2148,763;  235,808; 3403,340;60,39261
1050,99; 2102,917;  226,346; 3366,263;59,76499
1051,54; 2057,379;  206,654; 3318,187;59,47953
1052,08; 2079,379;  243,654; 3287,956;60,30036
1052,62; 2054,763;  239,500; 3222,725;60,84903
1053,16; 1984,533;  208,500; 3179,494;59,77907
1053,71; 2004,994;  228,808; 3150,648;60,78999
1054,25; 1965,148;  238,654; 3097,571;60,38979
1054,79; 1926,917;  238,038; 3047,494;60,11409
1055,33; 1879,763;  198,500; 2947,417;61,16093
1055,88; 1873,840;  236,346; 2969,802;59,90564
1056,42; 1887,840;  236,500; 2937,648;61,13476
1056,96; 1838,917;  241,115; 2886,340;60,40325
1057,50; 1807,071;  233,346; 2852,110;60,09420
1058,05; 1777,840;  231,038; 2782,648;60,62063
1058,59; 1797,302;  258,885; 2744,725;61,88721
1059,13; 1738,379;  209,192; 2702,187;61,33935
1059,67; 1726,302;  236,115; 2685,417;60,84128
1060,21; 1684,533;  227,577; 2614,033;61,05103
1060,76; 1671,379;  243,423; 2595,802;60,70263
1061,30; 1682,763;  255,962; 2583,725;61,29497
1061,84; 1634,763;  232,269; 2529,494;61,05167
1062,38; 1588,917;  217,731; 2442,879;61,62226
1062,92; 1633,533;  259,962; 2486,033;61,70383
1063,46; 1582,071;  237,654; 2412,417;61,81901
1064,01; 1550,071;  216,423; 2378,187;61,69260
1064,55; 1538,071;  242,808; 2363,571;61,07534
1065,09; 1470,148;  205,500; 2291,340;60,63015
1065,63; 1510,148;  254,962; 2318,571;60,82481
1066,17; 1510,148;  263,115; 2297,956;61,28405
1066,71; 1471,994;  247,962; 2242,187;61,37887
1067,25; 1441,917;  230,731; 2198,187;61,56106
1067,80; 1438,917;  245,962; 2177,802;61,75229
1068,34; 1431,148;  259,192; 2178,802;61,05178
1068,88; 1384,456;  223,500; 2097,725;61,94324
1069,42; 1403,917;  252,654; 2098,648;62,36550
1069,96; 1355,456;  230,038; 2062,417;61,41837
1070,50; 1368,763;  259,115; 2094,879;60,44614
1071,04; 1305,071;  211,500; 1993,956;61,35194
1071,58; 1304,687;  227,654; 1994,187;60,96874
1072,12; 1305,610;  233,269; 1991,187;61,00062
1072,66; 1295,994;  235,423; 1944,879;62,04145
1073,21; 1304,379;  253,654; 1916,033;63,20611
1073,75; 1257,533;  253,731; 1908,110;60,67546
1074,29; 1250,687;  234,269; 1875,110;61,94492
1074,83; 1245,610;  263,808; 1872,648;61,02544
1075,37; 1233,533;  256,731; 1849,417;61,33046
1075,91; 1223,225;  241,577; 1847,033;61,14451
1076,45; 1207,379;  243,269; 1791,571;62,26884
1076,99; 1205,840;  250,269; 1789,263;62,09063
1077,53; 1158,148;  225,885; 1743,187;61,44219
1078,07; 1177,994;  242,269; 1731,956;62,81355
1078,61; 1152,840;  234,269; 1698,725;62,72440
1079,15; 1128,610;  237,269; 1681,340;61,72413
1079,69; 1132,225;  240,346; 1654,956;63,04770
1080,23; 1130,456;  255,038; 1672,648;61,75306
1080,77; 1168,456;  301,500; 1688,033;62,52689
1081,31; 1104,148;  237,423; 1599,802;63,61850
1081,85; 1110,379;  260,346; 1605,033;63,21419
1082,39; 1072,225;  231,423; 1567,494;62,93092
1082,93; 1074,148;  252,346; 1582,263;61,79346
1083,47; 1037,302;  225,731; 1515,648;62,91653
1084,01; 1050,610;  243,038; 1548,802;61,84667
1084,55; 1022,687;  225,885; 1493,263;62,87007
1085,09; 1037,148;  247,500; 1507,879;62,65164
1085,63; 1013,994;  243,654; 1471,110;62,75912
1086,17;  976,763;  234,192; 1451,956;60,97828
1086,71;  973,917;  238,885; 1434,648;61,46974
1087,24;  995,917;  260,808; 1458,263;61,38929
1087,78;  979,687;  262,654; 1424,879;61,69483
1088,32;  937,840;  231,269; 1359,110;62,64815
1088,86;  974,533;  248,885; 1383,571;63,95141
1089,40;  953,610;  246,423; 1360,956;63,45139
1089,94;  907,302;  223,269; 1333,494;61,61208
1090,48;  930,148;  253,192; 1335,187;62,56556
1091,02;  933,610;  251,192; 1318,033;63,96621
1091,56;  901,687;  241,577; 1291,187;62,89096
1092,10;  872,148;  224,577; 1264,725;62,25759
1092,63;  905,763;  265,269; 1300,417;61,87465
1093,17;  886,148;  252,115; 1252,725;63,36464
1093,71;  853,840;  224,654; 1213,340;63,63863
1094,25;  881,533;  258,962; 1235,340;63,76328
1094,79;  847,148;  229,962; 1198,956;63,69352
1095,33;  853,148;  245,346; 1208,340;63,11584
1095,87;  817,533;  242,808; 1185,802;60,94682
1096,40;  791,687;  220,577; 1155,340;61,09670
1096,94;  826,687;  228,808; 1159,802;64,21939
1097,48;  812,994;  253,192; 1150,340;62,39794
1098,02;  787,071;  237,192; 1108,879;63,08218
1098,56;  748,687;  202,885; 1073,879;62,66424
1099,10;  745,687;  221,731; 1070,879;61,70370
1099,63;  763,610;  215,038; 1068,340;64,28805
1100,17;  765,533;  243,269; 1095,417;61,28788
1100,71;  790,994;  275,731; 1097,648;62,69043

