
Integration time [ms]: 150,000
Averaging Nr. [scans]: 13
Smoothing Nr. [pixels]: 0
Data measured with spectrometer [name]: 2009305U1
Wave   ;Sample   ;Dark     ;Reference;Reflectance
[nm]   ;[counts] ;[counts] ;[counts] ;[%]

 175,72;  220,226;  219,771;  228,149; 5,42555
 176,32;  236,775;  243,540;  245,741;-307,44303
 176,92;  279,020;  279,310;  276,351; 0,00000
 177,52;  273,352;  275,694;  275,625; 0,00000
 178,12;  263,000;  247,848;  237,671; 0,00000
 178,72;  279,999;  283,232;  275,907; 0,00000
 179,32;  250,447;  273,156;  272,153; 0,00000
 179,92;  264,564;  272,771;  263,888; 0,00000
 180,52;  262,546;  246,926;  261,484;107,29732
 181,12;  279,665;  277,617;  270,726; 0,00000
 181,73;  288,254;  289,079;  292,196;-26,46994
 182,33;  407,435;  381,387;  410,818;88,50346
 182,93;  291,809;  279,771;  292,658;93,41046
 183,53;  246,735;  255,771;  247,236; 0,00000
 184,13;  252,014;  255,463;  243,066; 0,00000
 184,73;  302,767;  297,694;  297,759; 0,00000
 185,33;  276,662;  256,691;  368,500;17,86201
 185,93;  284,217;  255,075;  382,746;22,82566
 186,53;  305,390;  270,306;  409,740;25,16210
 187,13;  320,779;  286,691;  442,672;21,85368
 187,73;  288,041;  258,383;  397,569;21,30825
 188,33;  289,785;  244,459;  389,070;31,34360
 188,93;  301,641;  265,151;  389,820;29,26944
 189,53;  297,046;  255,997;  401,808;28,15213
 190,13;  332,773;  303,534;  425,453;23,98190
 190,73;  275,828;  238,612;  373,568;27,57644
 191,34;  318,472;  272,382;  412,563;32,87919
 191,94;  280,269;  245,536;  389,124;24,18928
 192,54;  296,134;  257,845;  421,882;23,34160
 193,14;  311,349;  280,999;  427,015;20,78551
 193,74;  303,013;  277,460;  416,620;18,36198
 194,34;  306,910;  266,383;  422,879;25,89651
 194,94;  267,575;  229,152;  370,509;27,18110
 195,54;  229,251;  219,768;  356,227; 6,94986
 196,14;  268,508;  237,307;  390,260;20,39923
 196,74;  272,459;  231,845;  381,671;27,10789
 197,34;  242,367;  216,922;  370,235;16,59684
 197,94;  273,517;  245,999;  399,200;17,96197
 198,54;  284,103;  248,999;  404,056;22,63928
 199,14;  259,440;  232,615;  417,339;14,52194
 199,74;  250,291;  222,076;  395,845;16,23713
 200,34;  235,249;  207,461;  420,541;13,04103
 200,94;  282,210;  248,153;  461,164;15,98844
 201,54;  249,760;  219,768;  445,273;13,29980
 202,14;  321,225;  261,153;  507,467;24,38832
 202,74;  260,605;  229,384;  505,376;11,31219
 203,34;  240,589;  209,000;  512,156;10,42028
 203,94;  224,096;  174,153;  513,305;14,72571
 204,54;  280,095;  270,153;  616,582; 2,87006
 205,14;  238,727;  206,384;  598,674; 8,24480
 205,74;  308,502;  252,230;  701,528;12,52448
 206,34;  264,046;  216,076;  694,450;10,02763
 206,94;  266,776;  233,538;  772,940; 6,16200
 207,54;  243,513;  201,692;  795,827; 7,03903
 208,14;  265,450;  213,153;  877,320; 7,87405
 208,74;  265,887;  218,845;  976,513; 6,20874
 209,34;  258,419;  217,461; 1044,418; 4,95287
 209,94;  273,235;  220,307; 1137,587; 5,77008
 210,54;  276,202;  229,692; 1220,957; 4,69202
 211,14;  297,610;  224,922; 1339,805; 6,51972
 211,73;  294,951;  232,768; 1439,199; 5,15424
 212,33;  297,821;  239,461; 1581,273; 4,34934
 212,93;  306,031;  226,307; 1645,732; 5,61665
 213,53;  274,738;  189,768; 1712,865; 5,57874
 214,13;  326,083;  218,538; 1813,622; 6,74226
 214,73;  297,379;  197,307; 1816,698; 6,17960
 215,33;  292,542;  186,538; 1864,202; 6,31859
 215,93;  335,375;  218,230; 1998,417; 6,58047
 216,53;  297,078;  188,076; 2057,055; 5,83214
 217,13;  358,340;  225,846; 2256,567; 6,52452
 217,73;  356,923;  210,538; 2464,275; 6,49522
 218,33;  335,384;  155,769; 2660,450; 7,17117
 218,93;  400,188;  201,231; 2977,546; 7,16622
 219,53;  424,620;  200,923; 3232,648; 7,37853
 220,13;  419,715;  170,769; 3524,776; 7,42234
 220,73;  461,475;  183,538; 3882,522; 7,51389
 221,32;  500,656;  205,461; 4307,282; 7,19669
 221,92;  518,064;  201,846; 4696,208; 7,03588
 222,52;  554,071;  186,307; 5149,821; 7,40935
 223,12;  599,009;  202,461; 5611,108; 7,33174
 223,72;  636,476;  205,076; 5985,691; 7,46286
 224,32;  690,531;  205,384; 6429,001; 7,79526
 224,92;  698,952;  190,538; 6682,132; 7,83188
 225,52;  756,011;  200,922; 7052,984; 8,10105
 226,12;  766,238;  195,153; 7404,550; 7,92140
 226,72;  791,085;  165,999; 7775,960; 8,21405
 227,31;  817,506;  163,307; 8103,707; 8,23886
 227,91;  892,120;  197,999; 8551,866; 8,30898
 228,51;  904,158;  185,614; 8888,848; 8,25605
 229,11;  978,091;  198,538; 9299,491; 8,56562
 229,71;  977,139;  184,230; 9632,357; 8,39223
 230,31; 1051,585;  180,769;10070,106; 8,80561
 230,91; 1084,520;  166,076;10383,471; 8,98903
 231,51; 1117,882;  165,923;10680,099; 9,05406
 232,10; 1178,733;  181,461;10992,241; 9,22479
 232,70; 1218,680;  196,460;11145,879; 9,33583
 233,30; 1281,206;  215,846;11504,976; 9,43705
 233,90; 1291,242;  186,999;11581,030; 9,69141
 234,50; 1336,554;  192,615;11706,819; 9,93503
 235,10; 1356,952;  183,769;11702,286;10,18519
 235,70; 1433,249;  204,999;11795,849;10,59672
 236,29; 1390,395;  204,461;11688,836;10,32650
 236,89; 1418,750;  172,076;11527,215;10,97894
 237,49; 1454,525;  209,922;11419,269;11,10326
 238,09; 1424,892;  185,999;11083,219;11,36889
 238,69; 1440,051;  244,230;10802,227;11,32622
 239,29; 1421,637;  197,384;10437,612;11,95533
 239,89; 1419,099;  191,076;10097,391;12,39636
 240,48; 1390,159;  177,999; 9657,197;12,78757
 241,08; 1365,504;  188,769; 9319,071;12,88824
 241,68; 1368,922;  211,384; 8946,742;13,25118
 242,28; 1308,443;  181,769; 8555,430;13,45497
 242,88; 1337,472;  230,307; 8220,974;13,85573
 243,48; 1323,520;  227,076; 7917,686;14,25692
 244,07; 1290,464;  211,615; 7674,921;14,45538
 244,67; 1317,075;  212,230; 7509,332;15,14087
 245,27; 1316,258;  209,691; 7358,738;15,47853
 245,87; 1332,755;  223,692; 7246,444;15,79243
 246,47; 1321,069;  201,691; 7259,452;15,86023
 247,06; 1333,462;  181,307; 7247,178;16,30592
 247,66; 1359,563;  192,076; 7295,913;16,43459
 248,26; 1433,534;  221,076; 7456,702;16,75678
 248,86; 1481,232;  210,691; 7654,849;17,06762
 249,46; 1506,262;  160,692; 7870,747;17,45215
 250,05; 1627,764;  206,076; 8287,338;17,59240
 250,65; 1699,388;  184,691; 8670,592;17,84956
 251,25; 1801,361;  190,692; 9157,724;17,96212
 251,85; 1956,114;  185,153; 9790,011;18,43818
 252,44; 2032,154;  164,768;10372,568;18,29371
 253,04; 2222,245;  201,768;11244,137;18,29749
 253,64; 2337,881;  150,768;12033,166;18,40633
 254,24; 2596,990;  213,922;13051,063;18,56385
 254,84; 2775,723;  196,692;14087,362;18,56665
 255,43; 3007,722;  186,461;15163,322;18,83747
 256,03; 3207,204;  195,307;16327,684;18,66989
 256,63; 3440,094;  203,922;17503,500;18,70665
 257,23; 3640,586;  178,691;18501,485;18,89392
 257,82; 3889,524;  207,383;19738,752;18,85245
 258,42; 4026,558;  159,460;20771,530;18,76132
 259,02; 4264,219;  210,307;21895,351;18,69451
 259,62; 4418,636;  183,691;22787,658;18,73541
 260,21; 4602,482;  199,845;23471,540;18,91842
 260,81; 4688,228;  187,076;24171,692;18,76683
 261,41; 4766,387;  184,383;24795,244;18,61781
 262,01; 4930,336;  216,537;25352,394;18,75328
 262,60; 4982,893;  177,307;25846,101;18,72151
 263,20; 5041,695;  185,999;26357,336;18,55349
 263,80; 5129,003;  209,152;26539,377;18,68518
 264,40; 5069,899;  176,845;26899,693;18,31038
 264,99; 5125,988;  200,537;27115,397;18,30012
 265,59; 5085,472;  186,306;27318,169;18,05687
 266,19; 5124,315;  184,229;27638,806;17,99367
 266,78; 5149,740;  232,152;27795,449;17,84107
 267,38; 5107,163;  205,998;27786,734;17,77025
 267,98; 5044,750;  185,460;27858,000;17,55997
 268,58; 5020,199;  192,691;27956,250;17,38793
 269,17; 4987,087;  183,614;28097,251;17,20834
 269,77; 4942,629;  204,383;27753,045;17,19955
 270,37; 4848,578;  169,999;27664,072;17,01668
 270,96; 4834,581;  221,076;27556,548;16,87736
 271,56; 4706,053;  189,460;27252,093;16,68940
 272,16; 4604,854;  183,845;27045,467;16,45846
 272,75; 4562,115;  184,845;27076,683;16,27732
 273,35; 4533,539;  194,307;26917,962;16,23742
 273,95; 4496,274;  191,768;26907,420;16,11230
 274,54; 4441,739;  177,999;27015,629;15,88717
 275,14; 4483,374;  222,153;27307,463;15,73259
 275,74; 4391,761;  163,537;27402,309;15,52282
 276,33; 4463,952;  221,999;27818,973;15,37108
 276,93; 4470,507;  200,230;28216,347;15,24221
 277,53; 4476,708;  186,999;28790,573;14,99711
 278,12; 4585,010;  179,384;29422,405;15,06557
 278,72; 4728,288;  256,461;29999,620;15,03481
 279,32; 4767,637;  188,076;30643,053;15,03715
 279,91; 4853,331;  164,768;31454,796;14,98421
 280,51; 4983,466;  195,461;32138,689;14,98911
 281,11; 5121,060;  194,076;32882,543;15,07254
 281,70; 5107,732;  177,691;33380,826;14,84812
 282,30; 5285,361;  181,999;34137,863;15,02940
 282,90; 5350,761;  183,307;34486,022;15,06427
 283,49; 5474,313;  198,153;35030,161;15,14745
 284,09; 5640,758;  222,153;35639,099;15,29947
 284,69; 5685,725;  226,230;36006,782;15,25827
 285,28; 5793,138;  206,076;36449,516;15,41537
 285,88; 5933,177;  253,999;36743,165;15,56401
 286,47; 5972,833;  194,922;36914,823;15,73509
 287,07; 6102,940;  222,153;36890,777;16,03765
 287,67; 6201,213;  210,769;36997,225;16,28437
 288,26; 6286,587;  188,691;36908,480;16,60656
 288,86; 6425,358;  184,153;37041,094;16,93360
 289,46; 6615,187;  202,384;37122,731;17,36929
 290,05; 6752,664;  190,768;37212,064;17,72465
 290,65; 6947,275;  187,384;37404,337;18,16347
 291,24; 7116,457;  198,691;37559,548;18,51608
 291,84; 7349,401;  211,691;37792,731;18,99285
 292,44; 7518,232;  204,076;37806,095;19,45150
 293,03; 7770,898;  272,230;38112,576;19,81660
 293,63; 7873,874;  184,768;38158,999;20,24822
 294,22; 8012,234;  217,153;38465,208;20,38033
 294,82; 8203,504;  199,152;38413,271;20,94606
 295,41; 8222,424;  174,922;38100,288;21,21931
 296,01; 8373,004;  222,999;38054,602;21,54285
 296,61; 8361,970;  224,230;37819,916;21,64541
 297,20; 8254,039;  192,691;37410,939;21,65966
 297,80; 8315,795;  213,615;37207,272;21,90154
 298,39; 8194,191;  177,845;36779,473;21,90161
 298,99; 8264,852;  224,537;36504,955;22,16158
 299,58; 8202,686;  211,384;36385,903;22,09097
 300,18; 8196,540;  223,845;36189,895;22,16728
 300,78; 8143,840;  190,999;35786,113;22,34251
 301,37; 8088,979;  217,845;35795,718;22,12368
 301,97; 8093,915;  215,768;35728,247;22,18417
 302,56; 7983,992;  198,153;35633,201;21,97214
 303,16; 8005,127;  180,922;35521,202;22,13962
 303,75; 7979,655;  195,768;35645,924;21,95727
 304,35; 8008,830;  177,153;35901,168;21,92272
 304,94; 8004,443;  194,384;35809,440;21,92910
 305,54; 7975,272;  215,384;35790,205;21,81286
 306,13; 7917,322;  159,923;35769,307;21,78470
 306,73; 7862,094;  171,769;35488,947;21,77503
 307,33; 7858,239;  207,922;35499,114;21,67769
 307,92; 7857,555;  208,076;35472,060;21,69204
 308,52; 7982,174;  183,768;35997,217;21,77508
 309,11; 8038,025;  193,922;36580,985;21,55740
 309,71; 8038,049;  193,768;36923,367;21,35684
 310,30; 8074,601;  189,999;37166,229;21,32343
 310,90; 8197,909;  235,153;37523,690;21,35443
 311,49; 8135,069;  205,384;37627,068;21,19008
 312,09; 8153,889;  172,999;37837,225;21,18957
 312,68; 8328,123;  256,615;38261,788;21,23792
 313,28; 8264,401;  174,230;38357,983;21,18747
 313,87; 8290,591;  164,691;38582,601;21,15133
 314,47; 8316,444;  190,845;38858,912;21,01372
 315,06; 8305,503;  175,230;38948,769;20,96861
 315,66; 8272,889;  181,845;39296,994;20,68519
 316,25; 8232,352;  161,153;39194,747;20,67757
 316,85; 8157,914;  159,307;39253,935;20,45961
 317,44; 8205,999;  184,306;39342,788;20,48520
 318,04; 8190,725;  173,384;39360,659;20,45904
 318,63; 8153,576;  162,769;39407,073;20,36170
 319,22; 8185,865;  196,076;39719,782;20,21518
 319,82; 8136,323;  183,614;39730,450;20,10960
 320,41; 8093,433;  209,537;39651,459;19,98862
 321,01; 8012,966;  209,461;39752,251;19,73433
 321,60; 8034,312;  196,537;39803,104;19,78908
 322,20; 7959,467;  176,076;39745,945;19,66999
 322,79; 7983,370;  216,999;39971,896;19,53563
 323,39; 7918,118;  177,538;40024,528;19,42576
 323,98; 7848,656;  175,922;39925,667;19,30260
 324,58; 7842,810;  184,768;39865,267;19,29926
 325,17; 7764,131;  189,999;39682,837;19,17850
 325,76; 7732,853;  207,230;39524,457;19,14078
 326,36; 7630,828;  174,768;39152,948;19,12880
 326,95; 7538,958;  216,999;38741,782;19,00584
 327,55; 7457,277;  185,537;38407,921;19,02482
 328,14; 7367,138;  178,922;37999,070;19,00631
 328,74; 7271,603;  200,153;37482,233;18,96742
 329,33; 7131,398;  197,922;37120,343;18,77850
 329,92; 7015,937;  175,845;36541,640;18,80914
 330,52; 6865,651;  202,538;35733,028;18,75323
 331,11; 6766,102;  193,384;35278,308;18,73374
 331,71; 6634,254;  188,307;34626,488;18,71744
 332,30; 6480,828;  207,999;34111,748;18,50187
 332,89; 6420,788;  271,076;33590,336;18,45693
 333,49; 6293,209;  194,999;32891,370;18,65103
 334,08; 6135,795;  190,845;32377,026;18,47050
 334,68; 6045,933;  187,614;32014,251;18,40697
 335,27; 5982,218;  200,307;31590,987;18,41920
 335,86; 5984,794;  250,076;31383,154;18,42002
 336,46; 5865,516;  204,153;31029,334;18,36603
 337,05; 5741,369;  189,461;30668,132;18,21572
 337,65; 5720,646;  164,307;30603,070;18,25416
 338,24; 5773,133;  230,999;30615,595;18,23995
 338,83; 5723,794;  217,384;30467,662;18,20284
 339,43; 5683,342;  186,076;30397,710;18,19586
 340,02; 5693,937;  195,845;30321,455;18,25056
 340,61; 5757,560;  201,307;30458,950;18,36314
 341,21; 5746,064;  212,999;30340,233;18,36566
 341,80; 5710,831;  187,384;30267,619;18,36238
 342,40; 5755,927;  192,769;30458,094;18,38129
 342,99; 5809,249;  190,999;30621,566;18,46252
 343,58; 5803,936;  189,692;30725,189;18,38596
 344,18; 5881,279;  205,999;30926,295;18,47404
 344,77; 5956,645;  189,768;31194,614;18,59992
 345,36; 6008,343;  169,537;31564,012;18,59819
 345,96; 6167,131;  219,768;31833,673;18,81249
 346,55; 6159,107;  170,769;32170,183;18,71390
 347,14; 6238,065;  183,538;32575,474;18,69147
 347,74; 6373,900;  157,846;33028,042;18,91091
 348,33; 6544,932;  180,923;33826,154;18,91504
 348,92; 6698,199;  205,308;34430,178;18,97127
 349,52; 6790,417;  164,615;34951,480;19,04685
 350,11; 6876,379;  185,845;35192,354;19,11226
 350,70; 6898,190;  180,615;35339,648;19,10626
 351,29; 6861,314;  169,383;35006,042;19,20945
 351,89; 6952,928;  202,922;35091,627;19,34725
 352,48; 6972,437;  169,999;35147,268;19,44817
 353,07; 7006,110;  206,461;35033,208;19,52422
 353,67; 6969,024;  204,923;34949,565;19,46804
 354,26; 6945,086;  201,307;34808,524;19,48663
 354,85; 6946,052;  203,153;34516,545;19,65093
 355,45; 6906,832;  167,230;34307,183;19,74110
 356,04; 6915,300;  182,846;34215,160;19,78253
 356,63; 6945,178;  234,691;34031,513;19,85538
 357,22; 6919,901;  193,614;33824,077;20,00058
 357,82; 6917,689;  197,152;33639,051;20,09616
 358,41; 6946,536;  221,461;33568,368;20,16701
 359,00; 6888,824;  178,153;33297,760;20,26193
 359,60; 6960,574;  197,384;33273,930;20,44709
 360,19; 6952,955;  215,461;33107,234;20,48383
 360,78; 6929,528;  189,537;32871,971;20,62267
 361,37; 6911,610;  193,461;32696,708;20,66916
 361,97; 6975,906;  210,307;32520,543;20,93949
 362,56; 6942,354;  191,307;32201,491;21,09031
 363,15; 6993,960;  258,537;31875,986;21,30286
 363,74; 6865,931;  189,537;31578,698;21,26974
 364,34; 6837,183;  225,153;31136,896;21,39003
 364,93; 6724,432;  197,768;30611,516;21,45958
 365,52; 6674,487;  167,768;30252,923;21,62767
 366,11; 6676,844;  203,307;29846,040;21,83853
 366,71; 6628,942;  188,230;29394,166;22,05275
 367,30; 6520,609;  195,384;29033,298;21,93371
 367,89; 6596,642;  238,307;28743,451;22,30592
 368,48; 6522,171;  207,306;28354,018;22,43553
 369,07; 6424,267;  195,153;27881,417;22,49893
 369,67; 6432,155;  216,383;27573,988;22,72045
 370,26; 6347,354;  180,922;27244,891;22,78466
 370,85; 6303,928;  192,999;26939,335;22,84772
 371,44; 6309,014;  206,384;26642,014;23,08487
 372,03; 6261,126;  176,460;26437,561;23,16988
 372,63; 6225,830;  172,153;26061,876;23,38255
 373,22; 6196,965;  188,230;25676,794;23,57424
 373,81; 6139,061;  170,845;25388,132;23,66716
 374,40; 6131,928;  181,230;25135,197;23,84670
 374,99; 6095,550;  192,922;24805,815;23,98185
 375,59; 6049,431;  171,538;24398,937;24,26135
 376,18; 6086,734;  216,999;24328,954;24,34367
 376,77; 6100,798;  215,307;24058,225;24,68444
 377,36; 6100,866;  227,768;24006,263;24,69920
 377,95; 6080,259;  214,076;23762,102;24,91157
 378,55; 6030,582;  186,922;23508,635;25,05673
 379,14; 6073,307;  209,153;23452,060;25,22987
 379,73; 6056,346;  208,537;23303,883;25,32029
 380,32; 6118,926;  196,461;23346,208;25,58328
 380,91; 6140,396;  180,460;23182,102;25,91092
 381,50; 6150,128;  203,307;23152,689;25,91277
 382,10; 6151,080;  189,691;23019,746;26,11202
 382,69; 6133,092;  158,461;23001,834;26,15477
 383,28; 6252,650;  220,307;22925,274;26,56839
 383,87; 6190,609;  188,230;22754,175;26,59928
 384,46; 6229,334;  174,845;22715,959;26,85976
 385,05; 6317,569;  222,230;22649,024;27,17883
 385,64; 6314,690;  194,922;22646,501;27,25763
 386,24; 6342,863;  173,614;22580,639;27,53265
 386,83; 6403,166;  210,922;22672,004;27,56877
 387,42; 6482,546;  206,999;22777,744;27,80390
 388,01; 6580,142;  207,691;22951,505;28,01839
 388,60; 6702,415;  197,537;23243,362;28,22584
 389,19; 6766,745;  189,998;23547,786;28,15655
 389,78; 6926,327;  192,460;23744,571;28,59135
 390,37; 7168,112;  262,614;24276,668;28,75607
 390,96; 7218,720;  206,845;24474,830;28,89352
 391,56; 7323,394;  207,690;24645,718;29,11734
 392,15; 7449,669;  194,691;24963,960;29,29024
 392,74; 7517,107;  163,305;25106,085;29,48269
 393,33; 7715,195;  197,767;25491,061;29,72103
 393,92; 7861,153;  212,613;25900,901;29,77443
 394,51; 7963,898;  183,460;26149,483;29,96392
 395,10; 8139,615;  232,382;26382,711;30,23761
 395,69; 8232,018;  219,459;26497,146;30,49188
 396,28; 8318,401;  217,689;26669,156;30,62481
 396,87; 8394,933;  220,150;26833,025;30,71740
 397,46; 8539,887;  218,150;26835,225;31,26465
 398,06; 8702,052;  237,996;27104,067;31,50463
 398,65; 8714,065;  214,456;27131,950;31,57652
 399,24; 8893,270;  234,071;27367,810;31,91303
 399,83; 8933,877;  214,762;27381,325;32,09502
 400,42; 9073,360;  264,761;27607,435;32,21557
 401,01; 9170,152;  246,452;27702,448;32,50183
 401,60; 9202,980;  247,450;27765,454;32,54426
 402,19; 9277,775;  273,987;27599,183;32,95050
 402,78; 9281,893;  272,523;27634,687;32,92638
 403,37; 9297,577;  255,290;27482,766;33,21015
 403,96; 9340,303;  262,134;27346,365;33,51828
 404,55; 9303,063;  280,362;27213,131;33,50083
 405,14; 9222,903;  248,128;27050,732;33,48471
 405,73; 9286,710;  266,356;26942,545;33,81426
 406,32; 9305,764;  287,200;26916,383;33,86722
 406,91; 9224,822;  258,428;26636,865;33,99138
 407,50; 9227,727;  276,812;26380,646;34,28966
 408,09; 9199,056;  247,888;26025,131;34,72508
 408,68; 9150,121;  270,579;25939,191;34,59300
 409,27; 9116,778;  262,119;25718,546;34,78359
 409,86; 9114,957;  263,197;25627,174;34,89894
 410,45; 9199,047;  302,584;25499,185;35,30819
 411,04; 9147,126;  302,354;25373,826;35,27823
 411,63; 9104,395;  288,818;25135,891;35,47934
 412,22; 9018,737;  291,820;24946,198;35,39703
 412,81; 9009,147;  299,282;24612,092;35,82418
 413,40; 8895,946;  317,283;24232,821;35,87067
 413,99; 8828,837;  359,360;23878,514;36,01098
 414,58; 8683,785;  282,898;23329,423;36,45186
 415,17; 8591,152;  291,436;23186,829;36,25059
 415,76; 8543,611;  283,051;22974,676;36,40356
 416,35; 8470,722;  277,128;22780,157;36,41107
 416,94; 8555,149;  303,128;22785,030;36,70517
 417,53; 8599,212;  278,359;23066,312;36,51426
 418,12; 8687,391;  282,436;23078,298;36,87053
 418,71; 8922,694;  308,898;23475,054;37,18267
 419,30; 8947,266;  282,129;23620,155;37,12883
 419,89; 9043,123;  273,590;23800,085;37,27513
 420,48; 9182,643;  318,206;24095,378;37,28129
 421,07; 9267,669;  300,899;24293,006;37,37383
 421,66; 9285,277;  259,284;24241,823;37,63569
 422,25; 9296,629;  284,746;24288,691;37,54334
 422,84; 9338,470;  309,361;24273,693;37,67728
 423,43; 9225,183;  287,900;23908,650;37,83658
 424,02; 9196,747;  314,592;23670,893;38,02895
 424,60; 9024,730;  269,516;23210,042;38,16484
 425,19; 8952,421;  306,208;22876,340;38,30821
 425,78; 8892,302;  304,516;22764,882;38,23529
 426,37; 8842,512;  307,285;22590,848;38,30279
 426,96; 8821,979;  297,285;22472,585;38,44229
 427,55; 8771,645;  280,286;22280,373;38,59694
 428,14; 8682,669;  279,594;22069,924;38,56332
 428,73; 8579,005;  281,132;21847,258;38,47642
 429,32; 8643,227;  306,593;21796,025;38,79411
 429,91; 8643,522;  313,132;21797,183;38,77477
 430,50; 8618,535;  304,132;21558,979;39,11768
 431,08; 8546,276;  311,363;21445,445;38,96508
 431,67; 8590,063;  364,132;21350,696;39,19618
 432,26; 8548,435;  383,825;21199,730;39,22294
 432,85; 8409,192;  397,210;20759,725;39,34672
 433,44; 8281,494;  420,902;20388,439;39,36686
 434,03; 8143,382;  425,595;20017,318;39,39310
 434,62; 7942,262;  383,133;19500,106;39,54145
 435,21; 7872,913;  403,363;19234,453;39,66605
 435,79; 7770,644;  391,749;19066,589;39,51249
 436,38; 7766,081;  387,288;18952,505;39,74526
 436,97; 7747,915;  382,518;18879,955;39,81847
 437,56; 7621,053;  377,750;18603,802;39,74148
 438,15; 7580,351;  364,365;18487,436;39,81657
 438,74; 7630,323;  385,981;18530,497;39,92579
 439,33; 7623,623;  341,673;18509,407;40,08178
 439,91; 7618,398;  305,442;18649,569;39,86538
 440,50; 7677,766;  345,212;18701,692;39,94532
 441,09; 7768,308;  354,520;18795,163;40,20353
 441,68; 7736,804;  334,212;18696,465;40,31418
 442,27; 7713,358;  331,597;18725,116;40,13240
 442,86; 7741,542;  304,059;18709,845;40,40839
 443,44; 7758,419;  325,521;18797,655;40,23844
 444,03; 7862,054;  403,905;18893,725;40,33651
 444,62; 7775,110;  327,982;18702,291;40,53011
 445,21; 7678,421;  326,059;18535,085;40,37757
 445,80; 7619,196;  358,060;18427,062;40,18560
 446,39; 7580,927;  400,059;18168,193;40,41430
 446,97; 7430,034;  327,368;17983,599;40,22753
 447,56; 7306,237;  319,368;17715,751;40,16277
 448,15; 7234,547;  330,522;17478,966;40,26036
 448,74; 7185,756;  339,906;17225,173;40,54333
 449,33; 7093,378;  329,599;17093,669;40,34688
 449,91; 7012,763;  335,368;16778,294;40,60953
 450,50; 6942,197;  328,522;16543,308;40,78793
 451,09; 6851,698;  338,676;16409,895;40,52600
 451,68; 6830,467;  361,061;16271,224;40,66210
 452,26; 6777,860;  357,369;16176,718;40,58632
 452,85; 6689,100;  335,907;16118,659;40,25402
 453,44; 6714,804;  344,369;16050,676;40,55973
 454,03; 6702,800;  320,292;16117,487;40,40279
 454,61; 6708,008;  333,908;15999,608;40,68826
 455,20; 6769,520;  346,293;16255,124;40,37523
 455,79; 6792,028;  356,831;16239,150;40,51800
 456,38; 6793,314;  364,139;16282,465;40,38851
 456,97; 6830,030;  342,678;16385,616;40,43744
 457,55; 6825,504;  339,985;16382,719;40,42652
 458,14; 6811,684;  365,677;16357,900;40,30713
 458,73; 6774,708;  360,370;16309,190;40,21826
 459,31; 6810,589;  378,601;16377,517;40,20265
 459,90; 6877,559;  403,678;16379,665;40,52257
 460,49; 6953,573;  457,832;16555,727;40,35149
 461,08; 6845,932;  356,063;16622,285;39,89783
 461,66; 6888,077;  356,294;16673,790;40,02932
 462,25; 6979,532;  359,679;16769,095;40,34180
 462,84; 6971,674;  380,294;16852,140;40,01604
 463,43; 6942,268;  327,602;16714,947;40,36447
 464,01; 6901,088;  356,371;16813,258;39,76886
 464,60; 6983,898;  406,679;16730,265;40,29273
 465,19; 6755,146;  335,833;16538,152;39,61972
 465,77; 6800,309;  351,449;16523,185;39,87735
 466,36; 6745,211;  391,371;16351,535;39,81062
 466,95; 6596,707;  362,217;16045,231;39,75314
 467,53; 6492,087;  367,910;15694,808;39,95705
 468,12; 6374,762;  407,680;15350,675;39,93230
 468,71; 6226,160;  374,910;15071,491;39,81368
 469,29; 6098,375;  352,449;14823,470;39,70643
 469,88; 5915,186;  357,218;14545,154;39,17390
 470,47; 6023,565;  420,296;14656,407;39,35955
 471,06; 5950,251;  383,450;14628,107;39,07993
 471,64; 5994,219;  374,219;14706,154;39,21313
 472,23; 5945,807;  348,989;14716,809;38,95385
 472,81; 5991,536;  344,527;14821,002;39,00818
 473,40; 6019,740;  360,296;14955,052;38,77724
 473,99; 6181,012;  479,835;15247,766;38,60512
 474,57; 6139,131;  366,066;15304,583;38,64550
 475,16; 6154,626;  385,296;15526,392;38,10378
 475,75; 6236,374;  407,527;15668,379;38,19477
 476,33; 6275,647;  389,682;15751,929;38,31448
 476,92; 6238,015;  394,143;15763,606;38,02262
 477,51; 6241,867;  400,912;15871,820;37,75444
 478,09; 6285,718;  396,758;15891,249;38,00680
 478,68; 6228,160;  408,681;15775,835;37,86960
 479,27; 6193,117;  417,681;15881,721;37,34752
 479,85; 6160,956;  397,835;15844,108;37,31075
 480,44; 6247,244;  384,374;15946,053;37,67505
 481,02; 6621,837;  401,297;17286,127;36,84099
 481,61; 7461,204;  427,220;19623,948;36,64158
 482,20; 7926,554;  402,759;21085,914;36,37644
 482,78; 8253,553;  430,835;21954,642;36,34449
 483,37; 8486,374;  426,067;22596,938;36,35539
 483,95; 8580,848;  467,682;22944,483;36,09573
 484,54; 8659,154;  469,528;23172,093;36,07357
 485,13; 8571,988;  424,144;23124,287;35,89336
 485,71; 8476,930;  411,144;22818,856;35,99558
 486,30; 8383,396;  465,683;22565,285;35,82740
 486,88; 8288,511;  504,760;22140,077;35,97706
 487,47; 7945,011;  466,067;21368,715;35,77989
 488,05; 7569,705;  464,914;20435,710;35,57590
 488,64; 7048,404;  454,068;18991,667;35,57276
 489,23; 6396,661;  473,221;17028,381;35,78002
 489,81; 5471,587;  461,068;14526,734;35,62234
 490,40; 5139,898;  440,991;13733,035;35,35127
 490,98; 4992,176;  404,222;13483,353;35,07844
 491,57; 4934,727;  431,221;13319,087;34,94376
 492,15; 4882,134;  399,299;13245,665;34,89575
 492,74; 4817,319;  414,683;13120,992;34,64921
 493,32; 4801,659;  428,222;12954,813;34,91323
 493,91; 4727,868;  403,530;12888,143;34,63734
 494,50; 4704,642;  408,992;12847,480;34,53515
 495,08; 4626,125;  388,915;12763,401;34,24151
 495,67; 4644,203;  412,837;12789,826;34,18736
 496,25; 4525,845;  363,530;12637,756;33,91102
 496,84; 4512,475;  361,760;12601,489;33,91182
 497,42; 4477,781;  371,991;12562,506;33,68020
 498,01; 4483,155;  400,914;12465,940;33,83533
 498,59; 4362,754;  356,145;12409,745;33,23993
 499,18; 4354,390;  343,606;12340,882;33,43079
 499,76; 4320,640;  378,837;12280,311;33,12029
 500,35; 4240,059;  361,146;12071,485;33,12384
 500,93; 4186,863;  352,376;12000,883;32,91827
 501,52; 4157,805;  353,068;11926,651;32,87432
 502,10; 4101,509;  370,453;11898,468;32,36512
 502,69; 4044,863;  353,300;11710,581;32,50393
 503,27; 3933,406;  335,761;11464,256;32,32823
 503,86; 3915,291;  355,377;11364,448;32,33619
 504,44; 3848,716;  325,146;11265,671;32,20659
 505,03; 3760,814;  321,761;11008,413;32,18082
 505,61; 3679,513;  351,300;10841,379;31,72725
 506,19; 3633,553;  353,838;10664,889;31,80776
 506,78; 3554,700;  333,531;10486,963;31,72493
 507,36; 3462,102;  329,761;10248,081;31,58136
 507,95; 3427,239;  341,531;10076,317;31,69774
 508,53; 3349,962;  335,069; 9980,666;31,25667
 509,12; 3291,641;  331,377; 9830,527;31,16346
 509,70; 3258,510;  355,839; 9687,006;31,10726
 510,29; 3190,099;  367,839; 9511,395;30,86611
 510,87; 3101,075;  319,454; 9273,182;31,06662
 511,46; 3016,380;  314,454; 9087,952;30,79645
 512,04; 2969,728;  323,993; 8935,610;30,72286
 512,62; 2936,924;  336,608; 8793,766;30,74692
 513,21; 2827,401;  313,685; 8608,556;30,30446
 513,79; 2778,204;  320,224; 8477,134;30,13371
 514,38; 2728,836;  309,839; 8319,811;30,19981
 514,96; 2704,734;  350,455; 8173,896;30,09263
 515,54; 2611,264;  303,147; 8027,878;29,87957
 516,13; 2569,965;  332,301; 7919,173;29,49390
 516,71; 2534,804;  322,532; 7769,944;29,70524
 517,30; 2489,834;  298,071; 7663,719;29,75655
 517,88; 2443,034;  328,378; 7554,196;29,26528
 518,46; 2370,108;  307,225; 7372,864;29,19599
 519,05; 2359,646;  313,686; 7362,833;29,02422
 519,63; 2334,567;  330,609; 7289,941;28,79526
 520,22; 2302,428;  341,764; 7235,244;28,44230
 520,80; 2269,971;  329,456; 7171,494;28,36165
 521,38; 2291,476;  368,225; 7145,341;28,37861
 521,97; 2218,740;  314,610; 7036,002;28,32940
 522,55; 2187,371;  333,764; 7019,392;27,72525
 523,13; 2174,962;  310,072; 7017,292;27,80422
 523,72; 2144,001;  324,763; 6992,802;27,28295
 524,30; 2207,896;  343,149; 7161,991;27,34697
 524,89; 2174,821;  304,225; 7158,944;27,28917
 525,47; 2195,273;  326,610; 7275,563;26,89129
 526,05; 2168,225;  295,303; 7303,368;26,72525
 526,64; 2192,028;  339,841; 7421,475;26,15479
 527,22; 2238,863;  332,072; 7546,546;26,43008
 527,80; 2275,551;  367,457; 7670,496;26,12741
 528,39; 2226,798;  329,149; 7770,418;25,50169
 528,97; 2268,344;  320,226; 7948,770;25,53722
 529,55; 2306,618;  343,072; 8102,468;25,30540
 530,14; 2377,421;  343,303; 8349,431;25,40702
 530,72; 2374,118;  320,149; 8430,507;25,32526
 531,30; 2383,964;  313,226; 8595,835;25,00103
 531,89; 2402,154;  335,995; 8704,659;24,68923
 532,47; 2448,177;  361,995; 8766,677;24,82166
 533,05; 2420,931;  344,457; 8865,220;24,36958
 533,63; 2457,421;  346,611; 8907,247;24,65717
 534,22; 2425,406;  331,995; 8954,319;24,27896
 534,80; 2454,424;  358,457; 9062,031;24,08168
 535,38; 2548,106;  462,380; 9153,311;23,99888
 535,97; 2443,761;  339,303; 9073,282;24,09506
 536,55; 2476,833;  404,688; 9141,176;23,71828
 537,13; 2468,334;  389,765; 9117,163;23,81660
 537,71; 2508,253;  442,841; 9165,067;23,67987
 538,30; 2501,218;  462,534; 9232,078;23,24732
 538,88; 2545,848;  507,150; 9329,741;23,10771
 539,46; 2589,747;  566,765; 9580,882;22,44238
 540,05; 2622,020;  568,457; 9683,822;22,52858
 540,63; 2713,625;  635,150; 9859,938;22,53141
 541,21; 2741,538;  678,765;10079,126;21,94355
 541,79; 2782,805;  715,458;10197,104;21,80367
 542,38; 2814,246;  737,842;10344,572;21,61406
 542,96; 2824,234;  758,535;10519,960;21,16187
 543,54; 2881,247;  798,765;10726,772;20,97583
 544,12; 2904,106;  755,611;10843,624;21,29750
 544,70; 2906,557;  724,150;11007,017;21,22372
 545,29; 2951,041;  743,919;11143,051;21,22410
 545,87; 2911,189;  728,227;11130,642;20,98515
 546,45; 2861,908;  662,688;11209,510;20,85197
 547,03; 2897,402;  636,381;11320,207;21,16303
 547,62; 2872,132;  623,458;11427,589;20,81310
 548,20; 2898,251;  612,458;11616,914;20,77152
 548,78; 2875,466;  570,612;11702,509;20,70496
 549,36; 2895,740;  527,843;11946,813;20,73652
 549,94; 2896,217;  497,458;12052,705;20,75905
 550,53; 2940,855;  508,535;12297,713;20,63180
 551,11; 2924,207;  456,843;12500,467;20,48689
 551,69; 2985,037;  475,766;12827,954;20,31439
 552,27; 2991,028;  425,843;13101,127;20,23769
 552,85; 3027,048;  448,612;13394,807;19,91656
 553,44; 3067,474;  427,920;13822,091;19,70674
 554,02; 3149,743;  442,997;14171,037;19,71692
 554,60; 3153,344;  393,381;14486,437;19,58385
 555,18; 3256,391;  425,074;14833,252;19,65077
 555,76; 3282,225;  405,227;15243,010;19,38967
 556,34; 3379,841;  409,689;15644,974;19,49522
 556,93; 3421,749;  403,689;16067,825;19,26733
 557,51; 3439,118;  383,535;16371,271;19,11204
 558,09; 3511,303;  398,458;16823,753;18,95153
 558,67; 3563,380;  398,228;17286,405;18,74182
 559,25; 3633,085;  418,612;17511,134;18,80631
 559,83; 3654,986;  395,459;17784,310;18,74493
 560,41; 3723,566;  382,228;18174,419;18,77980
 561,00; 3761,267;  388,459;18549,965;18,57119
 561,58; 3780,977;  386,920;18843,923;18,38899
 562,16; 3835,576;  366,920;19166,616;18,45060
 562,74; 3844,574;  373,689;19516,263;18,13175
 563,32; 3940,981;  366,920;19976,496;18,22610
 563,90; 4021,785;  393,228;20355,223;18,17733
 564,48; 4043,984;  394,535;20778,172;17,90381
 565,06; 4143,494;  391,536;21432,254;17,83189
 565,65; 4279,979;  395,074;22141,774;17,86434
 566,23; 4442,559;  434,689;22974,729;17,78111
 566,81; 4507,003;  376,459;23711,474;17,70106
 567,39; 4702,354;  395,920;24759,639;17,67560
 567,97; 4790,746;  414,305;25391,636;17,52165
 568,55; 4997,587;  438,151;26242,638;17,66916
 569,13; 5068,605;  396,997;26996,642;17,56267
 569,71; 5230,263;  395,612;28048,187;17,48355
 570,29; 5455,647;  443,304;29185,115;17,43920
 570,87; 5554,326;  421,920;29874,540;17,42598
 571,45; 5685,370;  415,228;30608,162;17,45489
 572,03; 5692,506;  384,228;31075,127;17,29594
 572,61; 5802,562;  374,305;31880,467;17,22919
 573,20; 5934,820;  404,074;32506,591;17,22839
 573,78; 6014,848;  400,690;33253,931;17,08860
 574,36; 6124,399;  415,382;33783,096;17,10940
 574,94; 6189,658;  476,767;34244,999;16,91795
 575,52; 6175,746;  404,998;34467,360;16,94172
 576,10; 6310,196;  470,075;35097,174;16,86575
 576,68; 6339,752;  458,382;35679,516;16,69841
 577,26; 6489,609;  484,459;36378,436;16,73024
 577,84; 6507,511;  486,382;36892,663;16,53871
 578,42; 6619,815;  533,305;37334,737;16,53878
 579,00; 6559,484;  480,536;37432,211;16,45108
 579,58; 6570,607;  553,613;37662,247;16,21454
 580,16; 6446,675;  476,459;37643,229;16,06332
 580,74; 6515,577;  493,382;37934,462;16,08446
 581,32; 6452,980;  504,997;37941,953;15,88800
 581,90; 6449,188;  534,074;37886,443;15,83598
 582,48; 6420,849;  493,074;37978,125;15,81370
 583,06; 6379,212;  513,997;38082,748;15,61195
 583,64; 6368,540;  506,690;38192,977;15,55433
 584,22; 6318,770;  520,921;38007,018;15,46666
 584,80; 6189,784;  520,382;37699,803;15,24876
 585,38; 6084,042;  535,689;37182,143;15,14022
 585,96; 6021,113;  507,074;37303,319;14,98533
 586,54; 6005,807;  532,998;37289,585;14,88933
 587,12; 5950,939;  489,151;37378,362;14,80592
 587,70; 5971,861;  525,536;37591,860;14,69346
 588,28; 5911,473;  495,921;37551,010;14,61487
 588,86; 5893,845;  504,767;37577,998;14,53631
 589,44; 5845,481;  485,998;37621,756;14,43214
 590,02; 5813,556;  485,229;37828,018;14,26869
 590,59; 5821,244;  469,767;38066,568;14,23386
 591,17; 5804,963;  471,306;38207,667;14,13400
 591,75; 5792,821;  456,767;38259,068;14,11568
 592,33; 5836,275;  472,075;38548,440;14,08800
 592,91; 5823,156;  430,306;38785,336;14,06035
 593,49; 5843,766;  450,768;39131,722;13,94226
 594,07; 5863,125;  458,845;39328,397;13,90364
 594,65; 5856,924;  467,844;39295,967;13,87932
 595,23; 5889,412;  461,459;39631,748;13,85732
 595,81; 5867,815;  455,690;39849,567;13,73849
 596,39; 5868,214;  436,229;40000,163;13,72964
 596,97; 5807,115;  434,844;40186,852;13,51446
 597,55; 5805,404;  439,536;40022,171;13,55612
 598,12; 5754,400;  401,845;40086,465;13,48773
 598,70; 5740,754;  424,691;40277,126;13,33937
 599,28; 5776,507;  444,075;40389,814;13,34919
 599,86; 5776,934;  403,537;40383,784;13,44013
 600,44; 5699,264;  389,768;40502,725;13,23636
 601,02; 5752,401;  457,153;40608,070;13,18836
 601,60; 5727,615;  418,152;40572,547;13,22262
 602,18; 5676,308;  402,075;40485,408;13,15817
 602,75; 5647,452;  397,075;40660,796;13,03997
 603,33; 5704,471;  416,460;40658,067;13,14066
 603,91; 5628,954;  415,229;40632,465;12,96391
 604,49; 5639,348;  426,075;40747,359;12,92933
 605,07; 5633,277;  434,844;40712,639;12,90645
 605,65; 5639,002;  442,306;40838,536;12,86431
 606,23; 5652,640;  508,536;40918,939;12,72965
 606,80; 5626,488;  561,460;41046,312;12,51092
 607,38; 5625,977;  613,922;41016,796;12,40519
 607,96; 5648,231;  664,921;41122,834;12,31727
 608,54; 5699,961;  717,229;41174,129;12,31615
 609,12; 5683,241;  719,844;41189,923;12,26436
 609,70; 5614,078;  760,537;41228,311;11,99360
 610,27; 5604,094;  774,229;41232,556;11,93788
 610,85; 5597,642;  797,229;41492,430;11,79602
 611,43; 5595,195;  795,768;41461,077;11,80226
 612,01; 5506,637;  757,844;41113,262;11,76742
 612,59; 5528,596;  760,075;41165,492;11,80169
 613,16; 5473,426;  706,690;41118,502;11,79540
 613,74; 5467,225;  702,998;40902,446;11,85147
 614,32; 5416,432;  651,768;40911,449;11,83483
 614,90; 5396,183;  595,921;40757,891;11,95226
 615,48; 5296,809;  535,998;40502,990;11,91186
 616,05; 5230,361;  511,305;40439,642;11,81881
 616,63; 5193,989;  513,998;40223,755;11,78549
 617,21; 5202,458;  502,767;40103,276;11,86775
 617,79; 5147,758;  488,152;39992,592;11,79514
 618,36; 5145,006;  495,152;40032,078;11,76079
 618,94; 5070,080;  426,690;39583,602;11,85842
 619,52; 5014,726;  456,998;39402,028;11,70298
 620,10; 5005,344;  437,998;39260,709;11,76462
 620,67; 4996,897;  449,998;39154,750;11,74765
 621,25; 4968,595;  473,229;39028,959;11,65940
 621,83; 4930,793;  436,459;39019,036;11,64861
 622,41; 4972,357;  486,459;38998,617;11,64800
 622,98; 4895,887;  453,998;38655,738;11,62745
 623,56; 4896,724;  451,459;38689,752;11,62517
 624,14; 4866,408;  436,383;38565,257;11,61856
 624,72; 4854,865;  423,075;38417,376;11,66435
 625,29; 4831,862;  413,228;38549,823;11,58634
 625,87; 4866,568;  452,075;38466,768;11,61260
 626,45; 4787,495;  417,690;38324,418;11,52778
 627,02; 4790,603;  413,921;38215,566;11,57802
 627,60; 4760,854;  397,614;38124,708;11,56527
 628,18; 4727,626;  398,613;38188,077;11,45561
 628,76; 4715,019;  383,921;38171,663;11,46165
 629,33; 4735,257;  422,305;38249,420;11,40175
 629,91; 4713,574;  401,306;38177,171;11,41541
 630,49; 4755,181;  425,075;38312,394;11,42891
 631,06; 4769,249;  399,536;38459,946;11,48099
 631,64; 4721,935;  407,536;38377,420;11,36269
 632,22; 4677,770;  372,459;38333,157;11,34149
 632,79; 4771,062;  403,844;38654,767;11,41729
 633,37; 4766,760;  375,383;38673,637;11,46626
 633,95; 4774,044;  399,382;38688,532;11,42533
 634,52; 4758,378;  362,536;38788,128;11,43988
 635,10; 4763,975;  379,921;38818,740;11,40528
 635,68; 4776,713;  384,382;39091,668;11,34756
 636,25; 4766,062;  348,459;39013,900;11,42520
 636,83; 4770,866;  341,844;39254,663;11,38191
 637,41; 4818,638;  358,074;39293,257;11,45638
 637,98; 4836,392;  395,997;39488,277;11,35875
 638,56; 4817,557;  373,766;39592,038;11,33092
 639,13; 4844,164;  359,767;39617,369;11,42300
 639,71; 4891,813;  429,536;39867,578;11,31465
 640,29; 4821,597;  329,459;39557,844;11,45124
 640,86; 4846,639;  337,459;39866,978;11,40712
 641,44; 4858,835;  341,459;39749,882;11,46297
 642,02; 4871,877;  373,998;39841,248;11,39648
 642,59; 4875,919;  345,844;39929,613;11,44427
 643,17; 4874,038;  343,844;39862,363;11,46347
 643,74; 4895,849;  356,229;40024,498;11,44396
 644,32; 4930,584;  364,305;39884,633;11,55425
 644,89; 4918,472;  380,382;39880,613;11,48877
 645,47; 4929,591;  377,306;39927,671;11,51010
 646,05; 4921,710;  378,690;39771,883;11,53250
 646,62; 4903,214;  358,229;39776,710;11,53009
 647,20; 4903,256;  372,613;40027,844;11,42508
 647,77; 4928,683;  323,690;39774,671;11,67269
 648,35; 4886,340;  338,306;39734,806;11,54426
 648,92; 4908,382;  362,767;39749,556;11,54096
 649,50; 4887,194;  326,767;39723,537;11,57564
 650,08; 4878,774;  319,152;39597,133;11,60860
 650,65; 4913,355;  338,229;39806,883;11,59180
 651,23; 4974,012;  308,613;40523,556;11,60116
 651,80; 5128,362;  314,690;41572,076;11,66742
 652,38; 5219,712;  340,998;42139,134;11,67209
 652,95; 5290,369;  312,690;42491,191;11,80146
 653,53; 5346,104;  336,844;42725,403;11,81748
 654,10; 5409,531;  372,767;42924,076;11,83692
 654,68; 5333,880;  320,306;42958,749;11,75834
 655,25; 5378,384;  305,075;42979,038;11,88854
 655,83; 5380,272;  310,767;43076,096;11,85424
 656,40; 5429,930;  351,229;43029,615;11,89994
 656,98; 5381,510;  322,536;42980,134;11,85949
 657,55; 5387,091;  331,383;42797,653;11,90523
 658,13; 5338,518;  323,921;42315,634;11,94187
 658,70; 5306,175;  345,998;42061,846;11,89039
 659,28; 5217,294;  321,613;41245,134;11,96300
 659,85; 5116,952;  363,075;40283,654;11,90834
 660,43; 5124,994;  353,844;40271,481;11,95249
 661,00; 5109,421;  327,229;40364,000;11,94450
 661,58; 5191,847;  330,998;40789,904;12,01429
 662,15; 5191,351;  313,613;40976,577;11,99553
 662,73; 5352,931;  400,767;41189,404;12,14104
 663,30; 5316,358;  332,306;41358,231;12,14854
 663,88; 5336,631;  340,075;41627,827;12,10179
 664,45; 5348,289;  323,306;41799,654;12,11530
 665,03; 5420,254;  330,537;42283,712;12,13190
 665,60; 5596,527;  421,229;42625,539;12,26249
 666,17; 5534,492;  337,921;42882,597;12,21439
 666,75; 5601,149;  329,844;43106,808;12,32277
 667,32; 5675,884;  355,075;43540,174;12,32094
 667,90; 5708,464;  335,229;43712,232;12,38729
 668,47; 5803,814;  353,152;44033,059;12,47865
 669,05; 5807,549;  342,998;44464,809;12,38515
 669,62; 5844,898;  308,152;44406,866;12,55535
 670,19; 5895,479;  315,614;44558,386;12,61193
 670,77; 5970,136;  329,537;44717,136;12,70760
 671,34; 5927,102;  323,844;44691,271;12,62921
 671,92; 6043,682;  313,844;45045,174;12,80945
 672,49; 6092,032;  344,152;45031,386;12,86247
 673,06; 6081,613;  284,383;45040,982;12,95279
 673,64; 6101,962;  308,768;45137,117;12,92306
 674,21; 6120,081;  298,921;45004,175;13,02120
 674,79; 6219,662;  343,844;45090,848;13,13120
 675,36; 6226,627;  348,229;45406,675;13,04616
 675,93; 6221,439;  300,614;45173,579;13,19464
 676,51; 6258,942;  325,614;45442,175;13,15111
 677,08; 6289,754;  331,691;45470,233;13,19950
 677,65; 6319,180;  327,383;45691,906;13,20811
 678,23; 6367,915;  321,998;45811,964;13,29066
 678,80; 6397,265;  312,383;45922,252;13,34115
 679,38; 6444,537;  320,614;46120,387;13,37108
 679,95; 6515,426;  342,998;46345,906;13,41747
 680,52; 6549,391;  323,229;46650,426;13,43954
 681,10; 6665,433;  336,922;47022,099;13,55572
 681,67; 6721,629;  321,383;47271,387;13,63205
 682,24; 6739,133;  298,998;47420,291;13,66714
 682,82; 6868,482;  321,614;48009,426;13,72860
 683,39; 6955,063;  360,614;48324,714;13,74872
 683,96; 7023,105;  315,922;48574,618;13,89839
 684,54; 7029,532;  290,922;48919,907;13,85719
 685,11; 7183,805;  362,537;49357,657;13,92234
 685,68; 7252,078;  312,922;49743,099;14,03830
 686,25; 7272,120;  300,691;49868,234;14,06450
 686,83; 7339,546;  302,537;50029,984;14,15116
 687,40; 7395,512;  290,768;50350,273;14,19260
 687,97; 7573,631;  337,229;50784,100;14,34460
 688,55; 7530,134;  289,152;50812,696;14,33190
 689,12; 7593,100;  268,768;51034,754;14,42764
 689,69; 7624,295;  280,922;51179,888;14,42735
 690,26; 7693,953;  305,306;51292,023;14,49132
 690,84; 7765,149;  304,152;51454,850;14,58630
 691,41; 7793,037;  328,768;51484,292;14,59133
 691,98; 7891,002;  317,460;51986,889;14,65769
 692,56; 7928,352;  302,614;51976,946;14,75730
 693,13; 8017,394;  354,153;51992,235;14,84029
 693,70; 8036,129;  338,845;52201,446;14,84168
 694,27; 8071,248;  302,306;52258,120;14,95298
 694,84; 8104,598;  305,383;52328,793;14,99174
 695,42; 8248,332;  350,153;52485,927;15,14925
 695,99; 8217,451;  325,922;52709,447;15,06491
 696,56; 8235,801;  319,614;52611,351;15,13850
 697,13; 8377,612;  330,922;53014,255;15,27369
 697,71; 8400,347;  315,383;52912,543;15,37148
 698,28; 8463,312;  312,306;53340,832;15,37098
 698,85; 8503,815;  271,383;53352,505;15,50915
 699,42; 8507,550;  289,306;53546,332;15,43129
 699,99; 8623,361;  330,691;53633,159;15,55776
 700,57; 8661,865;  333,076;53746,447;15,59308
 701,14; 8695,830;  300,076;53950,351;15,64904
 701,71; 8814,334;  328,230;54138,717;15,77035
 702,28; 8875,068;  312,383;54159,082;15,90197
 702,85; 8969,110;  320,076;54152,140;16,06670
 703,43; 9028,075;  344,230;54391,505;16,06713
 704,00; 9123,502;  356,999;54785,640;16,10642
 704,57; 9140,852;  317,768;54585,775;16,25835
 705,14; 9264,356;  347,614;54896,217;16,34642
 705,71; 9290,859;  359,460;55010,352;16,34264
 706,28; 9301,748;  321,614;54776,486;16,49096
 706,86; 9462,559;  356,537;55044,160;16,65097
 707,43; 9527,447;  382,537;55050,294;16,72816
 708,00; 9515,643;  368,307;54998,506;16,74410
 708,57; 9552,378;  327,999;54883,333;16,90830
 709,14; 9615,035;  368,153;55061,006;16,90693
 709,71; 9693,385;  341,922;55216,448;17,04154
 710,28; 9766,042;  339,076;55355,198;17,13492
 710,86; 9809,546;  333,537;55542,795;17,16380
 711,43; 9910,357;  367,307;55540,160;17,29664
 712,00; 9892,861;  330,922;55606,603;17,29864
 712,57;10024,749;  352,153;55794,660;17,44617
 713,14;10043,638;  328,691;55898,564;17,48240
 713,71;10112,449;  334,845;55722,776;17,65295
 714,28;10182,337;  327,307;55845,834;17,75089
 714,85;10150,225;  307,691;55541,968;17,81961
 715,42;10240,883;  312,691;55781,718;17,89862
 716,00;10405,617;  393,307;55979,468;18,01224
 716,57;10395,198;  303,922;56016,295;18,11317
 717,14;10445,855;  307,922;55996,738;18,20461
 717,71;10521,128;  284,538;55959,334;18,38640
 718,28;10590,017;  347,153;56105,776;18,37001
 718,85;10632,443;  288,845;56184,988;18,50503
 719,42;10783,409;  320,384;56333,123;18,67972
 719,99;10757,605;  288,076;55964,488;18,80424
 720,56;10842,877;  333,999;56330,546;18,76701
 721,13;10908,458;  284,922;56486,142;18,90268
 721,70;10915,577;  299,538;56392,277;18,92587
 722,27;11021,081;  322,768;56368,412;19,08857
 722,84;11200,354;  379,307;56552,008;19,26389
 723,41;11092,396;  280,692;56514,373;19,22639
 723,98;11189,899;  304,845;56814,431;19,26231
 724,55;11322,941;  329,153;56876,104;19,44188
 725,12;11296,060;  266,538;56644,854;19,56341
 725,69;11433,180;  303,922;56881,066;19,67094
 726,27;11518,222;  300,307;57136,354;19,73732
 726,84;11589,879;  305,076;57442,412;19,75031
 727,41;11614,998;  330,153;57266,470;19,82012
 727,98;11768,810;  322,999;57616,451;19,97752
 728,55;11790,544;  343,153;57487,893;20,03227
 729,12;11849,894;  297,538;57735,335;20,11281
 729,69;11932,320;  323,307;57807,086;20,19529
 730,26;12039,901;  317,461;58049,451;20,30493
 730,82;12017,020;  309,769;57961,201;20,30696
 731,39;12106,293;  321,307;58115,182;20,39141
 731,96;12269,181;  297,922;58340,701;20,62489
 732,53;12274,762;  323,769;58578,221;20,51516
 733,10;12346,342;  333,384;58591,817;20,62012
 733,67;12530,154;  334,461;58880,644;20,83089
 734,24;12470,734;  297,538;58516,778;20,90923
 734,81;12623,546;  344,076;58560,067;21,09295
 735,38;12560,588;  323,846;58250,663;21,12449
 735,95;12594,091;  319,846;58131,798;21,23133
 736,52;12646,057;  343,076;58342,317;21,21231
 737,09;12656,406;  338,230;57876,683;21,40860
 737,66;12762,525;  382,230;58164,587;21,42574
 738,23;12860,568;  313,769;58244,414;21,65831
 738,80;13073,302;  406,923;58651,394;21,74692
 739,37;13088,883;  368,153;58750,068;21,78882
 739,94;13159,617;  331,538;58793,741;21,94252
 740,51;13310,351;  468,769;58906,260;21,97490
 741,07;13335,163;  327,230;58845,318;22,22891
 741,64;13449,513;  364,692;59040,222;22,30030
 742,21;13519,939;  337,615;59047,818;22,45321
 742,78;13564,981;  301,461;58832,106;22,66081
 743,35;13655,024;  327,538;59096,395;22,67780
 743,92;13794,143;  357,923;59376,299;22,76616
 744,49;13864,185;  378,846;59166,818;22,93894
 745,06;13884,611;  322,077;59086,568;23,07947
 745,63;13929,807;  308,000;59223,857;23,12078
 746,19;14063,619;  322,461;59089,145;23,38256
 746,76;14102,892;  324,153;59240,203;23,38707
 747,33;14129,472;  325,846;59194,645;23,44812
 747,90;14272,822;  341,000;59470,857;23,56140
 748,47;14344,479;  332,230;59330,453;23,75029
 749,04;14427,137;  333,692;59319,819;23,89281
 749,61;14495,025;  369,846;59306,184;23,96684
 750,17;14576,529;  336,769;59323,857;24,14047
 750,74;14569,186;  337,384;59244,377;24,15978
 751,31;14612,613;  302,923;59212,819;24,29081
 751,88;14657,578;  294,307;59139,569;24,40854
 752,45;14739,005;  313,846;59343,396;24,43718
 753,02;14758,970;  347,923;59170,762;24,49907
 753,58;14800,166;  313,615;58968,665;24,69788
 754,15;14880,208;  310,000;59192,492;24,74455
 754,72;14961,866;  313,384;58972,473;24,97223
 755,29;14985,754;  294,923;58806,146;25,10771
 755,86;15079,719;  312,615;58917,820;25,19760
 756,42;15178,377;  322,077;58767,493;25,41910
 756,99;15151,034;  277,307;58638,012;25,48586
 757,56;15182,615;  283,538;58724,531;25,49422
 758,13;15272,811;  233,231;58577,743;25,77720
 758,70;15415,161;  266,923;58638,031;25,95160
 759,26;15455,664;  253,846;58751,628;25,98700
 759,83;15548,553;  272,077;58881,378;26,06493
 760,40;15567,902;  241,692;58659,512;26,23551
 760,97;15610,868;  233,231;58654,801;26,32185
 761,53;15655,371;  228,231;58259,551;26,58416
 762,10;15705,721;  224,154;58296,917;26,65891
 762,67;15763,840;  262,000;58249,897;26,73289
 763,24;15701,805;  224,077;57759,955;26,90100
 763,80;15781,924;  252,846;57950,782;26,91444
 764,37;15859,966;  259,923;57953,225;27,03961
 764,94;15787,778;  254,692;57446,513;27,15963
 765,50;15831,974;  239,231;57460,494;27,24991
 766,07;15958,170;  287,231;57560,705;27,36160
 766,64;15921,058;  259,615;57201,302;27,50435
 767,21;15965,946;  274,923;57079,436;27,62285
 767,77;15999,065;  295,231;57075,186;27,65736
 768,34;16073,569;  300,385;57003,013;27,81738
 768,91;16117,303;  294,308;56727,148;28,03863
 769,47;16153,884;  301,231;56822,283;28,04734
 770,04;16167,772;  295,769;56639,264;28,17007
 770,61;16114,507;  284,615;56498,783;28,15997
 771,18;16188,472;  284,000;56278,379;28,40369
 771,74;16283,206;  288,231;56579,437;28,41470
 772,31;16265,402;  305,385;56189,802;28,55898
 772,88;16264,675;  272,077;55945,783;28,72559
 773,44;16224,486;  285,462;55766,226;28,72892
 774,01;16373,913;  304,692;55961,668;28,87189
 774,58;16355,032;  287,000;55467,957;29,11880
 775,14;16338,920;  272,846;55696,091;28,98797
 775,71;16395,116;  274,539;55600,149;29,13764
 776,27;16521,928;  344,462;55466,053;29,34869
 776,84;16553,047;  388,308;55656,265;29,24794
 777,41;16573,474;  303,616;55321,015;29,57220
 777,97;16482,439;  272,616;55000,149;29,61914
 778,54;16574,404;  301,385;55050,822;29,72271
 779,11;16655,446;  325,616;55068,880;29,82984
 779,67;16731,796;  285,000;55038,553;30,03786
 780,24;16686,069;  295,769;54777,765;30,08388
 780,80;16760,726;  309,462;54927,592;30,12052
 781,37;16784,307;  315,000;54811,111;30,22107
 781,94;16867,734;  308,693;54498,784;30,55732
 782,50;16884,006;  301,308;54345,765;30,68344
 783,07;16910,356;  319,923;54492,054;30,62540
 783,63;16927,706;  289,462;54200,958;30,86215
 784,20;16993,594;  306,693;54244,862;30,93709
 784,77;16943,021;  294,231;54086,612;30,95009
 785,33;16926,140;  263,846;53817,593;31,11322
 785,90;17040,874;  292,693;53804,035;31,29838
 786,46;17045,917;  319,846;53659,862;31,35745
 787,03;17069,420;  278,539;53536,766;31,52730
 787,59;17085,309;  294,693;53378,285;31,63052
 788,16;17173,581;  285,154;53344,420;31,82936
 788,73;17186,931;  297,539;53208,939;31,92014
 789,29;17132,281;  274,462;52859,458;32,05823
 789,86;17226,015;  318,385;52656,439;32,30466
 790,42;17195,673;  284,231;52592,420;32,33039
 790,99;17103,407;  301,923;52334,862;32,29009
 791,55;17223,526;  288,539;52213,074;32,61462
 792,12;17292,261;  318,462;52249,901;32,68502
 792,68;17254,995;  297,693;51828,267;32,90727
 793,25;17254,422;  305,308;51771,094;32,93278
 793,81;17239,772;  390,231;51371,228;33,05063
 794,38;17144,275;  261,924;51072,901;33,22580
 794,94;17192,010;  279,154;50907,728;33,40575
 795,51;17150,283;  288,077;50757,094;33,41100
 796,07;17130,633;  292,077;50415,844;33,59395
 796,64;17284,829;  292,385;50582,902;33,78856
 797,20;17227,101;  310,385;49989,883;34,05171
 797,77;17133,144;  264,001;49579,171;34,20680
 798,33;17140,724;  294,539;49574,921;34,18436
 798,90;17271,382;  309,539;49464,979;34,50654
 799,46;17100,039;  273,693;48984,883;34,54308
 800,03;17105,927;  294,231;48894,710;34,59163
 800,59;17099,277;  288,616;48555,152;34,82881
 801,15;17081,704;  311,539;48497,056;34,80333
 801,72;16960,208;  296,924;48028,345;34,91051
 802,28;17018,557;  312,385;47755,941;35,21273
 802,85;16946,984;  285,847;47556,768;35,24606
 803,41;16980,257;  288,001;47328,056;35,48520
 803,98;16907,530;  279,308;46980,806;35,60533
 804,54;16867,649;  278,308;46717,787;35,72249
 805,11;16801,691;  297,693;46456,614;35,75473
 805,67;16853,118;  311,462;46437,518;35,86185
 806,23;16696,468;  299,385;45931,268;35,93339
 806,80;16801,740;  309,231;45820,249;36,23850
 807,36;16875,398;  313,001;45797,615;36,41319
 807,93;16772,132;  322,847;45528,057;36,38803
 808,49;16664,867;  289,770;45086,653;36,55410
 809,05;16642,370;  270,078;44936,249;36,65479
 809,62;16692,489;  297,616;44852,307;36,79719
 810,18;16725,224;  296,155;44766,211;36,94412
 810,74;16675,497;  258,385;44459,500;37,14185
 811,31;16651,847;  258,924;44243,634;37,26959
 811,87;16693,504;  283,001;44068,846;37,47901
 812,44;16710,238;  314,078;44003,058;37,52928
 813,00;16638,896;  243,309;43807,115;37,63580
 813,56;16788,630;  286,847;43819,712;37,90650
 814,13;16754,596;  275,539;43770,538;37,88724
 814,69;16766,176;  270,616;43553,981;38,11062
 815,25;16679,834;  243,001;43104,731;38,34851
 815,82;16742,414;  287,616;43037,173;38,49115
 816,38;16832,072;  322,847;42924,770;38,75230
 816,94;16664,806;  247,309;42650,750;38,71737
 817,51;16660,310;  250,693;42287,039;39,03673
 818,07;16664,121;  254,232;42149,789;39,16857
 818,63;16567,009;  268,232;41827,770;39,21790
 819,20;16638,359;  272,847;41797,135;39,41190
 819,76;16459,786;  249,616;41386,808;39,40514
 820,32;16568,367;  299,847;41280,405;39,69814
 820,89;16413,947;  287,693;41097,693;39,51545
 821,45;16368,835;  264,232;40781,443;39,74756
 822,01;16358,185;  276,847;40505,347;39,97499
 822,57;16363,997;  282,924;40350,174;40,13520
 823,14;16374,116;  248,847;40103,847;40,45984
 823,70;16242,312;  256,463;39804,367;40,42148
 824,26;16175,661;  254,924;39677,655;40,38466
 824,82;16313,627;  279,001;39539,482;40,84164
 825,39;16208,053;  261,078;39160,155;40,99577
 825,95;16321,788;  271,616;39187,982;41,24273
 826,51;16150,368;  279,232;38892,117;41,10321
 827,08;16299,564;  303,078;38838,252;41,51139
 827,64;16258,222;  289,616;38783,309;41,48369
 828,20;16146,495;  254,616;38231,675;41,84600
 828,76;16220,383;  281,078;38318,271;41,90452
 829,32;16182,656;  306,540;38212,867;41,88250
 829,89;16142,006;  242,232;38075,310;42,02612
 830,45;16250,740;  273,770;37933,521;42,42452
 831,01;16222,551;  281,463;37882,425;42,39543
 831,57;16244,209;  260,078;37700,252;42,69246
 832,14;16249,482;  253,001;37611,002;42,81942
 832,70;16161,293;  249,232;37460,906;42,76094
 833,26;16212,566;  231,693;37300,041;43,11191
 833,82;16217,839;  262,847;37248,099;43,13879
 834,38;16283,958;  253,540;37196,080;43,39284
 834,95;16170,000;  244,078;37014,983;43,31120
 835,51;16137,042;  220,078;36893,349;43,40208
 836,07;16275,238;  259,232;36913,791;43,69444
 836,63;16338,434;  276,540;36964,849;43,77933
 837,19;16340,861;  264,694;36823,138;43,97388
 837,75;16180,288;  225,617;36588,195;43,87662
 838,32;16309,407;  281,694;36579,945;44,15561
 838,88;16400,449;  286,309;36594,234;44,38188
 839,44;16449,183;  263,155;36528,138;44,63266
 840,00;16437,610;  277,001;36482,426;44,63588
 840,56;16364,344;  258,540;36065,407;44,97965
 841,12;16420,079;  247,924;36118,619;45,08459
 841,68;16432,428;  232,078;35960,446;45,34310
 842,25;16472,701;  251,386;35870,504;45,54104
 842,81;16441,667;  239,540;35651,484;45,75328
 843,37;16483,939;  230,386;35667,311;45,86615
 843,93;16486,674;  248,848;35569,446;45,97268
 844,49;16606,101;  273,463;35597,196;46,23701
 845,05;16553,912;  211,540;35434,639;46,39675
 845,61;16738,569;  268,924;35604,389;46,60939
 846,17;16676,227;  241,155;35367,677;46,78821
 846,73;16699,731;  250,386;35265,889;46,97732
 847,29;16633,080;  233,232;35046,254;47,10837
 847,86;16718,815;  237,463;35047,927;47,34597
 848,42;16664,395;  231,771;34748,985;47,60704
 848,98;16754,284;  265,155;34750,812;47,81445
 849,54;16779,787;  240,540;34827,331;47,81955
 850,10;16758,522;  269,232;34579,928;48,05874
 850,66;16760,872;  231,386;34474,139;48,27148
 851,22;16742,837;  223,540;34348,889;48,40770
 851,78;16864,571;  280,540;34463,101;48,51606
 852,34;16813,690;  252,463;34143,928;48,86548
 852,90;16796,578;  242,617;34116,909;48,86880
 853,46;16782,005;  243,925;33769,120;49,33030
 854,02;16818,047;  256,078;33873,101;49,26661
 854,58;16740,782;  248,771;33591,082;49,46271
 855,14;16746,439;  234,771;33489,448;49,65217
 855,70;16752,020;  212,232;33313,275;49,96757
 856,26;16753,062;  250,925;33331,178;49,88516
 856,82;16734,566;  239,540;33079,005;50,22928
 857,38;16758,531;  293,540;33035,063;50,28780
 857,94;16753,496;  244,309;32908,967;50,54143
 858,50;16781,538;  276,232;32697,102;50,90951
 859,06;16652,426;  236,002;32592,313;50,73639
 859,62;16702,161;  270,540;32577,064;50,86162
 860,18;16610,357;  252,079;32320,198;51,01103
 860,74;16595,322;  215,925;32223,794;51,17303
 861,30;16549,210;  223,540;31985,545;51,40000
 861,86;16649,560;  315,156;32028,218;51,50687
 862,42;16534,371;  247,386;31845,583;51,54403
 862,98;16613,875;  280,156;31846,256;51,74450
 863,54;16458,763;  249,079;31524,314;51,82914
 864,10;16618,652;  248,463;31708,833;52,03432
 864,66;16487,540;  229,156;31374,506;52,20164
 865,22;16484,736;  243,463;31222,872;52,42602
 865,78;16472,701;  249,463;31099,622;52,58721
 866,34;16457,128;  228,309;31151,218;52,48154
 866,90;16398,324;  247,309;30873,584;52,73581
 867,45;16351,443;  252,463;30662,488;52,93971
 868,01;16356,023;  247,925;30551,545;53,15569
 868,57;16272,758;  225,310;30301,757;53,35553
 869,13;16283,646;  225,156;30207,046;53,56063
 869,69;16312,611;  237,694;30017,565;53,97914
 870,25;16164,038;  224,848;29960,161;53,60357
 870,81;16280,695;  239,233;29956,757;53,97981
 871,37;16265,584;  247,002;29845,277;54,11998
 871,93;16212,626;  267,694;29726,104;54,12693
 872,49;16105,514;  285,310;29389,854;54,35648
 873,04;16015,402;  231,387;29272,527;54,35054
 873,60;16012,906;  231,387;29057,661;54,74700
 874,16;16032,410;  259,002;29020,258;54,84256
 874,72;16030,871;  226,310;28936,027;55,04952
 875,28;16057,410;  245,156;28957,104;55,07203
 875,84;16056,102;  255,079;28820,796;55,31464
 876,40;16049,333;  239,925;28773,642;55,40606
 876,95;16108,871;  251,694;28707,104;55,72641
 877,51;16173,025;  269,694;28800,181;55,74153
 878,07;16251,717;  289,540;28699,488;56,18517
 878,63;16267,563;  242,771;28721,565;56,26921
 879,19;16314,333;  258,079;28695,719;56,46127
 879,75;16431,794;  237,387;28775,565;56,74647
 880,30;16417,640;  248,925;28722,104;56,78578
 880,86;16577,487;  289,463;28815,642;57,09851
 881,42;16635,102;  223,848;28931,719;57,16639
 881,98;16752,410;  264,310;28987,642;57,40316
 882,54;16898,487;  247,463;29057,719;57,79547
 883,09;16995,794;  248,156;29168,104;57,91033
 883,65;17083,256;  232,463;29314,565;57,94214
 884,21;17228,563;  264,617;29406,796;58,21097
 884,77;17330,179;  222,463;29545,027;58,34318
 885,32;17537,333;  236,463;29663,796;58,79184
 885,88;17695,948;  284,079;29835,027;58,92152
 886,44;17840,717;  247,310;29985,873;59,16025
 887,00;17865,256;  259,002;29880,335;59,43775
 887,56;17999,640;  239,387;30103,950;59,46932
 888,11;18078,794;  244,617;30155,642;59,62409
 888,67;18203,871;  270,156;30233,642;59,85190
 889,23;18228,410;  256,925;30326,950;59,76545
 889,79;18248,333;  221,617;30207,258;60,11783
 890,34;18266,410;  258,310;30105,258;60,33481
 890,90;18424,410;  315,617;30287,412;60,41945
 891,46;18438,717;  230,002;30215,412;60,72525
 892,01;18414,410;  262,079;30159,027;60,71633
 892,57;18495,640;  287,310;30135,642;61,00284
 893,13;18420,717;  241,463;29936,565;61,21971
 893,69;18390,717;  230,694;29820,027;61,37355
 894,24;18339,563;  244,694;29728,488;61,37225
 894,80;18303,179;  248,387;29520,104;61,67999
 895,36;18285,487;  245,310;29464,565;61,74071
 895,91;18157,640;  247,002;29223,873;61,81012
 896,47;18215,948;  262,310;29086,796;62,28607
 897,03;18155,333;  237,617;29003,104;62,28894
 897,58;18115,487;  250,079;28808,642;62,55710
 898,14;18055,563;  253,540;28610,104;62,77920
 898,70;17981,025;  218,463;28388,104;63,05569
 899,25;18020,410;  251,233;28472,719;62,96329
 899,81;17973,256;  255,387;28214,335;63,37102
 900,37;17741,794;  207,079;28039,950;63,00002
 900,92;17818,948;  233,233;28046,873;63,22695
 901,48;17779,717;  224,694;27881,642;63,47419
 902,03;17732,640;  241,848;27736,873;63,61439
 902,59;17775,794;  232,540;27614,104;64,06958
 903,15;17644,948;  255,387;27490,642;63,84945
 903,70;17563,025;  243,694;27184,488;64,28664
 904,26;17500,794;  237,079;27075,796;64,32392
 904,82;17616,640;  235,002;27008,565;64,92090
 905,37;17485,717;  251,694;26900,565;64,67074
 905,93;17468,487;  227,617;26680,412;65,17599
 906,48;17481,794;  253,617;26681,181;65,19018
 907,04;17450,179;  243,925;26703,873;65,02754
 907,60;17436,333;  251,771;26460,104;65,56908
 908,15;17330,102;  220,233;26310,027;65,58070
 908,71;17370,640;  251,694;26259,488;65,82237
 909,26;17408,794;  242,079;26061,796;66,48684
 909,82;17322,794;  253,617;25973,873;66,36472
 910,37;17349,640;  275,310;25934,412;66,54298
 910,93;17240,179;  227,540;25626,258;66,98227
 911,48;17177,563;  245,540;25466,258;67,13537
 912,04;17064,948;  223,463;25345,796;67,03790
 912,60;17146,794;  229,771;25470,181;67,02357
 913,15;17096,563;  235,002;25217,258;67,49415
 913,71;17016,333;  232,925;25056,565;67,61058
 914,26;16989,640;  214,387;24952,335;67,81182
 914,82;16903,333;  238,771;24873,873;67,64560
 915,37;16907,717;  226,771;24823,642;67,81735
 915,93;16895,948;  291,002;24707,642;68,00668
 916,48;16762,256;  218,002;24588,488;67,88643
 917,04;16707,410;  256,771;24472,258;67,93437
 917,59;16722,717;  269,156;24299,950;68,46865
 918,15;16621,102;  205,540;24127,412;68,62156
 918,70;16664,871;  230,233;24085,719;68,89249
 919,26;16627,102;  236,310;23955,027;69,10488
 919,81;16537,563;  213,002;23737,104;69,39505
 920,37;16545,871;  234,387;23711,642;69,47782
 920,92;16587,102;  256,925;23632,104;69,86118
 921,48;16404,179;  215,925;23362,950;69,93665
 922,03;16522,871;  229,925;23411,258;70,28477
 922,59;16429,948;  237,233;23188,181;70,55358
 923,14;16446,179;  241,387;23117,104;70,83840
 923,69;16402,948;  253,079;23007,642;70,97420
 924,25;16421,948;  261,925;23030,950;70,97372
 924,80;16308,794;  223,848;22742,412;71,42972
 925,36;16314,563;  230,156;22713,335;71,53974
 925,91;16264,640;  220,617;22526,796;71,92636
 926,47;16222,563;  211,002;22422,027;72,08835
 927,02;16328,333;  303,694;22439,412;72,39268
 927,57;16164,025;  230,079;22282,181;72,25591
 928,13;16104,025;  219,771;22184,412;72,31739
 928,68;16083,563;  225,617;22158,642;72,30168
 929,24;15972,794;  198,233;21911,873;72,64817
 929,79;15876,179;  222,848;21785,258;72,59546
 930,34;15921,640;  226,694;21600,950;73,42921
 930,90;15864,256;  224,156;21626,719;73,07583
 931,45;15919,333;  226,617;21524,335;73,68262
 932,01;15763,563;  230,002;21376,642;73,45640
 932,56;15719,948;  249,310;21230,873;73,73444
 933,11;15730,794;  251,156;21304,488;73,52583
 933,67;15589,871;  220,079;21047,412;73,79626
 934,22;15573,948;  229,771;20985,796;73,92638
 934,77;15493,948;  249,925;20872,719;73,91832
 935,33;15421,563;  229,387;20730,335;74,10475
 935,88;15359,640;  234,002;20730,565;73,79597
 936,43;15232,640;  218,002;20557,104;73,82154
 936,99;15188,640;  222,387;20398,719;74,17728
 937,54;15110,563;  206,387;20254,950;74,34037
 938,09;15061,179;  234,002;20262,796;74,02930
 938,65;14954,871;  242,617;20134,565;73,96085
 939,20;14880,563;  206,694;20059,181;73,91452
 939,75;14864,179;  208,617;19935,412;74,29267
 940,31;14766,717;  212,694;19782,258;74,37071
 940,86;14773,102;  225,233;19784,488;74,37844
 941,41;14752,487;  332,694;19728,488;74,34494
 941,96;14653,410;  213,463;19530,258;74,75333
 942,52;14561,179;  225,925;19473,104;74,47977
 943,07;14502,256;  209,079;19286,258;74,92291
 943,62;14467,487;  215,233;19190,181;75,11090
 944,18;14441,794;  204,156;19129,104;75,23211
 944,73;14378,487;  251,387;19083,565;75,01575
 945,28;14258,256;  194,463;18868,335;75,31268
 945,83;14296,794;  211,233;18904,181;75,35227
 946,39;14240,025;  225,002;18854,335;75,23095
 946,94;14171,025;  234,387;18772,873;75,17679
 947,49;14152,640;  218,002;18646,950;75,61277
 948,04;14149,256;  271,848;18616,950;75,64639
 948,59;14101,794;  244,771;18571,027;75,61295
 949,15;14053,717;  197,233;18398,104;76,13089
 949,70;14009,563;  227,694;18305,181;76,23775
 950,25;13942,102;  232,387;18258,796;76,05350
 950,80;13900,717;  181,540;18098,181;76,57226
 951,36;13821,717;  189,310;17997,488;76,55139
 951,91;13844,256;  238,694;18064,796;76,32382
 952,46;13657,102;  211,848;17810,642;76,39872
 953,01;13750,563;  231,233;17894,719;76,53829
 953,56;13670,640;  196,463;17687,104;77,03650
 954,11;13605,025;  236,233;17578,642;77,08728
 954,67;13558,410;  214,310;17560,488;76,92818
 955,22;13464,256;  208,156;17351,335;77,32580
 955,77;13477,025;  256,925;17345,027;77,36436
 956,32;13440,025;  287,848;17339,873;77,12971
 956,87;13301,640;  216,233;17181,027;77,13272
 957,42;13306,794;  218,387;17060,796;77,71102
 957,98;13279,948;  216,540;17052,488;77,59235
 958,53;13260,179;  251,848;16944,796;77,92710
 959,08;13177,871;  205,387;16840,104;77,98440
 959,63;13119,410;  213,463;16698,335;78,28964
 960,18;13060,640;  240,310;16663,104;78,06425
 960,73;13048,640;  227,694;16622,796;78,19986
 961,28;13052,948;  200,233;16484,565;78,92688
 961,83;13023,717;  253,463;16457,950;78,80690
 962,39;12859,717;  195,233;16332,873;78,47792
 962,94;12884,256;  228,694;16245,488;79,01432
 963,49;12787,717;  229,233;16088,796;79,18556
 964,04;12762,794;  239,925;16038,181;79,26742
 964,59;12631,179;  188,694;15921,104;79,08823
 965,14;12709,794;  238,617;15892,335;79,66911
 965,69;12576,563;  215,694;15766,796;79,48549
 966,24;12496,410;  210,771;15661,104;79,51698
 966,79;12466,025;  241,617;15580,412;79,69601
 967,34;12373,794;  204,694;15437,796;79,88590
 967,89;12344,025;  223,387;15377,181;79,98418
 968,44;12314,410;  222,848;15322,335;80,07929
 968,99;12275,410;  226,617;15221,719;80,35152
 969,55;12254,717;  223,848;15129,488;80,71353
 970,10;12218,717;  237,694;15034,642;80,96956
 970,65;12108,871;  242,925;14971,642;80,56334
 971,20;12096,333;  209,079;14867,335;81,09596
 971,75;11933,794;  204,694;14685,873;80,99548
 972,30;11948,948;  223,002;14625,104;81,41830
 972,85;11862,794;  211,156;14534,104;81,34944
 973,40;11737,717;  203,310;14416,565;81,15247
 973,95;11732,025;  239,694;14371,335;81,32340
 974,50;11699,410;  258,694;14305,181;81,44895
 975,05;11652,410;  224,848;14154,027;82,04045
 975,60;11559,563;  232,463;14079,796;81,79987
 976,15;11518,640;  206,925;13992,719;82,05342
 976,70;11481,871;  234,079;13964,565;81,91838
 977,25;11466,102;  238,387;13904,796;82,15556
 977,80;11290,102;  224,617;13683,258;82,21844
 978,35;11237,410;  239,387;13569,873;82,50279
 978,89;11146,256;  197,540;13494,565;82,33959
 979,44;11163,256;  216,617;13471,950;82,58290
 979,99;10952,563;  203,771;13263,642;82,30397
 980,54;10939,487;  245,002;13232,873;82,34209
 981,09;10872,410;  253,079;13134,719;82,43772
 981,64;10816,102;  243,617;12957,104;83,15960
 982,19;10725,563;  259,540;12995,565;82,17653
 982,74;10639,640;  240,540;12766,719;83,01893
 983,29;10531,794;  214,848;12646,027;82,99250
 983,84;10519,256;  238,310;12546,796;83,52730
 984,39;10481,948;  320,002;12613,181;82,66329
 984,94;10313,256;  207,848;12371,258;83,08039
 985,49;10280,717;  255,771;12332,258;83,01211
 986,03;10257,102;  253,079;12205,950;83,69557
 986,58;10148,948;  291,156;12056,642;83,78567
 987,13;10012,102;  236,848;11931,335;83,58857
 987,68; 9962,025;  244,848;11804,335;84,06236
 988,23; 9878,487;  238,463;11760,335;83,66717
 988,78; 9796,563;  225,771;11591,642;84,20641
 989,33; 9706,410;  258,156;11502,412;84,02738
 989,88; 9711,179;  269,617;11457,796;84,38873
 990,42; 9552,794;  220,771;11289,488;84,30989
 990,97; 9494,025;  225,540;11129,181;85,00358
 991,52; 9385,333;  259,463;11156,258;83,74820
 992,07; 9372,871;  280,463;11006,565;84,76898
 992,62; 9234,948;  234,617;10952,488;83,97499
 993,17; 9175,179;  243,771;10793,412;84,66078
 993,71; 9064,487;  255,310;10649,181;84,75357
 994,26; 8955,333;  225,387;10543,796;84,60554
 994,81; 8932,487;  263,540;10517,873;84,53935
 995,36; 8745,717;  225,463;10316,950;84,43012
 995,91; 8745,102;  238,848;10271,104;84,78904
 996,45; 8711,717;  228,925;10182,488;85,22367
 997,00; 8568,102;  224,617;10036,181;85,03726
 997,55; 8582,563;  251,540; 9979,796;85,63738
 998,10; 8529,640;  263,617; 9872,950;86,02078
 998,65; 8462,025;  239,848; 9776,796;86,21392
 999,19; 8343,717;  257,771; 9693,258;85,69718
 999,74; 8266,025;  268,771; 9553,335;86,13495
1000,29; 8215,871;  239,233; 9525,258;85,89939
1000,84; 8127,563;  238,233; 9348,335;86,59981
1001,38; 8039,640;  246,617; 9214,412;86,90011
1001,93; 8018,871;  244,002; 9188,873;86,91986
1002,48; 7888,102;  229,848; 9065,412;86,67533
1003,03; 7877,794;  259,002; 8988,642;87,27498
1003,57; 7756,179;  244,079; 8888,642;86,89970
1004,12; 7741,179;  299,002; 8834,642;87,18944
1004,67; 7610,025;  235,310; 8676,104;87,36992
1005,22; 7445,410;  229,771; 8522,873;87,00771
1005,76; 7358,871;  223,079; 8398,027;87,28853
1006,31; 7327,179;  262,387; 8335,027;87,51526
1006,86; 7222,563;  233,079; 8203,873;87,68868
1007,40; 7119,410;  224,387; 8113,488;87,39934
1007,95; 7037,794;  244,771; 7994,412;87,65598
1008,50; 6980,640;  248,540; 7885,412;88,15259
1009,04; 6894,102;  243,079; 7761,104;88,46769
1009,59; 6775,025;  246,617; 7645,335;88,23702
1010,14; 6670,563;  222,310; 7512,335;88,45311
1010,68; 6600,410;  243,771; 7444,950;88,27219
1011,23; 6465,025;  239,540; 7324,104;87,87393
1011,78; 6474,410;  252,925; 7200,104;89,55412
1012,32; 6344,640;  281,617; 7150,027;88,27405
1012,87; 6345,410;  269,617; 7052,488;89,57552
1013,42; 6206,256;  224,540; 6985,873;88,46947
1013,96; 6235,333;  276,387; 7006,412;88,54270
1014,51; 6112,717;  206,771; 6821,104;89,29013
1015,06; 6129,717;  208,771; 6839,181;89,29985
1015,60; 6202,871;  273,694; 6944,104;88,88775
1016,15; 6144,948;  217,387; 6865,873;89,15655
1016,69; 6203,025;  233,617; 6917,181;89,31475
1017,24; 6221,717;  217,463; 6887,027;90,02469
1017,79; 6272,487;  266,310; 6977,565;89,49408
1018,33; 6273,179;  230,387; 6973,565;89,61341
1018,88; 6314,256;  256,002; 7040,412;89,29670
1019,42; 6320,256;  235,540; 7027,335;89,58922
1019,97; 6312,025;  228,002; 7042,642;89,27871
1020,51; 6406,410;  264,002; 7104,796;89,79086
1021,06; 6355,025;  213,540; 7013,335;90,31868
1021,61; 6318,179;  195,310; 7018,642;89,73429
1022,15; 6326,563;  188,925; 7005,104;90,04515
1022,70; 6293,256;  230,771; 6977,258;89,86136
1023,24; 6274,025;  216,848; 6956,950;89,86773
1023,79; 6184,025;  224,848; 6841,950;90,05720
1024,33; 6138,256;  223,463; 6815,104;89,73172
1024,88; 6076,102;  253,848; 6720,565;90,03415
1025,42; 6014,179;  237,233; 6653,642;90,03394
1025,97; 5920,717;  225,002; 6550,258;90,04719
1026,51; 5813,333;  201,387; 6445,258;89,87928
1027,06; 5743,333;  214,925; 6373,335;89,77005
1027,60; 5663,563;  248,310; 6281,719;89,75445
1028,15; 5625,794;  238,387; 6152,642;91,09190
1028,69; 5481,794;  187,387; 6030,181;90,61431
1029,24; 5421,025;  213,848; 5970,642;90,45272
1029,78; 5341,563;  211,310; 5860,181;90,81910
1030,33; 5233,563;  204,694; 5736,873;90,90214
1030,87; 5172,871;  217,233; 5712,335;90,18283
1031,42; 5093,640;  206,079; 5575,488;91,02605
1031,96; 5036,717;  236,310; 5524,027;90,78412
1032,51; 4936,794;  216,233; 5425,335;90,62141
1033,05; 4886,794;  224,848; 5379,719;90,43769
1033,60; 4809,102;  192,771; 5262,796;91,05144
1034,14; 4742,948;  219,617; 5207,412;90,68800
1034,69; 4687,487;  224,233; 5146,104;90,68205
1035,23; 4629,102;  219,463; 5064,335;91,01663
1035,77; 4545,025;  223,848; 4983,950;90,77908
1036,32; 4457,640;  189,079; 4903,104;90,55025
1036,86; 4446,563;  227,694; 4854,412;91,18494
1037,41; 4353,410;  234,925; 4783,104;90,55239
1037,95; 4260,333;  202,079; 4684,258;90,54199
1038,50; 4230,025;  218,540; 4675,950;89,99587
1039,04; 4171,640;  240,233; 4619,565;89,77184
1039,58; 4107,487;  201,387; 4517,642;90,49742
1040,13; 4046,025;  217,540; 4454,181;90,36605
1040,67; 4050,640;  241,617; 4438,873;90,75032
1041,21; 3964,871;  248,233; 4341,104;90,80761
1041,76; 3877,179;  213,002; 4282,027;90,05049
1042,30; 3825,025;  212,617; 4238,719;89,72470
1042,85; 3741,256;  215,771; 4141,873;89,79605
1043,39; 3721,640;  196,694; 4062,719;91,17753
1043,93; 3676,102;  238,156; 4062,873;89,88759
1044,48; 3655,333;  226,310; 3987,335;91,17257
1045,02; 3589,948;  217,002; 3953,950;90,25938
1045,56; 3558,563;  255,463; 3939,565;89,65821
1046,11; 3504,640;  239,617; 3856,565;90,27011
1046,65; 3470,256;  235,310; 3768,258;91,56506
1047,19; 3374,025;  212,002; 3726,181;89,97900
1047,74; 3309,487;  194,310; 3648,873;90,17570
1048,28; 3307,563;  225,233; 3585,796;91,72065
1048,82; 3248,717;  254,925; 3615,335;89,09010
1049,37; 3228,563;  243,771; 3534,412;90,70552
1049,91; 3166,871;  227,079; 3486,873;90,18337
1050,45; 3155,025;  232,310; 3441,258;91,08017
1050,99; 3099,948;  224,925; 3392,181;90,77332
1051,54; 3041,179;  209,079; 3325,104;90,88823
1052,08; 3038,487;  245,848; 3293,027;91,64669
1052,62; 2957,179;  237,002; 3273,027;89,59666
1053,16; 2878,794;  210,310; 3173,181;90,06415
1053,71; 2858,717;  240,310; 3164,950;89,52922
1054,25; 2833,025;  232,617; 3096,027;90,81508
1054,79; 2817,025;  233,771; 3062,027;91,33735
1055,33; 2733,256;  201,310; 3002,258;90,39604
1055,88; 2712,487;  234,233; 2977,412;90,34241
1056,42; 2701,640;  236,310; 2939,027;91,21675
1056,96; 2663,871;  240,694; 2917,104;90,53834
1057,50; 2636,025;  244,771; 2851,488;91,73430
1058,05; 2590,256;  226,156; 2811,258;91,45094
1058,59; 2547,717;  250,540; 2786,488;90,58454
1059,13; 2462,256;  206,310; 2734,335;89,23749
1059,67; 2467,948;  241,233; 2698,027;90,63500
1060,21; 2429,333;  227,233; 2656,796;90,63768
1060,76; 2398,102;  243,617; 2615,181;90,84659
1061,30; 2385,256;  260,617; 2603,565;90,68227
1061,84; 2321,487;  235,156; 2537,412;90,62116
1062,38; 2261,871;  210,694; 2454,412;91,41869
1062,92; 2306,487;  275,079; 2525,181;90,28070
1063,46; 2237,410;  239,771; 2429,642;91,22174
1064,01; 2193,640;  230,540; 2389,181;90,94150
1064,55; 2180,179;  237,540; 2352,412;91,85611
1065,09; 2115,333;  208,694; 2310,565;90,71148
1065,63; 2140,563;  262,079; 2338,873;90,45117
1066,17; 2126,487;  279,233; 2297,335;91,53422
1066,71; 2086,717;  250,771; 2276,412;90,63535
1067,25; 2043,025;  233,540; 2190,258;92,47553
1067,80; 2035,333;  244,617; 2191,258;91,99005
1068,34; 2041,410;  264,310; 2199,181;91,84591
1068,88; 1965,717;  216,233; 2112,104;92,27867
1069,42; 1980,794;  269,540; 2133,796;91,79287
1069,96; 1929,102;  238,387; 2086,873;91,46485
1070,50; 1950,025;  281,310; 2090,796;92,22038
1071,04; 1868,871;  223,310; 2012,873;91,95324
1071,58; 1864,794;  232,848; 1994,488;92,63787
1072,12; 1843,487;  240,617; 1989,565;91,64762
1072,66; 1822,179;  232,925; 1979,488;90,99319
1073,21; 1813,025;  257,925; 1962,181;91,24804
1073,75; 1764,948;  242,310; 1920,642;90,72328
1074,29; 1758,102;  238,848; 1893,258;91,83057
1074,83; 1745,717;  264,233; 1894,565;90,87008
1075,37; 1737,333;  260,079; 1867,335;91,91156
1075,91; 1695,179;  249,463; 1835,565;91,14896
1076,45; 1697,717;  262,233; 1804,642;93,06767
1076,99; 1673,487;  253,617; 1787,719;92,55377
1077,53; 1632,179;  227,002; 1742,335;92,73059
1078,07; 1630,333;  246,540; 1739,719;92,67425
1078,61; 1608,333;  248,310; 1702,181;93,54495
1079,15; 1574,640;  233,540; 1692,488;91,92239
1079,69; 1560,256;  241,925; 1681,335;91,58830
1080,23; 1566,563;  266,848; 1681,412;91,88102
1080,77; 1570,563;  297,079; 1717,104;89,68044
1081,31; 1492,256;  239,925; 1636,565;89,66737
1081,85; 1488,179;  259,387; 1622,642;90,13659
1082,39; 1469,102;  234,233; 1573,027;92,23742
1082,93; 1460,871;  264,925; 1595,565;89,87749
1083,47; 1422,179;  226,540; 1525,488;92,04667
1084,01; 1438,102;  239,079; 1553,412;91,22676
1084,55; 1401,179;  234,617; 1512,642;91,27846
1085,09; 1402,256;  253,156; 1508,642;91,52627
1085,63; 1359,948;  248,387; 1479,258;90,30690
1086,17; 1357,640;  235,694; 1460,258;91,62009
1086,71; 1328,256;  225,925; 1436,565;91,05353
1087,24; 1340,563;  255,848; 1447,335;91,03883
1087,78; 1330,179;  265,310; 1439,258;90,70838
1088,32; 1263,871;  222,848; 1381,181;89,87255
1088,86; 1291,717;  261,463; 1399,181;90,55447
1089,40; 1277,333;  240,694; 1374,181;91,45574
1089,94; 1218,333;  218,079; 1325,258;90,34257
1090,48; 1228,256;  254,463; 1340,027;89,70386
1091,02; 1219,563;  256,925; 1335,565;89,24554
1091,56; 1203,333;  242,079; 1302,873;90,61643
1092,10; 1174,563;  221,540; 1267,565;91,10902
1092,63; 1209,640;  262,387; 1282,950;92,81675
1093,17; 1170,025;  264,694; 1276,796;89,45055
1093,71; 1140,563;  229,079; 1222,642;91,73894
1094,25; 1143,487;  274,156; 1260,565;88,13081
1094,79; 1118,333;  234,156; 1223,796;89,34325
1095,33; 1110,333;  251,694; 1210,565;89,54680
1095,87; 1108,717;  246,463; 1197,488;90,66574
1096,40; 1053,717;  226,540; 1154,335;89,15521
1096,94; 1071,794;  245,310; 1165,950;89,77280
1097,48; 1076,179;  256,617; 1172,027;89,52949
1098,02; 1041,871;  233,002; 1120,719;91,11788
1098,56; 1003,871;  211,156; 1089,796;90,22069
1099,10;  996,794;  224,002; 1093,181;88,91062
1099,63; 1000,717;  213,387; 1062,104;92,76714
1100,17;  998,410;  250,540; 1095,258;88,53485
1100,71; 1020,717;  271,848; 1098,796;90,55819

