
Integration time [ms]: 150,000
Averaging Nr. [scans]: 13
Smoothing Nr. [pixels]: 0
Data measured with spectrometer [name]: 2009305U1
Wave   ;Sample   ;Dark     ;Reference;Reflectance
[nm]   ;[counts] ;[counts] ;[counts] ;[%]

 175,72;  205,993;  186,508;  191,441;394,99724
 176,32;  220,473;  217,046;  197,097; 0,00000
 176,92;  261,986;  242,431;  238,959; 0,00000
 177,52;  256,182;  239,816;  243,861;404,52411
 178,12;  231,915;  224,815;  216,545; 0,00000
 178,72;  267,645;  250,738;  233,002; 0,00000
 179,32;  254,461;  234,123;  228,510; 0,00000
 179,92;  255,890;  240,892;  239,121; 0,00000
 180,52;  246,602;  226,662;  241,501;134,37702
 181,12;  266,364;  235,508;  249,615;218,73445
 181,73;  278,515;  253,969;  257,963;614,65074
 182,33;  366,500;  310,354;  310,442; 0,00000
 182,93;  274,441;  250,508;  254,901;544,77472
 183,53;  241,121;  230,353;  215,332; 0,00000
 184,13;  234,224;  235,815;  221,936; 0,00000
 184,73;  276,452;  257,661;  250,459; 0,00000
 185,33;  259,581;  224,043;  328,569;33,99914
 185,93;  267,841;  230,350;  348,190;31,81518
 186,53;  289,181;  239,043;  358,752;41,88314
 187,13;  307,885;  264,120;  409,434;30,11730
 187,73;  273,117;  218,889;  366,806;36,66148
 188,33;  263,883;  230,427;  357,437;26,34104
 188,93;  289,400;  238,272;  360,934;41,68217
 189,53;  283,978;  246,580;  369,895;30,32737
 190,13;  312,258;  273,809;  388,525;33,51620
 190,73;  261,815;  212,118;  334,459;40,62187
 191,34;  296,186;  255,964;  376,178;33,45863
 191,94;  270,384;  225,580;  351,484;35,58595
 192,54;  298,113;  238,043;  391,115;39,24284
 193,14;  297,937;  251,812;  378,970;36,27348
 193,74;  288,385;  238,274;  370,876;37,79051
 194,34;  284,392;  228,812;  370,051;39,35159
 194,94;  245,503;  212,043;  338,394;26,48206
 195,54;  232,164;  196,350;  334,278;25,96567
 196,14;  260,899;  211,658;  368,113;31,47308
 196,74;  252,017;  208,581;  344,120;32,04662
 197,34;  231,248;  181,813;  352,533;28,95714
 197,94;  260,265;  221,043;  371,875;26,00412
 198,54;  271,887;  217,428;  387,527;32,01643
 199,14;  255,392;  202,428;  380,116;29,80763
 199,74;  237,364;  191,582;  373,922;25,10823
 200,34;  222,398;  181,043;  389,337;19,85383
 200,94;  258,065;  220,736;  438,986;17,10394
 201,54;  260,326;  209,120;  440,271;22,15270
 202,14;  287,578;  218,659;  479,540;26,41775
 202,74;  254,538;  211,120;  475,243;16,43846
 203,34;  233,634;  186,659;  487,213;15,62929
 203,94;  212,206;  158,659;  500,803;15,65044
 204,54;  270,088;  228,658;  595,764;11,28546
 205,14;  249,534;  185,966;  608,606;15,04062
 205,74;  283,844;  223,044;  685,831;13,13781
 206,34;  250,363;  194,044;  704,762;11,02749
 206,94;  258,358;  198,582;  780,618;10,27014
 207,54;  234,691;  178,967;  806,391; 8,88139
 208,14;  255,481;  190,582;  893,911; 9,22739
 208,74;  259,862;  194,428;  987,542; 8,25022
 209,34;  263,640;  193,197; 1063,246; 8,09640
 209,94;  281,223;  206,274; 1165,355; 7,81461
 210,54;  293,498;  199,044; 1268,411; 8,83276
 211,14;  284,971;  224,351; 1385,049; 5,22274
 211,73;  290,735;  191,043; 1475,767; 7,75976
 212,33;  309,247;  208,351; 1619,410; 7,15038
 212,93;  292,918;  191,966; 1670,853; 6,82620
 213,53;  288,372;  170,890; 1771,964; 7,33772
 214,13;  302,523;  178,967; 1815,624; 7,54928
 214,73;  295,655;  178,505; 1868,232; 6,93305
 215,33;  286,838;  147,505; 1877,816; 8,05249
 215,93;  324,799;  184,890; 2028,276; 7,58979
 216,53;  297,962;  154,966; 2104,730; 7,33401
 217,13;  356,996;  206,198; 2343,708; 7,05488
 217,73;  362,050;  179,274; 2524,428; 7,79377
 218,33;  330,070;  142,890; 2775,173; 7,11094
 218,93;  390,163;  175,352; 3071,646; 7,41674
 219,53;  426,580;  177,429; 3397,057; 7,73853
 220,13;  419,448;  153,275; 3691,023; 7,52381
 220,73;  467,935;  177,967; 4089,429; 7,41331
 221,32;  515,554;  173,197; 4500,773; 7,91105
 221,92;  549,444;  180,198; 4901,864; 7,82025
 222,52;  564,415;  163,198; 5343,261; 7,74542
 223,12;  615,484;  172,813; 5776,757; 7,89928
 223,72;  652,302;  186,044; 6211,948; 7,73757
 224,32;  709,242;  183,813; 6543,079; 8,26241
 224,92;  721,141;  168,351; 6875,906; 8,24129
 225,52;  779,945;  186,890; 7271,963; 8,37049
 226,12;  810,243;  176,121; 7587,469; 8,55610
 226,72;  830,676;  148,967; 7939,983; 8,74994
 227,31;  855,728;  145,582; 8250,580; 8,76183
 227,91;  938,305;  176,274; 8678,345; 8,96288
 228,51;  981,847;  167,889; 9082,095; 9,13102
 229,11; 1041,311;  165,351; 9464,150; 9,42014
 229,71; 1071,768;  162,813; 9762,720; 9,46838
 230,31; 1142,778;  158,582;10173,488; 9,82731
 230,91; 1173,286;  150,274;10506,605; 9,87813
 231,51; 1240,103;  149,351;10776,255;10,26406
 232,10; 1323,325;  151,044;11074,192;10,73208
 232,70; 1351,392;  178,966;11290,743;10,55120
 233,30; 1432,499;  184,121;11509,472;11,02287
 233,90; 1470,475;  165,582;11642,454;11,36976
 234,50; 1508,244;  169,813;11682,361;11,62585
 235,10; 1571,371;  163,275;11747,368;12,15543
 235,70; 1605,859;  173,428;11699,798;12,42743
 236,29; 1671,444;  185,197;11591,497;13,03006
 236,89; 1642,315;  152,043;11425,783;13,21896
 237,49; 1696,693;  176,197;11278,883;13,69484
 238,09; 1694,363;  160,813;10923,609;14,24862
 238,69; 1731,948;  189,966;10665,612;14,71969
 239,29; 1722,504;  155,890;10301,192;15,44177
 239,89; 1703,493;  176,351; 9935,648;15,64808
 240,48; 1688,262;  161,813; 9504,821;16,33788
 241,08; 1668,026;  160,351; 9117,984;16,83117
 241,68; 1709,011;  176,813; 8757,962;17,85540
 242,28; 1658,519;  153,505; 8410,255;18,22768
 242,88; 1649,264;  193,044; 8095,122;18,42831
 243,48; 1634,259;  198,736; 7873,692;18,70399
 244,07; 1641,896;  175,890; 7581,095;19,79697
 244,67; 1634,194;  179,197; 7429,524;20,06801
 245,27; 1641,735;  190,659; 7275,690;20,48087
 245,87; 1659,559;  191,198; 7237,475;20,83882
 246,47; 1681,836;  180,197; 7203,632;21,38041
 247,06; 1672,800;  174,890; 7223,759;21,25036
 247,66; 1709,149;  169,967; 7354,508;21,42353
 248,26; 1784,375;  193,505; 7500,001;21,77337
 248,86; 1832,010;  183,889; 7701,168;21,92444
 249,46; 1846,054;  136,505; 7966,218;21,83412
 250,05; 1960,164;  190,967; 8407,977;21,53092
 250,65; 2037,645;  157,582; 8804,658;21,74219
 251,25; 2126,941;  165,044; 9339,804;21,38363
 251,85; 2243,380;  182,582;10029,658;20,92802
 252,44; 2392,299;  134,813;10674,678;21,41855
 253,04; 2549,243;  185,736;11530,583;20,83331
 253,64; 2666,697;  150,966;12356,193;20,61191
 254,24; 2860,577;  187,274;13387,094;20,25257
 254,84; 3075,977;  167,274;14402,987;20,43243
 255,43; 3221,793;  168,966;15555,492;19,84091
 256,03; 3441,689;  178,274;16699,228;19,75319
 256,63; 3592,983;  177,966;17910,841;19,25811
 257,23; 3769,708;  154,274;18944,964;19,24056
 257,82; 3942,142;  176,505;20042,253;18,95543
 258,42; 4061,828;  139,658;21036,894;18,76885
 259,02; 4228,951;  182,890;22121,113;18,44298
 259,62; 4286,771;  159,658;22985,230;18,08109
 260,21; 4408,542;  168,736;23587,648;18,10420
 260,81; 4431,146;  173,736;24280,241;17,66083
 261,41; 4471,923;  166,735;24813,701;17,46741
 262,01; 4557,810;  201,658;25435,271;17,26329
 262,60; 4468,323;  149,812;25794,348;16,83989
 263,20; 4520,520;  156,120;26213,989;16,74887
 263,80; 4511,210;  187,427;26514,878;16,42310
 264,40; 4457,284;  156,120;26759,688;16,16762
 264,99; 4457,372;  171,197;27037,228;15,95388
 265,59; 4395,153;  158,350;27333,943;15,59047
 266,19; 4388,721;  152,120;27455,685;15,51666
 266,78; 4380,783;  199,658;27664,545;15,22353
 267,38; 4313,595;  177,735;27623,607;15,06915
 267,98; 4269,726;  158,350;27619,235;14,97175
 268,58; 4203,109;  172,812;27764,819;14,60676
 269,17; 4186,036;  159,504;27759,477;14,58890
 269,77; 4111,415;  181,812;27582,448;14,34128
 270,37; 3992,926;  157,504;27409,912;14,07370
 270,96; 4003,283;  201,505;27279,205;14,04026
 271,56; 3886,189;  167,274;27013,284;13,85277
 272,16; 3865,942;  161,120;26883,945;13,86389
 272,75; 3803,514;  170,889;26753,759;13,66528
 273,35; 3771,288;  174,351;26767,980;13,52556
 273,95; 3726,716;  173,966;26798,335;13,34398
 274,54; 3708,950;  140,351;26830,277;13,37058
 275,14; 3781,450;  179,428;27277,007;13,29278
 275,74; 3725,517;  149,505;27407,780;13,11900
 276,33; 3820,917;  183,428;27814,228;13,16462
 276,93; 3878,546;  174,428;28291,479;13,17392
 277,53; 3965,185;  176,043;28987,611;13,15146
 278,12; 4014,300;  159,889;29392,545;13,18529
 278,72; 4145,258;  193,890;30130,221;13,19924
 279,32; 4245,330;  167,582;30750,215;13,33354
 279,91; 4356,042;  146,505;31634,628;13,36865
 280,51; 4461,809;  171,274;32197,023;13,39714
 281,11; 4606,633;  162,889;32976,687;13,54230
 281,70; 4657,207;  156,736;33508,153;13,49409
 282,30; 4842,497;  156,274;34178,592;13,77397
 282,90; 4922,768;  162,582;34644,064;13,80505
 283,49; 5107,183;  185,505;35228,863;14,04454
 284,09; 5289,239;  195,889;35690,291;14,34973
 284,69; 5428,707;  192,582;36065,573;14,59629
 285,28; 5580,652;  205,043;36330,946;14,88021
 285,88; 5755,444;  210,658;36651,955;15,21567
 286,47; 5834,181;  167,120;36681,104;15,52025
 287,07; 6024,974;  194,889;36787,870;15,93225
 287,67; 6209,875;  183,197;36990,769;16,37347
 288,26; 6388,516;  162,043;36756,353;17,01487
 288,86; 6614,660;  171,736;36935,896;17,52502
 289,46; 6843,447;  179,889;37141,703;18,02822
 290,05; 7140,123;  161,813;37264,536;18,80808
 290,65; 7425,832;  171,812;37412,724;19,47863
 291,24; 7791,452;  180,659;37567,924;20,35665
 291,84; 8077,521;  181,812;37729,841;21,02829
 292,44; 8387,762;  164,813;37919,072;21,78019
 293,03; 8812,978;  224,813;38028,338;22,71790
 293,63; 9053,128;  161,120;38283,122;23,32513
 294,22; 9389,260;  187,505;38323,888;24,12855
 294,82; 9609,446;  169,658;38408,330;24,68650
 295,41; 9727,053;  161,659;38060,692;25,23915
 296,01;10023,788;  206,812;37983,114;25,98713
 296,61;10104,853;  182,659;37619,685;26,50369
 297,20;10155,177;  177,812;37253,889;26,91052
 297,80;10272,553;  183,736;37045,844;27,36907
 298,39;10326,457;  156,966;36574,274;27,92488
 298,99;10414,769;  176,658;36410,608;28,25557
 299,58;10449,222;  184,736;36372,641;28,36441
 300,18;10523,771;  202,813;36126,581;28,73017
 300,78;10514,279;  167,505;35638,126;29,16998
 301,37;10576,092;  187,581;35732,745;29,22623
 301,97;10705,807;  183,197;35724,838;29,60643
 302,56;10757,662;  162,582;35684,809;29,82662
 303,16;10746,746;  168,274;35582,713;29,87051
 303,75;10796,381;  171,659;35647,591;29,94910
 304,35;11030,885;  169,890;35890,519;30,40539
 304,94;11054,739;  163,120;35993,788;30,39748
 305,54;11089,092;  193,505;35888,696;30,52396
 306,13;11103,841;  149,582;35738,256;30,78018
 306,73;11045,571;  146,121;35479,774;30,84722
 307,33;11064,060;  170,274;35515,060;30,82148
 307,92;11180,695;  175,351;35629,125;31,04139
 308,52;11357,714;  159,351;36194,360;31,07634
 309,11;11597,002;  163,043;36703,676;31,29108
 309,71;11717,514;  148,735;36939,473;31,44481
 310,30;11770,662;  163,890;37244,311;31,30162
 310,90;11997,739;  187,274;37577,926;31,58668
 311,49;12017,759;  173,428;37748,247;31,52199
 312,09;12159,949;  141,659;37927,831;31,80605
 312,68;12405,526;  201,966;38291,657;32,03901
 313,28;12334,003;  153,428;38571,741;31,70513
 313,87;12440,180;  143,043;38614,467;31,96434
 314,47;12562,497;  165,043;38917,783;31,99117
 315,06;12579,448;  145,505;39080,749;31,93493
 315,66;12624,103;  145,428;39279,677;31,88684
 316,25;12550,957;  133,505;39102,315;31,86511
 316,85;12583,933;  135,120;39238,531;31,83562
 317,44;12617,201;  153,351;39425,307;31,73728
 318,04;12626,331;  143,659;39410,544;31,78931
 318,63;12586,968;  137,736;39376,591;31,72680
 319,22;12670,310;  172,043;39639,793;31,66704
 319,82;12626,117;  157,659;39748,044;31,49365
 320,41;12591,727;  167,889;39597,223;31,50912
 321,01;12583,228;  161,351;39688,268;31,42637
 321,60;12564,126;  160,659;39760,917;31,32168
 322,20;12476,242;  148,197;39768,075;31,11581
 322,79;12508,845;  193,274;39925,258;30,99662
 323,39;12458,536;  154,274;40037,370;30,85082
 323,98;12478,323;  154,890;40009,773;30,92076
 324,58;12350,187;  165,351;39833,792;30,71670
 325,17;12289,439;  157,505;39618,697;30,74396
 325,76;12253,030;  177,813;39412,027;30,77726
 326,36;11999,499;  146,813;39031,432;30,48168
 326,95;11952,620;  173,889;38634,962;30,62507
 327,55;11728,352;  149,736;38265,988;30,37711
 328,14;11506,403;  147,967;37855,696;30,12230
 328,74;11368,998;  194,582;37389,310;30,04301
 329,33;11259,657;  177,120;36931,530;30,15294
 329,92;11017,549;  157,043;36304,241;30,04522
 330,52;10725,218;  165,505;35558,328;29,83575
 331,11;10554,907;  166,812;35056,964;29,77372
 331,71;10364,042;  166,813;34465,013;29,73109
 332,30;10143,662;  171,966;34036,249;29,44605
 332,89; 9961,753;  198,813;33347,851;29,45166
 333,49; 9714,709;  168,812;32742,856;29,30522
 334,08; 9550,955;  165,659;32308,017;29,19915
 334,68; 9337,915;  171,966;31756,930;29,01998
 335,27; 9242,279;  172,351;31450,397;28,99774
 335,86; 9129,446;  208,889;31068,657;28,90675
 336,46; 8992,980;  169,967;30889,501;28,72118
 337,05; 8878,498;  176,428;30713,484;28,49676
 337,65; 8756,696;  160,120;30600,208;28,24097
 338,24; 8804,056;  208,659;30594,707;28,28732
 338,83; 8707,283;  186,197;30525,301;28,08615
 339,43; 8622,350;  157,197;30473,265;27,92299
 340,02; 8604,386;  168,582;30301,347;27,99545
 340,61; 8570,975;  158,428;30447,009;27,77465
 341,21; 8550,614;  206,274;30485,003;27,55842
 341,80; 8462,700;  173,197;30393,691;27,43007
 342,40; 8444,137;  165,428;30508,153;27,28400
 342,99; 8514,138;  163,736;30672,928;27,37012
 343,58; 8495,426;  168,351;30852,069;27,13842
 344,18; 8522,123;  174,197;31058,459;27,02971
 344,77; 8554,042;  160,889;31360,896;26,90112
 345,36; 8614,543;  140,966;31824,885;26,74409
 345,96; 8715,604;  184,043;32059,395;26,76539
 346,55; 8777,314;  163,890;32437,166;26,68903
 347,14; 8821,250;  149,274;32826,988;26,53789
 347,74; 8918,962;  134,582;33245,559;26,53011
 348,33; 9109,321;  166,813;33966,786;26,45715
 348,92; 9280,519;  175,583;34647,951;26,41227
 349,52; 9372,161;  149,890;35150,713;26,34873
 350,11; 9356,422;  157,966;35334,352;26,14952
 350,70; 9419,015;  160,659;35388,173;26,28160
 351,29; 9293,835;  135,658;35090,372;26,20012
 351,89; 9333,605;  173,658;35177,782;26,16819
 352,48; 9300,440;  142,659;35197,568;26,12410
 353,07; 9216,891;  160,736;35083,376;25,93204
 353,67; 9215,689;  178,890;35005,158;25,94823
 354,26; 9067,724;  167,274;34726,113;25,75448
 354,85; 9048,969;  171,274;34533,751;25,83543
 355,45; 8946,441;  142,582;34330,205;25,75160
 356,04; 8919,587;  164,890;34307,459;25,64159
 356,63; 8855,398;  179,043;34034,219;25,62785
 357,22; 8825,197;  164,812;33846,692;25,71230
 357,82; 8691,065;  162,581;33687,197;25,43947
 358,41; 8707,548;  180,659;33502,491;25,58950
 359,00; 8604,747;  148,351;33273,236;25,52883
 359,60; 8625,890;  168,120;33191,121;25,61175
 360,19; 8497,256;  175,890;33021,117;25,33508
 360,78; 8491,287;  162,889;32772,267;25,53989
 361,37; 8433,336;  154,659;32572,996;25,53702
 361,97; 8431,864;  173,889;32486,917;25,55618
 362,56; 8306,284;  155,966;32014,805;25,58260
 363,15; 8284,408;  189,197;31691,067;25,69756
 363,74; 8170,865;  161,274;31418,021;25,62516
 364,34; 8043,532;  189,043;30932,689;25,54833
 364,93; 7923,486;  153,120;30395,858;25,69333
 365,52; 7792,061;  143,736;30064,811;25,56167
 366,11; 7796,374;  161,582;29743,130;25,80931
 366,71; 7655,617;  158,351;29204,485;25,81158
 367,30; 7562,750;  163,428;28772,328;25,86371
 367,89; 7536,447;  199,351;28622,666;25,81365
 368,48; 7438,655;  170,658;28178,096;25,95024
 369,07; 7314,015;  171,043;27760,327;25,89038
 369,67; 7301,874;  183,658;27444,956;26,11107
 370,26; 7217,420;  160,736;27075,248;26,21888
 370,85; 7146,510;  160,351;26821,071;26,20394
 371,44; 7087,329;  167,043;26615,862;26,16482
 372,03; 7012,929;  152,658;26269,045;26,26807
 372,63; 6949,758;  137,736;25954,970;26,38556
 373,22; 6940,573;  162,966;25610,494;26,63366
 373,81; 6820,575;  148,736;25247,484;26,58236
 374,40; 6821,800;  159,197;24987,436;26,83478
 374,99; 6770,117;  140,351;24717,444;26,97539
 375,59; 6702,873;  148,044;24349,892;27,08400
 376,18; 6755,765;  186,889;24267,566;27,27862
 376,77; 6697,475;  170,351;24000,435;27,39027
 377,36; 6692,166;  197,274;23986,312;27,30204
 377,95; 6653,099;  174,582;23649,867;27,59718
 378,55; 6642,382;  160,351;23466,883;27,81208
 379,14; 6658,385;  168,120;23379,649;27,96138
 379,73; 6679,889;  170,505;23286,173;28,16005
 380,32; 6735,568;  180,813;23283,734;28,37198
 380,91; 6683,174;  149,812;23099,468;28,46823
 381,50; 6753,333;  171,120;23048,150;28,77215
 382,10; 6734,183;  156,889;22974,273;28,82580
 382,69; 6783,887;  142,351;22882,736;29,20591
 383,28; 6796,167;  177,658;22790,856;29,26835
 383,87; 6792,605;  168,582;22710,068;29,38592
 384,46; 6803,406;  151,581;22677,627;29,52948
 385,05; 6887,474;  177,197;22642,179;29,86994
 385,64; 6943,451;  165,428;22705,207;30,07138
 386,24; 6924,001;  142,120;22645,399;30,13730
 386,83; 7019,769;  186,427;22618,260;30,46270
 387,42; 7169,780;  177,812;22772,358;30,94538
 388,01; 7231,458;  168,658;23051,584;30,86493
 388,60; 7425,714;  163,197;23344,535;31,32916
 389,19; 7509,619;  144,350;23523,601;31,50344
 389,78; 7661,595;  161,273;23860,090;31,64851
 390,37; 7962,080;  208,350;24368,082;32,09361
 390,96; 7998,685;  165,274;24562,757;32,10746
 391,56; 8159,228;  172,350;24588,165;32,71191
 392,15; 8277,860;  152,273;24974,428;32,73522
 392,74; 8365,999;  142,119;25152,900;32,88134
 393,33; 8645,742;  155,888;25422,700;33,60081
 393,92; 8799,975;  163,734;26023,518;33,39642
 394,51; 8962,733;  145,427;26179,289;33,86861
 395,10; 9148,742;  178,272;26398,099;34,21254
 395,69; 9269,379;  168,426;26501,989;34,56028
 396,28; 9390,301;  180,733;26670,518;34,76649
 396,87; 9539,769;  167,579;26690,495;35,33620
 397,46; 9616,435;  171,886;26806,867;35,45919
 398,06; 9870,849;  182,348;27061,734;36,04435
 398,65; 9937,722;  175,500;27133,720;36,21241
 399,24;10092,746;  185,962;27326,145;36,50228
 399,83;10111,971;  160,653;27355,790;36,59227
 400,42;10351,497;  183,036;27517,177;37,20059
 401,01;10452,465;  167,496;27637,897;37,44019
 401,60;10545,282;  175,264;27650,356;37,74334
 402,19;10596,904;  192,108;27498,901;38,10332
 402,78;10658,150;  196,490;27587,235;38,19414
 403,37;10673,467;  179,334;27355,096;38,61578
 403,96;10674,922;  195,255;27210,715;38,79137
 404,55;10692,399;  185,406;27006,667;39,17412
 405,14;10719,032;  167,018;26923,474;39,43726
 405,73;10766,486;  189,015;26719,659;39,86888
 406,32;10848,801;  174,013;26758,283;40,15453
 406,91;10821,414;  176,242;26376,733;40,62967
 407,50;10808,840;  182,087;26206,333;40,83405
 408,09;10738,377;  161,316;25865,726;41,14882
 408,68;10759,681;  174,700;25712,892;41,44765
 409,27;10745,170;  158,086;25475,338;41,81767
 409,86;10748,883;  170,703;25386,944;41,94987
 410,45;10826,189;  195,012;25335,928;42,28635
 411,04;10865,609;  205,014;25176,578;42,69094
 411,63;10786,594;  183,324;24835,835;43,01091
 412,22;10720,048;  186,403;24610,232;43,12856
 412,81;10691,919;  190,942;24314,971;43,52912
 413,40;10581,398;  203,097;23917,493;43,76372
 413,99;10505,854;  223,865;23552,539;44,07447
 414,58;10343,137;  175,404;23127,269;44,30025
 415,17;10300,430;  180,788;22902,085;44,53813
 415,76;10280,176;  179,326;22787,167;44,67853
 416,35;10238,422;  171,788;22547,639;44,98883
 416,94;10329,706;  187,480;22647,273;45,15725
 417,53;10517,678;  177,096;22929,200;45,44890
 418,12;10592,730;  174,480;22941,237;45,76080
 418,71;10899,722;  192,558;23416,393;46,10420
 419,30;11000,281;  183,711;23499,485;46,39164
 419,89;11138,803;  168,635;23672,564;46,67376
 420,48;11298,398;  197,558;23996,170;46,64491
 421,07;11434,345;  198,712;24121,029;46,96716
 421,66;11487,672;  165,251;24123,199;47,25956
 422,25;11525,104;  179,252;24057,444;47,51554
 422,84;11570,354;  207,252;23981,666;47,79551
 423,43;11437,076;  183,867;23641,425;47,97264
 424,02;11372,022;  209,252;23360,823;48,21604
 424,60;11195,024;  176,022;22896,260;48,49862
 425,19;11065,772;  192,329;22515,582;48,70904
 425,78;11085,190;  203,021;22553,920;48,68783
 426,37;11038,775;  207,945;22403,315;48,79770
 426,96;11062,824;  185,329;22186,660;49,44017
 427,55;10962,765;  186,176;22054,224;49,28007
 428,14;10889,028;  166,484;21703,464;49,78667
 428,73;10870,069;  191,176;21606,163;49,86645
 429,32;10891,345;  196,714;21629,006;49,89961
 429,91;10909,932;  219,637;21572,447;50,06505
 430,50;10885,771;  205,330;21383,891;50,43044
 431,08;10777,509;  222,407;21230,317;50,24346
 431,67;10827,983;  247,869;21148,467;50,62111
 432,26;10728,348;  264,177;20848,571;50,83546
 432,85;10613,759;  274,792;20434,026;51,28651
 433,44;10416,414;  283,023;20003,455;51,38524
 434,03;10278,767;  297,178;19563,537;51,80839
 434,62;10071,366;  254,946;19179,864;51,87034
 435,21; 9997,667;  290,177;19042,249;51,76756
 435,79; 9907,242;  263,793;18856,990;51,86547
 436,38; 9912,279;  250,332;18691,737;52,39268
 436,97; 9795,806;  250,947;18642,582;51,89783
 437,56; 9711,913;  254,025;18351,865;52,25976
 438,15; 9728,748;  235,717;18377,146;52,32791
 438,74; 9749,773;  260,102;18385,903;52,35449
 439,33; 9772,205;  217,640;18320,525;52,77924
 439,91; 9764,822;  192,563;18428,673;52,49068
 440,50; 9876,811;  236,563;18595,687;52,50930
 441,09; 9916,745;  217,333;18592,446;52,78559
 441,68; 9923,251;  223,257;18627,250;52,70592
 442,27;10002,454;  206,872;18582,693;53,30691
 442,86; 9952,394;  188,565;18552,215;53,16933
 443,44;10031,792;  190,488;18634,592;53,35745
 444,03;10096,901;  247,411;18634,232;53,56820
 444,62;10024,735;  190,719;18500,645;53,70866
 445,21; 9901,081;  205,026;18266,318;53,68417
 445,80; 9915,920;  226,411;18152,187;54,05350
 446,39; 9783,886;  239,027;17863,787;54,15596
 446,97; 9578,690;  189,797;17675,944;53,69332
 447,56; 9548,775;  195,874;17426,605;54,28035
 448,15; 9429,552;  202,104;17234,244;54,17668
 448,74; 9349,905;  216,489;16946,706;54,59234
 449,33; 9200,955;  203,720;16837,137;54,09132
 449,91; 9096,054;  197,720;16571,969;54,34346
 450,50; 8973,473;  196,874;16352,158;54,32649
 451,09; 9009,786;  212,028;16194,380;55,04670
 451,68; 8883,959;  228,413;16106,125;54,51381
 452,26; 8877,769;  214,875;15981,176;54,94564
 452,85; 8815,289;  217,182;15846,246;55,01358
 453,44; 8785,754;  212,029;15903,695;54,63872
 454,03; 8805,849;  202,644;15906,960;54,78242
 454,61; 8809,444;  191,798;15898,889;54,86468
 455,20; 8916,278;  218,645;16022,343;55,03543
 455,79; 8909,618;  216,952;16018,447;55,01167
 456,38; 8987,782;  224,183;16123,486;55,11939
 456,97; 9031,063;  203,337;16212,360;55,14219
 457,55; 8994,518;  206,799;16181,497;55,01024
 458,14; 9018,876;  225,029;16148,192;55,22676
 458,73; 8943,053;  219,799;16057,076;55,08052
 459,31; 9064,684;  241,876;16120,625;55,56362
 459,90; 9060,939;  252,184;16294,142;54,91073
 460,49; 9163,739;  255,338;16293,941;55,54350
 461,08; 9178,680;  204,338;16456,660;55,21883
 461,66; 9158,639;  214,107;16525,378;54,83651
 462,25; 9262,861;  222,646;16612,370;55,15782
 462,84; 9263,600;  254,877;16583,162;55,17250
 463,43; 9212,849;  185,954;16564,634;55,11369
 464,01; 9276,962;  215,416;16600,833;55,30251
 464,60; 9249,389;  255,185;16541,332;55,22610
 465,19; 9071,960;  186,185;16280,073;55,21211
 465,77; 9013,847;  208,108;16224,816;54,97845
 466,36; 8998,784;  213,646;16079,451;55,37153
 466,95; 8785,510;  208,262;15675,404;55,45464
 467,53; 8588,301;  206,955;15353,045;55,33670
 468,12; 8397,010;  232,339;15045,237;55,11866
 468,71; 8310,597;  210,954;14836,132;55,38150
 469,29; 8097,145;  198,570;14501,362;55,22400
 469,88; 7975,391;  205,186;14282,025;55,19851
 470,47; 8055,046;  260,494;14413,224;55,07454
 471,06; 8014,256;  220,571;14387,442;55,01346
 471,64; 8096,242;  224,340;14464,133;55,28102
 472,23; 8035,896;  189,571;14523,674;54,73886
 472,81; 8073,735;  188,725;14656,674;54,49985
 473,40; 8163,993;  200,956;14772,748;54,64693
 473,99; 8286,556;  265,110;14980,228;54,51160
 474,57; 8293,936;  206,571;15143,530;54,14332
 475,16; 8402,016;  224,110;15394,527;53,90693
 475,75; 8447,545;  224,572;15414,590;54,13406
 476,33; 8502,186;  234,187;15502,849;54,15012
 476,92; 8550,662;  237,110;15605,929;54,09363
 477,51; 8580,693;  221,726;15663,640;54,13168
 478,09; 8530,511;  217,803;15644,369;53,88567
 478,68; 8483,202;  238,572;15603,456;53,65891
 479,27; 8514,974;  240,956;15674,837;53,60945
 479,85; 8490,234;  219,803;15637,978;53,64079
 480,44; 8552,645;  208,110;15856,166;53,32634
 481,02; 9403,018;  219,188;17968,451;51,74204
 481,61;10544,275;  248,264;19970,767;52,20438
 482,20;11176,849;  235,341;21240,690;52,08915
 482,78;11660,126;  267,033;22083,887;52,22152
 483,37;11990,597;  256,957;22430,942;52,91624
 483,95;12113,108;  285,419;22760,871;52,62492
 484,54;12222,356;  297,034;22980,650;52,57240
 485,13;12080,713;  249,111;22742,125;52,60123
 485,71;11954,100;  236,034;22475,039;52,69150
 486,30;11787,764;  279,111;22180,537;52,54750
 486,88;11591,490;  295,881;21674,398;52,83626
 487,47;11152,524;  283,573;20857,412;52,82899
 488,05;10640,563;  272,419;19825,109;53,02669
 488,64; 9866,690;  276,881;18192,310;53,52822
 489,23; 8753,318;  285,035;15745,010;54,77553
 489,81; 7591,299;  281,035;13849,581;53,87655
 490,40; 7210,714;  232,420;13397,359;53,00665
 490,98; 6997,720;  221,497;13073,242;52,72609
 491,57; 7033,124;  255,804;13059,061;52,93435
 492,15; 6935,215;  235,420;12974,733;52,59149
 492,74; 6860,515;  234,650;12846,903;52,53514
 493,32; 6799,626;  243,881;12749,573;52,42209
 493,91; 6711,355;  240,420;12637,603;52,19682
 494,50; 6697,223;  243,420;12650,727;52,01615
 495,08; 6621,361;  215,420;12512,058;52,09505
 495,67; 6618,897;  247,112;12491,178;52,03978
 496,25; 6472,805;  184,574;12416,349;51,40898
 496,84; 6485,816;  204,728;12390,787;51,54322
 497,42; 6446,577;  200,497;12326,303;51,51063
 498,01; 6399,189;  215,728;12255,632;51,35806
 498,59; 6344,035;  190,036;12186,805;51,29714
 499,18; 6293,113;  187,651;12114,924;51,18909
 499,76; 6259,020;  216,189;11966,896;51,42526
 500,35; 6099,189;  204,036;11786,830;50,89578
 500,93; 6112,981;  196,113;11749,085;51,21512
 501,52; 6048,205;  195,959;11697,027;50,88437
 502,10; 5985,141;  211,498;11619,679;50,60967
 502,69; 5896,205;  191,882;11415,840;50,82273
 503,27; 5733,511;  186,805;11186,637;50,42537
 503,86; 5711,066;  192,036;11204,325;50,11701
 504,44; 5599,697;  179,113;11002,449;50,08237
 505,03; 5472,863;  170,113;10733,959;50,19715
 505,61; 5363,748;  170,729;10617,000;49,71170
 506,19; 5324,676;  205,806;10445,759;49,98919
 506,78; 5156,590;  173,498;10168,059;49,85804
 507,36; 5085,206;  190,959;10037,887;49,70329
 507,95; 4981,812;  189,883; 9848,550;49,61274
 508,53; 4928,133;  184,114; 9732,004;49,68657
 509,12; 4842,026;  197,037; 9524,512;49,79899
 509,70; 4733,327;  200,729; 9443,900;49,03726
 510,29; 4649,824;  206,499; 9226,253;49,26216
 510,87; 4578,801;  175,652; 9074,139;49,48199
 511,46; 4434,349;  180,575; 8843,750;49,10178
 512,04; 4369,931;  196,883; 8702,130;49,06440
 512,62; 4297,859;  185,883; 8533,403;49,25985
 513,21; 4175,497;  167,422; 8325,086;49,13263
 513,79; 4101,532;  178,961; 8262,228;48,52706
 514,38; 4011,091;  159,191; 8057,646;48,76776
 514,96; 3963,078;  194,884; 7984,845;48,37244
 515,54; 3873,097;  167,038; 7780,852;48,67546
 516,13; 3832,608;  187,807; 7717,258;48,40726
 516,71; 3720,252;  185,499; 7564,707;47,90152
 517,30; 3664,689;  173,884; 7383,421;48,41927
 517,88; 3619,349;  185,346; 7380,376;47,72743
 518,46; 3530,003;  182,730; 7217,165;47,58410
 519,05; 3533,455;  173,346; 7161,810;48,08080
 519,63; 3456,243;  188,192; 7105,007;47,24792
 520,22; 3436,602;  193,962; 7021,946;47,49045
 520,80; 3386,295;  171,808; 6988,162;47,15846
 521,38; 3401,444;  206,192; 6901,977;47,72034
 521,97; 3313,440;  172,270; 6909,575;46,62354
 522,55; 3331,480;  188,270; 6874,201;47,01231
 523,13; 3288,689;  175,962; 6833,198;46,75706
 523,72; 3273,970;  171,115; 6841,505;46,51685
 524,30; 3316,980;  204,808; 7000,123;45,79878
 524,89; 3307,056;  167,193; 7005,329;45,91695
 525,47; 3352,172;  192,885; 7125,620;45,57056
 526,05; 3347,310;  159,193; 7138,613;45,67883
 526,64; 3396,170;  191,501; 7231,768;45,51915
 527,22; 3430,034;  188,424; 7391,074;45,00580
 527,80; 3498,870;  223,501; 7539,195;44,77182
 528,39; 3495,181;  183,809; 7687,979;44,12709
 528,97; 3556,681;  180,193; 7809,328;44,25781
 529,55; 3606,252;  198,962; 8015,293;43,59194
 530,14; 3689,288;  204,886; 8249,588;43,31300
 530,72; 3735,268;  189,116; 8305,827;43,68952
 531,30; 3724,827;  169,424; 8459,496;42,88748
 531,89; 3804,418;  191,501; 8534,631;43,30409
 532,47; 3856,565;  213,040; 8625,173;43,31274
 533,05; 3869,822;  207,270; 8632,158;43,47300
 533,63; 3850,202;  211,424; 8749,848;42,61650
 534,22; 3836,161;  188,501; 8791,222;42,40124
 534,80; 3904,174;  208,655; 8853,756;42,74697
 535,38; 3989,787;  275,886; 8898,008;43,07410
 535,97; 3889,485;  206,578; 8900,999;42,35942
 536,55; 3950,110;  243,040; 8965,481;42,50038
 537,13; 3944,219;  254,270; 8946,000;42,45356
 537,71; 3976,680;  292,193; 9061,938;42,01361
 538,30; 3996,783;  307,963; 9077,428;42,06437
 538,88; 4051,478;  341,040; 9183,698;41,96066
 539,46; 4179,676;  399,271; 9398,690;42,00722
 540,05; 4213,894;  408,348; 9550,944;41,62435
 540,63; 4316,133;  458,655; 9772,278;41,41758
 541,21; 4406,719;  477,579; 9910,233;41,65466
 541,79; 4427,310;  510,579;10030,445;41,14271
 542,38; 4504,585;  546,117;10221,344;40,91344
 542,96; 4584,095;  549,117;10407,554;40,92918
 543,54; 4693,115;  565,425;10603,450;41,12054
 544,12; 4710,703;  536,809;10752,456;40,85785
 544,70; 4706,472;  502,194;10843,896;40,65363
 545,29; 4771,800;  515,655;10970,737;40,70886
 545,87; 4761,156;  498,963;10975,829;40,68194
 546,45; 4671,706;  465,502;11027,299;39,82471
 547,03; 4759,288;  422,886;11113,555;40,56249
 547,62; 4744,812;  401,271;11293,363;39,87793
 548,20; 4785,260;  408,502;11475,233;39,54879
 548,78; 4779,962;  372,887;11560,463;39,39259
 549,36; 4814,468;  348,579;11804,510;38,98320
 549,94; 4811,506;  300,886;11939,025;38,75723
 550,53; 4906,434;  316,887;12176,495;38,69897
 551,11; 4906,094;  283,733;12333,782;38,35968
 551,69; 5058,524;  286,810;12701,743;38,43528
 552,27; 5086,205;  254,810;12968,716;38,00087
 552,85; 5178,045;  251,349;13359,822;37,58406
 553,44; 5269,617;  255,964;13683,196;37,33944
 554,02; 5361,805;  266,195;14035,057;37,00821
 554,60; 5446,005;  202,887;14335,565;37,09925
 555,18; 5561,674;  265,810;14769,183;36,51470
 555,76; 5682,125;  230,964;15101,336;36,65786
 556,34; 5779,155;  232,426;15500,831;36,32815
 556,93; 5911,642;  213,964;15928,892;36,25647
 557,51; 6006,536;  202,349;16232,502;36,20793
 558,09; 6112,759;  225,964;16663,672;35,81275
 558,67; 6198,915;  228,964;17046,783;35,49777
 559,25; 6286,051;  219,349;17289,914;35,53896
 559,83; 6380,549;  222,041;17666,482;35,30355
 560,41; 6470,639;  221,118;18092,111;34,97020
 561,00; 6627,863;  225,041;18387,571;35,25292
 561,58; 6638,825;  214,195;18606,710;34,93068
 562,16; 6759,053;  205,964;18977,926;34,90892
 562,74; 6822,918;  204,579;19399,816;34,47907
 563,32; 6972,808;  190,041;19853,753;34,49383
 563,90; 7058,773;  219,503;20234,754;34,17030
 564,48; 7167,278;  216,580;20709,776;33,91710
 565,06; 7377,246;  217,964;21330,740;33,90972
 565,65; 7606,193;  211,965;22108,701;33,76863
 566,23; 7888,284;  256,580;22934,406;33,65271
 566,81; 8054,848;  211,580;23718,492;33,36580
 567,39; 8401,720;  221,888;24719,674;33,39009
 567,97; 8557,691;  228,811;25351,994;33,15217
 568,55; 8877,326;  232,811;26207,678;33,28031
 569,13; 9095,664;  217,272;26990,385;33,16160
 569,71; 9399,466;  203,118;27980,119;33,10778
 570,29; 9738,735;  242,656;29092,807;32,91518
 570,87; 9985,522;  244,502;29913,214;32,83263
 571,45;10148,664;  241,503;30550,093;32,68763
 572,03;10280,855;  195,195;31007,646;32,73242
 572,61;10528,111;  203,503;31830,593;32,64483
 573,20;10698,479;  224,195;32535,115;32,41716
 573,78;10890,743;  213,272;33207,570;32,36157
 574,36;11048,754;  226,964;33632,418;32,39528
 574,94;11158,682;  261,657;33911,771;32,38332
 575,52;11163,117;  235,427;34266,879;32,11056
 576,10;11347,548;  280,965;34851,132;32,01195
 576,68;11531,126;  254,811;35575,810;31,92524
 577,26;11707,197;  284,965;36289,971;31,72401
 577,84;11811,836;  289,965;36750,654;31,60080
 578,42;11900,279;  316,657;37033,112;31,54886
 579,00;11858,832;  271,426;37053,464;31,50289
 579,58;11898,127;  311,657;37332,472;31,29718
 580,16;11865,223;  285,042;37284,248;31,29846
 580,74;11878,470;  284,426;37554,224;31,10842
 581,32;11815,857;  296,196;37586,676;30,89169
 581,90;11750,085;  310,196;37581,009;30,69396
 582,48;11686,850;  307,426;37677,757;30,45042
 583,06;11660,059;  300,811;37746,037;30,33564
 583,64;11587,581;  304,349;37780,599;30,10769
 584,22;11463,236;  313,350;37545,859;29,94664
 584,80;11274,275;  307,503;37180,475;29,74203
 585,38;11076,276;  319,349;36758,709;29,52008
 585,96;11040,161;  294,888;36902,600;29,35249
 586,54;10984,769;  315,504;36956,176;29,11864
 587,12;10921,439;  282,580;37117,071;28,88287
 587,70;10947,947;  311,195;37185,499;28,84597
 588,28;10864,852;  302,042;37143,111;28,67129
 588,86;10851,225;  300,811;37268,571;28,53950
 589,44;10757,758;  280,735;37308,523;28,29503
 590,02;10799,469;  291,119;37426,182;28,29765
 590,59;10801,093;  266,580;37666,399;28,16728
 591,17;10754,291;  269,889;37827,013;27,91588
 591,75;10727,417;  256,965;37972,087;27,76194
 592,33;10752,694;  275,888;38186,632;27,63545
 592,91;10721,565;  230,581;38399,691;27,48553
 593,49;10826,353;  240,581;38748,375;27,48995
 594,07;10802,677;  246,735;38931,213;27,28728
 594,65;10762,899;  265,504;38898,142;27,17235
 595,23;10760,922;  257,811;39352,694;26,86569
 595,81;10811,944;  249,581;39469,737;26,93096
 596,39;10754,706;  245,581;39543,926;26,74190
 596,97;10757,310;  241,504;39798,288;26,58408
 597,55;10709,613;  237,811;39651,571;26,56890
 598,12;10677,760;  246,120;39626,649;26,48933
 598,70;10677,736;  228,043;39852,344;26,37193
 599,28;10686,926;  251,119;39977,257;26,26937
 599,86;10594,460;  234,350;40039,943;26,02677
 600,44;10527,300;  208,966;40177,255;25,81630
 601,02;10561,915;  259,966;40228,736;25,77500
 601,60;10515,708;  237,812;40202,710;25,71731
 602,18;10411,306;  217,735;40097,307;25,56088
 602,75;10324,466;  215,119;40249,607;25,25160
 603,33;10308,643;  236,889;40295,737;25,14240
 603,91;10267,147;  223,043;40138,357;25,16353
 604,49;10257,676;  250,658;40288,167;24,99411
 605,07;10246,060;  251,042;40263,127;24,98000
 605,65;10254,094;  260,273;40471,874;24,85308
 606,23;10197,671;  331,657;40515,733;24,55205
 606,80;10250,672;  361,196;40525,896;24,62231
 607,38;10178,563;  397,889;40587,125;24,33655
 607,96;10147,688;  454,350;40587,503;24,15295
 608,54;10178,531;  511,197;40653,470;24,08268
 609,12;10094,555;  512,581;40764,347;23,80510
 609,70;10088,670;  552,966;40734,177;23,73175
 610,27;10075,161;  555,042;40801,490;23,65456
 610,85;10009,779;  551,196;40905,160;23,43904
 611,43; 9951,801;  557,812;40867,604;23,30448
 612,01; 9882,740;  517,350;40518,863;23,41259
 612,59; 9844,428;  522,427;40590,898;23,26518
 613,16; 9682,952;  480,657;40654,339;22,90628
 613,74; 9621,756;  453,658;40488,188;22,90048
 614,32; 9554,167;  417,350;40340,468;22,88603
 614,90; 9493,385;  384,812;40241,242;22,85346
 615,48; 9298,549;  331,042;39964,541;22,62608
 616,05; 9263,761;  308,811;39898,288;22,61952
 616,63; 9208,359;  318,273;39639,727;22,60874
 617,21; 9152,303;  332,658;39528,903;22,50125
 617,79; 9062,216;  301,581;39520,040;22,33804
 618,36; 8967,651;  312,042;39418,339;22,13354
 618,94; 8824,371;  249,042;39104,815;22,06964
 619,52; 8764,230;  275,119;38882,576;21,98827
 620,10; 8675,770;  266,735;38715,509;21,87075
 620,67; 8585,472;  275,042;38774,563;21,58580
 621,25; 8573,773;  291,119;38557,432;21,64477
 621,83; 8488,229;  268,581;38479,478;21,51127
 622,41; 8482,569;  307,581;38411,001;21,45474
 622,98; 8397,759;  285,888;38252,334;21,36590
 623,56; 8308,402;  286,196;38230,543;21,14203
 624,14; 8242,010;  267,196;38002,253;21,13370
 624,72; 8179,258;  267,119;37973,980;20,98329
 625,29; 8151,054;  248,811;38047,764;20,90598
 625,87; 8076,548;  293,042;38038,366;20,62111
 626,45; 8012,114;  247,119;37783,187;20,68676
 627,02; 7935,399;  251,735;37628,141;20,55752
 627,60; 7869,316;  242,350;37684,324;20,37010
 628,18; 7883,401;  241,273;37768,578;20,36418
 628,76; 7753,545;  230,427;37731,465;20,06109
 629,33; 7737,604;  258,580;37792,406;19,92609
 629,91; 7697,770;  256,888;37646,970;19,90068
 630,49; 7744,316;  266,504;37850,895;19,89606
 631,06; 7714,267;  260,580;37942,027;19,78079
 631,64; 7676,361;  250,426;37932,856;19,70662
 632,22; 7588,407;  215,734;37806,724;19,61287
 632,79; 7602,906;  246,426;38100,867;19,43360
 633,37; 7618,428;  225,273;38199,535;19,46886
 633,95; 7604,029;  231,273;38183,468;19,42643
 634,52; 7576,274;  220,042;38426,202;19,25405
 635,10; 7513,627;  219,658;38358,111;19,12498
 635,68; 7522,497;  230,811;38613,772;18,99719
 636,25; 7488,732;  216,426;38579,276;18,95664
 636,83; 7459,776;  202,580;38728,080;18,83738
 637,41; 7470,593;  211,888;38767,877;18,82640
 637,98; 7512,754;  234,042;38993,842;18,77902
 638,56; 7473,986;  219,272;39084,864;18,66616
 639,13; 7415,188;  221,734;39174,443;18,46715
 639,71; 7473,327;  251,273;39337,189;18,47738
 640,29; 7372,413;  189,965;39119,223;18,45000
 640,86; 7332,638;  202,350;39287,655;18,24289
 641,44; 7302,631;  204,888;39340,471;18,13629
 642,02; 7245,087;  237,965;39258,826;17,95737
 642,59; 7248,389;  213,350;39387,719;17,95827
 643,17; 7189,536;  212,119;39379,920;17,81417
 643,74; 7162,300;  210,504;39459,352;17,71210
 644,32; 7133,601;  227,119;39378,938;17,64026
 644,89; 7085,518;  225,119;39367,062;17,52698
 645,47; 7082,281;  246,196;39331,417;17,49021
 646,05; 6971,583;  218,888;39319,925;17,26986
 646,62; 6881,885;  228,965;39372,588;16,99618
 647,20; 6905,263;  232,888;39402,635;17,03451
 647,77; 6853,642;  193,965;39253,605;17,05002
 648,35; 6806,482;  197,734;39207,191;16,94140
 648,92; 6815,399;  235,811;39205,238;16,88397
 649,50; 6744,316;  196,042;39167,978;16,80254
 650,08; 6653,771;  190,504;39030,871;16,64059
 650,65; 6693,227;  194,273;39391,841;16,57999
 651,23; 6827,682;  188,888;40426,042;16,49916
 651,80; 6967,599;  184,504;41327,243;16,48674
 652,38; 7100,516;  208,042;41660,444;16,62744
 652,95; 7087,664;  190,427;42079,184;16,46561
 653,53; 7101,350;  198,196;42293,846;16,39874
 654,10; 7137,575;  225,196;42352,740;16,40822
 654,68; 7075,569;  193,427;42393,402;16,30840
 655,25; 7074,255;  192,427;42359,219;16,32049
 655,83; 7025,480;  191,427;42474,266;16,16271
 656,40; 7055,089;  226,427;42427,467;16,18127
 656,98; 6982,391;  192,735;42242,129;16,14686
 657,55; 6968,000;  206,888;42173,407;16,11073
 658,13; 6844,994;  181,273;41698,454;16,05051
 658,70; 6699,065;  207,812;41351,656;15,77697
 659,28; 6532,751;  206,196;40187,549;15,82376
 659,85; 6353,438;  201,658;39548,750;15,63465
 660,43; 6393,816;  223,735;39614,412;15,66381
 661,00; 6331,502;  203,273;39858,690;15,45370
 661,58; 6350,035;  186,658;40191,430;15,40660
 662,15; 6351,106;  182,581;40429,015;15,32689
 662,73; 6396,869;  238,965;40668,755;15,23110
 663,30; 6369,017;  196,965;40872,571;15,17384
 663,88; 6376,318;  204,735;41060,772;15,10568
 664,45; 6415,928;  188,658;41364,743;15,12351
 665,03; 6430,691;  199,812;41705,867;15,01198
 665,60; 6579,454;  256,042;42058,991;15,12671
 666,17; 6416,679;  199,735;42310,730;14,76323
 666,75; 6492,211;  201,042;42626,085;14,82890
 667,32; 6546,359;  217,658;42924,748;14,81885
 667,90; 6524,199;  211,196;43205,103;14,68348
 668,47; 6573,270;  220,735;43481,227;14,68438
 669,05; 6545,879;  194,427;43837,428;14,55320
 669,62; 6583,181;  182,966;43827,475;14,66442
 670,19; 6529,790;  179,042;43903,676;14,52442
 670,77; 6576,169;  199,350;44081,646;14,53164
 671,34; 6582,547;  192,043;44029,078;14,57787
 671,92; 6544,387;  183,812;44422,741;14,37778
 672,49; 6564,151;  202,427;44412,249;14,38984
 673,06; 6511,452;  168,735;44470,527;14,31707
 673,64; 6492,600;  176,658;44374,574;14,29014
 674,21; 6457,902;  179,196;44332,545;14,22022
 674,79; 6548,357;  194,427;44712,130;14,27282
 675,36; 6469,736;  204,658;44691,562;14,08297
 675,93; 6445,268;  182,812;44607,686;14,09673
 676,51; 6492,647;  205,120;44758,887;14,11222
 677,08; 6460,410;  204,350;44770,473;14,03770
 677,65; 6473,250;  207,350;44997,289;13,98952
 678,23; 6546,475;  200,120;45220,490;14,09663
 678,80; 6495,392;  192,658;45409,153;13,93901
 679,38; 6495,462;  180,043;45516,123;13,93023
 679,95; 6556,149;  196,273;45780,093;13,95205
 680,52; 6550,527;  188,273;46156,987;13,84040
 681,10; 6642,598;  195,427;46372,034;13,96198
 681,67; 6614,515;  196,812;46758,466;13,78324
 682,24; 6618,201;  178,889;46751,667;13,82634
 682,82; 6694,118;  190,350;47447,252;13,76258
 683,39; 6754,420;  222,197;47756,992;13,74198
 683,96; 6783,876;  192,966;48020,501;13,78058
 684,54; 6786,716;  169,889;48379,163;13,72522
 685,11; 6835,094;  214,966;48699,441;13,65412
 685,68; 6865,473;  204,120;49063,488;13,63373
 686,25; 6800,390;  179,812;49106,766;13,53156
 686,83; 6897,538;  186,812;49313,506;13,66004
 687,40; 6907,070;  182,812;49672,630;13,58715
 687,97; 6978,449;  218,043;50095,677;13,55398
 688,55; 6928,289;  172,581;50087,493;13,53445
 689,12; 6955,744;  165,197;50476,156;13,49715
 689,69; 6988,661;  178,351;50406,280;13,55881
 690,26; 6973,117;  174,889;50529,250;13,50077
 690,84; 6941,187;  179,658;50761,374;13,36754
 691,41; 6970,720;  197,427;50830,268;13,37727
 691,98; 6986,175;  191,812;51103,469;13,34540
 692,56; 6984,631;  178,504;51218,362;13,33492
 693,13; 7020,779;  238,889;51178,563;13,31357
 693,70; 7049,619;  205,889;51408,149;13,36607
 694,27; 7009,228;  176,581;51558,580;13,29774
 694,84; 7038,914;  182,351;51652,089;13,32154
 695,42; 7109,139;  221,120;51597,521;13,40697
 695,99; 7098,671;  189,428;51860,645;13,37155
 696,56; 7092,665;  175,197;51781,846;13,40422
 697,13; 7160,890;  195,889;52116,893;13,41461
 697,71; 7131,192;  167,274;52217,248;13,37929
 698,28; 7143,724;  187,197;52507,295;13,29609
 698,85; 7162,026;  152,735;52560,650;13,37449
 699,42; 7154,866;  176,505;52729,236;13,27878
 699,99; 7205,783;  197,658;52862,437;13,30704
 700,57; 7252,777;  202,428;52872,792;13,38580
 701,14; 7284,002;  175,966;52889,685;13,48422
 701,71; 7272,303;  196,735;53186,578;13,35269
 702,28; 7281,913;  183,274;53135,010;13,40587
 702,85; 7279,214;  190,197;53235,673;13,36404
 703,43; 7354,670;  201,735;53567,412;13,40362
 704,00; 7364,587;  216,197;53752,613;13,35239
 704,57; 7380,119;  200,658;53756,507;13,40556
 705,14; 7404,728;  227,812;53921,708;13,36635
 705,71; 7415,107;  229,351;53972,524;13,37055
 706,28; 7386,562;  205,812;53836,417;13,38928
 706,86; 7439,172;  243,966;54208,388;13,33324
 707,43; 7440,627;  246,735;54119,358;13,35352
 708,00; 7472,852;  224,966;54205,790;13,42678
 708,57; 7381,769;  206,889;53966,298;13,34628
 709,14; 7483,686;  228,735;54224,576;13,43613
 709,71; 7477,757;  210,812;54160,008;13,46998
 710,28; 7523,366;  203,274;54413,517;13,50315
 710,86; 7508,129;  220,659;54615,410;13,39738
 711,43; 7603,354;  226,736;54592,611;13,56847
 712,00; 7596,733;  209,274;54738,197;13,54778
 712,57; 7597,496;  207,889;54805,629;13,53464
 713,14; 7661,336;  194,505;54915,830;13,64519
 713,71; 7658,561;  213,812;54751,031;13,65077
 714,28; 7640,016;  204,043;54965,462;13,57885
 714,85; 7593,625;  184,736;54614,433;13,61185
 715,42; 7687,004;  205,813;54796,480;13,70416
 716,00; 7776,998;  240,889;54925,296;13,78109
 716,57; 7710,761;  196,659;55051,267;13,69822
 717,14; 7736,601;  184,197;55061,544;13,76233
 717,71; 7740,287;  175,659;55038,669;13,78821
 718,28; 7779,281;  212,582;55201,023;13,76053
 718,85; 7781,583;  184,890;55088,994;13,83629
 719,42; 7872,577;  203,274;55255,425;13,93098
 719,99; 7829,417;  185,890;55139,242;13,90912
 720,56; 7868,565;  190,736;55352,520;13,91875
 721,13; 7908,482;  189,274;55473,182;13,96285
 721,70; 7874,245;  179,582;55344,460;13,94848
 722,27; 7947,239;  204,351;55323,123;14,04764
 722,84; 8028,771;  231,351;55580,709;14,08764
 723,41; 7916,919;  188,428;55544,910;13,96131
 723,98; 7994,605;  206,582;55718,034;14,02958
 724,55; 8037,522;  212,967;55811,158;14,07340
 725,12; 8005,593;  152,043;55726,205;14,13166
 725,69; 8060,895;  191,813;55993,021;14,10199
 726,27; 8080,658;  196,582;56056,607;14,11399
 726,84; 8134,037;  194,659;56335,116;14,14199
 727,41; 8177,261;  201,197;56236,317;14,23404
 727,98; 8220,717;  209,890;56581,287;14,21080
 728,55; 8281,788;  219,659;56459,488;14,33527
 729,12; 8260,782;  170,428;56522,304;14,35685
 729,69; 8349,622;  208,428;56703,275;14,41051
 730,26; 8376,308;  220,197;56955,706;14,37567
 730,82; 8347,764;  188,736;56848,677;14,39999
 731,39; 8408,757;  195,505;56936,955;14,47487
 731,96; 8465,367;  177,659;57276,540;14,51466
 732,53; 8510,361;  205,659;57489,203;14,49753
 733,10; 8538,201;  204,967;57472,942;14,55130
 733,67; 8629,195;  202,351;57720,836;14,65067
 734,24; 8588,189;  189,890;57335,344;14,69636
 734,81; 8664,721;  224,274;57488,238;14,73954
 735,38; 8605,946;  199,044;57064,516;14,78384
 735,95; 8597,632;  196,582;57047,563;14,77732
 736,52; 8649,011;  211,659;57259,072;14,79007
 737,09; 8610,928;  207,044;56841,811;14,83874
 737,66; 8685,537;  243,351;57003,089;14,87355
 738,23; 8671,839;  212,967;57072,290;14,87684
 738,80; 8836,140;  237,967;57224,414;15,08810
 739,37; 8802,134;  225,890;57565,538;14,95692
 739,94; 8815,513;  210,044;57662,201;14,97850
 740,51; 8939,430;  281,044;57624,633;15,09914
 741,07; 8874,731;  195,813;57570,603;15,12671
 741,64; 8942,571;  236,659;57748,342;15,13764
 742,21; 8970,796;  197,351;57784,774;15,23500
 742,78; 8977,559;  172,890;57592,975;15,33378
 743,35; 9009,784;  202,044;57862,022;15,27531
 743,92; 9101,547;  232,967;57863,300;15,38874
 744,49; 9090,618;  210,736;57890,270;15,39520
 745,06; 9098,843;  196,659;57883,933;15,43180
 745,63; 9132,991;  184,121;57887,673;15,50835
 746,19; 9137,754;  194,890;57883,489;15,50196
 746,76; 9091,979;  204,121;57854,844;15,41673
 747,33; 9176,280;  193,505;57855,506;15,57833
 747,90; 9272,582;  218,890;58128,477;15,63418
 748,47; 9308,114;  224,890;57917,755;15,74410
 749,04; 9353,339;  217,582;57928,186;15,83029
 749,61; 9388,564;  225,275;57930,618;15,87945
 750,17; 9379,404;  231,890;58048,204;15,82168
 750,74; 9434,552;  216,736;57886,328;15,98384
 751,31; 9448,699;  193,582;57814,144;16,06218
 751,88; 9442,309;  182,429;57683,653;16,10380
 752,45; 9573,149;  202,505;57890,623;16,24363
 753,02; 9554,681;  207,429;57675,055;16,26525
 753,58; 9590,214;  185,813;57587,102;16,38360
 754,15; 9601,977;  187,582;57867,688;16,32174
 754,72; 9610,663;  191,736;57590,581;16,40961
 755,29; 9614,811;  191,121;57369,244;16,48129
 755,86; 9696,497;  202,813;57576,214;16,54719
 756,42; 9716,722;  205,813;57391,030;16,63176
 756,99; 9772,946;  177,275;57450,231;16,75428
 757,56; 9784,710;  197,583;57420,202;16,75409
 758,13; 9723,780;  157,967;57159,095;16,78180
 758,70; 9900,313;  180,659;57218,681;17,04066
 759,26; 9877,153;  179,506;57355,728;16,96098
 759,83; 9960,455;  184,659;57453,698;17,06995
 760,40; 9973,602;  170,044;57199,591;17,19031
 760,97;10019,904;  166,813;57254,408;17,25960
 761,53; 9909,975;  150,275;56895,686;17,19910
 762,10; 9975,892;  161,660;56964,964;17,27757
 762,67;10044,040;  191,660;56804,626;17,40305
 763,24; 9969,111;  148,583;56295,981;17,49062
 763,80;10060,566;  178,044;56531,798;17,53658
 764,37;10053,406;  179,813;56466,768;17,54153
 764,94; 9989,631;  168,736;55931,584;17,61190
 765,50;10061,702;  164,352;55935,554;17,74634
 766,07;10136,619;  206,352;56058,986;17,77941
 766,64;10060,690;  177,121;55645,341;17,81843
 767,21;10119,299;  171,890;55546,850;17,96373
 767,77;10117,831;  203,044;55444,205;17,94819
 768,34;10188,595;  193,737;55432,560;18,09390
 768,91;10203,435;  192,583;55187,530;18,20322
 769,47;10180,198;  198,813;55212,039;18,14361
 770,04;10260,038;  206,506;55181,624;18,28742
 770,61;10158,647;  174,660;54959,364;18,22404
 771,18;10207,795;  170,198;54780,488;18,38041
 771,74;10301,250;  194,429;54899,227;18,47520
 772,31;10252,014;  197,044;54632,582;18,47133
 772,88;10255,777;  168,044;54479,322;18,57392
 773,44;10255,463;  185,044;54184,292;18,64918
 774,01;10281,534;  193,814;54340,647;18,63031
 774,58;10317,143;  178,275;53962,155;18,85113
 775,14;10353,214;  169,198;54196,664;18,84970
 775,71;10346,131;  176,506;54065,327;18,87149
 776,27;10427,894;  220,275;53907,835;19,01301
 776,84;10479,888;  238,044;53973,575;19,05972
 777,41;10448,651;  196,967;53729,468;19,15039
 777,97;10433,799;  187,737;53504,515;19,21733
 778,54;10465,332;  198,275;53530,486;19,25114
 779,11;10509,402;  213,352;53513,379;19,31716
 779,67;10529,858;  171,737;53421,657;19,45190
 780,24;10542,313;  199,352;53172,166;19,52504
 780,80;10657,538;  199,121;53242,136;19,71686
 781,37;10614,763;  202,891;53157,568;19,66186
 781,94;10593,680;  192,429;52956,230;19,71285
 782,50;10637,289;  200,044;52875,585;19,81421
 783,07;10695,437;  219,660;53026,632;19,83787
 783,63;10663,585;  191,583;52769,680;19,91704
 784,20;10621,271;  211,045;52526,804;19,89883
 784,77;10671,034;  201,198;52434,697;20,04429
 785,33;10604,797;  181,737;52201,052;20,03690
 785,90;10694,484;  192,198;52177,561;20,20239
 786,46;10657,093;  217,275;51982,992;20,16744
 787,03;10695,164;  179,045;51778,040;20,38047
 787,59;10747,158;  186,045;51767,394;20,47467
 788,16;10739,767;  212,429;51729,826;20,43453
 788,73;10742,761;  204,814;51557,720;20,52064
 789,29;10717,832;  194,891;51128,305;20,66019
 789,86;10794,826;  201,583;51112,583;20,80738
 790,42;10760,128;  200,737;50957,553;20,80389
 790,99;10761,891;  222,737;50473,601;20,97308
 791,55;10794,808;  191,660;50591,648;21,03800
 792,12;10847,109;  213,891;50651,926;21,08175
 792,68;10778,873;  197,737;50201,665;21,16061
 793,25;10774,405;  206,737;49911,482;21,26088
 793,81;10831,245;  239,199;49631,529;21,44472
 794,38;10708,085;  181,583;49369,807;21,40045
 794,94;10752,387;  195,429;49160,854;21,56002
 795,51;10671,842;  213,583;49002,901;21,43555
 796,07;10645,452;  207,660;48750,794;21,50210
 796,64;10710,984;  222,122;48777,611;21,60181
 797,20;10659,593;  212,814;48362,427;21,69650
 797,77;10626,049;  194,660;48004,013;21,81872
 798,33;10581,197;  192,276;47803,983;21,82010
 798,90;10633,190;  221,045;47785,338;21,89068
 799,46;10595,415;  200,583;47269,385;22,08434
 800,03;10602,871;  206,352;47162,048;22,14112
 800,59;10602,788;  218,891;46871,018;22,25814
 801,15;10590,089;  214,891;46787,680;22,27738
 801,72;10566,314;  201,968;46438,266;22,41604
 802,28;10528,154;  235,506;46138,852;22,42243
 802,85;10496,840;  214,122;45847,130;22,53351
 803,41;10502,065;  198,353;45765,485;22,61216
 803,98;10419,136;  200,122;45290,763;22,66327
 804,54;10395,284;  212,122;45030,502;22,72095
 805,11;10443,047;  216,737;44806,780;22,93407
 805,67;10437,579;  231,276;44752,212;22,92473
 806,23;10369,573;  210,737;44247,028;23,06924
 806,80;10386,106;  235,276;44246,921;23,06396
 807,36;10405,253;  231,199;44253,199;23,11130
 807,93;10375,171;  229,814;43874,554;23,24531
 808,49;10261,088;  195,968;43471,525;23,25821
 809,05;10254,697;  183,968;43316,495;23,34834
 809,62;10241,152;  232,660;43239,850;23,27167
 810,18;10280,377;  226,122;43062,281;23,47142
 810,74;10212,525;  177,891;42862,636;23,50871
 811,31;10209,673;  181,507;42578,991;23,65274
 811,87;10278,897;  205,353;42354,192;23,89993
 812,44;10261,891;  235,199;42481,316;23,73400
 813,00;10206,654;  158,353;42043,210;23,99030
 813,56;10295,495;  217,276;42186,718;24,01323
 814,13;10233,873;  210,122;42031,996;23,96772
 814,69;10242,482;  218,968;41868,659;24,06624
 815,25;10181,169;  176,814;41388,245;24,27568
 815,82;10268,240;  230,430;41435,984;24,36033
 816,38;10239,541;  228,045;41226,493;24,41921
 816,94;10110,151;  194,199;40905,617;24,35668
 817,51;10170,914;  193,353;40746,895;24,60343
 818,07;10107,523;  205,507;40307,173;24,69228
 818,63;10121,132;  212,661;40269,758;24,73587
 819,20;10068,588;  208,584;40081,806;24,72839
 819,76; 9969,889;  197,353;39707,853;24,73402
 820,32;10013,268;  231,891;39668,669;24,80268
 820,89; 9994,416;  235,045;39379,870;24,93145
 821,45; 9973,102;  197,276;39125,302;25,11257
 822,01; 9910,019;  216,584;38867,272;25,07959
 822,57; 9937,244;  224,353;38665,473;25,26693
 823,14; 9857,853;  186,738;38532,982;25,22050
 823,70; 9874,001;  193,814;38150,260;25,50341
 824,26; 9884,379;  206,353;38061,615;25,56587
 824,82; 9870,220;  218,738;37957,431;25,57450
 825,39; 9869,290;  198,276;37608,324;25,85138
 825,95; 9904,669;  225,045;37651,218;25,86325
 826,51; 9881,201;  215,738;37258,727;26,09256
 827,08; 9972,349;  240,815;37370,851;26,20933
 827,64; 9981,805;  218,968;37118,744;26,45771
 828,20; 9862,414;  191,584;36883,637;26,35674
 828,76; 9908,562;  225,276;36860,838;26,43138
 829,32; 9932,863;  230,968;36636,193;26,64973
 829,89; 9854,011;  194,353;36527,702;26,58620
 830,45; 9887,697;  199,815;36446,518;26,72762
 831,01; 9791,691;  200,968;36177,027;26,65863
 831,57; 9797,839;  203,892;36156,536;26,68496
 832,14; 9807,372;  203,276;36053,506;26,78949
 832,70; 9801,212;  200,815;35769,707;26,99099
 833,26; 9750,206;  181,738;35798,985;26,86470
 833,82; 9766,584;  196,738;35711,571;26,94606
 834,38; 9806,963;  195,045;35691,925;27,07820
 834,95; 9728,034;  203,815;35513,357;26,97350
 835,51; 9655,566;  164,122;35363,558;26,96476
 836,07; 9805,791;  198,353;35421,759;27,27572
 836,63; 9850,400;  222,815;35418,268;27,35463
 837,19; 9812,163;  200,353;35244,854;27,42744
 837,75; 9748,696;  178,045;34918,747;27,54881
 838,32; 9849,767;  224,430;35092,563;27,60497
 838,88; 9886,991;  219,199;35063,764;27,74548
 839,44; 9923,908;  199,661;35085,735;27,87430
 840,00; 9911,748;  196,430;34895,013;27,99918
 840,56; 9851,435;  192,507;34621,906;28,05430
 841,12; 9921,736;  181,584;34629,415;28,27508
 841,68; 9903,730;  175,276;34439,462;28,39249
 842,25; 9904,339;  194,969;34457,740;28,33796
 842,81; 9878,718;  186,584;34105,172;28,57470
 843,37; 9966,174;  167,892;34191,988;28,79807
 843,93; 9937,706;  195,738;34043,958;28,78133
 844,49;10056,392;  198,276;34133,313;29,04996
 845,05; 9955,694;  157,738;33943,745;29,00004
 845,61;10095,688;  204,046;33997,177;29,27116
 846,17;10032,912;  190,430;33835,993;29,25343
 846,73;10045,522;  210,584;33760,733;29,31414
 847,29; 9969,054;  177,969;33559,472;29,33087
 847,86;10010,587;  186,046;33541,827;29,45379
 848,42; 9987,119;  184,276;33285,951;29,61434
 848,98;10041,805;  194,892;33276,229;29,76577
 849,54;10061,030;  182,892;33273,199;29,85206
 850,10;10048,485;  193,430;33140,093;29,91215
 850,66;10045,633;  175,353;32964,140;30,10261
 851,22;10031,012;  175,969;32787,956;30,21908
 851,78;10048,852;  221,507;32957,542;30,01996
 852,34;10032,615;  204,815;32642,820;30,29718
 852,90; 9955,917;  191,815;32523,713;30,19959
 853,46; 9958,295;  182,892;32289,837;30,44638
 854,02; 9983,443;  197,969;32354,730;30,43053
 854,58; 9909,052;  190,353;32101,932;30,45509
 855,14; 9903,508;  175,507;32011,671;30,55645
 855,70; 9869,194;  162,046;31832,410;30,65057
 856,26; 9899,727;  210,200;31797,304;30,67558
 856,82; 9851,490;  186,661;31677,351;30,69107
 857,38; 9861,714;  205,738;31474,475;30,88061
 857,94; 9799,785;  191,584;31372,061;30,81480
 858,50; 9830,395;  199,584;31225,185;31,04150
 859,06; 9775,312;  181,200;31125,617;31,00434
 859,62; 9825,998;  201,354;31059,818;31,18964
 860,18; 9780,992;  192,892;30953,019;31,17055
 860,74; 9699,755;  164,815;30701,297;31,22475
 861,30; 9672,826;  174,969;30538,651;31,28032
 861,86; 9745,974;  221,354;30549,237;31,40549
 862,42; 9687,583;  194,584;30434,438;31,39234
 862,98; 9732,885;  218,200;30329,101;31,59880
 863,54; 9693,417;  203,892;30103,609;31,73784
 864,10; 9726,949;  193,969;30201,657;31,76846
 864,66; 9633,482;  175,661;29887,935;31,83136
 865,22; 9696,553;  193,892;29813,443;32,08239
 865,78; 9671,931;  201,892;29713,183;32,08955
 866,34; 9658,925;  181,661;29595,076;32,22089
 866,90; 9636,842;  199,508;29425,969;32,29038
 867,45; 9598,990;  197,277;29235,863;32,37662
 868,01; 9555,292;  197,969;29115,679;32,35845
 868,57; 9537,670;  191,277;28967,034;32,48010
 869,13; 9510,280;  179,200;28827,158;32,57153
 869,69; 9525,350;  186,815;28728,282;32,71918
 870,25; 9498,652;  175,277;28598,176;32,80234
 870,81; 9522,954;  191,738;28497,223;32,96610
 871,37; 9508,025;  196,277;28424,501;32,98737
 871,93; 9478,095;  208,431;28244,625;33,06321
 872,49; 9438,859;  211,200;28052,826;33,14339
 873,04; 9387,699;  175,662;27902,642;33,22409
 873,60; 9375,539;  177,046;27704,382;33,41585
 874,16; 9336,840;  203,585;27665,737;33,25761
 874,72; 9329,840;  202,277;27678,967;33,21930
 875,28; 9336,533;  200,969;27562,737;33,38806
 875,84; 9329,610;  195,508;27448,660;33,51576
 876,40; 9324,763;  194,815;27469,506;33,47407
 876,95; 9341,533;  201,200;27363,737;33,65051
 877,51; 9412,840;  222,046;27441,352;33,76572
 878,07; 9359,148;  232,892;27403,506;33,58870
 878,63; 9351,302;  187,431;27394,813;33,68156
 879,19; 9434,302;  202,738;27420,967;33,91684
 879,75; 9427,533;  192,662;27375,429;33,97326
 880,30; 9440,994;  186,200;27431,506;33,96840
 880,86; 9511,763;  232,123;27589,198;33,92044
 881,42; 9534,379;  182,123;27618,813;34,08668
 881,98; 9631,302;  214,585;27641,198;34,33423
 882,54; 9659,917;  195,738;27716,198;34,38961
 883,09; 9739,917;  201,815;27776,506;34,59006
 883,65; 9719,148;  192,738;27912,967;34,36627
 884,21; 9864,071;  210,431;28105,044;34,60754
 884,77; 9850,225;  189,200;28176,813;34,51893
 885,32; 9906,763;  194,969;28300,121;34,55521
 885,88;10088,840;  220,046;28479,275;34,92238
 886,44;10135,071;  213,662;28540,429;35,02486
 887,00;10232,994;  212,508;28577,967;35,32637
 887,56;10269,917;  197,354;28749,198;35,27815
 888,11;10273,763;  193,200;28698,813;35,36343
 888,67;10410,840;  223,969;28872,890;35,55761
 889,23;10375,840;  201,508;28810,121;35,56388
 889,79;10381,610;  182,277;28811,506;35,62559
 890,34;10407,071;  196,892;28675,275;35,85238
 890,90;10417,225;  241,508;28849,737;35,56920
 891,46;10433,687;  183,969;28693,352;35,95208
 892,01;10418,148;  223,200;28722,275;35,77291
 892,57;10406,379;  231,277;28595,198;35,87340
 893,13;10331,840;  202,815;28441,813;35,86892
 893,69;10346,148;  195,508;28309,583;36,10519
 894,24;10289,917;  206,585;28274,506;35,92476
 894,80;10252,071;  205,200;28011,813;36,13123
 895,36;10230,840;  213,123;28115,583;35,90263
 895,91;10185,763;  211,123;27745,044;36,22673
 896,47;10171,917;  212,123;27720,890;36,20589
 897,03;10100,687;  198,969;27481,737;36,29294
 897,58;10093,225;  213,969;27439,198;36,28714
 898,14;10048,994;  208,738;27180,121;36,48406
 898,70; 9982,917;  186,508;27003,660;36,53039
 899,25;10048,456;  200,969;27023,737;36,71316
 899,81;10050,840;  227,508;26837,044;36,91659
 900,37; 9912,302;  186,969;26631,813;36,77591
 900,92; 9920,840;  197,815;26642,352;36,76761
 901,48; 9939,533;  195,892;26476,813;37,07496
 902,03; 9859,610;  193,277;26345,967;36,96114
 902,59; 9924,763;  204,662;26182,121;37,41745
 903,15; 9903,917;  218,969;26068,275;37,46696
 903,70; 9858,610;  200,200;25846,506;37,66004
 904,26; 9783,763;  183,277;25718,121;37,59759
 904,82; 9852,917;  199,046;25720,890;37,82592
 905,37; 9787,610;  205,969;25503,275;37,87613
 905,93; 9709,763;  188,046;25377,198;37,80086
 906,48; 9719,610;  204,431;25371,660;37,80781
 907,04; 9731,225;  218,277;25215,275;38,05636
 907,60; 9621,071;  192,431;24980,352;38,03724
 908,15; 9658,994;  186,431;24939,813;38,26775
 908,71; 9610,840;  218,200;24906,506;38,04490
 909,26; 9577,302;  188,969;24688,352;38,32069
 909,82; 9567,840;  219,662;24614,352;38,32055
 910,37; 9578,071;  237,585;24410,660;38,64004
 910,93; 9468,917;  196,200;24339,198;38,40748
 911,48; 9416,225;  194,892;24158,737;38,48019
 912,04; 9440,225;  193,123;24019,583;38,81022
 912,60; 9415,917;  206,200;24062,660;38,60471
 913,15; 9353,687;  201,508;23844,198;38,71040
 913,71; 9255,687;  193,969;23685,044;38,57515
 914,26; 9330,610;  183,431;23645,583;38,98696
 914,82; 9322,917;  207,354;23579,352;39,00207
 915,37; 9293,687;  196,969;23434,737;39,14626
 915,93; 9339,994;  228,815;23294,583;39,50087
 916,48; 9261,687;  185,277;23200,506;39,43654
 917,04; 9214,917;  205,200;23056,506;39,42758
 917,59; 9201,225;  223,354;22962,198;39,48253
 918,15; 9105,148;  167,123;22779,890;39,52645
 918,70; 9154,763;  186,354;22726,506;39,78859
 919,26; 9101,533;  200,969;22634,198;39,67580
 919,81; 9064,917;  188,585;22441,352;39,88867
 920,37; 9051,148;  191,738;22381,583;39,92552
 920,92; 9056,917;  218,123;22312,198;40,00527
 921,48; 8911,533;  184,738;22106,967;39,80797
 922,03; 8978,610;  195,431;21999,352;40,28257
 922,59; 8928,994;  190,354;21877,121;40,29480
 923,14; 8924,302;  188,662;21779,506;40,45993
 923,69; 8921,994;  218,046;21704,890;40,50827
 924,25; 8854,379;  213,431;21735,275;40,14966
 924,80; 8814,148;  198,354;21509,506;40,42857
 925,36; 8795,071;  197,431;21458,890;40,43768
 925,91; 8748,763;  196,585;21229,813;40,66032
 926,47; 8690,148;  175,585;21187,583;40,52239
 927,02; 8781,610;  225,123;21094,121;41,00095
 927,57; 8710,994;  193,200;20976,044;40,98474
 928,13; 8687,917;  195,431;20853,813;41,10915
 928,68; 8700,840;  194,738;20792,737;41,29577
 929,24; 8599,302;  166,585;20607,967;41,25316
 929,79; 8600,225;  179,354;20529,813;41,37927
 930,34; 8519,687;  203,585;20309,583;41,36130
 930,90; 8553,148;  191,969;20296,352;41,58884
 931,45; 8554,379;  210,123;20243,583;41,65160
 932,01; 8497,840;  208,585;20208,121;41,44724
 932,56; 8478,148;  214,354;20034,506;41,69390
 933,11; 8492,994;  215,815;19957,121;41,92822
 933,67; 8399,917;  190,662;19764,275;41,94042
 934,22; 8410,148;  199,585;19690,890;42,12424
 934,77; 8393,840;  221,508;19653,583;42,05589
 935,33; 8318,533;  214,738;19504,890;42,01001
 935,88; 8282,840;  242,354;19462,198;41,83430
 936,43; 8269,148;  202,354;19315,275;42,20597
 936,99; 8273,302;  200,969;19299,275;42,26727
 937,54; 8135,917;  177,892;19066,660;42,13099
 938,09; 8161,071;  204,738;18974,121;42,38995
 938,65; 8096,225;  205,431;18924,583;42,15359
 939,20; 8018,917;  189,738;18772,967;42,13035
 939,75; 8003,687;  187,431;18742,121;42,12550
 940,31; 8016,610;  178,508;18582,737;42,58859
 940,86; 8017,763;  196,277;18584,352;42,53565
 941,41; 7994,071;  252,969;18432,583;42,58122
 941,96; 7924,379;  193,508;18346,660;42,58694
 942,52; 7928,917;  192,585;18258,890;42,82189
 943,07; 7877,302;  176,200;18119,352;42,91945
 943,62; 7843,456;  204,969;18047,044;42,81165
 944,18; 7827,456;  165,662;17957,813;43,06277
 944,73; 7850,917;  195,354;17878,044;43,29411
 945,28; 7716,687;  162,200;17716,506;43,03495
 945,83; 7756,763;  199,354;17765,121;43,02351
 946,39; 7765,148;  188,815;17704,737;43,25398
 946,94; 7776,302;  213,892;17588,044;43,52678
 947,49; 7722,071;  188,892;17413,583;43,73477
 948,04; 7692,456;  204,969;17371,660;43,61637
 948,59; 7664,610;  213,354;17314,660;43,57127
 949,15; 7649,302;  185,508;17229,813;43,79054
 949,70; 7654,687;  187,738;17119,737;44,09963
 950,25; 7626,302;  213,969;17039,506;44,05406
 950,80; 7561,148;  166,969;16955,967;44,04181
 951,36; 7505,225;  168,046;16814,044;44,07773
 951,91; 7565,610;  205,508;16763,890;44,44940
 952,46; 7506,302;  164,046;16651,890;44,53133
 953,01; 7528,763;  206,892;16679,737;44,44813
 953,56; 7451,379;  180,508;16494,967;44,56704
 954,11; 7507,071;  196,738;16426,890;45,04168
 954,67; 7486,456;  191,585;16356,121;45,12886
 955,22; 7391,302;  168,508;16227,429;44,97683
 955,77; 7398,533;  206,738;16148,275;45,11356
 956,32; 7445,840;  231,892;16046,813;45,61482
 956,87; 7301,071;  181,200;15985,660;45,04976
 957,42; 7285,456;  179,738;15918,737;45,14720
 957,98; 7321,533;  188,508;15825,352;45,61678
 958,53; 7313,225;  205,508;15717,352;45,82123
 959,08; 7242,917;  172,969;15658,352;45,65562
 959,63; 7139,225;  176,354;15513,737;45,39804
 960,18; 7150,148;  204,200;15491,890;45,43491
 960,73; 7081,610;  195,200;15507,737;44,97236
 961,28; 7059,148;  174,354;15304,583;45,50357
 961,83; 7063,071;  202,046;15323,198;45,37369
 962,39; 7024,840;  178,354;15182,890;45,62944
 962,94; 7011,302;  202,431;15142,044;45,57595
 963,49; 6951,840;  193,738;14953,121;45,78851
 964,04; 6920,302;  211,431;14970,429;45,45614
 964,59; 6895,533;  168,662;14941,506;45,53538
 965,14; 6901,763;  203,354;14791,121;45,91799
 965,69; 6824,456;  185,200;14679,583;45,80572
 966,24; 6815,456;  188,892;14595,967;45,99520
 966,79; 6768,994;  207,200;14472,121;45,99951
 967,34; 6739,840;  178,046;14375,583;46,21784
 967,89; 6735,225;  180,815;14289,583;46,45629
 968,44; 6699,302;  192,200;14242,121;46,31415
 968,99; 6651,225;  193,969;14188,890;46,13999
 969,55; 6647,148;  196,123;14075,890;46,47790
 970,10; 6652,225;  200,662;13983,506;46,80865
 970,65; 6584,994;  202,969;13850,044;46,76478
 971,20; 6506,917;  178,200;13807,352;46,43515
 971,75; 6437,610;  175,585;13630,737;46,53998
 972,30; 6472,994;  196,277;13554,737;46,98683
 972,85; 6369,687;  185,354;13454,967;46,60522
 973,40; 6388,148;  182,662;13392,275;46,97705
 973,95; 6370,687;  198,354;13319,967;47,03943
 974,50; 6330,840;  205,354;13249,044;46,96130
 975,05; 6249,917;  208,892;13171,198;46,60456
 975,60; 6264,840;  203,277;13097,198;47,01102
 976,15; 6197,225;  191,123;13030,967;46,77706
 976,70; 6176,148;  207,969;12860,890;47,16839
 977,25; 6137,379;  203,354;12841,737;46,95241
 977,80; 6077,456;  186,585;12697,198;47,08699
 978,35; 5999,840;  207,969;12517,583;47,05161
 978,89; 5991,148;  181,431;12512,121;47,11591
 979,44; 5995,456;  200,123;12440,506;47,34601
 979,99; 5899,533;  180,431;12248,121;47,39185
 980,54; 5887,610;  218,123;12175,429;47,41441
 981,09; 5859,148;  207,662;12134,121;47,38612
 981,64; 5805,687;  196,738;11998,044;47,52820
 982,19; 5796,994;  237,277;11998,352;47,27219
 982,74; 5743,225;  210,123;11824,583;47,63977
 983,29; 5620,917;  185,815;11610,737;47,57234
 983,84; 5648,840;  201,585;11545,890;48,01753
 984,39; 5703,917;  226,892;11488,737;48,63346
 984,94; 5534,994;  175,200;11339,352;48,00897
 985,49; 5558,148;  225,892;11338,506;47,98381
 986,03; 5538,687;  213,662;11234,660;48,31708
 986,58; 5488,148;  234,969;11079,813;48,43941
 987,13; 5391,994;  207,200;10994,660;48,06316
 987,68; 5358,071;  205,585;10860,967;48,35572
 988,23; 5337,687;  207,200;10776,275;48,54244
 988,78; 5279,687;  197,431;10642,506;48,65696
 989,33; 5264,763;  209,354;10544,121;48,91653
 989,88; 5249,379;  218,585;10536,275;48,75892
 990,42; 5175,610;  200,200;10366,583;48,93982
 990,97; 5136,610;  191,200;10237,352;49,22690
 991,52; 5112,840;  230,815;10193,506;49,00308
 992,07; 5059,610;  231,892;10087,352;48,98521
 992,62; 4981,148;  207,662;10011,352;48,69071
 993,17; 4954,687;  217,585; 9937,352;48,73678
 993,71; 4948,687;  207,738; 9787,813;49,48759
 994,26; 4867,917;  194,738; 9684,352;49,24520
 994,81; 4905,379;  226,200; 9634,506;49,73455
 995,36; 4808,225;  196,200; 9451,813;49,82949
 995,91; 4782,533;  209,738; 9454,352;49,46442
 996,45; 4728,302;  205,277; 9278,506;49,85023
 997,00; 4713,687;  182,969; 9219,583;50,13734
 997,55; 4654,763;  196,508; 9138,660;49,85663
 998,10; 4645,763;  231,277; 9013,813;50,26437
 998,65; 4593,379;  201,508; 8976,967;50,04719
 999,19; 4543,917;  214,585; 8838,352;50,20234
 999,74; 4518,225;  231,508; 8736,044;50,40507
1000,29; 4455,148;  217,815; 8668,352;50,14277
1000,84; 4395,302;  197,508; 8500,967;50,55476
1001,38; 4383,225;  194,738; 8412,890;50,96628
1001,93; 4317,917;  212,815; 8341,737;50,49996
1002,48; 4238,763;  198,046; 8233,198;50,28800
1003,03; 4223,917;  201,738; 8155,583;50,56899
1003,57; 4212,917;  209,662; 8099,737;50,73787
1004,12; 4181,763;  231,892; 8007,890;50,79568
1004,67; 4099,994;  205,277; 7901,275;50,60705
1005,22; 4012,994;  186,662; 7760,967;50,51727
1005,76; 3959,610;  189,585; 7647,121;50,55322
1006,31; 4005,763;  220,815; 7583,660;51,40606
1006,86; 3872,456;  203,585; 7439,352;50,70466
1007,40; 3840,840;  182,508; 7381,890;50,81453
1007,95; 3817,148;  206,277; 7252,967;51,24209
1008,50; 3740,994;  212,046; 7168,352;50,73020
1009,04; 3714,302;  206,354; 7058,275;51,19656
1009,59; 3665,071;  208,508; 6946,044;51,30308
1010,14; 3590,763;  199,431; 6835,198;51,10687
1010,68; 3544,994;  206,738; 6679,890;51,57079
1011,23; 3520,302;  190,277; 6618,660;51,80191
1011,78; 3479,763;  215,969; 6559,660;51,44946
1012,32; 3440,763;  202,662; 6432,044;51,98110
1012,87; 3431,917;  224,508; 6443,737;51,57246
1013,42; 3358,917;  187,123; 6314,737;51,76231
1013,96; 3392,225;  231,815; 6319,429;51,91541
1014,51; 3299,994;  174,738; 6245,044;51,48432
1015,06; 3331,379;  175,969; 6219,660;52,20998
1015,60; 3373,994;  240,123; 6291,583;51,78703
1016,15; 3330,148;  202,200; 6213,506;52,03442
1016,69; 3364,302;  202,046; 6238,660;52,38460
1017,24; 3360,917;  177,815; 6240,506;52,50313
1017,79; 3425,763;  234,046; 6329,429;52,36287
1018,33; 3401,840;  193,277; 6292,890;52,60273
1018,88; 3435,225;  207,585; 6384,737;52,25127
1019,42; 3442,687;  197,277; 6367,737;52,59591
1019,97; 3445,456;  189,354; 6353,967;52,81924
1020,51; 3511,840;  203,738; 6397,352;53,41150
1021,06; 3452,148;  201,277; 6371,506;52,68640
1021,61; 3432,763;  159,200; 6297,121;53,33342
1022,15; 3405,071;  153,738; 6283,813;53,03904
1022,70; 3461,071;  200,277; 6325,813;53,23279
1023,24; 3425,302;  185,815; 6250,352;53,41689
1023,79; 3420,302;  205,354; 6176,660;53,83995
1024,33; 3375,687;  196,738; 6121,429;53,65594
1024,88; 3337,379;  195,815; 6046,813;53,69278
1025,42; 3285,379;  202,892; 5918,352;53,93243
1025,97; 3266,302;  193,969; 5849,121;54,32803
1026,51; 3169,994;  170,585; 5767,198;53,59330
1027,06; 3172,533;  193,200; 5735,429;53,75694
1027,60; 3126,456;  198,354; 5592,198;54,28599
1028,15; 3091,456;  217,508; 5508,044;54,32243
1028,69; 2983,302;  158,431; 5393,352;53,96206
1029,24; 3000,533;  182,200; 5384,506;54,17468
1029,78; 2940,763;  189,892; 5270,429;54,14529
1030,33; 2854,533;  176,969; 5142,890;53,91877
1030,87; 2844,379;  186,738; 5085,198;54,25461
1031,42; 2809,148;  168,662; 5008,198;54,56073
1031,96; 2803,994;  193,046; 4918,044;55,25818
1032,51; 2736,379;  177,585; 4858,044;54,66972
1033,05; 2731,379;  196,200; 4792,737;55,15411
1033,60; 2659,687;  158,200; 4685,506;55,25332
1034,14; 2650,533;  186,662; 4624,813;55,51570
1034,69; 2613,302;  193,662; 4567,583;55,31971
1035,23; 2562,610;  206,200; 4500,198;54,87682
1035,77; 2542,225;  186,585; 4430,429;55,50723
1036,32; 2439,456;  168,662; 4328,121;54,59349
1036,86; 2455,071;  190,508; 4308,660;54,98980
1037,41; 2452,840;  202,200; 4246,967;55,64326
1037,95; 2388,687;  173,738; 4210,198;54,87353
1038,50; 2345,302;  179,585; 4143,813;54,63149
1039,04; 2315,225;  205,431; 4094,044;54,25569
1039,58; 2277,148;  165,815; 4001,737;55,04109
1040,13; 2249,994;  188,354; 3959,044;54,67541
1040,67; 2268,994;  217,892; 3944,121;55,04498
1041,21; 2239,994;  211,738; 3852,660;55,70721
1041,76; 2177,225;  173,046; 3750,429;56,02361
1042,30; 2134,225;  188,892; 3728,660;54,95651
1042,85; 2106,379;  194,738; 3691,198;54,67360
1043,39; 2074,148;  177,123; 3602,429;55,38265
1043,93; 2074,917;  200,277; 3574,121;55,56393
1044,48; 2015,610;  194,738; 3533,352;54,53974
1045,02; 1996,302;  179,431; 3447,506;55,59454
1045,56; 1995,302;  205,046; 3442,583;55,29685
1046,11; 1979,610;  203,892; 3383,583;55,84560
1046,65; 1954,302;  199,815; 3333,660;55,98512
1047,19; 1921,456;  186,200; 3264,890;56,36344
1047,74; 1870,533;  174,277; 3213,198;55,81770
1048,28; 1878,840;  196,123; 3186,275;56,27531
1048,82; 1864,687;  220,662; 3138,506;56,34382
1049,37; 1836,225;  198,738; 3115,198;56,14638
1049,91; 1817,302;  192,046; 3056,275;56,74322
1050,45; 1814,610;  214,815; 3013,352;57,16539
1050,99; 1762,763;  193,123; 2964,198;56,64374
1051,54; 1722,994;  182,738; 2924,352;56,18063
1052,08; 1755,379;  210,662; 2901,275;57,41134
1052,62; 1736,456;  206,662; 2865,506;57,53606
1053,16; 1668,917;  177,508; 2794,044;56,99938
1053,71; 1668,379;  203,354; 2766,813;57,15031
1054,25; 1630,994;  207,508; 2710,275;56,87650
1054,79; 1610,917;  196,277; 2685,352;56,83398
1055,33; 1571,302;  178,738; 2626,967;56,88044
1055,88; 1581,379;  207,123; 2608,890;57,21852
1056,42; 1575,456;  215,431; 2607,429;56,85728
1056,96; 1538,533;  208,815; 2542,506;56,97917
1057,50; 1517,687;  195,277; 2498,198;57,42314
1058,05; 1495,302;  198,738; 2464,121;57,23375
1058,59; 1494,225;  219,354; 2419,429;57,94671
1059,13; 1440,840;  181,662; 2333,583;58,51417
1059,67; 1448,071;  211,200; 2345,813;57,94357
1060,21; 1422,456;  200,354; 2293,121;58,39646
1060,76; 1398,840;  213,277; 2277,044;57,44657
1061,30; 1389,917;  215,277; 2266,813;57,25662
1061,84; 1362,533;  203,508; 2235,583;57,03653
1062,38; 1295,840;  197,123; 2165,352;55,82264
1062,92; 1355,533;  238,892; 2192,737;57,15094
1063,46; 1306,379;  220,585; 2149,198;56,29921
1064,01; 1290,225;  193,277; 2103,506;57,42496
1064,55; 1277,917;  214,046; 2065,660;57,45644
1065,09; 1235,379;  175,277; 2029,275;57,17924
1065,63; 1274,763;  235,046; 2050,660;57,26534
1066,17; 1271,379;  230,585; 1993,890;59,02517
1066,71; 1244,687;  220,969; 1982,890;58,10233
1067,25; 1218,533;  199,892; 1944,352;58,39289
1067,80; 1197,533;  226,277; 1947,275;56,43561
1068,34; 1202,148;  232,431; 1928,737;57,16642
1068,88; 1162,071;  207,508; 1864,813;57,59731
1069,42; 1182,687;  225,738; 1883,352;57,73047
1069,96; 1150,225;  219,508; 1816,429;58,28198
1070,50; 1167,456;  232,431; 1834,198;58,37458
1071,04; 1097,994;  197,200; 1793,429;56,43265
1071,58; 1110,379;  207,892; 1748,198;58,59139
1072,12; 1105,071;  206,123; 1714,198;59,60898
1072,66; 1107,302;  201,508; 1739,967;58,87670
1073,21; 1108,071;  223,046; 1720,429;59,10480
1073,75; 1064,917;  212,738; 1698,967;57,33833
1074,29; 1061,533;  214,815; 1662,198;58,49989
1074,83; 1073,379;  230,585; 1641,044;59,75316
1075,37; 1048,687;  214,815; 1632,429;58,82218
1075,91; 1037,071;  219,123; 1610,813;58,77371
1076,45; 1023,071;  216,431; 1611,890;57,80464
1076,99; 1011,225;  213,662; 1561,660;59,16651
1077,53;  977,379;  197,354; 1536,121;58,26442
1078,07;  990,302;  203,662; 1516,275;59,92932
1078,61;  982,610;  211,738; 1506,583;59,53389
1079,15;  953,840;  207,200; 1507,121;57,43736
1079,69;  965,763;  217,738; 1469,583;59,75384
1080,23;  977,687;  233,046; 1447,429;61,31843
1080,77;  988,840;  248,585; 1467,429;60,73424
1081,31;  919,533;  200,431; 1402,429;59,82555
1081,85;  943,225;  215,431; 1412,967;60,77428
1082,39;  916,225;  205,431; 1390,506;59,97884
1082,93;  912,302;  209,508; 1369,506;60,58581
1083,47;  874,840;  192,277; 1327,660;60,11748
1084,01;  899,687;  220,508; 1339,275;60,70778
1084,55;  861,379;  196,508; 1332,890;58,50768
1085,09;  872,687;  226,892; 1326,429;58,73331
1085,63;  859,456;  216,354; 1300,198;59,33527
1086,17;  854,917;  211,200; 1271,967;60,68412
1086,71;  835,994;  195,585; 1253,429;60,53912
1087,24;  845,994;  231,815; 1272,275;59,02957
1087,78;  832,687;  224,815; 1230,198;60,46167
1088,32;  789,917;  202,508; 1208,429;58,39519
1088,86;  816,763;  235,969; 1233,429;58,22734
1089,40;  806,225;  214,892; 1198,121;60,14192
1089,94;  775,763;  189,892; 1158,890;60,46154
1090,48;  794,840;  217,662; 1164,352;60,96807
1091,02;  778,994;  221,431; 1158,121;59,52484
1091,56;  770,763;  216,123; 1138,890;60,10620
1092,10;  742,071;  200,123; 1101,660;60,11382
1092,63;  774,148;  230,354; 1124,352;60,82723
1093,17;  759,225;  224,431; 1091,967;61,64515
1093,71;  737,917;  211,662; 1090,352;59,89092
1094,25;  741,302;  237,662; 1088,660;59,18232
1094,79;  719,302;  217,123; 1073,429;58,64480
1095,33;  735,379;  202,585; 1055,813;62,44447
1095,87;  717,994;  212,815; 1041,429;60,96677
1096,40;  680,840;  196,431; 1004,044;59,98038
1096,94;  697,917;  210,815; 1015,890;60,50392
1097,48;  697,687;  216,662; 1002,660;61,19926
1098,02;  682,994;  211,969;  990,352;60,51329
1098,56;  646,763;  183,354;  958,737;59,76528
1099,10;  637,533;  190,431;  937,660;59,83467
1099,63;  645,379;  201,046;  943,813;59,82125
1100,17;  650,917;  211,892;  949,660;59,50725
1100,71;  687,610;  224,354;  957,198;63,21340

