
Integration time [ms]: 150,000
Averaging Nr. [scans]: 13
Smoothing Nr. [pixels]: 0
Data measured with spectrometer [name]: 2009305U1
Wave   ;Sample   ;Dark     ;Reference;Reflectance
[nm]   ;[counts] ;[counts] ;[counts] ;[%]

 175,72;  213,677;  210,429;  220,471;32,34390
 176,32;  230,721;  234,648;  230,585; 0,00000
 176,92;  269,199;  262,887;  268,668;109,18294
 177,52;  276,923;  262,888;  271,098;170,95553
 178,12;  243,520;  248,802;  249,361; 0,00000
 178,72;  268,600;  274,414;  267,670; 0,00000
 179,32;  262,942;  266,802;  262,612; 0,00000
 179,92;  269,095;  263,191;  265,430;263,64706
 180,52;  252,834;  254,820;  268,737;-14,27356
 181,12;  269,597;  276,192;  277,116; 0,00000
 181,73;  292,762;  291,885;  288,587; 0,00000
 182,33;  396,497;  389,661;  393,065;200,84667
 182,93;  281,192;  283,427;  290,438;-31,88201
 183,53;  252,413;  251,797;  236,920; 0,00000
 184,13;  251,801;  253,876;  247,983; 0,00000
 184,73;  294,526;  300,257;  296,133; 0,00000
 185,33;  273,984;  232,186;  372,780;29,72915
 185,93;  272,909;  248,024;  381,707;18,61513
 186,53;  294,899;  264,567;  409,937;20,86532
 187,13;  308,436;  281,653;  423,343;18,90265
 187,73;  282,498;  262,717;  385,993;16,04591
 188,33;  278,392;  252,789;  388,871;18,81439
 188,93;  282,285;  266,312;  397,447;12,18044
 189,53;  282,637;  262,685;  389,189;15,77180
 190,13;  315,590;  302,512;  438,346; 9,62774
 190,73;  259,606;  236,141;  373,017;17,14335
 191,34;  293,026;  261,693;  413,108;20,69403
 191,94;  277,430;  255,246;  380,611;17,69597
 192,54;  297,488;  257,506;  424,486;23,94435
 193,14;  297,694;  268,575;  408,916;20,74870
 193,74;  299,239;  272,881;  412,134;18,92802
 194,34;  292,641;  266,808;  418,552;17,02369
 194,94;  260,117;  227,652;  383,410;20,84319
 195,54;  229,927;  208,879;  357,892;14,12480
 196,14;  256,029;  234,502;  389,705;13,87010
 196,74;  252,211;  226,261;  383,948;16,45645
 197,34;  238,117;  201,816;  382,226;20,12161
 197,94;  263,725;  237,192;  405,872;15,73004
 198,54;  272,404;  248,810;  433,270;12,79081
 199,14;  254,075;  213,204;  426,334;19,17686
 199,74;  232,037;  214,896;  414,917; 8,56965
 200,34;  222,847;  204,436;  423,461; 8,40609
 200,94;  280,018;  239,507;  465,153;17,95355
 201,54;  251,101;  219,510;  466,497;12,79069
 202,14;  295,958;  252,131;  532,390;15,63810
 202,74;  260,777;  226,050;  532,910;11,31695
 203,34;  244,706;  209,365;  519,700;11,38792
 203,94;  205,536;  181,285;  517,229; 7,21881
 204,54;  290,352;  255,962;  626,255; 9,28722
 205,14;  236,681;  193,050;  622,361;10,16308
 205,74;  289,551;  258,442;  734,687; 6,53225
 206,34;  233,602;  206,130;  735,988; 5,18466
 206,94;  274,214;  221,052;  795,015; 9,26233
 207,54;  238,957;  200,130;  838,519; 6,08197
 208,14;  243,988;  221,900;  945,937; 3,05059
 208,74;  267,344;  216,972; 1009,200; 6,35818
 209,34;  261,288;  207,589; 1093,029; 6,06469
 209,94;  263,124;  228,973; 1205,044; 3,49880
 210,54;  268,231;  213,902; 1295,806; 5,02162
 211,14;  277,508;  220,127; 1408,339; 4,82921
 211,73;  274,475;  222,586; 1574,499; 3,83817
 212,33;  290,056;  235,122; 1649,570; 3,88381
 212,93;  278,343;  214,357; 1776,803; 4,09527
 213,53;  254,844;  194,126; 1826,321; 3,71999
 214,13;  296,183;  219,445; 1935,939; 4,47061
 214,73;  266,266;  189,438; 1943,698; 4,37947
 215,33;  259,893;  182,512; 1998,428; 4,26129
 215,93;  289,608;  208,595; 2126,191; 4,22472
 216,53;  259,717;  174,510; 2141,740; 4,33132
 217,13;  320,491;  228,594; 2418,262; 4,19682
 217,73;  312,147;  205,673; 2614,511; 4,42017
 218,33;  277,358;  157,908; 2807,307; 4,50858
 218,93;  325,376;  191,686; 3161,954; 4,50094
 219,53;  358,243;  209,600; 3448,890; 4,58875
 220,13;  343,382;  161,910; 3786,790; 5,00628
 220,73;  379,971;  186,512; 4185,518; 4,83767
 221,32;  388,959;  180,434; 4593,661; 4,72500
 221,92;  419,717;  199,986; 5099,221; 4,48500
 222,52;  424,023;  172,596; 5559,673; 4,66723
 223,12;  454,678;  194,520; 6010,807; 4,47293
 223,72;  491,794;  205,135; 6493,928; 4,55825
 224,32;  525,314;  191,213; 6911,624; 4,97144
 224,92;  523,603;  181,366; 7344,678; 4,77762
 225,52;  579,638;  202,821; 7700,521; 5,02576
 226,12;  595,750;  192,748; 8066,245; 5,11846
 226,72;  590,681;  168,670; 8499,269; 5,06580
 227,31;  606,354;  171,901; 8927,785; 4,96184
 227,91;  688,511;  207,128; 9414,017; 5,22851
 228,51;  685,828;  182,892; 9974,762; 5,13626
 229,11;  722,498;  180,131;10317,185; 5,35034
 229,71;  745,516;  187,587;10733,659; 5,29039
 230,31;  770,510;  173,368;11216,731; 5,40725
 230,91;  798,890;  166,043;11565,381; 5,55161
 231,51;  851,897;  173,442;11906,181; 5,78258
 232,10;  867,608;  177,908;12197,330; 5,73822
 232,70;  934,102;  184,577;12456,399; 6,10769
 233,30;  997,415;  210,672;12752,518; 6,27295
 233,90; 1001,165;  182,133;12908,496; 6,43571
 234,50; 1016,272;  175,365;13023,978; 6,54473
 235,10; 1047,064;  177,674;13013,063; 6,77338
 235,70; 1111,078;  200,590;13031,384; 7,09612
 236,29; 1127,872;  197,357;12914,215; 7,31718
 236,89; 1109,958;  173,352;12748,510; 7,44807
 237,49; 1162,817;  203,594;12569,041; 7,75729
 238,09; 1154,140;  183,361;12260,911; 8,03788
 238,69; 1209,145;  239,118;11895,749; 8,32167
 239,29; 1185,638;  178,822;11552,457; 8,85220
 239,89; 1198,131;  191,198;11110,071; 9,22195
 240,48; 1178,582;  179,438;10589,197; 9,59815
 241,08; 1181,195;  175,052;10137,146;10,09971
 241,68; 1218,304;  206,746; 9754,974;10,59420
 242,28; 1182,924;  164,902; 9426,357;10,99203
 242,88; 1209,453;  222,522; 8991,600;11,25467
 243,48; 1220,009;  215,747; 8668,150;11,88137
 244,07; 1200,107;  209,513; 8380,764;12,12292
 244,67; 1242,988;  202,054; 8190,795;13,03001
 245,27; 1225,013;  210,124; 8029,884;12,97852
 245,87; 1249,105;  223,060; 7888,991;13,38448
 246,47; 1272,802;  198,355; 7872,983;13,99998
 247,06; 1284,321;  177,822; 7878,253;14,36932
 247,66; 1327,507;  184,977; 7935,530;14,74127
 248,26; 1377,448;  218,895; 8133,080;14,63894
 248,86; 1414,110;  216,663; 8278,227;14,85378
 249,46; 1430,397;  157,903; 8522,136;15,21351
 250,05; 1533,274;  206,053; 8952,569;15,17428
 250,65; 1569,358;  179,047; 9274,583;15,28564
 251,25; 1672,666;  187,282; 9907,953;15,28067
 251,85; 1791,025;  195,198;10524,307;15,44981
 252,44; 1846,324;  169,742;11264,331;15,11171
 253,04; 2013,432;  206,358;12113,056;15,17695
 253,64; 2086,539;  143,430;13006,464;15,10614
 254,24; 2280,466;  212,899;14105,755;14,88223
 254,84; 2423,320;  181,595;15148,059;14,97832
 255,43; 2534,258;  168,896;16312,624;14,65189
 256,03; 2705,655;  194,277;17467,521;14,53912
 256,63; 2837,785;  198,582;18768,103;14,21255
 257,23; 2995,180;  175,275;19875,242;14,31426
 257,82; 3142,547;  204,348;21036,119;14,10441
 258,42; 3207,206;  153,500;22163,356;13,87427
 259,02; 3351,922;  209,435;23283,654;13,61904
 259,62; 3408,915;  172,037;24180,867;13,48203
 260,21; 3463,949;  182,357;24979,227;13,23390
 260,81; 3478,903;  198,132;25684,848;12,87247
 261,41; 3476,142;  169,501;26214,764;12,69575
 262,01; 3519,056;  217,650;26863,677;12,38986
 262,60; 3494,411;  175,121;27340,242;12,21894
 263,20; 3517,965;  177,201;27847,328;12,07354
 263,80; 3490,623;  198,881;28114,814;11,79162
 264,40; 3422,019;  180,497;28415,209;11,48063
 264,99; 3418,660;  196,727;28590,679;11,34725
 265,59; 3343,399;  187,182;28862,443;11,00676
 266,19; 3322,969;  175,266;29141,858;10,86667
 266,78; 3333,300;  224,263;29260,189;10,70755
 267,38; 3234,921;  203,645;29254,933;10,43422
 267,98; 3166,223;  191,263;29300,433;10,22001
 268,58; 3146,132;  203,953;29350,295;10,09451
 269,17; 3072,171;  183,871;29483,367; 9,85785
 269,77; 3022,148;  190,427;29199,954; 9,76135
 270,37; 2951,843;  163,649;29137,046; 9,62329
 270,96; 2912,460;  227,348;28929,069; 9,35523
 271,56; 2827,150;  191,890;28726,004; 9,23547
 272,16; 2784,496;  184,193;28432,833; 9,20506
 272,75; 2717,584;  192,962;28286,587; 8,98646
 273,35; 2689,048;  190,887;28298,022; 8,88800
 273,95; 2633,238;  188,116;28310,478; 8,69458
 274,54; 2612,918;  164,745;28262,474; 8,71306
 275,14; 2654,885;  220,579;28745,908; 8,53384
 275,74; 2573,449;  170,270;28741,982; 8,41104
 276,33; 2630,041;  220,350;29251,805; 8,30028
 276,93; 2660,055;  195,131;29623,502; 8,37601
 277,53; 2666,987;  193,126;30254,336; 8,22941
 278,12; 2710,037;  168,968;30774,086; 8,30276
 278,72; 2866,631;  238,356;31410,537; 8,43147
 279,32; 2848,351;  187,740;32161,276; 8,32129
 279,91; 2938,444;  179,124;33102,941; 8,38093
 280,51; 2956,132;  178,511;33601,453; 8,31052
 281,11; 3087,117;  183,893;34504,918; 8,45903
 281,70; 3124,808;  178,661;34913,893; 8,48173
 282,30; 3253,766;  180,121;35773,388; 8,63547
 282,90; 3299,121;  177,198;36202,547; 8,66591
 283,49; 3458,702;  204,502;36835,605; 8,88371
 284,09; 3516,711;  221,199;37309,550; 8,88557
 284,69; 3638,129;  216,125;37747,852; 9,11763
 285,28; 3701,826;  202,738;38115,506; 9,22931
 285,88; 3884,852;  259,962;38474,761; 9,48557
 286,47; 3893,082;  189,967;38536,425; 9,65700
 287,07; 4023,004;  229,356;38611,308; 9,88394
 287,67; 4184,009;  221,517;38768,381;10,27967
 288,26; 4311,331;  174,817;38695,857;10,73832
 288,86; 4449,740;  189,123;38843,622;11,02231
 289,46; 4650,368;  211,970;38900,184;11,47222
 290,05; 4842,781;  186,128;39004,831;11,99590
 290,65; 5106,619;  183,658;39212,631;12,61361
 291,24; 5355,755;  198,510;39404,157;13,15434
 291,84; 5615,785;  208,505;39453,026;13,77843
 292,44; 5864,472;  191,133;39596,483;14,39738
 293,03; 6204,976;  271,587;39860,492;14,98751
 293,63; 6392,256;  186,813;39993,525;15,58894
 294,22; 6649,512;  212,508;40106,352;16,13533
 294,82; 6847,626;  191,421;40157,479;16,65464
 295,41; 6973,808;  171,815;39861,432;17,13797
 296,01; 7199,466;  223,961;39766,197;17,64064
 296,61; 7299,553;  209,741;39457,294;18,06434
 297,20; 7349,131;  202,962;39006,227;18,41641
 297,80; 7490,216;  211,284;38788,963;18,86825
 298,39; 7523,410;  169,659;38372,383;19,24928
 298,99; 7662,172;  217,271;38164,322;19,61918
 299,58; 7710,257;  213,747;37956,827;19,86195
 300,18; 7720,714;  216,667;37800,970;19,96591
 300,78; 7723,585;  193,127;37264,339;20,31349
 301,37; 7838,514;  208,726;37271,230;20,58627
 301,97; 7876,041;  211,201;37289,700;20,67193
 302,56; 7920,437;  193,581;37253,418;20,84968
 303,16; 7944,752;  172,734;37078,033;21,05936
 303,75; 8053,481;  188,589;37057,458;21,33207
 304,35; 8193,014;  185,366;37374,251;21,53237
 304,94; 8244,263;  194,432;37388,740;21,64264
 305,54; 8288,344;  208,280;37298,200;21,78507
 306,13; 8262,025;  156,366;37154,852;21,90808
 306,73; 8278,904;  173,748;36900,488;22,06881
 307,33; 8360,374;  204,055;36849,500;22,25739
 307,92; 8384,611;  210,664;36912,899;22,27098
 308,52; 8550,357;  177,041;37460,201;22,45871
 309,11; 8733,023;  190,422;37920,271;22,64149
 309,71; 8863,066;  168,035;38370,265;22,76053
 310,30; 8966,370;  175,356;38576,914;22,89234
 310,90; 9105,678;  231,663;39068,606;22,84942
 311,49; 9159,956;  193,355;39159,445;23,01129
 312,09; 9212,041;  167,744;39363,223;23,07485
 312,68; 9440,921;  248,511;39753,860;23,26877
 313,28; 9438,150;  168,741;39814,515;23,38057
 313,87; 9483,600;  164,048;40027,671;23,37859
 314,47; 9607,217;  185,962;40306,046;23,48264
 315,06; 9624,890;  166,126;40477,224;23,46442
 315,66; 9691,426;  164,975;40737,223;23,48021
 316,25; 9678,166;  153,427;40643,194;23,52382
 316,85; 9717,244;  153,898;40734,856;23,56609
 317,44; 9731,581;  189,807;40867,845;23,45682
 318,04; 9739,833;  159,890;40870,723;23,53168
 318,63; 9725,529;  158,671;40936,999;23,46064
 319,22; 9805,494;  190,581;41190,460;23,45108
 319,82; 9870,307;  178,276;41035,669;23,72161
 320,41; 9812,197;  201,197;40992,060;23,56165
 321,01; 9794,050;  203,744;41116,556;23,44084
 321,60; 9826,298;  195,199;41157,555;23,51207
 322,20; 9751,218;  172,741;41109,093;23,39846
 322,79; 9782,131;  210,049;41351,428;23,26631
 323,39; 9808,551;  177,750;41303,995;23,41765
 323,98; 9771,574;  170,972;41256,738;23,36722
 324,58; 9733,674;  172,272;41097,866;23,36289
 325,17; 9665,475;  181,658;40840,514;23,32534
 325,76; 9632,773;  197,509;40619,988;23,34163
 326,36; 9507,482;  180,051;40206,407;23,30322
 326,95; 9431,231;  202,661;39889,848;23,25327
 327,55; 9299,095;  176,429;39424,295;23,24372
 328,14; 9157,419;  171,284;38993,532;23,14687
 328,74; 9092,552;  203,889;38486,527;23,21852
 329,33; 8955,732;  197,051;38099,263;23,10863
 329,92; 8786,706;  170,115;37390,773;23,15002
 330,52; 8613,593;  194,900;36753,951;23,02766
 331,11; 8493,153;  194,815;36201,067;23,04694
 331,71; 8320,983;  182,508;35406,171;23,10513
 332,30; 8132,955;  209,586;34888,971;22,84749
 332,89; 8034,394;  256,897;34328,024;22,82724
 333,49; 7832,471;  202,892;33721,513;22,76221
 334,08; 7705,316;  181,968;33201,168;22,78477
 334,68; 7572,729;  190,814;32709,086;22,70082
 335,27; 7469,364;  207,747;32353,450;22,58970
 335,86; 7428,846;  248,353;31983,374;22,62640
 336,46; 7273,586;  208,593;31623,029;22,48964
 337,05; 7212,211;  172,738;31336,121;22,58892
 337,65; 7161,124;  172,276;31199,905;22,52460
 338,24; 7153,776;  242,280;31201,282;22,32467
 338,83; 7112,834;  214,280;31102,964;22,33360
 339,43; 7065,926;  173,196;31037,849;22,33212
 340,02; 7029,848;  182,426;30912,670;22,28235
 340,61; 7079,496;  188,510;30916,175;22,42600
 341,21; 7096,706;  215,889;30897,142;22,42678
 341,80; 7039,066;  183,583;30821,607;22,37573
 342,40; 7069,497;  188,823;30988,864;22,33982
 342,99; 7060,317;  178,589;31092,947;22,26062
 343,58; 7093,808;  185,974;31243,570;22,24201
 344,18; 7085,011;  204,128;31328,523;22,10768
 344,77; 7214,896;  180,119;31602,291;22,38794
 345,36; 7255,693;  172,430;31986,233;22,26475
 345,96; 7387,366;  205,513;32341,747;22,34815
 346,55; 7412,004;  181,058;32641,496;22,27618
 347,14; 7490,757;  171,208;33114,167;22,21886
 347,74; 7520,255;  152,755;33466,209;22,11569
 348,33; 7709,897;  188,754;34256,551;22,07699
 348,92; 7910,251;  201,374;34950,810;22,18418
 349,52; 8026,844;  165,372;35433,956;22,29030
 350,11; 8097,385;  182,272;35698,568;22,28586
 350,70; 8128,775;  188,279;35899,257;22,23545
 351,29; 8047,742;  169,570;35546,859;22,26901
 351,89; 8048,782;  204,961;35530,376;22,20447
 352,48; 8010,361;  163,279;35571,108;22,16200
 353,07; 8105,191;  202,978;35476,825;22,40247
 353,67; 7990,771;  199,067;35419,275;22,12282
 354,26; 7924,843;  186,439;35165,217;22,12314
 354,85; 7902,426;  199,668;34931,082;22,17807
 355,45; 7882,458;  165,736;34786,939;22,28901
 356,04; 7820,933;  192,132;34652,317;22,13801
 356,63; 7847,760;  219,508;34441,196;22,29070
 357,22; 7772,352;  193,803;34187,128;22,29423
 357,82; 7700,260;  188,497;33996,951;22,21859
 358,41; 7715,464;  211,124;33907,360;22,27056
 359,00; 7633,936;  179,735;33655,822;22,26724
 359,60; 7634,151;  192,972;33552,540;22,30598
 360,19; 7612,251;  212,056;33467,315;22,25271
 360,78; 7628,950;  191,891;33182,267;22,54312
 361,37; 7551,374;  185,584;32868,620;22,53704
 361,97; 7552,887;  184,662;32884,072;22,53320
 362,56; 7461,875;  183,118;32498,935;22,52382
 363,15; 7458,863;  244,352;32151,436;22,61100
 363,74; 7377,189;  194,347;31857,602;22,68510
 364,34; 7303,657;  206,427;31372,574;22,77224
 364,93; 7215,191;  177,194;30884,883;22,91933
 365,52; 7105,461;  147,199;30457,990;22,95639
 366,11; 7064,792;  177,119;30039,333;23,06484
 366,71; 6999,879;  181,812;29653,306;23,13445
 367,30; 6924,135;  186,738;29277,288;23,16009
 367,89; 6920,609;  221,821;29050,142;23,23683
 368,48; 6798,189;  194,885;28695,076;23,16933
 369,07; 6707,390;  199,587;28183,641;23,25540
 369,67; 6671,210;  216,194;27770,277;23,42671
 370,26; 6596,237;  179,818;27525,192;23,46437
 370,85; 6571,682;  183,045;27267,402;23,58792
 371,44; 6535,521;  204,893;26926,466;23,69107
 372,03; 6461,820;  155,350;26684,008;23,77229
 372,63; 6392,203;  163,123;26347,866;23,78897
 373,22; 6382,360;  176,663;25951,941;24,07616
 373,81; 6312,442;  170,045;25679,506;24,07890
 374,40; 6268,736;  181,438;25331,197;24,20420
 374,99; 6262,430;  181,429;25017,957;24,48410
 375,59; 6178,149;  171,591;24667,551;24,52060
 376,18; 6234,363;  214,814;24477,788;24,80961
 376,77; 6179,329;  198,816;24274,139;24,84084
 377,36; 6204,499;  225,661;24175,791;24,96370
 377,95; 6152,264;  205,197;23865,011;25,13573
 378,55; 6150,742;  181,974;23670,094;25,41186
 379,14; 6201,028;  198,584;23579,434;25,67248
 379,73; 6131,341;  199,428;23529,562;25,42597
 380,32; 6169,819;  198,508;23496,891;25,62972
 380,91; 6177,219;  169,501;23363,238;25,90233
 381,50; 6224,222;  195,272;23304,673;26,08873
 382,10; 6217,665;  185,816;23232,199;26,17265
 382,69; 6195,922;  159,353;23132,285;26,27688
 383,28; 6278,089;  218,657;23091,643;26,49165
 383,87; 6232,608;  183,349;22871,313;26,66285
 384,46; 6303,039;  167,190;22847,244;27,05395
 385,05; 6311,904;  208,810;22858,623;26,94545
 385,64; 6339,100;  184,735;22839,410;27,16598
 386,24; 6377,808;  173,344;22742,923;27,49038
 386,83; 6466,778;  210,266;22783,134;27,71695
 387,42; 6503,639;  202,504;22935,038;27,71857
 388,01; 6638,980;  196,646;23147,628;28,06997
 388,60; 6798,070;  186,345;23441,571;28,43114
 389,19; 6858,823;  177,101;23666,670;28,44549
 389,78; 7028,326;  191,564;23903,303;28,83282
 390,37; 7171,120;  256,726;24465,949;28,56099
 390,96; 7271,432;  194,882;24627,730;28,96327
 391,56; 7344,944;  196,868;24821,753;29,02785
 392,15; 7461,598;  188,950;25046,924;29,25680
 392,74; 7523,754;  161,783;25236,263;29,36042
 393,33; 7753,586;  188,406;25643,710;29,71947
 393,92; 7919,525;  194,624;26056,842;29,86944
 394,51; 8021,365;  169,251;26286,286;30,06510
 395,10; 8187,029;  210,689;26531,558;30,30424
 395,69; 8238,475;  206,306;26640,765;30,38522
 396,28; 8379,174;  212,607;26750,921;30,77274
 396,87; 8462,469;  203,057;26911,697;30,92412
 397,46; 8524,425;  210,742;26980,349;31,05643
 398,06; 8711,858;  233,810;27284,332;31,34153
 398,65; 8778,489;  208,403;27317,647;31,61315
 399,24; 8899,759;  220,553;27584,578;31,71758
 399,83; 8952,252;  190,904;27527,511;32,04987
 400,42; 9072,752;  237,182;27677,659;32,19904
 401,01; 9186,118;  212,379;27835,164;32,48673
 401,60; 9261,422;  217,717;27768,416;32,82568
 402,19; 9339,206;  248,835;27762,789;33,03913
 402,78; 9375,096;  247,547;27893,063;33,01638
 403,37; 9318,039;  234,801;27638,610;33,14589
 403,96; 9364,657;  238,585;27506,740;33,46787
 404,55; 9383,423;  249,438;27387,643;33,65729
 405,14; 9340,415;  223,990;27224,622;33,76375
 405,73; 9348,106;  238,761;27159,643;33,83747
 406,32; 9408,383;  243,788;27038,260;34,20330
 406,91; 9346,029;  246,346;26692,896;34,40783
 407,50; 9337,586;  248,547;26492,868;34,63241
 408,09; 9267,286;  218,910;26199,863;34,82696
 408,68; 9272,468;  232,895;26081,519;34,97120
 409,27; 9250,285;  218,453;25850,515;35,23646
 409,86; 9148,574;  229,344;25690,972;35,03009
 410,45; 9249,870;  282,075;25648,265;35,35334
 411,04; 9251,456;  269,037;25560,881;35,51508
 411,63; 9174,910;  250,780;25219,244;35,74161
 412,22; 9133,423;  251,595;24982,074;35,91450
 412,81; 9036,887;  264,919;24674,605;35,93643
 413,40; 8980,832;  278,170;24339,823;36,16818
 413,99; 8891,435;  326,625;23914,045;36,31092
 414,58; 8736,779;  237,937;23563,499;36,43575
 415,17; 8706,849;  257,688;23243,803;36,75767
 415,76; 8624,112;  247,055;23069,934;36,70465
 416,35; 8604,053;  241,910;22787,273;37,09030
 416,94; 8657,409;  269,059;22851,293;37,14579
 417,53; 8735,862;  247,228;23048,903;37,22811
 418,12; 8819,591;  251,309;23214,972;37,31235
 418,71; 8965,583;  281,248;23668,748;37,13238
 419,30; 9000,508;  246,157;23696,754;37,33104
 419,89; 9073,967;  240,776;23882,689;37,36242
 420,48; 9226,708;  275,709;24266,150;37,31069
 421,07; 9287,600;  264,713;24381,782;37,41287
 421,66; 9341,590;  229,953;24349,998;37,77620
 422,25; 9321,346;  257,894;24381,351;37,57112
 422,84; 9355,604;  278,667;24347,434;37,71251
 423,43; 9225,559;  261,967;24039,535;37,69768
 424,02; 9162,066;  289,817;23843,936;37,66751
 424,60; 8973,244;  250,685;23329,884;37,79403
 425,19; 8887,116;  258,597;22947,244;38,03012
 425,78; 8893,157;  275,752;22860,788;38,15537
 426,37; 8841,124;  271,298;22636,995;38,31683
 426,96; 8763,009;  255,760;22590,193;38,09028
 427,55; 8655,841;  259,464;22413,767;37,89953
 428,14; 8574,245;  243,085;22078,248;38,15479
 428,73; 8550,120;  259,998;21867,954;38,36606
 429,32; 8574,150;  269,528;21912,478;38,37103
 429,91; 8609,486;  291,383;21806,341;38,66195
 430,50; 8496,643;  268,159;21717,530;38,36236
 431,08; 8464,703;  294,473;21541,004;38,45442
 431,67; 8454,676;  322,325;21464,263;38,46550
 432,26; 8392,562;  365,099;21224,997;38,48275
 432,85; 8278,616;  366,713;20868,758;38,59080
 433,44; 8155,238;  387,414;20449,869;38,71822
 434,03; 8001,155;  409,194;20023,224;38,70679
 434,62; 7827,845;  354,414;19582,767;38,86672
 435,21; 7757,618;  359,253;19360,026;38,93718
 435,79; 7675,031;  364,267;19146,797;38,92321
 436,38; 7650,033;  352,047;19019,882;39,09391
 436,97; 7570,161;  354,895;18943,334;38,81588
 437,56; 7458,598;  358,835;18708,895;38,69068
 438,15; 7445,532;  325,446;18620,754;38,91755
 438,74; 7494,612;  341,524;18609,894;39,15559
 439,33; 7463,790;  315,445;18619,801;39,05270
 439,91; 7444,276;  268,606;18672,050;38,99091
 440,50; 7538,220;  326,376;18766,482;39,10955
 441,09; 7547,680;  321,540;18860,811;38,97748
 441,68; 7535,074;  308,934;18768,741;39,14526
 442,27; 7564,672;  282,776;18831,541;39,25812
 442,86; 7547,617;  281,335;18802,067;39,23323
 443,44; 7561,185;  284,562;18914,410;39,05895
 444,03; 7632,175;  358,567;18959,563;39,10333
 444,62; 7539,627;  284,566;18818,667;39,14439
 445,21; 7496,891;  304,256;18614,073;39,28294
 445,80; 7498,596;  340,037;18553,912;39,30278
 446,39; 7422,987;  365,804;18230,809;39,50283
 446,97; 7276,185;  290,509;18002,232;39,44097
 447,56; 7185,857;  295,827;17707,859;39,57051
 448,15; 7115,598;  290,124;17577,138;39,48324
 448,74; 7011,264;  307,972;17227,962;39,61759
 449,33; 6971,989;  284,671;17052,543;39,88173
 449,91; 6866,732;  298,682;16846,722;39,69080
 450,50; 6751,516;  278,065;16616,503;39,62099
 451,09; 6733,903;  302,451;16500,784;39,70441
 451,68; 6680,345;  324,147;16340,042;39,68681
 452,26; 6620,710;  322,306;16271,619;39,49013
 452,85; 6563,791;  300,996;16153,248;39,50729
 453,44; 6608,301;  325,626;16163,362;39,66902
 454,03; 6531,139;  287,002;16123,239;39,42943
 454,61; 6550,389;  287,858;16013,449;39,82382
 455,20; 6625,851;  313,940;16205,588;39,71842
 455,79; 6597,872;  318,084;16290,217;39,31715
 456,38; 6681,799;  319,948;16385,324;39,59977
 456,97; 6680,150;  301,637;16439,548;39,52502
 457,55; 6701,999;  306,336;16427,891;39,67150
 458,14; 6697,079;  335,405;16460,830;39,45120
 458,73; 6685,473;  312,568;16309,517;39,83825
 459,31; 6692,644;  346,808;16355,856;39,63906
 459,90; 6724,654;  360,880;16477,998;39,48456
 460,49; 6799,158;  418,877;16571,056;39,50105
 461,08; 6703,759;  318,043;16643,015;39,11624
 461,66; 6781,624;  318,269;16744,052;39,34884
 462,25; 6809,084;  321,201;16797,523;39,37701
 462,84; 6864,540;  350,583;16858,948;39,45852
 463,43; 6778,556;  291,365;16859,773;39,15398
 464,01; 6805,103;  327,369;16865,551;39,16835
 464,60; 6824,991;  373,054;16816,779;39,23647
 465,19; 6659,790;  305,064;16516,141;39,19990
 465,77; 6684,771;  313,531;16582,103;39,16287
 466,36; 6660,027;  346,750;16386,592;39,35997
 466,95; 6469,606;  319,674;16039,136;39,12305
 467,53; 6391,974;  327,844;15681,118;39,49731
 468,12; 6282,448;  359,615;15391,526;39,40173
 468,71; 6157,822;  326,373;15167,250;39,29315
 469,29; 6033,585;  304,308;14864,015;39,35022
 469,88; 5926,362;  319,158;14561,858;39,36897
 470,47; 6053,523;  379,705;14682,200;39,67013
 471,06; 6000,630;  341,090;14661,746;39,52012
 471,64; 5997,683;  345,472;14733,635;39,28375
 472,23; 5986,418;  300,874;14725,544;39,41542
 472,81; 6049,960;  310,020;14898,880;39,34468
 473,40; 6069,111;  323,797;15009,018;39,12310
 473,99; 6217,668;  431,336;15281,733;38,96416
 474,57; 6169,389;  331,028;15366,241;38,83125
 475,16; 6268,213;  346,252;15525,042;39,01471
 475,75; 6342,391;  368,649;15666,045;39,05071
 476,33; 6356,251;  369,810;15732,989;38,96616
 476,92; 6373,383;  356,260;15814,728;38,92444
 477,51; 6418,168;  357,499;15907,107;38,97634
 478,09; 6387,130;  355,346;15916,459;38,76191
 478,68; 6335,279;  362,733;15812,664;38,65743
 479,27; 6393,411;  385,650;15952,003;38,59453
 479,85; 6401,490;  348,271;15827,937;39,10433
 480,44; 6373,631;  344,428;15987,655;38,54194
 481,02; 6888,508;  364,818;17333,660;38,44511
 481,61; 7705,070;  377,431;19714,478;37,89430
 482,20; 8172,864;  373,972;21052,524;37,71488
 482,78; 8517,801;  396,734;22081,012;37,45141
 483,37; 8704,775;  395,135;22762,560;37,15063
 483,95; 8784,260;  430,599;22964,722;37,07116
 484,54; 8869,904;  433,199;23253,698;36,96985
 485,13; 8759,505;  399,298;23122,537;36,79144
 485,71; 8669,432;  370,142;22961,640;36,73634
 486,30; 8625,394;  421,065;22592,300;37,00439
 486,88; 8498,312;  475,529;22254,018;36,83811
 487,47; 8210,152;  441,146;21403,198;37,06224
 488,05; 7868,995;  428,457;20438,197;37,18458
 488,64; 7380,105;  412,233;19075,317;37,33505
 489,23; 6673,566;  448,305;17056,793;37,48241
 489,81; 5805,657;  431,230;14535,918;38,10383
 490,40; 5474,832;  391,001;13746,606;38,06515
 490,98; 5378,896;  372,927;13490,697;38,16174
 491,57; 5337,472;  397,998;13358,578;38,11152
 492,15; 5283,937;  372,620;13216,472;38,23866
 492,74; 5237,141;  382,458;13144,172;38,04099
 493,32; 5189,529;  406,618;13104,771;37,66619
 493,91; 5119,184;  372,701;12964,108;37,69621
 494,50; 5133,111;  382,097;12862,461;38,06791
 495,08; 5086,591;  373,404;12774,074;38,00751
 495,67; 5098,634;  377,776;12767,867;38,10188
 496,25; 5020,907;  338,629;12740,037;37,75601
 496,84; 4990,200;  338,007;12708,145;37,60825
 497,42; 4957,767;  341,401;12638,328;37,54081
 498,01; 4948,405;  358,162;12521,136;37,73948
 498,59; 4895,702;  321,248;12429,800;37,77870
 499,18; 4860,204;  316,778;12366,233;37,70649
 499,76; 4850,878;  353,014;12303,516;37,63745
 500,35; 4762,127;  338,100;12079,470;37,67896
 500,93; 4729,660;  337,093;12013,090;37,62049
 501,52; 4664,422;  315,017;11935,706;37,42812
 502,10; 4681,559;  337,797;11927,614;37,47913
 502,69; 4590,529;  308,186;11716,502;37,53703
 503,27; 4518,833;  294,790;11475,700;37,77906
 503,86; 4488,035;  324,954;11438,905;37,45816
 504,44; 4392,428;  294,958;11287,979;37,27337
 505,03; 4313,745;  289,958;11053,183;37,38459
 505,61; 4255,809;  304,956;10931,532;37,17898
 506,19; 4203,965;  315,419;10718,890;37,37740
 506,78; 4100,964;  285,966;10464,283;37,48161
 507,36; 4044,128;  309,957;10296,927;37,39043
 507,95; 3981,106;  311,740;10161,181;37,25457
 508,53; 3925,367;  299,274; 9978,139;37,46403
 509,12; 3856,171;  312,123; 9867,696;37,08880
 509,70; 3826,348;  325,740; 9678,871;37,42712
 510,29; 3767,741;  337,360; 9470,265;37,56068
 510,87; 3679,886;  294,197; 9288,886;37,64098
 511,46; 3581,553;  296,660; 9110,736;37,26872
 512,04; 3527,014;  304,511; 8952,708;37,26214
 512,62; 3477,823;  314,276; 8767,473;37,42427
 513,21; 3402,540;  294,437; 8630,503;37,28500
 513,79; 3352,153;  301,451; 8491,100;37,25071
 514,38; 3263,298;  277,446; 8276,924;37,32558
 514,96; 3258,873;  327,446; 8199,239;37,23964
 515,54; 3182,639;  279,295; 8031,149;37,45354
 516,13; 3150,323;  302,603; 7921,444;37,37734
 516,71; 3075,786;  298,301; 7784,378;37,10201
 517,30; 3052,084;  290,537; 7676,005;37,39164
 517,88; 3011,074;  304,767; 7570,020;37,25000
 518,46; 2924,425;  286,539; 7422,922;36,96391
 519,05; 2929,875;  293,774; 7412,589;37,03006
 519,63; 2920,862;  302,695; 7289,617;37,47239
 520,22; 2891,032;  315,242; 7211,547;37,35029
 520,80; 2839,755;  288,704; 7164,413;37,10236
 521,38; 2870,742;  338,005; 7157,098;37,14185
 521,97; 2818,897;  279,324; 7074,849;37,37126
 522,55; 2798,022;  306,862; 7048,777;36,95033
 523,13; 2767,586;  293,711; 7019,990;36,77924
 523,72; 2759,646;  297,385; 6998,783;36,74249
 524,30; 2802,122;  325,176; 7133,770;36,37969
 524,89; 2805,389;  278,170; 7138,946;36,83575
 525,47; 2853,750;  297,255; 7264,267;36,69428
 526,05; 2828,444;  264,487; 7333,844;36,26861
 526,64; 2904,468;  305,335; 7460,569;36,32492
 527,22; 2916,163;  309,562; 7560,942;35,94627
 527,80; 2966,044;  344,027; 7740,589;35,44913
 528,39; 2985,089;  295,492; 7772,747;35,97038
 528,97; 3011,922;  296,798; 7954,480;35,45621
 529,55; 3059,913;  321,096; 8083,012;35,28532
 530,14; 3158,526;  330,417; 8333,147;35,33930
 530,72; 3174,192;  293,644; 8490,141;35,14364
 531,30; 3196,633;  287,726; 8630,475;34,86749
 531,89; 3235,229;  313,187; 8692,068;34,87389
 532,47; 3306,406;  338,035; 8823,397;34,98226
 533,05; 3302,236;  326,642; 8809,544;35,07755
 533,63; 3301,822;  334,113; 8917,583;34,57470
 534,22; 3299,620;  299,114; 8954,348;34,66696
 534,80; 3312,209;  334,350; 9017,298;34,29548
 535,38; 3412,154;  424,265; 9164,644;34,18489
 535,97; 3336,695;  320,882; 9102,002;34,34429
 536,55; 3376,095;  384,043; 9186,753;33,99012
 537,13; 3349,594;  379,956; 9140,418;33,89819
 537,71; 3388,256;  430,263; 9176,936;33,81849
 538,30; 3392,115;  462,270; 9290,418;33,18754
 538,88; 3435,892;  502,356; 9416,092;32,91029
 539,46; 3555,334;  566,350; 9652,534;32,89592
 540,05; 3589,427;  580,738; 9772,863;32,73116
 540,63; 3689,264;  625,046; 9942,134;32,88815
 541,21; 3758,944;  677,819;10113,095;32,65538
 541,79; 3781,155;  717,050;10281,765;32,03551
 542,38; 3835,781;  761,045;10444,689;31,75185
 542,96; 3883,425;  761,208;10577,167;31,80755
 543,54; 3934,385;  785,280;10800,663;31,44268
 544,12; 3941,177;  760,589;10923,979;31,29455
 544,70; 3981,772;  738,593;11123,609;31,22940
 545,29; 4044,291;  746,968;11267,168;31,34278
 545,87; 4033,848;  729,665;11244,150;31,42506
 546,45; 4031,001;  675,660;11262,704;31,69290
 547,03; 4023,094;  640,894;11381,789;31,48900
 547,62; 4020,849;  598,743;11496,637;31,40154
 548,20; 4102,250;  612,592;11674,966;31,54529
 548,78; 4091,937;  562,835;11793,192;31,42466
 549,36; 4127,742;  519,526;12014,494;31,38953
 549,94; 4153,064;  472,129;12145,369;31,53310
 550,53; 4222,133;  474,909;12398,853;31,42604
 551,11; 4245,163;  443,760;12561,077;31,37165
 551,69; 4305,895;  469,603;12876,559;30,92050
 552,27; 4367,522;  411,137;13100,879;31,17782
 552,85; 4465,431;  413,529;13537,801;30,87335
 553,44; 4540,462;  412,679;13849,157;30,72072
 554,02; 4640,303;  421,451;14228,259;30,55632
 554,60; 4664,645;  371,223;14466,355;30,46032
 555,18; 4808,646;  397,834;14897,933;30,41919
 555,76; 4883,620;  384,912;15322,232;30,11724
 556,34; 5012,529;  391,304;15682,821;30,22084
 556,93; 5121,128;  361,373;16088,353;30,26490
 557,51; 5162,818;  354,304;16468,350;29,84051
 558,09; 5253,022;  381,219;16808,743;29,65634
 558,67; 5354,363;  368,462;17224,180;29,57988
 559,25; 5413,013;  387,844;17472,060;29,41410
 559,83; 5494,821;  374,542;17839,166;29,31800
 560,41; 5621,026;  365,379;18235,187;29,41076
 561,00; 5694,152;  376,308;18626,049;29,13928
 561,58; 5770,159;  352,994;18796,229;29,37210
 562,16; 5797,269;  347,530;19164,918;28,96119
 562,74; 5873,640;  339,066;19555,485;28,80127
 563,32; 5981,167;  343,926;20050,506;28,60588
 563,90; 6073,758;  360,539;20411,537;28,49344
 564,48; 6173,215;  370,378;20854,554;28,32839
 565,06; 6348,814;  372,384;21477,336;28,31767
 565,65; 6548,053;  353,624;22233,407;28,31120
 566,23; 6788,412;  412,001;23021,505;28,20235
 566,81; 6910,589;  351,383;23763,861;28,01586
 567,39; 7155,141;  360,928;24679,805;27,93802
 567,97; 7329,986;  384,230;25464,026;27,69463
 568,55; 7580,089;  413,464;26378,032;27,60156
 569,13; 7727,008;  354,232;27136,111;27,52898
 569,71; 7924,922;  345,683;28132,950;27,27594
 570,29; 8260,156;  409,065;29246,951;27,22492
 570,87; 8446,583;  387,451;29999,379;27,21583
 571,45; 8540,055;  389,077;30668,475;26,91922
 572,03; 8570,278;  353,544;31270,987;26,57637
 572,61; 8767,425;  341,618;31978,938;26,63249
 573,20; 8977,664;  373,228;32704,824;26,61309
 573,78; 9140,100;  375,234;33318,171;26,60621
 574,36; 9216,356;  381,386;33938,719;26,32799
 574,94; 9371,954;  445,700;34388,861;26,29765
 575,52; 9349,940;  385,861;34576,077;26,21826
 576,10; 9497,549;  442,012;35242,734;26,02112
 576,68; 9597,095;  424,544;35783,530;25,94122
 577,26; 9743,984;  449,787;36541,774;25,75141
 577,84; 9877,251;  453,694;37055,134;25,74641
 578,42; 9941,967;  513,240;37331,755;25,60866
 579,00; 9885,955;  448,542;37584,759;25,41296
 579,58; 9952,925;  497,623;37754,647;25,37858
 580,16; 9897,229;  462,395;37776,249;25,28507
 580,74; 9866,750;  469,165;38010,867;25,03239
 581,32; 9823,369;  474,239;38026,355;24,89641
 581,90; 9829,565;  497,626;38043,001;24,85510
 582,48; 9803,470;  494,857;38099,453;24,75392
 583,06; 9799,147;  488,238;38198,764;24,69048
 583,64; 9796,319;  491,546;38382,838;24,55649
 584,22; 9643,895;  504,016;38075,661;24,32653
 584,80; 9532,410;  508,317;37821,207;24,18492
 585,38; 9386,980;  514,919;37327,143;24,10085
 585,96; 9314,217;  481,851;37420,177;23,91112
 586,54; 9277,892;  501,400;37307,996;23,84489
 587,12; 9237,646;  463,628;37530,769;23,67061
 587,70; 9278,122;  510,928;37611,641;23,63080
 588,28; 9244,223;  477,858;37629,493;23,59617
 588,86; 9234,889;  482,167;37745,176;23,48904
 589,44; 9124,722;  469,022;37772,098;23,20372
 590,02; 9177,632;  466,558;38029,588;23,19055
 590,59; 9146,074;  438,476;38154,901;23,08702
 591,17; 9123,170;  446,722;38353,173;22,88911
 591,75; 9083,661;  434,948;38433,722;22,76051
 592,33; 9114,070;  463,945;38675,014;22,63775
 592,91; 9105,791;  404,566;38865,378;22,62361
 593,49; 9168,357;  426,185;39257,308;22,51331
 594,07; 9149,077;  432,031;39491,060;22,31762
 594,65; 9127,672;  448,477;39415,532;22,27316
 595,23; 9162,794;  436,327;39822,395;22,15623
 595,81; 9157,702;  418,021;39951,678;22,10694
 596,39; 9144,588;  415,022;40133,813;21,97843
 596,97; 9140,618;  411,951;40303,587;21,88095
 597,55; 9078,272;  415,787;40272,969;21,73381
 598,12; 9003,649;  379,879;40227,054;21,64211
 598,70; 9013,419;  384,183;40374,478;21,57833
 599,28; 8987,525;  417,260;40522,243;21,36958
 599,86; 8963,015;  410,413;40465,982;21,35184
 600,44; 8955,115;  372,800;40589,695;21,34007
 601,02; 8926,181;  424,194;40739,744;21,08861
 601,60; 8870,940;  399,794;40707,509;21,01619
 602,18; 8842,609;  372,725;40657,689;21,02493
 602,75; 8793,028;  390,405;40810,676;20,78814
 603,33; 8738,237;  387,260;40826,496;20,65068
 603,91; 8665,770;  379,267;40766,288;20,51774
 604,49; 8710,709;  399,645;40918,327;20,51168
 605,07; 8577,237;  419,640;40854,908;20,17446
 605,65; 8624,626;  427,108;40968,815;20,21996
 606,23; 8622,015;  485,860;41130,809;20,01763
 606,80; 8551,547;  547,482;41160,884;19,70794
 607,38; 8508,874;  598,574;41169,156;19,49763
 607,96; 8528,191;  675,559;41200,713;19,37718
 608,54; 8501,068;  731,878;41337,331;19,13337
 609,12; 8453,038;  752,867;41435,725;18,92731
 609,70; 8439,014;  801,028;41419,969;18,80400
 610,27; 8385,862;  805,635;41394,050;18,67584
 610,85; 8410,301;  828,720;41554,473;18,61618
 611,43; 8390,794;  820,875;41544,044;18,58873
 612,01; 8237,890;  795,024;41166,761;18,43583
 612,59; 8242,773;  782,567;41314,227;18,40587
 613,16; 8172,145;  749,093;41198,453;18,35147
 613,74; 8081,497;  710,029;41053,414;18,27181
 614,32; 7996,223;  671,416;41145,959;18,09732
 614,90; 7978,019;  608,410;40921,085;18,28112
 615,48; 7836,282;  537,787;40466,942;18,27861
 616,05; 7798,316;  515,477;40556,976;18,18823
 616,63; 7726,427;  515,783;40369,471;18,09279
 617,21; 7643,006;  502,943;40301,616;17,94046
 617,79; 7577,857;  471,637;40150,627;17,90928
 618,36; 7553,449;  494,947;40059,040;17,84068
 618,94; 7361,293;  419,788;39722,709;17,66155
 619,52; 7369,708;  460,630;39491,591;17,70153
 620,10; 7280,624;  427,636;39463,743;17,55551
 620,67; 7233,764;  452,013;39260,159;17,47507
 621,25; 7159,469;  457,640;39178,536;17,30804
 621,83; 7131,610;  445,249;39091,913;17,30126
 622,41; 7071,744;  472,710;38960,724;17,14569
 622,98; 7007,609;  433,013;38660,377;17,19867
 623,56; 6986,848;  445,858;38758,773;17,07254
 624,14; 6910,579;  422,642;38592,299;16,99763
 624,72; 6871,725;  413,403;38498,176;16,95775
 625,29; 6828,415;  401,705;38672,999;16,79251
 625,87; 6818,338;  452,253;38624,572;16,67723
 626,45; 6719,403;  400,857;38355,438;16,64765
 627,02; 6652,849;  411,022;38241,987;16,49925
 627,60; 6661,143;  391,492;38177,062;16,59271
 628,18; 6540,191;  375,482;38304,341;16,25335
 628,76; 6540,976;  377,321;38278,995;16,26222
 629,33; 6530,020;  398,017;38256,602;16,19713
 629,91; 6496,009;  393,636;38332,358;16,08481
 630,49; 6530,191;  402,169;38344,343;16,15095
 631,06; 6462,967;  391,014;38561,355;15,90752
 631,64; 6408,847;  399,781;38570,518;15,74260
 632,22; 6365,687;  356,547;38450,251;15,77463
 632,79; 6375,331;  386,085;38721,784;15,62316
 633,37; 6340,948;  366,409;38772,136;15,55638
 633,95; 6326,335;  380,549;38718,244;15,50898
 634,52; 6300,754;  344,710;38943,543;15,43063
 635,10; 6308,911;  357,482;38921,926;15,43243
 635,68; 6300,466;  353,393;39211,839;15,30445
 636,25; 6231,274;  339,696;39104,527;15,19826
 636,83; 6198,822;  334,244;39427,610;15,00146
 637,41; 6172,559;  345,930;39291,272;14,96104
 637,98; 6212,289;  369,699;39619,369;14,88571
 638,56; 6200,387;  350,541;39736,047;14,85279
 639,13; 6165,984;  337,628;39806,545;14,76695
 639,71; 6223,708;  402,091;39826,373;14,76658
 640,29; 6069,869;  312,168;39716,869;14,61171
 640,86; 6098,695;  323,861;39894,696;14,59366
 641,44; 6058,366;  330,477;39943,908;14,45946
 642,02; 6043,884;  357,015;39948,428;14,36390
 642,59; 6001,633;  334,169;40035,178;14,27536
 643,17; 6009,689;  331,016;40039,313;14,30098
 643,74; 5954,515;  328,862;40171,987;14,11951
 644,32; 5929,648;  359,862;40031,352;14,03977
 644,89; 5930,243;  357,016;39901,795;14,09346
 645,47; 5900,607;  367,401;40017,007;13,95526
 646,05; 5887,125;  366,017;39912,373;13,96111
 646,62; 5819,336;  340,017;39976,892;13,82379
 647,20; 5850,623;  348,479;40112,874;13,83686
 647,77; 5770,910;  320,633;39946,778;13,75424
 648,35; 5701,505;  318,864;39738,682;13,65466
 648,92; 5699,638;  336,249;39838,663;13,57737
 649,50; 5676,541;  310,172;39786,567;13,59387
 650,08; 5601,136;  320,557;39662,395;13,42230
 650,65; 5607,192;  317,250;39898,145;13,36489
 651,23; 5708,556;  300,635;40709,588;13,38298
 651,80; 5805,997;  300,635;41761,877;13,27833
 652,38; 5863,669;  324,558;42164,704;13,23875
 652,95; 5872,187;  295,789;42632,531;13,17153
 653,53; 5899,013;  322,251;42930,436;13,08848
 654,10; 5929,069;  365,636;43113,955;13,01439
 654,68; 5880,433;  300,867;42913,706;13,09363
 655,25; 5849,105;  307,252;43032,456;12,97092
 655,83; 5842,315;  304,098;43190,129;12,91380
 656,40; 5858,756;  322,637;43142,111;12,92898
 656,98; 5776,197;  318,945;43018,092;12,78071
 657,55; 5780,792;  309,714;42845,611;12,86226
 658,13; 5684,233;  309,791;42472,900;12,74679
 658,70; 5654,751;  327,099;42161,958;12,73496
 659,28; 5457,039;  322,253;41234,632;12,55069
 659,85; 5350,018;  343,254;40317,075;12,52511
 660,43; 5288,921;  345,869;40357,133;12,35415
 661,00; 5306,285;  326,562;40518,191;12,38995
 661,58; 5308,880;  316,562;40828,941;12,32294
 662,15; 5322,167;  299,408;40983,230;12,34584
 662,73; 5394,685;  377,716;41372,980;12,23792
 663,30; 5393,895;  311,486;41576,731;12,31644
 663,88; 5351,644;  331,409;41704,558;12,13404
 664,45; 5380,854;  306,871;41859,309;12,21104
 665,03; 5383,295;  324,410;42232,367;12,07142
 665,60; 5486,505;  415,487;42783,963;11,96885
 666,17; 5402,408;  316,564;42807,406;11,96927
 666,75; 5439,464;  313,564;43193,464;11,95409
 667,32; 5496,521;  340,488;43441,368;11,96271
 667,90; 5495,500;  325,642;43905,888;11,86285
 668,47; 5518,864;  345,103;44130,177;11,81627
 669,05; 5520,921;  317,027;44485,158;11,78201
 669,62; 5505,746;  291,565;44558,216;11,77903
 670,19; 5519,188;  288,104;44634,351;11,79600
 670,77; 5511,321;  313,951;44841,332;11,67230
 671,34; 5514,147;  306,643;44754,544;11,71597
 671,92; 5467,741;  294,874;45131,525;11,53714
 672,49; 5525,798;  322,105;45166,353;11,60392
 673,06; 5491,008;  268,490;45249,334;11,61054
 673,64; 5468,141;  302,952;45140,161;11,51987
 674,21; 5449,198;  289,491;45045,527;11,52852
 674,79; 5483,639;  323,568;45349,893;11,46012
 675,36; 5488,541;  323,953;45390,720;11,45986
 675,93; 5420,598;  290,337;45408,470;11,37073
 676,51; 5452,654;  316,491;45568,759;11,35007
 677,08; 5420,634;  318,876;45659,279;11,25212
 677,65; 5399,613;  317,415;45807,183;11,17218
 678,23; 5450,977;  302,877;46022,780;11,26009
 678,80; 5401,572;  307,108;46030,530;11,14191
 679,38; 5431,475;  305,185;46184,434;11,17344
 679,95; 5504,762;  323,031;46395,185;11,24699
 680,52; 5465,742;  302,032;46786,704;11,10841
 681,10; 5541,644;  318,032;47129,070;11,15893
 681,67; 5536,239;  316,417;47439,205;11,07707
 682,24; 5500,603;  291,340;47425,109;11,05208
 682,82; 5577,044;  301,033;48114,937;11,03447
 683,39; 5635,485;  344,494;48527,072;10,98113
 683,96; 5626,465;  306,033;48747,822;10,98314
 684,54; 5683,137;  282,495;49060,803;11,07181
 685,11; 5749,116;  337,726;49360,169;11,03860
 685,68; 5759,249;  301,265;49795,766;11,02746
 686,25; 5700,383;  285,342;49890,978;10,91618
 686,83; 5748,824;  290,957;50080,882;10,96179
 687,40; 5758,726;  278,958;50513,940;10,90827
 687,97; 5829,937;  335,496;50846,844;10,87764
 688,55; 5761,147;  279,650;50880,748;10,83276
 689,12; 5780,819;  273,112;51153,729;10,82476
 689,69; 5773,952;  286,959;51219,865;10,77298
 690,26; 5766,624;  288,959;51368,000;10,72390
 690,84; 5800,450;  294,267;51612,058;10,72958
 691,41; 5822,198;  312,729;51610,193;10,74024
 691,98; 5824,870;  304,883;51946,020;10,68913
 692,56; 5826,080;  294,191;52029,617;10,69265
 693,13; 5885,444;  344,499;52126,752;10,70047
 693,70; 5861,501;  317,960;52271,348;10,67022
 694,27; 5837,327;  292,191;52377,022;10,64635
 694,84; 5870,152;  283,345;52627,849;10,67315
 695,42; 5910,593;  358,423;52537,599;10,64059
 695,99; 5886,650;  313,192;52812,811;10,61619
 696,56; 5861,937;  305,039;52635,485;10,61886
 697,13; 5917,763;  325,346;53021,543;10,61256
 697,71; 5907,665;  300,193;53194,447;10,60129
 698,28; 5901,183;  297,732;53457,274;10,54082
 698,85; 5875,086;  270,116;53464,102;10,53685
 699,42; 5908,373;  270,501;53696,160;10,55274
 699,99; 5943,429;  320,963;53684,987;10,53606
 700,57; 5935,409;  309,579;53846,353;10,50835
 701,14; 5899,465;  297,964;53927,565;10,44479
 701,71; 5930,983;  318,964;54135,315;10,42809
 702,28; 5969,116;  307,349;54182,989;10,50896
 702,85; 5949,404;  310,734;54232,431;10,45715
 703,43; 5975,306;  336,426;54564,874;10,39838
 704,00; 6002,440;  351,503;54703,624;10,39690
 704,57; 5999,573;  333,503;54663,606;10,42897
 705,14; 6052,706;  366,427;55021,741;10,40389
 705,71; 6036,993;  351,812;55013,799;10,40061
 706,28; 6022,127;  322,043;54893,165;10,44524
 706,86; 6073,568;  356,658;55263,223;10,41207
 707,43; 6060,778;  389,197;55096,896;10,36706
 708,00; 6047,219;  364,813;55111,108;10,37953
 708,57; 6016,122;  328,890;55065,858;10,39011
 709,14; 6115,101;  355,736;55208,455;10,49969
 709,71; 6063,465;  338,813;55246,898;10,42588
 710,28; 6090,599;  340,737;55489,956;10,42601
 710,86; 6115,347;  344,122;55641,168;10,43677
 711,43; 6149,481;  363,737;55624,687;10,46986
 712,00; 6146,768;  340,507;55743,361;10,48008
 712,57; 6171,286;  360,199;55809,342;10,48003
 713,14; 6161,573;  335,353;55867,708;10,49158
 713,71; 6146,860;  331,507;55872,997;10,47029
 714,28; 6109,224;  324,508;56002,824;10,38953
 714,85; 6138,512;  312,277;55590,344;10,53987
 715,42; 6133,414;  303,893;55835,940;10,49758
 716,00; 6186,471;  386,585;56035,998;10,42219
 716,57; 6159,373;  300,355;56146,902;10,49128
 717,14; 6174,737;  296,970;56012,191;10,54966
 717,71; 6169,101;  288,201;56080,326;10,54073
 718,28; 6222,312;  337,432;56173,923;10,53949
 718,85; 6135,599;  288,279;56151,750;10,46716
 719,42; 6225,194;  307,818;56427,193;10,54427
 719,99; 6195,712;  289,125;56093,251;10,58450
 720,56; 6210,153;  316,203;56343,617;10,51976
 721,13; 6201,055;  291,664;56560,906;10,50199
 721,70; 6168,727;  299,357;56479,348;10,44744
 722,27; 6220,091;  315,896;56447,560;10,51848
 722,84; 6322,225;  371,127;56606,926;10,58240
 723,41; 6226,358;  290,588;56622,138;10,53720
 723,98; 6265,414;  297,896;56860,735;10,55024
 724,55; 6303,932;  324,281;56918,485;10,56584
 725,12; 6258,066;  251,512;56796,774;10,62256
 725,69; 6315,045;  289,051;57077,140;10,61137
 726,27; 6350,486;  296,590;57087,582;10,65996
 726,84; 6350,850;  313,436;57426,794;10,57093
 727,41; 6374,061;  338,052;57489,929;10,56135
 727,98; 6436,963;  316,744;57737,603;10,65853
 728,55; 6485,404;  346,437;57500,276;10,74113
 729,12; 6427,384;  295,668;57679,180;10,68550
 729,69; 6542,517;  317,745;57808,546;10,82742
 730,26; 6559,881;  333,822;58132,450;10,77198
 730,82; 6522,399;  304,053;57925,585;10,79171
 731,39; 6482,994;  312,284;58041,951;10,68898
 731,96; 6607,974;  309,823;58448,779;10,83293
 732,53; 6626,568;  328,669;58661,837;10,79643
 733,10; 6695,933;  323,823;58635,741;10,92763
 733,67; 6708,374;  328,054;58841,568;10,90401
 734,24; 6617,892;  310,593;58491,319;10,84087
 734,81; 6687,486;  352,516;58693,607;10,85850
 735,38; 6672,158;  320,286;58334,742;10,94878
 735,95; 6670,676;  320,517;58207,647;10,96990
 736,52; 6669,963;  339,902;58423,397;10,89821
 737,09; 6655,789;  335,671;58058,686;10,94904
 737,66; 6745,846;  376,364;58246,975;11,00642
 738,23; 6685,517;  322,595;58314,418;10,97210
 738,80; 6831,728;  398,672;58660,937;11,04155
 739,37; 6777,861;  359,211;58834,457;10,97670
 739,94; 6812,917;  331,980;58848,438;11,07541
 740,51; 6952,281;  457,904;58906,111;11,11134
 741,07; 6837,492;  326,904;58854,016;11,12405
 741,64; 6901,702;  354,904;59132,843;11,13819
 742,21; 6895,374;  328,135;59186,363;11,15772
 742,78; 6846,353;  304,520;58860,344;11,17196
 743,35; 6914,487;  326,751;59209,940;11,18780
 743,92; 7002,620;  369,520;59396,614;11,23738
 744,49; 7003,215;  361,136;59206,903;11,28727
 745,06; 7002,117;  328,675;59118,961;11,35127
 745,63; 6979,097;  315,136;59212,327;11,31456
 746,19; 7021,846;  329,368;59178,077;11,37234
 746,76; 7028,056;  315,060;59189,366;11,40225
 747,33; 7042,651;  318,445;59148,501;11,42988
 747,90; 7111,707;  342,445;59377,174;11,46658
 748,47; 7103,687;  335,215;59260,771;11,48648
 749,04; 7152,974;  338,676;59297,137;11,55779
 749,61; 7126,492;  361,907;59176,810;11,50148
 750,17; 7144,856;  352,523;59399,714;11,50323
 750,74; 7153,297;  335,216;59300,619;11,56285
 751,31; 7156,200;  310,139;59240,907;11,61712
 751,88; 7177,718;  294,601;59138,889;11,69717
 752,45; 7246,082;  320,063;59230,024;11,75696
 753,02; 7249,754;  350,678;59124,082;11,73843
 753,58; 7222,272;  316,678;59082,601;11,75102
 754,15; 7251,789;  323,140;59156,044;11,77683
 754,72; 7256,923;  317,063;58842,025;11,85795
 755,29; 7227,210;  298,910;58758,237;11,85149
 755,86; 7282,113;  316,833;58818,372;11,90615
 756,42; 7350,015;  316,833;58810,738;12,02379
 756,99; 7294,764;  286,218;58738,411;11,99022
 757,56; 7318,205;  288,142;58803,162;12,01412
 758,13; 7257,723;  232,757;58630,912;12,02943
 758,70; 7350,395;  270,911;58731,278;12,10989
 759,26; 7352,836;  257,989;58774,490;12,12452
 759,83; 7377,277;  265,989;58868,548;12,13477
 760,40; 7417,487;  232,681;58704,375;12,28766
 760,97; 7423,159;  234,374;58750,203;12,28520
 761,53; 7350,985;  224,605;58341,261;12,26220
 762,10; 7375,349;  222,913;58241,934;12,32774
 762,67; 7413,944;  247,528;58252,146;12,35490
 763,24; 7390,692;  214,913;57818,050;12,45727
 763,80; 7416,595;  250,760;57981,724;12,41246
 764,37; 7436,728;  254,606;57965,090;12,44509
 764,94; 7415,015;  245,529;57482,225;12,52603
 765,50; 7429,841;  251,684;57604,744;12,51574
 766,07; 7504,590;  284,607;57530,187;12,61230
 766,64; 7466,723;  261,761;57140,937;12,66714
 767,21; 7449,780;  273,838;57176,996;12,61080
 767,77; 7531,605;  280,454;56999,131;12,78442
 768,34; 7548,431;  301,762;57055,035;12,76872
 768,91; 7585,564;  318,300;56858,324;12,85331
 769,47; 7581,928;  311,531;56753,613;12,88116
 770,04; 7565,600;  306,762;56771,748;12,85547
 770,61; 7515,733;  290,609;56396,190;12,87773
 771,18; 7531,405;  285,224;56340,248;12,92691
 771,74; 7573,846;  301,302;56538,076;12,93201
 772,31; 7572,518;  298,840;56210,672;13,00919
 772,88; 7567,036;  272,917;56079,807;13,07028
 773,44; 7521,708;  273,225;55882,558;13,03465
 774,01; 7600,380;  310,533;55919,693;13,10907
 774,58; 7589,205;  282,457;55535,135;13,22424
 775,14; 7622,646;  275,842;55845,501;13,22089
 775,71; 7719,164;  285,919;55677,559;13,41944
 776,27; 7704,452;  346,996;55599,002;13,31618
 776,84; 7769,893;  398,535;55670,137;13,33661
 777,41; 7699,641;  301,150;55439,657;13,41801
 777,97; 7662,005;  298,843;55128,176;13,42924
 778,54; 7728,216;  304,997;55210,542;13,51998
 779,11; 7793,811;  325,228;55243,062;13,59956
 779,67; 7761,021;  290,690;55108,274;13,62762
 780,24; 7792,616;  297,151;54843,716;13,74140
 780,80; 7837,057;  313,921;54847,005;13,79554
 781,37; 7886,267;  308,844;54844,525;13,89443
 781,94; 7840,862;  292,075;54671,198;13,88177
 782,50; 7887,149;  303,537;54516,487;13,98856
 783,07; 7871,898;  322,999;54478,391;13,93933
 783,63; 7903,108;  279,153;54390,834;14,08930
 784,20; 7932,703;  314,769;54270,200;14,11894
 784,77; 7903,913;  306,769;54102,796;14,12213
 785,33; 7903,585;  272,384;53903,393;14,22908
 785,90; 7922,642;  297,077;53778,297;14,25840
 786,46; 7952,083;  321,462;53734,201;14,28614
 787,03; 7971,216;  278,385;53483,413;14,45884
 787,59; 7992,657;  279,001;53492,394;14,49570
 788,16; 7983,944;  295,155;53466,683;14,46035
 788,73; 7926,001;  290,001;53245,126;14,41976
 789,29; 7949,903;  278,309;52894,492;14,58029
 789,86; 7968,267;  319,002;52748,088;14,58974
 790,42; 7965,093;  295,310;52568,993;14,67236
 790,99; 7948,534;  299,771;52310,358;14,70616
 791,55; 7965,206;  282,002;52318,724;14,76496
 792,12; 8000,262;  320,695;52386,013;14,74987
 792,68; 7984,319;  301,157;52024,148;14,85444
 793,25; 7982,606;  299,542;51748,437;14,93339
 793,81; 8028,662;  386,234;51357,033;14,99374
 794,38; 7918,026;  261,158;51107,938;15,05871
 794,94; 7957,775;  281,081;51000,842;15,13551
 795,51; 7953,678;  307,620;50705,669;15,17134
 796,07; 7904,503;  307,004;50507,420;15,13433
 796,64; 7977,406;  321,005;50645,632;15,21402
 797,20; 7922,078;  290,159;50092,613;15,32438
 797,77; 7889,980;  265,928;49761,517;15,40350
 798,33; 7892,729;  293,313;49617,806;15,40698
 798,90; 7900,708;  317,390;49516,172;15,41363
 799,46; 7846,226;  276,698;48859,691;15,58061
 800,03; 7917,129;  284,775;48971,442;15,67648
 800,59; 7901,955;  323,468;48783,192;15,63873
 801,15; 7864,626;  321,391;48491,789;15,65948
 801,72; 7858,991;  296,315;48094,001;15,82226
 802,28; 7835,201;  324,084;47851,905;15,80362
 802,85; 7772,796;  288,930;47575,886;15,82649
 803,41; 7793,160;  289,085;47498,021;15,89546
 803,98; 7782,293;  288,931;47040,771;16,02795
 804,54; 7733,965;  285,162;46674,830;16,05703
 805,11; 7732,021;  294,239;46584,195;16,06781
 805,67; 7757,386;  311,316;46593,638;16,08837
 806,23; 7702,750;  296,393;46081,542;16,17633
 806,80; 7684,575;  315,932;45931,677;16,15373
 807,36; 7686,863;  314,086;45848,889;16,19152
 807,93; 7750,765;  336,394;45595,870;16,38192
 808,49; 7696,283;  283,933;45222,852;16,49428
 809,05; 7662,416;  279,087;45020,448;16,50225
 809,62; 7714,011;  294,010;44972,583;16,60752
 810,18; 7692,529;  298,395;44863,103;16,59191
 810,74; 7601,970;  262,857;44524,699;16,58113
 811,31; 7649,488;  268,242;44358,373;16,74127
 811,87; 7708,699;  293,011;44152,046;16,90800
 812,44; 7715,832;  312,935;44118,412;16,89948
 813,00; 7674,734;  242,319;43858,701;17,04042
 813,56; 7731,791;  287,089;43919,144;17,06246
 814,13; 7706,540;  284,397;43833,432;17,04319
 814,69; 7695,211;  278,551;43654,644;17,09850
 815,25; 7644,191;  244,397;43192,779;17,22950
 815,82; 7670,555;  289,321;43147,914;17,22230
 816,38; 7680,765;  318,167;42990,126;17,25395
 816,94; 7582,591;  262,937;42604,800;17,28704
 817,51; 7630,801;  246,014;42349,396;17,53965
 818,07; 7558,319;  256,014;42045,916;17,47385
 818,63; 7568,529;  275,630;41873,436;17,53193
 819,20; 7591,894;  266,245;41944,801;17,57654
 819,76; 7536,565;  256,399;41441,475;17,67671
 820,32; 7565,929;  304,092;41310,533;17,70902
 820,89; 7520,601;  287,015;41095,822;17,72555
 821,45; 7517,427;  256,631;40794,495;17,91115
 822,01; 7537,637;  278,170;40478,553;18,05820
 822,57; 7523,463;  279,939;40359,150;18,07302
 823,14; 7483,750;  245,247;40150,208;18,13936
 823,70; 7527,268;  267,093;39855,728;18,33904
 824,26; 7470,940;  255,940;39693,940;18,29454
 824,82; 7511,150;  299,402;39626,075;18,33806
 825,39; 7465,207;  262,017;39235,287;18,48238
 825,95; 7502,032;  269,864;39183,422;18,58522
 826,51; 7448,627;  278,633;38870,710;18,57893
 827,08; 7500,145;  313,095;38988,384;18,58305
 827,64; 7494,125;  295,710;38658,519;18,76404
 828,20; 7460,719;  253,172;38377,039;18,90560
 828,76; 7469,699;  307,711;38348,327;18,82721
 829,32; 7507,371;  294,634;38190,539;19,03302
 829,89; 7469,427;  244,635;38065,367;19,10273
 830,45; 7483,253;  276,404;38015,502;19,09651
 831,01; 7510,617;  260,481;37845,406;19,29001
 831,57; 7467,366;  271,404;37624,156;19,26488
 832,14; 7490,422;  267,097;37710,599;19,29126
 832,70; 7465,940;  257,174;37407,811;19,40415
 833,26; 7471,612;  229,944;37299,869;19,53516
 833,82; 7446,438;  260,329;37228,312;19,43874
 834,38; 7497,802;  245,252;37213,601;19,61827
 834,95; 7517,320;  250,867;37046,736;19,74801
 835,51; 7490,376;  220,406;36916,948;19,81105
 836,07; 7561,586;  267,791;36998,236;19,85763
 836,63; 7586,873;  275,022;36999,833;19,90984
 837,19; 7567,930;  272,715;36822,430;19,95971
 837,75; 7454,832;  236,561;36472,718;19,92008
 838,32; 7561,274;  284,946;36590,161;20,04210
 838,88; 7560,791;  283,023;36670,527;20,00074
 839,44; 7583,233;  276,869;36566,816;20,13330
 840,00; 7585,520;  266,254;36430,489;20,23896
 840,56; 7567,730;  260,331;36155,240;20,35776
 841,12; 7559,248;  239,486;36161,605;20,37676
 841,68; 7551,766;  236,409;35952,125;20,48218
 842,25; 7613,130;  256,332;35987,337;20,58940
 842,81; 7558,033;  236,948;35649,241;20,67385
 843,37; 7573,935;  231,640;35706,453;20,69721
 843,93; 7635,145;  250,256;35579,127;20,90327
 844,49; 7682,433;  273,718;35613,262;20,96438
 845,05; 7601,874;  216,487;35393,474;20,99494
 845,61; 7712,699;  268,641;35485,839;21,13756
 846,17; 7668,833;  243,642;35369,667;21,13872
 846,73; 7691,658;  250,026;35271,571;21,24873
 847,29; 7691,869;  239,181;35004,783;21,43696
 847,86; 7694,310;  245,104;35011,456;21,42648
 848,42; 7669,751;  242,643;34765,437;21,51364
 848,98; 7718,961;  262,412;34724,496;21,63696
 849,54; 7757,171;  253,643;34742,246;21,75654
 850,10; 7729,997;  265,797;34517,996;21,79188
 850,66; 7690,592;  236,336;34407,208;21,81465
 851,22; 7713,417;  231,182;34400,497;21,89753
 851,78; 7814,858;  277,490;34418,324;22,07728
 852,34; 7750,761;  264,490;34216,998;22,04924
 852,90; 7712,125;  237,106;34041,056;22,11286
 853,46; 7694,797;  245,799;33860,345;22,16004
 854,02; 7732,776;  256,568;33917,018;22,21066
 854,58; 7677,217;  256,722;33505,307;22,31823
 855,14; 7720,505;  238,338;33525,288;22,47778
 855,70; 7684,715;  207,492;33415,039;22,51664
 856,26; 7711,848;  252,031;33282,635;22,58456
 856,82; 7749,366;  241,031;33141,617;22,82128
 857,38; 7762,653;  292,339;33004,444;22,83655
 857,94; 7766,325;  255,878;32893,502;23,01163
 858,50; 7757,997;  263,570;32755,483;23,06551
 859,06; 7708,361;  248,878;32506,080;23,12502
 859,62; 7773,033;  259,724;32519,368;23,29012
 860,18; 7703,089;  250,340;32376,196;23,19860
 860,74; 7683,761;  229,802;32079,946;23,40322
 861,30; 7701,125;  227,033;31975,774;23,54138
 861,86; 7767,259;  316,187;32026,216;23,49752
 862,42; 7689,315;  245,572;31830,428;23,56744
 862,98; 7745,987;  276,803;31859,948;23,64927
 863,54; 7712,197;  237,342;31497,160;23,91203
 864,10; 7708,407;  239,034;31610,141;23,80972
 864,66; 7635,156;  224,880;31321,584;23,82978
 865,22; 7633,905;  244,342;31234,488;23,84488
 865,78; 7629,346;  250,573;31170,238;23,86434
 866,34; 7664,402;  231,727;31085,143;24,09028
 866,90; 7618,459;  255,574;30876,431;24,04533
 867,45; 7578,669;  249,112;30704,182;24,06679
 868,01; 7576,649;  253,651;30485,855;24,22251
 868,57; 7575,859;  238,036;30324,067;24,38947
 869,13; 7553,684;  223,882;30228,433;24,42897
 869,69; 7554,049;  239,113;30057,030;24,53201
 870,25; 7536,028;  228,883;29990,626;24,55214
 870,81; 7518,085;  238,037;29950,376;24,50176
 871,37; 7519,372;  268,499;29863,973;24,49994
 871,93; 7525,659;  264,730;29639,570;24,71819
 872,49; 7494,561;  289,192;29427,166;24,72845
 873,04; 7459,387;  232,269;29228,301;24,92451
 873,60; 7455,367;  230,807;29150,667;24,98131
 874,16; 7401,192;  242,115;29056,879;24,84517
 874,72; 7443,192;  235,731;28980,110;25,07433
 875,28; 7433,577;  237,731;28893,340;25,11147
 875,84; 7397,500;  249,115;28810,417;25,02822
 876,40; 7447,346;  242,808;28833,187;25,19917
 876,95; 7458,962;  248,038;28684,956;25,35761
 877,51; 7505,808;  268,038;28741,571;25,41929
 878,07; 7502,731;  285,808;28664,187;25,43106
 878,63; 7481,654;  246,346;28737,340;25,39507
 879,19; 7543,731;  259,808;28726,956;25,58712
 879,75; 7559,115;  229,577;28770,187;25,68109
 880,30; 7563,423;  243,269;28768,187;25,66231
 880,86; 7689,962;  279,346;28888,187;25,90324
 881,42; 7651,115;  229,038;28904,802;25,88275
 881,98; 7741,038;  261,115;28898,494;26,11944
 882,54; 7787,346;  236,654;29083,725;26,17490
 883,09; 7885,423;  255,038;29226,187;26,33787
 883,65; 7876,962;  242,423;29270,110;26,30089
 884,21; 8036,346;  282,731;29509,033;26,52958
 884,77; 8015,192;  233,731;29549,648;26,54347
 885,32; 8131,038;  236,192;29678,571;26,81457
 885,88; 8167,346;  288,038;29793,187;26,70486
 886,44; 8258,115;  254,115;30006,571;26,90198
 887,00; 8295,962;  269,269;29921,263;27,06965
 887,56; 8323,962;  246,731;30080,879;27,07378
 888,11; 8377,808;  249,885;30138,802;27,19377
 888,67; 8458,577;  277,654;30316,494;27,23448
 889,23; 8487,500;  247,654;30270,417;27,44533
 889,79; 8450,115;  241,808;30227,494;27,37409
 890,34; 8478,885;  257,423;30135,033;27,51713
 890,90; 8556,962;  322,115;30343,340;27,43008
 891,46; 8518,808;  241,115;30146,033;27,68004
 892,01; 8518,038;  255,423;30155,417;27,63417
 892,57; 8552,654;  281,192;30099,340;27,73969
 893,13; 8504,038;  247,654;29844,648;27,89602
 893,69; 8492,577;  233,423;29838,494;27,89777
 894,24; 8495,577;  244,269;29695,417;28,01693
 894,80; 8446,115;  248,500;29548,494;27,97822
 895,36; 8459,654;  248,731;29467,263;28,10176
 895,91; 8377,577;  242,654;29224,110;28,06941
 896,47; 8401,577;  260,654;29114,417;28,21442
 897,03; 8384,500;  246,654;28924,110;28,37716
 897,58; 8346,962;  254,192;28778,187;28,37180
 898,14; 8326,654;  253,423;28698,648;28,38167
 898,70; 8240,885;  215,269;28459,110;28,41545
 899,25; 8286,269;  244,885;28531,802;28,42793
 899,81; 8262,885;  250,192;28214,187;28,65360
 900,37; 8184,731;  214,654;27953,340;28,73271
 900,92; 8212,731;  248,038;28080,956;28,61609
 901,48; 8186,885;  236,577;27881,417;28,75874
 902,03; 8173,192;  238,346;27766,417;28,82456
 902,59; 8197,808;  235,577;27669,802;29,02298
 903,15; 8110,962;  253,192;27441,417;28,90137
 903,70; 8074,962;  239,115;27252,571;29,00720
 904,26; 8093,423;  233,192;27078,263;29,27998
 904,82; 8088,577;  235,654;27069,110;29,26542
 905,37; 8077,500;  246,808;26941,263;29,33453
 905,93; 8026,962;  230,731;26746,648;29,40208
 906,48; 8038,423;  253,654;26748,263;29,38246
 907,04; 7991,423;  248,808;26615,725;29,36489
 907,60; 7935,346;  246,654;26451,263;29,34099
 908,15; 7951,192;  217,423;26205,956;29,75839
 908,71; 7924,654;  255,654;26253,494;29,49860
 909,26; 7941,423;  235,731;26051,340;29,84897
 909,82; 7920,269;  247,500;25919,494;29,88770
 910,37; 7946,885;  280,885;25889,033;29,93578
 910,93; 7860,192;  223,346;25666,110;30,01579
 911,48; 7811,115;  225,423;25556,725;29,94592
 912,04; 7797,115;  230,269;25385,879;30,08015
 912,60; 7820,115;  243,654;25411,187;30,10411
 913,15; 7781,654;  244,192;25191,187;30,21391
 913,71; 7696,269;  226,038;25009,110;30,14247
 914,26; 7735,038;  207,654;24982,187;30,38356
 914,82; 7705,346;  233,808;24938,879;30,24293
 915,37; 7679,731;  226,577;24800,956;30,32896
 915,93; 7721,885;  281,346;24688,956;30,48450
 916,48; 7678,962;  220,192;24487,879;30,73539
 917,04; 7689,423;  258,269;24466,340;30,69701
 917,59; 7668,808;  268,269;24344,110;30,73844
 918,15; 7568,115;  203,808;24117,033;30,79596
 918,70; 7592,731;  225,346;24020,263;30,96201
 919,26; 7607,731;  230,269;23902,802;31,16465
 919,81; 7563,731;  224,654;23739,263;31,21071
 920,37; 7548,423;  234,038;23688,956;31,18487
 920,92; 7568,885;  252,808;23585,802;31,35507
 921,48; 7523,423;  228,423;23421,494;31,45336
 922,03; 7529,038;  237,577;23409,110;31,46733
 922,59; 7523,269;  235,500;23233,417;31,68882
 923,14; 7482,731;  222,038;23090,956;31,74917
 923,69; 7516,654;  256,962;23011,263;31,90470
 924,25; 7524,808;  263,038;22969,956;31,98043
 924,80; 7481,269;  233,654;22738,802;32,20426
 925,36; 7457,885;  221,192;22737,110;32,14034
 925,91; 7426,500;  227,885;22552,187;32,24565
 926,47; 7435,808;  208,269;22441,340;32,50805
 927,02; 7482,115;  308,346;22397,110;32,47701
 927,57; 7411,269;  221,577;22235,571;32,65964
 928,13; 7457,885;  214,269;22163,110;33,00227
 928,68; 7392,962;  221,423;22072,725;32,81973
 929,24; 7321,654;  197,500;21805,879;32,96940
 929,79; 7315,192;  215,192;21702,110;33,04336
 930,34; 7297,731;  230,654;21651,340;32,99183
 930,90; 7300,962;  216,423;21565,494;33,18429
 931,45; 7336,577;  233,654;21543,340;33,33190
 932,01; 7298,038;  234,808;21374,110;33,41279
 932,56; 7241,808;  240,038;21245,340;33,33334
 933,11; 7265,423;  251,577;21204,110;33,47493
 933,67; 7186,577;  212,346;21073,340;33,43192
 934,22; 7248,577;  235,038;20982,494;33,80433
 934,77; 7182,500;  253,423;20843,340;33,65277
 935,33; 7181,731;  242,346;20720,571;33,88665
 935,88; 7144,808;  231,808;20664,802;33,83254
 936,43; 7123,962;  219,192;20546,571;33,96783
 936,99; 7105,423;  227,731;20466,187;33,98329
 937,54; 7030,115;  201,731;20228,187;34,09682
 938,09; 7029,192;  233,577;20285,033;33,89088
 938,65; 7008,962;  233,654;20099,494;34,10532
 939,20; 6954,038;  206,962;19953,263;34,16881
 939,75; 6966,885;  209,654;19835,110;34,43095
 940,31; 6913,731;  207,500;19826,725;34,18194
 940,86; 6957,269;  229,038;19791,494;34,39359
 941,41; 7000,192;  318,500;19668,648;34,53045
 941,96; 6856,962;  212,731;19607,340;34,25813
 942,52; 6881,654;  218,269;19443,879;34,65890
 943,07; 6801,115;  207,346;19295,494;34,54379
 943,62; 6794,269;  224,115;19169,263;34,67988
 944,18; 6792,423;  191,346;19165,263;34,79027
 944,73; 6791,269;  228,962;19085,725;34,80082
 945,28; 6726,654;  201,577;18843,417;35,00232
 945,83; 6747,423;  207,654;18876,340;35,03069
 946,39; 6738,269;  208,962;18816,571;35,08945
 946,94; 6756,577;  251,038;18726,956;35,21091
 947,49; 6733,577;  214,269;18608,033;35,44303
 948,04; 6731,885;  266,269;18638,340;35,19263
 948,59; 6699,577;  236,192;18466,033;35,45497
 949,15; 6646,577;  202,115;18418,417;35,37744
 949,70; 6605,269;  215,885;18278,340;35,37384
 950,25; 6628,269;  227,731;18187,879;35,63745
 950,80; 6581,962;  186,654;18065,494;35,77026
 951,36; 6559,577;  189,038;18013,725;35,73997
 951,91; 6613,346;  235,577;17995,648;35,91072
 952,46; 6527,192;  213,962;17770,956;35,95849
 953,01; 6556,577;  238,038;17784,110;36,01113
 953,56; 6480,808;  194,654;17578,802;36,16026
 954,11; 6552,731;  229,346;17578,648;36,44749
 954,67; 6522,962;  207,500;17465,187;36,59506
 955,22; 6448,115;  196,654;17353,033;36,43812
 955,77; 6473,731;  233,192;17342,110;36,47536
 956,32; 6461,654;  271,808;17259,879;36,43643
 956,87; 6385,038;  211,269;17057,802;36,64712
 957,42; 6415,115;  214,500;17054,340;36,82111
 957,98; 6405,577;  207,654;16927,725;37,06876
 958,53; 6416,962;  248,577;16912,263;37,01693
 959,08; 6383,731;  203,423;16808,494;37,21940
 959,63; 6327,500;  207,192;16637,571;37,24995
 960,18; 6360,038;  234,192;16604,110;37,42136
 960,73; 6361,269;  229,115;16584,340;37,49355
 961,28; 6326,654;  201,038;16439,340;37,72325
 961,83; 6357,346;  235,577;16461,725;37,72780
 962,39; 6271,423;  199,962;16238,033;37,85656
 962,94; 6292,731;  229,115;16205,263;37,95418
 963,49; 6250,885;  223,115;16012,340;38,17647
 964,04; 6267,654;  233,500;16038,417;38,17896
 964,59; 6170,577;  192,038;15881,956;38,10433
 965,14; 6225,577;  242,962;15896,263;38,21951
 965,69; 6145,115;  221,038;15762,263;38,11847
 966,24; 6095,500;  213,500;15696,648;37,98969
 966,79; 6143,577;  241,115;15591,110;38,45253
 967,34; 6080,500;  193,654;15448,879;38,58905
 967,89; 6094,962;  221,346;15349,956;38,82456
 968,44; 6084,038;  214,269;15290,263;38,93454
 968,99; 6071,346;  229,038;15280,340;38,81596
 969,55; 6021,654;  226,500;15127,648;38,89065
 970,10; 6015,269;  233,808;15016,802;39,10887
 970,65; 5970,192;  248,962;14934,802;38,95746
 971,20; 5953,962;  208,885;14882,494;39,15244
 971,75; 5888,500;  199,500;14642,187;39,39018
 972,30; 5900,423;  230,808;14579,417;39,51334
 972,85; 5849,038;  211,500;14515,571;39,41213
 973,40; 5832,346;  210,885;14380,417;39,67288
 973,95; 5840,654;  237,808;14345,187;39,71571
 974,50; 5838,423;  263,269;14222,956;39,93753
 975,05; 5754,500;  222,500;14148,263;39,72493
 975,60; 5697,808;  234,731;14046,187;39,55468
 976,15; 5706,500;  210,115;13950,417;40,00192
 976,70; 5668,423;  217,500;13911,187;39,80610
 977,25; 5635,269;  237,038;13847,802;39,66148
 977,80; 5578,500;  216,577;13657,725;39,89185
 978,35; 5549,500;  231,423;13469,956;40,17120
 978,89; 5479,192;  194,115;13448,263;39,87489
 979,44; 5519,808;  223,962;13453,879;40,02932
 979,99; 5428,808;  211,038;13226,879;40,08784
 980,54; 5443,500;  252,654;13184,725;40,13933
 981,09; 5419,423;  243,808;13054,417;40,40101
 981,64; 5346,038;  235,731;12931,725;40,25134
 982,19; 5332,423;  259,808;12909,340;40,10121
 982,74; 5278,808;  242,962;12781,571;40,16272
 983,29; 5246,731;  215,269;12692,879;40,32392
 983,84; 5199,192;  238,423;12495,879;40,47144
 984,39; 5263,885;  313,192;12472,033;40,71681
 984,94; 5104,577;  197,192;12341,571;40,40869
 985,49; 5120,115;  252,731;12332,417;40,29396
 986,03; 5104,346;  238,962;12142,879;40,87213
 986,58; 5087,500;  280,654;12086,187;40,71689
 987,13; 4996,269;  230,500;11883,725;40,89657
 987,68; 4966,654;  248,577;11819,494;40,77531
 988,23; 4979,269;  239,269;11738,879;41,21879
 988,78; 4913,269;  213,269;11583,879;41,33464
 989,33; 4853,423;  257,808;11489,494;40,91652
 989,88; 4860,269;  259,346;11477,187;41,01434
 990,42; 4777,192;  225,269;11282,187;41,16810
 990,97; 4756,962;  215,654;11123,110;41,63489
 991,52; 4755,423;  248,885;11134,033;41,40080
 992,07; 4729,423;  269,577;11035,110;41,42708
 992,62; 4657,192;  240,654;10844,494;41,65037
 993,17; 4635,423;  249,346;10701,340;41,96402
 993,71; 4587,038;  251,731;10676,263;41,58755
 994,26; 4531,808;  230,962;10506,956;41,85333
 994,81; 4552,731;  260,808;10500,417;41,91491
 995,36; 4497,423;  221,346;10309,340;42,38778
 995,91; 4460,423;  227,654;10275,648;42,12551
 996,45; 4376,269;  240,500;10146,956;41,74822
 997,00; 4314,731;  212,962; 9983,187;41,98234
 997,55; 4325,962;  252,423; 9988,417;41,83998
 998,10; 4268,269;  248,500; 9817,494;42,00827
 998,65; 4267,346;  242,654; 9754,033;42,31450
 999,19; 4235,346;  257,269; 9619,187;42,49212
 999,74; 4161,808;  270,962; 9535,571;41,99687
1000,29; 4122,500;  240,115; 9479,802;42,01857
1000,84; 4070,808;  236,269; 9276,494;42,41641
1001,38; 3996,115;  234,731; 9204,033;41,93620
1001,93; 4027,731;  251,269; 9136,187;42,50418
1002,48; 3936,500;  226,269; 9021,417;42,18497
1003,03; 3930,731;  253,192; 8993,187;42,07713
1003,57; 3893,269;  233,654; 8831,494;42,56436
1004,12; 3881,115;  284,731; 8781,263;42,32767
1004,67; 3792,500;  231,423; 8640,802;42,34649
1005,22; 3742,115;  222,115; 8490,417;42,57222
1005,76; 3692,346;  221,346; 8363,340;42,63083
1006,31; 3683,192;  253,654; 8360,802;42,30265
1006,86; 3601,115;  223,115; 8200,494;42,34474
1007,40; 3565,423;  210,346; 8055,571;42,76585
1007,95; 3559,192;  240,654; 7977,187;42,89439
1008,50; 3478,269;  235,500; 7856,417;42,55090
1009,04; 3450,346;  233,577; 7796,033;42,53604
1009,59; 3420,423;  233,038; 7635,571;43,05803
1010,14; 3351,500;  218,885; 7497,494;43,03865
1010,68; 3321,962;  232,269; 7414,417;43,01906
1011,23; 3265,346;  228,346; 7290,494;43,00391
1011,78; 3251,500;  244,577; 7217,187;43,12479
1012,32; 3222,192;  267,423; 7108,110;43,19405
1012,87; 3205,115;  261,731; 7091,494;43,09644
1013,42; 3137,500;  222,654; 6908,033;43,60031
1013,96; 3174,731;  267,423; 6969,033;43,38223
1014,51; 3112,269;  195,192; 6870,340;43,70056
1015,06; 3089,808;  218,577; 6820,417;43,49137
1015,60; 3184,269;  268,192; 6919,648;43,84118
1016,15; 3134,115;  217,654; 6860,802;43,90180
1016,69; 3134,962;  229,885; 6884,110;43,65763
1017,24; 3134,808;  213,962; 6871,571;43,87230
1017,79; 3237,500;  273,500; 6962,725;44,31007
1018,33; 3183,269;  231,885; 6942,340;43,98188
1018,88; 3245,731;  256,654; 6979,340;44,46254
1019,42; 3243,500;  218,038; 6976,263;44,76710
1019,97; 3235,346;  222,192; 6987,033;44,54139
1020,51; 3296,038;  266,192; 7069,187;44,53695
1021,06; 3246,577;  213,962; 7018,494;44,56758
1021,61; 3232,115;  199,115; 6993,956;44,63681
1022,15; 3193,808;  181,808; 6943,571;44,54459
1022,70; 3219,885;  232,192; 6960,571;44,40434
1023,24; 3188,423;  207,577; 6896,340;44,56498
1023,79; 3166,423;  224,269; 6824,187;44,57865
1024,33; 3136,038;  219,731; 6798,802;44,32704
1024,88; 3122,808;  242,115; 6705,648;44,56839
1025,42; 3063,654;  234,346; 6583,494;44,56201
1025,97; 3056,192;  214,115; 6508,033;45,15593
1026,51; 2976,962;  201,423; 6397,494;44,79514
1027,06; 2964,423;  213,577; 6362,571;44,73652
1027,60; 2908,577;  231,808; 6233,879;44,59743
1028,15; 2914,731;  243,654; 6151,417;45,21300
1028,69; 2822,808;  188,038; 6007,417;45,27578
1029,24; 2819,577;  217,269; 5916,110;45,66381
1029,78; 2751,654;  204,269; 5840,725;45,19479
1030,33; 2698,269;  192,423; 5734,725;45,21309
1030,87; 2693,192;  209,577; 5652,879;45,62700
1031,42; 2647,346;  195,577; 5588,802;45,46017
1031,96; 2653,423;  234,885; 5527,956;45,69254
1032,51; 2579,192;  203,346; 5395,571;45,75777
1033,05; 2573,654;  220,808; 5369,494;45,69799
1033,60; 2464,115;  190,731; 5234,956;45,06906
1034,14; 2442,808;  220,346; 5180,417;44,80705
1034,69; 2447,577;  215,115; 5142,263;45,30941
1035,23; 2411,962;  223,654; 5014,879;45,67324
1035,77; 2379,654;  212,577; 4986,648;45,39264
1036,32; 2336,269;  203,962; 4901,956;45,38762
1036,86; 2303,885;  232,192; 4857,494;44,79042
1037,41; 2284,115;  230,192; 4769,340;45,24909
1037,95; 2232,423;  194,962; 4686,187;45,36539
1038,50; 2223,962;  206,654; 4643,879;45,46327
1039,04; 2229,654;  237,500; 4581,879;45,85590
1039,58; 2159,577;  194,885; 4480,340;45,84559
1040,13; 2142,808;  215,269; 4413,340;45,91486
1040,67; 2158,038;  242,269; 4389,956;46,18886
1041,21; 2123,269;  242,346; 4332,571;45,98581
1041,76; 2063,038;  206,115; 4262,110;45,78219
1042,30; 2045,577;  214,038; 4213,187;45,79822
1042,85; 2009,423;  218,577; 4124,802;45,84595
1043,39; 2015,808;  201,731; 4044,879;47,20289
1043,93; 2008,500;  237,808; 4033,571;46,64917
1044,48; 1964,885;  226,500; 3957,340;46,59499
1045,02; 1923,962;  222,269; 3891,648;46,37549
1045,56; 1926,808;  249,038; 3869,648;46,33941
1046,11; 1881,577;  220,038; 3814,571;46,22405
1046,65; 1854,192;  227,500; 3729,263;46,45352
1047,19; 1819,962;  203,346; 3711,187;46,08577
1047,74; 1774,038;  193,885; 3613,956;46,20237
1048,28; 1788,654;  226,038; 3590,956;46,43845
1048,82; 1812,346;  234,192; 3563,417;47,40304
1049,37; 1756,423;  231,885; 3506,110;46,56181
1049,91; 1734,269;  233,269; 3454,263;46,60052
1050,45; 1711,577;  235,808; 3403,340;46,59050
1050,99; 1698,885;  226,346; 3366,263;46,89736
1051,54; 1658,962;  206,654; 3318,187;46,67499
1052,08; 1666,038;  243,654; 3287,956;46,72285
1052,62; 1648,346;  239,500; 3222,725;47,22561
1053,16; 1607,962;  208,500; 3179,494;47,10415
1053,71; 1591,731;  228,808; 3150,648;46,64605
1054,25; 1567,038;  238,654; 3097,571;46,46460
1054,79; 1547,500;  238,038; 3047,494;46,60908
1055,33; 1518,115;  198,500; 2947,417;48,00491
1055,88; 1497,808;  236,346; 2969,802;46,14896
1056,42; 1514,962;  236,500; 2937,648;47,33030
1056,96; 1495,808;  241,115; 2886,340;47,43235
1057,50; 1464,885;  233,346; 2852,110;47,02748
1058,05; 1432,962;  231,038; 2782,648;47,10450
1058,59; 1429,885;  258,885; 2744,725;47,10681
1059,13; 1381,885;  209,192; 2702,187;47,03951
1059,67; 1390,423;  236,115; 2685,417;47,12803
1060,21; 1347,808;  227,577; 2614,033;46,94119
1060,76; 1347,423;  243,423; 2595,802;46,93122
1061,30; 1355,423;  255,962; 2583,725;47,23253
1061,84; 1309,731;  232,269; 2529,494;46,90274
1062,38; 1275,654;  217,731; 2442,879;47,54394
1062,92; 1305,346;  259,962; 2486,033;46,96097
1063,46; 1252,192;  237,654; 2412,417;46,65052
1064,01; 1234,885;  216,423; 2378,187;47,11253
1064,55; 1240,654;  242,808; 2363,571;47,05127
1065,09; 1202,808;  205,500; 2291,340;47,81323
1065,63; 1216,115;  254,962; 2318,571;46,57634
1066,17; 1229,731;  263,115; 2297,956;47,50325
1066,71; 1200,269;  247,962; 2242,187;47,75327
1067,25; 1159,269;  230,731; 2198,187;47,19488
1067,80; 1156,115;  245,962; 2177,802;47,11330
1068,34; 1151,269;  259,192; 2178,802;46,47179
1068,88; 1118,731;  223,500; 2097,725;47,76538
1069,42; 1133,346;  252,654; 2098,648;47,70829
1069,96; 1103,038;  230,038; 2062,417;47,64299
1070,50; 1115,885;  259,115; 2094,879;46,67100
1071,04; 1058,962;  211,500; 1993,956;47,54460
1071,58; 1052,038;  227,654; 1994,187;46,66682
1072,12; 1051,577;  233,269; 1991,187;46,54984
1072,66; 1028,731;  235,423; 1944,879;46,40703
1073,21; 1051,269;  253,654; 1916,033;47,98036
1073,75; 1017,115;  253,731; 1908,110;46,14328
1074,29; 1008,346;  234,269; 1875,110;47,17564
1074,83; 1018,808;  263,808; 1872,648;46,92821
1075,37; 1012,115;  256,731; 1849,417;47,42833
1075,91;  991,038;  241,577; 1847,033;46,68217
1076,45;  969,577;  243,269; 1791,571;46,90995
1076,99;  962,731;  250,269; 1789,263;46,29397
1077,53;  929,192;  225,885; 1743,187;46,35252
1078,07;  952,115;  242,269; 1731,956;47,65071
1078,61;  926,654;  234,269; 1698,725;47,27931
1079,15;  919,731;  237,269; 1681,340;47,25955
1079,69;  902,808;  240,346; 1654,956;46,82999
1080,23;  919,423;  255,038; 1672,648;46,86654
1080,77;  958,962;  301,500; 1688,033;47,41767
1081,31;  881,346;  237,423; 1599,802;47,26461
1081,85;  901,115;  260,346; 1605,033;47,65194
1082,39;  880,500;  231,423; 1567,494;48,58101
1082,93;  869,269;  252,346; 1582,263;46,38808
1083,47;  837,115;  225,731; 1515,648;47,39719
1084,01;  868,577;  243,038; 1548,802;47,90596
1084,55;  850,346;  225,885; 1493,263;49,27189
1085,09;  856,577;  247,500; 1507,879;48,32491
1085,63;  836,115;  243,654; 1471,110;48,26745
1086,17;  809,423;  234,192; 1451,956;47,23666
1086,71;  825,346;  238,885; 1434,648;49,04495
1087,24;  825,423;  260,808; 1458,263;47,15125
1087,78;  820,654;  262,654; 1424,879;48,01136
1088,32;  765,808;  231,269; 1359,110;47,39487
1088,86;  797,038;  248,885; 1383,571;48,30883
1089,40;  782,731;  246,423; 1360,956;48,11951
1089,94;  749,115;  223,269; 1333,494;47,36393
1090,48;  759,423;  253,192; 1335,187;46,78683
1091,02;  782,500;  251,192; 1318,033;49,80199
1091,56;  733,269;  241,577; 1291,187;46,84526
1092,10;  719,808;  224,577; 1264,725;47,61156
1092,63;  750,423;  265,269; 1300,417;46,86806
1093,17;  719,885;  252,115; 1252,725;46,74842
1093,71;  699,654;  224,654; 1213,340;48,04354
1094,25;  728,731;  258,962; 1235,340;48,11342
1094,79;  701,269;  229,962; 1198,956;48,63885
1095,33;  694,115;  245,346; 1208,340;46,60145
1095,87;  694,654;  242,808; 1185,802;47,91611
1096,40;  671,192;  220,577; 1155,340;48,20635
1096,94;  678,654;  228,808; 1159,802;48,31890
1097,48;  687,038;  253,192; 1150,340;48,35837
1098,02;  645,962;  237,192; 1108,879;46,89406
1098,56;  638,423;  202,885; 1073,879;50,00475
1099,10;  629,115;  221,731; 1070,879;47,97569
1099,63;  619,346;  215,038; 1068,340;47,38155
1100,17;  642,269;  243,269; 1095,417;46,82285
1100,71;  671,269;  275,731; 1097,648;48,12388

