
Integration time [ms]: 150,000
Averaging Nr. [scans]: 13
Smoothing Nr. [pixels]: 0
Data measured with spectrometer [name]: 2009305U1
Wave   ;Sample   ;Dark     ;Reference;Reflectance
[nm]   ;[counts] ;[counts] ;[counts] ;[%]

 175,72;  225,288;  219,771;  228,149;65,85144
 176,32;  242,383;  243,540;  245,741;-52,59243
 176,92;  285,251;  279,310;  276,351; 0,00000
 177,52;  282,516;  275,694;  275,625; 0,00000
 178,12;  251,433;  247,848;  237,671; 0,00000
 178,72;  279,658;  283,232;  275,907; 0,00000
 179,32;  264,595;  273,156;  272,153; 0,00000
 179,92;  270,887;  272,771;  263,888; 0,00000
 180,52;  252,785;  246,926;  261,484;40,24859
 181,12;  277,105;  277,617;  270,726; 0,00000
 181,73;  296,031;  289,079;  292,196;222,98247
 182,33;  402,365;  381,387;  410,818;71,27960
 182,93;  295,519;  279,771;  292,658;122,20373
 183,53;  248,168;  255,771;  247,236; 0,00000
 184,13;  248,295;  255,463;  243,066; 0,00000
 184,73;  297,037;  297,694;  297,759; 0,00000
 185,33;  283,800;  256,691;  368,500;24,24620
 185,93;  278,667;  255,075;  382,746;18,47867
 186,53;  297,941;  270,306;  409,740;19,81917
 187,13;  320,602;  286,691;  442,672;21,74041
 187,73;  296,129;  258,383;  397,569;27,11895
 188,33;  298,704;  244,459;  389,070;37,51074
 188,93;  305,793;  265,151;  389,820;32,59950
 189,53;  288,266;  255,997;  401,808;22,13103
 190,13;  333,779;  303,534;  425,453;24,80739
 190,73;  276,401;  238,612;  373,568;28,00110
 191,34;  316,055;  272,382;  412,563;31,15461
 191,94;  289,881;  245,536;  389,124;30,88351
 192,54;  295,109;  257,845;  421,882;22,71688
 193,14;  312,212;  280,999;  427,015;21,37652
 193,74;  312,334;  277,460;  416,620;25,06021
 194,34;  306,064;  266,383;  422,879;25,35541
 194,94;  272,061;  229,152;  370,509;30,35457
 195,54;  238,063;  219,768;  356,227;13,40713
 196,14;  274,801;  237,307;  390,260;24,51378
 196,74;  273,134;  231,845;  381,671;27,55854
 197,34;  255,942;  216,922;  370,235;25,45131
 197,94;  268,713;  245,999;  399,200;14,82663
 198,54;  272,859;  248,999;  404,056;15,38827
 199,14;  266,258;  232,615;  417,339;18,21287
 199,74;  243,102;  222,076;  395,845;12,09973
 200,34;  230,929;  207,461;  420,541;11,01396
 200,94;  282,311;  248,153;  461,164;16,03575
 201,54;  245,725;  219,768;  445,273;11,51040
 202,14;  295,948;  261,153;  507,467;14,12627
 202,74;  266,513;  229,384;  505,376;13,45290
 203,34;  257,983;  209,000;  512,156;16,15783
 203,94;  218,166;  174,153;  513,305;12,97723
 204,54;  289,491;  270,153;  616,582; 5,58210
 205,14;  256,317;  206,384;  598,674;12,72852
 205,74;  295,834;  252,230;  701,528; 9,70495
 206,34;  249,778;  216,076;  694,450; 7,04515
 206,94;  265,646;  233,538;  772,940; 5,95250
 207,54;  244,882;  201,692;  795,827; 7,26941
 208,14;  269,229;  213,153;  877,320; 8,44308
 208,74;  271,958;  218,845;  976,513; 7,01007
 209,34;  272,134;  217,461; 1044,418; 6,61132
 209,94;  280,736;  220,307; 1137,587; 6,58782
 210,54;  278,765;  229,692; 1220,957; 4,95060
 211,14;  290,741;  224,922; 1339,805; 5,90364
 211,73;  285,794;  232,768; 1439,199; 4,39523
 212,33;  316,852;  239,461; 1581,273; 5,76767
 212,93;  304,733;  226,307; 1645,732; 5,52520
 213,53;  272,802;  189,768; 1712,865; 5,45162
 214,13;  331,493;  218,538; 1813,622; 7,08141
 214,73;  288,025;  197,307; 1816,698; 5,60199
 215,33;  281,120;  186,538; 1864,202; 5,63775
 215,93;  313,110;  218,230; 1998,417; 5,32978
 216,53;  283,027;  188,076; 2057,055; 5,08038
 217,13;  356,590;  225,846; 2256,567; 6,43834
 217,73;  360,105;  210,538; 2464,275; 6,63640
 218,33;  316,437;  155,769; 2660,450; 6,41471
 218,93;  378,371;  201,231; 2977,546; 6,38042
 219,53;  395,742;  200,923; 3232,648; 6,42602
 220,13;  386,673;  170,769; 3524,776; 6,43720
 220,73;  423,500;  183,538; 3882,522; 6,48724
 221,32;  467,112;  205,461; 4307,282; 6,37891
 221,92;  508,739;  201,846; 4696,208; 6,82841
 222,52;  523,694;  186,307; 5149,821; 6,79734
 223,12;  568,224;  202,461; 5611,108; 6,76257
 223,72;  611,837;  205,076; 5985,691; 7,03663
 224,32;  640,789;  205,384; 6429,001; 6,99602
 224,92;  639,983;  190,538; 6682,132; 6,92349
 225,52;  705,028;  200,922; 7052,984; 7,35699
 226,12;  722,190;  195,153; 7404,550; 7,31041
 226,72;  734,988;  165,999; 7775,960; 7,47689
 227,31;  767,951;  163,307; 8103,707; 7,61478
 227,91;  839,484;  197,999; 8551,866; 7,67889
 228,51;  864,759;  185,614; 8888,848; 7,80336
 229,11;  923,784;  198,538; 9299,491; 7,96890
 229,71;  964,621;  184,230; 9632,357; 8,25975
 230,31; 1005,222;  180,769;10070,106; 8,33679
 230,91; 1039,552;  166,076;10383,471; 8,54891
 231,51; 1111,299;  165,923;10680,099; 8,99144
 232,10; 1156,705;  181,461;10992,241; 9,02103
 232,70; 1219,987;  196,460;11145,879; 9,34777
 233,30; 1290,810;  215,846;11504,976; 9,52212
 233,90; 1322,696;  186,999;11581,030; 9,96747
 234,50; 1353,203;  192,615;11706,819;10,07962
 235,10; 1388,752;  183,769;11702,286;10,46127
 235,70; 1460,699;  204,999;11795,849;10,83354
 236,29; 1487,330;  204,461;11688,836;11,17056
 236,89; 1475,215;  172,076;11527,215;11,47621
 237,49; 1521,940;  209,922;11419,269;11,70468
 238,09; 1502,778;  185,999;11083,219;12,08362
 238,69; 1556,029;  244,230;10802,227;12,42470
 239,29; 1532,792;  197,384;10437,612;13,04080
 239,89; 1489,329;  191,076;10097,391;13,10531
 240,48; 1491,741;  177,999; 9657,197;13,85921
 241,08; 1488,685;  188,769; 9319,071;14,23739
 241,68; 1494,176;  211,384; 8946,742;14,68506
 242,28; 1436,991;  181,769; 8555,430;14,99012
 242,88; 1479,490;  230,307; 8220,974;15,63302
 243,48; 1463,635;  227,076; 7917,686;16,07881
 244,07; 1422,216;  211,615; 7674,921;16,22071
 244,67; 1432,916;  212,230; 7509,332;16,72837
 245,27; 1408,640;  209,691; 7358,738;16,77075
 245,87; 1435,349;  223,692; 7246,444;17,25331
 246,47; 1442,139;  201,691; 7259,452;17,57565
 247,06; 1441,081;  181,307; 7247,178;17,82899
 247,66; 1505,885;  192,076; 7295,913;18,49435
 248,26; 1551,491;  221,076; 7456,702;18,38701
 248,86; 1582,979;  210,691; 7654,849;18,43443
 249,46; 1601,609;  160,692; 7870,747;18,68880
 250,05; 1723,208;  206,076; 8287,338;18,77345
 250,65; 1776,961;  184,691; 8670,592;18,76371
 251,25; 1915,094;  190,692; 9157,724;19,23047
 251,85; 1992,889;  185,153; 9790,011;18,82106
 252,44; 2095,075;  164,768;10372,568;18,91012
 253,04; 2254,653;  201,768;11244,137;18,59098
 253,64; 2382,878;  150,768;12033,166;18,78502
 254,24; 2604,288;  213,922;13051,063;18,62070
 254,84; 2762,763;  196,692;14087,362;18,47334
 255,43; 2967,781;  186,461;15163,322;18,57078
 256,03; 3195,255;  195,307;16327,684;18,59582
 256,63; 3367,178;  203,922;17503,500;18,28516
 257,23; 3506,191;  178,691;18501,485;18,16044
 257,82; 3769,390;  207,383;19738,752;18,23736
 258,42; 3855,058;  159,460;20771,530;17,92929
 259,02; 4095,484;  210,307;21895,351;17,91639
 259,62; 4252,963;  183,691;22787,658;18,00247
 260,21; 4338,017;  199,845;23471,540;17,78199
 260,81; 4428,272;  187,076;24171,692;17,68298
 261,41; 4482,594;  184,383;24795,244;17,46469
 262,01; 4618,509;  216,537;25352,394;17,51272
 262,60; 4596,499;  177,307;25846,101;17,21621
 263,20; 4694,316;  185,999;26357,336;17,22616
 263,80; 4731,031;  209,152;26539,377;17,17372
 264,40; 4713,496;  176,845;26899,693;16,97667
 264,99; 4732,578;  200,537;27115,397;16,83843
 265,59; 4709,323;  186,306;27318,169;16,67050
 266,19; 4742,875;  184,229;27638,806;16,60432
 266,78; 4714,445;  232,152;27795,449;16,26182
 267,38; 4706,034;  205,998;27786,734;16,31586
 267,98; 4675,132;  185,460;27858,000;16,22429
 268,58; 4647,612;  192,691;27956,250;16,04593
 269,17; 4621,317;  183,614;28097,251;15,89798
 269,77; 4584,316;  204,383;27753,045;15,89889
 270,37; 4465,100;  169,999;27664,072;15,62192
 270,96; 4451,987;  221,076;27556,548;15,47773
 271,56; 4357,064;  189,460;27252,093;15,39984
 272,16; 4288,236;  183,845;27045,467;15,27976
 272,75; 4250,788;  184,845;27076,683;15,11962
 273,35; 4218,305;  194,307;26917,962;15,05781
 273,95; 4188,862;  191,768;26907,420;14,96162
 274,54; 4131,654;  177,999;27015,629;14,73176
 275,14; 4207,820;  222,153;27307,463;14,71523
 275,74; 4128,599;  163,537;27402,309;14,55669
 276,33; 4217,414;  221,999;27818,973;14,47773
 276,93; 4244,211;  200,230;28216,347;14,43448
 277,53; 4324,404;  186,999;28790,573;14,46464
 278,12; 4371,122;  179,384;29422,405;14,33415
 278,72; 4536,393;  256,461;29999,620;14,38964
 279,32; 4591,460;  188,076;30643,053;14,45867
 279,91; 4651,518;  164,768;31454,796;14,33923
 280,51; 4785,996;  195,461;32138,689;14,37092
 281,11; 4909,711;  194,076;32882,543;14,42599
 281,70; 4997,799;  177,691;33380,826;14,51703
 282,30; 5173,910;  181,999;34137,863;14,70118
 282,90; 5258,393;  183,307;34486,022;14,79500
 283,49; 5434,072;  198,153;35030,161;15,03192
 284,09; 5551,152;  222,153;35639,099;15,04647
 284,69; 5663,407;  226,230;36006,782;15,19590
 285,28; 5810,924;  206,076;36449,516;15,46445
 285,88; 5975,565;  253,999;36743,165;15,68018
 286,47; 6054,011;  194,922;36914,823;15,95617
 287,07; 6192,308;  222,153;36890,777;16,28137
 287,67; 6321,789;  210,769;36997,225;16,61215
 288,26; 6469,351;  188,691;36908,480;17,10429
 288,86; 6683,669;  184,153;37041,094;17,63444
 289,46; 6873,359;  202,384;37122,731;18,06856
 290,05; 7105,404;  190,768;37212,064;18,67745
 290,65; 7379,714;  187,384;37404,337;19,32541
 291,24; 7634,568;  198,691;37559,548;19,90285
 291,84; 7950,024;  211,691;37792,731;20,59106
 292,44; 8203,163;  204,076;37806,095;21,27302
 293,03; 8500,550;  272,230;38112,576;21,74483
 293,63; 8704,356;  184,768;38158,999;22,43518
 294,22; 8957,807;  217,153;38465,208;22,85255
 294,82; 9097,087;  199,152;38413,271;23,28442
 295,41; 9190,876;  174,922;38100,288;23,77289
 296,01; 9409,960;  222,999;38054,602;24,28383
 296,61; 9449,399;  224,230;37819,916;24,53784
 297,20; 9395,894;  192,691;37410,939;24,72766
 297,80; 9529,635;  213,615;37207,272;25,18275
 298,39; 9422,120;  177,845;36779,473;25,25646
 298,99; 9504,716;  224,537;36504,955;25,57903
 299,58; 9538,457;  211,384;36385,903;25,78355
 300,18; 9506,341;  223,845;36189,895;25,80905
 300,78; 9399,126;  190,999;35786,113;25,86907
 301,37; 9391,843;  217,845;35795,718;25,78568
 301,97; 9453,552;  215,768;35728,247;26,01278
 302,56; 9443,422;  198,153;35633,201;26,09075
 303,16; 9453,077;  180,922;35521,202;26,23679
 303,75; 9483,516;  195,768;35645,924;26,19945
 304,35; 9530,516;  177,153;35901,168;26,18228
 304,94; 9500,605;  194,384;35809,440;26,13002
 305,54; 9519,805;  215,384;35790,205;26,15451
 306,13; 9498,222;  159,923;35769,307;26,22426
 306,73; 9378,338;  171,769;35488,947;26,06825
 307,33; 9412,450;  207,922;35499,114;26,08166
 307,92; 9425,048;  208,076;35472,060;26,13707
 308,52; 9522,064;  183,768;35997,217;26,07483
 309,11; 9676,854;  193,922;36580,985;26,06127
 309,71; 9678,835;  193,768;36923,367;25,82404
 310,30; 9801,035;  189,999;37166,229;25,99247
 310,90; 9915,266;  235,153;37523,690;25,96002
 311,49; 9886,908;  205,384;37627,068;25,87143
 312,09; 9935,762;  172,999;37837,225;25,92052
 312,68;10052,340;  256,615;38261,788;25,77472
 313,28;10015,818;  174,230;38357,983;25,77428
 313,87; 9972,271;  164,691;38582,601;25,52867
 314,47;10053,297;  190,845;38858,912;25,50542
 315,06;10054,295;  175,230;38948,769;25,47888
 315,66;10108,532;  181,845;39296,994;25,37811
 316,25;10008,051;  161,153;39194,747;25,22673
 316,85; 9998,086;  159,307;39253,935;25,16658
 317,44;10031,501;  184,306;39342,788;25,14703
 318,04; 9954,584;  173,384;39360,659;24,96014
 318,63; 9907,049;  162,769;39407,073;24,82980
 319,22; 9929,313;  196,076;39719,782;24,62633
 319,82; 9882,120;  183,614;39730,450;24,52410
 320,41; 9815,711;  209,537;39651,459;24,35524
 321,01; 9736,484;  209,461;39752,251;24,09295
 321,60; 9766,327;  196,537;39803,104;24,16213
 322,20; 9633,563;  176,076;39745,945;23,90073
 322,79; 9666,929;  216,999;39971,896;23,77048
 323,39; 9585,911;  177,538;40024,528;23,61125
 323,98; 9496,805;  175,922;39925,667;23,44891
 324,58; 9484,236;  184,768;39865,267;23,43587
 325,17; 9432,122;  189,999;39682,837;23,40202
 325,76; 9349,160;  207,230;39524,457;23,25172
 326,36; 9136,428;  174,768;39152,948;22,99148
 326,95; 9024,955;  216,999;38741,782;22,86309
 327,55; 8901,239;  185,537;38407,921;22,80261
 328,14; 8793,184;  178,922;37999,070;22,77691
 328,74; 8674,117;  200,153;37482,233;22,72932
 329,33; 8498,547;  197,922;37120,343;22,48126
 329,92; 8302,369;  175,845;36541,640;22,34661
 330,52; 8140,601;  202,538;35733,028;22,34155
 331,11; 7969,807;  193,384;35278,308;22,16457
 331,71; 7800,979;  188,307;34626,488;22,10533
 332,30; 7649,144;  207,999;34111,748;21,94785
 332,89; 7556,343;  271,076;33590,336;21,86503
 333,49; 7300,897;  194,999;32891,370;21,73299
 334,08; 7161,144;  190,845;32377,026;21,65618
 334,68; 7060,892;  187,614;32014,251;21,59599
 335,27; 6885,969;  200,307;31590,987;21,29824
 335,86; 6864,499;  250,076;31383,154;21,24564
 336,46; 6714,253;  204,153;31029,334;21,11942
 337,05; 6643,077;  189,461;30668,132;21,17421
 337,65; 6553,372;  164,307;30603,070;20,98990
 338,24; 6577,826;  230,999;30615,595;20,88830
 338,83; 6552,553;  217,384;30467,662;20,94251
 339,43; 6453,873;  186,076;30397,710;20,74630
 340,02; 6459,114;  195,845;30321,455;20,79051
 340,61; 6472,738;  201,307;30458,950;20,72677
 341,21; 6422,809;  212,999;30340,233;20,61195
 341,80; 6420,260;  187,384;30267,619;20,72084
 342,40; 6464,943;  192,769;30458,094;20,72396
 342,99; 6428,035;  190,999;30621,566;20,49596
 343,58; 6456,086;  189,692;30725,189;20,52167
 344,18; 6487,250;  205,999;30926,295;20,44658
 344,77; 6518,674;  189,768;31194,614;20,41263
 345,36; 6621,186;  169,537;31564,012;20,55027
 345,96; 6682,123;  219,768;31833,673;20,44149
 346,55; 6738,195;  170,769;32170,183;20,52358
 347,14; 6824,691;  183,538;32575,474;20,50249
 347,74; 6891,129;  157,846;33028,042;20,48446
 348,33; 7069,970;  180,923;33826,154;20,47555
 348,92; 7166,679;  205,308;34430,178;20,34009
 349,52; 7295,283;  164,615;34951,480;20,49816
 350,11; 7376,509;  185,845;35192,354;20,54094
 350,70; 7394,375;  180,615;35339,648;20,51752
 351,29; 7312,331;  169,383;35006,042;20,50411
 351,89; 7355,681;  202,922;35091,627;20,50165
 352,48; 7375,319;  169,999;35147,268;20,60001
 353,07; 7326,542;  206,461;35033,208;20,44429
 353,67; 7348,708;  204,923;34949,565;20,56082
 354,26; 7258,094;  201,307;34808,524;20,39109
 354,85; 7248,680;  203,153;34516,545;20,53288
 355,45; 7237,674;  167,230;34307,183;20,71018
 356,04; 7243,322;  182,846;34215,160;20,74639
 356,63; 7212,855;  234,691;34031,513;20,64739
 357,22; 7129,968;  193,614;33824,077;20,62521
 357,82; 7095,360;  197,152;33639,051;20,62744
 358,41; 7100,857;  221,461;33568,368;20,62979
 359,00; 7054,815;  178,153;33297,760;20,76311
 359,60; 7093,807;  197,384;33273,930;20,84989
 360,19; 7088,100;  215,461;33107,234;20,89470
 360,78; 7029,796;  189,537;32871,971;20,92947
 361,37; 7023,409;  193,461;32696,708;21,01313
 361,97; 7016,635;  210,307;32520,543;21,06555
 362,56; 6943,109;  191,307;32201,491;21,09267
 363,15; 6989,629;  258,537;31875,986;21,28917
 363,74; 6857,082;  189,537;31578,698;21,24155
 364,34; 6804,568;  225,153;31136,896;21,28452
 364,93; 6708,446;  197,768;30611,516;21,40702
 365,52; 6641,422;  167,768;30252,923;21,51777
 366,11; 6608,448;  203,307;29846,040;21,60780
 366,71; 6525,236;  188,230;29394,166;21,69767
 367,30; 6493,380;  195,384;29033,298;21,83929
 367,89; 6449,126;  238,307;28743,451;21,78841
 368,48; 6421,000;  207,306;28354,018;22,07609
 369,07; 6315,144;  195,153;27881,417;22,10479
 369,67; 6261,411;  216,383;27573,988;22,09633
 370,26; 6240,216;  180,922;27244,891;22,38878
 370,85; 6176,788;  192,999;26939,335;22,37237
 371,44; 6149,292;  206,384;26642,014;22,48068
 372,03; 6126,894;  176,460;26437,561;22,65874
 372,63; 6062,048;  172,153;26061,876;22,74994
 373,22; 6057,094;  188,230;25676,794;23,02548
 373,81; 5960,154;  170,845;25388,132;22,95770
 374,40; 5960,203;  181,230;25135,197;23,15853
 374,99; 5924,075;  192,922;24805,815;23,28516
 375,59; 5860,269;  171,538;24398,937;23,48057
 376,18; 5891,780;  216,999;24328,954;23,53514
 376,77; 5895,054;  215,307;24058,225;23,82153
 377,36; 5887,194;  227,768;24006,263;23,80061
 377,95; 5845,539;  214,076;23762,102;23,91480
 378,55; 5842,330;  186,922;23508,635;24,24954
 379,14; 5843,022;  209,153;23452,060;24,23909
 379,73; 5869,533;  208,537;23303,883;24,51142
 380,32; 5901,115;  196,461;23346,208;24,64240
 380,91; 5871,281;  180,460;23182,102;24,74093
 381,50; 5934,645;  203,307;23152,689;24,97382
 382,10; 5904,422;  189,691;23019,746;25,03161
 382,69; 5958,197;  158,461;23001,834;25,38914
 383,28; 6028,594;  220,307;22925,274;25,58157
 383,87; 5970,249;  188,230;22754,175;25,62277
 384,46; 6049,143;  174,845;22715,959;26,06037
 385,05; 6079,549;  222,230;22649,024;26,11751
 385,64; 6115,218;  194,922;22646,501;26,36917
 386,24; 6128,840;  173,614;22580,639;26,57750
 386,83; 6219,026;  210,922;22672,004;26,74895
 387,42; 6320,674;  206,999;22777,744;27,08672
 388,01; 6454,063;  207,691;22951,505;27,46405
 388,60; 6529,265;  197,537;23243,362;27,47451
 389,19; 6651,720;  189,998;23547,786;27,66410
 389,78; 6786,850;  192,460;23744,571;27,99915
 390,37; 7000,517;  262,614;24276,668;28,05816
 390,96; 7108,634;  206,845;24474,830;28,43989
 391,56; 7199,004;  207,690;24645,718;28,60834
 392,15; 7310,909;  194,691;24963,960;28,73003
 392,74; 7379,791;  163,305;25106,085;28,93216
 393,33; 7577,075;  197,767;25491,061;29,17496
 393,92; 7786,109;  212,613;25900,901;29,48229
 394,51; 7883,561;  183,460;26149,483;29,65453
 395,10; 8072,439;  232,382;26382,711;29,98072
 395,69; 8174,524;  219,459;26497,146;30,27308
 396,28; 8308,974;  217,689;26669,156;30,58917
 396,87; 8420,788;  220,150;26833,025;30,81455
 397,46; 8518,310;  218,150;26835,225;31,18359
 398,06; 8672,131;  237,996;27104,067;31,39326
 398,65; 8766,514;  214,456;27131,950;31,77137
 399,24; 8930,521;  234,071;27367,810;32,05032
 399,83; 9022,235;  214,762;27381,325;32,42027
 400,42; 9213,659;  264,761;27607,435;32,72869
 401,01; 9290,367;  246,452;27702,448;32,93967
 401,60; 9391,416;  247,450;27765,454;33,22903
 402,19; 9458,779;  273,987;27599,183;33,61290
 402,78; 9518,742;  272,523;27634,687;33,79199
 403,37; 9538,909;  255,290;27482,766;34,09651
 403,96; 9553,450;  262,134;27346,365;34,30526
 404,55; 9618,972;  280,362;27213,131;34,67378
 405,14; 9590,658;  248,128;27050,732;34,85680
 405,73; 9645,806;  266,356;26942,545;35,16038
 406,32; 9762,496;  287,200;26916,383;35,58238
 406,91; 9605,462;  258,428;26636,865;35,43437
 407,50; 9674,542;  276,812;26380,646;36,00134
 408,09; 9662,890;  247,888;26025,131;36,52447
 408,68; 9625,392;  270,579;25939,191;36,44456
 409,27; 9645,264;  262,119;25718,546;36,85963
 409,86; 9676,578;  263,197;25627,174;37,11319
 410,45; 9762,041;  302,584;25499,185;37,54259
 411,04; 9744,758;  302,354;25373,826;37,66194
 411,63; 9683,752;  288,818;25135,891;37,81103
 412,22; 9646,109;  291,820;24946,198;37,94169
 412,81; 9653,261;  299,282;24612,092;38,47346
 413,40; 9560,358;  317,283;24232,821;38,64883
 413,99; 9512,843;  359,360;23878,514;38,91927
 414,58; 9355,220;  282,898;23329,423;39,36525
 415,17; 9303,566;  291,436;23186,829;39,36220
 415,76; 9241,289;  283,051;22974,676;39,47817
 416,35; 9220,992;  277,128;22780,157;39,74516
 416,94; 9314,496;  303,128;22785,030;40,08277
 417,53; 9477,410;  278,359;23066,312;40,36804
 418,12; 9520,787;  282,436;23078,298;40,52644
 418,71; 9769,926;  308,898;23475,054;40,83987
 419,30; 9818,896;  282,129;23620,155;40,86364
 419,89; 9926,127;  273,590;23800,085;41,02837
 420,48;10146,019;  318,206;24095,378;41,33298
 421,07;10256,041;  300,899;24293,006;41,49340
 421,66;10276,216;  259,284;24241,823;41,76761
 422,25;10340,454;  284,746;24288,691;41,89190
 422,84;10362,741;  309,361;24273,693;41,95143
 423,43;10250,576;  287,900;23908,650;42,17764
 424,02;10244,443;  314,592;23670,893;42,51466
 424,60;10001,987;  269,516;23210,042;42,42479
 425,19; 9980,566;  306,208;22876,340;42,86354
 425,78; 9941,317;  304,516;22764,882;42,90581
 426,37; 9885,636;  307,285;22590,848;42,98393
 426,96; 9879,864;  297,285;22472,585;43,21285
 427,55; 9845,287;  280,286;22280,373;43,47711
 428,14; 9769,760;  279,594;22069,924;43,55219
 428,73; 9755,247;  281,132;21847,258;43,93054
 429,32; 9770,482;  306,593;21796,025;44,03974
 429,91; 9821,815;  313,132;21797,183;44,25926
 430,50; 9761,619;  304,132;21558,979;44,49567
 431,08; 9724,848;  311,363;21445,445;44,54172
 431,67; 9794,217;  364,132;21350,696;44,93391
 432,26; 9698,419;  383,825;21199,730;44,74748
 432,85; 9583,716;  397,210;20759,725;45,11479
 433,44; 9443,027;  420,902;20388,439;45,18396
 434,03; 9353,638;  425,595;20017,318;45,57049
 434,62; 9154,459;  383,133;19500,106;45,88240
 435,21; 9066,931;  403,363;19234,453;46,00672
 435,79; 9032,396;  391,749;19066,589;46,26892
 436,38; 9026,954;  387,288;18952,505;46,53685
 436,97; 8919,795;  382,518;18879,955;46,15384
 437,56; 8929,497;  377,750;18603,802;46,92046
 438,15; 8839,833;  364,365;18487,436;46,76618
 438,74; 8901,269;  385,981;18530,497;46,93037
 439,33; 8920,131;  341,673;18509,407;47,21809
 439,91; 8941,725;  305,442;18649,569;47,07928
 440,50; 9039,675;  345,212;18701,692;47,36454
 441,09; 9136,413;  354,520;18795,163;47,62249
 441,68; 9125,319;  334,212;18696,465;47,87597
 442,27; 9135,440;  331,597;18725,116;47,86383
 442,86; 9140,153;  304,059;18709,845;48,00715
 443,44; 9214,065;  325,521;18797,655;48,11867
 444,03; 9335,569;  403,905;18893,725;48,30585
 444,62; 9177,936;  327,982;18702,291;48,16482
 445,21; 9132,975;  326,059;18535,085;48,36566
 445,80; 9149,162;  358,060;18427,062;48,65295
 446,39; 9084,212;  400,059;18168,193;48,87487
 446,97; 8905,279;  327,368;17983,599;48,58292
 447,56; 8814,668;  319,368;17715,751;48,83371
 448,15; 8726,571;  330,522;17478,966;48,96100
 448,74; 8606,571;  339,906;17225,173;48,95786
 449,33; 8571,118;  329,599;17093,669;49,16181
 449,91; 8503,000;  335,368;16778,294;49,67262
 450,50; 8344,074;  328,522;16543,308;49,43360
 451,09; 8329,668;  338,676;16409,895;49,72238
 451,68; 8324,693;  361,061;16271,224;50,05374
 452,26; 8271,866;  357,369;16176,718;50,03048
 452,85; 8211,701;  335,907;16118,659;49,90127
 453,44; 8199,198;  344,369;16050,676;50,01067
 454,03; 8198,431;  320,292;16117,487;49,87049
 454,61; 8169,970;  333,908;15999,608;50,02051
 455,20; 8345,565;  346,293;16255,124;50,28196
 455,79; 8324,397;  356,831;16239,150;50,16626
 456,38; 8420,918;  364,139;16282,465;50,61323
 456,97; 8410,130;  342,678;16385,616;50,28663
 457,55; 8411,781;  339,985;16382,719;50,31434
 458,14; 8422,180;  365,677;16357,900;50,37763
 458,73; 8311,706;  360,370;16309,190;49,85533
 459,31; 8388,179;  378,601;16377,517;50,06326
 459,90; 8487,373;  403,678;16379,665;50,59903
 460,49; 8604,436;  457,832;16555,727;50,60664
 461,08; 8595,243;  356,063;16622,285;50,65209
 461,66; 8614,071;  356,294;16673,790;50,60689
 462,25; 8639,199;  359,679;16769,095;50,45591
 462,84; 8720,400;  380,294;16852,140;50,63249
 463,43; 8597,099;  327,602;16714,947;50,46270
 464,01; 8650,799;  356,371;16813,258;50,40095
 464,60; 8642,961;  406,679;16730,265;50,45632
 465,19; 8478,200;  335,833;16538,152;50,25433
 465,77; 8482,065;  351,449;16523,185;50,27671
 466,36; 8438,733;  391,371;16351,535;50,42155
 466,95; 8285,945;  362,217;16045,231;50,52427
 467,53; 8120,748;  367,910;15694,808;50,58321
 468,12; 7959,822;  407,680;15350,675;50,53968
 468,71; 7837,702;  374,910;15071,491;50,77910
 469,29; 7706,302;  352,449;14823,470;50,81779
 469,88; 7537,162;  357,218;14545,154;50,60598
 470,47; 7607,396;  420,296;14656,407;50,48500
 471,06; 7562,985;  383,450;14628,107;50,40160
 471,64; 7621,293;  374,219;14706,154;50,56591
 472,23; 7614,201;  348,989;14716,809;50,56587
 472,81; 7656,134;  344,527;14821,002;50,50682
 473,40; 7742,734;  360,296;14955,052;50,58281
 473,99; 7933,848;  479,835;15247,766;50,47432
 474,57; 7892,145;  366,066;15304,583;50,38037
 475,16; 7991,376;  385,296;15526,392;50,23467
 475,75; 8028,334;  407,527;15668,379;49,93697
 476,33; 8077,844;  389,682;15751,929;50,04582
 476,92; 8102,172;  394,143;15763,606;50,15159
 477,51; 8126,199;  400,912;15871,820;49,93429
 478,09; 8164,274;  396,758;15891,249;50,13082
 478,68; 8095,367;  408,681;15775,835;50,02023
 479,27; 8129,751;  417,681;15881,721;49,87099
 479,85; 8076,489;  397,835;15844,108;49,71202
 480,44; 8129,399;  384,374;15946,053;49,76985
 481,02; 8780,808;  401,297;17286,127;49,62745
 481,61; 9825,906;  427,220;19623,948;48,95983
 482,20;10432,978;  402,759;21085,914;48,49463
 482,78;10930,534;  430,835;21954,642;48,78179
 483,37;11136,395;  426,067;22596,938;48,30811
 483,95;11312,483;  467,682;22944,483;48,24886
 484,54;11431,134;  469,528;23172,093;48,28356
 485,13;11382,674;  424,144;23124,287;48,27516
 485,71;11189,120;  411,144;22818,856;48,09940
 486,30;11068,271;  465,683;22565,285;47,97638
 486,88;10886,759;  504,760;22140,077;47,98635
 487,47;10474,401;  466,067;21368,715;47,88070
 488,05;10039,022;  464,914;20435,710;47,94054
 488,64; 9347,646;  454,068;18991,667;47,97589
 489,23; 8424,667;  473,221;17028,381;48,03001
 489,81; 7278,577;  461,068;14526,734;48,46915
 490,40; 6874,362;  440,991;13733,035;48,40016
 490,98; 6635,585;  404,222;13483,353;47,64356
 491,57; 6645,229;  431,221;13319,087;48,21596
 492,15; 6517,721;  399,299;13245,665;47,62765
 492,74; 6465,608;  414,683;13120,992;47,62142
 493,32; 6391,787;  428,222;12954,813;47,60725
 493,91; 6361,686;  403,530;12888,143;47,72400
 494,50; 6318,229;  408,992;12847,480;47,50768
 495,08; 6249,122;  388,915;12763,401;47,35718
 495,67; 6222,145;  412,837;12789,826;46,93636
 496,25; 6147,480;  363,530;12637,756;47,12273
 496,84; 6137,211;  361,760;12601,489;47,18610
 497,42; 6064,923;  371,991;12562,506;46,69969
 498,01; 5995,514;  400,914;12465,940;46,37039
 498,59; 5967,003;  356,145;12409,745;46,54923
 499,18; 5934,482;  343,606;12340,882;46,60121
 499,76; 5847,034;  378,837;12280,311;45,94554
 500,35; 5787,430;  361,146;12071,485;46,33756
 500,93; 5686,873;  352,376;12000,883;45,79554
 501,52; 5672,525;  353,068;11926,651;45,96206
 502,10; 5646,123;  370,453;11898,468;45,76391
 502,69; 5527,673;  353,300;11710,581;45,55996
 503,27; 5429,433;  335,761;11464,256;45,77144
 503,86; 5348,797;  355,377;11364,448;45,35733
 504,44; 5316,272;  325,146;11265,671;45,62054
 505,03; 5139,137;  321,761;11008,413;45,07844
 505,61; 5048,376;  351,300;10841,379;44,77636
 506,19; 4964,893;  353,838;10664,889;44,71954
 506,78; 4854,329;  333,531;10486,963;44,52482
 507,36; 4806,455;  329,761;10248,081;45,13561
 507,95; 4702,536;  341,531;10076,317;44,79816
 508,53; 4594,525;  335,069; 9980,666;44,15959
 509,12; 4540,231;  331,377; 9830,527;44,30769
 509,70; 4470,852;  355,839; 9687,006;44,09966
 510,29; 4382,860;  367,839; 9511,395;43,91094
 510,87; 4246,949;  319,454; 9273,182;43,86436
 511,46; 4169,401;  314,454; 9087,952;43,93853
 512,04; 4113,154;  323,993; 8935,610;44,00058
 512,62; 4016,090;  336,608; 8793,766;43,50731
 513,21; 3924,526;  313,685; 8608,556;43,53101
 513,79; 3832,023;  320,224; 8477,134;43,05306
 514,38; 3752,328;  309,839; 8319,811;42,97754
 514,96; 3728,341;  350,455; 8173,896;43,17648
 515,54; 3586,198;  303,147; 8027,878;42,50052
 516,13; 3558,625;  332,301; 7919,173;42,52509
 516,71; 3486,901;  322,532; 7769,944;42,48952
 517,30; 3399,554;  298,071; 7663,719;42,10741
 517,88; 3354,387;  328,378; 7554,196;41,87774
 518,46; 3281,886;  307,225; 7372,864;42,10039
 519,05; 3259,247;  313,686; 7362,833;41,78606
 519,63; 3188,799;  330,609; 7289,941;41,06988
 520,22; 3184,744;  341,764; 7235,244;41,24158
 520,80; 3142,481;  329,456; 7171,494;41,11385
 521,38; 3141,735;  368,225; 7145,341;40,92464
 521,97; 3078,535;  314,610; 7036,002;41,12132
 522,55; 3087,018;  333,764; 7019,392;41,18168
 523,13; 3025,699;  310,072; 7017,292;40,48813
 523,72; 3006,104;  324,763; 6992,802;40,21183
 524,30; 3083,008;  343,149; 7161,991;40,18070
 524,89; 3045,426;  304,225; 7158,944;39,98998
 525,47; 3083,154;  326,610; 7275,563;39,66847
 526,05; 3079,445;  295,303; 7303,368;39,72769
 526,64; 3130,446;  339,841; 7421,475;39,40622
 527,22; 3172,445;  332,072; 7546,546;39,37049
 527,80; 3231,377;  367,457; 7670,496;39,21546
 528,39; 3214,327;  329,149; 7770,418;38,77265
 528,97; 3230,257;  320,226; 7948,770;38,14662
 529,55; 3326,737;  343,072; 8102,468;38,45228
 530,14; 3406,695;  343,303; 8349,431;38,26309
 530,72; 3413,870;  320,149; 8430,507;38,14531
 531,30; 3431,587;  313,226; 8595,835;37,64950
 531,89; 3465,780;  335,995; 8704,659;37,39886
 532,47; 3530,632;  361,995; 8766,677;37,70085
 533,05; 3523,072;  344,457; 8865,220;37,30434
 533,63; 3538,441;  346,611; 8907,247;37,28497
 534,22; 3524,574;  331,995; 8954,319;37,02689
 534,80; 3575,174;  358,457; 9062,031;36,95857
 535,38; 3645,611;  462,380; 9153,311;36,62704
 535,97; 3518,820;  339,303; 9073,282;36,40399
 536,55; 3579,776;  404,688; 9141,176;36,34284
 537,13; 3538,364;  389,765; 9117,163;36,07718
 537,71; 3606,011;  442,841; 9165,067;36,26562
 538,30; 3594,059;  462,534; 9232,078;35,70910
 538,88; 3631,821;  507,150; 9329,741;35,41671
 539,46; 3741,733;  566,765; 9580,882;35,22218
 540,05; 3749,084;  568,457; 9683,822;34,89303
 540,63; 3856,137;  635,150; 9859,938;34,91665
 541,21; 3889,349;  678,765;10079,126;34,15384
 541,79; 3978,082;  715,458;10197,104;34,40989
 542,38; 4010,962;  737,842;10344,572;34,07111
 542,96; 4073,679;  758,535;10519,960;33,96168
 543,54; 4126,015;  798,765;10726,772;33,51378
 544,12; 4120,180;  755,611;10843,624;33,35214
 544,70; 4154,825;  724,150;11007,017;33,36302
 545,29; 4188,362;  743,919;11143,051;33,12241
 545,87; 4183,543;  728,227;11130,642;33,21648
 546,45; 4141,025;  662,688;11209,510;32,97996
 547,03; 4108,227;  636,381;11320,207;32,49629
 547,62; 4164,148;  623,458;11427,589;32,77163
 548,20; 4210,729;  612,458;11616,914;32,69831
 548,78; 4192,407;  570,612;11702,509;32,53529
 549,36; 4227,425;  527,843;11946,813;32,39856
 549,94; 4241,931;  497,458;12052,705;32,40496
 550,53; 4306,629;  508,535;12297,713;32,21679
 551,11; 4306,274;  456,843;12500,467;31,96240
 551,69; 4397,892;  475,766;12827,954;31,75248
 552,27; 4411,074;  425,843;13101,127;31,44097
 552,85; 4532,123;  448,612;13394,807;31,54217
 553,44; 4624,953;  427,920;13822,091;31,33477
 554,02; 4699,903;  442,997;14171,037;31,00884
 554,60; 4766,685;  393,381;14486,437;31,03162
 555,18; 4854,157;  425,074;14833,252;30,74007
 555,76; 4958,844;  405,227;15243,010;30,68934
 556,34; 5064,826;  409,689;15644,974;30,55497
 556,93; 5120,958;  403,689;16067,825;30,11509
 557,51; 5220,399;  383,535;16371,271;30,25359
 558,09; 5343,287;  398,458;16823,753;30,10496
 558,67; 5431,264;  398,228;17286,405;29,80213
 559,25; 5471,837;  418,612;17511,134;29,56395
 559,83; 5558,275;  395,459;17784,310;29,69038
 560,41; 5637,312;  382,228;18174,419;29,53590
 561,00; 5714,225;  388,459;18549,965;29,32447
 561,58; 5715,664;  386,920;18843,923;28,87112
 562,16; 5804,868;  366,920;19166,616;28,92573
 562,74; 5863,574;  373,689;19516,263;28,67893
 563,32; 5995,816;  366,920;19976,496;28,70483
 563,90; 6066,744;  393,228;20355,223;28,42159
 564,48; 6181,643;  394,535;20778,172;28,39095
 565,06; 6291,487;  391,536;21432,254;28,04064
 565,65; 6458,244;  395,074;22141,774;27,88087
 566,23; 6670,050;  434,689;22974,729;27,66348
 566,81; 6841,763;  376,459;23711,474;27,70645
 567,39; 7056,580;  395,920;24759,639;27,33844
 567,97; 7232,612;  414,305;25391,636;27,29798
 568,55; 7467,283;  438,151;26242,638;27,23996
 569,13; 7609,007;  396,997;26996,642;27,11318
 569,71; 7831,948;  395,612;28048,187;26,89202
 570,29; 8156,250;  443,304;29185,115;26,83528
 570,87; 8306,446;  421,920;29874,540;26,77020
 571,45; 8409,500;  415,228;30608,162;26,47730
 572,03; 8492,214;  384,228;31075,127;26,41821
 572,61; 8663,344;  374,305;31880,467;26,30926
 573,20; 8856,394;  404,074;32506,591;26,32915
 573,78; 8929,604;  400,690;33253,931;25,96065
 574,36; 9065,148;  415,382;33783,096;25,92256
 574,94; 9200,541;  476,767;34244,999;25,83426
 575,52; 9149,210;  404,998;34467,360;25,67119
 576,10; 9322,488;  470,075;35097,174;25,56499
 576,68; 9428,159;  458,382;35679,516;25,46703
 577,26; 9587,775;  484,459;36378,436;25,36168
 577,84; 9675,620;  486,382;36892,663;25,24080
 578,42; 9782,759;  533,305;37334,737;25,13341
 579,00; 9712,700;  480,536;37432,211;24,98443
 579,58; 9727,249;  553,613;37662,247;24,72103
 580,16; 9650,722;  476,459;37643,229;24,68405
 580,74; 9680,597;  493,382;37934,462;24,53779
 581,32; 9607,581;  504,997;37941,953;24,31443
 581,90; 9545,629;  534,074;37886,443;24,12579
 582,48; 9488,279;  493,074;37978,125;23,99678
 583,06; 9510,764;  513,997;38082,748;23,94747
 583,64; 9456,042;  506,690;38192,977;23,74697
 584,22; 9369,937;  520,921;38007,018;23,60613
 584,80; 9205,870;  520,382;37699,803;23,36101
 585,38; 9070,659;  535,689;37182,143;23,29003
 585,96; 8986,816;  507,074;37303,319;23,04513
 586,54; 8971,727;  532,998;37289,585;22,95841
 587,12; 8957,982;  489,151;37378,362;22,95747
 587,70; 8942,461;  525,536;37591,860;22,70774
 588,28; 8871,830;  495,921;37551,010;22,60394
 588,86; 8817,979;  504,767;37577,998;22,42376
 589,44; 8760,720;  485,998;37621,756;22,28236
 590,02; 8814,271;  485,229;37828,018;22,30429
 590,59; 8799,019;  469,767;38066,568;22,15415
 591,17; 8774,461;  471,306;38207,667;22,00306
 591,75; 8760,691;  456,767;38259,068;21,96671
 592,33; 8792,630;  472,075;38548,440;21,85228
 592,91; 8771,049;  430,306;38785,336;21,74615
 593,49; 8813,721;  450,768;39131,722;21,62034
 594,07; 8787,551;  458,845;39328,397;21,42733
 594,65; 8789,658;  467,844;39295,967;21,43244
 595,23; 8807,988;  461,459;39631,748;21,30831
 595,81; 8764,996;  455,690;39849,567;21,09289
 596,39; 8760,911;  436,229;40000,163;21,04109
 596,97; 8775,397;  434,844;40186,852;20,98146
 597,55; 8688,282;  439,536;40022,171;20,83930
 598,12; 8611,190;  401,845;40086,465;20,68647
 598,70; 8592,201;  424,691;40277,126;20,49438
 599,28; 8635,718;  444,075;40389,814;20,50693
 599,86; 8588,323;  403,537;40383,784;20,47207
 600,44; 8561,405;  389,768;40502,725;20,37157
 601,02; 8558,432;  457,153;40608,070;20,17707
 601,60; 8455,630;  418,152;40572,547;20,01643
 602,18; 8398,660;  402,075;40485,408;19,94990
 602,75; 8353,351;  397,075;40660,796;19,76041
 603,33; 8338,832;  416,460;40658,067;19,68702
 603,91; 8274,217;  415,229;40632,465;19,54134
 604,49; 8271,384;  426,075;40747,359;19,45699
 605,07; 8226,770;  434,844;40712,639;19,34546
 605,65; 8202,487;  442,306;40838,536;19,21016
 606,23; 8257,149;  508,536;40918,939;19,17480
 606,80; 8177,237;  561,460;41046,312;18,81142
 607,38; 8168,371;  613,922;41016,796;18,69780
 607,96; 8172,144;  664,921;41122,834;18,55564
 608,54; 8169,296;  717,229;41174,129;18,41977
 609,12; 8126,677;  719,844;41189,923;18,30200
 609,70; 8122,559;  760,537;41228,311;18,19231
 610,27; 8087,964;  774,229;41232,556;18,07721
 610,85; 8103,142;  797,229;41492,430;17,95276
 611,43; 8054,336;  795,768;41461,077;17,84953
 612,01; 7864,399;  757,844;41113,262;17,60991
 612,59; 7887,694;  760,075;41165,492;17,64026
 613,16; 7814,666;  706,690;41118,502;17,58886
 613,74; 7780,734;  702,998;40902,446;17,60655
 614,32; 7709,599;  651,768;40911,449;17,53077
 614,90; 7668,383;  595,921;40757,891;17,60985
 615,48; 7538,377;  535,998;40502,990;17,52041
 616,05; 7457,719;  511,305;40439,642;17,39720
 616,63; 7442,292;  513,998;40223,755;17,44733
 617,21; 7362,868;  502,767;40103,276;17,32326
 617,79; 7279,370;  488,152;39992,592;17,19102
 618,36; 7270,964;  495,152;40032,078;17,13793
 618,94; 7129,924;  426,690;39583,602;17,11890
 619,52; 7092,374;  456,998;39402,028;17,03780
 620,10; 7032,539;  437,998;39260,709;16,98630
 620,67; 7003,502;  449,998;39154,750;16,93204
 621,25; 6955,304;  473,229;39028,959;16,81222
 621,83; 6882,019;  436,459;39019,036;16,70588
 622,41; 6907,987;  486,459;38998,617;16,67403
 622,98; 6770,045;  453,998;38655,738;16,53340
 623,56; 6780,849;  451,459;38689,752;16,55249
 624,14; 6700,635;  436,383;38565,257;16,42916
 624,72; 6654,560;  423,075;38417,376;16,40111
 625,29; 6658,751;  413,228;38549,823;16,37672
 625,87; 6674,638;  452,075;38466,768;16,36884
 626,45; 6527,600;  417,690;38324,418;16,11827
 627,02; 6499,033;  413,921;38215,566;16,09748
 627,60; 6461,004;  397,614;38124,708;16,07171
 628,18; 6468,062;  398,613;38188,077;16,06122
 628,76; 6418,921;  383,921;38171,663;15,97079
 629,33; 6386,030;  422,305;38249,420;15,76574
 629,91; 6373,693;  401,306;38177,171;15,81006
 630,49; 6405,165;  425,075;38312,394;15,78388
 631,06; 6370,276;  399,536;38459,946;15,68753
 631,64; 6316,783;  407,536;38377,420;15,56298
 632,22; 6298,445;  372,459;38333,157;15,61085
 632,79; 6339,578;  403,844;38654,767;15,51789
 633,37; 6288,664;  375,383;38673,637;15,44008
 633,95; 6265,700;  399,382;38688,532;15,32110
 634,52; 6247,775;  362,536;38788,128;15,31594
 635,10; 6267,513;  379,921;38818,740;15,31679
 635,68; 6299,695;  384,382;39091,668;15,28217
 636,25; 6236,631;  348,459;39013,900;15,22851
 636,83; 6267,844;  341,844;39254,663;15,22891
 637,41; 6263,445;  358,074;39293,257;15,16718
 637,98; 6314,992;  395,997;39488,277;15,14108
 638,56; 6286,885;  373,766;39592,038;15,07746
 639,13; 6294,571;  359,767;39617,369;15,11759
 639,71; 6321,446;  429,536;39867,578;14,93966
 640,29; 6179,382;  329,459;39557,844;14,91247
 640,86; 6253,952;  337,459;39866,978;14,96728
 641,44; 6236,906;  341,459;39749,882;14,95986
 642,02; 6276,399;  373,998;39841,248;14,95519
 642,59; 6202,430;  345,844;39929,613;14,79542
 643,17; 6200,076;  343,844;39862,363;14,81896
 643,74; 6166,800;  356,229;40024,498;14,64791
 644,32; 6196,138;  364,305;39884,633;14,75654
 644,89; 6191,939;  380,382;39880,613;14,71271
 645,47; 6155,124;  377,306;39927,671;14,60876
 646,05; 6123,309;  378,690;39771,883;14,58277
 646,62; 6081,955;  358,229;39776,710;14,52041
 647,20; 6077,448;  372,613;40027,844;14,38608
 647,77; 6034,402;  323,690;39774,671;14,47546
 648,35; 6019,510;  338,306;39734,806;14,42058
 648,92; 6035,464;  362,767;39749,556;14,40254
 649,50; 5971,188;  326,767;39723,537;14,32712
 650,08; 5958,142;  319,152;39597,133;14,35662
 650,65; 5981,096;  338,229;39806,883;14,29709
 651,23; 6053,897;  308,613;40523,556;14,28644
 651,80; 6231,312;  314,690;41572,076;14,34076
 652,38; 6311,728;  340,998;42139,134;14,28468
 652,95; 6340,144;  312,690;42491,191;14,29035
 653,53; 6394,021;  336,844;42725,403;14,28965
 654,10; 6440,129;  372,767;42924,076;14,25893
 654,68; 6404,930;  320,306;42958,749;14,27028
 655,25; 6374,038;  305,075;42979,038;14,22170
 655,83; 6397,146;  310,767;43076,096;14,23204
 656,40; 6436,484;  351,229;43029,615;14,25840
 656,98; 6361,593;  322,536;42980,134;14,15705
 657,55; 6342,316;  331,383;42797,653;14,15461
 658,13; 6265,655;  323,921;42315,634;14,14978
 658,70; 6274,301;  345,998;42061,846;14,21115
 659,28; 6109,409;  321,613;41245,134;14,14296
 659,85; 5985,517;  363,075;40283,654;14,08407
 660,43; 5946,856;  353,844;40271,481;14,01138
 661,00; 5918,964;  327,229;40364,000;13,96650
 661,58; 5979,072;  330,998;40789,904;13,96003
 662,15; 6041,180;  313,613;40976,577;14,08546
 662,73; 6132,519;  400,767;41189,404;14,05233
 663,30; 6145,935;  332,306;41358,231;14,17062
 663,88; 6122,351;  340,075;41627,827;14,00482
 664,45; 6133,536;  323,306;41799,654;14,00854
 665,03; 6246,951;  330,537;42283,712;14,10242
 665,60; 6364,059;  421,229;42625,539;14,08110
 666,17; 6309,091;  337,921;42882,597;14,03506
 666,75; 6375,506;  329,844;43106,808;14,13299
 667,32; 6383,845;  355,075;43540,174;13,96030
 667,90; 6457,646;  335,229;43712,232;14,11443
 668,47; 6485,523;  353,152;44033,059;14,03934
 669,05; 6500,015;  342,998;44464,809;13,95459
 669,62; 6523,662;  308,152;44406,866;14,09454
 670,19; 6544,616;  315,614;44558,386;14,07914
 670,77; 6562,570;  329,537;44717,136;14,04229
 671,34; 6572,678;  323,844;44691,271;14,08428
 671,92; 6662,556;  313,844;45045,174;14,19299
 672,49; 6635,433;  344,152;45031,386;14,07847
 673,06; 6628,387;  284,383;45040,982;14,17446
 673,64; 6643,341;  308,768;45137,117;14,13073
 674,21; 6628,680;  298,921;45004,175;14,15887
 674,79; 6716,634;  343,844;45090,848;14,24183
 675,36; 6734,435;  348,229;45406,675;14,17316
 675,93; 6685,697;  300,614;45173,579;14,22924
 676,51; 6731,343;  325,614;45442,175;14,19818
 677,08; 6766,836;  331,691;45470,233;14,25643
 677,65; 6759,867;  327,383;45691,906;14,17955
 678,23; 6815,744;  321,998;45811,964;14,27512
 678,80; 6861,391;  312,383;45922,252;14,35875
 679,38; 6910,345;  320,614;46120,387;14,38813
 679,95; 6980,453;  342,998;46345,906;14,42834
 680,52; 7004,100;  323,229;46650,426;14,42105
 681,10; 7094,285;  336,922;47022,099;14,47432
 681,67; 7155,777;  321,383;47271,387;14,55675
 682,24; 7155,885;  298,998;47420,291;14,55157
 682,82; 7258,763;  321,614;48009,426;14,54701
 683,39; 7338,178;  360,614;48324,714;14,54747
 683,96; 7315,825;  315,922;48574,618;14,50496
 684,54; 7406,856;  290,922;48919,907;14,63311
 685,11; 7536,656;  362,537;49357,657;14,64252
 685,68; 7570,226;  312,922;49743,099;14,68193
 686,25; 7573,257;  300,691;49868,234;14,67203
 686,83; 7598,442;  302,537;50029,984;14,67179
 687,40; 7685,550;  290,768;50350,273;14,77198
 687,97; 7836,504;  337,229;50784,100;14,86569
 688,55; 7836,228;  289,152;50812,696;14,93774
 689,12; 7834,643;  268,768;51034,754;14,90343
 689,69; 7935,059;  280,922;51179,888;15,03790
 690,26; 7995,552;  305,306;51292,023;15,08284
 690,84; 8047,122;  304,152;51454,850;15,13756
 691,41; 8109,230;  328,768;51484,292;15,20943
 691,98; 8154,491;  317,460;51986,889;15,16764
 692,56; 8192,523;  302,614;51976,946;15,26853
 693,13; 8242,169;  354,153;51992,235;15,27558
 693,70; 8260,893;  338,845;52201,446;15,27507
 694,27; 8281,924;  302,306;52258,120;15,35847
 694,84; 8348,493;  305,383;52328,793;15,46056
 695,42; 8437,755;  350,153;52485,927;15,51258
 695,99; 8434,556;  325,922;52709,447;15,47936
 696,56; 8441,587;  319,614;52611,351;15,53204
 697,13; 8608,925;  330,922;53014,255;15,71276
 697,71; 8564,187;  315,383;52912,543;15,68298
 698,28; 8682,680;  312,306;53340,832;15,78466
 698,85; 8634,480;  271,383;53352,505;15,75531
 699,42; 8697,973;  289,306;53546,332;15,78884
 699,99; 8793,312;  330,691;53633,159;15,87660
 700,57; 8867,805;  333,076;53746,447;15,97864
 701,14; 8846,297;  300,076;53950,351;15,92950
 701,71; 9005,098;  328,230;54138,717;16,12486
 702,28; 8991,283;  312,383;54159,082;16,11779
 702,85; 9106,468;  320,076;54152,140;16,32186
 703,43; 9165,729;  344,230;54391,505;16,32182
 704,00; 9234,761;  356,999;54785,640;16,31083
 704,57; 9247,176;  317,768;54585,775;16,45428
 705,14; 9362,054;  347,614;54896,217;16,52552
 705,71; 9410,469;  359,460;55010,352;16,56150
 706,28; 9384,347;  321,614;54776,486;16,64265
 706,86; 9505,916;  356,537;55044,160;16,73026
 707,43; 9535,409;  382,537;55050,294;16,74272
 708,00; 9538,055;  368,307;54998,506;16,78513
 708,57; 9516,240;  327,999;54883,333;16,84206
 709,14; 9634,964;  368,153;55061,006;16,94337
 709,71; 9635,764;  341,922;55216,448;16,93653
 710,28; 9680,180;  339,076;55355,198;16,97885
 710,86; 9754,519;  333,537;55542,795;17,06413
 711,43; 9897,858;  367,307;55540,160;17,27399
 712,00; 9889,119;  330,922;55606,603;17,29187
 712,57; 9973,151;  352,153;55794,660;17,35311
 713,14;10033,182;  328,691;55898,564;17,46358
 713,71;10029,367;  334,845;55722,776;17,50295
 714,28;10118,782;  327,307;55845,834;17,63641
 714,85;10065,352;  307,691;55541,968;17,66595
 715,42;10178,460;  312,691;55781,718;17,78609
 716,00;10278,414;  393,307;55979,468;17,78340
 716,57;10280,753;  303,922;56016,295;17,90775
 717,14;10311,477;  307,922;55996,738;17,96331
 717,71;10368,123;  284,538;55959,334;18,11158
 718,28;10450,847;  347,153;56105,776;18,12041
 718,85;10475,955;  288,845;56184,988;18,22507
 719,42;10516,601;  320,384;56333,123;18,20339
 719,99;10504,094;  288,076;55964,488;18,34892
 720,56;10646,048;  333,999;56330,546;18,41551
 721,13;10660,156;  284,922;56486,142;18,46087
 721,70;10643,033;  299,538;56392,277;18,43999
 722,27;10773,603;  322,768;56368,412;18,64701
 722,84;10823,326;  379,307;56552,008;18,59270
 723,41;10814,281;  280,692;56514,373;18,73181
 723,98;10884,927;  304,845;56814,431;18,72263
 724,55;10936,650;  329,153;56876,104;18,75874
 725,12;10955,835;  266,538;56644,854;18,95994
 725,69;11111,405;  303,922;56881,066;19,10221
 726,27;11103,667;  300,307;57136,354;19,00794
 726,84;11225,313;  305,076;57442,412;19,11226
 727,41;11297,345;  330,153;57266,470;19,26221
 727,98;11398,068;  322,999;57616,451;19,33043
 728,55;11434,253;  343,153;57487,893;19,40879
 729,12;11527,361;  297,538;57735,335;19,55128
 729,69;11564,008;  323,307;57807,086;19,55456
 730,26;11643,885;  317,461;58049,451;19,61897
 730,82;11709,301;  309,769;57961,201;19,77320
 731,39;11762,563;  321,307;58115,182;19,79666
 731,96;11925,747;  297,922;58340,701;20,03320
 732,53;12008,163;  323,769;58578,221;20,05751
 733,10;12144,041;  333,384;58591,817;20,27287
 733,67;12230,379;  334,461;58880,644;20,31886
 734,24;12183,872;  297,538;58516,778;20,41651
 734,81;12286,288;  344,076;58560,067;20,51363
 735,38;12305,242;  323,846;58250,663;20,68368
 735,95;12319,888;  319,846;58131,798;20,75703
 736,52;12424,689;  343,076;58342,317;20,83064
 737,09;12370,643;  338,230;57876,683;20,91195
 737,66;12523,290;  382,230;58164,587;21,01171
 738,23;12584,013;  313,769;58244,414;21,18092
 738,80;12811,583;  406,923;58651,394;21,29757
 739,37;12798,152;  368,153;58750,068;21,29084
 739,94;12898,414;  331,538;58793,741;21,49573
 740,51;13055,291;  468,769;58906,260;21,53844
 741,07;12997,784;  327,230;58845,318;21,65237
 741,64;13097,584;  364,692;59040,222;21,70052
 742,21;13163,154;  337,615;59047,818;21,84550
 742,78;13195,724;  301,461;58832,106;22,02993
 743,35;13256,139;  327,538;59096,395;21,99907
 743,92;13405,940;  357,923;59376,299;22,10840
 744,49;13447,202;  378,846;59166,818;22,22964
 745,06;13389,540;  322,077;59086,568;22,23701
 745,63;13476,110;  308,000;59223,857;22,35071
 746,19;13505,372;  322,461;59089,145;22,43263
 746,76;13576,557;  324,153;59240,203;22,49371
 747,33;13655,511;  325,846;59194,645;22,64301
 747,90;13766,081;  341,000;59470,857;22,70440
 748,47;13802,573;  332,230;59330,453;22,83178
 749,04;13828,912;  333,692;59319,819;22,87863
 749,61;13935,713;  369,846;59306,184;23,01783
 750,17;14025,051;  336,769;59323,857;23,20556
 750,74;14041,544;  337,384;59244,377;23,26406
 751,31;14036,652;  302,923;59212,819;23,31311
 751,88;14069,760;  294,307;59139,569;23,40962
 752,45;14183,099;  313,846;59343,396;23,49544
 753,02;14238,053;  347,923;59170,762;23,61350
 753,58;14242,700;  313,615;58968,665;23,74746
 754,15;14372,500;  310,000;59192,492;23,88231
 754,72;14342,685;  313,384;58972,473;23,91667
 755,29;14387,178;  294,923;58806,146;24,08470
 755,86;14427,901;  312,615;58917,820;24,08538
 756,42;14518,240;  322,077;58767,493;24,28961
 756,99;14495,348;  277,307;58638,012;24,36235
 757,56;14525,841;  283,538;58724,531;24,37040
 758,13;14576,564;  233,231;58577,743;24,58386
 758,70;14681,903;  266,923;58638,031;24,69540
 759,26;14758,242;  253,846;58751,628;24,79478
 759,83;14836,581;  272,077;58881,378;24,85016
 760,40;14827,381;  241,692;58659,512;24,96788
 760,97;14996,181;  233,231;58654,801;25,26969
 761,53;14897,366;  228,231;58259,551;25,27796
 762,10;14953,705;  224,154;58296,917;25,36396
 762,67;15024,967;  262,000;58249,897;25,45870
 763,24;15011,537;  224,077;57759,955;25,70128
 763,80;15085,491;  252,846;57950,782;25,70741
 764,37;15116,907;  259,923;57953,225;25,75166
 764,94;15005,092;  254,692;57446,513;25,79110
 765,50;15127,046;  239,231;57460,494;26,01798
 766,07;15200,846;  287,231;57560,705;26,03931
 766,64;15225,570;  259,615;57201,302;26,28295
 767,21;15157,370;  274,923;57079,436;26,19941
 767,77;15336,709;  295,231;57075,186;26,49082
 768,34;15304,048;  300,385;57003,013;26,46026
 768,91;15317,232;  294,308;56727,148;26,62089
 769,47;15357,341;  301,231;56822,283;26,63806
 770,04;15418,141;  295,769;56639,264;26,83961
 770,61;15408,326;  284,615;56498,783;26,90373
 771,18;15328,357;  284,000;56278,379;26,86762
 771,74;15498,004;  288,231;56579,437;27,01980
 772,31;15459,112;  305,385;56189,802;27,11619
 772,88;15385,758;  272,077;55945,783;27,14689
 773,44;15425,866;  285,462;55766,226;27,28947
 774,01;15481,282;  304,692;55961,668;27,26808
 774,58;15465,390;  287,000;55467,957;27,50657
 775,14;15512,883;  272,846;55696,091;27,49755
 775,71;15540,683;  274,539;55600,149;27,59327
 776,27;15688,560;  344,462;55466,053;27,83682
 776,84;15771,591;  388,308;55656,265;27,83400
 777,41;15714,699;  303,616;55321,015;28,01129
 777,97;15682,808;  272,616;55000,149;28,15802
 778,54;15728,685;  301,385;55050,822;28,17801
 779,11;15825,639;  325,616;55068,880;28,31403
 779,67;15855,901;  285,000;55038,553;28,43816
 780,24;15866,009;  295,769;54777,765;28,57869
 780,80;15997,040;  309,462;54927,592;28,72229
 781,37;15963,764;  315,000;54811,111;28,71538
 781,94;16038,487;  308,693;54498,784;29,02707
 782,50;16123,287;  301,308;54345,765;29,27586
 783,07;16104,703;  319,923;54492,054;29,13819
 783,63;16124,119;  289,462;54200,958;29,37158
 784,20;16150,611;  306,693;54244,862;29,37422
 784,77;16225,643;  294,231;54086,612;29,61648
 785,33;16171,597;  263,846;53817,593;29,70427
 785,90;16297,243;  292,693;53804,035;29,90871
 786,46;16272,736;  319,846;53659,862;29,90792
 787,03;16228,613;  278,539;53536,766;29,94856
 787,59;16327,183;  294,693;53378,285;30,20235
 788,16;16334,291;  285,154;53344,420;30,24757
 788,73;16354,476;  297,539;53208,939;30,34684
 789,29;16287,199;  274,462;52859,458;30,45115
 789,86;16348,769;  318,385;52656,439;30,62854
 790,42;16344,646;  284,231;52592,420;30,70344
 790,99;16277,908;  301,923;52334,862;30,70360
 791,55;16338,170;  288,539;52213,074;30,90953
 792,12;16422,740;  318,462;52249,901;31,01065
 792,68;16357,386;  297,693;51828,267;31,16537
 793,25;16336,340;  305,308;51771,094;31,14891
 793,81;16387,679;  390,231;51371,228;31,37924
 794,38;16264,403;  261,924;51072,901;31,49414
 794,94;16344,588;  279,154;50907,728;31,73195
 795,51;16323,849;  288,077;50757,094;31,77350
 796,07;16270,188;  292,077;50415,844;31,87731
 796,64;16377,219;  292,385;50582,902;31,98383
 797,20;16250,020;  310,385;49989,883;32,08494
 797,77;16180,820;  264,001;49579,171;32,27571
 798,33;16188,390;  294,539;49574,921;32,25188
 798,90;16234,190;  309,539;49464,979;32,39652
 799,46;16131,760;  273,693;48984,883;32,55529
 800,03;16157,714;  294,231;48894,710;32,64059
 800,59;16096,668;  288,616;48555,152;32,75158
 801,15;16090,007;  311,539;48497,056;32,74525
 801,72;16099,500;  296,924;48028,345;33,10728
 802,28;16049,146;  312,385;47755,941;33,16944
 802,85;16011,254;  285,847;47556,768;33,26656
 803,41;15999,901;  288,001;47328,056;33,40111
 803,98;15975,932;  279,308;46980,806;33,61054
 804,54;15875,655;  278,308;46717,787;33,58640
 805,11;15915,763;  297,693;46456,614;33,83543
 805,67;16007,794;  311,462;46437,518;34,02921
 806,23;15853,749;  299,385;45931,268;34,08661
 806,80;15873,011;  309,231;45820,249;34,19783
 807,36;15951,119;  313,001;45797,615;34,38112
 807,93;15908,073;  322,847;45528,057;34,47661
 808,49;15887,642;  289,770;45086,653;34,81910
 809,05;15865,212;  270,078;44936,249;34,91487
 809,62;15935,935;  297,616;44852,307;35,09915
 810,18;15947,890;  296,155;44766,211;35,19612
 810,74;15895,767;  258,385;44459,500;35,37780
 811,31;15841,644;  258,924;44243,634;35,42758
 811,87;15883,137;  283,001;44068,846;35,62826
 812,44;15862,553;  314,078;44003,058;35,58901
 813,00;15793,199;  243,309;43807,115;35,69452
 813,56;15931,076;  286,847;43819,712;35,93660
 814,13;15973,954;  275,539;43770,538;36,09246
 814,69;15954,139;  270,616;43553,981;36,23453
 815,25;15805,631;  243,001;43104,731;36,30892
 815,82;15859,662;  287,616;43037,173;36,42622
 816,38;15905,847;  322,847;42924,770;36,57816
 816,94;15782,186;  247,309;42650,750;36,63589
 817,51;15688,833;  250,693;42287,039;36,72569
 818,07;15710,325;  254,232;42149,789;36,89196
 818,63;15703,433;  268,232;41827,770;37,13997
 819,20;15714,542;  272,847;41797,135;37,18714
 819,76;15582,419;  249,616;41386,808;37,27236
 820,32;15667,681;  299,847;41280,405;37,50030
 820,89;15588,250;  287,693;41097,693;37,49218
 821,45;15484,435;  264,232;40781,443;37,56479
 822,01;15524,774;  276,847;40505,347;37,90329
 822,57;15494,036;  282,924;40350,174;37,96395
 823,14;15416,759;  248,847;40103,847;38,05774
 823,70;15396,791;  256,463;39804,367;38,28352
 824,26;15412,745;  254,924;39677,655;38,44944
 824,82;15425,776;  279,001;39539,482;38,58021
 825,39;15303,422;  261,078;39160,155;38,67018
 825,95;15399,300;  271,616;39187,982;38,87229
 826,51;15239,177;  279,232;38892,117;38,74340
 827,08;15365,439;  303,078;38838,252;39,08731
 827,64;15314,701;  289,616;38783,309;39,03259
 828,20;15219,347;  254,616;38231,675;39,40466
 828,76;15342,071;  281,078;38318,271;39,59544
 829,32;15341,025;  306,540;38212,867;39,66220
 829,89;15317,441;  242,232;38075,310;39,84664
 830,45;15383,933;  273,770;37933,521;40,12284
 831,01;15336,349;  281,463;37882,425;40,03857
 831,57;15321,842;  260,078;37700,252;40,22888
 832,14;15405,104;  253,001;37611,002;40,55919
 832,70;15311,673;  249,232;37460,906;40,47773
 833,26;15264,320;  231,693;37300,041;40,55381
 833,82;15313,659;  262,847;37248,099;40,69409
 834,38;15374,536;  253,540;37196,080;40,93112
 834,95;15286,106;  244,078;37014,983;40,90742
 835,51;15323,214;  220,078;36893,349;41,18295
 836,07;15392,245;  259,232;36913,791;41,28549
 836,63;15481,968;  276,540;36964,849;41,44489
 837,19;15449,615;  264,694;36823,138;41,53602
 837,75;15367,338;  225,617;36588,195;41,64095
 838,32;15472,600;  281,694;36579,945;41,85024
 838,88;15511,400;  286,309;36594,234;41,93325
 839,44;15512,893;  263,155;36528,138;42,05086
 840,00;15525,924;  277,001;36482,426;42,11778
 840,56;15406,186;  258,540;36065,407;42,30375
 841,12;15400,909;  247,924;36118,619;42,24336
 841,68;15344,864;  232,078;35960,446;42,29912
 842,25;15433,818;  251,386;35870,504;42,62439
 842,81;15389,387;  239,540;35651,484;42,78174
 843,37;15375,265;  230,386;35667,311;42,73756
 843,93;15372,450;  248,848;35569,446;42,81808
 844,49;15417,635;  273,463;35597,196;42,87251
 845,05;15438,358;  211,540;35434,639;43,22964
 845,61;15458,389;  268,924;35604,389;42,98646
 846,17;15396,267;  241,155;35367,677;43,14435
 846,73;15459,759;  250,386;35265,889;43,43611
 847,29;15393,713;  233,232;35046,254;43,54831
 847,86;15434,668;  237,463;35047,927;43,65700
 848,42;15334,468;  231,771;34748,985;43,75410
 848,98;15397,345;  265,155;34750,812;43,87966
 849,54;15493,530;  240,540;34827,331;44,10062
 850,10;15409,561;  269,232;34579,928;44,12714
 850,66;15366,900;  231,386;34474,139;44,20063
 851,22;15349,085;  223,540;34348,889;44,32349
 851,78;15458,655;  280,540;34463,101;44,40309
 852,34;15347,455;  252,463;34143,928;44,53921
 852,90;15374,256;  242,617;34116,909;44,66998
 853,46;15327,133;  243,925;33769,120;44,99066
 854,02;15330,779;  256,078;33873,101;44,84246
 854,58;15239,734;  248,771;33591,082;44,96078
 855,14;15228,534;  234,771;33489,448;45,08768
 855,70;15224,565;  212,232;33313,275;45,35305
 856,26;15198,596;  250,925;33331,178;45,18608
 856,82;15175,089;  239,540;33079,005;45,48049
 857,38;15258,043;  293,540;33035,063;45,70497
 857,94;15173,151;  244,309;32908,967;45,70335
 858,50;15141,182;  276,232;32697,102;45,84994
 859,06;15035,444;  236,002;32592,313;45,73897
 859,62;15107,783;  270,540;32577,064;45,92646
 860,18;15042,353;  252,079;32320,198;46,12143
 860,74;14997,999;  215,925;32223,794;46,18262
 861,30;14957,646;  223,540;31985,545;46,38909
 861,86;15058,523;  315,156;32028,218;46,48989
 862,42;14947,939;  247,386;31845,583;46,52339
 862,98;14994,662;  280,156;31846,256;46,61490
 863,54;14876,924;  249,079;31524,314;46,77134
 864,10;14974,263;  248,463;31708,833;46,80746
 864,66;14887,986;  229,156;31374,506;47,06587
 865,22;14841,787;  243,463;31222,872;47,12267
 865,78;14808,433;  249,463;31099,622;47,19253
 866,34;14887,233;  228,309;31151,218;47,40474
 866,90;14854,111;  247,309;30873,584;47,69369
 867,45;14805,526;  252,463;30662,488;47,85614
 868,01;14753,865;  247,925;30551,545;47,86867
 868,57;14746,435;  225,310;30301,757;48,28072
 869,13;14755,774;  225,156;30207,046;48,46465
 869,69;14693,728;  237,694;30017,565;48,54297
 870,25;14706,144;  224,848;29960,161;48,70067
 870,81;14742,713;  239,233;29956,757;48,80447
 871,37;14700,898;  247,002;29845,277;48,83358
 871,93;14633,775;  267,694;29726,104;48,76734
 872,49;14617,345;  285,310;29389,854;49,24329
 873,04;14514,530;  231,387;29272,527;49,18245
 873,60;14519,792;  231,387;29057,661;49,56730
 874,16;14483,900;  259,002;29020,258;49,45854
 874,72;14433,977;  226,310;28936,027;49,48731
 875,28;14495,208;  245,156;28957,104;49,63109
 875,84;14504,438;  255,079;28820,796;49,88273
 876,40;14459,900;  239,925;28773,642;49,83569
 876,95;14471,977;  251,694;28707,104;49,97392
 877,51;14595,515;  269,694;28800,181;50,21233
 878,07;14609,900;  289,540;28699,488;50,40614
 878,63;14655,285;  242,771;28721,565;50,60788
 879,19;14678,823;  258,079;28695,719;50,71006
 879,75;14744,823;  237,387;28775,565;50,83519
 880,30;14769,900;  248,925;28722,104;50,99878
 880,86;14894,362;  289,463;28815,642;51,19823
 881,42;14930,438;  223,848;28931,719;51,22843
 881,98;14980,977;  264,310;28987,642;51,23593
 882,54;15074,054;  247,463;29057,719;51,46289
 883,09;15192,669;  248,156;29168,104;51,67545
 883,65;15285,362;  232,463;29314,565;51,76001
 884,21;15413,669;  264,617;29406,796;51,98325
 884,77;15475,900;  222,463;29545,027;52,01945
 885,32;15641,977;  236,463;29663,796;52,35104
 885,88;15771,900;  284,079;29835,027;52,41057
 886,44;15826,438;  247,310;29985,873;52,38696
 887,00;15947,131;  259,002;29880,335;52,96227
 887,56;15981,362;  239,387;30103,950;52,71122
 888,11;16051,208;  244,617;30155,642;52,84537
 888,67;16145,362;  270,156;30233,642;52,98184
 889,23;16224,054;  256,925;30326,950;53,09982
 889,79;16121,131;  221,617;30207,258;53,02376
 890,34;16165,285;  258,310;30105,258;53,29515
 890,90;16315,208;  315,617;30287,412;53,38216
 891,46;16248,285;  230,002;30215,412;53,42026
 892,01;16215,438;  262,079;30159,027;53,36116
 892,57;16336,362;  287,310;30135,642;53,76867
 893,13;16136,823;  241,463;29936,565;53,52856
 893,69;16174,438;  230,694;29820,027;53,88342
 894,24;16174,977;  244,694;29728,488;54,03064
 894,80;16126,362;  248,387;29520,104;54,24340
 895,36;16142,900;  245,310;29464,565;54,40792
 895,91;15978,746;  247,002;29223,873;54,29069
 896,47;16036,438;  262,310;29086,796;54,72475
 897,03;15950,669;  237,617;29003,104;54,62467
 897,58;15967,438;  250,079;28808,642;55,03554
 898,14;15882,746;  253,540;28610,104;55,11671
 898,70;15809,515;  218,463;28388,104;55,34700
 899,25;15879,823;  251,233;28472,719;55,37834
 899,81;15843,823;  255,387;28214,335;55,75473
 900,37;15719,285;  207,079;28039,950;55,73340
 900,92;15736,438;  233,233;28046,873;55,73958
 901,48;15666,438;  224,694;27881,642;55,83315
 902,03;15529,977;  241,848;27736,873;55,60325
 902,59;15551,054;  232,540;27614,104;55,94463
 903,15;15460,131;  255,387;27490,642;55,82743
 903,70;15349,515;  243,694;27184,488;56,07044
 904,26;15320,977;  237,079;27075,796;56,20201
 904,82;15315,054;  235,002;27008,565;56,32441
 905,37;15279,669;  251,694;26900,565;56,39254
 905,93;15131,208;  227,617;26680,412;56,34033
 906,48;15162,823;  253,617;26681,181;56,41536
 907,04;15109,438;  243,925;26703,873;56,18119
 907,60;15013,438;  251,771;26460,104;56,32433
 908,15;14959,515;  220,233;26310,027;56,49444
 908,71;15009,208;  251,694;26259,488;56,74266
 909,26;14894,285;  242,079;26061,796;56,74813
 909,82;14889,977;  253,617;25973,873;56,90596
 910,37;14904,977;  275,310;25934,412;57,01551
 910,93;14747,208;  227,540;25626,258;57,16693
 911,48;14742,900;  245,540;25466,258;57,48195
 912,04;14655,285;  223,463;25345,796;57,44618
 912,60;14701,977;  229,771;25470,181;57,33744
 913,15;14602,823;  235,002;25217,258;57,51210
 913,71;14508,823;  232,925;25056,565;57,50928
 914,26;14527,208;  214,387;24952,335;57,85775
 914,82;14538,669;  238,771;24873,873;58,04684
 915,37;14513,746;  226,771;24823,642;58,08452
 915,93;14477,900;  291,002;24707,642;58,10340
 916,48;14399,823;  218,002;24588,488;58,19261
 917,04;14400,362;  256,771;24472,258;58,40721
 917,59;14446,977;  269,156;24299,950;58,99855
 918,15;14290,592;  205,540;24127,412;58,87939
 918,70;14248,592;  230,233;24085,719;58,76367
 919,26;14242,438;  236,310;23955,027;59,05095
 919,81;14161,823;  213,002;23737,104;59,29587
 920,37;14120,592;  234,387;23711,642;59,14748
 920,92;14153,362;  256,925;23632,104;59,44954
 921,48;14056,438;  215,925;23362,950;59,79392
 922,03;14061,746;  229,925;23411,258;59,66793
 922,59;13966,592;  237,233;23188,181;59,82045
 923,14;13969,746;  241,387;23117,104;60,01280
 923,69;13934,515;  253,079;23007,642;60,12612
 924,25;13919,900;  261,925;23030,950;59,98489
 924,80;13829,746;  223,848;22742,412;60,42081
 925,36;13719,362;  230,156;22713,335;59,99688
 925,91;13700,208;  220,617;22526,796;60,42985
 926,47;13648,823;  211,002;22422,027;60,50068
 927,02;13673,285;  303,694;22439,412;60,39827
 927,57;13526,823;  230,079;22282,181;60,29695
 928,13;13468,285;  219,771;22184,412;60,31746
 928,68;13438,285;  225,617;22158,642;60,24097
 929,24;13375,285;  198,233;21911,873;60,68560
 929,79;13350,362;  222,848;21785,258;60,88148
 930,34;13285,131;  226,694;21600,950;61,09423
 930,90;13296,438;  224,156;21626,719;61,07812
 931,45;13260,131;  226,617;21524,335;61,19676
 932,01;13221,131;  230,002;21376,642;61,43354
 932,56;13198,977;  249,310;21230,873;61,71927
 933,11;13220,208;  251,156;21304,488;61,60095
 933,67;13064,362;  220,079;21047,412;61,67032
 934,22;13108,746;  229,771;20985,796;62,04933
 934,77;13044,208;  249,925;20872,719;62,03952
 935,33;12890,746;  229,387;20730,335;61,75987
 935,88;12895,438;  234,002;20730,565;61,77346
 936,43;12936,131;  218,002;20557,104;62,53043
 936,99;12873,746;  222,387;20398,719;62,70396
 937,54;12758,285;  206,387;20254,950;62,60747
 938,09;12777,900;  234,002;20262,796;62,62932
 938,65;12732,977;  242,617;20134,565;62,79103
 939,20;12663,515;  206,694;20059,181;62,74691
 939,75;12619,438;  208,617;19935,412;62,91352
 940,31;12595,515;  212,694;19782,258;63,27592
 940,86;12539,208;  225,233;19784,488;62,95728
 941,41;12582,977;  332,694;19728,488;63,15948
 941,96;12380,900;  213,463;19530,258;62,98890
 942,52;12354,131;  225,925;19473,104;63,01290
 943,07;12283,515;  209,079;19286,258;63,29257
 943,62;12219,669;  215,233;19190,181;63,26466
 944,18;12172,669;  204,156;19129,104;63,24199
 944,73;12108,592;  251,387;19083,565;62,96247
 945,28;11989,208;  194,463;18868,335;63,16175
 945,83;12009,900;  211,233;18904,181;63,11828
 946,39;12029,208;  225,002;18854,335;63,36355
 946,94;11992,977;  234,387;18772,873;63,42800
 947,49;11924,438;  218,002;18646,950;63,52200
 948,04;11910,438;  271,848;18616,950;63,44250
 948,59;11891,823;  244,771;18571,027;63,55391
 949,15;11799,823;  197,233;18398,104;63,74745
 949,70;11779,054;  227,694;18305,181;63,89915
 950,25;11753,977;  232,387;18258,796;63,91506
 950,80;11669,285;  181,540;18098,181;64,11774
 951,36;11631,285;  189,310;17997,488;64,25124
 951,91;11737,746;  238,694;18064,796;64,50682
 952,46;11586,285;  211,848;17810,642;64,63191
 953,01;11621,131;  231,233;17894,719;64,48273
 953,56;11521,900;  196,463;17687,104;64,75141
 954,11;11440,669;  236,233;17578,642;64,60715
 954,67;11530,823;  214,310;17560,488;65,23923
 955,22;11413,515;  208,156;17351,335;65,36337
 955,77;11416,823;  256,925;17345,027;65,30800
 956,32;11357,823;  287,848;17339,873;64,91883
 956,87;11292,823;  216,233;17181,027;65,29163
 957,42;11240,823;  218,387;17060,796;65,44453
 957,98;11186,669;  216,540;17052,488;65,15896
 958,53;11282,054;  251,848;16944,796;66,07704
 959,08;11179,515;  205,387;16840,104;65,97124
 959,63;11139,208;  213,463;16698,335;66,27740
 960,18;11081,285;  240,310;16663,104;66,01176
 960,73;11081,208;  227,694;16622,796;66,19973
 961,28;10987,131;  200,233;16484,565;66,24096
 961,83;10999,285;  253,463;16457,950;66,31386
 962,39;10938,823;  195,233;16332,873;66,57473
 962,94;10898,285;  228,694;16245,488;66,61502
 963,49;10823,515;  229,233;16088,796;66,80059
 964,04;10821,515;  239,925;16038,181;66,97949
 964,59;10794,438;  188,694;15921,104;67,41335
 965,14;10835,746;  238,617;15892,335;67,69720
 965,69;10797,746;  215,694;15766,796;68,04696
 966,24;10728,746;  210,771;15661,104;68,07604
 966,79;10693,746;  241,617;15580,412;68,14179
 967,34;10564,900;  204,694;15437,796;68,01114
 967,89;10592,977;  223,387;15377,181;68,42900
 968,44;10531,515;  222,848;15322,335;68,27164
 968,99;10519,823;  226,617;15221,719;68,64379
 969,55;10515,592;  223,848;15129,488;69,04597
 970,10;10428,592;  237,694;15034,642;68,87162
 970,65;10440,208;  242,925;14971,642;69,23402
 971,20;10292,592;  209,079;14867,335;68,79068
 971,75;10203,362;  204,694;14685,873;69,04595
 972,30;10248,362;  223,002;14625,104;69,61039
 972,85;10176,054;  211,156;14534,104;69,57295
 973,40;10101,823;  203,310;14416,565;69,64283
 973,95;10119,592;  239,694;14371,335;69,91331
 974,50;10086,592;  258,694;14305,181;69,96695
 975,05; 9952,592;  224,848;14154,027;69,83717
 975,60; 9960,592;  232,463;14079,796;70,25273
 976,15; 9859,515;  206,925;13992,719;70,01838
 976,70; 9879,131;  234,079;13964,565;70,24552
 977,25; 9852,285;  238,387;13904,796;70,34692
 977,80; 9742,438;  224,617;13683,258;70,71904
 978,35; 9608,823;  239,387;13569,873;70,28578
 978,89; 9617,438;  197,540;13494,565;70,84215
 979,44; 9593,977;  216,617;13471,950;70,74405
 979,99; 9468,592;  203,771;13263,642;70,94114
 980,54; 9389,515;  245,002;13232,873;70,40810
 981,09; 9330,208;  253,079;13134,719;70,46563
 981,64; 9237,900;  243,617;12957,104;70,74600
 982,19; 9254,669;  259,540;12995,565;70,62744
 982,74; 9145,669;  240,540;12766,719;71,09214
 983,29; 9058,900;  214,848;12646,027;71,14411
 983,84; 9017,438;  238,310;12546,796;71,32582
 984,39; 9021,131;  320,002;12613,181;70,78014
 984,94; 8843,823;  207,848;12371,258;70,99962
 985,49; 8868,054;  255,771;12332,258;71,31447
 986,03; 8814,515;  253,079;12205,950;71,62661
 986,58; 8725,362;  291,156;12056,642;71,68599
 987,13; 8638,515;  236,848;11931,335;71,84298
 987,68; 8567,208;  244,848;11804,335;71,99593
 988,23; 8600,054;  238,463;11760,335;72,57146
 988,78; 8459,977;  225,771;11591,642;72,44676
 989,33; 8412,362;  258,156;11502,412;72,51886
 989,88; 8388,669;  269,617;11457,796;72,56813
 990,42; 8304,362;  220,771;11289,488;73,03096
 990,97; 8204,131;  225,540;11129,181;73,17364
 991,52; 8164,977;  259,463;11156,258;72,54898
 992,07; 8109,977;  280,463;11006,565;72,99496
 992,62; 8041,823;  234,617;10952,488;72,84288
 993,17; 7971,669;  243,771;10793,412;73,25272
 993,71; 7908,900;  255,310;10649,181;73,63561
 994,26; 7811,208;  225,387;10543,796;73,51735
 994,81; 7794,131;  263,540;10517,873;73,43813
 995,36; 7695,515;  225,463;10316,950;74,02331
 995,91; 7648,515;  238,848;10271,104;73,85844
 996,45; 7551,669;  228,925;10182,488;73,56907
 997,00; 7482,362;  224,617;10036,181;73,97133
 997,55; 7430,977;  251,540; 9979,796;73,79983
 998,10; 7398,515;  263,617; 9872,950;74,24967
 998,65; 7314,208;  239,848; 9776,796;74,17844
 999,19; 7215,438;  257,771; 9693,258;73,73936
 999,74; 7162,592;  268,771; 9553,335;74,25035
1000,29; 7103,669;  239,233; 9525,258;73,92223
1000,84; 6973,669;  238,233; 9348,335;73,93371
1001,38; 6921,208;  246,617; 9214,412;74,42845
1001,93; 6861,438;  244,002; 9188,873;73,98023
1002,48; 6746,746;  229,848; 9065,412;73,75758
1003,03; 6747,362;  259,002; 8988,642;74,32562
1003,57; 6624,669;  244,079; 8888,642;73,81044
1004,12; 6608,438;  299,002; 8834,642;73,91872
1004,67; 6500,823;  235,310; 8676,104;74,22896
1005,22; 6408,131;  229,771; 8522,873;74,49998
1005,76; 6295,592;  223,079; 8398,027;74,28198
1006,31; 6288,362;  262,387; 8335,027;74,64689
1006,86; 6193,131;  233,079; 8203,873;74,77363
1007,40; 6096,362;  224,387; 8113,488;74,43148
1007,95; 6034,131;  244,771; 7994,412;74,70488
1008,50; 5945,285;  248,540; 7885,412;74,59526
1009,04; 5831,208;  243,079; 7761,104;74,32975
1009,59; 5727,746;  246,617; 7645,335;74,08215
1010,14; 5704,285;  222,310; 7512,335;75,19830
1010,68; 5665,900;  243,771; 7444,950;75,29502
1011,23; 5572,977;  239,540; 7324,104;75,28250
1011,78; 5498,438;  252,925; 7200,104;75,50566
1012,32; 5471,823;  281,617; 7150,027;75,56634
1012,87; 5424,900;  269,617; 7052,488;76,00443
1013,42; 5324,669;  224,540; 6985,873;75,43082
1013,96; 5370,746;  276,387; 7006,412;75,69600
1014,51; 5264,054;  206,771; 6821,104;76,45945
1015,06; 5251,285;  208,771; 6839,181;76,05131
1015,60; 5312,362;  273,694; 6944,104;75,53760
1016,15; 5302,515;  217,387; 6865,873;76,48551
1016,69; 5326,746;  233,617; 6917,181;76,20379
1017,24; 5293,208;  217,463; 6887,027;76,10310
1017,79; 5359,669;  266,310; 6977,565;75,89280
1018,33; 5316,362;  230,387; 6973,565;75,42400
1018,88; 5399,515;  256,002; 7040,412;75,81372
1019,42; 5376,054;  235,540; 7027,335;75,68712
1019,97; 5394,746;  228,002; 7042,642;75,81830
1020,51; 5454,823;  264,002; 7104,796;75,88039
1021,06; 5414,131;  213,540; 7013,335;76,48158
1021,61; 5404,746;  195,310; 7018,642;76,34739
1022,15; 5359,515;  188,925; 7005,104;75,85761
1022,70; 5409,669;  230,771; 6977,258;76,76437
1023,24; 5348,362;  216,848; 6956,950;76,13406
1023,79; 5283,746;  224,848; 6841,950;76,45187
1024,33; 5261,054;  223,463; 6815,104;76,42393
1024,88; 5238,285;  253,848; 6720,565;77,07831
1025,42; 5120,900;  237,233; 6653,642;76,11215
1025,97; 5025,285;  225,002; 6550,258;75,89073
1026,51; 4955,362;  201,387; 6445,258;76,13826
1027,06; 4921,592;  214,925; 6373,335;76,42667
1027,60; 4881,823;  248,310; 6281,719;76,79759
1028,15; 4801,592;  238,387; 6152,642;77,15604
1028,69; 4643,208;  187,387; 6030,181;76,26182
1029,24; 4633,669;  213,848; 5970,642;76,77574
1029,78; 4528,285;  211,310; 5860,181;76,42191
1030,33; 4456,900;  204,694; 5736,873;76,86313
1030,87; 4399,900;  217,233; 5712,335;76,11628
1031,42; 4335,669;  206,079; 5575,488;76,90958
1031,96; 4274,592;  236,310; 5524,027;76,37100
1032,51; 4193,823;  216,233; 5425,335;76,35847
1033,05; 4150,131;  224,848; 5379,719;76,14706
1033,60; 4032,515;  192,771; 5262,796;75,73423
1034,14; 3983,208;  219,617; 5207,412;75,45601
1034,69; 3936,669;  224,233; 5146,104;75,42734
1035,23; 3871,823;  219,463; 5064,335;75,38610
1035,77; 3859,977;  223,848; 4983,950;76,38763
1036,32; 3754,362;  189,079; 4903,104;75,63139
1036,86; 3720,592;  227,694; 4854,412;75,49409
1037,41; 3689,977;  234,925; 4783,104;75,96561
1037,95; 3625,977;  202,079; 4684,258;76,38914
1038,50; 3618,515;  218,540; 4675,950;76,27693
1039,04; 3612,285;  240,233; 4619,565;76,99922
1039,58; 3485,669;  201,387; 4517,642;76,09101
1040,13; 3447,054;  217,540; 4454,181;76,22817
1040,67; 3473,977;  241,617; 4438,873;77,01126
1041,21; 3403,131;  248,233; 4341,104;77,08276
1041,76; 3323,515;  213,002; 4282,027;76,44370
1042,30; 3303,900;  212,617; 4238,719;76,78103
1042,85; 3230,900;  215,771; 4141,873;76,79701
1043,39; 3173,285;  196,694; 4062,719;76,99356
1043,93; 3202,208;  238,156; 4062,873;77,49728
1044,48; 3119,362;  226,310; 3987,335;76,92190
1045,02; 3062,823;  217,002; 3953,950;76,15362
1045,56; 3099,208;  255,463; 3939,565;77,18962
1046,11; 3005,900;  239,617; 3856,565;76,48113
1046,65; 2961,823;  235,310; 3768,258;77,17389
1047,19; 2917,054;  212,002; 3726,181;76,97536
1047,74; 2856,208;  194,310; 3648,873;77,05454
1048,28; 2842,054;  225,233; 3585,796;77,86852
1048,82; 2823,285;  254,925; 3615,335;76,42996
1049,37; 2785,438;  243,771; 3534,412;77,23929
1049,91; 2752,438;  227,079; 3486,873;77,46991
1050,45; 2699,977;  232,310; 3441,258;76,89957
1050,99; 2671,592;  224,925; 3392,181;77,24881
1051,54; 2603,285;  209,079; 3325,104;76,83526
1052,08; 2616,131;  245,848; 3293,027;77,78614
1052,62; 2581,285;  237,002; 3273,027;77,21553
1053,16; 2502,131;  210,310; 3173,181;77,35136
1053,71; 2480,823;  240,310; 3164,950;76,60817
1054,25; 2479,515;  232,617; 3096,027;78,46932
1054,79; 2416,900;  233,771; 3062,027;77,18994
1055,33; 2388,285;  201,310; 3002,258;78,07981
1055,88; 2369,131;  234,233; 2977,412;77,82570
1056,42; 2368,208;  236,310; 2939,027;78,87980
1056,96; 2310,362;  240,694; 2917,104;77,32999
1057,50; 2279,362;  244,771; 2851,488;78,05182
1058,05; 2245,208;  226,156; 2811,258;78,10338
1058,59; 2224,746;  250,540; 2786,488;77,84882
1059,13; 2153,592;  206,310; 2734,335;77,02783
1059,67; 2143,900;  241,233; 2698,027;77,44512
1060,21; 2108,131;  227,233; 2656,796;77,41712
1060,76; 2090,285;  243,617; 2615,181;77,86708
1061,30; 2068,054;  260,617; 2603,565;77,14369
1061,84; 2046,438;  235,156; 2537,412;78,67426
1062,38; 1973,977;  210,694; 2454,412;78,58756
1062,92; 2039,592;  275,079; 2525,181;78,41927
1063,46; 1941,669;  239,771; 2429,642;77,71681
1064,01; 1920,823;  230,540; 2389,181;78,30312
1064,55; 1918,669;  237,540; 2352,412;79,49084
1065,09; 1833,977;  208,694; 2310,565;77,32551
1065,63; 1876,900;  262,079; 2338,873;77,75547
1066,17; 1855,823;  279,233; 2297,335;78,12244
1066,71; 1850,054;  250,771; 2276,412;78,95196
1067,25; 1773,669;  233,540; 2190,258;78,70983
1067,80; 1769,823;  244,617; 2191,258;78,35067
1068,34; 1771,669;  264,310; 2199,181;77,90491
1068,88; 1703,669;  216,233; 2112,104;78,45663
1069,42; 1737,515;  269,540; 2133,796;78,74322
1069,96; 1679,054;  238,387; 2086,873;77,93767
1070,50; 1717,669;  281,310; 2090,796;79,37940
1071,04; 1627,208;  223,310; 2012,873;78,44919
1071,58; 1618,131;  232,848; 1994,488;78,63595
1072,12; 1602,977;  240,617; 1989,565;77,89594
1072,66; 1603,362;  232,925; 1979,488;78,46474
1073,21; 1605,900;  257,925; 1962,181;79,09464
1073,75; 1555,900;  242,310; 1920,642;78,26758
1074,29; 1544,823;  238,848; 1893,258;78,93904
1074,83; 1551,438;  264,233; 1894,565;78,95356
1075,37; 1544,515;  260,079; 1867,335;79,91488
1075,91; 1495,977;  249,463; 1835,565;78,58975
1076,45; 1470,054;  262,233; 1804,642;78,30742
1076,99; 1462,208;  253,617; 1787,719;78,78162
1077,53; 1414,438;  227,002; 1742,335;78,36144
1078,07; 1420,438;  246,540; 1739,719;78,61738
1078,61; 1407,977;  248,310; 1702,181;79,76410
1079,15; 1377,131;  233,540; 1692,488;78,38458
1079,69; 1379,592;  241,925; 1681,335;79,03708
1080,23; 1395,515;  266,848; 1681,412;79,78909
1080,77; 1413,592;  297,079; 1717,104;78,62632
1081,31; 1313,285;  239,925; 1636,565;76,85297
1081,85; 1347,746;  259,387; 1622,642;79,83532
1082,39; 1296,054;  234,233; 1573,027;79,31175
1082,93; 1302,515;  264,925; 1595,565;77,97677
1083,47; 1242,362;  226,540; 1525,488;78,20337
1084,01; 1264,900;  239,079; 1553,412;78,04882
1084,55; 1210,977;  234,617; 1512,642;76,39597
1085,09; 1243,823;  253,156; 1508,642;78,90704
1085,63; 1209,438;  248,387; 1479,258;78,07900
1086,17; 1191,208;  235,694; 1460,258;78,02891
1086,71; 1168,977;  225,925; 1436,565;77,89695
1087,24; 1202,977;  255,848; 1447,335;79,49136
1087,78; 1189,823;  265,310; 1439,258;78,75250
1088,32; 1128,054;  222,848; 1381,181;78,14730
1088,86; 1147,131;  261,463; 1399,181;77,84599
1089,40; 1122,362;  240,694; 1374,181;77,78366
1089,94; 1073,515;  218,079; 1325,258;77,26272
1090,48; 1100,900;  254,463; 1340,027;77,97209
1091,02; 1088,900;  256,925; 1335,565;77,13182
1091,56; 1071,054;  242,079; 1302,873;78,14664
1092,10; 1042,362;  221,540; 1267,565;78,47051
1092,63; 1073,900;  262,387; 1282,950;79,51622
1093,17; 1054,823;  264,694; 1276,796;78,06811
1093,71; 1017,208;  229,079; 1222,642;79,32345
1094,25; 1021,746;  274,156; 1260,565;75,78904
1094,79;  994,669;  234,156; 1223,796;76,84746
1095,33;  988,208;  251,694; 1210,565;76,81047
1095,87;  982,900;  246,463; 1197,488;77,43609
1096,40;  950,208;  226,540; 1154,335;77,99869
1096,94;  963,054;  245,310; 1165,950;77,96141
1097,48;  955,823;  256,617; 1172,027;76,38174
1098,02;  925,515;  233,002; 1120,719;78,01058
1098,56;  890,438;  211,156; 1089,796;77,31066
1099,10;  889,131;  224,002; 1093,181;76,52382
1099,63;  875,592;  213,387; 1062,104;78,02430
1100,17;  904,515;  250,540; 1095,258;77,41939
1100,71;  917,285;  271,848; 1098,796;78,05043

