
Integration time [ms]: 120,000
Averaging Nr. [scans]: 13
Smoothing Nr. [pixels]: 0
Data measured with spectrometer [name]: 2009305U1
Wave   ;Sample   ;Dark     ;Reference;Reflectance
[nm]   ;[counts] ;[counts] ;[counts] ;[%]

 175,72;  200,871;  202,673;  202,814; 0,00000
 176,32;  225,934;  225,431;  219,229; 0,00000
 176,92;  254,800;  241,593;  259,926;72,04219
 177,52;  256,452;  251,671;  258,560;69,40524
 178,12;  237,143;  228,123;  221,690; 0,00000
 178,72;  264,501;  262,428;  250,906; 0,00000
 179,32;  261,384;  256,969;  246,180; 0,00000
 179,92;  250,872;  244,743;  247,528;220,09252
 180,52;  246,609;  240,295;  251,040;58,76830
 181,12;  258,882;  250,513;  250,351; 0,00000
 181,73;  279,721;  264,591;  277,112;120,84068
 182,33;  341,912;  344,982;  351,462;-47,38371
 182,93;  268,173;  260,594;  266,980;118,69322
 183,53;  231,753;  240,272;  226,189; 0,00000
 184,13;  242,850;  234,428;  232,913; 0,00000
 184,73;  278,320;  272,348;  270,276; 0,00000
 185,33;  258,481;  227,895;  345,845;25,93096
 185,93;  254,927;  241,810;  363,162;10,80890
 186,53;  283,019;  245,969;  383,769;26,88703
 187,13;  300,688;  274,977;  418,310;17,93779
 187,73;  262,507;  236,042;  378,887;18,52661
 188,33;  272,674;  240,114;  373,931;24,33158
 188,93;  274,326;  258,330;  373,870;13,84455
 189,53;  272,948;  257,396;  374,368;13,29515
 190,13;  320,991;  277,224;  424,265;29,76536
 190,73;  250,346;  216,698;  365,464;22,61818
 191,34;  286,590;  258,249;  403,767;19,47605
 191,94;  270,965;  218,263;  371,997;34,28078
 192,54;  278,891;  243,523;  387,787;24,51640
 193,14;  272,051;  247,900;  396,592;16,24256
 193,74;  290,274;  257,129;  400,532;23,11358
 194,34;  286,652;  240,671;  386,728;31,48186
 194,94;  244,695;  220,361;  356,781;17,83776
 195,54;  230,217;  204,742;  327,334;20,77996
 196,14;  250,306;  227,827;  378,689;14,90079
 196,74;  253,154;  222,971;  359,044;22,18145
 197,34;  226,403;  197,063;  371,027;16,86562
 197,94;  257,145;  228,132;  384,373;18,56963
 198,54;  258,371;  235,596;  395,794;14,21702
 199,14;  247,228;  219,374;  388,308;16,48825
 199,74;  223,045;  202,220;  401,273;10,46222
 200,34;  230,920;  196,990;  393,795;17,24050
 200,94;  262,225;  228,446;  426,289;17,07361
 201,54;  245,245;  204,218;  443,961;17,11262
 202,14;  273,245;  229,608;  481,986;17,29039
 202,74;  257,067;  219,912;  475,274;14,54997
 203,34;  238,287;  188,920;  492,839;16,24346
 203,94;  219,563;  167,224;  499,348;15,75869
 204,54;  288,042;  245,363;  589,973;12,38464
 205,14;  244,908;  199,220;  600,798;11,37724
 205,74;  295,344;  236,688;  696,371;12,76006
 206,34;  263,262;  209,069;  707,819;10,86570
 206,94;  275,570;  215,837;  774,562;10,69080
 207,54;  260,437;  180,146;  806,666;12,81549
 208,14;  274,224;  214,378;  884,062; 8,93643
 208,74;  282,314;  211,373;  951,337; 9,58713
 209,34;  281,396;  194,759; 1045,915;10,17880
 209,94;  292,211;  216,528; 1149,937; 8,10828
 210,54;  303,236;  213,302; 1239,675; 8,76228
 211,14;  317,192;  218,374; 1375,700; 8,53851
 211,73;  327,194;  201,448; 1478,977; 9,84289
 212,33;  359,331;  217,908; 1586,632;10,33249
 212,93;  336,526;  205,834; 1714,331; 8,66370
 213,53;  317,824;  178,220; 1776,071; 8,73702
 214,13;  358,934;  200,076; 1832,252; 9,73285
 214,73;  354,399;  190,377; 1872,755; 9,74940
 215,33;  318,442;  173,143; 1893,014; 8,44824
 215,93;  367,916;  201,842; 2020,959; 9,12939
 216,53;  342,649;  158,603; 2108,122; 9,44055
 217,13;  420,964;  216,302; 2311,821; 9,76664
 217,73;  421,089;  194,611; 2514,042; 9,76438
 218,33;  402,862;  147,770; 2710,446; 9,95412
 218,93;  472,382;  176,163; 3006,310;10,46655
 219,53;  528,910;  183,770; 3305,411;11,05636
 220,13;  512,463;  156,541; 3596,351;10,34713
 220,73;  598,615;  191,836; 3941,482;10,84847
 221,32;  653,084;  182,912; 4363,260;11,24720
 221,92;  698,306;  190,848; 4775,100;11,06960
 222,52;  751,452;  174,227; 5205,811;11,47204
 223,12;  799,520;  171,612; 5659,397;11,44191
 223,72;  876,337;  195,843; 6067,054;11,59035
 224,32;  925,505;  201,998; 6450,584;11,57874
 224,92;  976,251;  183,767; 6756,102;12,05787
 225,52; 1031,464;  200,684; 7072,450;12,08976
 226,12; 1044,981;  193,225; 7427,116;11,77452
 226,72; 1089,185;  164,840; 7739,306;12,20344
 227,31; 1149,777;  160,994; 8128,208;12,41065
 227,91; 1211,904;  178,452; 8522,116;12,38606
 228,51; 1273,081;  181,909; 8913,420;12,49695
 229,11; 1340,745;  182,301; 9324,768;12,67102
 229,71; 1365,223;  175,219; 9553,884;12,68842
 230,31; 1409,573;  170,000;10006,581;12,60167
 230,91; 1460,453;  162,060;10330,474;12,76889
 231,51; 1519,758;  162,304;10694,483;12,88863
 232,10; 1602,501;  171,616;11055,467;13,14686
 232,70; 1632,268;  189,671;11322,958;12,95751
 233,30; 1680,541;  200,534;11530,911;13,06230
 233,90; 1709,748;  179,764;11686,583;13,29632
 234,50; 1749,053;  181,534;11918,588;13,35530
 235,10; 1765,943;  166,536;11994,333;13,52244
 235,70; 1809,920;  187,221;12088,487;13,63468
 236,29; 1841,360;  187,988;12111,897;13,86602
 236,89; 1789,172;  166,599;12029,823;13,67734
 237,49; 1813,431;  197,687;11971,528;13,72317
 238,09; 1772,647;  176,993;11716,511;13,82774
 238,69; 1800,047;  218,442;11547,115;13,96108
 239,29; 1715,406;  172,223;11220,918;13,96711
 239,89; 1702,119;  193,907;10971,228;13,99432
 240,48; 1646,469;  176,531;10591,259;14,11403
 241,08; 1581,776;  175,145;10224,619;13,99706
 241,68; 1549,678;  196,993; 9925,720;13,90403
 242,28; 1489,409;  168,918; 9604,373;13,99499
 242,88; 1482,135;  214,538; 9311,832;13,93378
 243,48; 1447,075;  207,533; 8999,871;14,09798
 244,07; 1373,572;  190,298; 8722,403;13,86849
 244,67; 1362,089;  200,070; 8626,684;13,78987
 245,27; 1320,271;  198,602; 8464,284;13,57019
 245,87; 1309,664;  202,768; 8392,547;13,51558
 246,47; 1278,987;  190,295; 8414,382;13,23785
 247,06; 1276,702;  179,146; 8363,177;13,41095
 247,66; 1284,353;  176,685; 8450,657;13,38738
 248,26; 1305,524;  217,295; 8599,618;12,98242
 248,86; 1302,622;  200,757; 8748,312;12,89100
 249,46; 1286,786;  157,457; 8985,134;12,79305
 250,05; 1369,757;  203,377; 9328,022;12,78275
 250,65; 1394,954;  168,832; 9752,153;12,79433
 251,25; 1441,461;  174,760;10184,430;12,65478
 251,85; 1510,314;  191,137;10734,774;12,51159
 252,44; 1541,367;  155,835;11399,855;12,32240
 253,04; 1677,384;  197,451;12181,097;12,34961
 253,64; 1723,317;  155,678;12806,281;12,39181
 254,24; 1891,401;  195,146;13819,981;12,44973
 254,84; 2004,786;  170,996;14760,980;12,56883
 255,43; 2124,937;  175,527;15673,602;12,57840
 256,03; 2242,076;  178,063;16632,867;12,54353
 256,63; 2399,610;  183,214;17740,187;12,62402
 257,23; 2513,410;  177,907;18504,473;12,74381
 257,82; 2649,013;  190,672;19507,424;12,72647
 258,42; 2753,092;  145,747;20302,163;12,93556
 259,02; 2908,786;  190,682;21198,699;12,93841
 259,62; 3045,731;  173,669;21930,235;13,20090
 260,21; 3134,687;  179,989;22397,750;13,29881
 260,81; 3233,269;  187,994;22933,955;13,38820
 261,41; 3292,258;  162,594;23400,776;13,46776
 262,01; 3401,161;  205,975;23824,308;13,52842
 262,60; 3467,256;  158,984;24167,088;13,77982
 263,20; 3531,442;  164,756;24460,117;13,85732
 263,80; 3590,871;  201,359;24601,526;13,89134
 264,40; 3616,940;  163,976;24723,670;14,05948
 264,99; 3684,572;  187,974;24932,785;14,13063
 265,59; 3732,067;  179,353;25036,733;14,29239
 266,19; 3774,380;  165,821;25188,490;14,42116
 266,78; 3871,147;  212,895;25312,266;14,57507
 267,38; 3890,351;  186,739;25277,200;14,76104
 267,98; 3886,320;  172,049;25385,041;14,73157
 268,58; 3979,250;  188,354;25331,948;15,07698
 269,17; 3986,117;  171,427;25344,257;15,15400
 269,77; 3969,970;  191,520;25145,525;15,14166
 270,37; 3939,820;  163,205;25022,926;15,19170
 270,96; 3996,693;  215,441;24936,068;15,29594
 271,56; 3939,586;  174,753;24681,858;15,36221
 272,16; 3951,203;  178,979;24415,776;15,56404
 272,75; 3935,926;  177,210;24341,755;15,55468
 273,35; 3956,542;  187,057;24250,780;15,66459
 273,95; 3969,513;  186,287;24241,027;15,72757
 274,54; 4010,620;  175,300;24275,778;15,91388
 275,14; 4076,780;  200,519;24642,891;15,85878
 275,74; 4073,239;  153,825;24701,154;15,96676
 276,33; 4199,088;  213,136;25015,994;16,07054
 276,93; 4257,750;  195,455;25489,552;16,06025
 277,53; 4351,254;  185,065;26006,631;16,13453
 278,12; 4481,153;  172,215;26618,996;16,29286
 278,72; 4673,252;  216,219;27075,304;16,59414
 279,32; 4756,557;  186,064;27665,976;16,63212
 279,91; 4936,581;  164,832;28374,510;16,91529
 280,51; 5063,031;  172,373;28907,973;17,01951
 281,11; 5253,711;  183,525;29638,489;17,21335
 281,70; 5380,826;  165,370;30074,476;17,43769
 282,30; 5532,586;  181,214;30776,550;17,49081
 282,90; 5636,934;  178,752;31071,250;17,66831
 283,49; 5812,436;  191,519;31703,206;17,83756
 284,09; 6044,014;  213,908;32174,372;18,24162
 284,69; 6151,858;  201,602;32551,480;18,39344
 285,28; 6290,581;  201,523;32877,715;18,63454
 285,88; 6444,936;  235,209;33144,707;18,86910
 286,47; 6524,348;  184,368;33220,054;19,19131
 287,07; 6720,201;  209,679;33248,088;19,70592
 287,67; 6911,459;  204,456;33355,794;20,23147
 288,26; 7038,898;  172,448;33241,410;20,76403
 288,86; 7207,127;  179,754;33428,826;21,13554
 289,46; 7471,754;  192,063;33471,747;21,87428
 290,05; 7673,721;  174,837;33601,850;22,43360
 290,65; 7885,309;  180,521;33802,888;22,91566
 291,24; 8237,985;  188,988;33879,003;23,89134
 291,84; 8491,225;  206,368;34112,571;24,43463
 292,44; 8759,344;  191,072;34235,115;25,16820
 293,03; 9048,358;  241,449;34378,031;25,79903
 293,63; 9234,525;  179,598;34411,921;26,45139
 294,22; 9537,107;  205,832;34641,153;27,09798
 294,82; 9670,102;  186,438;34577,243;27,57616
 295,41; 9758,980;  169,832;34333,169;28,06854
 296,01; 9903,820;  219,286;34338,309;28,38456
 296,61; 9946,002;  198,218;34063,374;28,78411
 297,20; 9900,515;  189,978;33632,022;29,03691
 297,80; 9956,147;  203,223;33573,652;29,22625
 298,39; 9887,314;  174,983;33088,159;29,50894
 298,99; 9930,563;  220,749;32950,935;29,66624
 299,58; 9886,810;  203,609;32750,873;29,75120
 300,18; 9878,906;  204,683;32613,290;29,85078
 300,78; 9779,807;  186,527;32260,315;29,91003
 301,37; 9821,450;  187,512;32215,892;30,07938
 301,97; 9790,884;  196,140;32287,880;29,89786
 302,56; 9729,754;  183,983;32152,209;29,86018
 303,16; 9750,919;  173,212;32088,694;30,00960
 303,75; 9745,983;  183,605;32134,495;29,92836
 304,35; 9761,229;  179,766;32333,153;29,79923
 304,94; 9769,276;  186,064;32333,222;29,81045
 305,54; 9761,391;  204,604;32260,260;29,81311
 306,13; 9739,260;  168,074;32186,516;29,89273
 306,73; 9626,462;  162,995;32020,506;29,70561
 307,33; 9619,031;  202,378;31912,690;29,69587
 307,92; 9567,612;  194,757;32025,129;29,44626
 308,52; 9640,427;  158,596;32481,024;29,33514
 309,11; 9792,268;  179,977;32994,471;29,29282
 309,71; 9796,404;  160,590;33237,434;29,13160
 310,30; 9893,735;  174,218;33455,381;29,20426
 310,90; 9983,658;  210,295;33790,920;29,10417
 311,49; 9960,680;  182,833;33948,536;28,95792
 312,09; 9930,546;  159,914;34164,542;28,73324
 312,68;10082,440;  230,450;34592,532;28,67111
 313,28;10000,612;  166,988;34646,206;28,52044
 313,87; 9996,716;  156,910;34788,836;28,41253
 314,47;10011,143;  172,902;35029,917;28,22457
 315,06; 9951,519;  163,065;35299,219;27,85864
 315,66; 9935,238;  164,914;35459,619;27,68212
 316,25; 9841,206;  156,982;35359,386;27,51012
 316,85; 9822,606;  158,914;35417,171;27,40831
 317,44; 9778,619;  178,747;35551,114;27,13947
 318,04; 9761,650;  157,214;35579,271;27,11428
 318,63; 9629,474;  155,072;35726,555;26,63482
 319,22; 9614,787;  181,905;35905,413;26,40525
 319,82; 9481,432;  167,754;35877,499;26,08161
 320,41; 9452,896;  187,829;35789,622;26,02416
 321,01; 9372,365;  194,144;35985,116;25,64396
 321,60; 9330,670;  183,216;36034,226;25,51519
 322,20; 9157,235;  171,834;36012,471;25,07043
 322,79; 9196,608;  204,065;36081,114;25,06489
 323,39; 9058,883;  165,535;36264,448;24,63605
 323,98; 8953,622;  162,373;36174,645;24,41181
 324,58; 8859,823;  169,212;36082,534;24,19885
 325,17; 8751,763;  180,674;35980,084;23,94198
 325,76; 8701,874;  196,525;35776,620;23,90480
 326,36; 8470,406;  163,298;35371,970;23,59393
 326,95; 8386,393;  198,754;35069,435;23,48001
 327,55; 8179,744;  161,138;34641,898;23,25531
 328,14; 7993,841;  174,762;34387,672;22,85418
 328,74; 7844,859;  192,213;33867,091;22,72509
 329,33; 7675,103;  190,298;33500,292;22,47015
 329,92; 7459,121;  162,978;33018,813;22,20654
 330,52; 7309,269;  185,147;32312,238;22,17481
 331,11; 7089,220;  168,446;31877,121;21,82612
 331,71; 6928,812;  182,371;31285,125;21,69082
 332,30; 6757,199;  205,371;30798,837;21,41577
 332,89; 6605,586;  233,836;30230,908;21,24124
 333,49; 6390,559;  194,370;29681,099;21,01349
 334,08; 6218,271;  181,061;29290,311;20,73983
 334,68; 6116,999;  180,908;28844,380;20,70960
 335,27; 5957,019;  199,148;28509,180;20,33863
 335,86; 5889,913;  240,446;28279,505;20,14856
 336,46; 5749,411;  197,917;27999,599;19,96820
 337,05; 5625,889;  182,908;27786,484;19,71839
 337,65; 5567,319;  165,677;27644,737;19,65730
 338,24; 5579,048;  223,681;27624,652;19,54444
 338,83; 5465,735;  197,758;27574,945;19,24222
 339,43; 5415,367;  171,674;27464,343;19,21282
 340,02; 5331,405;  179,828;27356,946;18,95557
 340,61; 5331,353;  174,680;27473,017;18,89006
 341,21; 5310,398;  205,367;27452,091;18,73631
 341,80; 5265,862;  178,753;27378,828;18,70255
 342,40; 5230,649;  184,455;27491,454;18,47949
 342,99; 5178,509;  182,451;27617,523;18,21048
 343,58; 5217,642;  183,298;27786,907;18,23799
 344,18; 5230,029;  195,298;27881,312;18,18510
 344,77; 5215,138;  176,058;28227,568;17,96367
 345,36; 5235,086;  168,447;28489,512;17,89000
 345,96; 5318,666;  195,298;28794,851;17,91415
 346,55; 5271,121;  166,843;29047,867;17,67347
 347,14; 5337,301;  165,455;29447,062;17,66244
 347,74; 5364,133;  151,771;29812,017;17,57356
 348,33; 5472,958;  171,462;30503,914;17,47797
 348,92; 5568,372;  191,928;31151,410;17,36607
 349,52; 5600,405;  155,541;31617,050;17,30643
 350,11; 5665,982;  183,519;31846,779;17,31490
 350,70; 5619,317;  180,680;31873,408;17,16052
 351,29; 5567,815;  155,818;31621,476;17,19969
 351,89; 5584,871;  185,362;31699,576;17,13357
 352,48; 5573,127;  158,680;31723,262;17,15355
 353,07; 5528,245;  175,148;31659,396;17,00246
 353,67; 5489,694;  186,851;31579,556;16,89196
 354,26; 5450,774;  189,455;31300,726;16,91130
 354,85; 5427,565;  179,607;31184,856;16,92603
 355,45; 5372,143;  158,753;31068,172;16,86667
 356,04; 5372,479;  171,610;30902,801;16,92375
 356,63; 5344,016;  197,062;30688,623;16,87993
 357,22; 5318,784;  185,820;30543,010;16,90856
 357,82; 5233,491;  191,976;30352,412;16,71566
 358,41; 5272,778;  202,294;30250,845;16,87430
 359,00; 5214,225;  168,982;29995,238;16,91544
 359,60; 5217,420;  188,065;30018,757;16,85967
 360,19; 5168,145;  182,611;29786,862;16,84060
 360,78; 5154,679;  194,523;29616,870;16,85847
 361,37; 5175,035;  178,985;29418,142;17,08685
 361,97; 5153,249;  196,986;29340,258;17,00654
 362,56; 5076,460;  175,365;29036,458;16,98167
 363,15; 5091,802;  220,907;28797,122;17,04528
 363,74; 5023,895;  188,056;28358,776;17,16619
 364,34; 4973,472;  197,905;28033,378;17,15641
 364,93; 4902,895;  172,211;27588,802;17,25482
 365,52; 4833,528;  153,908;27112,428;17,35859
 366,11; 4798,929;  173,982;26848,518;17,33843
 366,71; 4733,864;  170,598;26452,336;17,36288
 367,30; 4697,600;  172,370;26109,029;17,44724
 367,89; 4691,351;  227,607;25897,457;17,38905
 368,48; 4688,453;  186,594;25524,475;17,76730
 369,07; 4600,471;  179,603;25048,562;17,77665
 369,67; 4575,900;  197,980;24801,124;17,79415
 370,26; 4512,644;  178,219;24544,953;17,78829
 370,85; 4499,362;  183,216;24214,610;17,96045
 371,44; 4490,716;  179,601;23966,503;18,12390
 372,03; 4455,331;  168,751;23732,350;18,19153
 372,63; 4395,992;  156,293;23380,987;18,25513
 373,22; 4371,646;  176,834;23073,486;18,32064
 373,81; 4335,273;  157,139;22784,407;18,46504
 374,40; 4351,161;  177,916;22525,182;18,67452
 374,99; 4346,742;  172,445;22297,340;18,86697
 375,59; 4255,774;  164,453;22014,855;18,72424
 376,18; 4297,158;  194,753;21910,702;18,89120
 376,77; 4295,245;  189,140;21655,398;19,12818
 377,36; 4335,634;  198,292;21627,694;19,30684
 377,95; 4286,191;  193,213;21311,650;19,38106
 378,55; 4272,827;  166,683;21149,809;19,56879
 379,14; 4328,699;  196,908;21141,953;19,72682
 379,73; 4281,364;  184,137;20977,656;19,70435
 380,32; 4347,877;  192,832;20964,307;20,00361
 380,91; 4335,124;  164,133;20836,090;20,17705
 381,50; 4407,354;  190,981;20822,730;20,43634
 382,10; 4333,031;  169,601;20675,846;20,30323
 382,69; 4408,509;  156,908;20648,499;20,74803
 383,28; 4414,879;  201,674;20597,764;20,65692
 383,87; 4400,701;  171,981;20438,512;20,86553
 384,46; 4412,984;  168,284;20395,775;20,98481
 385,05; 4480,342;  201,058;20345,605;21,24289
 385,64; 4515,468;  173,290;20372,133;21,49716
 386,24; 4517,426;  160,207;20337,384;21,59479
 386,83; 4588,582;  204,283;20341,147;21,77250
 387,42; 4644,487;  197,982;20443,755;21,96263
 388,01; 4687,365;  187,663;20722,576;21,91245
 388,60; 4809,828;  185,669;20944,242;22,27590
 389,19; 4870,165;  171,195;21150,735;22,39787
 389,78; 4971,444;  177,043;21370,802;22,62176
 390,37; 5183,438;  234,666;21847,997;22,89685
 390,96; 5188,880;  180,052;22023,426;22,93065
 391,56; 5237,090;  184,039;22139,320;23,01520
 392,15; 5385,550;  169,582;22411,555;23,45101
 392,74; 5447,892;  150,800;22583,063;23,61372
 393,33; 5545,222;  174,192;22846,524;23,68980
 393,92; 5685,885;  192,027;23328,953;23,74498
 394,51; 5751,523;  174,577;23483,413;23,92632
 395,10; 5869,775;  210,938;23741,130;24,04926
 395,69; 5960,097;  191,709;23890,302;24,34064
 396,28; 6024,428;  189,164;24005,657;24,50094
 396,87; 6054,939;  197,000;24049,721;24,55879
 397,46; 6198,556;  196,915;24168,127;25,03687
 398,06; 6264,081;  211,983;24401,439;25,01957
 398,65; 6342,651;  191,424;24435,851;25,37172
 399,24; 6379,307;  197,112;24662,782;25,26886
 399,83; 6467,346;  175,619;24707,790;25,64684
 400,42; 6520,983;  214,283;24793,714;25,65845
 401,01; 6583,385;  189,019;24914,542;25,86140
 401,60; 6639,834;  199,975;24900,798;26,07144
 402,19; 6708,515;  220,863;24849,078;26,34236
 402,78; 6717,509;  222,501;24901,088;26,31839
 403,37; 6724,179;  204,834;24741,548;26,56975
 403,96; 6729,251;  203,697;24609,990;26,73718
 404,55; 6755,296;  211,322;24417,879;27,03389
 405,14; 6711,549;  194,415;24293,260;27,04334
 405,73; 6774,278;  207,883;24275,116;27,28355
 406,32; 6830,319;  205,219;24131,352;27,68980
 406,91; 6783,531;  198,856;23904,980;27,77626
 407,50; 6781,374;  207,674;23733,268;27,94276
 408,09; 6763,528;  183,730;23420,189;28,31670
 408,68; 6761,117;  192,793;23255,197;28,48066
 409,27; 6713,151;  185,273;23146,454;28,43006
 409,86; 6768,774;  197,701;22960,388;28,86774
 410,45; 6835,631;  238,122;22919,365;29,08795
 411,04; 6799,061;  238,082;22843,339;29,02413
 411,63; 6767,857;  211,592;22600,535;29,28350
 412,22; 6686,141;  218,021;22288,056;29,30725
 412,81; 6668,646;  223,652;22056,752;29,51937
 413,40; 6641,355;  235,979;21728,740;29,80248
 413,99; 6542,758;  260,589;21397,851;29,72083
 414,58; 6439,410;  202,285;21003,304;29,98471
 415,17; 6453,232;  218,036;20759,640;30,35399
 415,76; 6401,891;  210,789;20711,639;30,19925
 416,35; 6339,950;  191,259;20454,580;30,34394
 416,94; 6414,791;  230,023;20514,156;30,49067
 417,53; 6517,321;  201,576;20800,791;30,66012
 418,12; 6564,127;  201,580;20827,937;30,84668
 418,71; 6713,600;  220,980;21186,040;30,96876
 419,30; 6812,827;  211,736;21228,228;31,40910
 419,89; 6868,950;  194,893;21434,172;31,42318
 420,48; 6994,429;  237,442;21733,900;31,43303
 421,07; 7039,516;  215,368;21822,005;31,58357
 421,66; 7134,962;  188,454;21846,735;32,07322
 422,25; 7115,711;  208,395;21852,910;31,91255
 422,84; 7125,871;  225,783;21737,539;32,07589
 423,43; 7079,314;  215,391;21508,323;32,23569
 424,02; 7068,709;  233,317;21253,813;32,51775
 424,60; 6893,091;  215,646;20826,513;32,39769
 425,19; 6867,958;  213,481;20615,233;32,61718
 425,78; 6878,064;  234,251;20400,833;32,94466
 426,37; 6825,235;  238,797;20253,664;32,90773
 426,96; 6837,514;  222,105;20170,398;33,16278
 427,55; 6807,948;  211,732;20039,514;33,26754
 428,14; 6749,191;  203,353;19811,972;33,38246
 428,73; 6717,577;  204,266;19667,866;33,46406
 429,32; 6751,810;  222,719;19620,862;33,65833
 429,91; 6774,361;  242,190;19615,704;33,71702
 430,50; 6762,254;  231,888;19457,006;33,96788
 431,08; 6654,199;  221,587;19289,596;33,73510
 431,67; 6705,805;  259,438;19255,284;33,93567
 432,26; 6663,534;  261,905;19013,763;34,13864
 432,85; 6553,722;  275,980;18644,633;34,17638
 433,44; 6430,345;  279,142;18309,281;34,11623
 434,03; 6361,041;  303,076;17873,504;34,47819
 434,62; 6207,449;  254,220;17499,553;34,52081
 435,21; 6172,010;  270,981;17245,806;34,76342
 435,79; 6079,916;  249,226;17166,079;34,46675
 436,38; 6092,066;  252,083;16985,729;34,89965
 436,97; 6082,972;  247,930;16873,153;35,09753
 437,56; 5997,710;  255,023;16748,946;34,81698
 438,15; 5964,560;  235,558;16658,115;34,88496
 438,74; 6034,887;  265,790;16633,993;35,24576
 439,33; 6063,327;  241,711;16658,018;35,46240
 439,91; 6036,994;  221,026;16713,130;35,26517
 440,50; 6115,441;  271,565;16805,548;35,34464
 441,09; 6125,033;  262,189;16895,628;35,24734
 441,68; 6117,657;  241,660;16963,225;35,14023
 442,27; 6151,875;  233,887;16851,869;35,61196
 442,86; 6146,277;  203,599;16819,088;35,76589
 443,44; 6176,920;  227,595;16931,893;35,61554
 444,03; 6253,935;  271,446;16995,269;35,77226
 444,62; 6150,923;  226,600;16879,912;35,57445
 445,21; 6156,894;  245,366;16666,519;35,99947
 445,80; 6122,845;  265,147;16604,455;35,85035
 446,39; 6039,665;  268,760;16364,850;35,85283
 446,97; 5932,498;  227,772;16116,035;35,90528
 447,56; 5834,316;  218,705;15890,562;35,83246
 448,15; 5810,899;  228,618;15759,022;35,94421
 448,74; 5725,863;  257,389;15456,208;35,97960
 449,33; 5676,888;  235,088;15347,125;36,00971
 449,91; 5631,252;  238,175;15103,327;36,28000
 450,50; 5523,603;  230,558;14860,535;36,17945
 451,09; 5525,680;  234,097;14801,560;36,32467
 451,68; 5489,298;  259,410;14724,733;36,15466
 452,26; 5463,320;  251,953;14609,451;36,29719
 452,85; 5367,928;  230,104;14421,058;36,20493
 453,44; 5416,877;  243,810;14491,666;36,30769
 454,03; 5383,619;  217,417;14426,473;36,35852
 454,61; 5388,870;  230,811;14415,041;36,36474
 455,20; 5470,532;  245,893;14580,549;36,44760
 455,79; 5483,983;  254,961;14556,496;36,56266
 456,38; 5477,314;  252,439;14684,904;36,20223
 456,97; 5487,835;  237,283;14765,098;36,14138
 457,55; 5538,651;  240,597;14742,400;36,53376
 458,14; 5524,347;  249,512;14730,724;36,42537
 458,73; 5497,259;  247,136;14630,007;36,50261
 459,31; 5560,702;  265,453;14709,332;36,66085
 459,90; 5554,053;  278,294;14787,950;36,36033
 460,49; 5633,939;  316,676;14902,291;36,45553
 461,08; 5611,297;  239,457;14907,869;36,62182
 461,66; 5611,967;  248,298;15049,536;36,23797
 462,25; 5668,540;  251,999;15121,148;36,42805
 462,84; 5720,982;  277,304;15109,398;36,70202
 463,43; 5627,721;  215,394;15085,289;36,39789
 464,01; 5665,126;  248,782;15117,756;36,42715
 464,60; 5661,735;  291,775;15077,974;36,31738
 465,19; 5579,575;  228,247;14843,912;36,61365
 465,77; 5527,521;  248,251;14804,322;36,26850
 466,36; 5499,118;  262,163;14688,107;36,30234
 466,95; 5392,531;  245,856;14414,014;36,32565
 467,53; 5275,723;  250,795;14096,619;36,29201
 468,12; 5193,812;  284,642;13785,386;36,36222
 468,71; 5071,515;  249,478;13594,462;36,13370
 469,29; 4965,711;  227,721;13304,237;36,23282
 469,88; 4878,327;  237,801;13053,236;36,21044
 470,47; 4936,951;  300,502;13186,269;35,98116
 471,06; 4892,237;  263,195;13153,729;35,91040
 471,64; 4943,463;  248,577;13220,818;36,19179
 472,23; 4929,669;  221,439;13272,338;36,07590
 472,81; 4925,000;  220,431;13340,822;35,85692
 473,40; 5034,919;  234,747;13485,729;36,22503
 473,99; 5123,174;  335,209;13697,135;35,83290
 474,57; 5115,248;  245,516;13793,499;35,94433
 475,16; 5184,351;  253,433;13941,336;36,02391
 475,75; 5228,756;  273,676;14125,956;35,77086
 476,33; 5274,372;  271,682;14198,006;35,92255
 476,92; 5256,121;  275,979;14259,027;35,61557
 477,51; 5275,660;  265,064;14328,410;35,62876
 478,09; 5300,785;  257,910;14312,913;35,87957
 478,68; 5226,850;  273,913;14221,761;35,51041
 479,27; 5277,722;  287,599;14305,290;35,59875
 479,85; 5211,730;  257,605;14283,426;35,32146
 480,44; 5259,899;  254,839;14418,392;35,33760
 481,02; 5789,174;  255,537;15815,136;35,56413
 481,61; 6481,979;  283,919;17873,001;35,23811
 482,20; 6943,003;  255,691;19099,150;35,48877
 482,78; 7253,154;  299,453;19992,311;35,31077
 483,37; 7439,410;  278,699;20533,405;35,35332
 483,95; 7577,223;  304,393;20791,766;35,49908
 484,54; 7611,678;  317,687;21021,241;35,23062
 485,13; 7591,570;  274,631;20883,675;35,50353
 485,71; 7452,658;  255,552;20621,442;35,33902
 486,30; 7387,553;  284,013;20314,022;35,46448
 486,88; 7299,579;  322,246;19987,396;35,48070
 487,47; 6997,683;  301,556;19228,616;35,37859
 488,05; 6648,710;  276,713;18322,323;35,31051
 488,64; 6171,735;  297,104;17030,624;35,10696
 489,23; 5538,073;  304,637;15145,886;35,26277
 489,81; 4732,431;  299,947;12970,050;34,98381
 490,40; 4461,686;  248,179;12323,096;34,89471
 490,98; 4338,374;  239,182;12008,747;34,82875
 491,57; 4338,722;  273,023;11980,192;34,72829
 492,15; 4284,480;  253,952;11882,885;34,65948
 492,74; 4257,890;  260,944;11757,133;34,76758
 493,32; 4215,360;  277,412;11662,063;34,58997
 493,91; 4135,839;  263,340;11601,767;34,15375
 494,50; 4141,354;  262,198;11572,590;34,29728
 495,08; 4070,186;  241,813;11485,521;34,04903
 495,67; 4097,692;  272,570;11503,391;34,05915
 496,25; 4054,959;  224,038;11384,741;34,32509
 496,84; 4024,689;  231,646;11343,679;34,13456
 497,42; 4013,414;  221,502;11293,373;34,24816
 498,01; 3985,980;  249,648;11233,564;34,01640
 498,59; 3957,638;  227,811;11193,057;34,01499
 499,18; 3920,517;  225,572;11124,262;33,90265
 499,76; 3910,481;  260,115;11101,294;33,67130
 500,35; 3818,155;  245,432;10862,542;33,65062
 500,93; 3802,513;  241,963;10813,297;33,68117
 501,52; 3773,424;  238,734;10757,351;33,60413
 502,10; 3797,088;  261,129;10747,595;33,71927
 502,69; 3701,675;  242,363;10559,944;33,52833
 503,27; 3627,025;  227,429;10349,820;33,58491
 503,86; 3613,928;  233,977;10292,458;33,60299
 504,44; 3536,005;  224,981;10143,073;33,38368
 505,03; 3486,863;  207,673; 9910,660;33,79568
 505,61; 3425,524;  228,441; 9867,810;33,16693
 506,19; 3390,063;  250,134; 9720,605;33,15493
 506,78; 3283,020;  215,912; 9514,755;32,98376
 507,36; 3265,594;  224,980; 9341,724;33,35197
 507,95; 3185,074;  231,532; 9195,965;32,94734
 508,53; 3146,564;  226,066; 9043,616;33,12142
 509,12; 3086,138;  230,530; 8892,813;32,96600
 509,70; 3062,509;  257,455; 8769,488;32,95398
 510,29; 3021,375;  247,459; 8619,416;33,13342
 510,87; 2916,924;  229,989; 8412,749;32,83654
 511,46; 2833,388;  219,298; 8211,179;32,70932
 512,04; 2795,800;  224,918; 8099,680;32,64710
 512,62; 2738,821;  237,914; 7993,451;32,24673
 513,21; 2669,892;  213,229; 7789,415;32,42611
 513,79; 2621,722;  220,165; 7669,221;32,23975
 514,38; 2576,607;  209,315; 7499,517;32,47224
 514,96; 2551,981;  244,391; 7433,540;32,09825
 515,54; 2464,220;  212,778; 7283,317;31,84257
 516,13; 2476,035;  226,779; 7157,826;32,45189
 516,71; 2411,196;  215,862; 7056,039;32,09471
 517,30; 2365,384;  208,251; 6931,959;32,08250
 517,88; 2343,276;  234,174; 6882,673;31,72299
 518,46; 2271,690;  213,022; 6747,913;31,50271
 519,05; 2259,897;  225,718; 6659,507;31,61712
 519,63; 2235,616;  224,178; 6659,420;31,25660
 520,22; 2230,251;  243,724; 6564,271;31,42967
 520,80; 2200,634;  227,494; 6466,969;31,62348
 521,38; 2212,344;  257,027; 6436,694;31,64115
 521,97; 2156,071;  218,883; 6429,178;31,19318
 522,55; 2164,266;  235,575; 6443,647;31,06748
 523,13; 2134,848;  216,732; 6398,186;31,03018
 523,72; 2125,197;  224,330; 6381,243;30,87371
 524,30; 2207,664;  239,351; 6545,207;31,21404
 524,89; 2198,531;  207,114; 6567,260;31,31086
 525,47; 2209,080;  238,660; 6665,749;30,65804
 526,05; 2211,368;  213,276; 6727,615;30,67221
 526,64; 2266,450;  229,356; 6855,141;30,74495
 527,22; 2331,173;  232,121; 6943,659;31,27528
 527,80; 2356,383;  269,432; 7065,555;30,70796
 528,39; 2362,143;  226,435; 7190,884;30,66585
 528,97; 2416,804;  226,510; 7359,112;30,70820
 529,55; 2466,411;  234,655; 7559,822;30,46696
 530,14; 2536,934;  257,130; 7734,782;30,48824
 530,72; 2553,390;  221,972; 7856,769;30,53674
 531,30; 2548,701;  217,746; 7992,942;29,97937
 531,89; 2602,831;  229,746; 8072,921;30,25669
 532,47; 2665,278;  256,594; 8217,595;30,25605
 533,05; 2637,873;  264,355; 8219,821;29,83506
 533,63; 2685,218;  252,056; 8273,838;30,33194
 534,22; 2679,254;  224,980; 8342,061;30,23592
 534,80; 2714,553;  241,755; 8435,057;30,18073
 535,38; 2764,888;  314,977; 8489,709;29,96931
 535,97; 2670,350;  234,133; 8436,888;29,69999
 536,55; 2729,870;  271,140; 8468,496;29,99419
 537,13; 2688,941;  265,745; 8446,124;29,62205
 537,71; 2723,097;  285,283; 8475,119;29,76634
 538,30; 2727,483;  305,674; 8570,323;29,30323
 538,88; 2755,760;  318,837; 8599,984;29,42737
 539,46; 2802,824;  344,062; 8806,603;29,05466
 540,05; 2833,183;  345,912; 8897,023;29,08711
 540,63; 2913,267;  386,296; 9111,519;28,96168
 541,21; 2946,917;  393,223; 9243,260;28,85517
 541,79; 2945,200;  411,761; 9345,393;28,35844
 542,38; 3012,570;  420,142; 9496,556;28,56225
 542,96; 3046,891;  444,997; 9640,398;28,29560
 543,54; 3109,239;  449,299; 9854,765;28,28078
 544,12; 3135,974;  405,685; 9999,510;28,45882
 544,70; 3134,573;  405,382;10057,138;28,27663
 545,29; 3209,630;  420,603;10257,492;28,35273
 545,87; 3191,739;  410,915;10329,470;28,03658
 546,45; 3162,308;  392,603;10323,885;27,88870
 547,03; 3195,493;  383,760;10485,760;27,83343
 547,62; 3223,623;  363,839;10602,636;27,93086
 548,20; 3289,443;  382,919;10766,056;27,99274
 548,78; 3287,332;  344,546;10952,908;27,74025
 549,36; 3325,611;  347,391;11183,078;27,48529
 549,94; 3348,926;  320,764;11287,724;27,61169
 550,53; 3416,661;  322,697;11513,627;27,64707
 551,11; 3445,224;  294,548;11726,288;27,56077
 551,69; 3550,514;  322,468;12059,610;27,50283
 552,27; 3598,749;  275,540;12330,394;27,56739
 552,85; 3691,484;  287,163;12753,477;27,30815
 553,44; 3780,531;  288,544;13036,442;27,39265
 554,02; 3886,019;  310,085;13449,201;27,21595
 554,60; 3892,671;  248,318;13720,860;27,05023
 555,18; 4041,817;  287,852;14092,826;27,19284
 555,76; 4133,262;  277,008;14460,557;27,18822
 556,34; 4216,342;  292,169;14913,550;26,83860
 556,93; 4327,014;  277,853;15329,007;26,90266
 557,51; 4384,799;  240,707;15647,690;26,89749
 558,09; 4489,440;  284,853;16070,707;26,63516
 558,67; 4592,088;  280,172;16447,067;26,67127
 559,25; 4643,463;  288,786;16734,988;26,47831
 559,83; 4733,249;  273,791;17033,614;26,60803
 560,41; 4821,833;  265,398;17391,253;26,60559
 561,00; 4888,574;  280,634;17766,934;26,35171
 561,58; 4912,558;  274,782;18011,072;26,14851
 562,16; 5001,183;  268,625;18341,204;26,18640
 562,74; 5055,286;  237,393;18731,886;26,05042
 563,32; 5117,047;  245,867;19154,726;25,76136
 563,90; 5281,561;  267,019;19544,270;26,01275
 564,48; 5342,400;  267,550;20046,724;25,65754
 565,06; 5501,422;  267,326;20579,929;25,76773
 565,65; 5640,796;  272,181;21263,904;25,57491
 566,23; 5859,533;  311,788;22040,081;25,53235
 566,81; 5960,722;  279,324;22783,792;25,24565
 567,39; 6186,954;  277,023;23701,381;25,22985
 567,97; 6326,023;  289,940;24310,168;25,12916
 568,55; 6550,105;  293,252;25197,412;25,12373
 569,13; 6640,066;  270,634;25881,528;24,87001
 569,71; 6886,443;  280,933;26851,239;24,86050
 570,29; 7121,185;  308,160;27888,993;24,70203
 570,87; 7253,656;  303,624;28621,612;24,54282
 571,45; 7416,376;  296,018;29325,907;24,52768
 572,03; 7477,238;  249,486;29702,693;24,53978
 572,61; 7610,968;  242,944;30408,629;24,42518
 573,20; 7780,203;  281,092;31069,696;24,35677
 573,78; 7911,752;  260,329;31782,006;24,27353
 574,36; 7998,845;  279,328;32300,505;24,10754
 574,94; 8065,137;  317,256;32642,774;23,96831
 575,52; 8058,236;  265,725;32846,235;23,91771
 576,10; 8218,370;  308,953;33440,563;23,87272
 576,68; 8309,509;  288,870;33975,623;23,80948
 577,26; 8443,150;  309,574;34699,026;23,65137
 577,84; 8551,463;  315,943;35186,679;23,61728
 578,42; 8586,572;  350,873;35502,631;23,42898
 579,00; 8518,687;  290,252;35667,901;23,25885
 579,58; 8599,658;  329,718;35955,711;23,21322
 580,16; 8551,666;  305,028;35934,796;23,14536
 580,74; 8548,757;  303,875;36128,711;23,01443
 581,32; 8534,615;  300,872;36230,094;22,91656
 581,90; 8488,144;  327,182;36174,629;22,76581
 582,48; 8482,986;  327,798;36293,768;22,67473
 583,06; 8484,127;  317,718;36487,822;22,57779
 583,64; 8439,574;  308,871;36568,753;22,42341
 584,22; 8438,272;  320,649;36441,638;22,47342
 584,80; 8305,490;  320,258;36211,539;22,24839
 585,38; 8236,465;  324,553;35778,495;22,31603
 585,96; 8191,858;  299,253;35838,913;22,20788
 586,54; 8129,657;  319,802;35884,305;21,95969
 587,12; 8167,721;  300,568;36082,359;21,98647
 587,70; 8187,180;  326,331;36191,135;21,91800
 588,28; 8105,750;  305,568;36305,241;21,66737
 588,86; 8121,811;  315,031;36369,510;21,65273
 589,44; 8069,929;  297,962;36510,054;21,46235
 590,02; 8136,879;  307,114;36686,583;21,52248
 590,59; 8104,135;  285,802;36964,214;21,31590
 591,17; 8161,509;  298,047;37099,676;21,36716
 591,75; 8118,268;  289,503;37335,237;21,13270
 592,33; 8136,247;  309,655;37533,493;21,02575
 592,91; 8152,098;  272,199;37770,302;21,01413
 593,49; 8199,334;  276,587;38115,931;20,93786
 594,07; 8257,812;  285,510;38350,610;20,94386
 594,65; 8200,323;  301,418;38358,213;20,75557
 595,23; 8217,948;  307,960;38870,395;20,51216
 595,81; 8218,732;  283,500;38835,566;20,58316
 596,39; 8163,492;  271,577;38992,460;20,38155
 596,97; 8213,843;  305,198;39202,896;20,33191
 597,55; 8153,184;  285,497;39101,230;20,26932
 598,12; 8107,656;  272,973;39094,948;20,18105
 598,70; 8073,495;  269,431;39324,222;19,98235
 599,28; 8104,223;  292,662;39457,523;19,94533
 599,86; 8066,529;  276,815;39468,964;19,87570
 600,44; 8050,899;  251,740;39539,023;19,85161
 601,02; 8073,941;  308,287;39632,593;19,74772
 601,60; 7953,944;  285,734;39636,789;19,48667
 602,18; 7912,820;  254,434;39624,823;19,45215
 602,75; 7879,718;  259,269;39722,651;19,31018
 603,33; 7865,478;  276,046;39733,774;19,23434
 603,91; 7824,570;  263,669;39629,278;19,20687
 604,49; 7807,356;  287,354;39768,137;19,04724
 605,07; 7760,220;  289,734;39779,503;18,91752
 605,65; 7749,921;  293,279;39876,357;18,83795
 606,23; 7690,717;  322,032;39961,370;18,58932
 606,80; 7716,694;  339,115;40031,476;18,58690
 607,38; 7653,760;  361,129;40020,091;18,38836
 607,96; 7648,556;  396,345;40120,463;18,25644
 608,54; 7638,666;  436,971;40132,952;18,14213
 609,12; 7644,191;  423,730;40212,084;18,14717
 609,70; 7544,586;  447,584;40164,958;17,86876
 610,27; 7582,340;  446,960;40221,891;17,93939
 610,85; 7548,389;  452,660;40361,469;17,77986
 611,43; 7484,637;  453,661;40190,327;17,69392
 612,01; 7362,595;  428,579;39938,834;17,54991
 612,59; 7329,420;  437,122;40005,832;17,41856
 613,16; 7287,373;  400,803;40000,582;17,39043
 613,74; 7239,976;  391,816;39860,382;17,35092
 614,32; 7201,608;  378,203;39818,573;17,30056
 614,90; 7172,771;  368,735;39740,501;17,28151
 615,48; 7032,119;  336,420;39404,202;17,13867
 616,05; 6950,955;  326,033;39490,968;16,91544
 616,63; 6927,945;  335,569;39351,965;16,89642
 617,21; 6860,713;  332,883;39185,457;16,80154
 617,79; 6758,848;  313,578;39065,963;16,63193
 618,36; 6765,350;  330,580;39125,867;16,58647
 618,94; 6613,477;  261,959;38822,725;16,47145
 619,52; 6560,198;  292,032;38375,453;16,45904
 620,10; 6495,713;  285,269;38330,713;16,32375
 620,67; 6466,212;  295,723;38250,497;16,25748
 621,25; 6420,778;  306,350;38026,894;16,20981
 621,83; 6371,027;  298,651;38062,774;16,07975
 622,41; 6313,753;  328,959;38049,670;15,86607
 622,98; 6260,577;  308,800;37788,029;15,88020
 623,56; 6230,762;  314,030;37795,674;15,78568
 624,14; 6184,853;  289,659;37659,464;15,77529
 624,72; 6101,287;  301,805;37544,194;15,57226
 625,29; 6097,106;  282,799;37675,744;15,54921
 625,87; 6078,487;  326,270;37619,830;15,42416
 626,45; 5969,248;  279,259;37344,439;15,35130
 627,02; 5933,028;  287,732;37357,465;15,22885
 627,60; 5876,223;  271,817;37247,702;15,15692
 628,18; 5866,345;  253,730;37361,161;15,12531
 628,76; 5819,361;  261,724;37356,021;14,98246
 629,33; 5815,717;  296,726;37384,113;14,88104
 629,91; 5778,713;  278,346;37340,329;14,84099
 630,49; 5777,587;  296,956;37449,416;14,75173
 631,06; 5752,849;  287,340;37625,831;14,63774
 631,64; 5725,647;  293,568;37572,200;14,57156
 632,22; 5660,166;  254,949;37478,527;14,52095
 632,79; 5724,509;  288,257;37824,059;14,48285
 633,37; 5657,360;  277,349;37826,435;14,32794
 633,95; 5634,471;  270,644;37963,712;14,23028
 634,52; 5627,073;  272,189;38068,796;14,16763
 635,10; 5616,650;  282,499;38029,680;14,13126
 635,68; 5646,101;  274,949;38237,268;14,14864
 636,25; 5569,968;  266,637;38241,039;13,96554
 636,83; 5545,746;  254,878;38432,405;13,85859
 637,41; 5522,125;  251,487;38505,802;13,77789
 637,98; 5560,596;  285,409;38627,908;13,75807
 638,56; 5568,304;  273,867;38771,280;13,75271
 639,13; 5535,161;  265,800;38871,974;13,64901
 639,71; 5548,294;  311,878;39154,614;13,48107
 640,29; 5432,302;  246,955;38826,648;13,44061
 640,86; 5409,834;  252,032;38988,317;13,31517
 641,44; 5396,442;  253,417;38967,062;13,28479
 642,02; 5386,974;  276,341;38914,962;13,22675
 642,59; 5358,044;  253,879;39161,323;13,11873
 643,17; 5337,114;  263,110;39098,531;13,06540
 643,74; 5313,030;  249,111;39141,738;13,02025
 644,32; 5288,946;  286,649;39185,253;12,85984
 644,89; 5278,246;  280,649;39099,692;12,87409
 645,47; 5234,624;  291,111;39116,437;12,73270
 646,05; 5242,463;  286,111;39135,414;12,75789
 646,62; 5175,918;  264,189;39107,852;12,64487
 647,20; 5150,142;  269,497;39209,444;12,53377
 647,77; 5080,904;  249,804;39035,729;12,45581
 648,35; 5062,051;  245,420;39003,398;12,42746
 648,92; 5058,044;  272,651;39009,682;12,35354
 649,50; 4984,575;  234,882;38843,966;12,30201
 650,08; 4985,030;  246,882;38764,251;12,30133
 650,65; 4999,792;  238,036;39112,535;12,24905
 651,23; 5044,554;  220,421;39827,512;12,17997
 651,80; 5144,778;  233,729;40797,488;12,10699
 652,38; 5177,310;  246,499;41191,465;12,04253
 652,95; 5203,226;  227,268;41534,057;12,04634
 653,53; 5216,065;  255,961;41894,187;11,91238
 654,10; 5263,135;  281,576;41945,318;11,95658
 654,68; 5209,667;  241,577;41909,064;11,92318
 655,25; 5187,429;  238,192;41917,579;11,87454
 655,83; 5153,960;  237,423;42057,709;11,75635
 656,40; 5149,569;  264,500;42034,840;11,69507
 656,98; 5125,716;  239,270;41918,278;11,72400
 657,55; 5113,862;  252,347;41811,332;11,69787
 658,13; 4987,471;  241,116;41390,693;11,53439
 658,70; 4962,233;  266,270;41249,977;11,45812
 659,28; 4876,303;  236,501;40241,339;11,59810
 659,85; 4689,758;  255,040;39406,315;11,32713
 660,43; 4710,751;  261,887;39494,676;11,33966
 661,00; 4737,898;  240,502;39551,730;11,44049
 661,58; 4721,275;  237,810;40107,784;11,24522
 662,15; 4709,422;  226,503;40183,453;11,21937
 662,73; 4813,569;  300,272;40518,660;11,22197
 663,30; 4775,177;  244,042;40675,406;11,20698
 663,88; 4763,478;  254,965;40897,306;11,09314
 664,45; 4770,548;  244,734;41079,282;11,08330
 665,03; 4815,618;  242,658;41416,797;11,10639
 665,60; 4935,919;  323,504;41846,697;11,10804
 666,17; 4837,220;  247,658;41960,520;11,00275
 666,75; 4904,751;  249,735;42413,650;11,04028
 667,32; 4935,436;  268,505;42639,396;11,01448
 667,90; 4915,199;  244,582;42979,604;10,92925
 668,47; 4944,884;  273,274;43192,888;10,88456
 669,05; 4979,569;  237,582;43631,019;10,92789
 669,62; 4944,947;  231,583;43641,611;10,85778
 670,19; 4944,017;  232,198;43783,433;10,81902
 670,77; 4999,318;  248,198;43903,025;10,88338
 671,34; 4927,541;  243,353;43823,310;10,74849
 671,92; 4975,996;  231,737;44287,748;10,76870
 672,49; 4980,066;  258,738;44173,340;10,75116
 673,06; 4965,290;  215,507;44343,470;10,76366
 673,64; 4929,206;  232,661;44171,293;10,68887
 674,21; 4909,507;  220,046;44244,347;10,65198
 674,79; 4966,730;  250,508;44513,323;10,65504
 675,36; 4965,954;  260,585;44484,223;10,63994
 675,93; 4910,717;  219,508;44374,123;10,62450
 676,51; 4959,863;  256,816;44710,176;10,57973
 677,08; 4951,626;  241,124;44763,692;10,58003
 677,65; 4958,388;  250,047;44833,976;10,56062
 678,23; 4973,689;  253,509;45032,876;10,54097
 678,80; 4957,989;  240,971;45153,160;10,50276
 679,38; 4953,290;  240,048;45315,367;10,45637
 679,95; 5006,975;  241,510;45585,344;10,50962
 680,52; 5000,892;  246,664;45759,705;10,44586
 681,10; 5112,038;  255,126;46247,374;10,56029
 681,67; 5118,570;  254,664;46474,505;10,52341
 682,24; 5078,871;  234,126;46637,789;10,44044
 682,82; 5159,710;  238,050;47233,381;10,47266
 683,39; 5203,011;  280,973;47459,127;10,43287
 683,96; 5229,773;  245,665;47797,719;10,48137
 684,54; 5234,304;  227,589;48127,234;10,45251
 685,11; 5323,605;  269,666;48378,288;10,50527
 685,68; 5347,598;  246,358;48929,495;10,47845
 686,25; 5301,437;  229,436;49081,164;10,38244
 686,83; 5337,584;  244,897;49196,602;10,40349
 687,40; 5412,885;  219,205;49533,271;10,53184
 687,97; 5459,955;  269,667;49965,556;10,44410
 688,55; 5431,256;  222,129;49932,071;10,47904
 689,12; 5405,556;  214,206;50320,663;10,36064
 689,69; 5468,165;  222,899;50349,716;10,46399
 690,26; 5493,619;  246,130;50497,462;10,44249
 690,84; 5475,382;  245,361;50658,285;10,37437
 691,41; 5519,990;  248,822;50775,800;10,43238
 691,98; 5567,060;  254,823;51050,469;10,45806
 692,56; 5590,130;  233,284;51139,369;10,52300
 693,13; 5593,661;  283,592;51161,576;10,43687
 693,70; 5577,270;  266,823;51358,245;10,39401
 694,27; 5570,648;  254,285;51426,453;10,38917
 694,84; 5600,179;  234,131;51492,583;10,46861
 695,42; 5643,787;  288,362;51602,791;10,43649
 695,99; 5657,550;  251,132;51901,229;10,46739
 696,56; 5626,389;  233,747;51796,052;10,45850
 697,13; 5695,997;  253,594;52059,182;10,50544
 697,71; 5657,760;  221,517;52124,466;10,47386
 698,28; 5711,368;  241,825;52567,212;10,45294
 698,85; 5696,592;  218,672;52430,573;10,49171
 699,42; 5729,046;  217,903;52602,627;10,52052
 699,99; 5763,809;  269,364;52899,758;10,43968
 700,57; 5778,956;  250,288;52759,427;10,52896
 701,14; 5786,333;  239,903;52950,788;10,52236
 701,71; 5828,788;  251,057;53144,841;10,54515
 702,28; 5858,088;  249,750;53175,587;10,59660
 702,85; 5851,851;  240,212;53278,641;10,58033
 703,43; 5869,382;  267,981;53533,464;10,51601
 704,00; 5962,683;  279,366;53798,363;10,61925
 704,57; 5933,753;  251,674;53675,417;10,63587
 705,14; 5996,207;  272,597;54065,932;10,64000
 705,71; 6027,201;  271,290;54061,216;10,70072
 706,28; 5994,270;  252,367;53901,808;10,70263
 706,86; 6048,648;  276,752;54297,400;10,68461
 707,43; 6071,949;  300,598;54147,300;10,71811
 708,00; 6043,403;  264,060;54117,123;10,73169
 708,57; 6067,858;  243,675;54126,561;10,80897
 709,14; 6066,466;  272,599;54215,230;10,74080
 709,71; 6091,921;  248,830;54312,438;10,80781
 710,28; 6146,452;  264,445;54427,876;10,85974
 710,86; 6159,292;  265,676;54698,083;10,82740
 711,43; 6186,669;  280,061;54701,983;10,85336
 712,00; 6216,201;  256,600;54690,575;10,94831
 712,57; 6250,040;  265,293;54991,705;10,93576
 713,14; 6245,879;  255,216;55000,451;10,94280
 713,71; 6257,641;  266,831;54936,505;10,95820
 714,28; 6263,096;  265,601;54977,558;10,96195
 714,85; 6236,089;  241,524;54659,535;11,01577
 715,42; 6267,621;  249,140;55004,127;10,99166
 716,00; 6354,614;  311,140;55111,181;11,02823
 716,57; 6338,530;  262,602;55229,773;11,05374
 717,14; 6344,215;  249,217;55154,826;11,10087
 717,71; 6364,593;  234,987;55096,957;11,17278
 718,28; 6407,740;  280,449;55273,164;11,14200
 718,85; 6393,040;  247,218;55374,218;11,14848
 719,42; 6457,649;  269,449;55454,810;11,21348
 719,99; 6440,488;  247,219;55223,709;11,26530
 720,56; 6490,019;  264,988;55553,840;11,25911
 721,13; 6524,628;  241,296;55688,124;11,33218
 721,70; 6526,775;  248,835;55484,255;11,36579
 722,27; 6586,075;  273,912;55549,770;11,41939
 722,84; 6631,915;  306,374;55677,900;11,42382
 723,41; 6594,831;  240,835;55715,569;11,45385
 723,98; 6659,131;  266,682;55931,161;11,48389
 724,55; 6671,278;  283,144;55921,215;11,48159
 725,12; 6665,425;  221,836;55925,192;11,56769
 725,69; 6769,034;  253,221;56131,091;11,66081
 726,27; 6799,488;  266,606;56193,145;11,68118
 726,84; 6823,481;  269,298;56558,891;11,64369
 727,41; 6921,936;  274,683;56495,175;11,82354
 727,98; 6928,698;  272,376;56762,306;11,78320
 728,55; 6983,845;  296,068;56619,205;11,87394
 729,12; 6953,453;  239,607;56799,951;11,87024
 729,69; 7048,446;  279,376;57065,620;11,92026
 730,26; 7101,286;  276,069;57301,443;11,96874
 730,82; 7050,740;  272,069;57015,958;11,94608
 731,39; 7127,041;  263,608;57200,396;12,05448
 731,96; 7123,649;  251,454;57379,758;12,02941
 732,53; 7211,873;  265,455;57658,119;12,10332
 733,10; 7258,020;  274,609;57655,326;12,17031
 733,67; 7342,398;  271,455;57940,841;12,26117
 734,24; 7275,622;  251,994;57573,126;12,25312
 734,81; 7311,307;  285,456;57668,949;12,24368
 735,38; 7347,685;  270,840;57484,925;12,36906
 735,95; 7286,831;  271,148;57348,594;12,29152
 736,52; 7364,671;  277,610;57559,878;12,37217
 737,09; 7386,279;  265,918;57244,547;12,49655
 737,66; 7436,964;  307,072;57340,678;12,50121
 738,23; 7480,957;  259,534;57458,193;12,62516
 738,80; 7581,797;  314,919;57686,631;12,66631
 739,37; 7572,790;  294,150;57997,146;12,61397
 739,94; 7644,475;  266,765;58021,969;12,77410
 740,51; 7721,160;  361,073;58162,869;12,73332
 741,07; 7670,692;  257,304;57969,230;12,84550
 741,64; 7738,839;  299,458;58260,591;12,83512
 742,21; 7762,062;  268,459;58352,491;12,90131
 742,78; 7723,517;  238,074;58040,006;12,95016
 743,35; 7803,125;  267,921;58393,598;12,96364
 743,92; 7858,965;  293,382;58500,806;12,99762
 744,49; 7886,650;  272,075;58297,244;13,12288
 745,06; 7881,951;  262,537;58309,990;13,12618
 745,63; 7913,713;  246,922;58349,813;13,19520
 746,19; 7947,398;  260,537;58279,174;13,24895
 746,76; 7940,468;  260,614;58369,227;13,21638
 747,33; 7975,923;  256,307;58286,589;13,30274
 747,90; 8027,993;  280,384;58549,027;13,29636
 748,47; 8062,447;  276,615;58454,850;13,38272
 749,04; 8063,902;  273,000;58474,596;13,38606
 749,61; 8147,357;  287,308;58464,495;13,51053
 750,17; 8155,888;  285,693;58499,856;13,51938
 750,74; 8184,266;  274,001;58413,910;13,60557
 751,31; 8172,182;  257,078;58361,194;13,62228
 751,88; 8147,790;  231,463;58242,479;13,64625
 752,45; 8259,245;  261,617;58344,071;13,76944
 753,02; 8278,853;  282,848;58210,355;13,80347
 753,58; 8291,308;  249,232;58226,639;13,87105
 754,15; 8364,609;  258,617;58347,616;13,95443
 754,72; 8331,063;  247,156;58025,824;13,99116
 755,29; 8372,133;  241,156;57871,723;14,10879
 755,86; 8408,741;  262,387;58023,931;14,10342
 756,42; 8436,350;  267,311;57938,600;14,16483
 756,99; 8433,420;  228,388;57931,653;14,21935
 757,56; 8465,644;  235,003;57765,245;14,30663
 758,13; 8447,944;  200,234;57725,068;14,33765
 758,70; 8532,784;  227,773;57822,122;14,41984
 759,26; 8572,007;  223,696;57884,329;14,47835
 759,83; 8610,385;  234,543;57974,152;14,50623
 760,40; 8574,686;  219,928;57712,590;14,53187
 760,97; 8627,986;  197,774;57783,567;14,63940
 761,53; 8619,287;  193,697;57436,697;14,71899
 762,10; 8593,203;  196,544;57388,905;14,68144
 762,67; 8666,735;  229,313;57454,112;14,74434
 763,24; 8645,882;  189,852;56929,781;14,90314
 763,80; 8644,875;  228,314;57080,835;14,80420
 764,37; 8660,637;  218,929;57096,119;14,84199
 764,94; 8603,168;  215,391;56619,172;14,87095
 765,50; 8662,777;  216,314;56701,841;14,95332
 766,07; 8746,770;  252,622;56651,433;15,06086
 766,64; 8700,840;  230,776;56431,872;15,07099
 767,21; 8728,371;  225,777;56265,618;15,17241
 767,77; 8710,134;  250,315;56115,825;15,14319
 768,34; 8797,050;  239,239;56116,109;15,31548
 768,91; 8815,504;  255,162;55937,317;15,37358
 769,47; 8818,036;  245,008;55948,909;15,39035
 770,04; 8863,721;  262,855;55841,962;15,47500
 770,61; 8813,099;  240,086;55658,939;15,46949
 771,18; 8849,246;  231,932;55498,454;15,59229
 771,74; 8935,239;  246,932;55584,123;15,70066
 772,31; 8933,078;  247,317;55284,253;15,78169
 772,88; 8913,533;  225,471;55091,615;15,83501
 773,44; 8928,295;  228,471;55019,130;15,87830
 774,01; 8994,365;  246,010;55033,953;15,96766
 774,58; 9010,819;  234,549;54714,775;16,10909
 775,14; 9045,582;  230,703;54775,598;16,16078
 775,71; 9033,498;  238,395;54690,421;16,15202
 776,27; 9167,260;  283,857;54724,475;16,31760
 776,84; 9205,099;  308,165;54764,067;16,33787
 777,41; 9223,938;  245,165;54464,966;16,55995
 777,97; 9176,008;  244,550;54181,635;16,55903
 778,54; 9210,463;  259,012;54240,381;16,58248
 779,11; 9279,764;  268,551;54182,666;16,71401
 779,67; 9276,372;  228,166;54092,642;16,79809
 780,24; 9278,519;  251,936;53933,388;16,81509
 780,80; 9346,358;  269,013;53984,749;16,89886
 781,37; 9388,428;  254,859;53989,264;16,99762
 781,94; 9405,113;  246,783;53653,703;17,14821
 782,50; 9335,491;  257,091;53683,833;16,99224
 783,07; 9447,715;  281,937;53762,964;17,13837
 783,63; 9451,092;  240,860;53436,556;17,31387
 784,20; 9442,547;  273,399;53488,686;17,23029
 784,77; 9485,848;  256,553;53280,586;17,40587
 785,33; 9451,610;  229,784;52997,332;17,47632
 785,90; 9491,218;  253,015;53002,078;17,51349
 786,46; 9550,288;  269,861;52896,439;17,63449
 787,03; 9496,358;  242,092;52744,339;17,62642
 787,59; 9614,736;  248,631;52615,315;17,88562
 788,16; 9606,344;  258,478;52575,292;17,86781
 788,73; 9592,491;  265,401;52391,576;17,89330
 789,29; 9563,638;  244,786;51910,014;18,03699
 789,86; 9610,477;  267,171;51898,222;18,09629
 790,42; 9615,317;  257,094;51859,737;18,13516
 790,99; 9608,156;  272,479;51447,944;18,24249
 791,55; 9570,533;  245,633;51501,152;18,19297
 792,12; 9665,450;  265,556;51433,359;18,37072
 792,68; 9624,750;  254,556;51144,874;18,41253
 793,25; 9632,743;  265,941;50834,543;18,52296
 793,81; 9718,121;  309,249;50529,058;18,73538
 794,38; 9579,499;  217,557;50328,112;18,68257
 794,94; 9538,107;  244,173;50104,243;18,64003
 795,51; 9581,562;  257,788;49860,681;18,79683
 796,07; 9514,170;  260,789;49633,504;18,74189
 796,64; 9630,240;  264,712;49687,480;18,94983
 797,20; 9537,079;  258,558;49121,303;18,98895
 797,77; 9469,380;  229,328;48871,664;18,99591
 798,33; 9518,834;  241,866;48671,641;19,15551
 798,90; 9557,135;  274,636;48687,771;19,17351
 799,46; 9478,128;  246,251;48125,363;19,28164
 800,03; 9474,967;  270,790;48025,109;19,27402
 800,59; 9514,653;  272,713;47941,624;19,38777
 801,15; 9511,569;  258,175;47589,524;19,55024
 801,72; 9420,100;  252,406;47287,732;19,49108
 802,28; 9431,401;  285,560;46983,631;19,58505
 802,85; 9424,779;  249,330;46889,300;19,67293
 803,41; 9423,156;  246,561;46712,892;19,74891
 803,98; 9360,765;  249,484;46328,330;19,77324
 804,54; 9343,835;  249,946;46006,846;19,87436
 805,11; 9412,520;  258,485;45810,130;20,09595
 805,67; 9325,590;  272,100;45752,414;19,90639
 806,23; 9301,968;  262,408;45267,006;20,08586
 806,80; 9368,884;  275,562;45117,444;20,27864
 807,36; 9369,723;  282,793;45013,267;20,31485
 807,93; 9379,408;  286,024;44813,321;20,42204
 808,49; 9332,248;  245,640;44510,144;20,52798
 809,05; 9283,933;  234,640;44363,505;20,50652
 809,62; 9343,080;  270,410;44212,405;20,64692
 810,18; 9409,611;  263,871;44157,151;20,83631
 810,74; 9299,681;  232,025;43883,896;20,77266
 811,31; 9315,367;  245,872;43546,335;20,94549
 811,87; 9342,283;  256,564;43534,004;20,99412
 812,44; 9344,045;  283,949;43399,288;21,01363
 813,00; 9310,884;  209,719;43112,880;21,21327
 813,56; 9403,954;  260,950;43217,010;21,28455
 814,13; 9432,947;  259,565;43157,449;21,38423
 814,69; 9449,556;  251,719;42808,348;21,61317
 815,25; 9378,087;  229,104;42601,479;21,59186
 815,82; 9376,003;  275,335;42334,840;21,63760
 816,38; 9462,842;  298,182;42184,817;21,87968
 816,94; 9360,605;  235,490;41865,486;21,91957
 817,51; 9373,598;  226,644;41713,001;22,04810
 818,07; 9306,360;  242,105;41376,747;22,03557
 818,63; 9310,661;  265,336;41247,262;22,07150
 819,20; 9368,654;  249,798;41189,777;22,27372
 819,76; 9234,339;  235,414;40615,138;22,28575
 820,32; 9318,024;  268,952;40609,961;22,43145
 820,89; 9282,479;  270,799;40403,553;22,45468
 821,45; 9178,164;  233,338;40010,145;22,48754
 822,01; 9222,311;  273,876;39788,660;22,64579
 822,57; 9224,227;  267,107;39675,791;22,72880
 823,14; 9169,297;  238,415;39514,075;22,73897
 823,70; 9123,290;  241,108;39247,282;22,77122
 824,26; 9150,668;  235,262;39008,797;22,99353
 824,82; 9157,046;  257,570;38887,005;23,03807
 825,39; 9113,654;  239,647;38619,828;23,12133
 825,95; 9184,955;  261,878;38651,958;23,24318
 826,51; 9096,717;  258,340;38153,550;23,32320
 827,08; 9187,479;  278,417;38206,065;23,48963
 827,64; 9146,703;  257,186;38029,657;23,53438
 828,20; 9154,465;  242,956;37724,249;23,77589
 828,76; 9159,228;  273,494;37724,072;23,72656
 829,32; 9164,221;  275,879;37573,895;23,83060
 829,89; 9145,983;  234,187;37475,256;23,93002
 830,45; 9168,591;  253,572;37367,925;24,02041
 831,01; 9143,969;  241,188;37192,517;24,09326
 831,57; 9192,116;  252,188;37083,494;24,27263
 832,14; 9197,263;  246,496;37046,163;24,32296
 832,70; 9119,025;  233,111;36757,370;24,32880
 833,26; 9091,710;  214,189;36663,808;24,35559
 833,82; 9151,165;  238,343;36525,016;24,56225
 834,38; 9142,620;  233,804;36584,069;24,50825
 834,95; 9156,920;  234,882;36441,892;24,64174
 835,51; 9121,144;  205,343;36314,946;24,69094
 836,07; 9204,137;  243,190;36355,615;24,81403
 836,63; 9313,515;  262,882;36381,668;25,05796
 837,19; 9254,739;  247,421;36206,645;25,04870
 837,75; 9194,193;  215,421;35942,391;25,13164
 838,32; 9324,955;  258,268;36010,829;25,35955
 838,88; 9381,179;  257,499;36027,575;25,50646
 839,44; 9337,403;  251,499;35891,705;25,49341
 840,00; 9383,088;  248,961;35852,067;25,65542
 840,56; 9300,235;  224,422;35544,428;25,69596
 841,12; 9306,613;  231,346;35616,482;25,64712
 841,68; 9290,760;  218,654;35367,151;25,81079
 842,25; 9292,522;  231,039;35432,358;25,74189
 842,81; 9296,592;  224,193;35091,796;26,01957
 843,37; 9340,277;  205,270;35087,311;26,18828
 843,93; 9379,347;  234,885;35064,749;26,25466
 844,49; 9407,340;  240,578;35030,880;26,34861
 845,05; 9364,103;  202,040;34888,395;26,41403
 845,61; 9467,942;  253,809;34860,756;26,62510
 846,17; 9477,089;  233,040;34734,348;26,79333
 846,73; 9436,543;  242,810;34729,863;26,65851
 847,29; 9443,767;  215,733;34468,763;26,94078
 847,86; 9451,529;  221,118;34521,817;26,91027
 848,42; 9424,830;  208,580;34236,024;27,08476
 848,98; 9411,669;  241,811;34193,924;27,00821
 849,54; 9503,816;  228,965;34233,670;27,27520
 850,10; 9556,501;  237,734;34080,108;27,53580
 850,66; 9488,264;  216,734;33874,469;27,54650
 851,22; 9529,180;  212,504;33864,061;27,68572
 851,78; 9611,404;  268,043;33891,807;27,78797
 852,34; 9547,474;  237,274;33624,938;27,88515
 852,90; 9575,697;  226,889;33522,991;28,07779
 853,46; 9523,767;  218,120;33292,583;28,13544
 854,02; 9534,453;  234,274;33293,791;28,13162
 854,58; 9524,523;  221,659;32997,075;28,38366
 855,14; 9508,900;  221,736;32969,359;28,35981
 855,70; 9520,816;  196,121;32805,721;28,59494
 856,26; 9541,271;  242,275;32805,159;28,55704
 856,82; 9507,110;  229,429;32524,905;28,72749
 857,38; 9551,334;  246,276;32449,035;28,89522
 857,94; 9553,250;  240,430;32373,473;28,98207
 858,50; 9544,166;  249,661;32173,527;29,11460
 859,06; 9515,082;  224,892;32001,965;29,23551
 859,62; 9550,845;  242,969;31978,326;29,32967
 860,18; 9558,145;  227,738;31700,841;29,64565
 860,74; 9535,600;  195,431;31622,280;29,72035
 861,30; 9564,054;  207,893;31446,333;29,95080
 861,86; 9591,586;  260,124;31459,925;29,90872
 862,42; 9573,040;  226,662;31272,133;30,10545
 862,98; 9629,264;  253,047;31308,571;30,19179
 863,54; 9563,488;  233,971;31118,394;30,20784
 864,10; 9556,327;  223,202;31050,293;30,27573
 864,66; 9518,090;  208,202;30911,809;30,32181
 865,22; 9543,929;  230,510;30695,324;30,57107
 865,78; 9499,845;  229,895;30639,608;30,48352
 866,34; 9526,992;  226,664;30513,200;30,70780
 866,90; 9517,062;  236,895;30375,023;30,79211
 867,45; 9489,593;  230,818;30249,076;30,84381
 868,01; 9445,663;  235,511;30036,976;30,90503
 868,57; 9406,118;  226,434;29866,799;30,97021
 869,13; 9390,265;  211,204;29736,391;31,08892
 869,69; 9387,258;  215,512;29661,214;31,14800
 870,25; 9298,635;  209,512;29513,113;31,01709
 870,81; 9411,628;  218,974;29522,167;31,37083
 871,37; 9379,314;  225,974;29387,682;31,38822
 871,93; 9289,691;  233,436;29172,197;31,29455
 872,49; 9331,531;  253,897;29027,866;31,54807
 873,04; 9238,293;  212,513;28819,304;31,55118
 873,60; 9197,978;  219,667;28684,666;31,54158
 874,16; 9196,279;  236,206;28544,181;31,65212
 874,72; 9215,817;  222,437;28517,873;31,78386
 875,28; 9169,279;  226,052;28424,873;31,71490
 875,84; 9215,356;  226,590;28321,873;31,99386
 876,40; 9205,356;  220,513;28379,412;31,90765
 876,95; 9236,894;  239,129;28235,104;32,13950
 877,51; 9305,740;  260,052;28329,873;32,22567
 878,07; 9285,125;  269,744;28231,488;32,24184
 878,63; 9284,817;  228,283;28280,027;32,28510
 879,19; 9384,740;  235,898;28263,258;32,64254
 879,75; 9399,510;  226,590;28335,642;32,63333
 880,30; 9377,663;  230,821;28199,027;32,70443
 880,86; 9546,971;  267,821;28385,488;33,00114
 881,42; 9526,279;  216,667;28452,104;32,97137
 881,98; 9580,894;  240,898;28461,335;33,09657
 882,54; 9661,510;  224,744;28577,719;33,28316
 883,09; 9713,279;  238,513;28735,488;33,24832
 883,65; 9704,740;  214,283;28770,335;33,23449
 884,21; 9889,433;  256,206;28987,565;33,52861
 884,77; 9896,433;  221,360;28983,104;33,63869
 885,32; 9979,663;  230,975;29187,642;33,66647
 885,88;10104,356;  259,283;29262,335;33,94496
 886,44;10156,510;  237,513;29484,642;33,91443
 887,00;10167,202;  254,360;29404,412;34,00626
 887,56;10253,356;  231,437;29648,488;34,06840
 888,11;10285,971;  236,360;29552,412;34,28024
 888,67;10434,740;  264,206;29822,412;34,40850
 889,23;10458,817;  237,667;29833,873;34,53534
 889,79;10426,663;  214,360;29723,027;34,60781
 890,34;10463,740;  239,360;29613,258;34,80771
 890,90;10577,279;  302,975;29761,181;34,87756
 891,46;10564,048;  225,667;29652,104;35,13297
 892,01;10636,510;  252,975;29674,104;35,29278
 892,57;10644,356;  252,821;29550,335;35,46900
 893,13;10588,048;  233,283;29317,873;35,60224
 893,69;10576,125;  227,129;29388,719;35,48845
 894,24;10597,510;  236,667;29281,335;35,67210
 894,80;10555,433;  231,052;29059,104;35,81366
 895,36;10570,202;  230,129;28942,873;36,01214
 895,91;10536,587;  231,206;28773,719;36,10537
 896,47;10563,279;  258,975;28624,412;36,32697
 897,03;10526,971;  220,667;28386,335;36,59173
 897,58;10482,433;  238,821;28392,488;36,38464
 898,14;10478,125;  239,975;28132,565;36,70563
 898,70;10362,510;  209,667;27967,642;36,57631
 899,25;10439,202;  228,129;27958,719;36,82242
 899,81;10447,587;  250,590;27772,104;37,05100
 900,37;10354,971;  217,437;27573,104;37,05826
 900,92;10409,971;  240,283;27632,719;37,12590
 901,48;10319,587;  224,821;27419,488;37,12039
 902,03;10374,048;  223,513;27255,796;37,54968
 902,59;10398,971;  226,052;27215,412;37,69233
 903,15;10431,202;  256,052;26958,950;38,10504
 903,70;10364,894;  244,052;26687,181;38,27400
 904,26;10307,510;  217,744;26660,335;38,15725
 904,82;10381,048;  236,744;26648,488;38,40831
 905,37;10319,510;  240,052;26469,873;38,42747
 905,93;10274,817;  224,744;26360,104;38,45393
 906,48;10295,279;  239,667;26317,104;38,56058
 907,04;10275,510;  253,898;26173,181;38,66469
 907,60;10229,894;  224,975;25972,873;38,85723
 908,15;10228,125;  218,667;25883,104;39,00128
 908,71;10211,048;  250,513;25858,335;38,89645
 909,26;10145,510;  213,283;25706,950;38,95958
 909,82;10193,356;  257,437;25599,796;39,20676
 910,37;10188,356;  268,052;25525,796;39,27629
 910,93;10111,971;  219,744;25226,335;39,55848
 911,48;10031,817;  208,513;25048,181;39,54684
 912,04;10030,663;  216,590;24939,950;39,69555
 912,60;10042,279;  242,206;25022,488;39,54787
 913,15; 9967,356;  235,975;24808,104;39,60333
 913,71; 9931,048;  226,360;24581,642;39,84634
 914,26; 9874,740;  204,360;24588,950;39,65775
 914,82; 9902,202;  234,975;24467,873;39,89299
 915,37; 9942,663;  226,898;24384,950;40,21750
 915,93; 9908,048;  277,129;24278,258;40,12694
 916,48; 9880,048;  216,283;24113,488;40,43889
 917,04; 9871,510;  239,590;24033,642;40,48037
 917,59; 9890,279;  254,129;23937,412;40,68756
 918,15; 9776,510;  206,206;23718,181;40,70396
 918,70; 9755,279;  226,283;23675,335;40,63702
 919,26; 9781,048;  229,667;23483,565;41,07432
 919,81; 9732,433;  212,975;23370,412;41,10756
 920,37; 9743,587;  233,283;23301,335;41,22717
 920,92; 9762,894;  241,975;23216,796;41,44067
 921,48; 9643,279;  209,667;22934,027;41,51321
 922,03; 9632,587;  218,437;23038,488;41,25385
 922,59; 9603,587;  225,821;22863,565;41,42535
 923,14; 9572,894;  223,975;22679,488;41,63307
 923,69; 9596,125;  244,283;22620,642;41,79340
 924,25; 9579,817;  248,513;22641,181;41,67125
 924,80; 9516,433;  225,975;22275,796;42,13394
 925,36; 9498,125;  219,744;22273,104;42,07241
 925,91; 9419,433;  222,052;22124,873;41,99176
 926,47; 9388,279;  209,667;22107,181;41,91623
 927,02; 9480,817;  269,744;22038,335;42,31359
 927,57; 9342,356;  220,975;21821,565;42,22746
 928,13; 9326,663;  217,360;21776,642;42,25235
 928,68; 9406,279;  221,283;21722,027;42,71943
 929,24; 9271,279;  192,821;21528,642;42,55031
 929,79; 9290,971;  216,052;21382,335;42,87441
 930,34; 9273,971;  216,513;21190,642;43,18395
 930,90; 9291,433;  215,898;21257,642;43,13109
 931,45; 9317,510;  233,513;21206,719;43,31239
 932,01; 9262,971;  231,360;21068,950;43,34288
 932,56; 9237,663;  244,513;20865,642;43,61134
 933,11; 9200,894;  256,437;20914,258;43,29817
 933,67; 9164,663;  216,360;20690,488;43,70542
 934,22; 9174,817;  221,283;20578,796;43,98147
 934,77; 9135,894;  251,360;20507,642;43,86064
 935,33; 9081,587;  233,975;20403,412;43,86643
 935,88; 9095,971;  226,590;20301,335;44,18179
 936,43; 9093,894;  218,975;20248,181;44,30989
 936,99; 9065,817;  225,206;20154,719;44,35939
 937,54; 8955,202;  212,513;19992,719;44,19918
 938,09; 8959,587;  235,360;19954,412;44,24263
 938,65; 8924,433;  230,437;19810,104;44,40319
 939,20; 8951,125;  204,129;19720,104;44,81967
 939,75; 8932,894;  217,360;19588,488;44,99239
 940,31; 8890,202;  214,590;19526,642;44,92330
 940,86; 8985,740;  228,744;19496,873;45,44809
 941,41; 8959,663;  300,129;19384,873;45,37412
 941,96; 8899,048;  217,590;19234,412;45,65147
 942,52; 8864,587;  218,898;19187,027;45,58008
 943,07; 8860,433;  200,283;19000,335;46,06450
 943,62; 8884,817;  210,513;18923,565;46,35430
 944,18; 8864,663;  204,667;18843,796;46,46138
 944,73; 8824,817;  220,129;18759,181;46,41385
 945,28; 8733,202;  200,898;18568,873;46,45207
 945,83; 8791,971;  224,975;18574,873;46,68689
 946,39; 8783,894;  214,590;18463,565;46,95773
 946,94; 8748,202;  239,052;18505,642;46,58313
 947,49; 8702,894;  225,590;18264,719;46,99398
 948,04; 8772,356;  248,513;18248,181;47,35555
 948,59; 8769,202;  237,129;18177,258;47,55859
 949,15; 8686,510;  208,898;18127,104;47,31284
 949,70; 8708,125;  211,283;18002,412;47,75887
 950,25; 8635,048;  243,590;17877,258;47,58771
 950,80; 8581,202;  190,129;17786,719;47,68579
 951,36; 8597,894;  188,975;17675,027;48,08930
 951,91; 8677,740;  236,129;17672,027;48,41512
 952,46; 8568,202;  207,821;17485,873;48,38729
 953,01; 8596,433;  238,283;17504,565;48,40735
 953,56; 8579,202;  203,975;17356,642;48,82755
 954,11; 8557,125;  221,283;17362,796;48,62956
 954,67; 8586,510;  214,898;17186,104;49,32833
 955,22; 8542,894;  202,129;17152,181;49,20790
 955,77; 8551,587;  238,437;17072,488;49,38294
 956,32; 8554,663;  267,283;16949,796;49,67705
 956,87; 8426,510;  207,821;16783,565;49,58262
 957,42; 8431,279;  210,206;16742,488;49,72739
 957,98; 8417,125;  209,821;16680,873;49,82866
 958,53; 8447,817;  240,437;16656,335;49,99654
 959,08; 8345,894;  216,283;16515,642;49,87688
 959,63; 8289,510;  214,283;16453,335;49,72721
 960,18; 8342,894;  226,206;16438,873;50,06387
 960,73; 8336,202;  214,513;16331,412;50,39238
 961,28; 8251,894;  206,975;16188,027;50,34036
 961,83; 8231,279;  241,667;16189,565;50,09821
 962,39; 8208,433;  200,129;16034,719;50,57475
 962,94; 8167,740;  231,360;16000,950;50,32712
 963,49; 8095,894;  214,744;15862,104;50,36728
 964,04; 8055,587;  232,052;15809,027;50,22499
 964,59; 8019,587;  199,975;15702,950;50,43943
 965,14; 8036,048;  234,206;15642,412;50,63433
 965,69; 7984,356;  220,129;15507,950;50,78701
 966,24; 7872,740;  213,437;15436,719;50,31309
 966,79; 7894,971;  231,667;15336,258;50,73493
 967,34; 7803,817;  199,052;15212,719;50,65228
 967,89; 7802,894;  209,590;15114,104;50,94634
 968,44; 7751,663;  226,206;15046,565;50,77783
 968,99; 7764,202;  229,052;14984,565;51,06667
 969,55; 7759,048;  227,283;14903,027;51,32118
 970,10; 7738,894;  230,821;14821,642;51,45751
 970,65; 7717,587;  233,513;14703,335;51,72195
 971,20; 7631,817;  210,052;14610,488;51,53847
 971,75; 7639,433;  201,206;14497,181;52,03022
 972,30; 7666,587;  225,898;14445,873;52,32561
 972,85; 7604,279;  206,513;14366,796;52,24306
 973,40; 7505,433;  204,513;14167,565;52,28742
 973,95; 7559,740;  224,360;14185,412;52,54175
 974,50; 7539,894;  248,360;14086,950;52,68987
 975,05; 7510,125;  224,206;13905,642;53,25405
 975,60; 7489,202;  227,667;13878,950;53,19306
 976,15; 7448,817;  216,052;13755,950;53,41817
 976,70; 7428,587;  212,744;13693,335;53,52764
 977,25; 7366,433;  228,667;13616,258;53,31628
 977,80; 7327,510;  212,975;13398,565;53,95689
 978,35; 7257,740;  231,590;13314,796;53,70358
 978,89; 7200,433;  194,667;13252,873;53,65029
 979,44; 7184,663;  216,744;13219,796;53,58680
 979,99; 7109,356;  206,129;13049,488;53,74939
 980,54; 7132,663;  236,513;12988,104;54,08071
 981,09; 7081,433;  238,437;12832,565;54,33481
 981,64; 6991,356;  231,360;12723,488;54,11404
 982,19; 6986,433;  253,667;12714,719;54,03047
 982,74; 6909,663;  233,667;12564,565;54,14039
 983,29; 6829,663;  209,052;12400,027;54,30748
 983,84; 6817,433;  228,513;12303,488;54,56673
 984,39; 6831,279;  277,437;12298,181;54,52110
 984,94; 6675,663;  198,129;12154,719;54,17543
 985,49; 6712,433;  248,667;12060,335;54,72356
 986,03; 6663,587;  239,206;11997,796;54,63564
 986,58; 6629,125;  271,360;11828,565;55,01127
 987,13; 6576,510;  228,898;11728,796;55,19711
 987,68; 6528,971;  239,437;11609,335;55,31742
 988,23; 6532,279;  231,821;11558,027;55,62726
 988,78; 6405,048;  215,283;11352,104;55,57928
 989,33; 6430,433;  235,898;11312,181;55,92612
 989,88; 6424,817;  261,975;11214,412;56,26914
 990,42; 6318,202;  220,667;11102,181;56,03572
 990,97; 6274,894;  220,283;10949,027;56,43355
 991,52; 6265,433;  248,975;10915,027;56,40754
 992,07; 6225,894;  256,667;10801,412;56,60855
 992,62; 6192,048;  241,052;10718,873;56,79612
 993,17; 6154,279;  244,590;10596,104;57,09009
 993,71; 6107,510;  236,744;10508,565;57,15408
 994,26; 6034,663;  220,667;10335,950;57,47735
 994,81; 6049,279;  246,129;10295,027;57,74912
 995,36; 5987,048;  235,052;10137,719;58,08532
 995,91; 5940,510;  228,821;10097,335;57,87790
 996,45; 5937,894;  232,513; 9939,719;58,77470
 997,00; 5845,663;  214,129; 9861,565;58,37338
 997,55; 5795,894;  235,513; 9794,335;58,17015
 998,10; 5735,817;  261,590; 9676,488;58,14430
 998,65; 5696,356;  223,975; 9595,027;58,39665
 999,19; 5638,663;  251,283; 9456,412;58,52586
 999,74; 5607,971;  278,975; 9402,104;58,41194
1000,29; 5524,663;  251,821; 9298,950;58,28194
1000,84; 5498,356;  231,744; 9158,950;58,99507
1001,38; 5452,817;  234,129; 9078,796;59,00378
1001,93; 5467,433;  242,437; 9040,335;59,38914
1002,48; 5353,587;  218,129; 8857,104;59,44522
1003,03; 5360,740;  236,052; 8843,104;59,54058
1003,57; 5294,894;  242,667; 8662,719;60,00233
1004,12; 5281,202;  267,052; 8632,565;59,93834
1004,67; 5171,740;  233,052; 8498,412;59,75165
1005,22; 5085,740;  223,437; 8366,565;59,71051
1005,76; 5017,125;  216,206; 8234,027;59,87810
1006,31; 5078,125;  247,283; 8191,796;60,80728
1006,86; 4984,817;  226,744; 8071,488;60,65300
1007,40; 4887,817;  218,590; 7946,335;60,42160
1007,95; 4920,587;  238,437; 7855,027;61,47304
1008,50; 4806,433;  234,360; 7722,488;61,05762
1009,04; 4739,817;  231,513; 7619,181;61,02473
1009,59; 4685,356;  247,744; 7518,027;61,03768
1010,14; 4609,433;  221,360; 7391,488;61,19936
1010,68; 4543,587;  234,283; 7255,873;61,37219
1011,23; 4482,279;  215,590; 7127,412;61,73031
1011,78; 4431,510;  240,129; 7102,796;61,07510
1012,32; 4387,971;  239,821; 7005,104;61,31525
1012,87; 4393,510;  259,206; 6943,412;61,85183
1013,42; 4263,125;  210,360; 6846,796;61,06840
1013,96; 4303,971;  261,360; 6832,565;61,52009
1014,51; 4198,125;  198,667; 6706,412;61,45690
1015,06; 4232,356;  190,360; 6751,488;61,60519
1015,60; 4300,510;  268,975; 6764,488;62,06645
1016,15; 4200,510;  215,052; 6756,335;60,92777
1016,69; 4237,279;  231,437; 6763,719;61,32377
1017,24; 4217,433;  196,283; 6787,796;61,00496
1017,79; 4290,971;  245,744; 6832,796;61,41180
1018,33; 4294,356;  220,821; 6814,104;61,78310
1018,88; 4324,587;  237,744; 6866,104;61,65692
1019,42; 4338,817;  221,437; 6870,104;61,92791
1019,97; 4303,202;  215,437; 6884,873;61,29102
1020,51; 4370,817;  248,206; 6918,335;61,80707
1021,06; 4329,817;  204,590; 6930,642;61,33207
1021,61; 4330,125;  187,898; 6853,258;62,14559
1022,15; 4282,971;  193,437; 6810,796;61,80010
1022,70; 4295,894;  225,206; 6826,950;61,66080
1023,24; 4269,048;  213,975; 6803,335;61,53971
1023,79; 4247,894;  222,898; 6735,258;61,80550
1024,33; 4238,971;  221,513; 6661,950;62,37866
1024,88; 4186,279;  233,437; 6588,873;62,19624
1025,42; 4157,894;  224,360; 6499,950;62,67991
1025,97; 4101,356;  212,898; 6359,719;63,25965
1026,51; 4006,894;  180,360; 6257,873;62,96217
1027,06; 3965,971;  212,129; 6224,027;62,44022
1027,60; 3961,587;  227,437; 6133,565;63,22500
1028,15; 3902,663;  232,052; 6013,565;63,48877
1028,69; 3782,279;  191,206; 5878,642;63,14045
1029,24; 3753,663;  211,129; 5852,181;62,79918
1029,78; 3680,587;  207,437; 5700,258;63,23071
1030,33; 3633,817;  193,360; 5620,796;63,39010
1030,87; 3593,587;  217,744; 5544,412;63,37626
1031,42; 3541,356;  199,513; 5511,565;62,91057
1031,96; 3505,894;  219,206; 5417,181;63,23017
1032,51; 3444,356;  208,898; 5315,412;63,35943
1033,05; 3443,433;  224,821; 5261,565;63,90262
1033,60; 3331,048;  180,590; 5120,796;63,77179
1034,14; 3329,048;  219,206; 5065,642;64,16761
1034,69; 3275,433;  212,898; 5014,873;63,77656
1035,23; 3256,279;  221,437; 4951,873;64,15565
1035,77; 3209,048;  215,590; 4875,335;64,24082
1036,32; 3138,894;  191,206; 4794,950;64,02807
1036,86; 3118,279;  214,667; 4770,719;63,73087
1037,41; 3062,740;  224,360; 4664,796;63,92121
1037,95; 3023,433;  185,513; 4588,642;64,45233
1038,50; 3005,202;  200,283; 4514,027;65,02285
1039,04; 3015,587;  232,667; 4480,642;65,51167
1039,58; 2926,356;  198,052; 4391,950;65,05413
1040,13; 2877,433;  209,821; 4376,412;64,02385
1040,67; 2890,125;  246,283; 4344,258;64,51582
1041,21; 2841,587;  239,975; 4268,412;64,58117
1041,76; 2784,048;  202,590; 4130,027;65,72882
1042,30; 2766,740;  205,360; 4121,488;65,40594
1042,85; 2743,433;  207,360; 4036,796;66,22575
1043,39; 2691,510;  202,052; 3977,719;65,93424
1043,93; 2668,510;  230,129; 3965,719;65,27431
1044,48; 2612,587;  225,744; 3904,335;64,88470
1045,02; 2582,048;  209,590; 3804,258;65,99937
1045,56; 2562,048;  238,744; 3770,642;65,78060
1046,11; 2552,202;  230,590; 3755,873;65,85604
1046,65; 2498,433;  220,206; 3681,719;65,81592
1047,19; 2472,587;  204,975; 3618,412;66,43192
1047,74; 2419,048;  194,667; 3528,873;66,71396
1048,28; 2409,125;  223,206; 3535,412;65,99588
1048,82; 2414,587;  244,744; 3506,181;66,53026
1049,37; 2340,125;  223,975; 3444,642;65,70533
1049,91; 2326,510;  217,821; 3417,335;65,90654
1050,45; 2319,356;  227,590; 3377,719;66,40253
1050,99; 2292,510;  216,744; 3306,873;67,17407
1051,54; 2267,202;  210,975; 3262,335;67,38724
1052,08; 2233,894;  234,590; 3226,796;66,81706
1052,62; 2218,356;  239,283; 3178,642;67,33008
1053,16; 2172,433;  217,437; 3109,335;67,60253
1053,71; 2168,587;  225,667; 3088,027;67,87824
1054,25; 2131,048;  234,129; 3042,104;67,55471
1054,79; 2111,356;  223,821; 2991,258;68,20516
1055,33; 2050,356;  194,975; 2892,873;68,77134
1055,88; 2065,740;  228,590; 2926,796;68,08784
1056,42; 2066,971;  236,821; 2891,027;68,95283
1056,96; 2021,125;  236,898; 2825,873;68,91634
1057,50; 1984,587;  228,129; 2797,796;68,35351
1058,05; 1952,971;  220,052; 2745,796;68,61024
1058,59; 1933,125;  232,590; 2715,719;68,48354
1059,13; 1895,433;  206,206; 2624,642;69,84789
1059,67; 1887,279;  222,052; 2633,719;69,04878
1060,21; 1872,817;  227,437; 2581,181;69,90482
1060,76; 1843,356;  236,667; 2548,950;69,48495
1061,30; 1819,510;  250,513; 2537,565;68,60343
1061,84; 1780,279;  233,513; 2464,181;69,34093
1062,38; 1736,587;  214,821; 2407,796;69,39274
1062,92; 1770,356;  259,513; 2438,796;69,32750
1063,46; 1699,279;  238,206; 2377,873;68,28506
1064,01; 1675,894;  223,590; 2308,719;69,65056
1064,55; 1661,048;  229,437; 2278,181;69,87751
1065,09; 1629,048;  196,744; 2234,027;70,30462
1065,63; 1644,202;  258,898; 2275,642;68,69011
1066,17; 1636,971;  254,975; 2250,642;69,24983
1066,71; 1607,663;  246,667; 2217,719;69,04923
1067,25; 1582,356;  230,206; 2156,488;70,19479
1067,80; 1575,587;  243,360; 2149,719;69,88330
1068,34; 1567,125;  260,052; 2148,950;69,19765
1068,88; 1531,817;  225,283; 2081,258;70,39613
1069,42; 1543,587;  254,437; 2088,181;70,30152
1069,96; 1504,433;  238,590; 2014,565;71,27591
1070,50; 1501,817;  254,898; 2044,258;69,68522
1071,04; 1455,433;  217,898; 1960,027;71,03577
1071,58; 1456,740;  223,667; 1952,335;71,33085
1072,12; 1435,510;  229,283; 1930,642;70,89782
1072,66; 1422,817;  229,052; 1914,104;70,84443
1073,21; 1419,587;  240,744; 1917,950;70,28609
1073,75; 1389,894;  245,437; 1871,565;70,37927
1074,29; 1362,279;  234,283; 1851,258;69,75965
1074,83; 1387,894;  257,283; 1843,642;71,27082
1075,37; 1353,279;  249,129; 1828,412;69,91465
1075,91; 1348,356;  242,744; 1790,104;71,45149
1076,45; 1328,202;  235,590; 1773,950;71,02446
1076,99; 1316,817;  249,898; 1745,335;71,34500
1077,53; 1292,433;  220,052; 1713,488;71,80625
1078,07; 1274,356;  228,437; 1713,950;70,40793
1078,61; 1270,894;  234,360; 1670,258;72,18720
1079,15; 1225,971;  238,206; 1639,412;70,49396
1079,69; 1227,817;  225,744; 1633,027;71,20624
1080,23; 1243,279;  254,129; 1633,796;71,69482
1080,77; 1257,433;  267,052; 1646,104;71,81606
1081,31; 1184,587;  225,821; 1581,642;70,71474
1081,85; 1223,125;  249,283; 1560,950;74,24461
1082,39; 1177,510;  227,437; 1537,719;72,50902
1082,93; 1175,817;  246,975; 1544,412;71,59058
1083,47; 1143,817;  230,590; 1494,335;72,26359
1084,01; 1149,663;  247,590; 1503,719;71,81374
1084,55; 1120,740;  227,590; 1449,104;73,11831
1085,09; 1129,587;  252,744; 1463,412;72,42636
1085,63; 1103,279;  239,206; 1461,027;70,72009
1086,17; 1090,356;  228,129; 1410,642;72,91477
1086,71; 1076,894;  225,590; 1403,950;72,24483
1087,24; 1087,356;  251,821; 1425,873;71,16675
1087,78; 1074,663;  247,513; 1391,873;72,28060
1088,32; 1049,048;  229,052; 1347,181;73,33646
1088,86; 1073,817;  251,975; 1361,796;74,05178
1089,40; 1050,202;  245,744; 1326,104;74,46203
1089,94; 1006,433;  219,129; 1296,719;73,06151
1090,48;  980,048;  254,744; 1307,642;68,88643
1091,02; 1003,971;  249,667; 1296,796;72,03544
1091,56;  990,048;  248,667; 1270,873;72,52755
1092,10;  965,279;  225,744; 1243,796;72,64213
1092,63;  967,433;  262,821; 1270,335;69,93569
1093,17;  970,894;  257,744; 1241,488;72,49344
1093,71;  944,433;  228,052; 1212,488;72,77064
1094,25;  959,279;  260,821; 1198,642;74,47664
1094,79;  922,125;  236,206; 1177,181;72,89452
1095,33;  910,356;  235,744; 1167,642;72,39113
1095,87;  916,587;  229,667; 1172,104;72,88758
1096,40;  885,356;  218,437; 1133,258;72,90160
1096,94;  899,433;  242,437; 1127,027;74,27123
1097,48;  881,740;  245,283; 1121,258;72,65706
1098,02;  876,048;  233,129; 1089,796;75,04888
1098,56;  825,433;  203,437; 1066,027;72,10794
1099,10;  838,356;  219,206; 1061,412;73,51529
1099,63;  835,663;  203,821; 1055,335;74,20227
1100,17;  852,740;  247,744; 1059,642;74,51627
1100,71;  854,894;  261,667; 1069,719;73,41446

