
Integration time [ms]: 120,000
Averaging Nr. [scans]: 13
Smoothing Nr. [pixels]: 0
Data measured with spectrometer [name]: 2009305U1
Wave   ;Sample   ;Dark     ;Reference;Reflectance
[nm]   ;[counts] ;[counts] ;[counts] ;[%]

 175,72;  209,401;  202,673;  202,814; 0,00000
 176,32;  220,093;  225,431;  219,229; 0,00000
 176,92;  251,642;  241,593;  259,926;54,81642
 177,52;  260,875;  251,671;  258,560;133,61328
 178,12;  233,416;  228,123;  221,690; 0,00000
 178,72;  262,735;  262,428;  250,906; 0,00000
 179,32;  249,077;  256,969;  246,180; 0,00000
 179,92;  250,714;  244,743;  247,528;214,42349
 180,52;  241,194;  240,295;  251,040; 8,37242
 181,12;  253,485;  250,513;  250,351; 0,00000
 181,73;  275,024;  264,591;  277,112;83,33125
 182,33;  349,541;  344,982;  351,462;70,35905
 182,93;  260,967;  260,594;  266,980; 5,84565
 183,53;  241,994;  240,272;  226,189; 0,00000
 184,13;  238,920;  234,428;  232,913; 0,00000
 184,73;  288,515;  272,348;  270,276; 0,00000
 185,33;  273,544;  227,895;  345,845;38,70207
 185,93;  278,056;  241,810;  363,162;29,86821
 186,53;  279,524;  245,969;  383,769;24,35053
 187,13;  316,336;  274,977;  418,310;28,85490
 187,73;  277,504;  236,042;  378,887;29,02553
 188,33;  280,436;  240,114;  373,931;30,13169
 188,93;  282,908;  258,330;  373,870;21,27155
 189,53;  287,184;  257,396;  374,368;25,46595
 190,13;  334,512;  277,224;  424,265;38,96087
 190,73;  263,161;  216,698;  365,464;31,23207
 191,34;  310,040;  258,249;  403,767;35,59077
 191,94;  277,229;  218,263;  371,997;38,35559
 192,54;  296,714;  243,523;  387,787;36,87119
 193,14;  297,012;  247,900;  396,592;33,02939
 193,74;  289,871;  257,129;  400,532;22,83231
 194,34;  284,861;  240,671;  386,728;30,25523
 194,94;  259,258;  220,361;  356,781;28,51245
 195,54;  244,006;  204,742;  327,334;32,02864
 196,14;  266,371;  227,827;  378,689;25,54942
 196,74;  244,696;  222,971;  359,044;15,96581
 197,34;  242,394;  197,063;  371,027;26,05768
 197,94;  260,429;  228,132;  384,373;20,67131
 198,54;  257,279;  235,596;  395,794;13,53502
 199,14;  257,321;  219,374;  388,308;22,46295
 199,74;  240,229;  202,220;  401,273;19,09506
 200,34;  236,892;  196,990;  393,795;20,27493
 200,94;  279,792;  228,446;  426,289;25,95292
 201,54;  258,596;  204,218;  443,961;22,68172
 202,14;  279,342;  229,608;  481,986;19,70604
 202,74;  278,136;  219,912;  475,274;22,80077
 203,34;  261,239;  188,920;  492,839;23,79572
 203,94;  240,728;  167,224;  499,348;22,13128
 204,54;  315,307;  245,363;  589,973;20,29644
 205,14;  282,921;  199,220;  600,798;20,84315
 205,74;  316,423;  236,688;  696,371;17,34568
 206,34;  286,880;  209,069;  707,819;15,60113
 206,94;  310,078;  215,837;  774,562;16,86712
 207,54;  281,402;  180,146;  806,666;16,16174
 208,14;  308,050;  214,378;  884,062;13,98753
 208,74;  327,905;  211,373;  951,337;15,74835
 209,34;  330,076;  194,759; 1045,915;15,89803
 209,94;  352,937;  216,528; 1149,937;14,61409
 210,54;  373,098;  213,302; 1239,675;15,56900
 211,14;  382,967;  218,374; 1375,700;14,22190
 211,73;  391,257;  201,448; 1478,977;14,85747
 212,33;  415,577;  217,908; 1586,632;14,44184
 212,93;  403,705;  205,834; 1714,331;13,11706
 213,53;  398,198;  178,220; 1776,071;13,76713
 214,13;  422,136;  200,076; 1832,252;13,60511
 214,73;  405,496;  190,377; 1872,755;12,78656
 215,33;  404,399;  173,143; 1893,014;13,44609
 215,93;  456,423;  201,842; 2020,959;13,99476
 216,53;  425,874;  158,603; 2108,122;13,70955
 217,13;  505,529;  216,302; 2311,821;13,80215
 217,73;  520,162;  194,611; 2514,042;14,03579
 218,33;  538,460;  147,770; 2710,446;15,24541
 218,93;  611,180;  176,163; 3006,310;15,37083
 219,53;  655,676;  183,770; 3305,411;15,11724
 220,13;  696,694;  156,541; 3596,351;15,70298
 220,73;  780,907;  191,836; 3941,482;15,71004
 221,32;  861,982;  182,912; 4363,260;16,24435
 221,92;  934,416;  190,848; 4775,100;16,22005
 222,52; 1026,639;  174,227; 5205,811;16,94123
 223,12; 1102,363;  171,612; 5659,397;16,96041
 223,72; 1206,348;  195,843; 6067,054;17,21118
 224,32; 1289,872;  201,998; 6450,584;17,40992
 224,92; 1338,379;  183,767; 6756,102;17,56777
 225,52; 1466,448;  200,684; 7072,450;18,41978
 226,12; 1495,990;  193,225; 7427,116;18,00919
 226,72; 1567,143;  164,840; 7739,306;18,51356
 227,31; 1626,189;  160,994; 8128,208;18,39031
 227,91; 1744,816;  178,452; 8522,116;18,77309
 228,51; 1822,024;  181,909; 8913,420;18,78387
 229,11; 1930,127;  182,301; 9324,768;19,11767
 229,71; 2016,304;  175,219; 9553,884;19,63057
 230,31; 2109,551;  170,000;10006,581;19,71774
 230,91; 2178,944;  162,060;10330,474;19,83479
 231,51; 2268,285;  162,304;10694,483;19,99568
 232,10; 2374,030;  171,616;11055,467;20,23561
 232,70; 2461,322;  189,671;11322,958;20,40414
 233,30; 2569,084;  200,534;11530,911;20,90442
 233,90; 2598,207;  179,764;11686,583;21,01747
 234,50; 2669,269;  181,534;11918,588;21,19557
 235,10; 2724,302;  166,536;11994,333;21,62504
 235,70; 2788,200;  187,221;12088,487;21,85464
 236,29; 2795,151;  187,988;12111,897;21,86500
 236,89; 2767,175;  166,599;12029,823;21,92133
 237,49; 2789,436;  197,687;11971,528;22,01278
 238,09; 2748,342;  176,993;11716,511;22,28298
 238,69; 2762,971;  218,442;11547,115;22,46096
 239,29; 2686,571;  172,223;11220,918;22,75697
 239,89; 2614,898;  193,907;10971,228;22,46376
 240,48; 2563,080;  176,531;10591,259;22,91513
 241,08; 2422,663;  175,145;10224,619;22,36453
 241,68; 2380,634;  196,993; 9925,720;22,44529
 242,28; 2287,222;  168,918; 9604,373;22,45047
 242,88; 2205,274;  214,538; 9311,832;21,88273
 243,48; 2125,528;  207,533; 8999,871;21,81440
 244,07; 2042,631;  190,298; 8722,403;21,71015
 244,67; 1965,712;  200,070; 8626,684;20,95316
 245,27; 1903,257;  198,602; 8464,284;20,62328
 245,87; 1835,273;  202,768; 8392,547;19,93345
 246,47; 1819,826;  190,295; 8414,382;19,81413
 247,06; 1769,402;  179,146; 8363,177;19,43121
 247,66; 1726,865;  176,685; 8450,657;18,73562
 248,26; 1712,427;  217,295; 8599,618;17,83672
 248,86; 1700,257;  200,757; 8748,312;17,54304
 249,46; 1663,146;  157,457; 8985,134;17,05646
 250,05; 1710,572;  203,377; 9328,022;16,51785
 250,65; 1679,794;  168,832; 9752,153;15,76658
 251,25; 1708,862;  174,760;10184,430;15,32620
 251,85; 1721,160;  191,137;10734,774;14,51133
 252,44; 1750,413;  155,835;11399,855;14,18157
 253,04; 1860,830;  197,451;12181,097;13,88041
 253,64; 1867,701;  155,678;12806,281;13,53313
 254,24; 1986,510;  195,146;13819,981;13,14779
 254,84; 2036,454;  170,996;14760,980;12,78588
 255,43; 2127,936;  175,527;15673,602;12,59775
 256,03; 2219,347;  178,063;16632,867;12,40540
 256,63; 2299,298;  183,214;17740,187;12,05267
 257,23; 2370,129;  177,907;18504,473;11,96199
 257,82; 2493,401;  190,672;19507,424;11,92089
 258,42; 2514,536;  145,747;20302,163;11,75204
 259,02; 2698,522;  190,682;21198,699;11,93754
 259,62; 2721,996;  173,669;21930,235;11,71291
 260,21; 2796,582;  179,989;22397,750;11,77704
 260,81; 2880,636;  187,994;22933,955;11,83789
 261,41; 2914,815;  162,594;23400,776;11,84353
 262,01; 3040,056;  205,975;23824,308;11,99949
 262,60; 3049,206;  158,984;24167,088;12,03853
 263,20; 3164,795;  164,756;24460,117;12,34820
 263,80; 3216,517;  201,359;24601,526;12,35712
 264,40; 3230,211;  163,976;24723,670;12,48482
 264,99; 3364,408;  187,974;24932,785;12,83677
 265,59; 3417,278;  179,353;25036,733;13,02601
 266,19; 3491,809;  165,821;25188,490;13,29190
 266,78; 3624,159;  212,895;25312,266;13,59103
 267,38; 3657,741;  186,739;25277,200;13,83395
 267,98; 3725,359;  172,049;25385,041;14,09317
 268,58; 3784,248;  188,354;25331,948;14,30143
 269,17; 3883,596;  171,427;25344,257;14,74673
 269,77; 3911,235;  191,520;25145,525;14,90628
 270,37; 3917,485;  163,205;25022,926;15,10186
 270,96; 4031,539;  215,441;24936,068;15,43690
 271,56; 4031,806;  174,753;24681,858;15,73851
 272,16; 4079,184;  178,979;24415,776;16,09208
 272,75; 4125,246;  177,210;24341,755;16,33814
 273,35; 4213,663;  187,057;24250,780;16,73310
 273,95; 4261,923;  186,287;24241,027;16,94317
 274,54; 4376,648;  175,300;24275,778;17,43264
 275,14; 4475,771;  200,519;24642,891;17,49115
 275,74; 4555,846;  153,825;24701,154;17,93279
 276,33; 4704,650;  213,136;25015,994;18,10886
 276,93; 4838,112;  195,455;25489,552;18,35471
 277,53; 4978,751;  185,065;26006,631;18,56466
 278,12; 5152,469;  172,215;26618,996;18,83123
 278,72; 5408,012;  216,219;27075,304;19,32975
 279,32; 5590,042;  186,064;27665,976;19,66519
 279,91; 5775,271;  164,832;28374,510;19,88835
 280,51; 5971,244;  172,373;28907,973;20,18009
 281,11; 6229,317;  183,525;29638,489;20,52555
 281,70; 6405,301;  165,370;30074,476;20,86298
 282,30; 6639,652;  181,214;30776,550;21,10922
 282,90; 6830,298;  178,752;31071,250;21,53126
 283,49; 7070,802;  191,519;31703,206;21,83089
 284,09; 7332,300;  213,908;32174,372;22,27249
 284,69; 7528,703;  201,602;32551,480;22,64955
 285,28; 7800,777;  201,523;32877,715;23,25624
 285,88; 7976,907;  235,209;33144,707;23,52420
 286,47; 8116,698;  184,368;33220,054;24,01140
 287,07; 8319,057;  209,679;33248,088;24,54530
 287,67; 8575,836;  204,456;33355,794;25,25201
 288,26; 8736,888;  172,448;33241,410;25,89872
 288,86; 8974,577;  179,754;33428,826;26,45133
 289,46; 9231,779;  192,063;33471,747;27,16287
 290,05; 9524,647;  174,837;33601,850;27,97082
 290,65; 9809,143;  180,521;33802,888;28,63755
 291,24;10147,735;  188,988;33879,003;29,55994
 291,84;10396,067;  206,368;34112,571;30,05261
 292,44;10691,160;  191,072;34235,115;30,84266
 293,03;11088,719;  241,449;34378,031;31,77609
 293,63;11341,421;  179,598;34411,921;32,60609
 294,22;11583,871;  205,832;34641,153;33,04177
 294,82;11837,319;  186,438;34577,243;33,87790
 295,41;11918,916;  169,832;34333,169;34,39092
 296,01;12134,429;  219,286;34338,309;34,92229
 296,61;12183,735;  198,218;34063,374;35,39188
 297,20;12101,784;  189,978;33632,022;35,61925
 297,80;12199,864;  203,223;33573,652;35,94992
 298,39;12155,698;  174,983;33088,159;36,40097
 298,99;12173,416;  220,749;32950,935;36,51879
 299,58;12192,881;  203,609;32750,873;36,83650
 300,18;12252,016;  204,683;32613,290;37,17325
 300,78;12116,121;  186,527;32260,315;37,19422
 301,37;12082,823;  187,512;32215,892;37,13991
 301,97;12111,441;  196,140;32287,880;37,12887
 302,56;12135,066;  183,983;32152,209;37,38426
 303,16;12097,357;  173,212;32088,694;37,36163
 303,75;12087,599;  183,605;32134,495;37,25716
 304,35;12238,132;  179,766;32333,153;37,50263
 304,94;12270,241;  186,064;32333,222;37,59019
 305,54;12267,213;  204,604;32260,260;37,63020
 306,13;12161,963;  168,074;32186,516;37,45932
 306,73;12063,037;  162,995;32020,506;37,35396
 307,33;12075,297;  202,378;31912,690;37,44182
 307,92;11988,289;  194,757;32025,129;37,05119
 308,52;12185,679;  158,596;32481,024;37,20971
 309,11;12281,674;  179,977;32994,471;36,87912
 309,71;12406,763;  160,590;33237,434;37,02340
 310,30;12442,919;  174,218;33455,381;36,86380
 310,90;12524,227;  210,295;33790,920;36,66975
 311,49;12487,518;  182,833;33948,536;36,44137
 312,09;12557,740;  159,914;34164,542;36,45923
 312,68;12681,890;  230,450;34592,532;36,23599
 313,28;12601,673;  166,988;34646,206;36,06429
 313,87;12590,026;  156,910;34788,836;35,90074
 314,47;12663,568;  172,902;35029,917;35,83401
 315,06;12554,058;  163,065;35299,219;35,26565
 315,66;12571,124;  164,914;35459,619;35,15034
 316,25;12422,219;  156,982;35359,386;34,84204
 316,85;12411,278;  158,914;35417,171;34,75034
 317,44;12354,521;  178,747;35551,114;34,42171
 318,04;12206,175;  157,214;35579,271;34,01542
 318,63;12146,591;  155,072;35726,555;33,71105
 319,22;12111,835;  181,905;35905,413;33,39518
 319,82;11966,761;  167,754;35877,499;33,04142
 320,41;11883,589;  187,829;35789,622;32,85161
 321,01;11752,200;  194,144;35985,116;32,29322
 321,60;11659,869;  183,216;36034,226;32,01208
 322,20;11496,474;  171,834;36012,471;31,59721
 322,79;11460,843;  204,065;36081,114;31,37599
 323,39;11329,039;  165,535;36264,448;30,92477
 323,98;11142,982;  162,373;36174,645;30,49130
 324,58;11021,541;  169,212;36082,534;30,21812
 325,17;10846,881;  180,674;35980,084;29,79436
 325,76;10705,087;  196,525;35776,620;29,53495
 326,36;10444,231;  163,298;35371,970;29,20000
 326,95;10289,778;  198,754;35069,435;28,93842
 327,55;10005,361;  161,138;34641,898;28,54990
 328,14; 9765,603;  174,762;34387,672;28,03281
 328,74; 9575,004;  192,213;33867,091;27,86288
 329,33; 9366,600;  190,298;33500,292;27,54819
 329,92; 9049,244;  162,978;33018,813;27,04623
 330,52; 8781,373;  185,147;32312,238;26,75694
 331,11; 8561,808;  168,446;31877,121;26,47024
 331,71; 8308,271;  182,371;31285,125;26,12598
 332,30; 8049,780;  205,371;30798,837;25,64080
 332,89; 7880,968;  233,836;30230,908;25,49293
 333,49; 7612,870;  194,370;29681,099;25,15878
 334,08; 7389,499;  181,061;29290,311;24,76339
 334,68; 7153,084;  180,908;28844,380;24,32426
 335,27; 7025,512;  199,148;28509,180;24,11288
 335,86; 6858,962;  240,446;28279,505;23,60463
 336,46; 6666,159;  197,917;27999,599;23,26565
 337,05; 6486,700;  182,908;27786,484;22,83687
 337,65; 6352,253;  165,677;27644,737;22,51379
 338,24; 6311,782;  223,681;27624,652;22,21856
 338,83; 6236,029;  197,758;27574,945;22,05585
 339,43; 6148,404;  171,674;27464,343;21,89866
 340,02; 6042,311;  179,828;27356,946;21,57139
 340,61; 5938,197;  174,680;27473,017;21,11307
 341,21; 5896,697;  205,367;27452,091;20,88813
 341,80; 5798,622;  178,753;27378,828;20,66123
 342,40; 5729,465;  184,455;27491,454;20,30619
 342,99; 5684,199;  182,451;27617,523;20,05370
 343,58; 5573,908;  183,298;27786,907;19,52864
 344,18; 5579,416;  195,298;27881,312;19,44707
 344,77; 5529,111;  176,058;28227,568;19,08294
 345,36; 5528,701;  168,447;28489,512;18,92674
 345,96; 5535,785;  195,298;28794,851;18,67332
 346,55; 5482,532;  166,843;29047,867;18,40547
 347,14; 5484,819;  165,455;29447,062;18,16623
 347,74; 5449,139;  151,771;29812,017;17,86016
 348,33; 5513,584;  171,462;30503,914;17,61190
 348,92; 5598,543;  191,928;31151,410;17,46352
 349,52; 5610,356;  155,541;31617,050;17,33806
 350,11; 5554,987;  183,519;31846,779;16,96435
 350,70; 5501,920;  180,680;31873,408;16,79010
 351,29; 5413,436;  155,818;31621,476;16,70907
 351,89; 5352,582;  185,362;31699,576;16,39647
 352,48; 5267,489;  158,680;31723,262;16,18526
 353,07; 5218,067;  175,148;31659,396;16,01728
 353,67; 5185,374;  186,851;31579,556;15,92256
 354,26; 5047,912;  189,455;31300,726;15,61639
 354,85; 4991,863;  179,607;31184,856;15,52078
 355,45; 4894,929;  158,753;31068,172;15,32276
 356,04; 4864,960;  171,610;30902,801;15,27227
 356,63; 4797,963;  197,062;30688,623;15,08909
 357,22; 4733,977;  185,820;30543,010;14,98214
 357,82; 4645,688;  191,976;30352,412;14,76674
 358,41; 4648,964;  202,294;30250,845;14,79828
 359,00; 4515,419;  168,982;29995,238;14,57252
 359,60; 4497,997;  188,065;30018,757;14,44798
 360,19; 4445,145;  182,611;29786,862;14,39839
 360,78; 4413,530;  194,523;29616,870;14,33947
 361,37; 4353,054;  178,985;29418,142;14,27561
 361,97; 4335,471;  196,986;29340,258;14,20048
 362,56; 4245,371;  175,365;29036,458;14,10205
 363,15; 4235,930;  220,907;28797,122;14,05023
 363,74; 4157,338;  188,056;28358,776;14,09010
 364,34; 4078,265;  197,905;28033,378;13,94034
 364,93; 3998,678;  172,211;27588,802;13,95676
 365,52; 3923,269;  153,908;27112,428;13,98208
 366,11; 3877,281;  173,982;26848,518;13,88327
 366,71; 3818,758;  170,598;26452,336;13,88097
 367,30; 3772,977;  172,370;26109,029;13,88231
 367,89; 3782,709;  227,607;25897,457;13,84933
 368,48; 3720,692;  186,594;25524,475;13,94788
 369,07; 3685,304;  179,603;25048,562;14,09669
 369,67; 3633,124;  197,980;24801,124;13,96222
 370,26; 3611,659;  178,219;24544,953;14,09068
 370,85; 3548,792;  183,216;24214,610;14,00492
 371,44; 3529,071;  179,601;23966,503;14,08115
 372,03; 3496,511;  168,751;23732,350;14,12246
 372,63; 3471,624;  156,293;23380,987;14,27503
 373,22; 3486,211;  176,834;23073,486;14,45354
 373,81; 3429,469;  157,139;22784,407;14,46189
 374,40; 3407,541;  177,916;22525,182;14,45199
 374,99; 3392,468;  172,445;22297,340;14,55384
 375,59; 3342,418;  164,453;22014,855;14,54419
 376,18; 3398,299;  194,753;21910,702;14,75204
 376,77; 3377,487;  189,140;21655,398;14,85283
 377,36; 3392,285;  198,292;21627,694;14,90472
 377,95; 3383,651;  193,213;21311,650;15,10736
 378,55; 3375,508;  166,683;21149,809;15,29241
 379,14; 3384,038;  196,908;21141,953;15,21663
 379,73; 3418,697;  184,137;20977,656;15,55562
 380,32; 3469,717;  192,832;20964,307;15,77589
 380,91; 3432,708;  164,133;20836,090;15,81164
 381,50; 3505,510;  190,981;20822,730;16,06519
 382,10; 3498,179;  169,601;20675,846;16,23202
 382,69; 3488,992;  156,908;20648,499;16,26074
 383,28; 3577,480;  201,674;20597,764;16,55124
 383,87; 3548,757;  171,981;20438,512;16,66183
 384,46; 3606,365;  168,284;20395,775;16,99707
 385,05; 3657,417;  201,058;20345,605;17,15779
 385,64; 3667,819;  173,290;20372,133;17,30064
 386,24; 3658,395;  160,207;20337,384;17,33735
 386,83; 3776,179;  204,283;20341,147;17,73809
 387,42; 3811,174;  197,982;20443,755;17,84665
 388,01; 3910,957;  187,663;20722,576;18,13153
 388,60; 3976,966;  185,669;20944,242;18,26376
 389,19; 4047,241;  171,195;21150,735;18,47536
 389,78; 4165,951;  177,043;21370,802;18,82114
 390,37; 4323,499;  234,666;21847,997;18,91811
 390,96; 4363,133;  180,052;22023,426;19,15034
 391,56; 4452,300;  184,039;22139,320;19,44070
 392,15; 4537,614;  169,582;22411,555;19,63869
 392,74; 4597,565;  150,800;22583,063;19,82308
 393,33; 4775,514;  174,192;22846,524;20,29488
 393,92; 4887,898;  192,027;23328,953;20,29600
 394,51; 5021,406;  174,577;23483,413;20,79396
 395,10; 5117,081;  210,938;23741,130;20,85042
 395,69; 5190,869;  191,709;23890,302;21,09475
 396,28; 5298,890;  189,164;24005,657;21,45457
 396,87; 5366,629;  197,000;24049,721;21,67312
 397,46; 5439,327;  196,915;24168,127;21,86961
 398,06; 5590,699;  211,983;24401,439;22,23579
 398,65; 5607,793;  191,424;24435,851;22,34068
 399,24; 5730,572;  197,112;24662,782;22,61724
 399,83; 5769,451;  175,619;24707,790;22,80203
 400,42; 5927,996;  214,283;24793,714;23,24591
 401,01; 5976,089;  189,019;24914,542;23,40525
 401,60; 6038,182;  199,975;24900,798;23,63568
 402,19; 6134,579;  220,863;24849,078;24,01196
 402,78; 6187,904;  222,501;24901,088;24,17239
 403,37; 6227,679;  204,834;24741,548;24,54626
 403,96; 6214,811;  203,697;24609,990;24,62936
 404,55; 6306,241;  211,322;24417,879;25,17879
 405,14; 6292,418;  194,415;24293,260;25,30413
 405,73; 6304,566;  207,883;24275,116;25,33188
 406,32; 6409,684;  205,219;24131,352;25,93175
 406,91; 6363,807;  198,856;23904,980;26,00573
 407,50; 6387,629;  207,674;23733,268;26,26907
 408,09; 6369,001;  183,730;23420,189;26,61882
 408,68; 6437,227;  192,793;23255,197;27,07625
 409,27; 6408,438;  185,273;23146,454;27,10298
 409,86; 6423,405;  197,701;22960,388;27,35048
 410,45; 6513,579;  238,122;22919,365;27,66805
 411,04; 6570,399;  238,082;22843,339;28,01259
 411,63; 6519,928;  211,592;22600,535;28,17612
 412,22; 6493,020;  218,021;22288,056;28,43221
 412,81; 6499,903;  223,652;22056,752;28,74650
 413,40; 6431,915;  235,979;21728,740;28,82801
 413,99; 6491,568;  260,589;21397,851;29,47865
 414,58; 6330,712;  202,285;21003,304;29,46215
 415,17; 6337,349;  218,036;20759,640;29,78985
 415,76; 6333,633;  210,789;20711,639;29,86630
 416,35; 6282,199;  191,259;20454,580;30,05894
 416,94; 6420,931;  230,023;20514,156;30,52094
 417,53; 6522,397;  201,576;20800,791;30,68477
 418,12; 6630,234;  201,580;20827,937;31,16718
 418,71; 6776,978;  220,980;21186,040;31,27107
 419,30; 6879,759;  211,736;21228,228;31,72757
 419,89; 6982,410;  194,893;21434,172;31,95738
 420,48; 7110,439;  237,442;21733,900;31,97270
 421,07; 7191,890;  215,368;21822,005;32,28879
 421,66; 7262,657;  188,454;21846,735;32,66281
 422,25; 7293,327;  208,395;21852,910;32,73315
 422,84; 7342,101;  225,783;21737,539;33,08107
 423,43; 7304,675;  215,391;21508,323;33,29407
 424,02; 7327,742;  233,317;21253,813;33,75003
 424,60; 7185,894;  215,646;20826,513;33,81832
 425,19; 7136,386;  213,481;20615,233;33,93290
 425,78; 7194,511;  234,251;20400,833;34,51383
 426,37; 7189,783;  238,797;20253,664;34,72911
 426,96; 7178,691;  222,105;20170,398;34,87309
 427,55; 7149,661;  211,732;20039,514;34,99095
 428,14; 7157,730;  203,353;19811,972;35,46592
 428,73; 7103,285;  204,266;19667,866;35,44575
 429,32; 7152,412;  222,719;19620,862;35,72349
 429,91; 7223,271;  242,190;19615,704;36,03415
 430,50; 7182,602;  231,888;19457,006;36,15434
 431,08; 7146,595;  221,587;19289,596;36,31742
 431,67; 7149,911;  259,438;19255,284;36,27358
 432,26; 7162,164;  261,905;19013,763;36,79774
 432,85; 7082,362;  275,980;18644,633;37,05433
 433,44; 6963,819;  279,142;18309,281;37,07502
 434,03; 6898,973;  303,076;17873,504;37,53976
 434,62; 6781,128;  254,220;17499,553;37,84739
 435,21; 6701,809;  270,981;17245,806;37,88450
 435,79; 6659,429;  249,226;17166,079;37,89241
 436,38; 6654,936;  252,083;16985,729;38,26334
 436,97; 6663,507;  247,930;16873,153;38,58942
 437,56; 6610,052;  255,023;16748,946;38,52952
 438,15; 6617,939;  235,558;16658,115;38,86350
 438,74; 6666,479;  265,790;16633,993;39,10441
 439,33; 6669,584;  241,711;16658,018;39,15541
 439,91; 6690,548;  221,026;16713,130;39,22800
 440,50; 6827,903;  271,565;16805,548;39,65371
 441,09; 6842,561;  262,189;16895,628;39,56110
 441,68; 6839,359;  241,660;16963,225;39,45623
 442,27; 6905,784;  233,887;16851,869;40,14866
 442,86; 6879,950;  203,599;16819,088;40,18149
 443,44; 6956,868;  227,595;16931,893;40,28468
 444,03; 7040,028;  271,446;16995,269;40,47269
 444,62; 6973,935;  226,600;16879,912;40,51648
 445,21; 6925,317;  245,366;16666,519;40,67894
 445,80; 6966,039;  265,147;16604,455;41,01087
 446,39; 6875,621;  268,760;16364,850;41,04637
 446,97; 6762,038;  227,772;16116,035;41,12637
 447,56; 6698,482;  218,705;15890,562;41,34658
 448,15; 6657,192;  228,618;15759,022;41,39348
 448,74; 6558,486;  257,389;15456,208;41,45781
 449,33; 6554,526;  235,088;15347,125;41,81725
 449,91; 6474,879;  238,175;15103,327;41,95520
 450,50; 6408,199;  230,558;14860,535;42,22591
 451,09; 6386,693;  234,097;14801,560;42,23519
 451,68; 6392,146;  259,410;14724,733;42,39612
 452,26; 6344,952;  251,953;14609,451;42,43775
 452,85; 6328,164;  230,104;14421,058;42,97146
 453,44; 6290,168;  243,810;14491,666;42,43697
 454,03; 6340,895;  217,417;14426,473;43,09560
 454,61; 6310,554;  230,811;14415,041;42,86269
 455,20; 6452,161;  245,893;14580,549;43,29555
 455,79; 6424,656;  254,961;14556,496;43,14009
 456,38; 6504,294;  252,439;14684,904;43,31800
 456,97; 6543,999;  237,283;14765,098;43,41132
 457,55; 6536,023;  240,597;14742,400;43,41133
 458,14; 6549,119;  249,512;14730,724;43,50193
 458,73; 6515,332;  247,136;14630,007;43,58098
 459,31; 6599,821;  265,453;14709,332;43,85503
 459,90; 6623,537;  278,294;14787,950;43,73118
 460,49; 6716,272;  316,676;14902,291;43,87608
 461,08; 6666,319;  239,457;14907,869;43,81430
 461,66; 6745,666;  248,298;15049,536;43,89747
 462,25; 6770,663;  251,999;15121,148;43,84019
 462,84; 6819,167;  277,304;15109,398;44,10613
 463,43; 6791,122;  215,394;15085,289;44,22175
 464,01; 6819,497;  248,782;15117,756;44,19078
 464,60; 6830,933;  291,775;15077,974;44,22474
 465,19; 6656,239;  228,247;14843,912;43,98016
 465,77; 6705,738;  248,251;14804,322;44,36284
 466,36; 6686,138;  262,163;14688,107;44,53071
 466,95; 6527,339;  245,856;14414,014;44,33521
 467,53; 6434,623;  250,795;14096,619;44,66204
 468,12; 6306,824;  284,642;13785,386;44,60630
 468,71; 6220,733;  249,478;13594,462;44,74531
 469,29; 6107,518;  227,721;13304,237;44,96456
 469,88; 5962,770;  237,801;13053,236;44,67245
 470,47; 6113,458;  300,502;13186,269;45,11145
 471,06; 6022,859;  263,195;13153,729;44,68134
 471,64; 6088,886;  248,577;13220,818;45,02159
 472,23; 6079,001;  221,439;13272,338;44,88244
 472,81; 6140,221;  220,431;13340,822;45,11900
 473,40; 6203,355;  234,747;13485,729;45,04276
 473,99; 6344,694;  335,209;13697,135;44,97469
 474,57; 6377,185;  245,516;13793,499;45,25891
 475,16; 6435,639;  253,433;13941,336;45,16547
 475,75; 6533,055;  273,676;14125,956;45,18664
 476,33; 6590,449;  271,682;14198,006;45,37283
 476,92; 6616,680;  275,979;14259,027;45,34563
 477,51; 6624,799;  265,064;14328,410;45,22206
 478,09; 6649,168;  257,910;14312,913;45,47319
 478,68; 6623,218;  273,913;14221,761;45,52175
 479,27; 6698,825;  287,599;14305,290;45,73667
 479,85; 6673,756;  257,605;14283,426;45,74528
 480,44; 6701,652;  254,839;14418,392;45,51692
 481,02; 7350,552;  255,537;15815,136;45,59896
 481,61; 8338,226;  283,919;17873,001;45,79151
 482,20; 8867,091;  255,691;19099,150;45,69968
 482,78; 9294,805;  299,453;19992,311;45,67824
 483,37; 9506,688;  278,699;20533,405;45,55973
 483,95; 9683,721;  304,393;20791,766;45,78102
 484,54; 9763,686;  317,687;21021,241;45,62501
 485,13; 9758,977;  274,631;20883,675;46,02031
 485,71; 9580,773;  255,552;20621,442;45,78843
 486,30; 9549,066;  284,013;20314,022;46,25586
 486,88; 9368,407;  322,246;19987,396;46,00098
 487,47; 9051,825;  301,556;19228,616;46,23153
 488,05; 8678,583;  276,713;18322,323;46,55908
 488,64; 8067,392;  297,104;17030,624;46,43547
 489,23; 7218,401;  304,637;15145,886;46,58478
 489,81; 6143,542;  299,947;12970,050;46,12114
 490,40; 5812,067;  248,179;12323,096;46,07807
 490,98; 5666,071;  239,182;12008,747;46,10951
 491,57; 5660,048;  273,023;11980,192;46,01476
 492,15; 5588,734;  253,952;11882,885;45,87508
 492,74; 5540,969;  260,944;11757,133;45,92848
 493,32; 5510,701;  277,412;11662,063;45,96793
 493,91; 5456,754;  263,340;11601,767;45,80366
 494,50; 5419,708;  262,198;11572,590;45,59975
 495,08; 5376,954;  241,813;11485,521;45,67124
 495,67; 5411,368;  272,570;11503,391;45,75621
 496,25; 5305,039;  224,038;11384,741;45,52581
 496,84; 5322,090;  231,646;11343,679;45,81020
 497,42; 5289,842;  221,502;11293,373;45,77672
 498,01; 5282,277;  249,648;11233,564;45,81817
 498,59; 5173,612;  227,811;11193,057;45,10434
 499,18; 5180,340;  225,572;11124,262;45,46205
 499,76; 5154,885;  260,115;11101,294;45,14980
 500,35; 5067,682;  245,432;10862,542;45,41961
 500,93; 5009,057;  241,963;10813,297;45,09453
 501,52; 4997,074;  238,734;10757,351;45,23732
 502,10; 4992,934;  261,129;10747,595;45,12297
 502,69; 4927,171;  242,363;10559,944;45,40607
 503,27; 4827,340;  227,429;10349,820;45,44293
 503,86; 4799,968;  233,977;10292,458;45,39444
 504,44; 4717,681;  224,981;10143,073;45,29803
 505,03; 4627,620;  207,673; 9910,660;45,55243
 505,61; 4563,218;  228,441; 9867,810;44,96951
 506,19; 4497,635;  250,134; 9720,605;44,84994
 506,78; 4356,247;  215,912; 9514,755;44,52526
 507,36; 4318,219;  224,980; 9341,724;44,89803
 507,95; 4256,929;  231,532; 9195,965;44,90409
 508,53; 4172,231;  226,066; 9043,616;44,75353
 509,12; 4125,419;  230,530; 8892,813;44,96377
 509,70; 4048,038;  257,455; 8769,488;44,53205
 510,29; 4002,797;  247,459; 8619,416;44,85615
 510,87; 3861,354;  229,989; 8412,749;44,37824
 511,46; 3789,280;  219,298; 8211,179;44,67010
 512,04; 3731,917;  224,918; 8099,680;44,53466
 512,62; 3663,111;  237,914; 7993,451;44,16453
 513,21; 3561,506;  213,229; 7789,415;44,19475
 513,79; 3508,755;  220,165; 7669,221;44,14773
 514,38; 3426,256;  209,315; 7499,517;44,12691
 514,96; 3401,255;  244,391; 7433,540;43,91151
 515,54; 3316,197;  212,778; 7283,317;43,89226
 516,13; 3290,706;  226,779; 7157,826;44,20584
 516,71; 3209,483;  215,862; 7056,039;43,76526
 517,30; 3153,613;  208,251; 6931,959;43,80561
 517,88; 3132,012;  234,174; 6882,673;43,58635
 518,46; 3039,246;  213,022; 6747,913;43,24822
 519,05; 3016,698;  225,718; 6659,507;43,38003
 519,63; 3035,633;  224,178; 6659,420;43,68842
 520,22; 2986,798;  243,724; 6564,271;43,39932
 520,80; 2925,938;  227,494; 6466,969;43,24793
 521,38; 2927,283;  257,027; 6436,694;43,21036
 521,97; 2877,082;  218,883; 6429,178;42,80310
 522,55; 2887,497;  235,575; 6443,647;42,71732
 523,13; 2828,486;  216,732; 6398,186;42,25145
 523,72; 2850,030;  224,330; 6381,243;42,64639
 524,30; 2903,060;  239,351; 6545,207;42,24183
 524,89; 2882,529;  207,114; 6567,260;42,06530
 525,47; 2925,693;  238,660; 6665,749;41,80793
 526,05; 2944,986;  213,276; 6727,615;41,93381
 526,64; 2996,420;  229,356; 6855,141;41,76206
 527,22; 3040,077;  232,121; 6943,659;41,83774
 527,80; 3136,081;  269,432; 7065,555;42,18066
 528,39; 3109,178;  226,435; 7190,884;41,39226
 528,97; 3199,929;  226,510; 7359,112;41,68772
 529,55; 3255,132;  234,655; 7559,822;41,23424
 530,14; 3369,996;  257,130; 7734,782;41,62893
 530,72; 3379,914;  221,972; 7856,769;41,36249
 531,30; 3415,828;  217,746; 7992,942;41,13186
 531,89; 3433,643;  229,746; 8072,921;40,84950
 532,47; 3485,415;  256,594; 8217,595;40,55798
 533,05; 3507,020;  264,355; 8219,821;40,76021
 533,63; 3538,294;  252,056; 8273,838;40,96643
 534,22; 3498,340;  224,980; 8342,061;40,32682
 534,80; 3516,271;  241,755; 8435,057;39,96577
 535,38; 3628,091;  314,977; 8489,709;40,52871
 535,97; 3505,200;  234,133; 8436,888;39,87767
 536,55; 3575,426;  271,140; 8468,496;40,30917
 537,13; 3542,181;  265,745; 8446,124;40,05237
 537,71; 3550,426;  285,283; 8475,119;39,86824
 538,30; 3559,743;  305,674; 8570,323;39,37335
 538,88; 3595,986;  318,837; 8599,984;39,57361
 539,46; 3682,302;  344,062; 8806,603;39,44725
 540,05; 3704,168;  345,912; 8897,023;39,27275
 540,63; 3786,199;  386,296; 9111,519;38,96637
 541,21; 3807,988;  393,223; 9243,260;38,58476
 541,79; 3868,650;  411,761; 9345,393;38,69522
 542,38; 3914,413;  420,142; 9496,556;38,49837
 542,96; 3946,887;  444,997; 9640,398;38,08306
 543,54; 4054,480;  449,299; 9854,765;38,33070
 544,12; 4033,205;  405,685; 9999,510;37,81099
 544,70; 4080,457;  405,382;10057,138;38,07675
 545,29; 4122,413;  420,603;10257,492;37,63192
 545,87; 4144,496;  410,915;10329,470;37,64239
 546,45; 4134,120;  392,603;10323,885;37,67406
 547,03; 4121,786;  383,760;10485,760;37,00283
 547,62; 4141,204;  363,839;10602,636;36,89267
 548,20; 4224,147;  382,919;10766,056;36,99487
 548,78; 4212,702;  344,546;10952,908;36,46327
 549,36; 4271,423;  347,391;11183,078;36,21397
 549,94; 4326,407;  320,764;11287,724;36,52464
 550,53; 4383,928;  322,697;11513,627;36,29038
 551,11; 4435,859;  294,548;11726,288;36,22643
 551,69; 4531,992;  322,468;12059,610;35,86499
 552,27; 4608,033;  275,540;12330,394;35,93982
 552,85; 4695,182;  287,163;12753,477;35,35944
 553,44; 4795,069;  288,544;13036,442;35,35112
 554,02; 4896,871;  310,085;13449,201;34,90940
 554,60; 4959,214;  248,318;13720,860;34,96664
 555,18; 5119,469;  287,852;14092,826;34,99910
 555,76; 5192,887;  277,008;14460,557;34,65902
 556,34; 5347,712;  292,169;14913,550;34,57637
 556,93; 5442,931;  277,853;15329,007;34,31683
 557,51; 5507,420;  240,707;15647,690;34,18393
 558,09; 5648,116;  284,853;16070,707;33,97512
 558,67; 5757,702;  280,172;16447,067;33,88115
 559,25; 5820,822;  288,786;16734,988;33,63717
 559,83; 5942,798;  273,791;17033,614;33,82498
 560,41; 6013,387;  265,398;17391,253;33,56322
 561,00; 6112,271;  280,634;17766,934;33,34975
 561,58; 6180,771;  274,782;18011,072;33,29890
 562,16; 6283,674;  268,625;18341,204;33,28274
 562,74; 6373,302;  237,393;18731,886;33,17696
 563,32; 6461,890;  245,867;19154,726;32,87360
 563,90; 6581,640;  267,019;19544,270;32,75686
 564,48; 6651,600;  267,550;20046,724;32,27663
 565,06; 6860,055;  267,326;20579,929;32,45635
 565,65; 7059,959;  272,181;21263,904;32,33550
 566,23; 7284,471;  311,788;22040,081;32,09034
 566,81; 7431,145;  279,324;22783,792;31,77956
 567,39; 7676,846;  277,023;23701,381;31,59029
 567,97; 7862,069;  289,940;24310,168;31,52397
 568,55; 8125,997;  293,252;25197,412;31,45155
 569,13; 8270,564;  270,634;25881,528;31,23643
 569,71; 8537,613;  280,933;26851,239;31,07484
 570,29; 8823,931;  308,160;27888,993;30,87568
 570,87; 9011,580;  303,624;28621,612;30,75062
 571,45; 9169,809;  296,018;29325,907;30,56777
 572,03; 9205,232;  249,486;29702,693;30,40669
 572,61; 9373,689;  242,944;30408,629;30,26865
 573,20; 9620,159;  281,092;31069,696;30,33287
 573,78; 9723,675;  260,329;31782,006;30,02171
 574,36; 9806,796;  279,328;32300,505;29,75365
 574,94; 9938,003;  317,256;32642,774;29,76208
 575,52; 9863,413;  265,725;32846,235;29,45837
 576,10;10058,763;  308,953;33440,563;29,42752
 576,68;10160,494;  288,870;33975,623;29,30417
 577,26;10313,587;  309,574;34699,026;29,09035
 577,84;10346,612;  315,943;35186,679;28,76529
 578,42;10487,683;  350,873;35502,631;28,83728
 579,00;10416,844;  290,252;35667,901;28,62427
 579,58;10413,080;  329,718;35955,711;28,30339
 580,16;10323,561;  305,028;35934,796;28,11843
 580,74;10325,162;  303,875;36128,711;27,97302
 581,32;10314,189;  300,872;36230,094;27,86956
 581,90;10310,638;  327,182;36174,629;27,84984
 582,48;10258,038;  327,798;36293,768;27,61010
 583,06;10206,958;  317,718;36487,822;27,34092
 583,64;10165,049;  308,871;36568,753;27,18205
 584,22;10080,185;  320,649;36441,638;27,01901
 584,80; 9965,699;  320,258;36211,539;26,87405
 585,38; 9796,804;  324,553;35778,495;26,71706
 585,96; 9730,338;  299,253;35838,913;26,53679
 586,54; 9690,537;  319,802;35884,305;26,34856
 587,12; 9672,764;  300,568;36082,359;26,19264
 587,70; 9704,246;  326,331;36191,135;26,14796
 588,28; 9599,779;  305,568;36305,241;25,81749
 588,86; 9572,812;  315,031;36369,510;25,67720
 589,44; 9544,192;  297,962;36510,054;25,53354
 590,02; 9547,743;  307,114;36686,583;25,40067
 590,59; 9511,613;  285,802;36964,214;25,15325
 591,17; 9570,956;  298,047;37099,676;25,19701
 591,75; 9550,857;  289,503;37335,237;24,99978
 592,33; 9504,962;  309,655;37533,493;24,70274
 592,91; 9557,153;  272,199;37770,302;24,76113
 593,49; 9592,081;  276,587;38115,931;24,61854
 594,07; 9519,773;  285,510;38350,610;24,25913
 594,65; 9498,338;  301,418;38358,213;24,16630
 595,23; 9565,250;  307,960;38870,395;24,00598
 595,81; 9557,268;  283,500;38835,566;24,05518
 596,39; 9521,376;  271,577;38992,460;23,88840
 596,97; 9479,969;  305,198;39202,896;23,58692
 597,55; 9409,971;  285,497;39101,230;23,50715
 598,12; 9360,407;  272,973;39094,948;23,40796
 598,70; 9280,740;  269,431;39324,222;23,07350
 599,28; 9284,171;  292,662;39457,523;22,95810
 599,86; 9259,893;  276,815;39468,964;22,92061
 600,44; 9222,357;  251,740;39539,023;22,83339
 601,02; 9182,077;  308,287;39632,593;22,56566
 601,60; 9043,934;  285,734;39636,789;22,25658
 602,18; 8985,606;  254,434;39624,823;22,17700
 602,75; 8991,282;  259,269;39722,651;22,12688
 603,33; 8970,355;  276,046;39733,774;22,03449
 603,91; 8838,042;  263,669;39629,278;21,78138
 604,49; 8887,494;  287,354;39768,137;21,78310
 605,07; 8792,026;  289,734;39779,503;21,53037
 605,65; 8800,528;  293,279;39876,357;21,49214
 606,23; 8788,966;  322,032;39961,370;21,35993
 606,80; 8667,790;  339,115;40031,476;20,98307
 607,38; 8615,594;  361,129;40020,091;20,81362
 607,96; 8617,097;  396,345;40120,463;20,69461
 608,54; 8567,189;  436,971;40132,952;20,48121
 609,12; 8485,836;  423,730;40212,084;20,26248
 609,70; 8510,846;  447,584;40164,958;20,30160
 610,27; 8412,281;  446,960;40221,891;20,02598
 610,85; 8344,538;  452,660;40361,469;19,77478
 611,43; 8319,032;  453,661;40190,327;19,79374
 612,01; 8227,179;  428,579;39938,834;19,73817
 612,59; 8154,062;  437,122;40005,832;19,50263
 613,16; 8071,677;  400,803;40000,582;19,37100
 613,74; 8014,863;  391,816;39860,382;19,31422
 614,32; 7984,620;  378,203;39818,573;19,28587
 614,90; 7816,305;  368,735;39740,501;18,91602
 615,48; 7760,986;  336,420;39404,202;19,00432
 616,05; 7657,030;  326,033;39490,968;18,71827
 616,63; 7592,457;  335,569;39351,965;18,59959
 617,21; 7543,496;  332,883;39185,457;18,55891
 617,79; 7432,669;  313,578;39065,963;18,37072
 618,36; 7389,303;  330,580;39125,867;18,19479
 618,94; 7251,403;  261,959;38822,725;18,12579
 619,52; 7179,397;  292,032;38375,453;18,08494
 620,10; 7094,144;  285,269;38330,713;17,89669
 620,67; 7023,965;  295,723;38250,497;17,72700
 621,25; 6986,073;  306,350;38026,894;17,70845
 621,83; 6883,033;  298,651;38062,774;17,43555
 622,41; 6948,725;  328,959;38049,670;17,54942
 622,98; 6766,919;  308,800;37788,029;17,23119
 623,56; 6714,564;  314,030;37795,674;17,07645
 624,14; 6699,553;  289,659;37659,464;17,15260
 624,72; 6627,202;  301,805;37544,194;16,98440
 625,29; 6567,918;  282,799;37675,744;16,80830
 625,87; 6562,238;  326,270;37619,830;16,72130
 626,45; 6505,177;  279,259;37344,439;16,79721
 627,02; 6416,593;  287,732;37357,465;16,53333
 627,60; 6330,819;  271,817;37247,702;16,38636
 628,18; 6292,452;  253,730;37361,161;16,27362
 628,76; 6243,135;  261,724;37356,021;16,12488
 629,33; 6233,800;  296,726;37384,113;16,00834
 629,91; 6218,914;  278,346;37340,329;16,02874
 630,49; 6190,029;  296,956;37449,416;15,86187
 631,06; 6159,290;  287,340;37625,831;15,72626
 631,64; 6083,163;  293,568;37572,200;15,53060
 632,22; 6021,282;  254,949;37478,527;15,49107
 632,79; 6065,790;  288,257;37824,059;15,39206
 633,37; 6021,810;  277,349;37826,435;15,29854
 633,95; 6059,915;  270,644;37963,712;15,35898
 634,52; 6004,125;  272,189;38068,796;15,16521
 635,10; 5986,636;  282,499;38029,680;15,11142
 635,68; 5991,066;  274,949;38237,268;15,05734
 636,25; 5947,645;  266,637;38241,039;14,96010
 636,83; 5914,904;  254,878;38432,405;14,82555
 637,41; 5890,142;  251,487;38505,802;14,73992
 637,98; 5887,033;  285,409;38627,908;14,60944
 638,56; 5894,705;  273,867;38771,280;14,60056
 639,13; 5852,318;  265,800;38871,974;14,47053
 639,71; 5892,444;  311,878;39154,614;14,36708
 640,29; 5744,378;  246,955;38826,648;14,24952
 640,86; 5735,160;  252,032;38988,317;14,15502
 641,44; 5725,480;  253,417;38967,062;14,13471
 642,02; 5759,109;  276,341;38914,962;14,18986
 642,59; 5715,352;  253,879;39161,323;14,03709
 643,17; 5672,750;  263,110;39098,531;13,92965
 643,74; 5622,993;  249,111;39141,738;13,81723
 644,32; 5633,853;  286,649;39185,253;13,74652
 644,89; 5612,327;  280,649;39099,692;13,73470
 645,47; 5546,340;  291,111;39116,437;13,53557
 646,05; 5531,584;  286,111;39135,414;13,50210
 646,62; 5452,981;  264,189;39107,852;13,35814
 647,20; 5463,302;  269,497;39209,444;13,33799
 647,77; 5412,007;  249,804;39035,729;13,30947
 648,35; 5368,558;  245,420;39003,398;13,21828
 648,92; 5343,571;  272,651;39009,682;13,09063
 649,50; 5311,892;  234,882;38843,966;13,14978
 650,08; 5282,597;  246,882;38764,251;13,07388
 650,65; 5288,148;  238,036;39112,535;12,99081
 651,23; 5351,008;  220,421;39827,512;12,95371
 651,80; 5485,328;  233,729;40797,488;12,94653
 652,38; 5507,033;  246,499;41191,465;12,84782
 652,95; 5513,046;  227,268;41534,057;12,79639
 653,53; 5554,751;  255,961;41894,187;12,72578
 654,10; 5623,457;  281,576;41945,318;12,82141
 654,68; 5522,854;  241,577;41909,064;12,67482
 655,25; 5479,790;  238,192;41917,579;12,57600
 655,83; 5470,803;  237,423;42057,709;12,51397
 656,40; 5453,970;  264,500;42034,840;12,42381
 656,98; 5377,444;  239,270;41918,278;12,32797
 657,55; 5381,842;  252,347;41811,332;12,34269
 658,13; 5339,547;  241,116;41390,693;12,39000
 658,70; 5236,175;  266,270;41249,977;12,12654
 659,28; 5114,573;  236,501;40241,339;12,19370
 659,85; 4984,817;  255,040;39406,315;12,08077
 660,43; 4995,137;  261,887;39494,676;12,06453
 661,00; 5005,919;  240,502;39551,730;12,12228
 661,58; 4999,163;  237,810;40107,784;11,94220
 662,15; 5005,945;  226,503;40183,453;11,96148
 662,73; 5070,497;  300,272;40518,660;11,86080
 663,30; 5068,356;  244,042;40675,406;11,93211
 663,88; 5084,061;  254,965;40897,306;11,88193
 664,45; 5073,612;  244,734;41079,282;11,82547
 665,03; 5082,625;  242,658;41416,797;11,75487
 665,60; 5250,484;  323,504;41846,697;11,86561
 666,17; 5158,728;  247,658;41960,520;11,77351
 666,75; 5191,048;  249,735;42413,650;11,71929
 667,32; 5244,831;  268,505;42639,396;11,74468
 667,90; 5295,074;  244,582;42979,604;11,81816
 668,47; 5314,856;  273,274;43192,888;11,74657
 669,05; 5335,177;  237,582;43631,019;11,74739
 669,62; 5261,344;  231,583;43641,611;11,58663
 670,19; 5273,280;  232,198;43783,433;11,57506
 670,77; 5320,062;  248,198;43903,025;11,61810
 671,34; 5297,613;  243,353;43823,310;11,59767
 671,92; 5346,011;  231,737;44287,748;11,60857
 672,49; 5293,101;  258,738;44173,340;11,46398
 673,06; 5291,191;  215,507;44343,470;11,50219
 673,64; 5298,280;  232,661;44171,293;11,52885
 674,21; 5263,832;  220,046;44244,347;11,45682
 674,79; 5321,152;  250,508;44513,323;11,45577
 675,36; 5350,704;  260,585;44484,223;11,50995
 675,93; 5265,871;  219,508;44374,123;11,42884
 676,51; 5331,345;  256,816;44710,176;11,41540
 677,08; 5313,358;  241,124;44763,692;11,39250
 677,65; 5335,217;  250,047;44833,976;11,40584
 678,23; 5327,307;  253,509;45032,876;11,33066
 678,80; 5365,935;  240,971;45153,160;11,41108
 679,38; 5338,871;  240,048;45315,367;11,31178
 679,95; 5395,653;  241,510;45585,344;11,36680
 680,52; 5415,589;  246,664;45759,705;11,35702
 681,10; 5474,833;  255,126;46247,374;11,34910
 681,67; 5501,153;  254,664;46474,505;11,35116
 682,24; 5473,936;  234,126;46637,789;11,29180
 682,82; 5555,410;  238,050;47233,381;11,31466
 683,39; 5639,192;  280,973;47459,127;11,35742
 683,96; 5640,667;  245,665;47797,719;11,34546
 684,54; 5655,218;  227,589;48127,234;11,33125
 685,11; 5773,923;  269,666;48378,288;11,44131
 685,68; 5746,244;  246,358;48929,495;11,29731
 686,25; 5753,334;  229,436;49081,164;11,30748
 686,83; 5822,962;  244,897;49196,602;11,39504
 687,40; 5843,667;  219,205;49533,271;11,40539
 687,97; 5927,757;  269,667;49965,556;11,38543
 688,55; 5890,385;  222,129;49932,071;11,40266
 689,12; 5918,937;  214,206;50320,663;11,38522
 689,69; 5948,719;  222,899;50349,716;11,42267
 690,26; 5943,655;  246,130;50497,462;11,33806
 690,84; 6022,514;  245,361;50658,285;11,45967
 691,41; 6045,373;  248,822;50775,800;11,47219
 691,98; 6093,309;  254,823;51050,469;11,49407
 692,56; 6090,091;  233,284;51139,369;11,50512
 693,13; 6127,796;  283,592;51161,576;11,48671
 693,70; 6130,963;  266,823;51358,245;11,47774
 694,27; 6099,207;  254,285;51426,453;11,42207
 694,84; 6120,604;  234,131;51492,583;11,48391
 695,42; 6192,156;  288,362;51602,791;11,50513
 695,99; 6180,476;  251,132;51901,229;11,47983
 696,56; 6197,566;  233,747;51796,052;11,56624
 697,13; 6290,733;  253,594;52059,182;11,65345
 697,71; 6284,823;  221,517;52124,466;11,68201
 698,28; 6304,528;  241,825;52567,212;11,58654
 698,85; 6282,387;  218,672;52430,573;11,61367
 699,42; 6337,708;  217,903;52602,627;11,68242
 699,99; 6415,105;  269,364;52899,758;11,67717
 700,57; 6402,810;  250,288;52759,427;11,71705
 701,14; 6445,746;  239,903;52950,788;11,77336
 701,71; 6494,452;  251,057;53144,841;11,80364
 702,28; 6512,080;  249,750;53175,587;11,83227
 702,85; 6512,477;  240,212;53278,641;11,82589
 703,43; 6567,952;  267,981;53533,464;11,82749
 704,00; 6631,273;  279,366;53798,363;11,86851
 704,57; 6564,362;  251,674;53675,417;11,81626
 705,14; 6693,145;  272,597;54065,932;11,93558
 705,71; 6691,004;  271,290;54061,216;11,93479
 706,28; 6647,555;  252,367;53901,808;11,92033
 706,86; 6716,029;  276,752;54297,400;11,92003
 707,43; 6714,888;  300,598;54147,300;11,91213
 708,00; 6782,440;  264,060;54117,123;12,10401
 708,57; 6737,837;  243,675;54126,561;12,05236
 709,14; 6807,312;  272,599;54215,230;12,11419
 709,71; 6794,248;  248,830;54312,438;12,10688
 710,28; 6859,953;  264,445;54427,876;12,17705
 710,86; 6923,735;  265,676;54698,083;12,23179
 711,43; 6978,671;  280,061;54701,983;12,30866
 712,00; 6959,992;  256,600;54690,575;12,31472
 712,57; 6983,620;  265,293;54991,705;12,27621
 713,14; 7028,787;  255,216;55000,451;12,37290
 713,71; 7031,261;  266,831;54936,505;12,37328
 714,28; 7071,428;  265,601;54977,558;12,43938
 714,85; 7070,672;  241,524;54659,535;12,54943
 715,42; 7105,454;  249,140;55004,127;12,52181
 716,00; 7209,236;  311,140;55111,181;12,58776
 716,57; 7223,018;  262,602;55229,773;12,66286
 717,14; 7228,108;  249,217;55154,826;12,71071
 717,71; 7230,890;  234,987;55096,957;12,75183
 718,28; 7317,672;  280,449;55273,164;12,79665
 718,85; 7241,378;  247,218;55374,218;12,68736
 719,42; 7370,390;  269,449;55454,810;12,86744
 719,99; 7376,249;  247,219;55223,709;12,96742
 720,56; 7431,339;  264,988;55553,840;12,96166
 721,13; 7465,737;  241,296;55688,124;13,02949
 721,70; 7434,750;  248,835;55484,255;13,00961
 722,27; 7516,840;  273,912;55549,770;13,10324
 722,84; 7598,006;  306,374;55677,900;13,16856
 723,41; 7542,096;  240,835;55715,569;13,16142
 723,98; 7625,571;  266,682;55931,161;13,22008
 724,55; 7684,507;  283,144;55921,215;13,30270
 725,12; 7658,750;  221,836;55925,192;13,35093
 725,69; 7718,302;  253,221;56131,091;13,35964
 726,27; 7742,315;  266,606;56193,145;13,36701
 726,84; 7841,404;  269,298;56558,891;13,45205
 727,41; 7891,571;  274,683;56495,175;13,54824
 727,98; 7950,892;  272,376;56762,306;13,59272
 728,55; 8008,443;  296,068;56619,205;13,69308
 729,12; 8021,841;  239,607;56799,951;13,75917
 729,69; 8104,854;  279,376;57065,620;13,78059
 730,26; 8152,867;  276,069;57301,443;13,81279
 730,82; 8148,264;  272,069;57015,958;13,88025
 731,39; 8239,585;  263,608;57200,396;14,00848
 731,96; 8312,675;  251,454;57379,758;14,11073
 732,53; 8379,995;  265,455;57658,119;14,13864
 733,10; 8437,008;  274,609;57655,326;14,22499
 733,67; 8558,790;  271,455;57940,841;14,37042
 734,24; 8478,188;  251,994;57573,126;14,35107
 734,81; 8612,508;  285,456;57668,949;14,51123
 735,38; 8552,290;  270,840;57484,925;14,47450
 735,95; 8579,150;  271,148;57348,594;14,55566
 736,52; 8676,778;  277,610;57559,878;14,66277
 737,09; 8672,945;  265,918;57244,547;14,75470
 737,66; 8772,727;  307,072;57340,678;14,84327
 738,23; 8798,124;  259,534;57458,193;14,92796
 738,80; 8957,291;  314,919;57686,631;15,06382
 739,37; 8934,689;  294,150;57997,146;14,97416
 739,94; 9005,086;  266,765;58021,969;15,12993
 740,51; 9125,407;  361,073;58162,869;15,16274
 741,07; 9127,804;  257,304;57969,230;15,37031
 741,64; 9158,048;  299,458;58260,591;15,28367
 742,21; 9211,984;  268,459;58352,491;15,39756
 742,78; 9198,074;  238,074;58040,006;15,50121
 743,35; 9300,933;  267,921;58393,598;15,54049
 743,92; 9366,100;  293,382;58500,806;15,58687
 744,49; 9399,728;  272,075;58297,244;15,73051
 745,06; 9390,664;  262,537;58309,990;15,72528
 745,63; 9410,138;  246,922;58349,813;15,77067
 746,19; 9475,536;  260,537;58279,174;15,88283
 746,76; 9475,395;  260,614;58369,227;15,85786
 747,33; 9506,639;  256,307;58286,589;15,94053
 747,90; 9637,805;  280,384;58549,027;16,05910
 748,47; 9626,587;  276,615;58454,850;16,07126
 749,04; 9663,831;  273,000;58474,596;16,13501
 749,61; 9801,998;  287,308;58464,495;16,35468
 750,17; 9839,319;  285,693;58499,856;16,41117
 750,74; 9841,793;  274,001;58413,910;16,45650
 751,31; 9853,806;  257,078;58361,194;16,51643
 751,88; 9879,973;  231,463;58242,479;16,63220
 752,45; 9927,524;  261,617;58344,071;16,64170
 753,02;10005,691;  282,848;58210,355;16,78450
 753,58; 9944,781;  249,232;58226,639;16,72298
 754,15;10019,024;  258,617;58347,616;16,80251
 754,72;10006,114;  247,156;58025,824;16,89024
 755,29;10031,742;  241,156;57871,723;16,98853
 755,86;10109,217;  262,387;58023,931;17,04738
 756,42;10181,153;  267,311;57938,600;17,19026
 756,99;10196,935;  228,388;57931,653;17,27553
 757,56;10188,025;  235,003;57765,245;17,30050
 758,13;10237,961;  200,234;57725,068;17,44938
 758,70;10380,128;  227,773;57822,122;17,62735
 759,26;10448,064;  223,696;57884,329;17,73197
 759,83;10526,077;  234,543;57974,152;17,82404
 760,40;10539,628;  219,928;57712,590;17,94960
 760,97;10587,872;  197,774;57783,567;18,04281
 761,53;10582,115;  193,697;57436,697;18,14793
 762,10;10610,590;  196,544;57388,905;18,20881
 762,67;10711,987;  229,313;57454,112;18,31841
 763,24;10660,846;  189,852;56929,781;18,45437
 763,80;10715,398;  228,314;57080,835;18,44612
 764,37;10724,795;  218,929;57096,119;18,47114
 764,94;10695,500;  215,391;56619,172;18,58051
 765,50;10741,436;  216,314;56701,841;18,63331
 766,07;10882,142;  252,622;56651,433;18,84706
 766,64;10801,232;  230,776;56431,872;18,80827
 767,21;10777,937;  225,777;56265,618;18,82975
 767,77;10875,488;  250,315;56115,825;19,01920
 768,34;10875,116;  239,239;56116,109;19,03449
 768,91;10887,745;  255,162;55937,317;19,09514
 769,47;10909,065;  245,008;55948,909;19,14418
 770,04;10923,078;  262,855;55841,962;19,18027
 770,61;10925,783;  240,086;55658,939;19,28170
 771,18;10988,412;  231,932;55498,454;19,46292
 771,74;11033,040;  246,932;55584,123;19,49161
 772,31;11077,822;  247,317;55284,253;19,67861
 772,88;11054,527;  225,471;55091,615;19,73723
 773,44;10989,233;  228,471;55019,130;19,63977
 774,01;11109,092;  246,010;55033,953;19,82750
 774,58;11119,028;  234,549;54714,775;19,97877
 775,14;11188,887;  230,703;54775,598;20,09021
 775,71;11206,054;  238,395;54690,421;20,14187
 776,27;11304,836;  283,857;54724,475;20,24404
 776,84;11389,079;  308,165;54764,067;20,34842
 777,41;11317,631;  245,165;54464,966;20,42144
 777,97;11296,336;  244,550;54181,635;20,49014
 778,54;11402,810;  259,012;54240,381;20,64379
 779,11;11393,900;  268,551;54182,666;20,63532
 779,67;11455,682;  228,166;54092,642;20,84401
 780,24;11490,157;  251,936;53933,388;20,93502
 780,80;11591,554;  269,013;53984,749;21,07863
 781,37;11649,567;  254,859;53989,264;21,20561
 781,94;11569,734;  246,783;53653,703;21,20128
 782,50;11574,208;  257,091;53683,833;21,18250
 783,07;11634,375;  281,937;53762,964;21,22704
 783,63;11624,388;  240,860;53436,556;21,39934
 784,20;11666,324;  273,399;53488,686;21,40912
 784,77;11662,337;  256,553;53280,586;21,51059
 785,33;11635,119;  229,784;52997,332;21,61430
 785,90;11729,748;  253,015;53002,078;21,75723
 786,46;11652,760;  269,861;52896,439;21,62956
 787,03;11635,158;  242,092;52744,339;21,70015
 787,59;11728,555;  248,631;52615,315;21,92219
 788,16;11781,030;  258,478;52575,292;22,02457
 788,73;11812,427;  265,401;52391,576;22,15207
 789,29;11778,287;  244,786;51910,014;22,32353
 789,86;11800,530;  267,171;51898,222;22,33803
 790,42;11761,774;  257,094;51859,737;22,29475
 790,99;11775,479;  272,479;51447,944;22,47757
 791,55;11837,492;  245,633;51501,152;22,61583
 792,12;11889,736;  265,556;51433,359;22,71776
 792,68;11885,056;  254,556;51144,874;22,85405
 793,25;11892,377;  265,941;50834,543;22,99141
 793,81;11901,928;  309,249;50529,058;23,08388
 794,38;11798,326;  217,557;50328,112;23,11044
 794,94;11836,108;  244,173;50104,243;23,24894
 795,51;11828,967;  257,788;49860,681;23,32763
 796,07;11814,442;  260,789;49633,504;23,40089
 796,64;11957,224;  264,712;49687,480;23,65815
 797,20;11837,467;  258,558;49121,303;23,69680
 797,77;11791,249;  229,328;48871,664;23,76926
 798,33;11816,339;  241,866;48671,641;23,89950
 798,90;11887,737;  274,636;48687,771;23,98750
 799,46;11811,596;  246,251;48125,363;24,15530
 800,03;11825,224;  270,790;48025,109;24,19558
 800,59;11843,853;  272,713;47941,624;24,27397
 801,15;11861,865;  258,175;47589,524;24,51587
 801,72;11786,263;  252,406;47287,732;24,52169
 802,28;11815,353;  285,560;46983,631;24,69008
 802,85;11749,443;  249,330;46889,300;24,65720
 803,41;11730,917;  246,561;46712,892;24,71544
 803,98;11679,392;  249,484;46328,330;24,80511
 804,54;11680,481;  249,946;46006,846;24,98101
 805,11;11683,264;  258,485;45810,130;25,08094
 805,67;11675,123;  272,100;45752,414;25,07244
 806,23;11623,135;  262,408;45267,006;25,24348
 806,80;11675,379;  275,562;45117,444;25,42225
 807,36;11661,315;  282,793;45013,267;25,43796
 807,93;11599,482;  286,024;44813,321;25,40792
 808,49;11592,033;  245,640;44510,144;25,63317
 809,05;11562,046;  234,640;44363,505;25,66893
 809,62;11581,059;  270,410;44212,405;25,73995
 810,18;11647,303;  263,871;44157,151;25,93434
 810,74;11557,393;  232,025;43883,896;25,94475
 811,31;11617,713;  245,872;43546,335;26,26263
 811,87;11634,188;  256,564;43534,004;26,28996
 812,44;11697,431;  283,949;43399,288;26,47198
 813,00;11624,290;  209,719;43112,880;26,60543
 813,56;11740,226;  260,950;43217,010;26,72330
 814,13;11742,932;  259,565;43157,449;26,76907
 814,69;11707,483;  251,719;42808,348;26,91887
 815,25;11674,265;  229,104;42601,479;27,01090
 815,82;11745,124;  275,335;42334,840;27,27039
 816,38;11768,445;  298,182;42184,817;27,38406
 816,94;11697,996;  235,490;41865,486;27,53425
 817,51;11715,701;  226,644;41713,001;27,69358
 818,07;11605,330;  242,105;41376,747;27,62446
 818,63;11674,650;  265,336;41247,262;27,83987
 819,20;11677,433;  249,798;41189,777;27,91314
 819,76;11575,599;  235,414;40615,138;28,08386
 820,32;11646,766;  268,952;40609,961;28,20409
 820,89;11655,625;  270,799;40403,553;28,36792
 821,45;11595,484;  233,338;40010,145;28,56475
 822,01;11582,574;  273,876;39788,660;28,61890
 822,57;11622,356;  267,107;39675,791;28,81408
 823,14;11538,984;  238,415;39514,075;28,77245
 823,70;11591,459;  241,108;39247,282;29,09886
 824,26;11518,856;  235,262;39008,797;29,10128
 824,82;11563,023;  257,570;38887,005;29,26642
 825,39;11551,190;  239,647;38619,828;29,47235
 825,95;11644,126;  261,878;38651,958;29,64893
 826,51;11519,062;  258,340;38153,550;29,71542
 827,08;11628,075;  278,417;38206,065;29,92450
 827,64;11603,934;  257,186;38029,657;30,03973
 828,20;11531,101;  242,956;37724,249;30,11674
 828,76;11620,114;  273,494;37724,072;30,29758
 829,32;11602,357;  275,879;37573,895;30,36751
 829,89;11543,293;  234,187;37475,256;30,36730
 830,45;11643,691;  253,572;37367,925;30,68926
 831,01;11629,550;  241,188;37192,517;30,81990
 831,57;11643,178;  252,188;37083,494;30,92747
 832,14;11649,345;  246,496;37046,163;30,98628
 832,70;11608,666;  233,111;36757,370;31,14520
 833,26;11609,448;  214,189;36663,808;31,26304
 833,82;11636,307;  238,343;36525,016;31,41088
 834,38;11693,397;  233,804;36584,069;31,52547
 834,95;11619,333;  234,882;36441,892;31,44267
 835,51;11668,499;  205,343;36314,946;31,74545
 836,07;11759,820;  243,190;36355,615;31,89105
 836,63;11760,294;  262,882;36381,668;31,83222
 837,19;11731,461;  247,421;36206,645;31,93628
 837,75;11716,013;  215,421;35942,391;32,19022
 838,32;11820,564;  258,268;36010,829;32,33977
 838,88;11880,038;  257,499;36027,575;32,49235
 839,44;11874,667;  251,499;35891,705;32,61252
 840,00;11927,372;  248,961;35852,067;32,80166
 840,56;11792,769;  224,422;35544,428;32,75296
 841,12;11839,167;  231,346;35616,482;32,80423
 841,68;11807,026;  218,654;35367,151;32,96975
 842,25;11883,654;  231,039;35432,358;33,10278
 842,81;11840,975;  224,193;35091,796;33,31684
 843,37;11900,680;  205,270;35087,311;33,52846
 843,93;11908,693;  234,885;35064,749;33,51666
 844,49;12020,398;  240,578;35030,880;33,85949
 845,05;11894,873;  202,040;34888,395;33,71018
 845,61;12054,116;  253,809;34860,756;34,09809
 846,17;12053,975;  233,040;34734,348;34,26228
 846,73;12030,911;  242,810;34729,863;34,18124
 847,29;12024,155;  215,733;34468,763;34,47409
 847,86;12071,937;  221,118;34521,817;34,54979
 848,42;12012,258;  208,580;34236,024;34,68870
 848,98;12058,271;  241,811;34193,924;34,80331
 849,54;12133,284;  228,965;34233,670;35,00786
 850,10;12129,066;  237,734;34080,108;35,13740
 850,66;12088,156;  216,734;33874,469;35,27100
 851,22;12142,553;  212,504;33864,061;35,45170
 851,78;12190,258;  268,043;33891,807;35,45771
 852,34;12118,194;  237,274;33624,938;35,58476
 852,90;12123,438;  226,889;33522,991;35,72955
 853,46;12138,528;  218,120;33292,583;36,04112
 854,02;12221,464;  234,274;33293,791;36,25942
 854,58;12112,323;  221,659;32997,075;36,27922
 855,14;12195,797;  221,736;32969,359;36,56467
 855,70;12089,118;  196,121;32805,721;36,47085
 856,26;12176,439;  242,275;32805,159;36,64959
 856,82;12134,605;  229,429;32524,905;36,86329
 857,38;12160,849;  246,276;32449,035;36,99861
 857,94;12184,016;  240,430;32373,473;37,16917
 858,50;12127,952;  249,661;32173,527;37,20818
 859,06;12083,734;  224,892;32001,965;37,31886
 859,62;12096,439;  242,969;31978,326;37,35099
 860,18;12111,221;  227,738;31700,841;37,75758
 860,74;12059,465;  195,431;31622,280;37,75127
 861,30;12034,940;  207,893;31446,333;37,86055
 861,86;12141,799;  260,124;31459,925;38,08253
 862,42;12077,965;  226,662;31272,133;38,17402
 862,98;12140,517;  253,047;31308,571;38,27812
 863,54;11997,376;  233,971;31118,394;38,08847
 864,10;12042,158;  223,202;31050,293;38,33951
 864,66;11993,402;  208,202;30911,809;38,38376
 865,22;11972,645;  230,510;30695,324;38,54327
 865,78;12067,504;  229,895;30639,608;38,92707
 866,34;12000,440;  226,664;30513,200;38,87462
 866,90;12047,223;  236,895;30375,023;39,18733
 867,45;12021,543;  230,818;30249,076;39,27851
 868,01;11959,864;  235,511;30036,976;39,34153
 868,57;11986,107;  226,434;29866,799;39,67452
 869,13;11933,966;  211,204;29736,391;39,70428
 869,69;11944,826;  215,512;29661,214;39,83370
 870,25;11985,838;  209,512;29513,113;40,18730
 870,81;12020,621;  218,974;29522,167;40,27427
 871,37;11997,172;  225,974;29387,682;40,36526
 871,93;12005,723;  233,436;29172,197;40,68000
 872,49;11956,967;  253,897;29027,866;40,67242
 873,04;11931,211;  212,513;28819,304;40,96474
 873,60;11959,916;  219,667;28684,666;41,24451
 874,16;11929,621;  236,206;28544,181;41,30785
 874,72;11956,621;  222,437;28517,873;41,47024
 875,28;12018,929;  226,052;28424,873;41,82046
 875,84;12040,621;  226,590;28321,873;42,04987
 876,40;12094,621;  220,513;28379,412;42,16823
 876,95;12134,083;  239,129;28235,104;42,48809
 877,51;12141,852;  260,052;28329,873;42,32945
 878,07;12196,852;  269,744;28231,488;42,65509
 878,63;12251,621;  228,283;28280,027;42,86129
 879,19;12270,083;  235,898;28263,258;42,93728
 879,75;12296,621;  226,590;28335,642;42,94001
 880,30;12365,390;  230,821;28199,027;43,38701
 880,86;12460,544;  267,821;28385,488;43,36321
 881,42;12536,083;  216,667;28452,104;43,63104
 881,98;12615,083;  240,898;28461,335;43,84831
 882,54;12698,006;  224,744;28577,719;43,99278
 883,09;12807,852;  238,513;28735,488;44,10762
 883,65;12842,621;  214,283;28770,335;44,22298
 884,21;12970,775;  256,206;28987,565;44,25328
 884,77;13093,237;  221,360;28983,104;44,75346
 885,32;13201,083;  230,975;29187,642;44,79144
 885,88;13312,006;  259,283;29262,335;45,00465
 886,44;13349,852;  237,513;29484,642;44,83291
 887,00;13464,237;  254,360;29404,412;45,31682
 887,56;13569,775;  231,437;29648,488;45,34220
 888,11;13675,390;  236,360;29552,412;45,84188
 888,67;13821,160;  264,206;29822,412;45,86528
 889,23;13778,160;  237,667;29833,873;45,75077
 889,79;13801,006;  214,360;29723,027;46,04290
 890,34;13829,390;  239,360;29613,258;46,26567
 890,90;13932,390;  302,975;29761,181;46,26696
 891,46;13906,621;  225,667;29652,104;46,49205
 892,01;14037,852;  252,975;29674,104;46,85366
 892,57;13997,698;  252,821;29550,335;46,91482
 893,13;13910,698;  233,283;29317,873;47,02633
 893,69;13943,083;  227,129;29388,719;47,03431
 894,24;13864,852;  236,667;29281,335;46,92147
 894,80;13840,006;  231,052;29059,104;47,20733
 895,36;13824,775;  230,129;28942,873;47,34708
 895,91;13767,313;  231,206;28773,719;47,42437
 896,47;13752,237;  258,975;28624,412;47,56938
 897,03;13728,390;  220,667;28386,335;47,95811
 897,58;13606,083;  238,821;28392,488;47,47965
 898,14;13618,544;  239,975;28132,565;47,96460
 898,70;13620,852;  209,667;27967,642;48,31471
 899,25;13689,698;  228,129;27958,719;48,54411
 899,81;13622,006;  250,590;27772,104;48,58532
 900,37;13592,698;  217,437;27573,104;48,89393
 900,92;13592,237;  240,283;27632,719;48,74321
 901,48;13604,929;  224,821;27419,488;49,20122
 902,03;13520,929;  223,513;27255,796;49,19087
 902,59;13510,006;  226,052;27215,412;49,21923
 903,15;13561,390;  256,052;26958,950;49,82732
 903,70;13441,237;  244,052;26687,181;49,90780
 904,26;13469,006;  217,744;26660,335;50,11333
 904,82;13508,160;  236,744;26648,488;50,24816
 905,37;13472,929;  240,052;26469,873;50,44974
 905,93;13486,698;  224,744;26360,104;50,74334
 906,48;13506,929;  239,667;26317,104;50,87640
 907,04;13527,237;  253,898;26173,181;51,21028
 907,60;13510,852;  224,975;25972,873;51,59985
 908,15;13490,852;  218,667;25883,104;51,71430
 908,71;13488,160;  250,513;25858,335;51,69376
 909,26;13500,160;  213,283;25706,950;52,11834
 909,82;13409,929;  257,437;25599,796;51,89924
 910,37;13482,544;  268,052;25525,796;52,31858
 910,93;13354,852;  219,744;25226,335;52,52658
 911,48;13307,237;  208,513;25048,181;52,73309
 912,04;13301,390;  216,590;24939,950;52,92485
 912,60;13349,467;  242,206;25022,488;52,89391
 913,15;13267,544;  235,975;24808,104;53,03394
 913,71;13227,160;  226,360;24581,642;53,37980
 914,26;13253,390;  204,360;24588,950;53,51343
 914,82;13247,698;  234,975;24467,873;53,69858
 915,37;13240,237;  226,898;24384,950;53,86750
 915,93;13221,775;  277,129;24278,258;53,93349
 916,48;13184,929;  216,283;24113,488;54,26846
 917,04;13224,852;  239,590;24033,642;54,57356
 917,59;13224,852;  254,129;23937,412;54,76742
 918,15;13136,544;  206,206;23718,181;54,99469
 918,70;13173,467;  226,283;23675,335;55,21411
 919,26;13172,852;  229,667;23483,565;55,66028
 919,81;13058,237;  212,975;23370,412;55,46927
 920,37;13025,544;  233,283;23301,335;55,45445
 920,92;13057,775;  241,975;23216,796;55,78194
 921,48;12903,083;  209,667;22934,027;55,85819
 922,03;12947,467;  218,437;23038,488;55,78003
 922,59;12924,621;  225,821;22863,565;56,09570
 923,14;12891,083;  223,975;22679,488;56,40979
 923,69;12839,698;  244,283;22620,642;56,28894
 924,25;12805,083;  248,513;22641,181;56,07447
 924,80;12769,006;  225,975;22275,796;56,88495
 925,36;12772,698;  219,744;22273,104;56,92082
 925,91;12692,775;  222,052;22124,873;56,93661
 926,47;12728,313;  209,667;22107,181;57,16926
 927,02;12704,390;  269,744;22038,335;57,12196
 927,57;12601,621;  220,975;21821,565;57,31624
 928,13;12610,160;  217,360;21776,642;57,48243
 928,68;12548,544;  221,283;21722,027;57,33412
 929,24;12521,160;  192,821;21528,642;57,78235
 929,79;12483,929;  216,052;21382,335;57,95953
 930,34;12445,852;  216,513;21190,642;58,30678
 930,90;12422,237;  215,898;21257,642;58,01011
 931,45;12399,775;  233,513;21206,719;58,00859
 932,01;12372,852;  231,360;21068,950;58,26726
 932,56;12323,237;  244,513;20865,642;58,57450
 933,11;12353,929;  256,437;20914,258;58,56132
 933,67;12337,852;  216,360;20690,488;59,20395
 934,22;12303,083;  221,283;20578,796;59,34811
 934,77;12295,544;  251,360;20507,642;59,45901
 935,33;12231,467;  233,975;20403,412;59,48353
 935,88;12220,313;  226,590;20301,335;59,74533
 936,43;12116,698;  218,975;20248,181;59,40187
 936,99;12130,313;  225,206;20154,719;59,73607
 937,54;12043,390;  212,513;19992,719;59,81170
 938,09;12097,467;  235,360;19954,412;60,15557
 938,65;12016,313;  230,437;19810,104;60,19447
 939,20;11942,237;  204,129;19720,104;60,14615
 939,75;11908,006;  217,360;19588,488;60,35088
 940,31;11959,929;  214,590;19526,642;60,81870
 940,86;11937,621;  228,744;19496,873;60,76811
 941,41;11862,083;  300,129;19384,873;60,58218
 941,96;11857,544;  217,590;19234,412;61,20873
 942,52;11757,544;  218,898;19187,027;60,83176
 943,07;11699,160;  200,283;19000,335;61,16407
 943,62;11749,621;  210,513;18923,565;61,66342
 944,18;11740,467;  204,667;18843,796;61,89023
 944,73;11668,467;  220,129;18759,181;61,75256
 945,28;11553,775;  200,898;18568,873;61,80799
 945,83;11636,006;  224,975;18574,873;62,18580
 946,39;11633,775;  214,590;18463,565;62,57439
 946,94;11649,544;  239,052;18505,642;62,46646
 947,49;11561,698;  225,590;18264,719;62,84177
 948,04;11580,390;  248,513;18248,181;62,95604
 948,59;11518,621;  237,129;18177,258;62,88412
 949,15;11543,544;  208,898;18127,104;63,25771
 949,70;11471,929;  211,283;18002,412;63,29360
 950,25;11424,083;  243,590;17877,258;63,40424
 950,80;11368,083;  190,129;17786,719;63,52341
 951,36;11373,237;  188,975;17675,027;63,96104
 951,91;11375,698;  236,129;17672,027;63,88870
 952,46;11258,160;  207,821;17485,873;63,95593
 953,01;11332,237;  238,283;17504,565;64,25213
 953,56;11233,698;  203,975;17356,642;64,30325
 954,11;11272,160;  221,283;17362,796;64,46850
 954,67;11194,467;  214,898;17186,104;64,69528
 955,22;11122,083;  202,129;17152,181;64,42431
 955,77;11092,160;  238,437;17072,488;64,47481
 956,32;11114,237;  267,283;16949,796;65,01990
 956,87;10992,929;  207,821;16783,565;65,06560
 957,42;10980,083;  210,206;16742,488;65,14452
 957,98;10907,929;  209,821;16680,873;64,95097
 958,53;10901,390;  240,437;16656,335;64,94286
 959,08;10812,929;  216,283;16515,642;65,01265
 959,63;10744,544;  214,283;16453,335;64,84530
 960,18;10755,775;  226,206;16438,873;64,94656
 960,73;10774,390;  214,513;16331,412;65,52053
 961,28;10677,160;  206,975;16188,027;65,51624
 961,83;10696,390;  241,667;16189,565;65,55549
 962,39;10588,621;  200,129;16034,719;65,60632
 962,94;10601,544;  231,360;16000,950;65,76065
 963,49;10502,006;  214,744;15862,104;65,74439
 964,04;10500,775;  232,052;15809,027;65,92245
 964,59;10452,006;  199,975;15702,950;66,12944
 965,14;10506,467;  234,206;15642,412;66,66747
 965,69;10378,237;  220,129;15507,950;66,44575
 966,24;10370,698;  213,437;15436,719;66,72189
 966,79;10340,467;  231,667;15336,258;66,92535
 967,34;10232,929;  199,052;15212,719;66,83162
 967,89;10218,237;  209,590;15114,104;67,15178
 968,44;10221,698;  226,206;15046,565;67,44433
 968,99;10226,621;  229,052;14984,565;67,75480
 969,55;10183,544;  227,283;14903,027;67,84161
 970,10;10123,621;  230,821;14821,642;67,80153
 970,65;10087,929;  233,513;14703,335;68,10323
 971,20; 9988,160;  210,052;14610,488;67,90147
 971,75; 9949,313;  201,206;14497,181;68,18778
 972,30;10003,852;  225,898;14445,873;68,76210
 972,85; 9920,006;  206,513;14366,796;68,59674
 973,40; 9805,006;  204,513;14167,565;68,75640
 973,95; 9810,237;  224,360;14185,412;68,66157
 974,50; 9838,313;  248,360;14086,950;69,29863
 975,05; 9763,544;  224,206;13905,642;69,72468
 975,60; 9758,621;  227,667;13878,950;69,81728
 976,15; 9717,160;  216,052;13755,950;70,17119
 976,70; 9680,083;  212,744;13693,335;70,22941
 977,25; 9667,621;  228,667;13616,258;70,50525
 977,80; 9588,929;  212,975;13398,565;71,10758
 978,35; 9501,852;  231,590;13314,796;70,85619
 978,89; 9493,160;  194,667;13252,873;71,20804
 979,44; 9495,390;  216,744;13219,796;71,35745
 979,99; 9358,698;  206,129;13049,488;71,26305
 980,54; 9338,698;  236,513;12988,104;71,38078
 981,09; 9366,698;  238,437;12832,565;72,48029
 981,64; 9230,313;  231,360;12723,488;72,03699
 982,19; 9217,237;  253,667;12714,719;71,93269
 982,74; 9125,237;  233,667;12564,565;72,10804
 983,29; 9071,929;  209,052;12400,027;72,70031
 983,84; 8992,698;  228,513;12303,488;72,58139
 984,39; 8979,852;  277,437;12298,181;72,39498
 984,94; 8831,775;  198,129;12154,719;72,20826
 985,49; 8832,083;  248,667;12060,335;72,66896
 986,03; 8784,313;  239,206;11997,796;72,67119
 986,58; 8705,313;  271,360;11828,565;72,97572
 987,13; 8640,775;  228,898;11728,796;73,14740
 987,68; 8528,467;  239,437;11609,335;72,90330
 988,23; 8525,390;  231,821;11558,027;73,22460
 988,78; 8430,313;  215,283;11352,104;73,76459
 989,33; 8386,621;  235,898;11312,181;73,58717
 989,88; 8376,621;  261,975;11214,412;74,08987
 990,42; 8295,237;  220,667;11102,181;74,20447
 990,97; 8245,006;  220,283;10949,027;74,79648
 991,52; 8229,006;  248,975;10915,027;74,81710
 992,07; 8186,929;  256,667;10801,412;75,20582
 992,62; 8148,237;  241,052;10718,873;75,46592
 993,17; 8039,237;  244,590;10596,104;75,29958
 993,71; 8032,621;  236,744;10508,565;75,89576
 994,26; 7872,621;  220,667;10335,950;75,64745
 994,81; 7850,160;  246,129;10295,027;75,67029
 995,36; 7830,621;  235,052;10137,719;76,70226
 995,91; 7827,544;  228,821;10097,335;76,99967
 996,45; 7681,160;  232,513; 9939,719;76,73316
 997,00; 7576,852;  214,129; 9861,565;76,31792
 997,55; 7558,544;  235,513; 9794,335;76,61019
 998,10; 7538,698;  261,590; 9676,488;77,29354
 998,65; 7487,467;  223,975; 9595,027;77,50989
 999,19; 7435,390;  251,283; 9456,412;78,04462
 999,74; 7388,390;  278,975; 9402,104;77,92738
1000,29; 7341,852;  251,821; 9298,950;78,36774
1000,84; 7247,775;  231,744; 9158,950;78,59157
1001,38; 7175,160;  234,129; 9078,796;78,47701
1001,93; 7166,237;  242,437; 9040,335;78,69834
1002,48; 7051,929;  218,129; 8857,104;79,10429
1003,03; 7052,775;  236,052; 8843,104;79,19928
1003,57; 6982,621;  242,667; 8662,719;80,04646
1004,12; 6983,313;  267,052; 8632,565;80,28511
1004,67; 6881,467;  233,052; 8498,412;80,43710
1005,22; 6751,390;  223,437; 8366,565;80,16518
1005,76; 6669,929;  216,206; 8234,027;80,49223
1006,31; 6664,467;  247,283; 8191,796;80,77505
1006,86; 6563,929;  226,744; 8071,488;80,78255
1007,40; 6481,621;  218,590; 7946,335;81,04604
1007,95; 6429,160;  238,437; 7855,027;81,27945
1008,50; 6322,006;  234,360; 7722,488;81,29729
1009,04; 6283,698;  231,513; 7619,181;81,92281
1009,59; 6168,006;  247,744; 7518,027;81,43097
1010,14; 6137,313;  221,360; 7391,488;82,50833
1010,68; 6009,929;  234,283; 7255,873;82,25553
1011,23; 5938,467;  215,590; 7127,412;82,79839
1011,78; 5921,621;  240,129; 7102,796;82,78840
1012,32; 5822,621;  239,821; 7005,104;82,52131
1012,87; 5820,160;  259,206; 6943,412;83,19543
1013,42; 5705,313;  210,360; 6846,796;82,79976
1013,96; 5731,390;  261,360; 6832,565;83,24242
1014,51; 5682,698;  198,667; 6706,412;84,26930
1015,06; 5711,237;  190,360; 6751,488;84,14523
1015,60; 5799,083;  268,975; 6764,488;85,13734
1016,15; 5699,160;  215,052; 6756,335;83,83841
1016,69; 5796,621;  231,437; 6763,719;85,19510
1017,24; 5805,160;  196,283; 6787,796;85,09240
1017,79; 5925,621;  245,744; 6832,796;86,22791
1018,33; 5857,698;  220,821; 6814,104;85,49424
1018,88; 5936,621;  237,744; 6866,104;85,97718
1019,42; 5964,544;  221,437; 6870,104;86,37983
1019,97; 5925,544;  215,437; 6884,873;85,61604
1020,51; 5968,160;  248,206; 6918,335;85,75477
1021,06; 5967,390;  204,590; 6930,642;85,67879
1021,61; 5970,313;  187,898; 6853,258;86,75324
1022,15; 5980,313;  193,437; 6810,796;87,44994
1022,70; 5952,467;  225,206; 6826,950;86,75376
1023,24; 5917,467;  213,975; 6803,335;86,55609
1023,79; 5855,006;  222,898; 6735,258;86,48336
1024,33; 5820,621;  221,513; 6661,950;86,93677
1024,88; 5762,083;  233,437; 6588,873;86,99082
1025,42; 5689,006;  224,360; 6499,950;87,07780
1025,97; 5618,852;  212,898; 6359,719;87,94715
1026,51; 5523,237;  180,360; 6257,873;87,91222
1027,06; 5492,775;  212,129; 6224,027;87,83659
1027,60; 5419,313;  227,437; 6133,565;87,90660
1028,15; 5352,852;  232,052; 6013,565;88,57196
1028,69; 5207,313;  191,206; 5878,642;88,19628
1029,24; 5179,083;  211,129; 5852,181;88,06786
1029,78; 5085,467;  207,437; 5700,258;88,80738
1030,33; 4977,621;  193,360; 5620,796;88,14956
1030,87; 4967,852;  217,744; 5544,412;89,17598
1031,42; 4869,621;  199,513; 5511,565;87,91532
1031,96; 4842,698;  219,206; 5417,181;88,94795
1032,51; 4780,083;  208,898; 5315,412;89,51674
1033,05; 4738,467;  224,821; 5261,565;89,61436
1033,60; 4646,852;  180,590; 5120,796;90,40639
1034,14; 4575,775;  219,206; 5065,642;89,89222
1034,69; 4508,083;  212,898; 5014,873;89,44621
1035,23; 4499,698;  221,437; 4951,873;90,44116
1035,77; 4416,160;  215,590; 4875,335;90,14592
1036,32; 4381,313;  191,206; 4794,950;91,01521
1036,86; 4309,160;  214,667; 4770,719;89,86931
1037,41; 4265,467;  224,360; 4664,796;91,00699
1037,95; 4173,390;  185,513; 4588,642;90,56916
1038,50; 4162,006;  200,283; 4514,027;91,83955
1039,04; 4122,929;  232,667; 4480,642;91,57920
1039,58; 4050,852;  198,052; 4391,950;91,86680
1040,13; 4015,237;  209,821; 4376,412;91,33164
1040,67; 4001,237;  246,283; 4344,258;91,62950
1041,21; 3922,775;  239,975; 4268,412;91,42008
1041,76; 3844,698;  202,590; 4130,027;92,73499
1042,30; 3815,313;  205,360; 4121,488;92,18169
1042,85; 3759,160;  207,360; 4036,796;92,74994
1043,39; 3712,083;  202,052; 3977,719;92,96451
1043,93; 3669,929;  230,129; 3965,719;92,08183
1044,48; 3661,083;  225,744; 3904,335;93,38736
1045,02; 3602,929;  209,590; 3804,258;94,39924
1045,56; 3576,698;  238,744; 3770,642;94,50878
1046,11; 3526,544;  230,590; 3755,873;93,49474
1046,65; 3468,313;  220,206; 3681,719;93,83490
1047,19; 3433,852;  204,975; 3618,412;94,59314
1047,74; 3362,313;  194,667; 3528,873;95,00452
1048,28; 3340,544;  223,206; 3535,412;94,11669
1048,82; 3325,237;  244,744; 3506,181;94,45201
1049,37; 3279,237;  223,975; 3444,642;94,86424
1049,91; 3193,544;  217,821; 3417,335;93,00549
1050,45; 3193,083;  227,590; 3377,719;94,13876
1050,99; 3153,852;  216,744; 3306,873;95,04807
1051,54; 3107,237;  210,975; 3262,335;94,91708
1052,08; 3092,237;  234,590; 3226,796;95,50300
1052,62; 3053,775;  239,283; 3178,642;95,75189
1053,16; 2974,313;  217,437; 3109,335;95,33105
1053,71; 2984,775;  225,667; 3088,027;96,39277
1054,25; 2932,006;  234,129; 3042,104;96,07909
1054,79; 2901,237;  223,821; 2991,258;96,74713
1055,33; 2827,775;  194,975; 2892,873;97,58708
1055,88; 2810,698;  228,590; 2926,796;95,69721
1056,42; 2786,929;  236,821; 2891,027;96,07800
1056,96; 2774,467;  236,898; 2825,873;98,01444
1057,50; 2704,698;  228,129; 2797,796;96,37704
1058,05; 2673,237;  220,052; 2745,796;97,12720
1058,59; 2642,390;  232,590; 2715,719;97,04692
1059,13; 2574,313;  206,206; 2624,642;97,91895
1059,67; 2582,929;  222,052; 2633,719;97,89397
1060,21; 2519,544;  227,437; 2581,181;97,38134
1060,76; 2501,467;  236,667; 2548,950;97,94650
1061,30; 2471,929;  250,513; 2537,565;97,13008
1061,84; 2434,621;  233,513; 2464,181;98,67485
1062,38; 2362,083;  214,821; 2407,796;97,91546
1062,92; 2412,083;  259,513; 2438,796;98,77421
1063,46; 2343,467;  238,206; 2377,873;98,39200
1064,01; 2304,006;  223,590; 2308,719;99,77395
1064,55; 2291,852;  229,437; 2278,181;100,66729
1065,09; 2244,083;  196,744; 2234,027;100,49359
1065,63; 2272,929;  258,898; 2275,642;99,86545
1066,17; 2220,775;  254,975; 2250,642;98,50339
1066,71; 2192,390;  246,667; 2217,719;98,71496
1067,25; 2142,313;  230,206; 2156,488;99,26413
1067,80; 2159,852;  243,360; 2149,719;100,53152
1068,34; 2119,160;  260,052; 2148,950;98,42287
1068,88; 2089,852;  225,283; 2081,258;100,46306
1069,42; 2096,698;  254,437; 2088,181;100,46448
1069,96; 2032,698;  238,590; 2014,565;101,02100
1070,50; 2046,775;  254,898; 2044,258;100,14068
1071,04; 1980,775;  217,898; 1960,027;101,19096
1071,58; 1959,160;  223,667; 1952,335;100,39481
1072,12; 1961,237;  229,283; 1930,642;101,79822
1072,66; 1940,775;  229,052; 1914,104;101,58281
1073,21; 1951,852;  240,744; 1917,950;102,02133
1073,75; 1896,544;  245,437; 1871,565;101,53609
1074,29; 1897,775;  234,283; 1851,258;102,87681
1074,83; 1882,390;  257,283; 1843,642;102,44258
1075,37; 1857,083;  249,129; 1828,412;101,81545
1075,91; 1828,775;  242,744; 1790,104;102,49917
1076,45; 1790,775;  235,590; 1773,950;101,09370
1076,99; 1802,083;  249,898; 1745,335;103,79475
1077,53; 1735,160;  220,052; 1713,488;101,45109
1078,07; 1741,467;  228,437; 1713,950;101,85238
1078,61; 1712,237;  234,360; 1670,258;102,92353
1079,15; 1692,544;  238,206; 1639,412;103,79193
1079,69; 1680,852;  225,744; 1633,027;103,39839
1080,23; 1677,775;  254,129; 1633,796;103,18764
1080,77; 1674,083;  267,052; 1646,104;102,02885
1081,31; 1602,313;  225,821; 1581,642;101,52462
1081,85; 1619,775;  249,283; 1560,950;104,48475
1082,39; 1582,390;  227,437; 1537,719;103,40928
1082,93; 1570,467;  246,975; 1544,412;102,00825
1083,47; 1531,929;  230,590; 1494,335;102,97483
1084,01; 1547,929;  247,590; 1503,719;103,51951
1084,55; 1525,160;  227,590; 1449,104;106,22636
1085,09; 1513,852;  252,744; 1463,412;104,16633
1085,63; 1470,006;  239,206; 1461,027;100,73487
1086,17; 1459,698;  228,129; 1410,642;104,14843
1086,71; 1434,467;  225,590; 1403,950;102,58981
1087,24; 1453,390;  251,821; 1425,873;102,34379
1087,78; 1426,621;  247,513; 1391,873;103,03646
1088,32; 1386,929;  229,052; 1347,181;103,55487
1088,86; 1421,698;  251,975; 1361,796;105,39744
1089,40; 1378,006;  245,744; 1326,104;104,80413
1089,94; 1369,544;  219,129; 1296,719;106,75813
1090,48; 1346,544;  254,744; 1307,642;103,69475
1091,02; 1349,621;  249,667; 1296,796;105,04475
1091,56; 1318,698;  248,667; 1270,873;104,67861
1092,10; 1288,852;  225,744; 1243,796;104,42568
1092,63; 1319,160;  262,821; 1270,335;104,84609
1093,17; 1272,929;  257,744; 1241,488;103,19599
1093,71; 1265,621;  228,052; 1212,488;105,39727
1094,25; 1285,006;  260,821; 1198,642;109,20895
1094,79; 1237,313;  236,206; 1177,181;106,39047
1095,33; 1225,621;  235,744; 1167,642;106,22159
1095,87; 1217,160;  229,667; 1172,104;104,78077
1096,40; 1193,852;  218,437; 1133,258;106,62361
1096,94; 1195,544;  242,437; 1127,027;107,74565
1097,48; 1185,390;  245,283; 1121,258;107,32129
1098,02; 1148,621;  233,129; 1089,796;106,86673
1098,56; 1090,852;  203,437; 1066,027;102,87796
1099,10; 1111,006;  219,206; 1061,412;105,88861
1099,63; 1109,621;  203,821; 1055,335;106,37530
1100,17; 1118,390;  247,744; 1059,642;107,23589
1100,71; 1130,083;  261,667; 1069,719;107,47025

