
Integration time [ms]: 120,000
Averaging Nr. [scans]: 13
Smoothing Nr. [pixels]: 0
Data measured with spectrometer [name]: 2009305U1
Wave   ;Sample   ;Dark     ;Reference;Reflectance
[nm]   ;[counts] ;[counts] ;[counts] ;[%]

 175,72;  201,224;  202,673;  202,814; 0,00000
 176,32;  226,066;  225,431;  219,229; 0,00000
 176,92;  254,240;  241,593;  259,926;68,98376
 177,52;  257,380;  251,671;  258,560;82,87235
 178,12;  238,745;  228,123;  221,690; 0,00000
 178,72;  255,350;  262,428;  250,906; 0,00000
 179,32;  252,207;  256,969;  246,180; 0,00000
 179,92;  242,165;  244,743;  247,528;-92,55290
 180,52;  239,156;  240,295;  251,040;-10,59793
 181,12;  253,883;  250,513;  250,351; 0,00000
 181,73;  269,741;  264,591;  277,112;41,13347
 182,33;  353,057;  344,982;  351,462;124,61184
 182,93;  273,021;  260,594;  266,980;194,60931
 183,53;  247,185;  240,272;  226,189; 0,00000
 184,13;  244,927;  234,428;  232,913; 0,00000
 184,73;  268,109;  272,348;  270,276; 0,00000
 185,33;  275,747;  227,895;  345,845;40,56942
 185,93;  273,881;  241,810;  363,162;26,42790
 186,53;  281,750;  245,969;  383,769;25,96595
 187,13;  304,282;  274,977;  418,310;20,44490
 187,73;  275,790;  236,042;  378,887;27,82615
 188,33;  277,486;  240,114;  373,931;27,92738
 188,93;  290,779;  258,330;  373,870;28,08408
 189,53;  289,953;  257,396;  374,368;27,83345
 190,13;  318,261;  277,224;  424,265;27,90893
 190,73;  262,317;  216,698;  365,464;30,66477
 191,34;  298,577;  258,249;  403,767;27,71307
 191,94;  279,220;  218,263;  371,997;39,65098
 192,54;  291,841;  243,523;  387,787;33,49314
 193,14;  293,628;  247,900;  396,592;30,75403
 193,74;  300,899;  257,129;  400,532;30,52232
 194,34;  302,114;  240,671;  386,728;42,06812
 194,94;  262,577;  220,361;  356,781;30,94583
 195,54;  242,182;  204,742;  327,334;30,54081
 196,14;  267,036;  227,827;  378,689;25,99011
 196,74;  256,928;  222,971;  359,044;24,95477
 197,34;  240,391;  197,063;  371,027;24,90624
 197,94;  266,820;  228,132;  384,373;24,76201
 198,54;  276,485;  235,596;  395,794;25,52392
 199,14;  256,889;  219,374;  388,308;22,20692
 199,74;  245,402;  202,220;  401,273;21,69350
 200,34;  250,452;  196,990;  393,795;27,16482
 200,94;  286,187;  228,446;  426,289;29,18511
 201,54;  261,492;  204,218;  443,961;23,88978
 202,14;  295,130;  229,608;  481,986;25,96172
 202,74;  273,722;  219,912;  475,274;21,07225
 203,34;  261,935;  188,920;  492,839;24,02456
 203,94;  238,001;  167,224;  499,348;21,31033
 204,54;  306,268;  245,363;  589,973;17,67368
 205,14;  283,953;  199,220;  600,798;21,10005
 205,74;  328,986;  236,688;  696,371;20,07861
 206,34;  309,835;  209,069;  707,819;20,20366
 206,94;  320,733;  215,837;  774,562;18,77417
 207,54;  303,156;  180,146;  806,666;19,63385
 208,14;  336,963;  214,378;  884,062;18,30489
 208,74;  343,581;  211,373;  951,337;17,86685
 209,34;  365,606;  194,759; 1045,915;20,07239
 209,94;  386,107;  216,528; 1149,937;18,16769
 210,54;  379,923;  213,302; 1239,675;16,23399
 211,14;  405,466;  218,374; 1375,700;16,16590
 211,73;  423,660;  201,448; 1478,977;17,39383
 212,33;  450,290;  217,908; 1586,632;16,97799
 212,93;  430,248;  205,834; 1714,331;14,87667
 213,53;  421,248;  178,220; 1776,071;15,20971
 214,13;  456,484;  200,076; 1832,252;15,70956
 214,73;  447,053;  190,377; 1872,755;15,25671
 215,33;  428,645;  173,143; 1893,014;14,85588
 215,93;  480,858;  201,842; 2020,959;15,33802
 216,53;  450,518;  158,603; 2108,122;14,97368
 217,13;  533,193;  216,302; 2311,821;15,12228
 217,73;  549,191;  194,611; 2514,042;15,28737
 218,33;  534,201;  147,770; 2710,446;15,07921
 218,93;  601,349;  176,163; 3006,310;15,02345
 219,53;  655,714;  183,770; 3305,411;15,11846
 220,13;  671,918;  156,541; 3596,351;14,98271
 220,73;  757,824;  191,836; 3941,482;15,09445
 221,32;  843,428;  182,912; 4363,260;15,80050
 221,92;  917,828;  190,848; 4775,100;15,85821
 222,52;  976,409;  174,227; 5205,811;15,94293
 223,12; 1055,870;  171,612; 5659,397;16,11320
 223,72; 1165,537;  195,843; 6067,054;16,51607
 224,32; 1236,716;  201,998; 6450,584;16,55924
 224,92; 1306,460;  183,767; 6756,102;17,08210
 225,52; 1426,015;  200,684; 7072,450;17,83139
 226,12; 1482,129;  193,225; 7427,116;17,81757
 226,72; 1547,475;  164,840; 7739,306;18,25390
 227,31; 1623,142;  160,994; 8128,208;18,35206
 227,91; 1781,131;  178,452; 8522,116;19,20834
 228,51; 1884,135;  181,909; 8913,420;19,49521
 229,11; 1989,565;  182,301; 9324,768;19,76780
 229,71; 2099,479;  175,219; 9553,884;20,51742
 230,31; 2186,202;  170,000;10006,581;20,49698
 230,91; 2287,996;  162,060;10330,474;20,90725
 231,51; 2444,704;  162,304;10694,483;21,67074
 232,10; 2567,227;  171,616;11055,467;22,01069
 232,70; 2701,653;  189,671;11322,958;22,56280
 233,30; 2837,551;  200,534;11530,911;23,27387
 233,90; 2936,987;  179,764;11686,583;23,96164
 234,50; 3011,153;  181,534;11918,588;24,10842
 235,10; 3149,306;  166,536;11994,333;25,21830
 235,70; 3256,529;  187,221;12088,487;25,78976
 236,29; 3312,620;  187,988;12111,897;26,20476
 236,89; 3395,803;  166,599;12029,823;27,22029
 237,49; 3465,500;  197,687;11971,528;27,75486
 238,09; 3446,450;  176,993;11716,511;28,33271
 238,69; 3499,087;  218,442;11547,115;28,95877
 239,29; 3438,118;  172,223;11220,918;29,55910
 239,89; 3406,367;  193,907;10971,228;29,80760
 240,48; 3331,194;  176,531;10591,259;30,29040
 241,08; 3311,708;  175,145;10224,619;31,21122
 241,68; 3248,258;  196,993; 9925,720;31,36346
 242,28; 3107,641;  168,918; 9604,373;31,14554
 242,88; 3132,381;  214,538; 9311,832;32,07375
 243,48; 3003,142;  207,533; 8999,871;31,79596
 244,07; 2919,644;  190,298; 8722,403;31,98913
 244,67; 2905,527;  200,070; 8626,684;32,10609
 245,27; 2809,890;  198,602; 8464,284;31,59192
 245,87; 2760,895;  202,768; 8392,547;31,23560
 246,47; 2732,916;  190,295; 8414,382;30,91676
 247,06; 2693,413;  179,146; 8363,177;30,72162
 247,66; 2656,091;  176,685; 8450,657;29,96633
 248,26; 2653,082;  217,295; 8599,618;29,05861
 248,86; 2667,634;  200,757; 8748,312;28,86062
 249,46; 2645,192;  157,457; 8985,134;28,18108
 250,05; 2679,399;  203,377; 9328,022;27,13555
 250,65; 2693,096;  168,832; 9752,153;26,34018
 251,25; 2735,695;  174,760;10184,430;25,58461
 251,85; 2788,098;  191,137;10734,774;24,63060
 252,44; 2844,556;  155,835;11399,855;23,91245
 253,04; 2909,440;  197,451;12181,097;22,63075
 253,64; 2964,443;  155,678;12806,281;22,20262
 254,24; 3103,502;  195,146;13819,981;21,34599
 254,84; 3113,730;  170,996;14760,980;20,16955
 255,43; 3214,594;  175,527;15673,602;19,60932
 256,03; 3262,827;  178,063;16632,867;18,74689
 256,63; 3341,162;  183,214;17740,187;17,98686
 257,23; 3376,508;  177,907;18504,473;17,45336
 257,82; 3420,960;  190,672;19507,424;16,72272
 258,42; 3414,923;  145,747;20302,163;16,21903
 259,02; 3493,530;  190,682;21198,699;15,72184
 259,62; 3463,846;  173,669;21930,235;15,12269
 260,21; 3395,415;  179,989;22397,750;14,47232
 260,81; 3381,103;  187,994;22933,955;14,03814
 261,41; 3353,114;  162,594;23400,776;13,72964
 262,01; 3358,091;  205,975;23824,308;13,34606
 262,60; 3248,431;  158,984;24167,088;12,86835
 263,20; 3196,365;  164,756;24460,117;12,47814
 263,80; 3202,258;  201,359;24601,526;12,29868
 264,40; 3149,886;  163,976;24723,670;12,15776
 264,99; 3139,258;  187,974;24932,785;11,92688
 265,59; 3082,109;  179,353;25036,733;11,67764
 266,19; 3059,232;  165,821;25188,490;11,56316
 266,78; 3082,940;  212,895;25312,266;11,43473
 267,38; 3062,415;  186,739;25277,200;11,46123
 267,98; 3094,504;  172,049;25385,041;11,59107
 268,58; 3064,621;  188,354;25331,948;11,43936
 269,17; 3075,560;  171,427;25344,257;11,53677
 269,77; 3074,727;  191,520;25145,525;11,55408
 270,37; 3080,964;  163,205;25022,926;11,73689
 270,96; 3149,562;  215,441;24936,068;11,86912
 271,56; 3094,983;  174,753;24681,858;11,91585
 272,16; 3140,127;  178,979;24415,776;12,21757
 272,75; 3165,242;  177,210;24341,755;12,36536
 273,35; 3218,190;  187,057;24250,780;12,59627
 273,95; 3277,139;  186,287;24241,027;12,84925
 274,54; 3336,182;  175,300;24275,778;13,11543
 275,14; 3496,664;  200,519;24642,891;13,48537
 275,74; 3504,012;  153,825;24701,154;13,64787
 276,33; 3666,150;  213,136;25015,994;13,92184
 276,93; 3793,873;  195,455;25489,552;14,22632
 277,53; 3953,518;  185,065;26006,631;14,59420
 278,12; 4090,956;  172,215;26618,996;14,81746
 278,72; 4333,274;  216,219;27075,304;15,32835
 279,32; 4459,108;  186,064;27665,976;15,54970
 279,91; 4716,032;  164,832;28374,510;16,13347
 280,51; 4873,376;  172,373;28907,973;16,35951
 281,11; 5116,929;  183,525;29638,489;16,74898
 281,70; 5296,879;  165,370;30074,476;17,15701
 282,30; 5533,367;  181,214;30776,550;17,49336
 282,90; 5784,021;  178,752;31071,250;18,14443
 283,49; 6010,626;  191,519;31703,206;18,46650
 284,09; 6250,981;  213,908;32174,372;18,88919
 284,69; 6497,403;  201,602;32551,480;19,46159
 285,28; 6743,776;  201,523;32877,715;20,02147
 285,88; 7050,781;  235,209;33144,707;20,71004
 286,47; 7207,201;  184,368;33220,054;21,25832
 287,07; 7426,749;  209,679;33248,088;21,84448
 287,67; 7705,911;  204,456;33355,794;22,62791
 288,26; 7930,365;  172,448;33241,410;23,45981
 288,86; 8236,558;  179,754;33428,826;24,23167
 289,46; 8627,442;  192,063;33471,747;25,34693
 290,05; 8919,336;  174,837;33601,850;26,15998
 290,65; 9358,073;  180,521;33802,888;27,29597
 291,24; 9741,774;  188,988;33879,003;28,35495
 291,84;10078,393;  206,368;34112,571;29,11569
 292,44;10474,731;  191,072;34235,115;30,20693
 293,03;10932,300;  241,449;34378,031;31,31787
 293,63;11222,919;  179,598;34411,921;32,25992
 294,22;11657,327;  205,832;34641,153;33,25508
 294,82;11897,590;  186,438;34577,243;34,05315
 295,41;12117,340;  169,832;34333,169;34,97173
 296,01;12346,499;  219,286;34338,309;35,54385
 296,61;12465,480;  198,218;34063,374;36,22384
 297,20;12536,666;  189,978;33632,022;36,91966
 297,80;12714,015;  203,223;33573,652;37,49065
 298,39;12684,021;  174,983;33088,159;38,00617
 298,99;12899,742;  220,749;32950,935;38,73792
 299,58;12870,629;  203,609;32750,873;38,91885
 300,18;12971,836;  204,683;32613,290;39,39433
 300,78;12855,081;  186,527;32260,315;39,49815
 301,37;13005,887;  187,512;32215,892;40,02193
 301,97;13043,339;  196,140;32287,880;40,03273
 302,56;13099,368;  183,983;32152,209;40,40069
 303,16;13195,510;  173,212;32088,694;40,80245
 303,75;13260,811;  183,605;32134,495;40,92908
 304,35;13438,114;  179,766;32333,153;41,23469
 304,94;13455,121;  186,064;32333,222;41,27599
 305,54;13482,735;  204,604;32260,260;41,42212
 306,13;13499,306;  168,074;32186,516;41,63611
 306,73;13374,000;  162,995;32020,506;41,46904
 307,33;13459,552;  202,378;31912,690;41,80714
 307,92;13472,172;  194,757;32025,129;41,71304
 308,52;13682,548;  158,596;32481,024;41,84077
 309,11;13909,474;  179,977;32994,471;41,83973
 309,71;14058,104;  160,590;33237,434;42,01584
 310,30;14137,980;  174,218;33455,381;41,95695
 310,90;14303,518;  210,295;33790,920;41,96832
 311,49;14403,685;  182,833;33948,536;42,11626
 312,09;14397,631;  159,914;34164,542;41,86994
 312,68;14664,248;  230,450;34592,532;42,00501
 313,28;14645,633;  166,988;34646,206;41,99238
 313,87;14693,877;  156,910;34788,836;41,97562
 314,47;14792,448;  172,902;35029,917;41,94147
 315,06;14819,159;  163,065;35299,219;41,71229
 315,66;14881,785;  164,914;35459,619;41,69711
 316,25;14802,343;  156,982;35359,386;41,60330
 316,85;14734,541;  158,914;35417,171;41,33961
 317,44;14772,987;  178,747;35551,114;41,25887
 318,04;14685,508;  157,214;35579,271;41,01482
 318,63;14621,551;  155,072;35726,555;40,66876
 319,22;14674,932;  181,905;35905,413;40,57000
 319,82;14603,546;  167,754;35877,499;40,42536
 320,41;14498,970;  187,829;35789,622;40,19781
 321,01;14494,977;  194,144;35985,116;39,95654
 321,60;14439,943;  183,216;36034,226;39,76660
 322,20;14327,338;  171,834;36012,471;39,49568
 322,79;14257,095;  204,065;36081,114;39,16997
 323,39;14180,294;  165,535;36264,448;38,82322
 323,98;14103,812;  162,373;36174,645;38,71302
 324,58;13971,254;  169,212;36082,534;38,43154
 325,17;13844,753;  180,674;35980,084;38,16845
 325,76;13674,878;  196,525;35776,620;37,88172
 326,36;13453,093;  163,298;35371,970;37,74580
 326,95;13276,520;  198,754;35069,435;37,50361
 327,55;13005,238;  161,138;34641,898;37,25005
 328,14;12781,797;  174,762;34387,672;36,84877
 328,74;12546,086;  192,213;33867,091;36,68572
 329,33;12310,785;  190,298;33500,292;36,38694
 329,92;12139,179;  162,978;33018,813;36,45076
 330,52;11761,309;  185,147;32312,238;36,03240
 331,11;11449,571;  168,446;31877,121;35,57741
 331,71;11164,417;  182,371;31285,125;35,30892
 332,30;10886,429;  205,371;30798,837;34,91287
 332,89;10700,183;  233,836;30230,908;34,89123
 333,49;10372,302;  194,370;29681,099;34,51699
 334,08;10150,841;  181,061;29290,311;34,24953
 334,68; 9875,802;  180,908;28844,380;33,82317
 335,27; 9708,770;  199,148;28509,180;33,59100
 335,86; 9524,725;  240,446;28279,505;33,11195
 336,46; 9320,706;  197,917;27999,599;32,81380
 337,05; 9190,392;  182,908;27786,484;32,63158
 337,65; 8990,815;  165,677;27644,737;32,11587
 338,24; 9019,697;  223,681;27624,652;32,10111
 338,83; 8847,543;  197,758;27574,945;31,59486
 339,43; 8793,125;  171,674;27464,343;31,58889
 340,02; 8620,228;  179,828;27356,946;31,05701
 340,61; 8608,992;  174,680;27473,017;30,89680
 341,21; 8506,778;  205,367;27452,091;30,46756
 341,80; 8443,738;  178,753;27378,828;30,38589
 342,40; 8363,617;  184,455;27491,454;29,95262
 342,99; 8275,722;  182,451;27617,523;29,49972
 343,58; 8255,401;  183,298;27786,907;29,24293
 344,18; 8265,336;  195,298;27881,312;29,14843
 344,77; 8246,728;  176,058;28227,568;28,77089
 345,36; 8246,827;  168,447;28489,512;28,52428
 345,96; 8298,888;  195,298;28794,851;28,33467
 346,55; 8247,614;  166,843;29047,867;27,97952
 347,14; 8249,117;  165,455;29447,062;27,60662
 347,74; 8275,649;  151,771;29812,017;27,38979
 348,33; 8374,611;  171,462;30503,914;27,04413
 348,92; 8406,019;  191,928;31151,410;26,53175
 349,52; 8454,405;  155,541;31617,050;26,37783
 350,11; 8482,023;  183,519;31846,779;26,20862
 350,70; 8415,108;  180,680;31873,408;25,98207
 351,29; 8235,760;  155,818;31621,476;25,67861
 351,89; 8163,000;  185,362;31699,576;25,31441
 352,48; 8060,069;  158,680;31723,262;25,03245
 353,07; 8023,924;  175,148;31659,396;24,92921
 353,67; 7877,736;  186,851;31579,556;24,49896
 354,26; 7750,129;  189,455;31300,726;24,30204
 354,85; 7606,349;  179,607;31184,856;23,95318
 355,45; 7530,239;  158,753;31068,172;23,84867
 356,04; 7417,936;  171,610;30902,801;23,57971
 356,63; 7328,071;  197,062;30688,623;23,38683
 357,22; 7196,618;  185,820;30543,010;23,09436
 357,82; 7059,206;  191,976;30352,412;22,76900
 358,41; 7002,852;  202,294;30250,845;22,63190
 359,00; 6837,522;  168,982;29995,238;22,35795
 359,60; 6720,223;  188,065;30018,757;21,89744
 360,19; 6669,461;  182,611;29786,862;21,91189
 360,78; 6572,328;  194,523;29616,870;21,67674
 361,37; 6430,225;  178,985;29418,142;21,37969
 361,97; 6375,929;  196,986;29340,258;21,20195
 362,56; 6264,959;  175,365;29036,458;21,09966
 363,15; 6191,598;  220,907;28797,122;20,89392
 363,74; 6015,281;  188,056;28358,776;20,68540
 364,34; 5910,381;  197,905;28033,378;20,52229
 364,93; 5764,767;  172,211;27588,802;20,39844
 365,52; 5587,725;  153,908;27112,428;20,15621
 366,11; 5530,304;  173,982;26848,518;20,08028
 366,71; 5399,625;  170,598;26452,336;19,89605
 367,30; 5300,033;  172,370;26109,029;19,76994
 367,89; 5224,900;  227,607;25897,457;19,46756
 368,48; 5127,383;  186,594;25524,475;19,49961
 369,07; 4976,723;  179,603;25048,562;19,28959
 369,67; 4916,998;  197,980;24801,124;19,18055
 370,26; 4804,748;  178,219;24544,953;18,98707
 370,85; 4749,328;  183,216;24214,610;19,00061
 371,44; 4675,930;  179,601;23966,503;18,90254
 372,03; 4591,779;  168,751;23732,350;18,77059
 372,63; 4513,891;  156,293;23380,987;18,76278
 373,22; 4459,044;  176,834;23073,486;18,70234
 373,81; 4346,930;  157,139;22784,407;18,51656
 374,40; 4314,194;  177,916;22525,182;18,50910
 374,99; 4241,611;  172,445;22297,340;18,39179
 375,59; 4186,489;  164,453;22014,855;18,40715
 376,18; 4196,187;  194,753;21910,702;18,42624
 376,77; 4172,083;  189,140;21655,398;18,55444
 377,36; 4118,905;  198,292;21627,694;18,29548
 377,95; 4023,035;  193,213;21311,650;18,13497
 378,55; 4010,516;  166,683;21149,809;18,31869
 379,14; 3982,353;  196,908;21141,953;18,07323
 379,73; 3984,675;  184,137;20977,656;18,27751
 380,32; 3999,635;  192,832;20964,307;18,32707
 380,91; 3956,216;  164,133;20836,090;18,34409
 381,50; 3963,087;  190,981;20822,730;18,28302
 382,10; 3955,711;  169,601;20675,846;18,46321
 382,69; 3937,930;  156,908;20648,499;18,45158
 383,28; 3986,856;  201,674;20597,764;18,55837
 383,87; 3917,292;  171,981;20438,512;18,48027
 384,46; 3911,244;  168,284;20395,775;18,50432
 385,05; 4015,767;  201,058;20345,605;18,93668
 385,64; 3988,073;  173,290;20372,133;18,88615
 386,24; 3974,450;  160,207;20337,384;18,90375
 386,83; 4028,437;  204,283;20341,147;18,99081
 387,42; 4080,637;  197,982;20443,755;19,17761
 388,01; 4137,056;  187,663;20722,576;19,23258
 388,60; 4213,795;  185,669;20944,242;19,40464
 389,19; 4273,278;  171,195;21150,735;19,55278
 389,78; 4354,200;  177,043;21370,802;19,70938
 390,37; 4518,798;  234,666;21847,997;19,82171
 390,96; 4523,898;  180,052;22023,426;19,88633
 391,56; 4592,472;  184,039;22139,320;20,07915
 392,15; 4694,635;  169,582;22411,555;20,34466
 392,74; 4768,350;  150,800;22583,063;20,58441
 393,33; 4846,896;  174,192;22846,524;20,60972
 393,92; 5001,955;  192,027;23328,953;20,78897
 394,51; 5048,729;  174,577;23483,413;20,91118
 395,10; 5187,156;  210,938;23741,130;21,14822
 395,69; 5243,437;  191,709;23890,302;21,31657
 396,28; 5296,416;  189,164;24005,657;21,44418
 396,87; 5352,795;  197,000;24049,721;21,61513
 397,46; 5439,275;  196,915;24168,127;21,86940
 398,06; 5557,858;  211,983;24401,439;22,10002
 398,65; 5619,950;  191,424;24435,851;22,39082
 399,24; 5690,991;  197,112;24662,782;22,45546
 399,83; 5722,963;  175,619;24707,790;22,61253
 400,42; 5858,906;  214,283;24793,714;22,96483
 401,01; 5917,917;  189,019;24914,542;23,16998
 401,60; 5994,218;  199,975;24900,798;23,45769
 402,19; 6054,384;  220,863;24849,078;23,68633
 402,78; 6126,038;  222,501;24901,088;23,92170
 403,37; 6143,267;  204,834;24741,548;24,20223
 403,96; 6165,117;  203,697;24609,990;24,42575
 404,55; 6171,499;  211,322;24417,879;24,62216
 405,14; 6140,824;  194,415;24293,260;24,67508
 405,73; 6219,580;  207,883;24275,116;24,97877
 406,32; 6271,474;  205,219;24131,352;25,35410
 406,91; 6259,398;  198,856;23904,980;25,56530
 407,50; 6278,931;  207,674;23733,268;25,80703
 408,09; 6269,317;  183,730;23420,189;26,18982
 408,68; 6321,635;  192,793;23255,197;26,57504
 409,27; 6304,635;  185,273;23146,454;26,65090
 409,86; 6366,232;  197,701;22960,388;27,09931
 410,45; 6395,322;  238,122;22919,365;27,14666
 411,04; 6443,154;  238,082;22843,339;27,44968
 411,63; 6356,568;  211,592;22600,535;27,44647
 412,22; 6423,152;  218,021;22288,056;28,11564
 412,81; 6383,410;  223,652;22056,752;28,21293
 413,40; 6414,345;  235,979;21728,740;28,74626
 413,99; 6341,785;  260,589;21397,851;28,77003
 414,58; 6238,667;  202,285;21003,304;29,01964
 415,17; 6229,154;  218,036;20759,640;29,26313
 415,76; 6234,563;  210,789;20711,639;29,38305
 416,35; 6229,480;  191,259;20454,580;29,79877
 416,94; 6323,843;  230,023;20514,156;30,04230
 417,53; 6467,960;  201,576;20800,791;30,42050
 418,12; 6514,150;  201,580;20827,937;30,60438
 418,71; 6676,293;  220,980;21186,040;30,79082
 419,30; 6797,495;  211,736;21228,228;31,33615
 419,89; 6922,915;  194,893;21434,172;31,67726
 420,48; 7088,972;  237,442;21733,900;31,87283
 421,07; 7147,354;  215,368;21822,005;32,08267
 421,66; 7142,668;  188,454;21846,735;32,10880
 422,25; 7218,284;  208,395;21852,910;32,38645
 422,84; 7290,128;  225,783;21737,539;32,83946
 423,43; 7235,043;  215,391;21508,323;32,96705
 424,02; 7194,964;  233,317;21253,813;33,11838
 424,60; 7086,283;  215,646;20826,513;33,33502
 425,19; 7076,713;  213,481;20615,233;33,64041
 425,78; 7157,687;  234,251;20400,833;34,33123
 426,37; 7123,925;  238,797;20253,664;34,40007
 426,96; 7105,668;  222,105;20170,398;34,50703
 427,55; 7080,096;  211,732;20039,514;34,64010
 428,14; 7076,746;  203,353;19811,972;35,05292
 428,73; 7084,792;  204,266;19667,866;35,35073
 429,32; 7122,939;  222,719;19620,862;35,57155
 429,91; 7157,201;  242,190;19615,704;35,69312
 430,50; 7170,671;  231,888;19457,006;36,09228
 431,08; 7132,885;  221,587;19289,596;36,24552
 431,67; 7142,291;  259,438;19255,284;36,23346
 432,26; 7116,582;  261,905;19013,763;36,55466
 432,85; 7028,814;  275,980;18644,633;36,76282
 433,44; 6972,514;  279,142;18309,281;37,12324
 434,03; 6874,570;  303,076;17873,504;37,40087
 434,62; 6737,090;  254,220;17499,553;37,59203
 435,21; 6715,814;  270,981;17245,806;37,96700
 435,79; 6624,368;  249,226;17166,079;37,68515
 436,38; 6660,027;  252,083;16985,729;38,29377
 436,97; 6670,116;  247,930;16873,153;38,62917
 437,56; 6585,002;  255,023;16748,946;38,37764
 438,15; 6614,235;  235,558;16658,115;38,84095
 438,74; 6620,055;  265,790;16633,993;38,82078
 439,33; 6714,223;  241,711;16658,018;39,42733
 439,91; 6740,026;  221,026;16713,130;39,52801
 440,50; 6818,948;  271,565;16805,548;39,59955
 441,09; 6901,403;  262,189;16895,628;39,91486
 441,68; 6930,435;  241,660;16963,225;40,00089
 442,27; 6909,194;  233,887;16851,869;40,16918
 442,86; 6961,437;  203,599;16819,088;40,67191
 443,44; 7025,004;  227,595;16931,893;40,69257
 444,03; 7116,026;  271,446;16995,269;40,92713
 444,62; 7050,552;  226,600;16879,912;40,97654
 445,21; 7017,784;  245,366;16666,519;41,24204
 445,80; 7053,712;  265,147;16604,455;41,54745
 446,39; 6952,496;  268,760;16364,850;41,52397
 446,97; 6861,487;  227,772;16116,035;41,75230
 447,56; 6753,096;  218,705;15890,562;41,69506
 448,15; 6747,808;  228,618;15759,022;41,97695
 448,74; 6693,871;  257,389;15456,208;42,34857
 449,33; 6631,097;  235,088;15347,125;42,32394
 449,91; 6572,974;  238,175;15103,327;42,61509
 450,50; 6511,360;  230,558;14860,535;42,93105
 451,09; 6444,154;  234,097;14801,560;42,62964
 451,68; 6456,164;  259,410;14724,733;42,83868
 452,26; 6423,737;  251,953;14609,451;42,98649
 452,85; 6389,060;  230,104;14421,058;43,40058
 453,44; 6421,126;  243,810;14491,666;43,35611
 454,03; 6449,094;  217,417;14426,473;43,85708
 454,61; 6421,677;  230,811;14415,041;43,64612
 455,20; 6528,661;  245,893;14580,549;43,82922
 455,79; 6558,103;  254,961;14556,496;44,07318
 456,38; 6627,130;  252,439;14684,904;44,16910
 456,97; 6643,221;  237,283;14765,098;44,09430
 457,55; 6645,922;  240,597;14742,400;44,16916
 458,14; 6715,927;  249,512;14730,724;44,65383
 458,73; 6625,780;  247,136;14630,007;44,34889
 459,31; 6722,005;  265,453;14709,332;44,70095
 459,90; 6730,341;  278,294;14787,950;44,46727
 460,49; 6885,715;  316,676;14902,291;45,03779
 461,08; 6854,527;  239,457;14907,869;45,09738
 461,66; 6913,338;  248,298;15049,536;45,03029
 462,25; 6977,768;  251,999;15121,148;45,23304
 462,84; 7024,847;  277,304;15109,398;45,49285
 463,43; 6974,364;  215,394;15085,289;45,45405
 464,01; 7024,002;  248,782;15117,756;45,56615
 464,60; 7017,776;  291,775;15077,974;45,48837
 465,19; 6922,115;  228,247;14843,912;45,79927
 465,77; 6896,381;  248,251;14804,322;45,67256
 466,36; 6911,684;  262,163;14688,107;46,09418
 466,95; 6741,965;  245,856;14414,014;45,85006
 467,53; 6666,608;  250,795;14096,619;46,33753
 468,12; 6550,492;  284,642;13785,386;46,41114
 468,71; 6398,461;  249,478;13594,462;46,07710
 469,29; 6306,491;  227,721;13304,237;46,48616
 469,88; 6199,873;  237,801;13053,236;46,52258
 470,47; 6285,957;  300,502;13186,269;46,45013
 471,06; 6282,328;  263,195;13153,729;46,69421
 471,64; 6302,971;  248,577;13220,818;46,67192
 472,23; 6337,716;  221,439;13272,338;46,86479
 472,81; 6394,131;  220,431;13340,822;47,05424
 473,40; 6477,741;  234,747;13485,729;47,11344
 473,99; 6643,382;  335,209;13697,135;47,21006
 474,57; 6646,908;  245,516;13793,499;47,24978
 475,16; 6690,669;  253,433;13941,336;47,02865
 475,75; 6770,763;  273,676;14125,956;46,90265
 476,33; 6873,117;  271,682;14198,006;47,40257
 476,92; 6897,432;  275,979;14259,027;47,35343
 477,51; 6883,581;  265,064;14328,410;47,06218
 478,09; 6959,093;  257,910;14312,913;47,67828
 478,68; 6903,745;  273,913;14221,761;47,53301
 479,27; 6941,737;  287,599;14305,290;47,46957
 479,85; 6905,002;  257,605;14283,426;47,39400
 480,44; 7004,923;  254,839;14418,392;47,65813
 481,02; 7635,073;  255,537;15815,136;47,42755
 481,61; 8591,446;  283,919;17873,001;47,23116
 482,20; 9216,060;  255,691;19099,150;47,55162
 482,78; 9638,847;  299,453;19992,311;47,42529
 483,37; 9907,631;  278,699;20533,405;47,53923
 483,95;10043,553;  304,393;20791,766;47,53738
 484,54;10151,127;  317,687;21021,241;47,49638
 485,13;10041,112;  274,631;20883,675;47,38930
 485,71; 9950,921;  255,552;20621,442;47,60592
 486,30; 9894,665;  284,013;20314,022;47,98126
 486,88; 9656,035;  322,246;19987,396;47,46361
 487,47; 9384,252;  301,556;19228,616;47,98789
 488,05; 8907,185;  276,713;18322,323;47,82588
 488,64; 8211,181;  297,104;17030,624;47,29475
 489,23; 7383,351;  304,637;15145,886;47,69621
 489,81; 6294,977;  299,947;12970,050;47,31635
 490,40; 5922,489;  248,179;12323,096;46,99254
 490,98; 5831,000;  239,182;12008,747;47,51083
 491,57; 5771,324;  273,023;11980,192;46,96525
 492,15; 5732,127;  253,952;11882,885;47,10815
 492,74; 5707,992;  260,944;11757,133;47,38134
 493,32; 5671,513;  277,412;11662,063;47,38047
 493,91; 5601,010;  263,340;11601,767;47,07593
 494,50; 5561,514;  262,198;11572,590;46,85352
 495,08; 5556,489;  241,813;11485,521;47,26800
 495,67; 5567,613;  272,570;11503,391;47,14743
 496,25; 5460,698;  224,038;11384,741;46,92052
 496,84; 5484,524;  231,646;11343,679;47,27198
 497,42; 5440,812;  221,502;11293,373;47,14027
 498,01; 5465,151;  249,648;11233,564;47,48309
 498,59; 5378,132;  227,811;11193,057;46,96950
 499,18; 5339,086;  225,572;11124,262;46,91862
 499,76; 5392,301;  260,115;11101,294;47,33974
 500,35; 5274,371;  245,432;10862,542;47,36637
 500,93; 5242,517;  241,963;10813,297;47,30296
 501,52; 5180,991;  238,734;10757,351;46,98581
 502,10; 5187,009;  261,129;10747,595;46,97369
 502,69; 5108,288;  242,363;10559,944;47,16149
 503,27; 5009,886;  227,429;10349,820;47,24632
 503,86; 4982,815;  233,977;10292,458;47,21228
 504,44; 4950,428;  224,981;10143,073;47,64472
 505,03; 4792,594;  207,673; 9910,660;47,25268
 505,61; 4722,685;  228,441; 9867,810;46,62384
 506,19; 4653,402;  250,134; 9720,605;46,49471
 506,78; 4550,370;  215,912; 9514,755;46,61287
 507,36; 4468,620;  224,980; 9341,724;46,54776
 507,95; 4385,804;  231,532; 9195,965;46,34172
 508,53; 4365,524;  226,066; 9043,616;46,94568
 509,12; 4289,151;  230,530; 8892,813;46,85393
 509,70; 4212,098;  257,455; 8769,488;46,45944
 510,29; 4129,813;  247,459; 8619,416;46,37331
 510,87; 3994,499;  229,989; 8412,749;46,00538
 511,46; 3951,767;  219,298; 8211,179;46,70326
 512,04; 3835,110;  224,918; 8099,680;45,84509
 512,62; 3771,741;  237,914; 7993,451;45,56521
 513,21; 3666,492;  213,229; 7789,415;45,58049
 513,79; 3627,188;  220,165; 7669,221;45,73764
 514,38; 3532,524;  209,315; 7499,517;45,58460
 514,96; 3496,422;  244,391; 7433,540;45,23528
 515,54; 3428,177;  212,778; 7283,317;45,47600
 516,13; 3387,086;  226,779; 7157,826;45,59639
 516,71; 3310,967;  215,862; 7056,039;45,24891
 517,30; 3255,015;  208,251; 6931,959;45,31375
 517,88; 3246,669;  234,174; 6882,673;45,31091
 518,46; 3144,437;  213,022; 6747,913;44,85789
 519,05; 3141,101;  225,718; 6659,507;45,31362
 519,63; 3145,166;  224,178; 6659,420;45,39049
 520,22; 3115,724;  243,724; 6564,271;45,43911
 520,80; 3071,121;  227,494; 6466,969;45,57478
 521,38; 3047,946;  257,027; 6436,694;45,16294
 521,97; 3033,247;  218,883; 6429,178;45,31772
 522,55; 3017,285;  235,575; 6443,647;44,80796
 523,13; 2997,309;  216,732; 6398,186;44,98257
 523,72; 2966,168;  224,330; 6381,243;44,53268
 524,30; 3062,191;  239,351; 6545,207;44,76537
 524,89; 3027,336;  207,114; 6567,260;44,34209
 525,47; 3089,946;  238,660; 6665,749;44,36357
 526,05; 3085,176;  213,276; 6727,615;44,08583
 526,64; 3171,457;  229,356; 6855,141;44,40381
 527,22; 3239,113;  232,121; 6943,659;44,80332
 527,80; 3310,919;  269,432; 7065,555;44,75326
 528,39; 3294,814;  226,435; 7190,884;44,05773
 528,97; 3370,905;  226,510; 7359,112;44,08482
 529,55; 3422,719;  234,655; 7559,822;43,52206
 530,14; 3526,107;  257,130; 7734,782;43,71663
 530,72; 3596,110;  221,972; 7856,769;44,19420
 531,30; 3617,581;  217,746; 7992,942;43,72668
 531,89; 3670,325;  229,746; 8072,921;43,86717
 532,47; 3729,733;  256,594; 8217,595;43,62692
 533,05; 3733,252;  264,355; 8219,821;43,60394
 533,63; 3744,463;  252,056; 8273,838;43,53655
 534,22; 3727,656;  224,980; 8342,061;43,15191
 534,80; 3783,600;  241,755; 8435,057;43,22855
 535,38; 3852,785;  314,977; 8489,709;43,27736
 535,97; 3751,964;  234,133; 8436,888;42,88597
 536,55; 3776,779;  271,140; 8468,496;42,76549
 537,13; 3752,812;  265,745; 8446,124;42,62720
 537,71; 3770,723;  285,283; 8475,119;42,55812
 538,30; 3770,308;  305,674; 8570,323;41,92113
 538,88; 3785,904;  318,837; 8599,984;41,86700
 539,46; 3922,562;  344,062; 8806,603;42,28635
 540,05; 3930,060;  345,912; 8897,023;41,91441
 540,63; 3990,226;  386,296; 9111,519;41,30473
 541,21; 4092,249;  393,223; 9243,260;41,79673
 541,79; 4108,377;  411,761; 9345,393;41,37865
 542,38; 4177,663;  420,142; 9496,556;41,39874
 542,96; 4237,002;  444,997; 9640,398;41,23807
 543,54; 4316,788;  449,299; 9854,765;41,11959
 544,12; 4367,864;  405,685; 9999,510;41,29926
 544,70; 4391,771;  405,382;10057,138;41,30222
 545,29; 4457,496;  420,603;10257,492;41,03831
 545,87; 4451,762;  410,915;10329,470;40,74028
 546,45; 4452,855;  392,603;10323,885;40,88347
 547,03; 4460,635;  383,760;10485,760;40,35711
 547,62; 4509,198;  363,839;10602,636;40,48677
 548,20; 4620,695;  382,919;10766,056;40,81402
 548,78; 4639,033;  344,546;10952,908;40,48210
 549,36; 4683,290;  347,391;11183,078;40,01499
 549,94; 4719,299;  320,764;11287,724;40,10715
 550,53; 4851,920;  322,697;11513,627;40,47227
 551,11; 4868,660;  294,548;11726,288;40,01238
 551,69; 4996,034;  322,468;12059,610;39,81861
 552,27; 5063,345;  275,540;12330,394;39,71682
 552,85; 5242,686;  287,163;12753,477;39,75130
 553,44; 5365,816;  288,544;13036,442;39,82831
 554,02; 5485,033;  310,085;13449,201;39,38582
 554,60; 5565,582;  248,318;13720,860;39,46742
 555,18; 5742,419;  287,852;14092,826;39,51160
 555,76; 5843,661;  277,008;14460,557;39,24725
 556,34; 6007,797;  292,169;14913,550;39,09089
 556,93; 6135,085;  277,853;15329,007;38,91550
 557,51; 6222,643;  240,707;15647,690;38,82614
 558,09; 6383,047;  284,853;16070,707;38,63075
 558,67; 6522,000;  280,172;16447,067;38,60870
 559,25; 6617,027;  288,786;16734,988;38,47843
 559,83; 6653,062;  273,791;17033,614;38,06288
 560,41; 6794,414;  265,398;17391,253;38,12374
 561,00; 6914,717;  280,634;17766,934;37,93875
 561,58; 6959,209;  274,782;18011,072;37,68785
 562,16; 7050,006;  268,625;18341,204;37,52304
 562,74; 7147,687;  237,393;18731,886;37,36406
 563,32; 7262,934;  245,867;19154,726;37,10994
 563,90; 7409,320;  267,019;19544,270;37,05041
 564,48; 7547,568;  267,550;20046,724;36,80648
 565,06; 7714,090;  267,326;20579,929;36,66081
 565,65; 7946,019;  272,181;21263,904;36,55650
 566,23; 8234,910;  311,788;22040,081;36,46454
 566,81; 8407,053;  279,324;22783,792;36,11607
 567,39; 8683,561;  277,023;23701,381;35,88802
 567,97; 8941,680;  289,940;24310,168;36,01856
 568,55; 9196,831;  293,252;25197,412;35,75137
 569,13; 9410,140;  270,634;25881,528;35,68601
 569,71; 9690,570;  280,933;26851,239;35,41411
 570,29;10090,021;  308,160;27888,993;35,46615
 570,87;10253,225;  303,624;28621,612;35,13527
 571,45;10450,359;  296,018;29325,907;34,97892
 572,03;10522,944;  249,486;29702,693;34,88061
 572,61;10709,613;  242,944;30408,629;34,69727
 573,20;10969,592;  281,092;31069,696;34,71577
 573,78;11102,562;  260,329;31782,006;34,39612
 574,36;11269,319;  279,328;32300,505;34,32101
 574,94;11392,405;  317,256;32642,774;34,26132
 575,52;11347,797;  265,725;32846,235;34,01442
 576,10;11564,646;  308,953;33440,563;33,97267
 576,68;11698,906;  288,870;33975,623;33,87099
 577,26;11885,000;  309,574;34699,026;33,65982
 577,84;12015,639;  315,943;35186,679;33,55162
 578,42;12080,417;  350,873;35502,631;33,36830
 579,00;12061,036;  290,252;35667,901;33,27181
 579,58;12064,008;  329,718;35955,711;32,93744
 580,16;12015,685;  305,028;35934,796;32,86762
 580,74;12033,479;  303,875;36128,711;32,74154
 581,32;12022,058;  300,872;36230,094;32,62299
 581,90;11976,698;  327,182;36174,629;32,49748
 582,48;11944,159;  327,798;36293,768;32,29820
 583,06;11923,636;  317,718;36487,822;32,08704
 583,64;11997,918;  308,871;36568,753;32,23686
 584,22;11882,014;  320,649;36441,638;32,00733
 584,80;11744,570;  320,258;36211,539;31,83033
 585,38;11605,297;  324,553;35778,495;31,81803
 585,96;11558,381;  299,253;35838,913;31,68046
 586,54;11557,913;  319,802;35884,305;31,59923
 587,12;11533,543;  300,568;36082,359;31,39299
 587,70;11536,099;  326,331;36191,135;31,25562
 588,28;11513,492;  305,568;36305,241;31,13340
 588,86;11532,503;  315,031;36369,510;31,11256
 589,44;11447,152;  297,962;36510,054;30,78858
 590,02;11539,063;  307,114;36686,583;30,87442
 590,59;11510,541;  285,802;36964,214;30,60312
 591,17;11533,108;  298,047;37099,676;30,52871
 591,75;11529,393;  289,503;37335,237;30,34058
 592,33;11580,023;  309,655;37533,493;30,27729
 592,91;11577,122;  272,199;37770,302;30,14799
 593,49;11624,042;  276,587;38115,931;29,98851
 594,07;11700,286;  285,510;38350,610;29,98751
 594,65;11650,899;  301,418;38358,213;29,82248
 595,23;11678,512;  307,960;38870,395;29,48609
 595,81;11706,947;  283,500;38835,566;29,63122
 596,39;11678,716;  271,577;38992,460;29,45991
 596,97;11703,173;  305,198;39202,896;29,30244
 597,55;11606,642;  285,497;39101,230;29,16638
 598,12;11518,092;  272,973;39094,948;28,96586
 598,70;11483,390;  269,431;39324,222;28,71340
 599,28;11469,890;  292,662;39457,523;28,53892
 599,86;11511,955;  276,815;39468,964;28,66681
 600,44;11407,287;  251,740;39539,023;28,39480
 601,02;11431,652;  308,287;39632,593;28,28623
 601,60;11332,380;  285,734;39636,789;28,07204
 602,18;11252,400;  254,434;39624,823;27,93461
 602,75;11171,999;  259,269;39722,651;27,65280
 603,33;11170,685;  276,046;39733,774;27,61091
 603,91;11110,142;  263,669;39629,278;27,55317
 604,49;11130,031;  287,354;39768,137;27,46318
 605,07;11032,111;  289,734;39779,503;27,20294
 605,65;10988,478;  293,279;39876,357;27,01962
 606,23;10954,029;  322,032;39961,370;26,82183
 606,80;10905,358;  339,115;40031,476;26,62034
 607,38;10867,771;  361,129;40020,091;26,49248
 607,96;10807,217;  396,345;40120,463;26,20794
 608,54;10808,299;  436,971;40132,952;26,12690
 609,12;10738,704;  423,730;40212,084;25,92460
 609,70;10709,775;  447,584;40164,958;25,83804
 610,27;10637,756;  446,960;40221,891;25,62115
 610,85;10633,647;  452,660;40361,469;25,51063
 611,43;10517,608;  453,661;40190,327;25,32660
 612,01;10374,163;  428,579;39938,834;25,17216
 612,59;10325,993;  437,122;40005,832;24,99164
 613,16;10306,501;  400,803;40000,582;25,01453
 613,74;10198,723;  391,816;39860,382;24,84739
 614,32;10142,709;  378,203;39818,573;24,75764
 614,90;10097,226;  368,735;39740,501;24,70931
 615,48; 9925,731;  336,420;39404,202;24,54532
 616,05; 9832,758;  326,033;39490,968;24,27356
 616,63; 9805,555;  335,569;39351,965;24,27181
 617,21; 9745,974;  332,883;39185,457;24,22771
 617,79; 9643,305;  313,578;39065,963;24,07523
 618,36; 9599,240;  330,580;39125,867;23,89120
 618,94; 9455,718;  261,959;38822,725;23,84226
 619,52; 9345,823;  292,032;38375,453;23,77358
 620,10; 9283,383;  285,269;38330,713;23,65096
 620,67; 9193,439;  295,723;38250,497;23,44294
 621,25; 9112,060;  306,350;38026,894;23,34460
 621,83; 9027,885;  298,651;38062,774;23,11515
 622,41; 8947,141;  328,959;38049,670;22,84735
 622,98; 8883,337;  308,800;37788,029;22,87810
 623,56; 8795,966;  314,030;37795,674;22,62957
 624,14; 8731,789;  289,659;37659,464;22,59078
 624,72; 8677,449;  301,805;37544,194;22,48955
 625,29; 8585,158;  282,799;37675,744;22,20301
 625,87; 8585,793;  326,270;37619,830;22,14732
 626,45; 8452,890;  279,259;37344,439;22,05205
 627,02; 8404,728;  287,732;37357,465;21,89656
 627,60; 8370,146;  271,817;37247,702;21,90165
 628,18; 8328,319;  253,730;37361,161;21,76003
 628,76; 8276,670;  261,724;37356,021;21,60695
 629,33; 8251,617;  296,726;37384,113;21,44905
 629,91; 8211,229;  278,346;37340,329;21,40437
 630,49; 8267,541;  296,956;37449,416;21,45372
 631,06; 8190,016;  287,340;37625,831;21,16496
 631,64; 8133,838;  293,568;37572,200;21,03154
 632,22; 8027,840;  254,949;37478,527;20,88163
 632,79; 8107,494;  288,257;37824,059;20,83141
 633,37; 8044,471;  277,349;37826,435;20,68525
 633,95; 8069,262;  270,644;37963,712;20,68979
 634,52; 7983,154;  272,189;38068,796;20,40121
 635,10; 7953,922;  282,499;38029,680;20,32317
 635,68; 7982,622;  274,949;38237,268;20,30348
 636,25; 7974,407;  266,637;38241,039;20,29728
 636,83; 7930,824;  254,878;38432,405;20,10593
 637,41; 7978,546;  251,487;38505,802;20,19918
 637,98; 7964,700;  285,409;38627,908;20,02814
 638,56; 7940,562;  273,867;38771,280;19,91483
 639,13; 7956,145;  265,800;38871,974;19,91999
 639,71; 7925,464;  311,878;39154,614;19,60106
 640,29; 7806,165;  246,955;38826,648;19,59375
 640,86; 7810,932;  252,032;38988,317;19,51375
 641,44; 7757,314;  253,417;38967,062;19,38308
 642,02; 7742,927;  276,341;38914,962;19,32415
 642,59; 7713,079;  253,879;39161,323;19,17165
 643,17; 7682,384;  263,110;39098,531;19,10440
 643,74; 7676,535;  249,111;39141,738;19,09726
 644,32; 7584,379;  286,649;39185,253;18,76090
 644,89; 7521,684;  280,649;39099,692;18,65331
 645,47; 7513,220;  291,111;39116,437;18,60154
 646,05; 7458,756;  286,111;39135,414;18,46274
 646,62; 7366,446;  264,189;39107,852;18,28421
 647,20; 7363,751;  269,497;39209,444;18,21845
 647,77; 7285,825;  249,804;39035,729;18,14066
 648,35; 7229,438;  245,420;39003,398;18,01956
 648,92; 7178,282;  272,651;39009,682;17,82695
 649,50; 7108,741;  234,882;38843,966;17,80373
 650,08; 7063,200;  246,882;38764,251;17,69674
 650,65; 7091,351;  238,036;39112,535;17,62933
 651,23; 7168,503;  220,421;39827,512;17,54252
 651,80; 7270,885;  233,729;40797,488;17,34838
 652,38; 7334,652;  246,499;41191,465;17,31141
 652,95; 7362,418;  227,268;41534,057;17,27355
 653,53; 7356,723;  255,961;41894,187;17,05347
 654,10; 7395,259;  281,576;41945,318;17,07404
 654,68; 7329,103;  241,577;41909,064;17,00973
 655,25; 7328,716;  238,192;41917,579;17,01206
 655,83; 7296,329;  237,423;42057,709;16,87914
 656,40; 7298,019;  264,500;42034,840;16,83855
 656,98; 7212,862;  239,270;41918,278;16,73167
 657,55; 7176,783;  252,347;41811,332;16,66171
 658,13; 7051,473;  241,116;41390,693;16,55025
 658,70; 7010,009;  266,270;41249,977;16,45468
 659,28; 6816,468;  236,501;40241,339;16,44793
 659,85; 6645,850;  255,040;39406,315;16,32338
 660,43; 6620,463;  261,887;39494,676;16,20730
 661,00; 6638,306;  240,502;39551,730;16,27475
 661,58; 6609,304;  237,810;40107,784;15,98068
 662,15; 6622,840;  226,503;40183,453;16,00807
 662,73; 6658,530;  300,272;40518,660;15,80933
 663,30; 6650,681;  244,042;40675,406;15,84572
 663,88; 6687,448;  254,965;40897,306;15,82705
 664,45; 6692,061;  244,734;41079,282;15,78890
 665,03; 6704,212;  242,658;41416,797;15,69323
 665,60; 6822,748;  323,504;41846,697;15,65208
 666,17; 6762,592;  247,658;41960,520;15,61852
 666,75; 6801,128;  249,735;42413,650;15,53791
 667,32; 6806,356;  268,505;42639,396;15,43005
 667,90; 6774,661;  244,582;42979,604;15,28039
 668,47; 6852,735;  273,274;43192,888;15,32973
 669,05; 6876,502;  237,582;43631,019;15,29936
 669,62; 6813,500;  231,583;43641,611;15,16220
 670,19; 6810,036;  232,198;43783,433;15,10368
 670,77; 6880,187;  248,198;43903,025;15,19188
 671,34; 6791,954;  243,353;43823,310;15,02664
 671,92; 6835,644;  231,737;44287,748;14,98980
 672,49; 6836,872;  258,738;44173,340;14,97938
 673,06; 6780,100;  215,507;44343,470;14,87627
 673,64; 6738,174;  232,661;44171,293;14,80591
 674,21; 6698,172;  220,046;44244,347;14,71489
 674,79; 6757,785;  250,508;44513,323;14,70145
 675,36; 6702,321;  260,585;44484,223;14,56627
 675,93; 6640,626;  219,508;44374,123;14,54235
 676,51; 6657,316;  256,816;44710,176;14,39824
 677,08; 6644,467;  241,124;44763,692;14,38224
 677,65; 6660,080;  250,047;44833,976;14,37745
 678,23; 6677,462;  253,509;45032,876;14,34579
 678,80; 6621,075;  240,971;45153,160;14,20573
 679,38; 6600,765;  240,048;45315,367;14,11131
 679,95; 6687,532;  241,510;45585,344;14,21587
 680,52; 6682,068;  246,664;45759,705;14,13969
 681,10; 6734,911;  255,126;46247,374;14,08886
 681,67; 6757,370;  254,664;46474,505;14,06908
 682,24; 6721,522;  234,126;46637,789;13,98035
 682,82; 6795,596;  238,050;47233,381;13,95361
 683,39; 6834,670;  280,973;47459,127;13,89138
 683,96; 6857,514;  245,665;47797,719;13,90444
 684,54; 6841,973;  227,589;48127,234;13,80884
 685,11; 6953,125;  269,666;48378,288;13,89243
 685,68; 6976,814;  246,358;48929,495;13,82503
 686,25; 6959,273;  229,436;49081,164;13,77605
 686,83; 6955,809;  244,897;49196,602;13,70925
 687,40; 6997,653;  219,205;49533,271;13,74547
 687,97; 7045,112;  269,667;49965,556;13,63381
 688,55; 7032,725;  222,129;49932,071;13,70067
 689,12; 7027,722;  214,206;50320,663;13,59808
 689,69; 7056,566;  222,899;50349,716;13,63276
 690,26; 7037,641;  246,130;50497,462;13,51509
 690,84; 7017,330;  245,361;50658,285;13,43300
 691,41; 7037,712;  248,822;50775,800;13,43617
 691,98; 7064,787;  254,823;51050,469;13,40659
 692,56; 7076,861;  233,284;51139,369;13,44353
 693,13; 7093,705;  283,592;51161,576;13,38519
 693,70; 7110,933;  266,823;51358,245;13,39581
 694,27; 7036,392;  254,285;51426,453;13,25351
 694,84; 7028,697;  234,131;51492,583;13,25550
 695,42; 7058,003;  288,362;51602,791;13,19247
 695,99; 7066,385;  251,132;51901,229;13,19504
 696,56; 7065,305;  233,747;51796,052;13,24913
 697,13; 7119,764;  253,594;52059,182;13,25373
 697,71; 7066,070;  221,517;52124,466;13,18721
 698,28; 7138,682;  241,825;52567,212;13,18071
 698,85; 7066,911;  218,672;52430,573;13,11624
 699,42; 7101,908;  217,903;52602,627;13,14125
 699,99; 7080,752;  269,364;52899,758;12,94193
 700,57; 7109,211;  250,288;52759,427;13,06234
 701,14; 7122,978;  239,903;52950,788;13,05817
 701,71; 7094,667;  251,057;53144,841;12,93840
 702,28; 7128,742;  249,750;53175,587;12,99742
 702,85; 7099,047;  240,212;53278,641;12,93182
 703,43; 7147,352;  267,981;53533,464;12,91525
 704,00; 7207,734;  279,366;53798,363;12,94562
 704,57; 7154,424;  251,674;53675,417;12,92075
 705,14; 7176,883;  272,597;54065,932;12,83484
 705,71; 7173,573;  271,290;54061,216;12,83193
 706,28; 7178,724;  252,367;53901,808;12,91040
 706,86; 7196,953;  276,752;54297,400;12,81029
 707,43; 7214,950;  300,598;54147,300;12,84081
 708,00; 7202,486;  264,060;54117,123;12,88400
 708,57; 7147,945;  243,675;54126,561;12,81347
 709,14; 7207,558;  272,599;54215,230;12,85618
 709,71; 7147,402;  248,830;54312,438;12,76010
 710,28; 7207,861;  264,445;54427,876;12,81938
 710,86; 7191,628;  265,676;54698,083;12,72395
 711,43; 7232,087;  280,061;54701,983;12,77431
 712,00; 7215,623;  256,600;54690,575;12,78434
 712,57; 7257,312;  265,293;54991,705;12,77632
 713,14; 7237,925;  255,216;55000,451;12,75492
 713,71; 7250,923;  266,831;54936,505;12,77507
 714,28; 7265,689;  265,601;54977,558;12,79444
 714,85; 7198,456;  241,524;54659,535;12,78425
 715,42; 7239,992;  249,140;55004,127;12,76752
 716,00; 7322,067;  311,140;55111,181;12,79365
 716,57; 7264,141;  262,602;55229,773;12,73767
 717,14; 7199,831;  249,217;55154,826;12,65920
 717,71; 7246,674;  234,987;55096,957;12,78060
 718,28; 7259,057;  280,449;55273,164;12,69006
 718,85; 7226,977;  247,218;55374,218;12,66124
 719,42; 7286,513;  269,449;55454,810;12,71544
 719,99; 7247,895;  247,219;55223,709;12,73395
 720,56; 7271,739;  264,988;55553,840;12,67299
 721,13; 7288,890;  241,296;55688,124;12,71055
 721,70; 7301,195;  248,835;55484,255;12,76782
 722,27; 7368,808;  273,912;55549,770;12,83543
 722,84; 7420,344;  306,374;55677,900;12,84771
 723,41; 7337,803;  240,835;55715,569;12,79315
 723,98; 7400,955;  266,682;55931,161;12,81656
 724,55; 7431,183;  283,144;55921,215;12,84739
 725,12; 7382,565;  221,836;55925,192;12,85511
 725,69; 7492,332;  253,221;56131,091;12,95524
 726,27; 7467,560;  266,606;56193,145;12,87574
 726,84; 7520,711;  269,298;56558,891;12,88233
 727,41; 7556,786;  274,683;56495,175;12,95276
 727,98; 7526,168;  272,376;56762,306;12,84086
 728,55; 7580,935;  296,068;56619,205;12,93406
 729,12; 7545,394;  239,607;56799,951;12,91680
 729,69; 7634,391;  279,376;57065,620;12,95211
 730,26; 7641,081;  276,069;57301,443;12,91532
 730,82; 7593,309;  272,069;57015,958;12,90225
 731,39; 7696,691;  263,608;57200,396;13,05498
 731,96; 7738,074;  251,454;57379,758;13,10492
 732,53; 7733,917;  265,455;57658,119;13,01292
 733,10; 7740,069;  274,609;57655,326;13,01040
 733,67; 7796,374;  271,455;57940,841;13,04838
 734,24; 7752,910;  251,994;57573,126;13,08578
 734,81; 7788,600;  285,456;57668,949;13,07544
 735,38; 7778,136;  270,840;57484,925;13,12141
 735,95; 7773,671;  271,148;57348,594;13,14446
 736,52; 7865,131;  277,610;57559,878;13,24584
 737,09; 7807,897;  265,918;57244,547;13,23651
 737,66; 7837,587;  307,072;57340,678;13,20365
 738,23; 7854,123;  259,534;57458,193;13,27757
 738,80; 7924,121;  314,919;57686,631;13,26299
 739,37; 7968,118;  294,150;57997,146;13,29908
 739,94; 7965,731;  266,765;58021,969;13,33034
 740,51; 8063,805;  361,073;58162,869;13,32611
 741,07; 7974,572;  257,304;57969,230;13,37205
 741,64; 8051,800;  299,458;58260,591;13,37507
 742,21; 8072,259;  268,459;58352,491;13,43536
 742,78; 8056,565;  238,074;58040,006;13,52635
 743,35; 8124,870;  267,921;58393,598;13,51717
 743,92; 8194,098;  293,382;58500,806;13,57338
 744,49; 8195,788;  272,075;58297,244;13,65565
 745,06; 8172,862;  262,537;58309,990;13,62734
 745,63; 8207,552;  246,922;58349,813;13,70092
 746,19; 8190,703;  260,537;58279,174;13,66831
 746,76; 8213,163;  260,614;58369,227;13,68566
 747,33; 8227,083;  256,307;58286,589;13,73555
 747,90; 8326,850;  280,384;58549,027;13,80926
 748,47; 8308,078;  276,615;58454,850;13,80493
 749,04; 8332,076;  273,000;58474,596;13,84683
 749,61; 8359,996;  287,308;58464,495;13,87604
 750,17; 8411,301;  285,693;58499,856;13,95813
 750,74; 8393,683;  274,001;58413,910;13,96576
 751,31; 8383,296;  257,078;58361,194;13,98562
 751,88; 8359,678;  231,463;58242,479;14,01150
 752,45; 8429,907;  261,617;58344,071;14,06327
 753,02; 8388,520;  282,848;58210,355;13,99279
 753,58; 8426,286;  249,232;58226,639;14,10386
 754,15; 8492,438;  258,617;58347,616;14,17449
 754,72; 8473,051;  247,156;58025,824;14,23691
 755,29; 8454,817;  241,156;57871,723;14,25226
 755,86; 8535,815;  262,387;58023,931;14,32342
 756,42; 8579,889;  267,311;57938,600;14,41372
 756,99; 8529,656;  228,388;57931,653;14,38613
 757,56; 8579,115;  235,003;57765,245;14,50387
 758,13; 8591,882;  200,234;57725,068;14,58787
 758,70; 8651,572;  227,773;57822,122;14,62609
 759,26; 8657,646;  223,696;57884,329;14,62688
 759,83; 8754,182;  234,543;57974,152;14,75528
 760,40; 8777,026;  219,928;57712,590;14,88381
 760,97; 8806,485;  197,774;57783,567;14,94937
 761,53; 8741,098;  193,697;57436,697;14,93178
 762,10; 8762,864;  196,544;57388,905;14,97809
 762,67; 8823,631;  229,313;57454,112;15,01852
 763,24; 8753,013;  189,852;56929,781;15,09195
 763,80; 8790,318;  228,314;57080,835;15,06003
 764,37; 8834,700;  218,929;57096,119;15,14803
 764,94; 8770,775;  215,391;56619,172;15,16810
 765,50; 8808,926;  216,314;56701,841;15,21206
 766,07; 8883,155;  252,622;56651,433;15,30268
 766,64; 8783,306;  230,776;56431,872;15,21773
 767,21; 8849,073;  225,777;56265,618;15,38780
 767,77; 8887,609;  250,315;56115,825;15,46087
 768,34; 8913,760;  239,239;56116,109;15,52435
 768,91; 8917,142;  255,162;55937,317;15,55612
 769,47; 8975,832;  245,008;55948,909;15,67363
 770,04; 8955,445;  262,855;55841,962;15,64003
 770,61; 8966,981;  240,086;55658,939;15,74716
 771,18; 8943,440;  231,932;55498,454;15,76272
 771,74; 9007,360;  246,932;55584,123;15,83100
 772,31; 9033,819;  247,317;55284,253;15,96474
 772,88; 8981,355;  225,471;55091,615;15,95863
 773,44; 8963,122;  228,471;55019,130;15,94186
 774,01; 9028,966;  246,010;55033,953;16,03082
 774,58; 8995,809;  234,549;54714,775;16,08154
 775,14; 9095,961;  230,703;54775,598;16,25314
 775,71; 9082,497;  238,395;54690,421;16,24201
 776,27; 9135,802;  283,857;54724,475;16,25982
 776,84; 9205,338;  308,165;54764,067;16,33831
 777,41; 9156,566;  245,165;54464,966;16,43569
 777,97; 9160,102;  244,550;54181,635;16,52954
 778,54; 9191,561;  259,012;54240,381;16,54747
 779,11; 9244,789;  268,551;54182,666;16,64914
 779,67; 9253,556;  228,166;54092,642;16,75574
 780,24; 9254,554;  251,936;53933,388;16,77044
 780,80; 9307,705;  269,013;53984,749;16,82690
 781,37; 9357,087;  254,859;53989,264;16,93929
 781,94; 9284,085;  246,783;53653,703;16,92159
 782,50; 9405,774;  257,091;53683,833;17,12379
 783,07; 9373,233;  281,937;53762,964;16,99911
 783,63; 9424,923;  240,860;53436,556;17,26467
 784,20; 9446,075;  273,399;53488,686;17,23692
 784,77; 9448,611;  256,553;53280,586;17,33564
 785,33; 9377,916;  229,784;52997,332;17,33666
 785,90; 9463,221;  253,015;53002,078;17,46042
 786,46; 9494,372;  269,861;52896,439;17,52824
 787,03; 9452,062;  242,092;52744,339;17,54205
 787,59; 9457,137;  248,631;52615,315;17,58466
 788,16; 9508,211;  258,478;52575,292;17,68023
 788,73; 9492,132;  265,401;52391,576;17,70076
 789,29; 9477,283;  244,786;51910,014;17,86985
 789,86; 9544,357;  267,171;51898,222;17,96823
 790,42; 9543,586;  257,094;51859,737;17,99616
 790,99; 9512,968;  272,479;51447,944;18,05648
 791,55; 9540,119;  245,633;51501,152;18,13363
 792,12; 9585,424;  265,556;51433,359;18,21432
 792,68; 9522,268;  254,556;51144,874;18,21115
 793,25; 9551,035;  265,941;50834,543;18,36138
 793,81; 9598,186;  309,249;50529,058;18,49656
 794,38; 9411,799;  217,557;50328,112;18,34791
 794,94; 9520,566;  244,173;50104,243;18,60485
 795,51; 9506,255;  257,788;49860,681;18,64502
 796,07; 9500,253;  260,789;49633,504;18,71371
 796,64; 9593,635;  264,712;49687,480;18,87576
 797,20; 9527,248;  258,558;49121,303;18,96883
 797,77; 9479,861;  229,328;48871,664;19,01745
 798,33; 9514,858;  241,866;48671,641;19,14730
 798,90; 9516,010;  274,636;48687,771;19,08857
 799,46; 9421,853;  246,251;48125,363;19,16410
 800,03; 9446,620;  270,790;48025,109;19,21466
 800,59; 9490,156;  272,713;47941,624;19,33638
 801,15; 9422,923;  258,175;47589,524;19,36295
 801,72; 9396,920;  252,406;47287,732;19,44180
 802,28; 9428,533;  285,560;46983,631;19,57891
 802,85; 9409,915;  249,330;46889,300;19,64106
 803,41; 9372,220;  246,561;46712,892;19,63929
 803,98; 9327,141;  249,484;46328,330;19,70027
 804,54; 9290,062;  249,946;46006,846;19,75684
 805,11; 9294,213;  258,485;45810,130;19,83623
 805,67; 9323,134;  272,100;45752,414;19,90099
 806,23; 9273,054;  262,408;45267,006;20,02161
 806,80; 9284,359;  275,562;45117,444;20,09014
 807,36; 9324,741;  282,793;45013,267;20,21429
 807,93; 9332,893;  286,024;44813,321;20,31758
 808,49; 9256,890;  245,640;44510,144;20,35774
 809,05; 9233,734;  234,640;44363,505;20,39276
 809,62; 9274,347;  270,410;44212,405;20,49051
 810,18; 9276,421;  263,871;44157,151;20,53287
 810,74; 9308,726;  232,025;43883,896;20,79338
 811,31; 9287,109;  245,872;43546,335;20,88023
 811,87; 9306,106;  256,564;43534,004;20,91053
 812,44; 9322,719;  283,949;43399,288;20,96416
 813,00; 9277,332;  209,719;43112,880;21,13507
 813,56; 9368,483;  260,950;43217,010;21,20198
 814,13; 9352,250;  259,565;43157,449;21,19611
 814,69; 9297,632;  251,719;42808,348;21,25618
 815,25; 9293,245;  229,104;42601,479;21,39163
 815,82; 9290,858;  275,335;42334,840;21,43516
 816,38; 9351,778;  298,182;42184,817;21,61452
 816,94; 9256,007;  235,490;41865,486;21,66831
 817,51; 9281,004;  226,644;41713,001;21,82491
 818,07; 9264,925;  242,105;41376,747;21,93484
 818,63; 9278,615;  265,336;41247,262;21,99330
 819,20; 9307,997;  249,798;41189,777;22,12556
 819,76; 9245,379;  235,414;40615,138;22,31309
 820,32; 9234,299;  268,952;40609,961;22,22390
 820,89; 9246,297;  270,799;40403,553;22,36452
 821,45; 9206,217;  233,338;40010,145;22,55807
 822,01; 9209,061;  273,876;39788,660;22,61226
 822,57; 9232,751;  267,107;39675,791;22,75043
 823,14; 9155,364;  238,415;39514,075;22,70350
 823,70; 9162,284;  241,108;39247,282;22,87119
 824,26; 9138,820;  235,262;39008,797;22,96298
 824,82; 9208,587;  257,570;38887,005;23,17149
 825,39; 9171,200;  239,647;38619,828;23,27126
 825,95; 9206,044;  261,878;38651,958;23,29812
 826,51; 9126,964;  258,340;38153,550;23,40302
 827,08; 9215,962;  278,417;38206,065;23,56472
 827,64; 9183,882;  257,186;38029,657;23,63281
 828,20; 9137,034;  242,956;37724,249;23,72938
 828,76; 9192,800;  273,494;37724,072;23,81620
 829,32; 9208,721;  275,879;37573,895;23,94991
 829,89; 9162,334;  234,187;37475,256;23,97393
 830,45; 9223,870;  253,572;37367,925;24,16935
 831,01; 9201,252;  241,188;37192,517;24,24829
 831,57; 9269,096;  252,188;37083,494;24,48164
 832,14; 9237,555;  246,496;37046,163;24,43245
 832,70; 9250,091;  233,111;36757,370;24,68764
 833,26; 9203,857;  214,189;36663,808;24,66327
 833,82; 9287,393;  238,343;36525,016;24,93767
 834,38; 9321,237;  233,804;36584,069;24,99963
 834,95; 9320,234;  234,882;36441,892;25,09280
 835,51; 9262,386;  205,343;36314,946;25,08209
 836,07; 9395,768;  243,190;36355,615;25,34468
 836,63; 9426,073;  262,882;36381,668;25,36960
 837,19; 9433,917;  247,421;36206,645;25,54698
 837,75; 9337,837;  215,421;35942,391;25,53370
 838,32; 9459,912;  258,268;36010,829;25,73702
 838,88; 9460,678;  257,499;36027,575;25,72871
 839,44; 9508,676;  251,499;35891,705;25,97397
 840,00; 9540,289;  248,961;35852,067;26,09696
 840,56; 9459,209;  224,422;35544,428;26,14605
 841,12; 9508,669;  231,346;35616,482;26,21814
 841,68; 9475,666;  218,654;35367,151;26,33687
 842,25; 9554,971;  231,039;35432,358;26,48745
 842,81; 9530,046;  224,193;35091,796;26,68911
 843,37; 9628,505;  205,270;35087,311;27,01457
 843,93; 9636,194;  234,885;35064,749;26,99209
 844,49; 9668,884;  240,578;35030,880;27,10039
 845,05; 9625,036;  202,040;34888,395;27,16629
 845,61; 9763,956;  253,809;34860,756;27,48046
 846,17; 9677,723;  233,040;34734,348;27,37485
 846,73; 9716,797;  242,810;34729,863;27,47114
 847,29; 9689,949;  215,733;34468,763;27,65950
 847,86; 9737,254;  221,118;34521,817;27,74327
 848,42; 9784,867;  208,580;34236,024;28,14283
 848,98; 9743,018;  241,811;34193,924;27,98414
 849,54; 9806,631;  228,965;34233,670;28,16571
 850,10; 9825,705;  237,734;34080,108;28,33126
 850,66; 9737,395;  216,734;33874,469;28,28670
 851,22; 9790,239;  212,504;33864,061;28,46149
 851,78; 9886,236;  268,043;33891,807;28,60535
 852,34; 9799,080;  237,274;33624,938;28,63874
 852,90; 9795,616;  226,889;33522,991;28,73828
 853,46; 9787,921;  218,120;33292,583;28,93411
 854,02; 9836,150;  234,274;33293,791;29,04421
 854,58; 9769,224;  221,659;32997,075;29,13026
 855,14; 9797,683;  221,736;32969,359;29,24165
 855,70; 9753,834;  196,121;32805,721;29,30951
 856,26; 9812,293;  242,275;32805,159;29,38934
 856,82; 9769,368;  229,429;32524,905;29,53955
 857,38; 9864,519;  246,276;32449,035;29,86776
 857,94; 9815,209;  240,430;32373,473;29,79730
 858,50; 9813,437;  249,661;32173,527;29,95808
 859,06; 9751,358;  224,892;32001,965;29,97905
 859,62; 9789,201;  242,969;31978,326;30,08075
 860,18; 9787,122;  227,738;31700,841;30,37318
 860,74; 9751,581;  195,431;31622,280;30,40760
 861,30; 9726,194;  207,893;31446,333;30,46984
 861,86; 9882,884;  260,124;31459,925;30,84238
 862,42; 9760,727;  226,662;31272,133;30,71000
 862,98; 9799,110;  253,047;31308,571;30,73869
 863,54; 9762,261;  233,971;31118,394;30,85144
 864,10; 9817,720;  223,202;31050,293;31,12366
 864,66; 9751,717;  208,202;30911,809;31,08272
 865,22; 9739,946;  230,510;30695,324;31,21449
 865,78; 9725,251;  229,895;30639,608;31,22475
 866,34; 9799,479;  226,664;30513,200;31,60749
 866,90; 9782,861;  236,895;30375,023;31,67405
 867,45; 9756,474;  230,818;30249,076;31,73287
 868,01; 9727,241;  235,511;30036,976;31,84988
 868,57; 9669,162;  226,434;29866,799;31,85766
 869,13; 9692,621;  211,204;29736,391;32,11298
 869,69; 9674,464;  215,512;29661,214;32,12337
 870,25; 9723,077;  209,512;29513,113;32,46552
 870,81; 9740,613;  218,974;29522,167;32,49352
 871,37; 9670,534;  225,974;29387,682;32,38685
 871,93; 9687,762;  233,436;29172,197;32,67011
 872,49; 9640,759;  253,897;29027,866;32,62276
 873,04; 9642,911;  212,513;28819,304;32,96559
 873,60; 9605,139;  219,667;28684,666;32,97197
 874,16; 9628,752;  236,206;28544,181;33,17986
 874,72; 9651,521;  222,437;28517,873;33,32369
 875,28; 9712,521;  226,052;28424,873;33,64137
 875,84; 9762,983;  226,590;28321,873;33,94304
 876,40; 9734,444;  220,513;28379,412;33,78659
 876,95; 9783,598;  239,129;28235,104;34,09229
 877,51; 9824,060;  260,052;28329,873;34,07221
 878,07; 9888,675;  269,744;28231,488;34,40032
 878,63; 9881,213;  228,283;28280,027;34,41116
 879,19; 9920,829;  235,898;28263,258;34,55527
 879,75; 9967,137;  226,590;28335,642;34,65270
 880,30; 9972,598;  230,821;28199,027;34,83161
 880,86;10051,290;  267,821;28385,488;34,79474
 881,42;10067,444;  216,667;28452,104;34,88799
 881,98;10156,829;  240,898;28461,335;35,13741
 882,54;10135,213;  224,744;28577,719;34,95390
 883,09;10251,906;  238,513;28735,488;35,13844
 883,65;10271,829;  214,283;28770,335;35,22037
 884,21;10409,213;  256,206;28987,565;35,33772
 884,77;10444,213;  221,360;28983,104;35,54323
 885,32;10513,367;  230,975;29187,642;35,50958
 885,88;10612,675;  259,283;29262,335;35,69760
 886,44;10669,752;  237,513;29484,642;35,66927
 887,00;10755,675;  254,360;29404,412;36,02503
 887,56;10844,060;  231,437;29648,488;36,07643
 888,11;10919,598;  236,360;29552,412;36,44160
 888,67;11075,675;  264,206;29822,412;36,57688
 889,23;11075,367;  237,667;29833,873;36,61855
 889,79;11042,598;  214,360;29723,027;36,69511
 890,34;11144,213;  239,360;29613,258;37,12430
 890,90;11261,598;  302,975;29761,181;37,20058
 891,46;11196,444;  225,667;29652,104;37,28204
 892,01;11200,290;  252,975;29674,104;37,20903
 892,57;11254,290;  252,821;29550,335;37,55086
 893,13;11175,983;  233,283;29317,873;37,62370
 893,69;11238,598;  227,129;29388,719;37,76018
 894,24;11293,906;  236,667;29281,335;38,06977
 894,80;11232,060;  231,052;29059,104;38,16077
 895,36;11251,367;  230,129;28942,873;38,38448
 895,91;11152,060;  231,206;28773,719;38,26171
 896,47;11229,675;  258,975;28624,412;38,67630
 897,03;11090,752;  220,667;28386,335;38,59339
 897,58;11097,367;  238,821;28392,488;38,56885
 898,14;11106,367;  239,975;28132,565;38,95799
 898,70;11020,137;  209,667;27967,642;38,94545
 899,25;11067,829;  228,129;27958,719;39,08932
 899,81;11051,367;  250,590;27772,104;39,24485
 900,37;10946,752;  217,437;27573,104;39,22155
 900,92;11055,983;  240,283;27632,719;39,48426
 901,48;10999,752;  224,821;27419,488;39,62148
 902,03;10974,367;  223,513;27255,796;39,77043
 902,59;11043,290;  226,052;27215,412;40,07964
 903,15;11032,367;  256,052;26958,950;40,35635
 903,70;10942,137;  244,052;26687,181;40,45695
 904,26;10956,829;  217,744;26660,335;40,61283
 904,82;10925,290;  236,744;26648,488;40,46891
 905,37;10965,060;  240,052;26469,873;40,88860
 905,93;10848,598;  224,744;26360,104;40,64935
 906,48;10899,444;  239,667;26317,104;40,87740
 907,04;10898,060;  253,898;26173,181;41,06657
 907,60;10823,983;  224,975;25972,873;41,16456
 908,15;10806,290;  218,667;25883,104;41,25406
 908,71;10819,906;  250,513;25858,335;41,27408
 909,26;10748,598;  213,283;25706,950;41,32523
 909,82;10745,752;  257,437;25599,796;41,38650
 910,37;10763,598;  268,052;25525,796;41,55377
 910,93;10635,060;  219,744;25226,335;41,65028
 911,48;10642,290;  208,513;25048,181;42,00450
 912,04;10580,675;  216,590;24939,950;41,92021
 912,60;10667,983;  242,206;25022,488;42,07287
 913,15;10621,521;  235,975;24808,104;42,26555
 913,71;10536,983;  226,360;24581,642;42,33424
 914,26;10530,675;  204,360;24588,950;42,34771
 914,82;10539,290;  234,975;24467,873;42,52201
 915,37;10515,367;  226,898;24384,950;42,58816
 915,93;10503,598;  277,129;24278,258;42,60828
 916,48;10453,675;  216,283;24113,488;42,83929
 917,04;10451,367;  239,590;24033,642;42,91735
 917,59;10432,906;  254,129;23937,412;42,97874
 918,15;10324,983;  206,206;23718,181;43,03669
 918,70;10365,829;  226,283;23675,335;43,24075
 919,26;10418,060;  229,667;23483,565;43,81370
 919,81;10289,829;  212,975;23370,412;43,51455
 920,37;10305,752;  233,283;23301,335;43,66415
 920,92;10286,290;  241,975;23216,796;43,71880
 921,48;10188,137;  209,667;22934,027;43,91089
 922,03;10252,675;  218,437;23038,488;43,97115
 922,59;10214,752;  225,821;22863,565;44,12512
 923,14;10187,675;  223,975;22679,488;44,37084
 923,69;10202,983;  244,283;22620,642;44,50545
 924,25;10216,137;  248,513;22641,181;44,51289
 924,80;10160,752;  225,975;22275,796;45,05604
 925,36;10153,213;  219,744;22273,104;45,04288
 925,91;10102,906;  222,052;22124,873;45,11224
 926,47;10113,444;  209,667;22107,181;45,22786
 927,02;10169,598;  269,744;22038,335;45,47770
 927,57;10081,598;  220,975;21821,565;45,64979
 928,13;10047,213;  217,360;21776,642;45,59453
 928,68;10091,137;  221,283;21722,027;45,90471
 929,24; 9981,983;  192,821;21528,642;45,88134
 929,79; 9966,829;  216,052;21382,335;46,06750
 930,34; 9932,675;  216,513;21190,642;46,32451
 930,90; 9959,367;  215,898;21257,642;46,30543
 931,45; 9985,598;  233,513;21206,719;46,49783
 932,01; 9978,829;  231,360;21068,950;46,77829
 932,56; 9948,829;  244,513;20865,642;47,06006
 933,11; 9928,675;  256,437;20914,258;46,82119
 933,67; 9818,290;  216,360;20690,488;46,89787
 934,22; 9800,906;  221,283;20578,796;47,05694
 934,77; 9859,521;  251,360;20507,642;47,43299
 935,33; 9776,137;  233,975;20403,412;47,31001
 935,88; 9749,983;  226,590;20301,335;47,43967
 936,43; 9725,675;  218,975;20248,181;47,46419
 936,99; 9709,367;  225,206;20154,719;47,58853
 937,54; 9622,983;  212,513;19992,719;47,57518
 938,09; 9740,290;  235,360;19954,412;48,20176
 938,65; 9699,906;  230,437;19810,104;48,36379
 939,20; 9727,906;  204,129;19720,104;48,79990
 939,75; 9665,137;  217,360;19588,488;48,77246
 940,31; 9679,444;  214,590;19526,642;49,01009
 940,86; 9754,137;  228,744;19496,873;49,43600
 941,41; 9726,367;  300,129;19384,873;49,39148
 941,96; 9669,906;  217,590;19234,412;49,70502
 942,52; 9689,060;  218,898;19187,027;49,92670
 943,07; 9621,829;  200,283;19000,335;50,11447
 943,62; 9608,752;  210,513;18923,565;50,22291
 944,18; 9595,521;  204,667;18843,796;50,38247
 944,73; 9595,290;  220,129;18759,181;50,56980
 945,28; 9411,829;  200,898;18568,873;50,14669
 945,83; 9506,521;  224,975;18574,873;50,58091
 946,39; 9481,906;  214,590;18463,565;50,78266
 946,94; 9483,444;  239,052;18505,642;50,60820
 947,49; 9381,829;  225,590;18264,719;50,75765
 948,04; 9382,444;  248,513;18248,181;50,74500
 948,59; 9330,137;  237,129;18177,258;50,68530
 949,15; 9305,367;  208,898;18127,104;50,76663
 949,70; 9220,367;  211,283;18002,412;50,63807
 950,25; 9278,290;  243,590;17877,258;51,23551
 950,80; 9239,598;  190,129;17786,719;51,42740
 951,36; 9213,675;  188,975;17675,027;51,61085
 951,91; 9288,829;  236,129;17672,027;51,91990
 952,46; 9150,444;  207,821;17485,873;51,75713
 953,01; 9220,675;  238,283;17504,565;52,02273
 953,56; 9141,829;  203,975;17356,642;52,10766
 954,11; 9163,367;  221,283;17362,796;52,16625
 954,67; 9218,598;  214,898;17186,104;53,05280
 955,22; 9116,060;  202,129;17152,181;52,58940
 955,77; 9182,521;  238,437;17072,488;53,13091
 956,32; 9160,137;  267,283;16949,796;53,30644
 956,87; 9069,906;  207,821;16783,565;53,46417
 957,42; 9161,367;  210,206;16742,488;54,14353
 957,98; 9084,521;  209,821;16680,873;53,88059
 958,53; 9145,983;  240,437;16656,335;54,24952
 959,08; 9032,367;  216,283;16515,642;54,08853
 959,63; 9003,598;  214,283;16453,335;54,12456
 960,18; 8980,521;  226,206;16438,873;53,99676
 960,73; 8977,752;  214,513;16331,412;54,37298
 961,28; 8909,367;  206,975;16188,027;54,45444
 961,83; 8934,521;  241,667;16189,565;54,50783
 962,39; 8821,367;  200,129;16034,719;54,44560
 962,94; 8791,598;  231,360;16000,950;54,28320
 963,49; 8766,367;  214,744;15862,104;54,65218
 964,04; 8784,983;  232,052;15809,027;54,90752
 964,59; 8711,752;  199,975;15702,950;54,90415
 965,14; 8669,137;  234,206;15642,412;54,74311
 965,69; 8668,060;  220,129;15507,950;55,25922
 966,24; 8635,367;  213,437;15436,719;55,32270
 966,79; 8652,367;  231,667;15336,258;55,74928
 967,34; 8581,752;  199,052;15212,719;55,83379
 967,89; 8646,367;  209,590;15114,104;56,60552
 968,44; 8594,444;  226,206;15046,565;56,46448
 968,99; 8597,060;  229,052;14984,565;56,71106
 969,55; 8629,137;  227,283;14903,027;57,24993
 970,10; 8594,983;  230,821;14821,642;57,32482
 970,65; 8562,367;  233,513;14703,335;57,56017
 971,20; 8523,752;  210,052;14610,488;57,73228
 971,75; 8432,444;  201,206;14497,181;57,57731
 972,30; 8440,367;  225,898;14445,873;57,76711
 972,85; 8426,444;  206,513;14366,796;58,04920
 973,40; 8388,829;  204,513;14167,565;58,61409
 973,95; 8391,367;  224,360;14185,412;58,49851
 974,50; 8406,983;  248,360;14086,950;58,95559
 975,05; 8341,444;  224,206;13905,642;59,33031
 975,60; 8328,444;  227,667;13878,950;59,34077
 976,15; 8311,906;  216,052;13755,950;59,79258
 976,70; 8254,290;  212,744;13693,335;59,65277
 977,25; 8211,829;  228,667;13616,258;59,63106
 977,80; 8215,367;  212,975;13398,565;60,69044
 978,35; 8105,290;  231,590;13314,796;60,18173
 978,89; 8075,675;  194,667;13252,873;60,35291
 979,44; 8047,367;  216,744;13219,796;60,22142
 979,99; 7939,598;  206,129;13049,488;60,21376
 980,54; 7942,213;  236,513;12988,104;60,42933
 981,09; 7872,675;  238,437;12832,565;60,61744
 981,64; 7824,906;  231,360;12723,488;60,78665
 982,19; 7847,290;  253,667;12714,719;60,93886
 982,74; 7743,137;  233,667;12564,565;60,89961
 983,29; 7673,983;  209,052;12400,027;61,23325
 983,84; 7640,983;  228,513;12303,488;61,38704
 984,39; 7705,521;  277,437;12298,181;61,79388
 984,94; 7556,521;  198,129;12154,719;61,54256
 985,49; 7542,675;  248,667;12060,335;61,75257
 986,03; 7547,752;  239,206;11997,796;62,15495
 986,58; 7572,521;  271,360;11828,565;63,17411
 987,13; 7449,675;  228,898;11728,796;62,78992
 987,68; 7381,060;  239,437;11609,335;62,81167
 988,23; 7354,752;  231,821;11558,027;62,88894
 988,78; 7261,906;  215,283;11352,104;63,27320
 989,33; 7189,675;  235,898;11312,181;62,78078
 989,88; 7234,829;  261,975;11214,412;63,66486
 990,42; 7129,444;  220,667;11102,181;63,49096
 990,97; 7085,829;  220,283;10949,027;63,99208
 991,52; 7056,290;  248,975;10915,027;63,82226
 992,07; 7017,675;  256,667;10801,412;64,11732
 992,62; 6982,060;  241,052;10718,873;64,33597
 993,17; 6939,906;  244,590;10596,104;64,67958
 993,71; 6871,444;  236,744;10508,565;64,59127
 994,26; 6750,290;  220,667;10335,950;64,55206
 994,81; 6761,213;  246,129;10295,027;64,83382
 995,36; 6662,137;  235,052;10137,719;64,90256
 995,91; 6641,213;  228,821;10097,335;64,97830
 996,45; 6566,060;  232,513; 9939,719;65,24582
 997,00; 6501,290;  214,129; 9861,565;65,16924
 997,55; 6475,367;  235,513; 9794,335;65,27849
 998,10; 6439,290;  261,590; 9676,488;65,61622
 998,65; 6375,213;  223,975; 9595,027;65,64085
 999,19; 6348,983;  251,283; 9456,412;66,24242
 999,74; 6260,367;  278,975; 9402,104;65,56295
1000,29; 6310,521;  251,821; 9298,950;66,96821
1000,84; 6160,675;  231,744; 9158,950;66,41418
1001,38; 6128,598;  234,129; 9078,796;66,64433
1001,93; 6105,598;  242,437; 9040,335;66,64275
1002,48; 6022,137;  218,129; 8857,104;67,18399
1003,03; 5985,829;  236,052; 8843,104;66,80309
1003,57; 5926,213;  242,667; 8662,719;67,50013
1004,12; 5866,983;  267,052; 8632,565;66,94067
1004,67; 5805,752;  233,052; 8498,412;67,42235
1005,22; 5704,675;  223,437; 8366,565;67,31121
1005,76; 5626,983;  216,206; 8234,027;67,48438
1006,31; 5622,367;  247,283; 8191,796;67,65782
1006,86; 5539,137;  226,744; 8071,488;67,71913
1007,40; 5441,752;  218,590; 7946,335;67,58973
1007,95; 5419,521;  238,437; 7855,027;68,02367
1008,50; 5400,675;  234,360; 7722,488;68,99341
1009,04; 5315,137;  231,513; 7619,181;68,81229
1009,59; 5220,444;  247,744; 7518,027;68,39762
1010,14; 5171,983;  221,360; 7391,488;69,04511
1010,68; 5110,367;  234,283; 7255,873;69,44416
1011,23; 4986,521;  215,590; 7127,412;69,02567
1011,78; 4969,367;  240,129; 7102,796;68,91254
1012,32; 4878,213;  239,821; 7005,104;68,56169
1012,87; 4891,213;  259,206; 6943,412;69,29780
1013,42; 4835,598;  210,360; 6846,796;69,69461
1013,96; 4812,444;  261,360; 6832,565;69,25798
1014,51; 4755,137;  198,667; 6706,412;70,01611
1015,06; 4801,829;  190,360; 6751,488;70,28469
1015,60; 4818,752;  268,975; 6764,488;70,04492
1016,15; 4776,060;  215,052; 6756,335;69,72650
1016,69; 4808,983;  231,437; 6763,719;70,07575
1017,24; 4815,983;  196,283; 6787,796;70,08557
1017,79; 4923,367;  245,744; 6832,796;71,01239
1018,33; 4864,137;  220,821; 6814,104;70,42494
1018,88; 4942,444;  237,744; 6866,104;70,97835
1019,42; 4966,906;  221,437; 6870,104;71,37474
1019,97; 4940,213;  215,437; 6884,873;70,84222
1020,51; 5024,444;  248,206; 6918,335;71,60639
1021,06; 4973,829;  204,590; 6930,642;70,90695
1021,61; 4948,290;  187,898; 6853,258;71,41989
1022,15; 4908,675;  193,437; 6810,796;71,25559
1022,70; 4949,521;  225,206; 6826,950;71,56162
1023,24; 4875,598;  213,975; 6803,335;70,74471
1023,79; 4882,444;  222,898; 6735,258;71,54928
1024,33; 4833,675;  221,513; 6661,950;71,61256
1024,88; 4786,675;  233,437; 6588,873;71,64321
1025,42; 4716,213;  224,360; 6499,950;71,57659
1025,97; 4707,444;  212,898; 6359,719;73,11985
1026,51; 4570,367;  180,360; 6257,873;72,23362
1027,06; 4529,752;  212,129; 6224,027;71,81797
1027,60; 4497,060;  227,437; 6133,565;72,29140
1028,15; 4430,598;  232,052; 6013,565;72,62019
1028,69; 4312,521;  191,206; 5878,642;72,46350
1029,24; 4302,598;  211,129; 5852,181;72,53025
1029,78; 4195,752;  207,437; 5700,258;72,60960
1030,33; 4096,829;  193,360; 5620,796;71,92105
1030,87; 4149,983;  217,744; 5544,412;73,82174
1031,42; 4056,444;  199,513; 5511,565;72,60717
1031,96; 4041,137;  219,206; 5417,181;73,52730
1032,51; 3948,752;  208,898; 5315,412;73,23693
1033,05; 3933,213;  224,821; 5261,565;73,62677
1033,60; 3841,137;  180,590; 5120,796;74,09704
1034,14; 3823,906;  219,206; 5065,642;74,37836
1034,69; 3777,213;  212,898; 5014,873;74,22603
1035,23; 3730,213;  221,437; 4951,873;74,17448
1035,77; 3700,829;  215,590; 4875,335;74,79463
1036,32; 3613,675;  191,206; 4794,950;74,34099
1036,86; 3603,829;  214,667; 4770,719;74,38812
1037,41; 3564,213;  224,360; 4664,796;75,21454
1037,95; 3496,213;  185,513; 4588,642;75,18971
1038,50; 3481,213;  200,283; 4514,027;76,05761
1039,04; 3442,137;  232,667; 4480,642;75,55292
1039,58; 3365,598;  198,052; 4391,950;75,52749
1040,13; 3363,752;  209,821; 4376,412;75,69572
1040,67; 3378,290;  246,283; 4344,258;76,42818
1041,21; 3301,213;  239,975; 4268,412;75,99073
1041,76; 3196,213;  202,590; 4130,027;76,22333
1042,30; 3169,213;  205,360; 4121,488;75,68326
1042,85; 3122,598;  207,360; 4036,796;76,12709
1043,39; 3072,367;  202,052; 3977,719;76,02141
1043,93; 3048,290;  230,129; 3965,719;75,44086
1044,48; 3017,521;  225,744; 3904,335;75,89257
1045,02; 2985,829;  209,590; 3804,258;77,23214
1045,56; 2938,598;  238,744; 3770,642;76,44201
1046,11; 2924,213;  230,590; 3755,873;76,40871
1046,65; 2872,444;  220,206; 3681,719;76,62078
1047,19; 2834,906;  204,975; 3618,412;77,04642
1047,74; 2774,290;  194,667; 3528,873;77,36844
1048,28; 2750,752;  223,206; 3535,412;76,31006
1048,82; 2753,752;  244,744; 3506,181;76,92953
1049,37; 2704,444;  223,975; 3444,642;77,01724
1049,91; 2685,752;  217,821; 3417,335;77,13456
1050,45; 2650,137;  227,590; 3377,719;76,90308
1050,99; 2601,752;  216,744; 3306,873;77,18150
1051,54; 2551,983;  210,975; 3262,335;76,72015
1052,08; 2591,598;  234,590; 3226,796;78,77158
1052,62; 2520,906;  239,283; 3178,642;77,62313
1053,16; 2460,521;  217,437; 3109,335;77,56444
1053,71; 2472,137;  225,667; 3088,027;78,48312
1054,25; 2444,598;  234,129; 3042,104;78,72112
1054,79; 2400,290;  223,821; 2991,258;78,64568
1055,33; 2358,137;  194,975; 2892,873;80,17951
1055,88; 2346,598;  228,590; 2926,796;78,49689
1056,42; 2326,290;  236,821; 2891,027;78,72296
1056,96; 2303,290;  236,898; 2825,873;79,81507
1057,50; 2261,983;  228,129; 2797,796;79,14853
1058,05; 2223,752;  220,052; 2745,796;79,33107
1058,59; 2251,367;  232,590; 2715,719;81,29972
1059,13; 2152,444;  206,206; 2624,642;80,47507
1059,67; 2139,752;  222,052; 2633,719;79,51760
1060,21; 2117,983;  227,437; 2581,181;80,32080
1060,76; 2108,829;  236,667; 2548,950;80,96595
1061,30; 2099,060;  250,513; 2537,565;80,82659
1061,84; 2064,060;  233,513; 2464,181;82,06271
1062,38; 2017,598;  214,821; 2407,796;82,20691
1062,92; 2036,521;  259,513; 2438,796;81,54094
1063,46; 1990,213;  238,206; 2377,873;81,88225
1064,01; 1954,060;  223,590; 2308,719;82,99100
1064,55; 1938,521;  229,437; 2278,181;83,42108
1065,09; 1874,829;  196,744; 2234,027;82,36877
1065,63; 1911,444;  258,898; 2275,642;81,94129
1066,17; 1886,290;  254,975; 2250,642;81,74285
1066,71; 1848,367;  246,667; 2217,719;81,26118
1067,25; 1811,060;  230,206; 2156,488;82,06759
1067,80; 1813,983;  243,360; 2149,719;82,38860
1068,34; 1807,521;  260,052; 2148,950;81,92444
1068,88; 1740,829;  225,283; 2081,258;81,65768
1069,42; 1750,137;  254,437; 2088,181;81,56536
1069,96; 1729,290;  238,590; 2014,565;83,93699
1070,50; 1730,213;  254,898; 2044,258;82,44935
1071,04; 1687,521;  217,898; 1960,027;84,35789
1071,58; 1663,983;  223,667; 1952,335;83,31941
1072,12; 1652,598;  229,283; 1930,642;83,65753
1072,66; 1646,521;  229,052; 1914,104;84,12021
1073,21; 1612,829;  240,744; 1917,950;81,80777
1073,75; 1600,983;  245,437; 1871,565;83,36032
1074,29; 1577,521;  234,283; 1851,258;83,07107
1074,83; 1585,444;  257,283; 1843,642;83,72386
1075,37; 1558,137;  249,129; 1828,412;82,88622
1075,91; 1560,906;  242,744; 1790,104;85,18780
1076,45; 1541,060;  235,590; 1773,950;84,86112
1076,99; 1511,213;  249,898; 1745,335;84,34429
1077,53; 1496,752;  220,052; 1713,488;85,48740
1078,07; 1514,367;  228,437; 1713,950;86,56473
1078,61; 1474,598;  234,360; 1670,258;86,37371
1079,15; 1462,213;  238,206; 1639,412;87,35389
1079,69; 1448,752;  225,744; 1633,027;86,90562
1080,23; 1450,829;  254,129; 1633,796;86,73830
1080,77; 1446,060;  267,052; 1646,104;85,49408
1081,31; 1380,752;  225,821; 1581,642;85,18312
1081,85; 1413,137;  249,283; 1560,950;88,73087
1082,39; 1362,137;  227,437; 1537,719;86,59963
1082,93; 1355,521;  246,975; 1544,412;85,44126
1083,47; 1329,598;  230,590; 1494,335;86,96441
1084,01; 1335,752;  247,590; 1503,719;86,62818
1084,55; 1303,906;  227,590; 1449,104;88,11326
1085,09; 1308,829;  252,744; 1463,412;87,23161
1085,63; 1278,829;  239,206; 1461,027;85,08799
1086,17; 1254,213;  228,129; 1410,642;86,77150
1086,71; 1244,752;  225,590; 1403,950;86,48986
1087,24; 1251,290;  251,821; 1425,873;85,12990
1087,78; 1241,983;  247,513; 1391,873;86,90181
1088,32; 1196,829;  229,052; 1347,181;86,55326
1088,86; 1229,983;  251,975; 1361,796;88,12300
1089,40; 1197,213;  245,744; 1326,104;88,06968
1089,94; 1162,213;  219,129; 1296,719;87,51791
1090,48; 1153,675;  254,744; 1307,642;85,37681
1091,02; 1148,675;  249,667; 1296,796;85,85454
1091,56; 1137,290;  248,667; 1270,873;86,93192
1092,10; 1091,906;  225,744; 1243,796;85,08029
1092,63; 1144,906;  262,821; 1270,335;87,55065
1093,17; 1117,983;  257,744; 1241,488;87,44534
1093,71; 1070,752;  228,052; 1212,488;85,60227
1094,25; 1098,675;  260,821; 1198,642;89,34047
1094,79; 1075,521;  236,206; 1177,181;89,19635
1095,33; 1065,521;  235,744; 1167,642;89,04160
1095,87; 1056,675;  229,667; 1172,104;87,75208
1096,40; 1017,906;  218,437; 1133,258;87,39077
1096,94; 1036,137;  242,437; 1127,027;89,72514
1097,48; 1018,752;  245,283; 1121,258;88,29809
1098,02;  991,213;  233,129; 1089,796;88,49230
1098,56;  962,983;  203,437; 1066,027;88,05409
1099,10;  972,137;  219,206; 1061,412;89,39986
1099,63;  931,137;  203,821; 1055,335;85,41443
1100,17;  953,598;  247,744; 1059,642;86,93873
1100,71;  975,598;  261,667; 1069,719;88,35209

