
Integration time [ms]: 120,000
Averaging Nr. [scans]: 13
Smoothing Nr. [pixels]: 0
Data measured with spectrometer [name]: 2009305U1
Wave   ;Sample   ;Dark     ;Reference;Reflectance
[nm]   ;[counts] ;[counts] ;[counts] ;[%]

 175,72;  194,121;  202,673;  202,814; 0,00000
 176,32;  216,821;  225,431;  219,229; 0,00000
 176,92;  249,146;  241,593;  259,926;41,19878
 177,52;  258,895;  251,671;  258,560;104,86749
 178,12;  223,162;  228,123;  221,690; 0,00000
 178,72;  259,742;  262,428;  250,906; 0,00000
 179,32;  246,496;  256,969;  246,180; 0,00000
 179,92;  248,000;  244,743;  247,528;116,94830
 180,52;  244,920;  240,295;  251,040;43,04643
 181,12;  249,417;  250,513;  250,351; 0,00000
 181,73;  269,380;  264,591;  277,112;38,25361
 182,33;  340,922;  344,982;  351,462;-62,65596
 182,93;  265,211;  260,594;  266,980;72,31250
 183,53;  235,856;  240,272;  226,189; 0,00000
 184,13;  243,614;  234,428;  232,913; 0,00000
 184,73;  267,706;  272,348;  270,276; 0,00000
 185,33;  250,945;  227,895;  345,845;19,54176
 185,93;  261,826;  241,810;  363,162;16,49389
 186,53;  289,081;  245,969;  383,769;31,28648
 187,13;  304,472;  274,977;  418,310;20,57797
 187,73;  266,396;  236,042;  378,887;21,24952
 188,33;  281,611;  240,114;  373,931;31,00993
 188,93;  274,583;  258,330;  373,870;14,06661
 189,53;  286,265;  257,396;  374,368;24,68046
 190,13;  316,647;  277,224;  424,265;26,81072
 190,73;  262,782;  216,698;  365,464;30,97772
 191,34;  299,165;  258,249;  403,767;28,11724
 191,94;  257,827;  218,263;  371,997;25,73498
 192,54;  294,569;  243,523;  387,787;35,38433
 193,14;  287,577;  247,900;  396,592;26,68410
 193,74;  283,529;  257,129;  400,532;18,40967
 194,34;  283,812;  240,671;  386,728;29,53710
 194,94;  244,047;  220,361;  356,781;17,36272
 195,54;  234,115;  204,742;  327,334;23,95998
 196,14;  253,551;  227,827;  378,689;17,05171
 196,74;  244,341;  222,971;  359,044;15,70531
 197,34;  237,864;  197,063;  371,027;23,45385
 197,94;  264,421;  228,132;  384,373;23,22633
 198,54;  263,765;  235,596;  395,794;17,58397
 199,14;  257,755;  219,374;  388,308;22,71983
 199,74;  241,823;  202,220;  401,273;19,89589
 200,34;  227,761;  196,990;  393,795;15,63515
 200,94;  274,209;  228,446;  426,289;23,13097
 201,54;  241,818;  204,218;  443,961;15,68344
 202,14;  282,688;  229,608;  481,986;21,03174
 202,74;  266,098;  219,912;  475,274;18,08646
 203,34;  244,500;  188,920;  492,839;18,28793
 203,94;  219,182;  167,224;  499,348;15,64395
 204,54;  298,017;  245,363;  589,973;15,27945
 205,14;  272,738;  199,220;  600,798;18,30740
 205,74;  302,902;  236,688;  696,371;14,40430
 206,34;  290,756;  209,069;  707,819;16,37836
 206,94;  299,212;  215,837;  774,562;14,92232
 207,54;  284,646;  180,146;  806,666;16,67949
 208,14;  318,259;  214,378;  884,062;15,51201
 208,74;  327,474;  211,373;  951,337;15,69010
 209,34;  326,532;  194,759; 1045,915;15,48164
 209,94;  342,148;  216,528; 1149,937;13,45822
 210,54;  364,897;  213,302; 1239,675;14,77000
 211,14;  364,166;  218,374; 1375,700;12,59733
 211,73;  375,145;  201,448; 1478,977;13,59626
 212,33;  417,141;  217,908; 1586,632;14,55615
 212,93;  408,800;  205,834; 1714,331;13,45481
 213,53;  387,388;  178,220; 1776,071;13,09064
 214,13;  429,434;  200,076; 1832,252;14,05226
 214,73;  401,611;  190,377; 1872,755;12,55564
 215,33;  401,071;  173,143; 1893,014;13,25262
 215,93;  472,348;  201,842; 2020,959;14,87017
 216,53;  449,339;  158,603; 2108,122;14,91321
 217,13;  527,872;  216,302; 2311,821;14,86836
 217,73;  549,099;  194,611; 2514,042;15,28339
 218,33;  559,722;  147,770; 2710,446;16,07509
 218,93;  639,858;  176,163; 3006,310;16,38411
 219,53;  690,560;  183,770; 3305,411;16,23472
 220,13;  735,188;  156,541; 3596,351;16,82207
 220,73;  833,207;  191,836; 3941,482;17,10485
 221,32;  910,551;  182,912; 4363,260;17,40619
 221,92;  995,890;  190,848; 4775,100;17,56103
 222,52; 1073,440;  174,227; 5205,811;17,87137
 223,12; 1173,644;  171,612; 5659,397;18,25931
 223,72; 1256,328;  195,843; 6067,054;18,06245
 224,32; 1330,181;  201,998; 6450,584;18,05502
 224,92; 1386,224;  183,767; 6756,102;18,29574
 225,52; 1474,665;  200,684; 7072,450;18,53935
 226,12; 1547,017;  193,225; 7427,116;18,71458
 226,72; 1590,531;  164,840; 7739,306;18,82234
 227,31; 1688,882;  160,994; 8128,208;19,17720
 227,91; 1779,846;  178,452; 8522,116;19,19293
 228,51; 1906,088;  181,909; 8913,420;19,74663
 229,11; 1947,652;  182,301; 9324,768;19,30935
 229,71; 2008,390;  175,219; 9553,884;19,54619
 230,31; 2085,699;  170,000;10006,581;19,47525
 230,91; 2176,905;  162,060;10330,474;19,81475
 231,51; 2217,988;  162,304;10694,483;19,51813
 232,10; 2329,295;  171,616;11055,467;19,82459
 232,70; 2377,735;  189,671;11322,958;19,65335
 233,30; 2441,990;  200,534;11530,911;19,78271
 233,90; 2477,879;  179,764;11686,583;19,97176
 234,50; 2505,048;  181,534;11918,588;19,79640
 235,10; 2542,993;  166,536;11994,333;20,09214
 235,70; 2581,684;  187,221;12088,487;20,11940
 236,29; 2563,014;  187,988;12111,897;19,91818
 236,89; 2534,699;  166,599;12029,823;19,96169
 237,49; 2526,770;  197,687;11971,528;19,78184
 238,09; 2469,603;  176,993;11716,511;19,86747
 238,69; 2434,158;  218,442;11547,115;19,55847
 239,29; 2360,416;  172,223;11220,918;19,80500
 239,89; 2280,656;  193,907;10971,228;19,36241
 240,48; 2171,876;  176,531;10591,259;19,15888
 241,08; 2092,870;  175,145;10224,619;19,08284
 241,68; 2029,909;  196,993; 9925,720;18,84025
 242,28; 1925,495;  168,918; 9604,373;18,61677
 242,88; 1880,656;  214,538; 9311,832;18,31443
 243,48; 1760,932;  207,533; 8999,871;17,66765
 244,07; 1680,581;  190,298; 8722,403;17,46677
 244,67; 1636,395;  200,070; 8626,684;17,04510
 245,27; 1570,837;  198,602; 8464,284;16,60159
 245,87; 1529,008;  202,768; 8392,547;16,19384
 246,47; 1494,486;  190,295; 8414,382;15,85819
 247,06; 1434,399;  179,146; 8363,177;15,33784
 247,66; 1424,148;  176,685; 8450,657;15,07696
 248,26; 1445,117;  217,295; 8599,618;14,64775
 248,86; 1431,238;  200,757; 8748,312;14,39571
 249,46; 1401,151;  157,457; 8985,134;14,08857
 250,05; 1442,202;  203,377; 9328,022;13,57669
 250,65; 1427,958;  168,832; 9752,153;13,13872
 251,25; 1505,674;  174,760;10184,430;13,29629
 251,85; 1541,143;  191,137;10734,774;12,80399
 252,44; 1604,209;  155,835;11399,855;12,88129
 253,04; 1692,284;  197,451;12181,097;12,47394
 253,64; 1732,063;  155,678;12806,281;12,46095
 254,24; 1906,364;  195,146;13819,981;12,55956
 254,84; 1957,997;  170,996;14760,980;12,24814
 255,43; 2083,439;  175,527;15673,602;12,31064
 256,03; 2226,805;  178,063;16632,867;12,45073
 256,63; 2350,819;  183,214;17740,187;12,34612
 257,23; 2461,126;  177,907;18504,473;12,45852
 257,82; 2639,014;  190,672;19507,424;12,67471
 258,42; 2728,685;  145,747;20302,163;12,81447
 259,02; 2903,661;  190,682;21198,699;12,91402
 259,62; 3049,714;  173,669;21930,235;13,21920
 260,21; 3169,457;  179,989;22397,750;13,45531
 260,81; 3239,804;  187,994;22933,955;13,41693
 261,41; 3356,247;  162,594;23400,776;13,74312
 262,01; 3487,324;  205,975;23824,308;13,89323
 262,60; 3558,510;  158,984;24167,088;14,15991
 263,20; 3684,829;  164,756;24460,117;14,48866
 263,80; 3780,239;  201,359;24601,526;14,66744
 264,40; 3866,203;  163,976;24723,670;15,07440
 264,99; 3982,804;  187,974;24932,785;15,33586
 265,59; 4085,534;  179,353;25036,733;15,71437
 266,19; 4165,153;  165,821;25188,490;15,98284
 266,78; 4263,305;  212,895;25312,266;16,13750
 267,38; 4311,967;  186,739;25277,200;16,44142
 267,98; 4368,826;  172,049;25385,041;16,64529
 268,58; 4461,703;  188,354;25331,948;16,99577
 269,17; 4490,498;  171,427;25344,257;17,15767
 269,77; 4525,548;  191,520;25145,525;17,36806
 270,37; 4551,796;  163,205;25022,926;17,65342
 270,96; 4629,228;  215,441;24936,068;17,85467
 271,56; 4613,631;  174,753;24681,858;18,11262
 272,16; 4643,906;  178,979;24415,776;18,42210
 272,75; 4686,905;  177,210;24341,755;18,66245
 273,35; 4684,680;  187,057;24250,780;18,69047
 273,95; 4767,973;  186,287;24241,027;19,04692
 274,54; 4823,886;  175,300;24275,778;19,28836
 275,14; 4970,645;  200,519;24642,891;19,51581
 275,74; 4944,264;  153,825;24701,154;19,51512
 276,33; 5122,189;  213,136;25015,994;19,79229
 276,93; 5253,935;  195,455;25489,552;19,99866
 277,53; 5408,312;  185,065;26006,631;20,22823
 278,12; 5533,107;  172,215;26618,996;20,27049
 278,72; 5765,937;  216,219;27075,304;20,66235
 279,32; 5881,332;  186,064;27665,976;20,72520
 279,91; 6089,668;  164,832;28374,510;21,00285
 280,51; 6334,354;  172,373;28907,973;21,44372
 281,11; 6541,557;  183,525;29638,489;21,58560
 281,70; 6706,131;  165,370;30074,476;21,86879
 282,30; 6906,092;  181,214;30776,550;21,98008
 282,90; 7063,734;  178,752;31071,250;22,28690
 283,49; 7295,133;  191,519;31703,206;22,54279
 284,09; 7516,653;  213,908;32174,372;22,84931
 284,69; 7732,520;  201,602;32551,480;23,27959
 285,28; 7916,969;  201,523;32877,715;23,61183
 285,88; 8081,547;  235,209;33144,707;23,84217
 286,47; 8177,743;  184,368;33220,054;24,19618
 287,07; 8372,264;  209,679;33248,088;24,70635
 287,67; 8578,317;  204,456;33355,794;25,25950
 288,26; 8729,854;  172,448;33241,410;25,87745
 288,86; 8896,781;  179,754;33428,826;26,21735
 289,46; 9135,881;  192,063;33471,747;26,87471
 290,05; 9348,837;  174,837;33601,850;27,44487
 290,65; 9596,394;  180,521;33802,888;28,00479
 291,24; 9848,040;  188,988;33879,003;28,67037
 291,84;10120,434;  206,368;34112,571;29,23968
 292,44;10347,897;  191,072;34235,115;29,83437
 293,03;10619,715;  241,449;34378,031;30,40218
 293,63;10757,238;  179,598;34411,921;30,89957
 294,22;11064,266;  205,832;34641,153;31,53284
 294,82;11151,245;  186,438;34577,243;31,88296
 295,41;11180,285;  169,832;34333,169;32,22886
 296,01;11257,736;  219,286;34338,309;32,35277
 296,61;11314,263;  198,218;34063,374;32,82443
 297,20;11254,265;  189,978;33632,022;33,08496
 297,80;11287,561;  203,223;33573,652;33,21605
 298,39;11130,836;  174,983;33088,159;33,28713
 298,99;11104,493;  220,749;32950,935;33,25292
 299,58;11122,250;  203,609;32750,873;33,54703
 300,18;11060,836;  204,683;32613,290;33,49775
 300,78;10918,397;  186,527;32260,315;33,45994
 301,37;10919,798;  187,512;32215,892;33,50867
 301,97;10898,847;  196,140;32287,880;33,35035
 302,56;10884,248;  183,983;32152,209;33,47156
 303,16;10827,490;  173,212;32088,694;33,38279
 303,75;10782,138;  183,605;32134,495;33,17132
 304,35;10822,713;  179,766;32333,153;33,10055
 304,94;10837,504;  186,064;32333,222;33,13338
 305,54;10765,705;  204,604;32260,260;32,94614
 306,13;10677,405;  168,074;32186,516;32,82274
 306,73;10594,692;  162,995;32020,506;32,74486
 307,33;10570,224;  202,378;31912,690;32,69550
 307,92;10590,826;  194,757;32025,129;32,66085
 308,52;10610,491;  158,596;32481,024;32,33635
 309,11;10681,345;  179,977;32994,471;32,00222
 309,71;10713,110;  160,590;33237,434;31,90304
 310,30;10762,212;  174,218;33455,381;31,81377
 310,90;10849,520;  210,295;33790,920;31,68263
 311,49;10806,486;  182,833;33948,536;31,46285
 312,09;10737,717;  159,914;34164,542;31,10695
 312,68;10858,696;  230,450;34592,532;30,93016
 313,28;10817,288;  166,988;34646,206;30,88904
 313,87;10707,230;  156,910;34788,836;30,46414
 314,47;10738,128;  172,902;35029,917;30,31019
 315,06;10691,835;  163,065;35299,219;29,96563
 315,66;10657,101;  164,914;35459,619;29,72737
 316,25;10532,138;  156,982;35359,386;29,47286
 316,85;10462,494;  158,914;35417,171;29,22317
 317,44;10405,207;  178,747;35551,114;28,91087
 318,04;10279,460;  157,214;35579,271;28,57611
 318,63;10190,170;  155,072;35726,555;28,21108
 319,22;10152,232;  181,905;35905,413;27,90971
 319,82;10045,714;  167,754;35877,499;27,66180
 320,41; 9922,769;  187,829;35789,622;27,34396
 321,01; 9834,923;  194,144;35985,116;26,93634
 321,60; 9743,525;  183,216;36034,226;26,66678
 322,20; 9613,176;  171,834;36012,471;26,34256
 322,79; 9567,852;  204,065;36081,114;26,09966
 323,39; 9422,133;  165,535;36264,448;25,64232
 323,98; 9290,320;  162,373;36174,645;25,34677
 324,58; 9168,277;  169,212;36082,534;25,05773
 325,17; 9012,044;  180,674;35980,084;24,66904
 325,76; 8847,051;  196,525;35776,620;24,31282
 326,36; 8699,334;  163,298;35371,970;24,24413
 326,95; 8509,293;  198,754;35069,435;23,83245
 327,55; 8310,688;  161,138;34641,898;23,63507
 328,14; 8106,782;  174,762;34387,672;23,18429
 328,74; 7943,795;  192,213;33867,091;23,01889
 329,33; 7740,155;  190,298;33500,292;22,66544
 329,92; 7509,617;  162,978;33018,813;22,36023
 330,52; 7272,875;  185,147;32312,238;22,06153
 331,11; 7083,850;  168,446;31877,121;21,80918
 331,71; 6879,283;  182,371;31285,125;21,53157
 332,30; 6714,427;  205,371;30798,837;21,27597
 332,89; 6537,506;  233,836;30230,908;21,01428
 333,49; 6311,387;  194,370;29681,099;20,74498
 334,08; 6111,595;  181,061;29290,311;20,37336
 334,68; 5971,415;  180,908;28844,380;20,20169
 335,27; 5845,591;  199,148;28509,180;19,94503
 335,86; 5709,927;  240,446;28279,505;19,50665
 336,46; 5561,326;  197,917;27999,599;19,29167
 337,05; 5471,123;  182,908;27786,484;19,15772
 337,65; 5326,970;  165,677;27644,737;18,78264
 338,24; 5358,500;  223,681;27624,652;18,73955
 338,83; 5237,448;  197,758;27574,945;18,40836
 339,43; 5134,719;  171,674;27464,343;18,18453
 340,02; 5060,832;  179,828;27356,946;17,95998
 340,61; 5007,894;  174,680;27473,017;17,70516
 341,21; 4944,257;  205,367;27452,091;17,39251
 341,80; 4878,714;  178,753;27378,828;17,27922
 342,40; 4862,978;  184,455;27491,454;17,13305
 342,99; 4850,737;  182,451;27617,523;17,01576
 343,58; 4748,693;  183,298;27786,907;16,53912
 344,18; 4758,453;  195,298;27881,312;16,48180
 344,77; 4736,011;  176,058;28227,568;16,25564
 345,36; 4769,293;  168,447;28489,512;16,24532
 345,96; 4761,804;  195,298;28794,851;15,96705
 346,55; 4767,868;  166,843;29047,867;15,93096
 347,14; 4786,952;  165,455;29447,062;15,78293
 347,74; 4762,062;  151,771;29812,017;15,54367
 348,33; 4862,166;  171,462;30503,914;15,46431
 348,92; 4914,269;  191,928;31151,410;15,25330
 349,52; 4938,093;  155,541;31617,050;15,20128
 350,11; 4956,559;  183,519;31846,779;15,07438
 350,70; 4938,536;  180,680;31873,408;15,01245
 351,29; 4825,425;  155,818;31621,476;14,84033
 351,89; 4849,404;  185,362;31699,576;14,79981
 352,48; 4790,485;  158,680;31723,262;14,67406
 353,07; 4762,924;  175,148;31659,396;14,57166
 353,67; 4734,277;  186,851;31579,556;14,48561
 354,26; 4650,815;  189,455;31300,726;14,34001
 354,85; 4636,007;  179,607;31184,856;14,37305
 355,45; 4572,767;  158,753;31068,172;14,28048
 356,04; 4558,453;  171,610;30902,801;14,27489
 356,63; 4511,336;  197,062;30688,623;14,14907
 357,22; 4526,360;  185,820;30543,010;14,29823
 357,82; 4423,220;  191,976;30352,412;14,02912
 358,41; 4399,761;  202,294;30250,845;13,96895
 359,00; 4356,890;  168,982;29995,238;14,04101
 359,60; 4332,714;  188,065;30018,757;13,89391
 360,19; 4324,281;  182,611;29786,862;13,99012
 360,78; 4318,552;  194,523;29616,870;14,01665
 361,37; 4292,389;  178,985;29418,142;14,06814
 361,97; 4273,249;  196,986;29340,258;13,98698
 362,56; 4245,013;  175,365;29036,458;14,10081
 363,15; 4255,168;  220,907;28797,122;14,11755
 363,74; 4155,213;  188,056;28358,776;14,08256
 364,34; 4112,343;  197,905;28033,378;14,06277
 364,93; 4071,681;  172,211;27588,802;14,22303
 365,52; 4040,542;  153,908;27112,428;14,41709
 366,11; 4049,599;  173,982;26848,518;14,52928
 366,71; 3952,847;  170,598;26452,336;14,39117
 367,30; 3953,875;  172,370;26109,029;14,57977
 367,89; 3957,383;  227,607;25897,457;14,52979
 368,48; 3912,657;  186,594;25524,475;14,70550
 369,07; 3872,536;  179,603;25048,562;14,84957
 369,67; 3843,886;  197,980;24801,124;14,81886
 370,26; 3845,133;  178,219;24544,953;15,04885
 370,85; 3825,986;  183,216;24214,610;15,15838
 371,44; 3788,608;  179,601;23966,503;15,17225
 372,03; 3799,899;  168,751;23732,350;15,40999
 372,63; 3756,148;  156,293;23380,987;15,50012
 373,22; 3737,041;  176,834;23073,486;15,54903
 373,81; 3713,046;  157,139;22784,407;15,71514
 374,40; 3715,338;  177,916;22525,182;15,82933
 374,99; 3704,160;  172,445;22297,340;15,96263
 375,59; 3685,271;  164,453;22014,855;16,11328
 376,18; 3751,544;  194,753;21910,702;16,37870
 376,77; 3720,197;  189,140;21655,398;16,44934
 377,36; 3748,628;  198,292;21627,694;16,56759
 377,95; 3704,675;  193,213;21311,650;16,62747
 378,55; 3728,846;  166,683;21149,809;16,97632
 379,14; 3768,842;  196,908;21141,953;17,05384
 379,73; 3778,350;  184,137;20977,656;17,28526
 380,32; 3833,189;  192,832;20964,307;17,52575
 380,91; 3815,690;  164,133;20836,090;17,66430
 381,50; 3923,004;  190,981;20822,730;18,08874
 382,10; 3885,035;  169,601;20675,846;18,11855
 382,69; 3914,560;  156,908;20648,499;18,33753
 383,28; 3961,233;  201,674;20597,764;18,43275
 383,87; 3986,968;  171,981;20438,512;18,82408
 384,46; 3982,988;  168,284;20395,775;18,85901
 385,05; 4036,602;  201,058;20345,605;19,04011
 385,64; 4080,830;  173,290;20372,133;19,34537
 386,24; 4120,467;  160,207;20337,384;19,62743
 386,83; 4224,144;  204,283;20341,147;19,96270
 387,42; 4284,043;  197,982;20443,755;20,18229
 388,01; 4365,975;  187,663;20722,576;20,34736
 388,60; 4469,157;  185,669;20944,242;20,63479
 389,19; 4543,406;  171,195;21150,735;20,84036
 389,78; 4644,250;  177,043;21370,802;21,07793
 390,37; 4815,550;  234,666;21847,997;21,19472
 390,96; 4867,041;  180,052;22023,426;21,45725
 391,56; 4924,616;  184,039;22139,320;21,59197
 392,15; 5042,572;  169,582;22411,555;21,90898
 392,74; 5103,257;  150,800;22583,063;22,07739
 393,33; 5260,259;  174,192;22846,524;22,43292
 393,92; 5423,352;  192,027;23328,953;22,61028
 394,51; 5490,217;  174,577;23483,413;22,80526
 395,10; 5616,762;  210,938;23741,130;22,97399
 395,69; 5686,544;  191,709;23890,302;23,18634
 396,28; 5764,934;  189,164;24005,657;23,41138
 396,87; 5891,710;  197,000;24049,721;23,87447
 397,46; 5909,819;  196,915;24168,127;23,83235
 398,06; 6050,608;  211,983;24401,439;24,13706
 398,65; 6079,884;  191,424;24435,851;24,28789
 399,24; 6280,584;  197,112;24662,782;24,86534
 399,83; 6220,687;  175,619;24707,790;24,64139
 400,42; 6410,824;  214,283;24793,714;25,21027
 401,01; 6468,646;  189,019;24914,542;25,39735
 401,60; 6487,100;  199,975;24900,798;25,45310
 402,19; 6566,594;  220,863;24849,078;25,76610
 402,78; 6603,582;  222,501;24901,088;25,85675
 403,37; 6618,358;  204,834;24741,548;26,13848
 403,96; 6634,000;  203,697;24609,990;26,34691
 404,55; 6695,050;  211,322;24417,879;26,78500
 405,14; 6680,325;  194,415;24293,260;26,91378
 405,73; 6720,854;  207,883;24275,116;27,06157
 406,32; 6761,795;  205,219;24131,352;27,40341
 406,91; 6728,144;  198,856;23904,980;27,54262
 407,50; 6745,786;  207,674;23733,268;27,79149
 408,09; 6762,607;  183,730;23420,189;28,31273
 408,68; 6741,509;  192,793;23255,197;28,39564
 409,27; 6759,590;  185,273;23146,454;28,63231
 409,86; 6774,079;  197,701;22960,388;28,89104
 410,45; 6888,360;  238,122;22919,365;29,32043
 411,04; 6885,015;  238,082;22843,339;29,40437
 411,63; 6816,432;  211,592;22600,535;29,50045
 412,22; 6825,774;  218,021;22288,056;29,93993
 412,81; 6787,023;  223,652;22056,752;30,06156
 413,40; 6761,348;  235,979;21728,740;30,36077
 413,99; 6726,455;  260,589;21397,851;30,58990
 414,58; 6623,062;  202,285;21003,304;30,86761
 415,17; 6610,014;  218,036;20759,640;31,11723
 415,76; 6549,170;  210,789;20711,639;30,91765
 416,35; 6563,152;  191,259;20454,580;31,44545
 416,94; 6646,384;  230,023;20514,156;31,63242
 417,53; 6751,191;  201,576;20800,791;31,79546
 418,12; 6800,413;  201,580;20827,937;31,99224
 418,71; 6992,355;  220,980;21186,040;32,29838
 419,30; 7040,384;  211,736;21228,228;32,49186
 419,89; 7130,556;  194,893;21434,172;32,65489
 420,48; 7312,286;  237,442;21733,900;32,91168
 421,07; 7345,330;  215,368;21822,005;32,99895
 421,66; 7401,610;  188,454;21846,735;33,30438
 422,25; 7441,872;  208,395;21852,910;33,41945
 422,84; 7472,403;  225,783;21737,539;33,68679
 423,43; 7397,684;  215,391;21508,323;33,73088
 424,02; 7403,266;  233,317;21253,813;34,10932
 424,60; 7275,922;  215,646;20826,513;34,25512
 425,19; 7237,074;  213,481;20615,233;34,42642
 425,78; 7262,319;  234,251;20400,833;34,85007
 426,37; 7240,807;  238,797;20253,664;34,98405
 426,96; 7253,645;  222,105;20170,398;35,24883
 427,55; 7216,918;  211,732;20039,514;35,33016
 428,14; 7184,343;  203,353;19811,972;35,60164
 428,73; 7131,210;  204,266;19667,866;35,58922
 429,32; 7219,468;  222,719;19620,862;36,06917
 429,91; 7218,987;  242,190;19615,704;36,01204
 430,50; 7151,478;  231,888;19457,006;35,99244
 431,08; 7193,705;  221,587;19289,596;36,56448
 431,67; 7179,932;  259,438;19255,284;36,43162
 432,26; 7147,237;  261,905;19013,763;36,71813
 432,85; 7025,984;  275,980;18644,633;36,74741
 433,44; 6892,445;  279,142;18309,281;36,67916
 434,03; 6798,944;  303,076;17873,504;36,97046
 434,62; 6667,085;  254,220;17499,553;37,18609
 435,21; 6645,392;  270,981;17245,806;37,55215
 435,79; 6617,858;  249,226;17166,079;37,64667
 436,38; 6563,930;  252,083;16985,729;37,71949
 436,97; 6554,020;  247,930;16873,153;37,93086
 437,56; 6504,491;  255,023;16748,946;37,88952
 438,15; 6516,756;  235,558;16658,115;38,24738
 438,74; 6570,513;  265,790;16633,993;38,51811
 439,33; 6556,919;  241,711;16658,018;38,46912
 439,91; 6582,237;  221,026;16713,130;38,57126
 440,50; 6673,005;  271,565;16805,548;38,71687
 441,09; 6756,396;  262,189;16895,628;39,04308
 441,68; 6793,787;  241,660;16963,225;39,18369
 442,27; 6833,214;  233,887;16851,869;39,71196
 442,86; 6787,769;  203,599;16819,088;39,62670
 443,44; 6864,992;  227,595;16931,893;39,73466
 444,03; 6913,016;  271,446;16995,269;39,71323
 444,62; 6847,769;  226,600;16879,912;39,75887
 445,21; 6809,594;  245,366;16666,519;39,97422
 445,80; 6806,588;  265,147;16604,455;40,03500
 446,39; 6693,019;  268,760;16364,850;39,91192
 446,97; 6635,378;  227,772;16116,035;40,32917
 447,56; 6567,640;  218,705;15890,562;40,51170
 448,15; 6565,062;  228,618;15759,022;40,80025
 448,74; 6435,632;  257,389;15456,208;40,64949
 449,33; 6370,156;  235,088;15347,125;40,59723
 449,91; 6303,544;  238,175;15103,327;40,80260
 450,50; 6251,625;  230,558;14860,535;41,15569
 451,09; 6216,093;  234,097;14801,560;41,06408
 451,68; 6232,331;  259,410;14724,733;41,29131
 452,26; 6221,244;  251,953;14609,451;41,57612
 452,85; 6180,344;  230,104;14421,058;41,92981
 453,44; 6175,288;  243,810;14491,666;41,63067
 454,03; 6166,383;  217,417;14426,473;41,86742
 454,61; 6111,790;  230,811;14415,041;41,46139
 455,20; 6232,583;  245,893;14580,549;41,76375
 455,79; 6255,824;  254,961;14556,496;41,95957
 456,38; 6337,712;  252,439;14684,904;42,16378
 456,97; 6351,631;  237,283;14765,098;42,08719
 457,55; 6400,200;  240,597;14742,400;42,47474
 458,14; 6382,140;  249,512;14730,724;42,34886
 458,73; 6350,933;  247,136;14630,007;42,43796
 459,31; 6432,914;  265,453;14709,332;42,69948
 459,90; 6485,984;  278,294;14787,950;42,78316
 460,49; 6552,691;  316,676;14902,291;42,75455
 461,08; 6541,349;  239,457;14907,869;42,96233
 461,66; 6598,282;  248,298;15049,536;42,90171
 462,25; 6625,922;  251,999;15121,148;42,86676
 462,84; 6687,697;  277,304;15109,398;43,21974
 463,43; 6649,602;  215,394;15085,289;43,27003
 464,01; 6724,294;  248,782;15117,756;43,55049
 464,60; 6661,900;  291,775;15077,974;43,08156
 465,19; 6543,442;  228,247;14843,912;43,20840
 465,77; 6575,202;  248,251;14804,322;43,46606
 466,36; 6523,388;  262,163;14688,107;43,40253
 466,95; 6425,403;  245,856;14414,014;43,61574
 467,53; 6258,677;  250,795;14096,619;43,39129
 468,12; 6185,085;  284,642;13785,386;43,70457
 468,71; 6061,440;  249,478;13594,462;43,55166
 469,29; 5923,826;  227,721;13304,237;43,55981
 469,88; 5853,612;  237,801;13053,236;43,82068
 470,47; 5902,151;  300,502;13186,269;43,47160
 471,06; 5862,492;  263,195;13153,729;43,43728
 471,64; 5934,197;  248,577;13220,818;43,82913
 472,23; 5929,018;  221,439;13272,338;43,73322
 472,81; 6011,863;  220,431;13340,822;44,14070
 473,40; 6088,077;  234,747;13485,729;44,17280
 473,99; 6201,034;  335,209;13697,135;43,89955
 474,57; 6236,197;  245,516;13793,499;44,21825
 475,16; 6328,347;  253,433;13941,336;44,38162
 475,75; 6395,919;  273,676;14125,956;44,19665
 476,33; 6426,641;  271,682;14198,006;44,19658
 476,92; 6504,612;  275,979;14259,027;44,54417
 477,51; 6493,185;  265,064;14328,410;44,28620
 478,09; 6494,869;  257,910;14312,913;44,37536
 478,68; 6471,556;  273,913;14221,761;44,43440
 479,27; 6519,628;  287,599;14305,290;44,45831
 479,85; 6532,001;  257,605;14283,426;44,73461
 480,44; 6575,020;  254,839;14418,392;44,62285
 481,02; 7197,136;  255,537;15815,136;44,61297
 481,61; 8089,714;  283,919;17873,001;44,37864
 482,20; 8603,836;  255,691;19099,150;44,30262
 482,78; 8997,971;  299,453;19992,311;44,17093
 483,37; 9252,228;  278,699;20533,405;44,30343
 483,95; 9370,481;  304,393;20791,766;44,25208
 484,54; 9445,750;  317,687;21021,241;44,08935
 485,13; 9395,167;  274,631;20883,675;44,25502
 485,71; 9300,172;  255,552;20621,442;44,41063
 486,30; 9158,086;  284,013;20314,022;44,30389
 486,88; 9007,040;  322,246;19987,396;44,16337
 487,47; 8662,224;  301,556;19228,616;44,17309
 488,05; 8277,952;  276,713;18322,323;44,33898
 488,64; 7666,322;  297,104;17030,624;44,03866
 489,23; 6896,760;  304,637;15145,886;44,41758
 489,81; 5875,593;  299,947;12970,050;44,00632
 490,40; 5545,249;  248,179;12323,096;43,86837
 490,98; 5433,285;  239,182;12008,747;44,13165
 491,57; 5417,596;  273,023;11980,192;43,94378
 492,15; 5383,531;  253,952;11882,885;44,11048
 492,74; 5330,438;  260,944;11757,133;44,09717
 493,32; 5293,663;  277,412;11662,063;44,06152
 493,91; 5227,293;  263,340;11601,767;43,77991
 494,50; 5221,542;  262,198;11572,590;43,84768
 495,08; 5172,765;  241,813;11485,521;43,85522
 495,67; 5173,329;  272,570;11503,391;43,63670
 496,25; 5123,409;  224,038;11384,741;43,89841
 496,84; 5124,801;  231,646;11343,679;44,03474
 497,42; 5083,917;  221,502;11293,373;43,91683
 498,01; 5083,430;  249,648;11233,564;44,00782
 498,59; 4994,650;  227,811;11193,057;43,47225
 499,18; 4994,984;  225,572;11124,262;43,76133
 499,76; 4976,110;  260,115;11101,294;43,50076
 500,35; 4875,168;  245,432;10862,542;43,60637
 500,93; 4871,499;  241,963;10813,297;43,79330
 501,52; 4799,642;  238,734;10757,351;43,36034
 502,10; 4812,756;  261,129;10747,595;43,40478
 502,69; 4717,303;  242,363;10559,944;43,37199
 503,27; 4643,883;  227,429;10349,820;43,63054
 503,86; 4646,726;  233,977;10292,458;43,87093
 504,44; 4534,589;  224,981;10143,073;43,45199
 505,03; 4451,683;  207,673; 9910,660;43,73921
 505,61; 4386,447;  228,441; 9867,810;43,13567
 506,19; 4367,145;  250,134; 9720,605;43,47209
 506,78; 4242,631;  215,912; 9514,755;43,30344
 507,36; 4155,488;  224,980; 9341,724;43,11306
 507,95; 4109,307;  231,532; 9195,965;43,25734
 508,53; 4049,375;  226,066; 9043,616;43,36022
 509,12; 4007,515;  230,530; 8892,813;43,60265
 509,70; 3930,519;  257,455; 8769,488;43,15143
 510,29; 3863,211;  247,459; 8619,416;43,18885
 510,87; 3740,341;  229,989; 8412,749;42,89937
 511,46; 3663,568;  219,298; 8211,179;43,09711
 512,04; 3590,225;  224,918; 8099,680;42,73535
 512,62; 3509,790;  237,914; 7993,451;42,18761
 513,21; 3412,860;  213,229; 7789,415;42,23273
 513,79; 3369,310;  220,165; 7669,221;42,27576
 514,38; 3286,944;  209,315; 7499,517;42,21596
 514,96; 3279,450;  244,391; 7433,540;42,21722
 515,54; 3191,888;  212,778; 7283,317;42,13413
 516,13; 3156,587;  226,779; 7157,826;42,27078
 516,71; 3093,345;  215,862; 7056,039;42,06738
 517,30; 3009,505;  208,251; 6931,959;41,66234
 517,88; 3020,045;  234,174; 6882,673;41,90225
 518,46; 2923,680;  213,022; 6747,913;41,47978
 519,05; 2925,971;  225,718; 6659,507;41,96988
 519,63; 2882,369;  224,178; 6659,420;41,30677
 520,22; 2863,386;  243,724; 6564,271;41,44675
 520,80; 2832,632;  227,494; 6466,969;41,75252
 521,38; 2811,662;  257,027; 6436,694;41,33937
 521,97; 2785,308;  218,883; 6429,178;41,32533
 522,55; 2741,718;  235,575; 6443,647;40,36911
 523,13; 2749,977;  216,732; 6398,186;40,98137
 523,72; 2731,527;  224,330; 6381,243;40,72167
 524,30; 2792,610;  239,351; 6545,207;40,49029
 524,89; 2765,785;  207,114; 6567,260;40,22974
 525,47; 2857,923;  238,660; 6665,749;40,75348
 526,05; 2835,639;  213,276; 6727,615;40,25524
 526,64; 2886,779;  229,356; 6855,141;40,10730
 527,22; 2943,915;  232,121; 6943,659;40,40495
 527,80; 3003,806;  269,432; 7065,555;40,23432
 528,39; 2998,483;  226,435; 7190,884;39,80283
 528,97; 3060,863;  226,510; 7359,112;39,73799
 529,55; 3146,088;  234,655; 7559,822;39,74561
 530,14; 3247,923;  257,130; 7734,782;39,99642
 530,72; 3262,623;  221,972; 7856,769;39,82622
 531,30; 3286,169;  217,746; 7992,942;39,46426
 531,89; 3322,827;  229,746; 8072,921;39,43660
 532,47; 3406,216;  256,594; 8217,595;39,56314
 533,05; 3398,892;  264,355; 8219,821;39,40104
 533,63; 3418,522;  252,056; 8273,838;39,47334
 534,22; 3389,419;  224,980; 8342,061;38,98494
 534,80; 3410,261;  241,755; 8435,057;38,67191
 535,38; 3468,466;  314,977; 8489,709;38,57605
 535,97; 3388,549;  234,133; 8436,888;38,45557
 536,55; 3421,525;  271,140; 8468,496;38,43172
 537,13; 3402,657;  265,745; 8446,124;38,34678
 537,71; 3419,642;  285,283; 8475,119;38,27133
 538,30; 3411,055;  305,674; 8570,323;37,57427
 538,88; 3446,481;  318,837; 8599,984;37,76825
 539,46; 3516,903;  344,062; 8806,603;37,49277
 540,05; 3535,357;  345,912; 8897,023;37,29861
 540,63; 3622,169;  386,296; 9111,519;37,08642
 541,21; 3646,247;  393,223; 9243,260;36,75718
 541,79; 3690,213;  411,761; 9345,393;36,69786
 542,38; 3759,803;  420,142; 9496,556;36,79495
 542,96; 3807,168;  444,997; 9640,398;36,56362
 543,54; 3842,556;  449,299; 9854,765;36,07750
 544,12; 3882,578;  405,685; 9999,510;36,24094
 544,70; 3873,757;  405,382;10057,138;35,93517
 545,29; 3987,658;  420,603;10257,492;36,26202
 545,87; 3960,443;  410,915;10329,470;35,78675
 546,45; 3933,650;  392,603;10323,885;35,65549
 547,03; 3992,584;  383,760;10485,760;35,72386
 547,62; 4008,792;  363,839;10602,636;35,59943
 548,20; 4042,862;  382,919;10766,056;35,24891
 548,78; 4099,633;  344,546;10952,908;35,39742
 549,36; 4126,849;  347,391;11183,078;34,87972
 549,94; 4185,439;  320,764;11287,724;35,23925
 550,53; 4229,357;  322,697;11513,627;34,90916
 551,11; 4250,414;  294,548;11726,288;34,60423
 551,69; 4381,097;  322,468;12059,610;34,57937
 552,27; 4454,670;  275,540;12330,394;34,66761
 552,85; 4589,962;  287,163;12753,477;34,51540
 553,44; 4671,935;  288,544;13036,442;34,38521
 554,02; 4798,735;  310,085;13449,201;34,16250
 554,60; 4869,720;  248,318;13720,860;34,30238
 555,18; 4994,122;  287,852;14092,826;34,09112
 555,76; 5073,829;  277,008;14460,557;33,81961
 556,34; 5221,002;  292,169;14913,550;33,70976
 556,93; 5370,831;  277,853;15329,007;33,83779
 557,51; 5439,334;  240,707;15647,690;33,74202
 558,09; 5558,318;  284,853;16070,707;33,40627
 558,67; 5693,062;  280,172;16447,067;33,48132
 559,25; 5788,408;  288,786;16734,988;33,44008
 559,83; 5849,577;  273,791;17033,614;33,26877
 560,41; 5924,928;  265,398;17391,253;33,04670
 561,00; 6013,865;  280,634;17766,934;32,78699
 561,58; 6080,758;  274,782;18011,072;32,73501
 562,16; 6150,465;  268,625;18341,204;32,54566
 562,74; 6183,093;  237,393;18731,886;32,14849
 563,32; 6324,894;  245,867;19154,726;32,14909
 563,90; 6446,925;  267,019;19544,270;32,05803
 564,48; 6568,316;  267,550;20046,724;31,85555
 565,06; 6680,234;  267,326;20579,929;31,57108
 565,65; 6866,027;  272,181;21263,904;31,41165
 566,23; 7117,301;  311,788;22040,081;31,32097
 566,81; 7290,186;  279,324;22783,792;31,15320
 567,39; 7506,831;  277,023;23701,381;30,86449
 567,97; 7684,073;  289,940;24310,168;30,78294
 568,55; 7932,835;  293,252;25197,412;30,67593
 569,13; 8132,557;  270,634;25881,528;30,69757
 569,71; 8318,013;  280,933;26851,239;30,24835
 570,29; 8686,284;  308,160;27888,993;30,37662
 570,87; 8885,938;  303,624;28621,612;30,30693
 571,45; 9002,003;  296,018;29325,907;29,98973
 572,03; 9016,264;  249,486;29702,693;29,76511
 572,61; 9223,288;  242,944;30408,629;29,77007
 573,20; 9386,240;  281,092;31069,696;29,57311
 573,78; 9524,142;  260,329;31782,006;29,38870
 574,36; 9607,281;  279,328;32300,505;29,13058
 574,94; 9683,620;  317,256;32642,774;28,97514
 575,52; 9674,237;  265,725;32846,235;28,87773
 576,10; 9853,243;  308,953;33440,563;28,80720
 576,68; 9944,521;  288,870;33975,623;28,66305
 577,26;10063,145;  309,574;34699,026;28,36210
 577,84;10190,118;  315,943;35186,679;28,31651
 578,42;10267,531;  350,873;35502,631;28,21099
 579,00;10166,774;  290,252;35667,901;27,91741
 579,58;10185,782;  329,718;35955,711;27,66538
 580,16;10138,605;  305,028;35934,796;27,59933
 580,74;10131,536;  303,875;36128,711;27,43254
 581,32;10158,080;  300,872;36230,094;27,43507
 581,90;10124,059;  327,182;36174,629;27,32936
 582,48;10058,468;  327,798;36293,768;27,05522
 583,06;10061,286;  317,718;36487,822;26,93818
 583,64;10055,433;  308,871;36568,753;26,87974
 584,22; 9916,679;  320,649;36441,638;26,56635
 584,80; 9832,017;  320,258;36211,539;26,50159
 585,38; 9665,695;  324,553;35778,495;26,34726
 585,96; 9655,695;  299,253;35838,913;26,32676
 586,54; 9618,904;  319,802;35884,305;26,14714
 587,12; 9563,490;  300,568;36082,359;25,88725
 587,70; 9633,856;  326,331;36191,135;25,95170
 588,28; 9571,807;  305,568;36305,241;25,73979
 588,86; 9559,821;  315,031;36369,510;25,64117
 589,44; 9513,882;  297,962;36510,054;25,44984
 590,02; 9518,587;  307,114;36686,583;25,32053
 590,59; 9479,819;  285,802;36964,214;25,06656
 591,17; 9501,096;  298,047;37099,676;25,00718
 591,75; 9496,969;  289,503;37335,237;24,85432
 592,33; 9494,145;  309,655;37533,493;24,67368
 592,91; 9506,681;  272,199;37770,302;24,62653
 593,49; 9483,981;  276,587;38115,931;24,33286
 594,07; 9538,050;  285,510;38350,610;24,30715
 594,65; 9509,577;  301,418;38358,213;24,19584
 595,23; 9528,929;  307,960;38870,395;23,91179
 595,81; 9518,635;  283,500;38835,566;23,95497
 596,39; 9470,608;  271,577;38992,460;23,75729
 596,97; 9492,955;  305,198;39202,896;23,62031
 597,55; 9393,129;  285,497;39101,230;23,46376
 598,12; 9315,148;  272,973;39094,948;23,29138
 598,70; 9322,781;  269,431;39324,222;23,18115
 599,28; 9300,140;  292,662;39457,523;22,99888
 599,86; 9259,996;  276,815;39468,964;22,92087
 600,44; 9263,231;  251,740;39539,023;22,93742
 601,02; 9209,758;  308,287;39632,593;22,63605
 601,60; 9115,516;  285,734;39636,789;22,43849
 602,18; 9057,329;  254,434;39624,823;22,35918
 602,75; 9039,320;  259,269;39722,651;22,24860
 603,33; 9000,405;  276,046;39733,774;22,11065
 603,91; 8983,210;  263,669;39629,278;22,15015
 604,49; 8931,788;  287,354;39768,137;21,89530
 605,07; 8883,594;  289,734;39779,503;21,76224
 605,65; 8838,049;  293,279;39876,357;21,58693
 606,23; 8800,829;  322,032;39961,370;21,38986
 606,80; 8791,132;  339,115;40031,476;21,29381
 607,38; 8721,486;  361,129;40020,091;21,08062
 607,96; 8690,662;  396,345;40120,463;20,87980
 608,54; 8652,400;  436,971;40132,952;20,69587
 609,12; 8602,490;  423,730;40212,084;20,55566
 609,70; 8556,706;  447,584;40164,958;20,41706
 610,27; 8554,125;  446,960;40221,891;20,38260
 610,85; 8507,997;  452,660;40361,469;20,18436
 611,43; 8499,841;  453,661;40190,327;20,24875
 612,01; 8314,869;  428,579;39938,834;19,96011
 612,59; 8303,842;  437,122;40005,832;19,88116
 613,16; 8183,943;  400,803;40000,582;19,65450
 613,74; 8157,532;  391,816;39860,382;19,67570
 614,32; 8087,844;  378,203;39818,573;19,54759
 614,90; 8056,155;  368,735;39740,501;19,52521
 615,48; 7922,531;  336,420;39404,202;19,41782
 616,05; 7820,800;  326,033;39490,968;19,13642
 616,63; 7739,608;  335,569;39351,965;18,97674
 617,21; 7672,262;  332,883;39185,457;18,89033
 617,79; 7638,214;  313,578;39065,963;18,90112
 618,36; 7543,175;  330,580;39125,867;18,59142
 618,94; 7432,051;  261,959;38822,725;18,59427
 619,52; 7326,734;  292,032;38375,453;18,47182
 620,10; 7271,422;  285,269;38330,713;18,36265
 620,67; 7225,890;  295,723;38250,497;18,25901
 621,25; 7156,730;  306,350;38026,894;18,16087
 621,83; 7117,298;  298,651;38062,774;18,05589
 622,41; 7095,359;  328,959;38049,670;17,93816
 622,98; 6959,677;  308,800;37788,029;17,74550
 623,56; 6982,901;  314,030;37795,674;17,79237
 624,14; 6891,289;  289,659;37659,464;17,66568
 624,72; 6826,923;  301,805;37544,194;17,52067
 625,29; 6812,490;  282,799;37675,744;17,46236
 625,87; 6802,171;  326,270;37619,830;17,36466
 626,45; 6649,545;  279,259;37344,439;17,18671
 627,02; 6606,546;  287,732;37357,465;17,04575
 627,60; 6600,069;  271,817;37247,702;17,11454
 628,18; 6520,798;  253,730;37361,161;16,88898
 628,76; 6497,223;  261,724;37356,021;16,80986
 629,33; 6479,533;  296,726;37384,113;16,67091
 629,91; 6400,499;  278,346;37340,329;16,51869
 630,49; 6423,638;  296,956;37449,416;16,49065
 631,06; 6454,708;  287,340;37625,831;16,51746
 631,64; 6366,552;  293,568;37572,200;16,29079
 632,22; 6305,635;  254,949;37478,527;16,25498
 632,79; 6345,917;  288,257;37824,059;16,13835
 633,37; 6320,740;  277,349;37826,435;16,09464
 633,95; 6307,195;  270,644;37963,712;16,01502
 634,52; 6285,222;  272,189;38068,796;15,90892
 635,10; 6294,962;  282,499;38029,680;15,92824
 635,68; 6293,267;  274,949;38237,268;15,85340
 636,25; 6250,371;  266,637;38241,039;15,75728
 636,83; 6255,223;  254,878;38432,405;15,71696
 637,41; 6237,911;  251,487;38505,802;15,64902
 637,98; 6258,861;  285,409;38627,908;15,57919
 638,56; 6246,835;  273,867;38771,280;15,51525
 639,13; 6231,678;  265,800;38871,974;15,45317
 639,71; 6303,640;  311,878;39154,614;15,42569
 640,29; 6170,190;  246,955;38826,648;15,35325
 640,86; 6209,904;  252,032;38988,317;15,38060
 641,44; 6137,388;  253,417;38967,062;15,19870
 642,02; 6132,795;  276,341;38914,962;15,15700
 642,59; 6141,432;  253,879;39161,323;15,13220
 643,17; 6090,762;  263,110;39098,531;15,00602
 643,74; 6081,476;  249,111;39141,738;14,99607
 644,32; 6067,652;  286,649;39185,253;14,86172
 644,89; 6043,751;  280,649;39099,692;14,84607
 645,47; 6041,388;  291,111;39116,437;14,81063
 646,05; 5970,641;  286,111;39135,414;14,63226
 646,62; 5933,663;  264,189;39107,852;14,59562
 647,20; 5927,762;  269,497;39209,444;14,53075
 647,77; 5837,707;  249,804;39035,729;14,40704
 648,35; 5835,114;  245,420;39003,398;14,42205
 648,92; 5840,367;  272,651;39009,682;14,37311
 649,50; 5738,312;  234,882;38843,966;14,25424
 650,08; 5717,641;  246,882;38764,251;14,20336
 650,65; 5755,817;  238,036;39112,535;14,19383
 651,23; 5806,839;  220,421;39827,512;14,10459
 651,80; 5887,400;  233,729;40797,488;13,93774
 652,38; 5974,345;  246,499;41191,465;13,98913
 652,95; 6008,059;  227,268;41534,057;13,99477
 653,53; 6029,697;  255,961;41894,187;13,86643
 654,10; 6054,411;  281,576;41945,318;13,85578
 654,68; 6045,741;  241,577;41909,064;13,92972
 655,25; 5997,994;  238,192;41917,579;13,81930
 655,83; 5982,862;  237,423;42057,709;13,73840
 656,40; 6002,576;  264,500;42034,840;13,73720
 656,98; 5981,137;  239,270;41918,278;13,77640
 657,55; 5948,620;  252,347;41811,332;13,70648
 658,13; 5891,181;  241,116;41390,693;13,73055
 658,70; 5814,049;  266,270;41249,977;13,53655
 659,28; 5664,148;  236,501;40241,339;13,56748
 659,85; 5587,324;  255,040;39406,315;13,61969
 660,43; 5541,807;  261,887;39494,676;13,45793
 661,00; 5568,599;  240,502;39551,730;13,55362
 661,58; 5588,621;  237,810;40107,784;13,42065
 662,15; 5594,566;  226,503;40183,453;13,43462
 662,73; 5679,511;  300,272;40518,660;13,37507
 663,30; 5672,379;  244,042;40675,406;13,42606
 663,88; 5682,324;  254,965;40897,306;13,35395
 664,45; 5688,577;  244,734;41079,282;13,33146
 665,03; 5758,676;  242,658;41416,797;13,39680
 665,60; 5867,313;  323,504;41846,697;13,35111
 666,17; 5814,643;  247,658;41960,520;13,34597
 666,75; 5848,511;  249,735;42413,650;13,27860
 667,32; 5969,149;  268,505;42639,396;13,45415
 667,90; 5948,171;  244,582;42979,604;13,34640
 668,47; 5978,885;  273,274;43192,888;13,29371
 669,05; 6004,599;  237,582;43631,019;13,29007
 669,62; 6006,852;  231,583;43641,611;13,30400
 670,19; 6008,182;  232,198;43783,433;13,26250
 670,77; 6042,204;  248,198;43903,025;13,27231
 671,34; 6004,149;  243,353;43823,310;13,21891
 671,92; 6041,940;  231,737;44287,748;13,18822
 672,49; 6039,578;  258,738;44173,340;13,16382
 673,06; 6021,754;  215,507;44343,470;13,15775
 673,64; 6038,852;  232,661;44171,293;13,21432
 674,21; 6006,721;  220,046;44244,347;13,14427
 674,79; 6053,973;  250,508;44513,323;13,11138
 675,36; 6057,303;  260,585;44484,223;13,10774
 675,93; 6007,941;  219,508;44374,123;13,10946
 676,51; 6064,501;  256,816;44710,176;13,06467
 677,08; 6071,446;  241,124;44763,692;13,09521
 677,65; 6090,622;  250,047;44833,976;13,10018
 678,23; 6130,336;  253,509;45032,876;13,12396
 678,80; 6133,051;  240,971;45153,160;13,11911
 679,38; 6171,996;  240,048;45315,367;13,16008
 679,95; 6209,172;  241,510;45585,344;13,16091
 680,52; 6241,578;  246,664;45759,705;13,17186
 681,10; 6286,062;  255,126;46247,374;13,11294
 681,67; 6383,084;  254,664;46474,505;13,25928
 682,24; 6335,183;  234,126;46637,789;13,14779
 682,82; 6466,359;  238,050;47233,381;13,25304
 683,39; 6496,304;  280,973;47459,127;13,17417
 683,96; 6540,403;  245,665;47797,719;13,23757
 684,54; 6554,810;  227,589;48127,234;13,20933
 685,11; 6659,755;  269,666;48378,288;13,28263
 685,68; 6691,931;  246,358;48929,495;13,23985
 686,25; 6694,876;  229,436;49081,164;13,23482
 686,83; 6730,898;  244,897;49196,602;13,24979
 687,40; 6774,074;  219,205;49533,271;13,29209
 687,97; 6861,480;  269,667;49965,556;13,26430
 688,55; 6834,041;  222,129;49932,071;13,30098
 689,12; 6891,909;  214,206;50320,663;13,32703
 689,69; 6892,546;  222,899;50349,716;13,30555
 690,26; 6957,338;  246,130;50497,462;13,35528
 690,84; 6986,744;  245,361;50658,285;13,37233
 691,41; 6988,612;  248,822;50775,800;13,33899
 691,98; 7089,558;  254,823;51050,469;13,45536
 692,56; 7134,810;  233,284;51139,369;13,55737
 693,13; 7165,063;  283,592;51161,576;13,52544
 693,70; 7153,624;  266,823;51358,245;13,47937
 694,27; 7190,953;  254,285;51426,453;13,55555
 694,84; 7183,514;  234,131;51492,583;13,55753
 695,42; 7314,613;  288,362;51602,791;13,69254
 695,99; 7291,173;  251,132;51901,229;13,63026
 696,56; 7302,503;  233,747;51796,052;13,70915
 697,13; 7417,064;  253,594;52059,182;13,82760
 697,71; 7389,239;  221,517;52124,466;13,80986
 698,28; 7440,800;  241,825;52567,212;13,75809
 698,85; 7408,822;  218,672;52430,573;13,77109
 699,42; 7517,690;  217,903;52602,627;13,93495
 699,99; 7569,251;  269,364;52899,758;13,87010
 700,57; 7558,426;  250,288;52759,427;13,91784
 701,14; 7584,141;  239,903;52950,788;13,93306
 701,71; 7635,394;  251,057;53144,841;13,96069
 702,28; 7671,646;  249,750;53175,587;14,02320
 702,85; 7717,976;  240,212;53278,641;14,09877
 703,43; 7744,075;  267,981;53533,464;14,03553
 704,00; 7826,020;  279,366;53798,363;14,10089
 704,57; 7772,427;  251,674;53675,417;14,07755
 705,14; 7872,987;  272,597;54065,932;14,12887
 705,71; 7902,702;  271,290;54061,216;14,18744
 706,28; 7927,031;  252,367;53901,808;14,30521
 706,86; 8013,053;  276,752;54297,400;14,32101
 707,43; 7977,614;  300,598;54147,300;14,25717
 708,00; 8006,867;  264,060;54117,123;14,37765
 708,57; 8021,120;  243,675;54126,561;14,43398
 709,14; 8091,988;  272,599;54215,230;14,49575
 709,71; 8109,087;  248,830;54312,438;14,53891
 710,28; 8170,801;  264,445;54427,876;14,59722
 710,86; 8234,977;  265,676;54698,083;14,64073
 711,43; 8276,999;  280,061;54701,983;14,69433
 712,00; 8310,713;  256,600;54690,575;14,79611
 712,57; 8361,581;  265,293;54991,705;14,79412
 713,14; 8386,834;  255,216;55000,451;14,85356
 713,71; 8467,164;  266,831;54936,505;14,99978
 714,28; 8468,648;  265,601;54977,558;14,99315
 714,85; 8409,670;  241,524;54659,535;15,01000
 715,42; 8451,307;  249,140;55004,127;14,97976
 716,00; 8589,175;  311,140;55111,181;15,10589
 716,57; 8596,043;  262,602;55229,773;15,16076
 717,14; 8547,912;  249,217;55154,826;15,11447
 717,71; 8598,164;  234,987;55096,957;15,24403
 718,28; 8694,802;  280,449;55273,164;15,30085
 718,85; 8686,516;  247,218;55374,218;15,30883
 719,42; 8752,230;  269,449;55454,810;15,37143
 719,99; 8729,791;  247,219;55223,709;15,42945
 720,56; 8820,351;  264,988;55553,840;15,47394
 721,13; 8894,373;  241,296;55688,124;15,60608
 721,70; 8905,242;  248,835;55484,255;15,67184
 722,27; 8976,418;  273,912;55549,770;15,74377
 722,84; 9051,978;  306,374;55677,900;15,79441
 723,41; 9059,231;  240,835;55715,569;15,89624
 723,98; 9116,099;  266,682;55931,161;15,89778
 724,55; 9190,506;  283,144;55921,215;16,00947
 725,12; 9195,758;  221,836;55925,192;16,11020
 725,69; 9245,704;  253,221;56131,091;16,09310
 726,27; 9343,341;  266,606;56193,145;16,22975
 726,84; 9387,901;  269,298;56558,891;16,19945
 727,41; 9445,308;  274,683;56495,175;16,31189
 727,98; 9528,253;  272,376;56762,306;16,38500
 728,55; 9573,968;  296,068;56619,205;16,47263
 729,12; 9603,451;  239,607;56799,951;16,55549
 729,69; 9685,473;  279,376;57065,620;16,56404
 730,26; 9735,341;  276,069;57301,443;16,58783
 730,82; 9745,825;  272,069;57015,958;16,69564
 731,39; 9823,155;  263,608;57200,396;16,78975
 731,96; 9951,638;  251,454;57379,758;16,97965
 732,53; 9988,968;  265,455;57658,119;16,94208
 733,10;10046,067;  274,609;57655,326;17,02917
 733,67;10141,858;  271,455;57940,841;17,11550
 734,24;10132,957;  251,994;57573,126;17,23791
 734,81;10179,671;  285,456;57668,949;17,24227
 735,38;10134,232;  270,840;57484,925;17,23945
 735,95;10189,946;  271,148;57348,594;17,37779
 736,52;10225,122;  277,610;57559,878;17,36578
 737,09;10231,452;  265,918;57244,547;17,48995
 737,66;10354,628;  307,072;57340,678;17,61690
 738,23;10362,111;  259,534;57458,193;17,66226
 738,80;10530,056;  314,919;57686,631;17,80518
 739,37;10573,155;  294,150;57997,146;17,81364
 739,94;10584,870;  266,765;58021,969;17,86524
 740,51;10701,200;  361,073;58162,869;17,88894
 741,07;10691,068;  257,304;57969,230;18,07904
 741,64;10768,013;  299,458;58260,591;18,06134
 742,21;10807,035;  268,459;58352,491;18,14367
 742,78;10842,518;  238,074;58040,006;18,34618
 743,35;10890,540;  267,921;58393,598;18,27526
 743,92;11027,332;  293,382;58500,806;18,44086
 744,49;11028,815;  272,075;58297,244;18,53806
 745,06;11040,991;  262,537;58309,990;18,56835
 745,63;11114,859;  246,922;58349,813;18,70464
 746,19;11160,112;  260,537;58279,174;18,78633
 746,76;11180,903;  260,614;58369,227;18,79289
 747,33;11212,925;  256,307;58286,589;18,88086
 747,90;11296,255;  280,384;58549,027;18,90532
 748,47;11317,123;  276,615;58454,850;18,97704
 749,04;11416,299;  273,000;58474,596;19,14604
 749,61;11398,321;  287,308;58464,495;19,09857
 750,17;11548,805;  285,693;58499,856;19,34772
 750,74;11519,211;  274,001;58413,910;19,34164
 751,31;11521,695;  257,078;58361,194;19,38695
 751,88;11544,640;  231,463;58242,479;19,50177
 752,45;11626,662;  261,617;58344,071;19,56709
 753,02;11690,377;  282,848;58210,355;19,69277
 753,58;11703,860;  249,232;58226,639;19,75705
 754,15;11793,036;  258,617;58347,616;19,85646
 754,72;11741,212;  247,156;58025,824;19,89325
 755,29;11784,772;  241,156;57871,723;20,03037
 755,86;11863,794;  262,387;58023,931;20,08500
 756,42;11949,355;  267,311;57938,600;20,25626
 756,99;11940,838;  228,388;57931,653;20,29773
 757,56;11976,014;  235,003;57765,245;20,40842
 758,13;11977,190;  200,234;57725,068;20,47282
 758,70;12075,366;  227,773;57822,122;20,57076
 759,26;12119,157;  223,696;57884,329;20,63013
 759,83;12184,795;  234,543;57974,152;20,69680
 760,40;12225,124;  219,928;57712,590;20,88127
 760,97;12248,070;  197,774;57783,567;20,92581
 761,53;12205,784;  193,697;57436,697;20,98438
 762,10;12209,806;  196,544;57388,905;21,00501
 762,67;12305,674;  229,313;57454,112;21,10337
 763,24;12218,235;  189,852;56929,781;21,19915
 763,80;12368,180;  228,314;57080,835;21,35326
 764,37;12374,279;  218,929;57096,119;21,37122
 764,94;12313,532;  215,391;56619,172;21,44917
 765,50;12391,630;  216,314;56701,841;21,55475
 766,07;12428,422;  252,622;56651,433;21,58875
 766,64;12402,136;  230,776;56431,872;21,65680
 767,21;12451,466;  225,777;56265,618;21,81607
 767,77;12488,257;  250,315;56115,825;21,90608
 768,34;12521,894;  239,239;56116,109;21,98165
 768,91;12600,147;  255,162;55937,317;22,17045
 769,47;12630,169;  245,008;55948,909;22,23392
 770,04;12620,576;  262,855;55841,962;22,23447
 770,61;12633,521;  240,086;55658,939;22,36321
 771,18;12668,774;  231,932;55498,454;22,50339
 771,74;12764,873;  246,932;55584,123;22,62121
 772,31;12829,126;  247,317;55284,253;22,86066
 772,88;12776,763;  225,471;55091,615;22,87621
 773,44;12795,554;  228,471;55019,130;22,93654
 774,01;12836,807;  246,010;55033,953;22,98096
 774,58;12777,829;  234,549;54714,775;23,02355
 775,14;12935,313;  230,703;54775,598;23,29202
 775,71;12963,489;  238,395;54690,421;23,36937
 776,27;13082,588;  283,857;54724,475;23,50952
 776,84;13108,148;  308,165;54764,067;23,50523
 777,41;13077,247;  245,165;54464,966;23,66678
 777,97;13062,884;  244,550;54181,635;23,76534
 778,54;13150,291;  259,012;54240,381;23,88098
 779,11;13184,082;  268,551;54182,666;23,95575
 779,67;13150,643;  228,166;54092,642;23,99072
 780,24;13122,280;  251,936;53933,388;23,97540
 780,80;13284,148;  269,013;53984,749;24,22965
 781,37;13328,247;  254,859;53989,264;24,32964
 781,94;13371,269;  246,783;53653,703;24,57451
 782,50;13365,676;  257,091;53683,833;24,53563
 783,07;13439,083;  281,937;53762,964;24,60152
 783,63;13409,182;  240,860;53436,556;24,75449
 784,20;13501,434;  273,399;53488,686;24,85759
 784,77;13519,764;  256,553;53280,586;25,01358
 785,33;13502,402;  229,784;52997,332;25,15299
 785,90;13549,501;  253,015;53002,078;25,20706
 786,46;13577,523;  269,861;52896,439;25,28696
 787,03;13613,006;  242,092;52744,339;25,46732
 787,59;13654,259;  248,631;52615,315;25,59954
 788,16;13748,819;  258,478;52575,292;25,78586
 788,73;13687,918;  265,401;52391,576;25,75005
 789,29;13712,094;  244,786;51910,014;26,06648
 789,86;13799,886;  267,171;51898,222;26,21042
 790,42;13789,908;  257,094;51859,737;26,22504
 790,99;13722,314;  272,479;51447,944;26,28180
 791,55;13781,413;  245,633;51501,152;26,40843
 792,12;13781,666;  265,556;51433,359;26,41526
 792,68;13746,765;  254,556;51144,874;26,51233
 793,25;13775,249;  265,941;50834,543;26,71481
 793,81;13784,117;  309,249;50529,058;26,83178
 794,38;13712,062;  217,557;50328,112;26,92947
 794,94;13754,853;  244,173;50104,243;27,09720
 795,51;13765,644;  257,788;49860,681;27,23199
 796,07;13769,897;  260,789;49633,504;27,36149
 796,64;13873,996;  264,712;49687,480;27,53647
 797,20;13788,249;  258,558;49121,303;27,68917
 797,77;13731,040;  229,328;48871,664;27,75712
 798,33;13716,601;  241,866;48671,641;27,82324
 798,90;13794,238;  274,636;48687,771;27,92548
 799,46;13737,183;  246,251;48125,363;28,17707
 800,03;13713,744;  270,790;48025,109;28,15024
 800,59;13726,843;  272,713;47941,624;28,22412
 801,15;13753,018;  258,175;47589,524;28,51143
 801,72;13782,964;  252,406;47287,732;28,76680
 802,28;13718,139;  285,560;46983,631;28,76474
 802,85;13729,623;  249,330;46889,300;28,90288
 803,41;13693,337;  246,561;46712,892;28,93875
 803,98;13653,975;  249,484;46328,330;29,09033
 804,54;13653,997;  249,946;46006,846;29,29405
 805,11;13620,788;  258,485;45810,130;29,33440
 805,67;13697,041;  272,100;45752,414;29,51814
 806,23;13596,678;  262,408;45267,006;29,62868
 806,80;13650,239;  275,562;45117,444;29,82631
 807,36;13693,876;  282,793;45013,267;29,98198
 807,93;13600,821;  286,024;44813,321;29,90255
 808,49;13543,382;  245,640;44510,144;30,04155
 809,05;13532,173;  234,640;44363,505;30,13341
 809,62;13617,272;  270,410;44212,405;30,37382
 810,18;13584,679;  263,871;44157,151;30,34817
 810,74;13565,470;  232,025;43883,896;30,54496
 811,31;13562,338;  245,872;43546,335;30,75364
 811,87;13559,052;  256,564;43534,004;30,73770
 812,44;13544,459;  283,949;43399,288;30,75590
 813,00;13490,173;  209,719;43112,880;30,95449
 813,56;13647,811;  260,950;43217,010;31,16408
 814,13;13637,448;  259,565;43157,449;31,18542
 814,69;13613,932;  251,719;42808,348;31,39866
 815,25;13487,031;  229,104;42601,479;31,28908
 815,82;13465,822;  275,335;42334,840;31,36149
 816,38;13517,536;  298,182;42184,817;31,55984
 816,94;13404,174;  235,490;41865,486;31,63268
 817,51;13403,350;  226,644;41713,001;31,76154
 818,07;13313,987;  242,105;41376,747;31,77828
 818,63;13289,548;  265,336;41247,262;31,78038
 819,20;13310,724;  249,798;41189,777;31,90262
 819,76;13261,130;  235,414;40615,138;32,25806
 820,32;13330,075;  268,952;40609,961;32,37679
 820,89;13266,251;  270,799;40403,553;32,38116
 821,45;13215,042;  233,338;40010,145;32,63637
 822,01;13151,295;  273,876;39788,660;32,58886
 822,57;13178,240;  267,107;39675,791;32,76215
 823,14;13139,878;  238,415;39514,075;32,84849
 823,70;13156,669;  241,108;39247,282;33,11158
 824,26;13081,460;  235,262;39008,797;33,13136
 824,82;13159,713;  257,570;38887,005;33,39977
 825,39;13119,581;  239,647;38619,828;33,55882
 825,95;13163,065;  261,878;38651,958;33,60552
 826,51;13039,548;  258,340;38153,550;33,72777
 827,08;13133,494;  278,417;38206,065;33,89368
 827,64;13133,208;  257,186;38029,657;34,08837
 828,20;13181,691;  242,956;37724,249;34,52052
 828,76;13112,098;  273,494;37724,072;34,28146
 829,32;13106,351;  275,879;37573,895;34,39988
 829,89;13121,604;  234,187;37475,256;34,60539
 830,45;13177,241;  253,572;37367,925;34,82122
 831,01;13193,648;  241,188;37192,517;35,05276
 831,57;13138,208;  252,188;37083,494;34,98660
 832,14;13210,846;  246,496;37046,163;35,22953
 832,70;13154,483;  233,111;36757,370;35,37751
 833,26;13150,967;  214,189;36663,808;35,49222
 833,82;13221,450;  238,343;36525,016;35,77927
 834,38;13267,472;  233,804;36584,069;35,85577
 834,95;13219,417;  234,882;36441,892;35,86194
 835,51;13223,747;  205,343;36314,946;36,05247
 836,07;13326,077;  243,190;36355,615;36,22822
 836,63;13387,560;  262,882;36381,668;36,33754
 837,19;13337,967;  247,421;36206,645;36,40386
 837,75;13286,835;  215,421;35942,391;36,58697
 838,32;13439,780;  258,268;36010,829;36,86872
 838,88;13399,495;  257,499;36027,575;36,74020
 839,44;13516,286;  251,499;35891,705;37,21860
 840,00;13534,462;  248,961;35852,067;37,31557
 840,56;13489,792;  224,422;35544,428;37,55766
 841,12;13515,890;  231,346;35616,482;37,54273
 841,68;13439,605;  218,654;35367,151;37,61456
 842,25;13536,011;  231,039;35432,358;37,79680
 842,81;13483,341;  224,193;35091,796;38,02713
 843,37;13526,209;  205,270;35087,311;38,18853
 843,93;13575,924;  234,885;35064,749;38,30345
 844,49;13629,484;  240,578;35030,880;38,48459
 845,05;13596,660;  202,040;34888,395;38,61640
 845,61;13701,144;  253,809;34860,756;38,85733
 846,17;13645,704;  233,040;34734,348;38,87581
 846,73;13724,957;  242,810;34729,863;39,09336
 847,29;13659,748;  215,733;34468,763;39,24913
 847,86;13678,001;  221,118;34521,817;39,23210
 848,42;13620,408;  208,580;34236,024;39,41474
 848,98;13683,737;  241,811;34193,924;39,59084
 849,54;13780,375;  228,965;34233,670;39,85157
 850,10;13791,320;  237,734;34080,108;40,04916
 850,66;13783,496;  216,734;33874,469;40,30800
 851,22;13761,056;  212,504;33864,061;40,26129
 851,78;13834,001;  268,043;33891,807;40,34634
 852,34;13774,716;  237,274;33624,938;40,54624
 852,90;13768,738;  226,889;33522,991;40,67097
 853,46;13785,375;  218,120;33292,583;41,02033
 854,02;13826,397;  234,274;33293,791;41,11410
 854,58;13722,342;  221,659;32997,075;41,19149
 855,14;13723,211;  221,736;32969,359;41,22887
 855,70;13696,463;  196,121;32805,721;41,39990
 856,26;13809,101;  242,275;32805,159;41,66346
 856,82;13718,046;  229,429;32524,905;41,76627
 857,38;13675,068;  246,276;32449,035;41,70075
 857,94;13707,628;  240,430;32373,473;41,91075
 858,50;13666,881;  249,661;32173,527;42,02881
 859,06;13665,980;  224,892;32001,965;42,29807
 859,62;13707,464;  242,969;31978,326;42,42742
 860,18;13704,178;  227,738;31700,841;42,81891
 860,74;13576,969;  195,431;31622,280;42,57996
 861,30;13576,530;  207,893;31446,333;42,79547
 861,86;13601,783;  260,124;31459,925;42,76200
 862,42;13617,189;  226,662;31272,133;43,13198
 862,98;13672,442;  253,047;31308,571;43,21098
 863,54;13628,079;  233,971;31118,394;43,36849
 864,10;13704,640;  223,202;31050,293;43,73244
 864,66;13621,431;  208,202;30911,809;43,68617
 865,22;13622,761;  230,510;30695,324;43,95973
 865,78;13591,629;  229,895;30639,608;43,93903
 866,34;13605,267;  226,664;30513,200;44,17343
 866,90;13605,904;  236,895;30375,023;44,35912
 867,45;13554,388;  230,818;30249,076;44,38488
 868,01;13536,410;  235,511;30036,976;44,63169
 868,57;13452,585;  226,434;29866,799;44,62209
 869,13;13450,146;  211,204;29736,391;44,83949
 869,69;13417,553;  215,512;29661,214;44,83521
 870,25;13419,421;  209,512;29513,113;45,07947
 870,81;13463,827;  218,974;29522,167;45,19935
 871,37;13455,080;  225,974;29387,682;45,36465
 871,93;13390,102;  233,436;29172,197;45,46382
 872,49;13309,201;  253,897;29027,866;45,37193
 873,04;13250,223;  212,513;28819,304;45,57558
 873,60;13302,707;  219,667;28684,666;45,96185
 874,16;13307,498;  236,206;28544,181;46,17530
 874,72;13254,267;  222,437;28517,873;46,05630
 875,28;13287,498;  226,052;28424,873;46,31912
 875,84;13340,652;  226,590;28321,873;46,67709
 876,40;13283,960;  220,513;28379,412;46,39189
 876,95;13304,421;  239,129;28235,104;46,66847
 877,51;13343,190;  260,052;28329,873;46,60927
 878,07;13402,267;  269,744;28231,488;46,96604
 878,63;13418,652;  228,283;28280,027;47,02157
 879,19;13501,960;  235,898;28263,258;47,33254
 879,75;13482,960;  226,590;28335,642;47,16050
 880,30;13552,113;  230,821;28199,027;47,63013
 880,86;13624,729;  267,821;28385,488;47,50361
 881,42;13653,960;  216,667;28452,104;47,59017
 881,98;13779,652;  240,898;28461,335;47,97500
 882,54;13802,113;  224,744;28577,719;47,88693
 883,09;13927,883;  238,513;28735,488;48,03797
 883,65;13954,806;  214,283;28770,335;48,11773
 884,21;14133,960;  256,206;28987,565;48,30177
 884,77;14145,113;  221,360;28983,104;48,41067
 885,32;14291,190;  230,975;29187,642;48,55606
 885,88;14371,267;  259,283;29262,335;48,65690
 886,44;14484,344;  237,513;29484,642;48,71190
 887,00;14484,037;  254,360;29404,412;48,81527
 887,56;14699,652;  231,437;29648,488;49,18309
 888,11;14619,652;  236,360;29552,412;49,06286
 888,67;14808,344;  264,206;29822,412;49,20508
 889,23;14876,960;  237,667;29833,873;49,46341
 889,79;14828,729;  214,360;29723,027;49,52568
 890,34;14801,883;  239,360;29613,258;49,57641
 890,90;15015,344;  302,975;29761,181;49,94320
 891,46;14945,575;  225,667;29652,104;50,02273
 892,01;14967,806;  252,975;29674,104;50,01450
 892,57;14965,806;  252,821;29550,335;50,21923
 893,13;14903,267;  233,283;29317,873;50,43903
 893,69;14935,037;  227,129;29388,719;50,43589
 894,24;14921,575;  236,667;29281,335;50,55974
 894,80;14918,960;  231,052;29059,104;50,95005
 895,36;14887,498;  230,129;28942,873;51,04830
 895,91;14781,960;  231,206;28773,719;50,97923
 896,47;14820,344;  258,975;28624,412;51,33490
 897,03;14735,421;  220,667;28386,335;51,53350
 897,58;14673,498;  238,821;28392,488;51,27104
 898,14;14656,883;  239,975;28132,565;51,68723
 898,70;14604,652;  209,667;27967,642;51,85891
 899,25;14632,267;  228,129;27958,719;51,94314
 899,81;14515,037;  250,590;27772,104;51,83017
 900,37;14471,190;  217,437;27573,104;52,10530
 900,92;14523,267;  240,283;27632,719;52,14207
 901,48;14498,729;  224,821;27419,488;52,48789
 902,03;14419,575;  223,513;27255,796;52,51522
 902,59;14420,037;  226,052;27215,412;52,59104
 903,15;14437,806;  256,052;26958,950;53,10942
 903,70;14312,421;  244,052;26687,181;53,20236
 904,26;14296,883;  217,744;26660,335;53,24417
 904,82;14338,806;  236,744;26648,488;53,39315
 905,37;14307,883;  240,052;26469,873;53,63296
 905,93;14303,267;  224,744;26360,104;53,86772
 906,48;14213,498;  239,667;26317,104;53,58591
 907,04;14242,344;  253,898;26173,181;53,96926
 907,60;14110,190;  224,975;25972,873;53,92757
 908,15;14153,806;  218,667;25883,104;54,29747
 908,71;14234,037;  250,513;25858,335;54,60645
 909,26;14147,190;  213,283;25706,950;54,65635
 909,82;14152,498;  257,437;25599,796;54,82939
 910,37;14136,113;  268,052;25525,796;54,90618
 910,93;14039,729;  219,744;25226,335;55,26537
 911,48;13989,421;  208,513;25048,181;55,47944
 912,04;13919,575;  216,590;24939,950;55,42525
 912,60;14012,267;  242,206;25022,488;55,56862
 913,15;13962,729;  235,975;24808,104;55,86310
 913,71;13816,037;  226,360;24581,642;55,79766
 914,26;13763,344;  204,360;24588,950;55,60473
 914,82;13785,883;  234,975;24467,873;55,91947
 915,37;13779,421;  226,898;24384,950;56,09940
 915,93;13800,575;  277,129;24278,258;56,34504
 916,48;13757,960;  216,283;24113,488;56,66636
 917,04;13733,806;  239,590;24033,642;56,71256
 917,59;13761,498;  254,129;23937,412;57,03335
 918,15;13684,575;  206,206;23718,181;57,32555
 918,70;13653,806;  226,283;23675,335;57,26254
 919,26;13646,037;  229,667;23483,565;57,69514
 919,81;13603,113;  212,975;23370,412;57,82220
 920,37;13592,037;  233,283;23301,335;57,91019
 920,92;13604,498;  241,975;23216,796;58,16160
 921,48;13512,421;  209,667;22934,027;58,53962
 922,03;13539,190;  218,437;23038,488;58,37302
 922,59;13453,498;  225,821;22863,565;58,43196
 923,14;13408,575;  223,975;22679,488;58,71431
 923,69;13379,575;  244,283;22620,642;58,70165
 924,25;13377,190;  248,513;22641,181;58,62936
 924,80;13308,267;  225,975;22275,796;59,33061
 925,36;13301,960;  219,744;22273,104;59,32074
 925,91;13228,652;  222,052;22124,873;59,38322
 926,47;13218,806;  209,667;22107,181;59,40920
 927,02;13247,190;  269,744;22038,335;59,61546
 927,57;13202,190;  220,975;21821,565;60,09658
 928,13;13159,575;  217,360;21776,642;60,03083
 928,68;13124,883;  221,283;21722,027;60,01467
 929,24;13014,421;  192,821;21528,642;60,09424
 929,79;13050,652;  216,052;21382,335;60,63701
 930,34;12978,498;  216,513;21190,642;60,84632
 930,90;13028,498;  215,898;21257,642;60,89134
 931,45;13046,729;  233,513;21206,719;61,09326
 932,01;13000,883;  231,360;21068,950;61,28119
 932,56;12958,729;  244,513;20865,642;61,65625
 933,11;12951,421;  256,437;20914,258;61,45365
 933,67;12869,960;  216,360;20690,488;61,80287
 934,22;12891,652;  221,283;20578,796;62,23928
 934,77;12869,037;  251,360;20507,642;62,29019
 935,33;12764,960;  233,975;20403,412;62,12858
 935,88;12770,729;  226,590;20301,335;62,48716
 936,43;12770,652;  218,975;20248,181;62,66687
 936,99;12679,883;  225,206;20154,719;62,49363
 937,54;12619,806;  212,513;19992,719;62,72580
 938,09;12604,729;  235,360;19954,412;62,72801
 938,65;12576,267;  230,437;19810,104;63,05434
 939,20;12515,729;  204,129;19720,104;63,08473
 939,75;12479,113;  217,360;19588,488;63,29912
 940,31;12413,729;  214,590;19526,642;63,16853
 940,86;12426,806;  228,744;19496,873;63,30693
 941,41;12324,113;  300,129;19384,873;63,00312
 941,96;12324,190;  217,590;19234,412;63,66259
 942,52;12269,652;  218,898;19187,027;63,53159
 943,07;12234,113;  200,283;19000,335;64,00956
 943,62;12189,960;  210,513;18923,565;64,01653
 944,18;12111,498;  204,667;18843,796;63,88083
 944,73;12092,575;  220,129;18759,181;64,04020
 945,28;11930,575;  200,898;18568,873;63,85939
 945,83;12012,344;  224,975;18574,873;64,23670
 946,39;12007,575;  214,590;18463,565;64,62272
 946,94;12048,729;  239,052;18505,642;64,65179
 947,49;11978,729;  225,590;18264,719;65,15358
 948,04;12034,498;  248,513;18248,181;65,47890
 948,59;11972,729;  237,129;18177,258;65,41536
 949,15;11963,575;  208,898;18127,104;65,60186
 949,70;11889,883;  211,283;18002,412;65,64283
 950,25;11864,575;  243,590;17877,258;65,90226
 950,80;11815,037;  190,129;17786,719;66,06341
 951,36;11797,806;  188,975;17675,027;66,38909
 951,91;11865,498;  236,129;17672,027;66,69785
 952,46;11761,806;  207,821;17485,873;66,87088
 953,01;11833,113;  238,283;17504,565;67,15302
 953,56;11709,652;  203,975;17356,642;67,07806
 954,11;11716,652;  221,283;17362,796;67,06158
 954,67;11727,037;  214,898;17186,104;67,83336
 955,22;11642,652;  202,129;17152,181;67,49550
 955,77;11619,498;  238,437;17072,488;67,60738
 956,32;11655,883;  267,283;16949,796;68,26669
 956,87;11536,344;  207,821;16783,565;68,34398
 957,42;11526,806;  210,206;16742,488;68,45153
 957,98;11612,575;  209,821;16680,873;69,22906
 958,53;11534,421;  240,437;16656,335;68,79907
 959,08;11429,113;  216,283;16515,642;68,79308
 959,63;11370,113;  214,283;16453,335;68,69755
 960,18;11400,498;  226,206;16438,873;68,92322
 960,73;11442,960;  214,513;16331,412;69,66878
 961,28;11363,806;  206,975;16188,027;69,81287
 961,83;11314,806;  241,667;16189,565;69,43322
 962,39;11262,652;  200,129;16034,719;69,86302
 962,94;11260,575;  231,360;16000,950;69,93977
 963,49;11232,575;  214,744;15862,104;70,41335
 964,04;11214,652;  232,052;15809,027;70,50535
 964,59;11179,267;  199,975;15702,950;70,82055
 965,14;11124,421;  234,206;15642,412;70,67802
 965,69;10982,806;  220,129;15507,950;70,40033
 966,24;10931,037;  213,437;15436,719;70,40269
 966,79;10925,806;  231,667;15336,258;70,80059
 967,34;10847,498;  199,052;15212,719;70,92502
 967,89;10842,267;  209,590;15114,104;71,33864
 968,44;10804,421;  226,206;15046,565;71,37624
 968,99;10739,113;  229,052;14984,565;71,22803
 969,55;10645,498;  227,283;14903,027;70,98935
 970,10;10567,498;  230,821;14821,642;70,84370
 970,65;10579,190;  233,513;14703,335;71,49831
 971,20;10470,190;  210,052;14610,488;71,24880
 971,75;10430,652;  201,206;14497,181;71,55473
 972,30;10400,575;  225,898;14445,873;71,55200
 972,85;10376,960;  206,513;14366,796;71,82375
 973,40;10260,960;  204,513;14167,565;72,02183
 973,95;10223,421;  224,360;14185,412;71,62112
 974,50;10264,037;  248,360;14086,950;72,37498
 975,05;10225,113;  224,206;13905,642;73,09837
 975,60;10172,267;  227,667;13878,950;72,84737
 976,15;10063,729;  216,052;13755,950;72,73081
 976,70; 9973,960;  212,744;13693,335;72,40941
 977,25; 9974,652;  228,667;13616,258;72,79865
 977,80; 9924,960;  212,975;13398,565;73,65605
 978,35; 9838,113;  231,590;13314,796;73,42637
 978,89; 9786,190;  194,667;13252,873;73,45207
 979,44; 9824,421;  216,744;13219,796;73,88786
 979,99; 9673,575;  206,129;13049,488;73,71472
 980,54; 9613,575;  236,513;12988,104;73,53641
 981,09; 9591,190;  238,437;12832,565;74,26281
 981,64; 9544,344;  231,360;12723,488;74,55082
 982,19; 9571,113;  253,667;12714,719;74,77255
 982,74; 9457,652;  233,667;12564,565;74,80383
 983,29; 9326,267;  209,052;12400,027;74,78660
 983,84; 9351,498;  228,513;12303,488;75,55282
 984,39; 9331,729;  277,437;12298,181;75,32223
 984,94; 9158,344;  198,129;12154,719;74,93955
 985,49; 9218,344;  248,667;12060,335;75,93913
 986,03; 9163,498;  239,206;11997,796;75,89594
 986,58; 9045,267;  271,360;11828,565;75,91721
 987,13; 8989,421;  228,898;11728,796;76,17914
 987,68; 8940,883;  239,437;11609,335;76,53056
 988,23; 8900,806;  231,821;11558,027;76,53918
 988,78; 8779,652;  215,283;11352,104;76,90138
 989,33; 8758,267;  235,898;11312,181;76,94250
 989,88; 8747,729;  261,975;11214,412;77,47823
 990,42; 8589,883;  220,667;11102,181;76,91224
 990,97; 8547,267;  220,283;10949,027;77,61379
 991,52; 8530,421;  248,975;10915,027;77,64303
 992,07; 8432,575;  256,667;10801,412;77,53538
 992,62; 8384,960;  241,052;10718,873;77,72520
 993,17; 8331,267;  244,590;10596,104;78,12072
 993,71; 8249,883;  236,744;10508,565;78,01088
 994,26; 8148,344;  220,667;10335,950;78,37326
 994,81; 8143,421;  246,129;10295,027;78,58864
 995,36; 8015,498;  235,052;10137,719;78,56920
 995,91; 7976,113;  228,821;10097,335;78,50516
 996,45; 7884,267;  232,513; 9939,719;78,82550
 997,00; 7797,652;  214,129; 9861,565;78,60661
 997,55; 7775,037;  235,513; 9794,335;78,87503
 998,10; 7714,421;  261,590; 9676,488;79,15997
 998,65; 7668,652;  223,975; 9595,027;79,44334
 999,19; 7611,575;  251,283; 9456,412;79,95860
 999,74; 7472,652;  278,975; 9402,104;78,85098
1000,29; 7507,267;  251,821; 9298,950;80,19612
1000,84; 7396,267;  231,744; 9158,950;80,25493
1001,38; 7294,344;  234,129; 9078,796;79,82454
1001,93; 7285,575;  242,437; 9040,335;80,05479
1002,48; 7147,344;  218,129; 8857,104;80,20877
1003,03; 7143,037;  236,052; 8843,104;80,24797
1003,57; 7069,960;  242,667; 8662,719;81,08373
1004,12; 7001,498;  267,052; 8632,565;80,50248
1004,67; 6917,729;  233,052; 8498,412;80,87581
1005,22; 6776,883;  223,437; 8366,565;80,47823
1005,76; 6674,113;  216,206; 8234,027;80,54442
1006,31; 6664,344;  247,283; 8191,796;80,77350
1006,86; 6560,960;  226,744; 8071,488;80,74470
1007,40; 6477,652;  218,590; 7946,335;80,99468
1007,95; 6428,575;  238,437; 7855,027;81,27178
1008,50; 6366,729;  234,360; 7722,488;81,89455
1009,04; 6284,806;  231,513; 7619,181;81,93780
1009,59; 6157,883;  247,744; 7518,027;81,29173
1010,14; 6090,806;  221,360; 7391,488;81,85970
1010,68; 6034,113;  234,283; 7255,873;82,59996
1011,23; 5944,421;  215,590; 7127,412;82,88453
1011,78; 5964,113;  240,129; 7102,796;83,40758
1012,32; 5862,037;  239,821; 7005,104;83,10392
1012,87; 5828,421;  259,206; 6943,412;83,31903
1013,42; 5708,498;  210,360; 6846,796;82,84775
1013,96; 5734,190;  261,360; 6832,565;83,28503
1014,51; 5662,344;  198,667; 6706,412;83,95654
1015,06; 5705,037;  190,360; 6751,488;84,05073
1015,60; 5763,498;  268,975; 6764,488;84,58951
1016,15; 5702,806;  215,052; 6756,335;83,89416
1016,69; 5725,960;  231,437; 6763,719;84,11337
1017,24; 5694,037;  196,283; 6787,796;83,40655
1017,79; 5802,652;  245,744; 6832,796;84,36107
1018,33; 5767,729;  220,821; 6814,104;84,12968
1018,88; 5865,190;  237,744; 6866,104;84,89953
1019,42; 5824,344;  221,437; 6870,104;84,27114
1019,97; 5849,960;  215,437; 6884,873;84,48275
1020,51; 5879,498;  248,206; 6918,335;84,42554
1021,06; 5872,883;  204,590; 6930,642;84,27369
1021,61; 5848,883;  187,898; 6853,258;84,93142
1022,15; 5783,806;  193,437; 6810,796;84,48036
1022,70; 5831,652;  225,206; 6826,950;84,92371
1023,24; 5776,729;  213,975; 6803,335;84,42025
1023,79; 5756,421;  222,898; 6735,258;84,96956
1024,33; 5727,652;  221,513; 6661,950;85,49325
1024,88; 5671,267;  233,437; 6588,873;85,56188
1025,42; 5541,960;  224,360; 6499,950;84,73466
1025,97; 5509,267;  212,898; 6359,719;86,16436
1026,51; 5418,883;  180,360; 6257,873;86,19517
1027,06; 5366,729;  212,129; 6224,027;85,73998
1027,60; 5285,498;  227,437; 6133,565;85,64089
1028,15; 5255,729;  232,052; 6013,565;86,89207
1028,69; 5148,652;  191,206; 5878,642;87,16486
1029,24; 5069,806;  211,129; 5852,181;86,13069
1029,78; 4979,421;  207,437; 5700,258;86,87675
1030,33; 4911,037;  193,360; 5620,796;86,92275
1030,87; 4899,960;  217,744; 5544,412;87,90140
1031,42; 4814,344;  199,513; 5511,565;86,87473
1031,96; 4832,421;  219,206; 5417,181;88,75024
1032,51; 4718,960;  208,898; 5315,412;88,31978
1033,05; 4669,190;  224,821; 5261,565;88,23893
1033,60; 4567,267;  180,590; 5120,796;88,79543
1034,14; 4545,575;  219,206; 5065,642;89,26908
1034,69; 4507,267;  212,898; 5014,873;89,42923
1035,23; 4419,883;  221,437; 4951,873;88,75388
1035,77; 4399,575;  215,590; 4875,335;89,79001
1036,32; 4328,960;  191,206; 4794,950;89,87801
1036,86; 4333,190;  214,667; 4770,719;90,39675
1037,41; 4275,883;  224,360; 4664,796;91,24155
1037,95; 4185,806;  185,513; 4588,642;90,85113
1038,50; 4175,960;  200,283; 4514,027;92,16302
1039,04; 4160,806;  232,667; 4480,642;92,47085
1039,58; 4079,498;  198,052; 4391,950;92,54984
1040,13; 4023,960;  209,821; 4376,412;91,54100
1040,67; 4057,806;  246,283; 4344,258;93,00992
1041,21; 3968,498;  239,975; 4268,412;92,55509
1041,76; 3888,806;  202,590; 4130,027;93,85805
1042,30; 3851,037;  205,360; 4121,488;93,09390
1042,85; 3805,883;  207,360; 4036,796;93,97004
1043,39; 3735,729;  202,052; 3977,719;93,59079
1043,93; 3718,344;  230,129; 3965,719;93,37789
1044,48; 3647,344;  225,744; 3904,335;93,01389
1045,02; 3605,806;  209,590; 3804,258;94,47927
1045,56; 3617,806;  238,744; 3770,642;95,67268
1046,11; 3566,344;  230,590; 3755,873;94,62373
1046,65; 3525,498;  220,206; 3681,719;95,48691
1047,19; 3432,190;  204,975; 3618,412;94,54447
1047,74; 3414,652;  194,667; 3528,873;96,57426
1048,28; 3364,652;  223,206; 3535,412;94,84453
1048,82; 3334,729;  244,744; 3506,181;94,74306
1049,37; 3288,960;  223,975; 3444,642;95,16614
1049,91; 3247,652;  217,821; 3417,335;94,69661
1050,45; 3219,267;  227,590; 3377,719;94,96999
1050,99; 3155,267;  216,744; 3306,873;95,09387
1051,54; 3087,729;  210,975; 3262,335;94,27777
1052,08; 3069,267;  234,590; 3226,796;94,73536
1052,62; 3029,344;  239,283; 3178,642;94,92073
1053,16; 2949,806;  217,437; 3109,335;94,48359
1053,71; 2930,575;  225,667; 3088,027;94,49923
1054,25; 2908,037;  234,129; 3042,104;95,22548
1054,79; 2853,267;  223,821; 2991,258;95,01378
1055,33; 2796,652;  194,975; 2892,873;96,43348
1055,88; 2793,498;  228,590; 2926,796;95,05975
1056,42; 2769,960;  236,821; 2891,027;95,43866
1056,96; 2734,575;  236,898; 2825,873;96,47358
1057,50; 2667,037;  228,129; 2797,796;94,91142
1058,05; 2644,113;  220,052; 2745,796;95,97415
1058,59; 2614,344;  232,590; 2715,719;95,91745
1059,13; 2561,806;  206,206; 2624,642;97,40177
1059,67; 2525,421;  222,052; 2633,719;95,50941
1060,21; 2477,190;  227,437; 2581,181;95,58192
1060,76; 2478,267;  236,667; 2548,950;96,94316
1061,30; 2448,960;  250,513; 2537,565;96,12576
1061,84; 2391,498;  233,513; 2464,181;96,74166
1062,38; 2318,421;  214,821; 2407,796;95,92449
1062,92; 2357,421;  259,513; 2438,796;96,26597
1063,46; 2307,037;  238,206; 2377,873;96,68937
1064,01; 2259,883;  223,590; 2308,719;97,65786
1064,55; 2250,729;  229,437; 2278,181;98,66006
1065,09; 2181,960;  196,744; 2234,027;97,44428
1065,63; 2205,806;  258,898; 2275,642;96,53716
1066,17; 2173,190;  254,975; 2250,642;96,11900
1066,71; 2152,883;  246,667; 2217,719;96,71056
1067,25; 2088,421;  230,206; 2156,488;96,46639
1067,80; 2111,037;  243,360; 2149,719;97,97086
1068,34; 2106,575;  260,052; 2148,950;97,75663
1068,88; 2042,421;  225,283; 2081,258;97,90749
1069,42; 2049,883;  254,437; 2088,181;97,91148
1069,96; 1986,652;  238,590; 2014,565;98,42827
1070,50; 2025,344;  254,898; 2044,258;98,94300
1071,04; 1925,729;  217,898; 1960,027;98,03125
1071,58; 1929,498;  223,667; 1952,335;98,67895
1072,12; 1897,344;  229,283; 1930,642;98,04285
1072,66; 1896,960;  229,052; 1914,104;98,98257
1073,21; 1878,344;  240,744; 1917,950;97,63859
1073,75; 1849,267;  245,437; 1871,565;98,62876
1074,29; 1819,113;  234,283; 1851,258;98,01208
1074,83; 1805,575;  257,283; 1843,642;97,60034
1075,37; 1798,344;  249,129; 1828,412;98,09614
1075,91; 1765,960;  242,744; 1790,104;98,43965
1076,45; 1763,652;  235,590; 1773,950;99,33058
1076,99; 1721,729;  249,898; 1745,335;98,42148
1077,53; 1704,113;  220,052; 1713,488;99,37225
1078,07; 1708,498;  228,437; 1713,950;99,63299
1078,61; 1653,575;  234,360; 1670,258;98,83817
1079,15; 1634,652;  238,206; 1639,412;99,66032
1079,69; 1646,037;  225,744; 1633,027;100,92445
1080,23; 1627,267;  254,129; 1633,796;99,52678
1080,77; 1616,652;  267,052; 1646,104;97,86434
1081,31; 1582,575;  225,821; 1581,642;100,06879
1081,85; 1578,729;  249,283; 1560,950;101,35544
1082,39; 1554,960;  227,437; 1537,719;101,31578
1082,93; 1553,421;  246,975; 1544,412;100,69442
1083,47; 1500,421;  230,590; 1494,335;100,48163
1084,01; 1512,960;  247,590; 1503,719;100,73562
1084,55; 1472,344;  227,590; 1449,104;101,90259
1085,09; 1473,806;  252,744; 1463,412;100,85855
1085,63; 1440,267;  239,206; 1461,027;98,30093
1086,17; 1430,344;  228,129; 1410,642;101,66611
1086,71; 1402,498;  225,590; 1403,950;99,87678
1087,24; 1425,113;  251,821; 1425,873;99,93530
1087,78; 1386,883;  247,513; 1391,873;99,56391
1088,32; 1340,267;  229,052; 1347,181;99,38169
1088,86; 1360,498;  251,975; 1361,796;99,88304
1089,40; 1348,344;  245,744; 1326,104;102,05861
1089,94; 1329,652;  219,129; 1296,719;103,05614
1090,48; 1310,037;  254,744; 1307,642;100,22739
1091,02; 1302,575;  249,667; 1296,796;100,55188
1091,56; 1280,960;  248,667; 1270,873;100,98674
1092,10; 1251,267;  225,744; 1243,796;100,73387
1092,63; 1290,498;  262,821; 1270,335;102,00131
1093,17; 1250,883;  257,744; 1241,488;100,95495
1093,71; 1231,190;  228,052; 1212,488;101,89976
1094,25; 1220,344;  260,821; 1198,642;102,31408
1094,79; 1195,960;  236,206; 1177,181;101,99568
1095,33; 1192,652;  235,744; 1167,642;102,68373
1095,87; 1181,729;  229,667; 1172,104;101,02129
1096,40; 1130,960;  218,437; 1133,258;99,74879
1096,94; 1156,652;  242,437; 1127,027;103,34901
1097,48; 1143,037;  245,283; 1121,258;102,48624
1098,02; 1106,498;  233,129; 1089,796;101,94964
1098,56; 1088,421;  203,437; 1066,027;102,59616
1099,10; 1071,037;  219,206; 1061,412;101,14283
1099,63; 1065,344;  203,821; 1055,335;101,17551
1100,17; 1063,960;  247,744; 1059,642;100,53175
1100,71; 1083,421;  261,667; 1069,719;101,69567

