
Integration time [ms]: 120,000
Averaging Nr. [scans]: 13
Smoothing Nr. [pixels]: 0
Data measured with spectrometer [name]: 2009305U1
Wave   ;Sample   ;Dark     ;Reference;Reflectance
[nm]   ;[counts] ;[counts] ;[counts] ;[%]

 175,72;  199,123;  202,673;  202,814; 0,00000
 176,32;  227,619;  225,431;  219,229; 0,00000
 176,92;  262,848;  241,593;  259,926;115,93867
 177,52;  259,132;  251,671;  258,560;108,31554
 178,12;  232,036;  228,123;  221,690; 0,00000
 178,72;  265,392;  262,428;  250,906; 0,00000
 179,32;  249,756;  256,969;  246,180; 0,00000
 179,92;  252,249;  244,743;  247,528;269,53601
 180,52;  252,138;  240,295;  251,040;110,22332
 181,12;  254,895;  250,513;  250,351; 0,00000
 181,73;  273,164;  264,591;  277,112;68,47208
 182,33;  342,844;  344,982;  351,462;-32,99577
 182,93;  260,372;  260,594;  266,980;-3,46762
 183,53;  238,973;  240,272;  226,189; 0,00000
 184,13;  236,419;  234,428;  232,913; 0,00000
 184,73;  269,749;  272,348;  270,276; 0,00000
 185,33;  266,762;  227,895;  345,845;32,95218
 185,93;  263,048;  241,810;  363,162;17,50058
 186,53;  279,985;  245,969;  383,769;24,68528
 187,13;  323,201;  274,977;  418,310;33,64453
 187,73;  271,461;  236,042;  378,887;24,79535
 188,33;  274,302;  240,114;  373,931;25,54816
 188,93;  281,924;  258,330;  373,870;20,42065
 189,53;  288,249;  257,396;  374,368;26,37610
 190,13;  318,904;  277,224;  424,265;28,34597
 190,73;  264,010;  216,698;  365,464;31,80319
 191,34;  299,516;  258,249;  403,767;28,35878
 191,94;  271,837;  218,263;  371,997;34,84850
 192,54;  293,129;  243,523;  387,787;34,38568
 193,14;  288,538;  247,900;  396,592;27,33069
 193,74;  291,956;  257,129;  400,532;24,28588
 194,34;  279,769;  240,671;  386,728;26,76879
 194,94;  253,163;  220,361;  356,781;24,04479
 195,54;  225,316;  204,742;  327,334;16,78265
 196,14;  255,734;  227,827;  378,689;18,49868
 196,74;  258,470;  222,971;  359,044;26,08869
 197,34;  231,496;  197,063;  371,027;19,79309
 197,94;  260,072;  228,132;  384,373;20,44293
 198,54;  270,640;  235,596;  395,794;21,87574
 199,14;  249,534;  219,374;  388,308;17,85304
 199,74;  241,140;  202,220;  401,273;19,55247
 200,34;  234,383;  196,990;  393,795;18,99964
 200,94;  269,921;  228,446;  426,289;20,96345
 201,54;  254,216;  204,218;  443,961;20,85448
 202,14;  290,765;  229,608;  481,986;24,23226
 202,74;  271,261;  219,912;  475,274;20,10853
 203,34;  251,646;  188,920;  492,839;20,63906
 203,94;  225,180;  167,224;  499,348;17,45008
 204,54;  298,898;  245,363;  589,973;15,53491
 205,14;  264,286;  199,220;  600,798;16,20262
 205,74;  315,587;  236,688;  696,371;17,16376
 206,34;  271,142;  209,069;  707,819;12,44564
 206,94;  290,755;  215,837;  774,562;13,40860
 207,54;  269,879;  180,146;  806,666;14,32247
 208,14;  304,874;  214,378;  884,062;13,51328
 208,74;  307,331;  211,373;  951,337;12,96786
 209,34;  315,847;  194,759; 1045,915;14,22634
 209,94;  349,003;  216,528; 1149,937;14,19260
 210,54;  333,355;  213,302; 1239,675;11,69684
 211,14;  355,791;  218,374; 1375,700;11,87366
 211,73;  357,466;  201,448; 1478,977;12,21249
 212,33;  394,546;  217,908; 1586,632;12,90530
 212,93;  397,734;  205,834; 1714,331;12,72124
 213,53;  367,783;  178,220; 1776,071;11,86364
 214,13;  397,342;  200,076; 1832,252;12,08604
 214,73;  389,919;  190,377; 1872,755;11,86068
 215,33;  382,234;  173,143; 1893,014;12,15733
 215,93;  432,418;  201,842; 2020,959;12,67517
 216,53;  405,966;  158,603; 2108,122;12,68841
 217,13;  489,791;  216,302; 2311,821;13,05110
 217,73;  517,861;  194,611; 2514,042;13,93659
 218,33;  512,243;  147,770; 2710,446;14,22237
 218,93;  610,358;  176,163; 3006,310;15,34178
 219,53;  642,695;  183,770; 3305,411;14,70142
 220,13;  664,089;  156,541; 3596,351;14,75511
 220,73;  749,907;  191,836; 3941,482;14,88331
 221,32;  839,100;  182,912; 4363,260;15,69697
 221,92;  920,023;  190,848; 4775,100;15,90607
 222,52;  974,124;  174,227; 5205,811;15,89752
 223,12; 1050,789;  171,612; 5659,397;16,02060
 223,72; 1121,702;  195,843; 6067,054;15,76947
 224,32; 1198,785;  201,998; 6450,584;15,95221
 224,92; 1247,367;  183,767; 6756,102;16,18298
 225,52; 1338,668;  200,684; 7072,450;16,56029
 226,12; 1395,552;  193,225; 7427,116;16,62075
 226,72; 1423,683;  164,840; 7739,306;16,61956
 227,31; 1465,265;  160,994; 8128,208;16,37048
 227,91; 1575,236;  178,452; 8522,116;16,74066
 228,51; 1629,951;  181,909; 8913,420;16,58410
 229,11; 1722,266;  182,301; 9324,768;16,84409
 229,71; 1772,709;  175,219; 9553,884;17,03324
 230,31; 1831,376;  170,000;10006,581;16,88977
 230,91; 1893,160;  162,060;10330,474;17,02429
 231,51; 1979,750;  162,304;10694,483;17,25613
 232,10; 2038,046;  171,616;11055,467;17,14862
 232,70; 2072,999;  189,671;11322,958;16,91619
 233,30; 2162,215;  200,534;11530,911;17,31347
 233,90; 2165,412;  179,764;11686,583;17,25627
 234,50; 2198,349;  181,534;11918,588;17,18331
 235,10; 2211,136;  166,536;11994,333;17,28640
 235,70; 2233,383;  187,221;12088,487;17,19280
 236,29; 2185,640;  187,988;12111,897;16,75333
 236,89; 2175,337;  166,599;12029,823;16,93248
 237,49; 2186,843;  197,687;11971,528;16,89471
 238,09; 2136,219;  176,993;11716,511;16,97841
 238,69; 2133,417;  218,442;11547,115;16,90379
 239,29; 2045,881;  172,223;11220,918;16,95818
 239,89; 1970,063;  193,907;10971,228;16,48050
 240,48; 1896,724;  176,531;10591,259;16,51692
 241,08; 1796,798;  175,145;10224,619;16,13669
 241,68; 1776,910;  196,993; 9925,720;16,23971
 242,28; 1658,952;  168,918; 9604,373;15,79186
 242,88; 1641,871;  214,538; 9311,832;15,68964
 243,48; 1591,852;  207,533; 8999,871;15,74461
 244,07; 1504,049;  190,298; 8722,403;15,39773
 244,67; 1456,471;  200,070; 8626,684;14,90991
 245,27; 1411,928;  198,602; 8464,284;14,67908
 245,87; 1391,687;  202,768; 8392,547;14,51710
 246,47; 1356,039;  190,295; 8414,382;14,17475
 247,06; 1313,018;  179,146; 8363,177;13,85469
 247,66; 1345,917;  176,685; 8450,657;14,13145
 248,26; 1361,822;  217,295; 8599,618;13,65405
 248,86; 1356,789;  200,757; 8748,312;13,52472
 249,46; 1355,067;  157,457; 8985,134;13,56654
 250,05; 1402,050;  203,377; 9328,022;13,13665
 250,65; 1444,821;  168,832; 9752,153;13,31468
 251,25; 1504,910;  174,760;10184,430;13,28865
 251,85; 1564,704;  191,137;10734,774;13,02745
 252,44; 1636,220;  155,835;11399,855;13,16598
 253,04; 1773,677;  197,451;12181,097;13,15314
 253,64; 1842,311;  155,678;12806,281;13,33244
 254,24; 2034,674;  195,146;13819,981;13,50129
 254,84; 2159,452;  170,996;14760,980;13,62891
 255,43; 2317,757;  175,527;15673,602;13,82255
 256,03; 2491,514;  178,063;16632,867;14,05943
 256,63; 2676,610;  183,214;17740,187;14,20174
 257,23; 2799,609;  177,907;18504,473;14,30547
 257,82; 3022,968;  190,672;19507,424;14,66238
 258,42; 3115,183;  145,747;20302,163;14,73196
 259,02; 3384,284;  190,682;21198,699;15,20183
 259,62; 3499,521;  173,669;21930,235;15,28666
 260,21; 3681,929;  179,989;22397,750;15,76190
 260,81; 3774,109;  187,994;22933,955;15,76594
 261,41; 3927,895;  162,594;23400,776;16,20308
 262,01; 4071,828;  205,975;23824,308;16,36802
 262,60; 4152,686;  158,984;24167,088;16,63481
 263,20; 4295,074;  164,756;24460,117;17,00044
 263,80; 4390,359;  201,359;24601,526;17,16791
 264,40; 4450,474;  163,976;24723,670;17,45339
 264,99; 4561,156;  187,974;24932,785;17,67313
 265,59; 4639,822;  179,353;25036,733;17,94424
 266,19; 4700,734;  165,821;25188,490;18,12322
 266,78; 4822,355;  212,895;25312,266;18,36484
 267,38; 4838,483;  186,739;25277,200;18,53989
 267,98; 4888,029;  172,049;25385,041;18,70456
 268,58; 4941,065;  188,354;25331,948;18,90227
 269,17; 4996,486;  171,427;25344,257;19,16772
 269,77; 4978,343;  191,520;25145,525;19,18258
 270,37; 4978,302;  163,205;25022,926;19,36907
 270,96; 5070,182;  215,441;24936,068;19,63842
 271,56; 5014,500;  174,753;24681,858;19,74834
 272,16; 5003,170;  178,979;24415,776;19,90441
 272,75; 5026,784;  177,210;24341,755;20,06896
 273,35; 5039,787;  187,057;24250,780;20,16616
 273,95; 5089,082;  186,287;24241,027;20,38183
 274,54; 5093,273;  175,300;24275,778;20,40612
 275,14; 5182,520;  200,519;24642,891;20,38264
 275,74; 5247,067;  153,825;24701,154;20,74866
 276,33; 5370,369;  213,136;25015,994;20,79290
 276,93; 5451,703;  195,455;25489,552;20,78054
 277,53; 5580,092;  185,065;26006,631;20,89349
 278,12; 5717,050;  172,215;26618,996;20,96601
 278,72; 5894,719;  216,219;27075,304;21,14182
 279,32; 6020,499;  186,064;27665,976;21,23163
 279,91; 6260,530;  164,832;28374,510;21,60853
 280,51; 6415,364;  172,373;28907,973;21,72563
 281,11; 6646,573;  183,525;29638,489;21,94214
 281,70; 6760,764;  165,370;30074,476;22,05146
 282,30; 6983,577;  181,214;30776,550;22,23333
 282,90; 7124,141;  178,752;31071,250;22,48245
 283,49; 7337,854;  191,519;31703,206;22,67836
 284,09; 7551,364;  213,908;32174,372;22,95791
 284,69; 7678,150;  201,602;32551,480;23,11152
 285,28; 7899,296;  201,523;32877,715;23,55774
 285,88; 8033,273;  235,209;33144,707;23,69548
 286,47; 8125,074;  184,368;33220,054;24,03675
 287,07; 8328,585;  209,679;33248,088;24,57414
 287,67; 8478,929;  204,456;33355,794;24,95970
 288,26; 8583,099;  172,448;33241,410;25,43367
 288,86; 8816,338;  179,754;33428,826;25,97541
 289,46; 8951,588;  192,063;33471,747;26,32094
 290,05; 9224,304;  174,837;33601,850;27,07232
 290,65; 9497,880;  180,521;33802,888;27,71179
 291,24; 9770,591;  188,988;33879,003;28,44048
 291,84; 9984,380;  206,368;34112,571;28,83842
 292,44;10257,431;  191,072;34235,115;29,56864
 293,03;10518,805;  241,449;34378,031;30,10657
 293,63;10672,569;  179,598;34411,921;30,65223
 294,22;10880,282;  205,832;34641,153;30,99855
 294,82;11081,669;  186,438;34577,243;31,68065
 295,41;11042,918;  169,832;34333,169;31,82677
 296,01;11162,387;  219,286;34338,309;32,07331
 296,61;11182,199;  198,218;34063,374;32,43446
 297,20;11101,376;  189,978;33632,022;32,62778
 297,80;11071,256;  203,223;33573,652;32,56786
 298,39;11032,166;  174,983;33088,159;32,98734
 298,99;11001,524;  220,749;32950,935;32,93832
 299,58;10894,249;  203,609;32750,873;32,84651
 300,18;10872,072;  204,683;32613,290;32,91529
 300,78;10754,406;  186,527;32260,315;32,94865
 301,37;10720,998;  187,512;32215,892;32,88798
 301,97;10660,862;  196,140;32287,880;32,60877
 302,56;10584,426;  183,983;32152,209;32,53369
 303,16;10498,825;  173,212;32088,694;32,35299
 303,75;10459,453;  183,605;32134,495;32,16138
 304,35;10572,935;  179,766;32333,153;32,32371
 304,94;10479,519;  186,064;32333,222;32,01980
 305,54;10416,254;  204,604;32260,260;31,85600
 306,13;10361,779;  168,074;32186,516;31,83698
 306,73;10188,380;  162,995;32020,506;31,46945
 307,33;10208,222;  202,378;31912,690;31,55391
 307,92;10063,839;  194,757;32025,129;31,00523
 308,52;10111,057;  158,596;32481,024;30,79119
 309,11;10229,689;  179,977;32994,471;30,62583
 309,71;10270,691;  160,590;33237,434;30,56549
 310,30;10234,071;  174,218;33455,381;30,22687
 310,90;10367,840;  210,295;33790,920;30,24823
 311,49;10326,654;  182,833;33948,536;30,04179
 312,09;10253,952;  159,914;34164,542;29,68430
 312,68;10381,783;  230,450;34592,532;29,54225
 313,28;10293,069;  166,988;34646,206;29,36865
 313,87;10231,782;  156,910;34788,836;29,09128
 314,47;10232,085;  172,902;35029,917;28,85842
 315,06;10099,846;  163,065;35299,219;28,28079
 315,66;10092,028;  164,914;35459,619;28,12636
 316,25; 9965,395;  156,982;35359,386;27,86291
 316,85; 9871,805;  158,914;35417,171;27,54785
 317,44; 9814,858;  178,747;35551,114;27,24192
 318,04; 9704,790;  157,214;35579,271;26,95376
 318,63; 9601,243;  155,072;35726,555;26,55546
 319,22; 9596,718;  181,905;35905,413;26,35467
 319,82; 9491,426;  167,754;35877,499;26,10960
 320,41; 9396,101;  187,829;35789,622;25,86463
 321,01; 9230,006;  194,144;35985,116;25,24620
 321,60; 9148,390;  183,216;36034,226;25,00676
 322,20; 9027,803;  171,834;36012,471;24,70930
 322,79; 8980,094;  204,065;36081,114;24,46140
 323,39; 8863,280;  165,535;36264,448;24,09420
 323,98; 8716,792;  162,373;36174,645;23,75418
 324,58; 8563,997;  169,212;36082,534;23,37513
 325,17; 8483,069;  180,674;35980,084;23,19143
 325,76; 8355,219;  196,525;35776,620;22,93050
 326,36; 8139,109;  163,298;35371,970;22,65297
 326,95; 8012,235;  198,754;35069,435;22,40702
 327,55; 7831,247;  161,138;34641,898;22,24461
 328,14; 7609,476;  174,762;34387,672;21,73073
 328,74; 7479,281;  192,213;33867,091;21,63948
 329,33; 7286,084;  190,298;33500,292;21,30227
 329,92; 7096,346;  162,978;33018,813;21,10239
 330,52; 6915,722;  185,147;32312,238;20,94984
 331,11; 6657,792;  168,446;31877,121;20,46552
 331,71; 6497,530;  182,371;31285,125;20,30418
 332,30; 6335,903;  205,371;30798,837;20,03870
 332,89; 6175,283;  233,836;30230,908;19,80676
 333,49; 5960,713;  194,370;29681,099;19,55572
 334,08; 5781,922;  181,061;29290,311;19,24083
 334,68; 5634,896;  180,908;28844,380;19,02766
 335,27; 5517,820;  199,148;28509,180;18,78724
 335,86; 5428,792;  240,446;28279,505;18,50399
 336,46; 5290,554;  197,917;27999,599;18,31773
 337,05; 5207,296;  182,908;27786,484;18,20195
 337,65; 5081,990;  165,677;27644,737;17,89113
 338,24; 5070,357;  223,681;27624,652;17,68797
 338,83; 4977,612;  197,758;27574,945;17,45926
 339,43; 4892,668;  171,674;27464,343;17,29766
 340,02; 4843,243;  179,828;27356,946;17,15935
 340,61; 4805,675;  174,680;27473,017;16,96439
 341,21; 4793,820;  205,367;27452,091;16,84038
 341,80; 4692,196;  178,753;27378,828;16,59349
 342,40; 4686,670;  184,455;27491,454;16,48740
 342,99; 4659,975;  182,451;27617,523;16,32044
 343,58; 4621,469;  183,298;27786,907;16,07823
 344,18; 4614,458;  195,298;27881,312;15,96170
 344,77; 4614,962;  176,058;28227,568;15,82412
 345,36; 4647,311;  168,447;28489,512;15,81461
 345,96; 4659,041;  195,298;28794,851;15,60774
 346,55; 4652,629;  166,843;29047,867;15,53195
 347,14; 4694,105;  165,455;29447,062;15,46585
 347,74; 4744,041;  151,771;29812,017;15,48291
 348,33; 4831,840;  171,462;30503,914;15,36433
 348,92; 4901,242;  191,928;31151,410;15,21122
 349,52; 4956,609;  155,541;31617,050;15,26013
 350,11; 4971,126;  183,519;31846,779;15,12039
 350,70; 4967,932;  180,680;31873,408;15,10521
 351,29; 4908,859;  155,818;31621,476;15,10549
 351,89; 4887,749;  185,362;31699,576;14,92148
 352,48; 4861,112;  158,680;31723,262;14,89781
 353,07; 4872,075;  175,148;31659,396;14,91834
 353,67; 4831,094;  186,851;31579,556;14,79402
 354,26; 4822,276;  189,455;31300,726;14,89113
 354,85; 4762,318;  179,607;31184,856;14,78044
 355,45; 4717,481;  158,753;31068,172;14,74867
 356,04; 4691,526;  171,610;30902,801;14,70791
 356,63; 4713,738;  197,062;30688,623;14,81287
 357,22; 4640,867;  185,820;30543,010;14,67542
 357,82; 4646,952;  191,976;30352,412;14,77093
 358,41; 4626,545;  202,294;30250,845;14,72367
 359,00; 4609,838;  168,982;29995,238;14,88908
 359,60; 4615,186;  188,065;30018,757;14,84083
 360,19; 4579,121;  182,611;29786,862;14,85094
 360,78; 4579,802;  194,523;29616,870;14,90459
 361,37; 4555,793;  178,985;29418,142;14,96900
 361,97; 4544,496;  196,986;29340,258;14,91771
 362,56; 4511,580;  175,365;29036,458;15,02443
 363,15; 4558,496;  220,907;28797,122;15,17902
 363,74; 4444,709;  188,056;28358,776;15,11020
 364,34; 4476,754;  197,905;28033,378;15,37193
 364,93; 4399,788;  172,211;27588,802;15,41978
 365,52; 4349,792;  153,908;27112,428;15,56422
 366,11; 4339,548;  173,982;26848,518;15,61626
 366,71; 4272,795;  170,598;26452,336;15,60855
 367,30; 4274,585;  172,370;26109,029;15,81628
 367,89; 4295,618;  227,607;25897,457;15,84743
 368,48; 4229,921;  186,594;25524,475;15,95763
 369,07; 4175,855;  179,603;25048,562;16,06924
 369,67; 4199,687;  197,980;24801,124;16,26502
 370,26; 4169,837;  178,219;24544,953;16,38142
 370,85; 4158,467;  183,216;24214,610;16,54191
 371,44; 4146,394;  179,601;23966,503;16,67638
 372,03; 4133,002;  168,751;23732,350;16,82362
 372,63; 4079,396;  156,293;23380,987;16,89195
 373,22; 4082,054;  176,834;23073,486;17,05586
 373,81; 4030,604;  157,139;22784,407;17,11857
 374,40; 4054,570;  177,916;22525,182;17,34733
 374,99; 4054,258;  172,445;22297,340;17,54500
 375,59; 4034,273;  164,453;22014,855;17,71052
 376,18; 4063,333;  194,753;21910,702;17,81446
 376,77; 4058,136;  189,140;21655,398;18,02362
 377,36; 4079,262;  198,292;21627,694;18,11049
 377,95; 4065,008;  193,213;21311,650;18,33372
 378,55; 4041,698;  166,683;21149,809;18,46729
 379,14; 4089,784;  196,908;21141,953;18,58614
 379,73; 4106,989;  184,137;20977,656;18,86574
 380,32; 4155,436;  192,832;20964,307;19,07714
 380,91; 4154,799;  164,133;20836,090;19,30473
 381,50; 4182,033;  190,981;20822,730;19,34422
 382,10; 4168,590;  169,601;20675,846;19,50132
 382,69; 4202,118;  156,908;20648,499;19,74083
 383,28; 4274,414;  201,674;20597,764;19,96824
 383,87; 4267,534;  171,981;20438,512;20,20845
 384,46; 4267,335;  168,284;20395,775;20,26476
 385,05; 4367,323;  201,058;20345,605;20,68185
 385,64; 4378,086;  173,290;20372,133;20,81702
 386,24; 4385,585;  160,207;20337,384;20,94137
 386,83; 4465,417;  204,283;20341,147;21,16086
 387,42; 4543,452;  197,982;20443,755;21,46359
 388,01; 4591,874;  187,663;20722,576;21,44743
 388,60; 4718,349;  185,669;20944,242;21,83522
 389,19; 4826,012;  171,195;21150,735;22,18741
 389,78; 4914,929;  177,043;21370,802;22,35510
 390,37; 5064,904;  234,666;21847,997;22,34842
 390,96; 5087,928;  180,052;22023,426;22,46849
 391,56; 5193,919;  184,039;22139,320;22,81856
 392,15; 5309,864;  169,582;22411,555;23,11073
 392,74; 5390,118;  150,800;22583,063;23,35617
 393,33; 5513,256;  174,192;22846,524;23,54881
 393,92; 5644,683;  192,027;23328,953;23,56690
 394,51; 5731,291;  174,577;23483,413;23,83952
 395,10; 5859,583;  210,938;23741,130;24,00595
 395,69; 5926,054;  191,709;23890,302;24,19698
 396,28; 5977,074;  189,164;24005,657;24,30211
 396,87; 6060,721;  197,000;24049,721;24,58303
 397,46; 6197,847;  196,915;24168,127;25,03391
 398,06; 6289,888;  211,983;24401,439;25,12626
 398,65; 6310,059;  191,424;24435,851;25,23729
 399,24; 6413,462;  197,112;24662,782;25,40846
 399,83; 6451,716;  175,619;24707,790;25,58313
 400,42; 6526,766;  214,283;24793,714;25,68198
 401,01; 6648,204;  189,019;24914,542;26,12355
 401,60; 6685,299;  199,975;24900,798;26,25550
 402,19; 6715,491;  220,863;24849,078;26,37068
 402,78; 6789,760;  222,501;24901,088;26,61116
 403,37; 6764,657;  204,834;24741,548;26,73473
 403,96; 6780,594;  203,697;24609,990;26,94754
 404,55; 6823,647;  211,322;24417,879;27,31626
 405,14; 6806,681;  194,415;24293,260;27,43810
 405,73; 6847,531;  207,883;24275,116;27,58792
 406,32; 6897,892;  205,219;24131,352;27,97223
 406,91; 6834,065;  198,856;23904,980;27,98943
 407,50; 6816,004;  207,674;23733,268;28,08996
 408,09; 6767,488;  183,730;23420,189;28,33374
 408,68; 6820,500;  192,793;23255,197;28,73815
 409,27; 6787,691;  185,273;23146,454;28,75470
 409,86; 6838,771;  197,701;22960,388;29,17525
 410,45; 6864,505;  238,122;22919,365;29,21526
 411,04; 6859,996;  238,082;22843,339;29,29369
 411,63; 6810,068;  211,592;22600,535;29,47203
 412,22; 6811,153;  218,021;22288,056;29,87368
 412,81; 6749,366;  223,652;22056,752;29,88909
 413,40; 6689,336;  235,979;21728,740;30,02572
 413,99; 6670,535;  260,589;21397,851;30,32534
 414,58; 6521,132;  202,285;21003,304;30,37759
 415,17; 6501,434;  218,036;20759,640;30,58864
 415,76; 6465,015;  210,789;20711,639;30,50715
 416,35; 6452,591;  191,259;20454,580;30,89983
 416,94; 6502,758;  230,023;20514,156;30,92434
 417,53; 6578,376;  201,576;20800,791;30,95652
 418,12; 6611,974;  201,580;20827,937;31,07865
 418,71; 6803,265;  220,980;21186,040;31,39645
 419,30; 6861,095;  211,736;21228,228;31,63877
 419,89; 6907,797;  194,893;21434,172;31,60608
 420,48; 7104,504;  237,442;21733,900;31,94509
 421,07; 7130,540;  215,368;21822,005;32,00485
 421,66; 7161,336;  188,454;21846,735;32,19499
 422,25; 7171,712;  208,395;21852,910;32,17128
 422,84; 7229,234;  225,783;21737,539;32,55639
 423,43; 7133,687;  215,391;21508,323;32,49104
 424,02; 7086,415;  233,317;21253,813;32,60198
 424,60; 6995,714;  215,646;20826,513;32,89560
 425,19; 6914,122;  213,481;20615,233;32,84346
 425,78; 6909,134;  234,251;20400,833;33,09873
 426,37; 6911,296;  238,797;20253,664;33,33771
 426,96; 6877,749;  222,105;20170,398;33,36448
 427,55; 6847,380;  211,732;20039,514;33,46641
 428,14; 6772,408;  203,353;19811,972;33,50085
 428,73; 6715,452;  204,266;19667,866;33,45314
 429,32; 6778,729;  222,719;19620,862;33,79710
 429,91; 6856,765;  242,190;19615,704;34,14236
 430,50; 6793,396;  231,888;19457,006;34,12987
 431,08; 6739,916;  221,587;19289,596;34,18464
 431,67; 6773,669;  259,438;19255,284;34,29292
 432,26; 6751,576;  261,905;19013,763;34,60815
 432,85; 6639,712;  275,980;18644,633;34,64452
 433,44; 6561,463;  279,142;18309,281;34,84344
 434,03; 6402,089;  303,076;17873,504;34,71181
 434,62; 6272,255;  254,220;17499,553;34,89660
 435,21; 6199,272;  270,981;17245,806;34,92402
 435,79; 6184,629;  249,226;17166,079;35,08574
 436,38; 6185,906;  252,083;16985,729;35,46043
 436,97; 6131,762;  247,930;16873,153;35,39100
 437,56; 6082,657;  255,023;16748,946;35,33201
 438,15; 6045,624;  235,558;16658,115;35,37857
 438,74; 6060,455;  265,790;16633,993;35,40196
 439,33; 6072,020;  241,711;16658,018;35,51535
 439,91; 6094,167;  221,026;16713,130;35,61184
 440,50; 6164,010;  271,565;16805,548;35,63839
 441,09; 6191,611;  262,189;16895,628;35,64760
 441,68; 6168,902;  241,660;16963,225;35,44670
 442,27; 6178,954;  233,887;16851,869;35,77490
 442,86; 6226,848;  203,599;16819,088;36,25081
 443,44; 6213,618;  227,595;16931,893;35,83522
 444,03; 6288,324;  271,446;16995,269;35,97789
 444,62; 6206,692;  226,600;16879,912;35,90933
 445,21; 6151,293;  245,366;16666,519;35,96536
 445,80; 6167,799;  265,147;16604,455;36,12548
 446,39; 6117,851;  268,760;16364,850;36,33858
 446,97; 5975,257;  227,772;16116,035;36,17440
 447,56; 5890,113;  218,705;15890,562;36,18849
 448,15; 5830,172;  228,618;15759,022;36,06831
 448,74; 5775,047;  257,389;15456,208;36,30320
 449,33; 5749,249;  235,088;15347,125;36,48853
 449,91; 5633,688;  238,175;15103,327;36,29638
 450,50; 5558,390;  230,558;14860,535;36,41723
 451,09; 5507,085;  234,097;14801,560;36,19702
 451,68; 5527,851;  259,410;14724,733;36,42118
 452,26; 5445,445;  251,953;14609,451;36,17269
 452,85; 5433,475;  230,104;14421,058;36,66682
 453,44; 5419,001;  243,810;14491,666;36,32259
 454,03; 5413,962;  217,417;14426,473;36,57206
 454,61; 5425,193;  230,811;14415,041;36,62082
 455,20; 5483,513;  245,893;14580,549;36,53817
 455,79; 5479,005;  254,961;14556,496;36,52785
 456,38; 5509,855;  252,439;14684,904;36,42770
 456,97; 5526,934;  237,283;14765,098;36,41050
 457,55; 5489,718;  240,597;14742,400;36,19634
 458,14; 5510,293;  249,512;14730,724;36,32832
 458,73; 5486,680;  247,136;14630,007;36,42905
 459,31; 5556,641;  265,453;14709,332;36,63273
 459,90; 5552,952;  278,294;14787,950;36,35275
 460,49; 5611,050;  316,676;14902,291;36,29860
 461,08; 5601,604;  239,457;14907,869;36,55574
 461,66; 5666,087;  248,298;15049,536;36,60362
 462,25; 5655,398;  251,999;15121,148;36,33967
 462,84; 5727,181;  277,304;15109,398;36,74381
 463,43; 5632,902;  215,394;15085,289;36,43273
 464,01; 5638,738;  248,782;15117,756;36,24968
 464,60; 5697,208;  291,775;15077,974;36,55728
 465,19; 5543,419;  228,247;14843,912;36,36627
 465,77; 5546,321;  248,251;14804,322;36,39766
 466,36; 5527,996;  262,163;14688,107;36,50252
 466,95; 5385,623;  245,856;14414,014;36,27689
 467,53; 5325,476;  250,795;14096,619;36,65135
 468,12; 5222,496;  284,642;13785,386;36,57468
 468,71; 5128,491;  249,478;13594,462;36,56065
 469,29; 5025,388;  227,721;13304,237;36,68919
 469,88; 4946,166;  237,801;13053,236;36,73979
 470,47; 4991,608;  300,502;13186,269;36,40533
 471,06; 4964,948;  263,195;13153,729;36,47447
 471,64; 4967,275;  248,577;13220,818;36,37535
 472,23; 4940,442;  221,439;13272,338;36,15845
 472,81; 4990,690;  220,431;13340,822;36,35759
 473,40; 5065,885;  234,747;13485,729;36,45871
 473,99; 5127,842;  335,209;13697,135;35,86783
 474,57; 5125,622;  245,516;13793,499;36,02090
 475,16; 5209,939;  253,433;13941,336;36,21085
 475,75; 5219,714;  273,676;14125,956;35,70559
 476,33; 5285,035;  271,682;14198,006;35,99912
 476,92; 5294,032;  275,979;14259,027;35,88669
 477,51; 5303,433;  265,064;14328,410;35,82625
 478,09; 5278,270;  257,910;14312,913;35,71938
 478,68; 5238,643;  273,913;14221,761;35,59496
 479,27; 5285,499;  287,599;14305,290;35,65423
 479,85; 5255,397;  257,605;14283,426;35,63280
 480,44; 5325,563;  254,839;14418,392;35,80121
 481,02; 5799,897;  255,537;15815,136;35,63305
 481,61; 6496,173;  283,919;17873,001;35,31881
 482,20; 6909,443;  255,691;19099,150;35,31067
 482,78; 7257,363;  299,453;19992,311;35,33215
 483,37; 7429,507;  278,699;20533,405;35,30442
 483,95; 7517,294;  304,393;20791,766;35,20657
 484,54; 7582,673;  317,687;21021,241;35,09053
 485,13; 7505,040;  274,631;20883,675;35,08367
 485,71; 7437,051;  255,552;20621,442;35,26239
 486,30; 7367,811;  284,013;20314,022;35,36593
 486,88; 7256,298;  322,246;19987,396;35,26061
 487,47; 6940,709;  301,556;19228,616;35,07757
 488,05; 6670,199;  276,713;18322,323;35,42959
 488,64; 6170,554;  297,104;17030,624;35,09991
 489,23; 5484,695;  304,637;15145,886;34,90311
 489,81; 4709,601;  299,947;12970,050;34,80362
 490,40; 4400,945;  248,179;12323,096;34,39167
 490,98; 4323,206;  239,182;12008,747;34,69987
 491,57; 4303,760;  273,023;11980,192;34,42965
 492,15; 4249,295;  253,952;11882,885;34,35692
 492,74; 4201,683;  260,944;11757,133;34,27866
 493,32; 4163,431;  277,412;11662,063;34,13384
 493,91; 4114,203;  263,340;11601,767;33,96294
 494,50; 4116,887;  262,198;11572,590;34,08095
 495,08; 4062,111;  241,813;11485,521;33,97721
 495,67; 4067,781;  272,570;11503,391;33,79281
 496,25; 4001,460;  224,038;11384,741;33,84574
 496,84; 3981,868;  231,646;11343,679;33,74920
 497,42; 3959,271;  221,502;11293,373;33,75914
 498,01; 3974,648;  249,648;11233,564;33,91322
 498,59; 3888,693;  227,811;11193,057;33,38624
 499,18; 3901,354;  225,572;11124,262;33,72683
 499,76; 3905,622;  260,115;11101,294;33,62648
 500,35; 3800,891;  245,432;10862,542;33,48801
 500,93; 3775,546;  241,963;10813,297;33,42608
 501,52; 3745,532;  238,734;10757,351;33,33897
 502,10; 3726,314;  261,129;10747,595;33,04435
 502,69; 3678,544;  242,363;10559,944;33,30413
 503,27; 3582,380;  227,429;10349,820;33,14386
 503,86; 3595,432;  233,977;10292,458;33,41911
 504,44; 3555,286;  224,981;10143,073;33,57809
 505,03; 3478,303;  207,673; 9910,660;33,70746
 505,61; 3423,687;  228,441; 9867,810;33,14787
 506,19; 3377,305;  250,134; 9720,605;33,02022
 506,78; 3295,232;  215,912; 9514,755;33,11508
 507,36; 3236,340;  224,980; 9341,724;33,03109
 507,95; 3174,668;  231,532; 9195,965;32,83126
 508,53; 3145,592;  226,066; 9043,616;33,11040
 509,12; 3079,648;  230,530; 8892,813;32,89107
 509,70; 3039,955;  257,455; 8769,488;32,68902
 510,29; 2991,099;  247,459; 8619,416;32,77178
 510,87; 2904,020;  229,989; 8412,749;32,67884
 511,46; 2826,627;  219,298; 8211,179;32,62472
 512,04; 2792,197;  224,918; 8099,680;32,60134
 512,62; 2727,233;  237,914; 7993,451;32,09731
 513,21; 2646,593;  213,229; 7789,415;32,11858
 513,79; 2618,705;  220,165; 7669,221;32,19924
 514,38; 2542,734;  209,315; 7499,517;32,00760
 514,96; 2541,011;  244,391; 7433,540;31,94564
 515,54; 2456,058;  212,778; 7283,317;31,72714
 516,13; 2446,908;  226,779; 7157,826;32,03166
 516,71; 2404,499;  215,862; 7056,039;31,99680
 517,30; 2348,495;  208,251; 6931,959;31,83130
 517,88; 2303,574;  234,174; 6882,673;31,12582
 518,46; 2278,358;  213,022; 6747,913;31,60474
 519,05; 2244,947;  225,718; 6659,507;31,38476
 519,63; 2211,888;  224,178; 6659,420;30,88788
 520,22; 2224,655;  243,724; 6564,271;31,34113
 520,80; 2192,592;  227,494; 6466,969;31,49460
 521,38; 2195,252;  257,027; 6436,694;31,36455
 521,97; 2132,874;  218,883; 6429,178;30,81965
 522,55; 2167,900;  235,575; 6443,647;31,12601
 523,13; 2145,152;  216,732; 6398,186;31,19686
 523,72; 2115,359;  224,330; 6381,243;30,71392
 524,30; 2180,162;  239,351; 6545,207;30,77791
 524,89; 2152,580;  207,114; 6567,260;30,58838
 525,47; 2201,317;  238,660; 6665,749;30,53725
 526,05; 2197,184;  213,276; 6727,615;30,45448
 526,64; 2250,626;  229,356; 6855,141;30,50613
 527,22; 2277,155;  232,121; 6943,659;30,47042
 527,80; 2348,808;  269,432; 7065,555;30,59651
 528,39; 2327,786;  226,435; 7190,884;30,17253
 528,97; 2386,092;  226,510; 7359,112;30,27762
 529,55; 2450,109;  234,655; 7559,822;30,24441
 530,14; 2483,298;  257,130; 7734,782;29,77095
 530,72; 2495,006;  221,972; 7856,769;29,77203
 531,30; 2509,311;  217,746; 7992,942;29,47277
 531,89; 2565,047;  229,746; 8072,921;29,77494
 532,47; 2628,738;  256,594; 8217,595;29,79706
 533,05; 2630,510;  264,355; 8219,821;29,74250
 533,63; 2637,734;  252,056; 8273,838;29,73999
 534,22; 2625,707;  224,980; 8342,061;29,57624
 534,80; 2656,768;  241,755; 8435,057;29,47545
 535,38; 2733,837;  314,977; 8489,709;29,58947
 535,97; 2607,763;  234,133; 8436,888;28,93699
 536,55; 2657,183;  271,140; 8468,496;29,10747
 537,13; 2648,108;  265,745; 8446,124;29,12289
 537,71; 2652,249;  285,283; 8475,119;28,90126
 538,30; 2666,570;  305,674; 8570,323;28,56620
 538,88; 2673,745;  318,837; 8599,984;28,43698
 539,46; 2756,486;  344,062; 8806,603;28,50709
 540,05; 2774,471;  345,912; 8897,023;28,40052
 540,63; 2846,897;  386,296; 9111,519;28,20101
 541,21; 2873,583;  393,223; 9243,260;28,02655
 541,79; 2913,318;  411,761; 9345,393;28,00157
 542,38; 2949,612;  420,142; 9496,556;27,86861
 542,96; 3005,263;  444,997; 9640,398;27,84290
 543,54; 3058,355;  449,299; 9854,765;27,73979
 544,12; 3058,219;  405,685; 9999,510;27,64835
 544,70; 3057,851;  405,382;10057,138;27,48172
 545,29; 3135,388;  420,603;10257,492;27,59801
 545,87; 3148,010;  410,915;10329,470;27,59571
 546,45; 3116,690;  392,603;10323,885;27,42936
 547,03; 3132,386;  383,760;10485,760;27,20874
 547,62; 3156,973;  363,839;10602,636;27,27991
 548,20; 3205,651;  382,919;10766,056;27,18573
 548,78; 3246,702;  344,546;10952,908;27,35725
 549,36; 3291,536;  347,391;11183,078;27,17082
 549,94; 3310,155;  320,764;11287,724;27,25815
 550,53; 3388,434;  322,697;11513,627;27,39483
 551,11; 3362,555;  294,548;11726,288;26,83762
 551,69; 3458,170;  322,468;12059,610;26,71606
 552,27; 3524,291;  275,540;12330,394;26,94973
 552,85; 3602,180;  287,163;12753,477;26,59180
 553,44; 3712,624;  288,544;13036,442;26,85995
 554,02; 3790,034;  310,085;13449,201;26,48542
 554,60; 3814,629;  248,318;13720,860;26,47096
 555,18; 3984,425;  287,852;14092,826;26,77711
 555,76; 4014,436;  277,008;14460,557;26,35044
 556,34; 4148,285;  292,169;14913,550;26,37313
 556,93; 4242,210;  277,853;15329,007;26,33922
 557,51; 4270,079;  240,707;15647,690;26,15289
 558,09; 4406,544;  284,853;16070,707;26,11003
 558,67; 4475,105;  280,172;16447,067;25,94767
 559,25; 4568,226;  288,786;16734,988;26,02084
 559,83; 4602,999;  273,791;17033,614;25,83087
 560,41; 4653,061;  265,398;17391,253;25,62011
 561,00; 4789,447;  280,634;17766,934;25,78483
 561,58; 4794,353;  274,782;18011,072;25,48205
 562,16; 4840,068;  268,625;18341,204;25,29491
 562,74; 4905,777;  237,393;18731,886;25,24203
 563,32; 4975,162;  245,867;19154,726;25,01100
 563,90; 5099,738;  267,019;19544,270;25,06954
 564,48; 5178,836;  267,550;20046,724;24,83059
 565,06; 5333,664;  267,326;20579,929;24,94185
 565,65; 5465,128;  272,181;21263,904;24,73807
 566,23; 5701,652;  311,788;22040,081;24,80574
 566,81; 5823,697;  279,324;22783,792;24,63676
 567,39; 6045,018;  277,023;23701,381;24,62392
 567,97; 6157,504;  289,940;24310,168;24,42759
 568,55; 6397,642;  293,252;25197,412;24,51153
 569,13; 6507,061;  270,634;25881,528;24,35068
 569,71; 6725,538;  280,933;26851,239;24,25492
 570,29; 6969,972;  308,160;27888,993;24,15377
 570,87; 7111,928;  303,624;28621,612;24,04233
 571,45; 7317,432;  296,018;29325,907;24,18684
 572,03; 7318,064;  249,486;29702,693;23,99935
 572,61; 7452,634;  242,944;30408,629;23,90030
 573,20; 7594,291;  281,092;31069,696;23,75294
 573,78; 7720,332;  260,329;31782,006;23,66626
 574,36; 7754,322;  279,328;32300,505;23,34391
 574,94; 7878,879;  317,256;32642,774;23,39212
 575,52; 7859,248;  265,725;32846,235;23,30695
 576,10; 7982,800;  308,953;33440,563;23,16171
 576,68; 8063,859;  288,870;33975,623;23,08026
 577,26; 8205,995;  309,574;34699,026;22,96175
 577,84; 8252,619;  315,943;35186,679;22,76028
 578,42; 8366,246;  350,873;35502,631;22,80220
 579,00; 8348,426;  290,252;35667,901;22,77759
 579,58; 8352,733;  329,718;35955,711;22,52012
 580,16; 8333,626;  305,028;35934,796;22,53340
 580,74; 8314,863;  303,875;36128,711;22,36155
 581,32; 8321,490;  300,872;36230,094;22,32338
 581,90; 8267,695;  327,182;36174,629;22,15085
 582,48; 8267,566;  327,798;36293,768;22,07578
 583,06; 8276,082;  317,718;36487,822;22,00260
 583,64; 8262,691;  308,871;36568,753;21,93559
 584,22; 8187,763;  320,649;36441,638;21,77990
 584,80; 8069,963;  320,258;36211,539;21,59217
 585,38; 7954,748;  324,553;35778,495;21,52143
 585,96; 7908,268;  299,253;35838,913;21,40992
 586,54; 7874,299;  319,802;35884,305;21,24168
 587,12; 7867,276;  300,568;36082,359;21,14681
 587,70; 7895,043;  326,331;36191,135;21,10345
 588,28; 7861,209;  305,568;36305,241;20,98808
 588,86; 7837,527;  315,031;36369,510;20,86425
 589,44; 7814,339;  297,962;36510,054;20,75654
 590,02; 7838,664;  307,114;36686,583;20,70275
 590,59; 7812,368;  285,802;36964,214;20,52043
 591,17; 7809,920;  298,047;37099,676;20,41180
 591,75; 7794,573;  289,503;37335,237;20,25893
 592,33; 7810,523;  309,655;37533,493;20,15071
 592,91; 7825,510;  272,199;37770,302;20,14318
 593,49; 7894,493;  276,587;38115,931;20,13224
 594,07; 7891,640;  285,510;38350,610;19,98190
 594,65; 7872,433;  301,418;38358,213;19,89399
 595,23; 7924,930;  307,960;38870,395;19,75231
 595,81; 7929,170;  283,500;38835,566;19,83206
 596,39; 7909,834;  271,577;38992,460;19,72645
 596,97; 7898,553;  305,198;39202,896;19,52135
 597,55; 7873,287;  285,497;39101,230;19,54824
 598,12; 7843,579;  272,973;39094,948;19,50083
 598,70; 7794,299;  269,431;39324,222;19,26746
 599,28; 7852,734;  292,662;39457,523;19,30320
 599,86; 7816,976;  276,815;39468,964;19,23896
 600,44; 7771,898;  251,740;39539,023;19,14146
 601,02; 7803,021;  308,287;39632,593;19,05878
 601,60; 7685,196;  285,734;39636,789;18,80372
 602,18; 7657,453;  254,434;39624,823;18,80352
 602,75; 7611,164;  259,269;39722,651;18,62966
 603,33; 7610,537;  276,046;39733,774;18,58822
 603,91; 7559,480;  263,669;39629,278;18,53346
 604,49; 7531,997;  287,354;39768,137;18,34979
 605,07; 7496,737;  289,734;39779,503;18,25030
 605,65; 7470,100;  293,279;39876,357;18,13103
 606,23; 7499,535;  322,032;39961,370;18,10702
 606,80; 7436,438;  339,115;40031,476;17,88083
 607,38; 7455,528;  361,129;40020,091;17,88851
 607,96; 7399,738;  396,345;40120,463;17,63008
 608,54; 7421,681;  436,971;40132,952;17,59551
 609,12; 7372,334;  423,730;40212,084;17,46391
 609,70; 7366,225;  447,584;40164,958;17,41968
 610,27; 7327,202;  446,960;40221,891;17,29794
 610,85; 7302,825;  452,660;40361,469;17,16454
 611,43; 7258,282;  453,661;40190,327;17,12429
 612,01; 7168,783;  428,579;39938,834;17,05938
 612,59; 7126,746;  437,122;40005,832;16,90635
 613,16; 7061,489;  400,803;40000,582;16,82001
 613,74; 7010,588;  391,816;39860,382;16,76973
 614,32; 7011,509;  378,203;39818,573;16,81857
 614,90; 6937,525;  368,735;39740,501;16,68401
 615,48; 6853,458;  336,420;39404,202;16,68136
 616,05; 6816,886;  326,033;39490,968;16,57312
 616,63; 6748,315;  335,569;39351,965;16,43603
 617,21; 6674,262;  332,883;39185,457;16,32165
 617,79; 6590,825;  313,578;39065,963;16,19835
 618,36; 6577,780;  330,580;39125,867;16,10299
 618,94; 6445,207;  261,959;38822,725;16,03508
 619,52; 6395,901;  292,032;38375,453;16,02763
 620,10; 6341,342;  285,269;38330,713;15,91800
 620,67; 6254,365;  295,723;38250,497;15,69932
 621,25; 6266,026;  306,350;38026,894;15,79955
 621,83; 6211,609;  298,651;38062,774;15,65761
 622,41; 6226,670;  328,959;38049,670;15,63521
 622,98; 6087,538;  308,800;37788,029;15,41851
 623,56; 6085,995;  314,030;37795,674;15,39944
 624,14; 6001,965;  289,659;37659,464;15,28589
 624,72; 5981,080;  301,805;37544,194;15,24949
 625,29; 5966,661;  282,799;37675,744;15,20036
 625,87; 5969,782;  326,270;37619,830;15,13267
 626,45; 5873,411;  279,259;37344,439;15,09274
 627,02; 5863,540;  287,732;37357,465;15,04140
 627,60; 5775,352;  271,817;37247,702;14,88412
 628,18; 5788,104;  253,730;37361,161;14,91446
 628,76; 5761,698;  261,724;37356,021;14,82701
 629,33; 5751,848;  296,726;37384,113;14,70883
 629,91; 5723,188;  278,346;37340,329;14,69118
 630,49; 5724,725;  296,956;37449,416;14,60945
 631,06; 5760,413;  287,340;37625,831;14,65799
 631,64; 5680,878;  293,568;37572,200;14,45147
 632,22; 5619,507;  254,949;37478,527;14,41172
 632,79; 5696,711;  288,257;37824,059;14,40879
 633,37; 5678,884;  277,349;37826,435;14,38527
 633,95; 5651,754;  270,644;37963,712;14,27613
 634,52; 5654,918;  272,189;38068,796;14,24130
 635,10; 5624,191;  282,499;38029,680;14,15124
 635,68; 5638,370;  274,949;38237,268;14,12827
 636,25; 5562,791;  266,637;38241,039;13,94664
 636,83; 5580,851;  254,878;38432,405;13,95055
 637,41; 5579,401;  251,487;38505,802;13,92762
 637,98; 5587,275;  285,409;38627,908;13,82765
 638,56; 5552,490;  273,867;38771,280;13,71163
 639,13; 5541,309;  265,800;38871,974;13,66494
 639,71; 5577,497;  311,878;39154,614;13,55625
 640,29; 5475,355;  246,955;38826,648;13,55221
 640,86; 5487,146;  252,032;38988,317;13,51475
 641,44; 5474,783;  253,417;38967,062;13,48715
 642,02; 5478,343;  276,341;38914,962;13,46322
 642,59; 5464,903;  253,879;39161,323;13,39338
 643,17; 5416,078;  263,110;39098,531;13,26873
 643,74; 5429,869;  249,111;39141,738;13,32067
 644,32; 5428,121;  286,649;39185,253;13,21763
 644,89; 5399,989;  280,649;39099,692;13,18770
 645,47; 5407,779;  291,111;39116,437;13,17869
 646,05; 5397,032;  286,111;39135,414;13,15576
 646,62; 5332,130;  264,189;39107,852;13,04702
 647,20; 5355,075;  269,497;39209,444;13,06005
 647,77; 5279,788;  249,804;39035,729;12,96858
 648,35; 5277,733;  245,420;39003,398;12,98394
 648,92; 5284,985;  272,651;39009,682;12,93939
 649,50; 5255,238;  234,882;38843,966;13,00304
 650,08; 5204,413;  246,882;38764,251;12,87090
 650,65; 5201,742;  238,036;39112,535;12,76854
 651,23; 5279,840;  220,421;39827,512;12,77402
 651,80; 5389,477;  233,729;40797,488;12,71023
 652,38; 5444,653;  246,499;41191,465;12,69547
 652,95; 5443,982;  227,268;41534,057;12,62919
 653,53; 5471,234;  255,961;41894,187;12,52521
 654,10; 5509,717;  281,576;41945,318;12,54842
 654,68; 5458,662;  241,577;41909,064;12,52076
 655,25; 5447,683;  238,192;41917,579;12,49896
 655,83; 5465,935;  237,423;42057,709;12,50233
 656,40; 5486,572;  264,500;42034,840;12,50187
 656,98; 5404,978;  239,270;41918,278;12,39403
 657,55; 5402,384;  252,347;41811,332;12,39212
 658,13; 5333,098;  241,116;41390,693;12,37432
 658,70; 5295,274;  266,270;41249,977;12,27074
 659,28; 5152,757;  236,501;40241,339;12,28915
 659,85; 5043,855;  255,040;39406,315;12,23157
 660,43; 5072,800;  261,887;39494,676;12,26248
 661,00; 5035,436;  240,502;39551,730;12,19737
 661,58; 5094,150;  237,810;40107,784;12,18044
 662,15; 5114,864;  226,503;40183,453;12,23407
 662,73; 5214,039;  300,272;40518,660;12,21771
 663,30; 5170,522;  244,042;40675,406;12,18480
 663,88; 5167,698;  254,965;40897,306;12,08772
 664,45; 5178,873;  244,734;41079,282;12,08325
 665,03; 5237,587;  242,658;41416,797;12,13123
 665,60; 5339,377;  323,504;41846,697;12,07969
 666,17; 5240,630;  247,658;41960,520;11,96986
 666,75; 5284,959;  249,735;42413,650;11,94202
 667,32; 5363,750;  268,505;42639,396;12,02534
 667,90; 5346,079;  244,582;42979,604;11,93751
 668,47; 5396,254;  273,274;43192,888;11,93622
 669,05; 5390,660;  237,582;43631,019;11,87525
 669,62; 5411,066;  231,583;43641,611;11,93154
 670,19; 5447,396;  232,198;43783,433;11,97486
 670,77; 5450,955;  248,198;43903,025;11,91794
 671,34; 5462,515;  243,353;43823,310;11,97606
 671,92; 5462,998;  231,737;44287,748;11,87411
 672,49; 5480,866;  258,738;44173,340;11,89155
 673,06; 5464,964;  215,507;44343,470;11,89599
 673,64; 5471,447;  232,661;44171,293;11,92296
 674,21; 5465,777;  220,046;44244,347;11,91553
 674,79; 5514,721;  250,508;44513,323;11,89308
 675,36; 5519,050;  260,585;44484,223;11,89062
 675,93; 5468,918;  219,508;44374,123;11,88870
 676,51; 5511,632;  256,816;44710,176;11,82096
 677,08; 5560,038;  241,124;44763,692;11,94656
 677,65; 5545,136;  250,047;44833,976;11,87668
 678,23; 5580,465;  253,509;45032,876;11,89601
 678,80; 5568,795;  240,971;45153,160;11,86276
 679,38; 5628,970;  240,048;45315,367;11,95537
 679,95; 5675,145;  241,510;45585,344;11,98318
 680,52; 5663,090;  246,664;45759,705;11,90082
 681,10; 5752,265;  255,126;46247,374;11,95232
 681,67; 5763,979;  254,664;46474,505;11,91980
 682,24; 5723,231;  234,126;46637,789;11,82903
 682,82; 5860,714;  238,050;47233,381;11,96430
 683,39; 5956,582;  280,973;47459,127;12,03016
 683,96; 5972,757;  245,665;47797,719;12,04384
 684,54; 5973,317;  227,589;48127,234;11,99535
 685,11; 6086,185;  269,666;48378,288;12,09039
 685,68; 6117,283;  246,358;48929,495;12,05946
 686,25; 6104,612;  229,436;49081,164;12,02655
 686,83; 6149,480;  244,897;49196,602;12,06206
 687,40; 6180,886;  219,205;49533,271;12,08921
 687,97; 6291,754;  269,667;49965,556;12,11788
 688,55; 6236,468;  222,129;49932,071;12,09886
 689,12; 6289,104;  214,206;50320,663;12,12398
 689,69; 6323,280;  222,899;50349,716;12,16990
 690,26; 6340,455;  246,130;50497,462;12,12769
 690,84; 6383,323;  245,361;50658,285;12,17537
 691,41; 6413,806;  248,822;50775,800;12,20137
 691,98; 6442,519;  254,823;51050,469;12,18155
 692,56; 6409,772;  233,284;51139,369;12,13310
 693,13; 6531,639;  283,592;51161,576;12,28045
 693,70; 6521,353;  266,823;51358,245;12,24184
 694,27; 6514,528;  254,285;51426,453;12,23369
 694,84; 6557,627;  234,131;51492,583;12,33649
 695,42; 6654,187;  288,362;51602,791;12,40553
 695,99; 6591,516;  251,132;51901,229;12,27565
 696,56; 6582,384;  233,747;51796,052;12,31255
 697,13; 6710,790;  253,594;52059,182;12,46428
 697,71; 6666,042;  221,517;52124,466;12,41649
 698,28; 6703,679;  241,825;52567,212;12,34937
 698,85; 6689,162;  218,672;52430,573;12,39275
 699,42; 6766,183;  217,903;52602,627;12,50036
 699,99; 6825,359;  269,364;52899,758;12,45667
 700,57; 6859,303;  250,288;52759,427;12,58641
 701,14; 6854,786;  239,903;52950,788;12,54937
 701,71; 6913,039;  251,057;53144,841;12,59502
 702,28; 6907,829;  249,750;53175,587;12,58002
 702,85; 6941,620;  240,212;53278,641;12,63501
 703,43; 7003,949;  267,981;53533,464;12,64603
 704,00; 7079,124;  279,366;53798,363;12,70532
 704,57; 7056,146;  251,674;53675,417;12,73679
 705,14; 7151,090;  272,597;54065,932;12,78689
 705,71; 7184,112;  271,290;54061,216;12,85152
 706,28; 7142,287;  252,367;53901,808;12,84248
 706,86; 7267,386;  276,752;54297,400;12,94067
 707,43; 7305,330;  300,598;54147,300;13,00866
 708,00; 7284,429;  264,060;54117,123;13,03616
 708,57; 7280,066;  243,675;54126,561;13,05867
 709,14; 7355,010;  272,599;54215,230;13,12953
 709,71; 7388,801;  248,830;54312,438;13,20661
 710,28; 7457,284;  264,445;54427,876;13,27988
 710,86; 7473,998;  265,676;54698,083;13,24270
 711,43; 7526,558;  280,061;54701,983;13,31540
 712,00; 7541,656;  256,600;54690,575;13,38329
 712,57; 7605,447;  265,293;54991,705;13,41245
 713,14; 7679,853;  255,216;55000,451;13,56216
 713,71; 7729,028;  266,831;54936,505;13,64961
 714,28; 7672,203;  265,601;54977,558;13,53745
 714,85; 7728,840;  241,524;54659,535;13,75889
 715,42; 7798,016;  249,140;55004,127;13,78665
 716,00; 7837,268;  311,140;55111,181;13,73380
 716,57; 7896,212;  262,602;55229,773;13,88758
 717,14; 7887,849;  249,217;55154,826;13,91230
 717,71; 7896,255;  234,987;55096,957;13,96463
 718,28; 8019,123;  280,449;55273,164;14,07218
 718,85; 7994,068;  247,218;55374,218;14,05273
 719,42; 8102,935;  269,449;55454,810;14,19486
 719,99; 8013,957;  247,219;55223,709;14,12738
 720,56; 8120,824;  264,988;55553,840;14,20872
 721,13; 8203,923;  241,296;55688,124;14,36083
 721,70; 8190,867;  248,835;55484,255;14,37851
 722,27; 8232,581;  273,912;55549,770;14,39809
 722,84; 8315,372;  306,374;55677,900;14,46411
 723,41; 8282,932;  240,835;55715,569;14,49686
 723,98; 8408,107;  266,682;55931,161;14,62589
 724,55; 8432,052;  283,144;55921,215;14,64628
 725,12; 8372,919;  221,836;55925,192;14,63302
 725,69; 8507,325;  253,221;56131,091;14,77169
 726,27; 8503,039;  266,606;56193,145;14,72724
 726,84; 8596,368;  269,298;56558,891;14,79327
 727,41; 8715,621;  274,683;56495,175;15,01399
 727,98; 8763,411;  272,376;56762,306;15,03106
 728,55; 8853,279;  296,068;56619,205;15,19306
 729,12; 8889,377;  239,607;56799,951;15,29299
 729,69; 8942,245;  279,376;57065,620;15,25522
 730,26; 9035,497;  276,069;57301,443;15,36058
 730,82; 9031,519;  272,069;57015,958;15,43682
 731,39; 9105,386;  263,608;57200,396;15,52911
 731,96; 9153,331;  251,454;57379,758;15,58225
 732,53; 9263,429;  265,455;57658,119;15,67792
 733,10; 9342,528;  274,609;57655,326;15,80308
 733,67; 9372,088;  271,455;57940,841;15,78070
 734,24; 9384,263;  251,994;57573,126;15,93177
 734,81; 9484,284;  285,456;57668,949;16,03044
 735,38; 9460,075;  270,840;57484,925;16,06114
 735,95; 9488,481;  271,148;57348,594;16,14882
 736,52; 9511,272;  277,610;57559,878;16,11958
 737,09; 9513,755;  265,918;57244,547;16,23036
 737,66; 9622,084;  307,072;57340,678;16,33250
 738,23; 9692,183;  259,534;57458,193;16,49103
 738,80; 9823,743;  314,919;57686,631;16,57406
 739,37; 9811,533;  294,150;57997,146;16,49374
 739,94; 9918,478;  266,765;58021,969;16,71142
 740,51;10088,192;  361,073;58162,869;16,82840
 741,07;10058,982;  257,304;57969,230;16,98380
 741,64;10107,004;  299,458;58260,591;16,92090
 742,21;10146,179;  268,459;58352,491;17,00591
 742,78;10155,354;  238,074;58040,006;17,15735
 743,35;10230,607;  267,921;58393,598;17,13991
 743,92;10341,244;  293,382;58500,806;17,26216
 744,49;10407,265;  272,075;58297,244;17,46689
 745,06;10425,902;  262,537;58309,990;17,50872
 745,63;10468,616;  246,922;58349,813;17,59240
 746,19;10541,099;  260,537;58279,174;17,71941
 746,76;10568,505;  260,614;58369,227;17,73901
 747,33;10552,603;  256,307;58286,589;17,74297
 747,90;10678,932;  280,384;58549,027;17,84587
 748,47;10717,262;  276,615;58454,850;17,94597
 749,04;10742,745;  273,000;58474,596;17,98876
 749,61;10791,381;  287,308;58464,495;18,05531
 750,17;10915,403;  285,693;58499,856;18,25966
 750,74;10900,194;  274,001;58413,910;18,27693
 751,31;10911,677;  257,078;58361,194;18,33708
 751,88;10913,698;  231,463;58242,479;18,41415
 752,45;11025,720;  261,617;58344,071;18,53245
 753,02;11002,587;  282,848;58210,355;18,50544
 753,58;11006,455;  249,232;58226,639;18,55416
 754,15;11095,323;  258,617;58347,616;18,65535
 754,72;11147,190;  247,156;58025,824;18,86515
 755,29;11149,827;  241,156;57871,723;18,92862
 755,86;11177,618;  262,387;58023,931;18,89705
 756,42;11243,947;  267,311;57938,600;19,03310
 756,99;11294,122;  228,388;57931,653;19,17696
 757,56;11330,528;  235,003;57765,245;19,28642
 758,13;11337,934;  200,234;57725,068;19,36155
 758,70;11471,725;  227,773;57822,122;19,52267
 759,26;11561,208;  223,696;57884,329;19,66248
 759,83;11584,845;  234,543;57974,152;19,65774
 760,40;11584,328;  219,928;57712,590;19,76670
 760,97;11613,811;  197,774;57783,567;19,82440
 761,53;11607,294;  193,697;57436,697;19,93885
 762,10;11641,085;  196,544;57388,905;20,01061
 762,67;11778,106;  229,313;57454,112;20,18145
 763,24;11711,820;  189,852;56929,781;20,30663
 763,80;11778,457;  228,314;57080,835;20,31597
 764,37;11835,940;  218,929;57096,119;20,42473
 764,94;11743,115;  215,391;56619,172;20,43786
 765,50;11848,598;  216,314;56701,841;20,59339
 766,07;11929,620;  252,622;56651,433;20,70433
 766,64;11815,641;  230,776;56431,872;20,61324
 767,21;11906,586;  225,777;56265,618;20,84376
 767,77;11929,453;  250,315;56115,825;20,90581
 768,34;11993,090;  239,239;56116,109;21,03527
 768,91;12017,496;  255,162;55937,317;21,12406
 769,47;12080,518;  245,008;55948,909;21,24718
 770,04;12050,770;  262,855;55841,962;21,20926
 770,61;12060,869;  240,086;55658,939;21,32989
 771,18;12100,275;  231,932;55498,454;21,47474
 771,74;12192,681;  246,932;55584,123;21,58720
 772,31;12139,933;  247,317;55284,253;21,60843
 772,88;12107,108;  225,471;55091,615;21,65568
 773,44;12155,668;  228,471;55019,130;21,76867
 774,01;12196,536;  246,010;55033,953;21,81233
 774,58;12220,019;  234,549;54714,775;21,99967
 775,14;12274,425;  230,703;54775,598;22,08038
 775,71;12303,062;  238,395;54690,421;22,15651
 776,27;12413,545;  283,857;54724,475;22,28058
 776,84;12531,028;  308,165;54764,067;22,44543
 777,41;12488,588;  245,165;54464,966;22,58109
 777,97;12442,456;  244,550;54181,635;22,61506
 778,54;12505,323;  259,012;54240,381;22,68618
 779,11;12589,806;  268,551;54182,666;22,85349
 779,67;12611,828;  228,166;54092,642;22,99041
 780,24;12614,388;  251,936;53933,388;23,02928
 780,80;12695,178;  269,013;53984,749;23,13319
 781,37;12715,354;  254,859;53989,264;23,18904
 781,94;12718,375;  246,783;53653,703;23,35202
 782,50;12808,166;  257,091;53683,833;23,49212
 783,07;12916,726;  281,937;53762,964;23,62481
 783,63;12861,670;  240,860;53436,556;23,72525
 784,20;12990,076;  273,399;53488,686;23,89666
 784,77;12972,406;  256,553;53280,586;23,98130
 785,33;13042,119;  229,784;52997,332;24,28071
 785,90;13009,141;  253,015;53002,078;24,18266
 786,46;13031,624;  269,861;52896,439;24,24965
 787,03;13029,876;  242,092;52744,339;24,35664
 787,59;13137,975;  248,631;52615,315;24,61363
 788,16;13191,073;  258,478;52575,292;24,71977
 788,73;13213,556;  265,401;52391,576;24,84003
 789,29;13129,347;  244,786;51910,014;24,93855
 789,86;13158,060;  267,171;51898,222;24,96732
 790,42;13255,390;  257,094;51859,737;25,18921
 790,99;13194,565;  272,479;51447,944;25,25055
 791,55;13193,125;  245,633;51501,152;25,26068
 792,12;13255,993;  265,556;51433,359;25,38791
 792,68;13169,322;  254,556;51144,874;25,37765
 793,25;13230,343;  265,941;50834,543;25,63726
 793,81;13198,595;  309,249;50529,058;25,66586
 794,38;13139,617;  217,557;50328,112;25,78710
 794,94;13256,561;  244,173;50104,243;26,09782
 795,51;13198,737;  257,788;49860,681;26,08910
 796,07;13159,989;  260,789;49633,504;26,12617
 796,64;13305,164;  264,712;49687,480;26,38552
 797,20;13180,724;  258,558;49121,303;26,44585
 797,77;13127,592;  229,328;48871,664;26,51654
 798,33;13209,537;  241,866;48671,641;26,77623
 798,90;13246,558;  274,636;48687,771;26,79422
 799,46;13145,964;  246,251;48125,363;26,94226
 800,03;13185,755;  270,790;48025,109;27,04460
 800,59;13240,930;  272,713;47941,624;27,20477
 801,15;13117,567;  258,175;47589,524;27,16887
 801,72;13164,127;  252,406;47287,732;27,45111
 802,28;13123,225;  285,560;46983,631;27,49078
 802,85;13096,016;  249,330;46889,300;27,54437
 803,41;13084,268;  246,561;46712,892;27,62798
 803,98;13012,059;  249,484;46328,330;27,69725
 804,54;13011,081;  249,946;46006,846;27,88898
 805,11;12963,948;  258,485;45810,130;27,89244
 805,67;12966,970;  272,100;45752,414;27,91289
 806,23;12888,914;  262,408;45267,006;28,05604
 806,80;12920,551;  275,562;45117,444;28,19906
 807,36;12950,419;  282,793;45013,267;28,31990
 807,93;12944,132;  286,024;44813,321;28,42775
 808,49;12855,385;  245,640;44510,144;28,48726
 809,05;12862,637;  234,640;44363,505;28,61618
 809,62;12831,966;  270,410;44212,405;28,58668
 810,18;12931,988;  263,871;44157,151;28,86118
 810,74;12869,317;  232,025;43883,896;28,95017
 811,31;12864,261;  245,872;43546,335;29,14147
 811,87;12949,360;  256,564;43534,004;29,32890
 812,44;12966,689;  283,949;43399,288;29,41584
 813,00;12914,941;  209,719;43112,880;29,61372
 813,56;13034,424;  260,950;43217,010;29,73614
 814,13;13034,061;  259,565;43157,449;29,77885
 814,69;12999,929;  251,719;42808,348;29,95587
 815,25;12960,643;  229,104;42601,479;30,04679
 815,82;13078,433;  275,335;42334,840;30,44044
 816,38;13114,762;  298,182;42184,817;30,59826
 816,94;13028,015;  235,490;41865,486;30,72910
 817,51;13041,036;  226,644;41713,001;30,88821
 818,07;13047,135;  242,105;41376,747;31,12955
 818,63;13040,310;  265,336;41247,262;31,17221
 819,20;13116,101;  249,798;41189,777;31,42723
 819,76;12944,430;  235,414;40615,138;31,47376
 820,32;12992,913;  268,952;40609,961;31,54101
 820,89;13029,857;  270,799;40403,553;31,79213
 821,45;12955,340;  233,338;40010,145;31,98347
 822,01;12926,439;  273,876;39788,660;32,01982
 822,57;12934,845;  267,107;39675,791;32,14453
 823,14;12883,020;  238,415;39514,075;32,19451
 823,70;12879,657;  241,108;39247,282;32,40141
 824,26;12837,140;  235,262;39008,797;32,50124
 824,82;12819,854;  257,570;38887,005;32,51998
 825,39;12802,183;  239,647;38619,828;32,73183
 825,95;12824,820;  261,878;38651,958;32,72445
 826,51;12695,688;  258,340;38153,550;32,82037
 827,08;12792,324;  278,417;38206,065;32,99416
 827,64;12733,961;  257,186;38029,657;33,03140
 828,20;12696,521;  242,956;37724,249;33,22608
 828,76;12732,927;  273,494;37724,072;33,26900
 829,32;12752,795;  275,879;37573,895;33,45196
 829,89;12718,739;  234,187;37475,256;33,52361
 830,45;12763,376;  253,572;37367,925;33,70611
 831,01;12759,090;  241,188;37192,517;33,87673
 831,57;12783,804;  252,188;37083,494;34,02436
 832,14;12820,441;  246,496;37046,163;34,16864
 832,70;12788,001;  233,111;36757,370;34,37411
 833,26;12787,868;  214,189;36663,808;34,49605
 833,82;12810,505;  238,343;36525,016;34,64678
 834,38;12875,065;  233,804;36584,069;34,77625
 834,95;12809,548;  234,882;36441,892;34,72992
 835,51;12833,724;  205,343;36314,946;34,97236
 836,07;12890,283;  243,190;36355,615;35,02145
 836,63;12963,151;  262,882;36381,668;35,16250
 837,19;13000,557;  247,421;36206,645;35,46555
 837,75;12942,348;  215,421;35942,391;35,62274
 838,32;12985,754;  258,268;36010,829;35,59881
 838,88;13036,929;  257,499;36027,575;35,72660
 839,44;13051,028;  251,499;35891,705;35,91317
 840,00;13096,742;  248,961;35852,067;36,08612
 840,56;13033,917;  224,422;35544,428;36,26697
 841,12;13047,938;  231,346;35616,482;36,22027
 841,68;13009,960;  218,654;35367,151;36,39219
 842,25;13064,366;  231,039;35432,358;36,45695
 842,81;13046,387;  224,193;35091,796;36,77395
 843,37;13064,794;  205,270;35087,311;36,86574
 843,93;13086,892;  234,885;35064,749;36,89939
 844,49;13212,221;  240,578;35030,880;37,28523
 845,05;13156,320;  202,040;34888,395;37,34690
 845,61;13257,572;  253,809;34860,756;37,57558
 846,17;13193,362;  233,040;34734,348;37,56473
 846,73;13279,845;  242,810;34729,863;37,80270
 847,29;13233,329;  215,733;34468,763;38,00422
 847,86;13274,350;  221,118;34521,817;38,05530
 848,42;13245,987;  208,580;34236,024;38,31439
 848,98;13235,393;  241,811;34193,924;38,27032
 849,54;13314,876;  228,965;34233,670;38,48265
 850,10;13294,205;  237,734;34080,108;38,58025
 850,66;13317,304;  216,734;33874,469;38,92291
 851,22;13265,325;  212,504;33864,061;38,78816
 851,78;13426,039;  268,043;33891,807;39,13303
 852,34;13386,906;  237,274;33624,938;39,38470
 852,90;13400,851;  226,889;33522,991;39,56608
 853,46;13340,103;  218,120;33292,583;39,67406
 854,02;13362,048;  234,274;33293,791;39,70951
 854,58;13262,762;  221,659;32997,075;39,78928
 855,14;13242,552;  221,736;32969,359;39,76110
 855,70;13254,728;  196,121;32805,721;40,04528
 856,26;13265,134;  242,275;32805,159;39,99295
 856,82;13298,078;  229,429;32524,905;40,46588
 857,38;13278,946;  246,276;32449,035;40,47066
 857,94;13295,890;  240,430;32373,473;40,62939
 858,50;13236,297;  249,661;32173,527;40,68002
 859,06;13287,087;  224,892;32001,965;41,10572
 859,62;13304,955;  242,969;31978,326;41,15910
 860,18;13241,976;  227,738;31700,841;41,35035
 860,74;13268,921;  195,431;31622,280;41,59975
 861,30;13213,404;  207,893;31446,333;41,63304
 861,86;13322,887;  260,124;31459,925;41,86810
 862,42;13267,755;  226,662;31272,133;42,00643
 862,98;13338,161;  253,047;31308,571;42,13458
 863,54;13251,721;  233,971;31118,394;42,14989
 864,10;13358,742;  223,202;31050,293;42,61038
 864,66;13262,764;  208,202;30911,809;42,51801
 865,22;13222,477;  230,510;30695,324;42,64581
 865,78;13232,499;  229,895;30639,608;42,75806
 866,34;13227,367;  226,664;30513,200;42,92568
 866,90;13225,773;  236,895;30375,023;43,09783
 867,45;13169,179;  230,818;30249,076;43,10164
 868,01;13155,662;  235,511;30036,976;43,35408
 868,57;13072,376;  226,434;29866,799;43,33935
 869,13;13050,551;  211,204;29736,391;43,48608
 869,69;13035,803;  215,512;29661,214;43,53875
 870,25;13027,209;  209,512;29513,113;43,74103
 870,81;13064,461;  218,974;29522,167;43,83648
 871,37;13017,406;  225,974;29387,682;43,86380
 871,93;13098,889;  233,436;29172,197;44,45751
 872,49;13035,603;  253,897;29027,866;44,42107
 873,04;12955,240;  212,513;28819,304;44,54441
 873,60;13029,492;  219,667;28684,666;45,00202
 874,16;12969,744;  236,206;28544,181;44,98216
 874,72;12971,975;  222,437;28517,873;45,05864
 875,28;12992,513;  226,052;28424,873;45,27303
 875,84;13045,975;  226,590;28321,873;45,62825
 876,40;13086,129;  220,513;28379,412;45,68934
 876,95;13067,129;  239,129;28235,104;45,82087
 877,51;13149,590;  260,052;28329,873;45,91956
 878,07;13213,052;  269,744;28231,488;46,28934
 878,63;13315,744;  228,283;28280,027;46,65472
 879,19;13361,667;  235,898;28263,258;46,83199
 879,75;13438,590;  226,590;28335,642;47,00265
 880,30;13486,360;  230,821;28199,027;47,39503
 880,86;13593,437;  267,821;28385,488;47,39232
 881,42;13630,052;  216,667;28452,104;47,50550
 881,98;13664,206;  240,898;28461,335;47,56591
 882,54;13809,975;  224,744;28577,719;47,91466
 883,09;13867,513;  238,513;28735,488;47,82613
 883,65;13999,206;  214,283;28770,335;48,27321
 884,21;14149,898;  256,206;28987,565;48,35724
 884,77;14164,437;  221,360;28983,104;48,47786
 885,32;14304,206;  230,975;29187,642;48,60100
 885,88;14431,283;  259,283;29262,335;48,86382
 886,44;14528,052;  237,513;29484,642;48,86134
 887,00;14589,513;  254,360;29404,412;49,17711
 887,56;14674,975;  231,437;29648,488;49,09920
 888,11;14787,513;  236,360;29552,412;49,63545
 888,67;14889,129;  264,206;29822,412;49,47839
 889,23;14934,975;  237,667;29833,873;49,65943
 889,79;14903,360;  214,360;29723,027;49,77860
 890,34;15000,360;  239,360;29613,258;50,25210
 890,90;15116,513;  302,975;29761,181;50,28663
 891,46;15051,360;  225,667;29652,104;50,38222
 892,01;15122,360;  252,975;29674,104;50,53982
 892,57;15148,052;  252,821;29550,335;50,84128
 893,13;15112,898;  233,283;29317,873;51,15979
 893,69;15232,283;  227,129;29388,719;51,45520
 894,24;15151,744;  236,667;29281,335;51,35220
 894,80;15165,052;  231,052;29059,104;51,80371
 895,36;15039,975;  230,129;28942,873;51,57935
 895,91;15002,744;  231,206;28773,719;51,75276
 896,47;15012,129;  258,975;28624,412;52,01102
 897,03;14956,052;  220,667;28386,335;52,31683
 897,58;14894,898;  238,821;28392,488;52,05743
 898,14;14867,590;  239,975;28132,565;52,44266
 898,70;14802,898;  209,667;27967,642;52,57311
 899,25;14869,667;  228,129;27958,719;52,79923
 899,81;14792,360;  250,590;27772,104;52,83783
 900,37;14805,052;  217,437;27573,104;53,32575
 900,92;14861,975;  240,283;27632,719;53,37858
 901,48;14756,667;  224,821;27419,488;53,43638
 902,03;14793,129;  223,513;27255,796;53,89710
 902,59;14762,360;  226,052;27215,412;53,85940
 903,15;14741,898;  256,052;26958,950;54,24822
 903,70;14652,821;  244,052;26687,181;54,48965
 904,26;14593,590;  217,744;26660,335;54,36626
 904,82;14645,437;  236,744;26648,488;54,55411
 905,37;14595,590;  240,052;26469,873;54,72984
 905,93;14555,821;  224,744;26360,104;54,83405
 906,48;14594,513;  239,667;26317,104;55,04700
 907,04;14630,513;  253,898;26173,181;55,46687
 907,60;14484,360;  224,975;25972,873;55,38077
 908,15;14494,283;  218,667;25883,104;55,62411
 908,71;14519,129;  250,513;25858,335;55,71976
 909,26;14453,975;  213,283;25706,950;55,85972
 909,82;14476,513;  257,437;25599,796;56,10794
 910,37;14476,898;  268,052;25525,796;56,25540
 910,93;14396,437;  219,744;25226,335;56,69182
 911,48;14402,821;  208,513;25048,181;57,14371
 912,04;14414,821;  216,590;24939,950;57,42840
 912,60;14447,898;  242,206;25022,488;57,32660
 913,15;14375,283;  235,975;24808,104;57,54205
 913,71;14299,744;  226,360;24581,642;57,78370
 914,26;14311,667;  204,360;24588,950;57,85337
 914,82;14349,360;  234,975;24467,873;58,24472
 915,37;14331,898;  226,898;24384,950;58,38633
 915,93;14344,206;  277,129;24278,258;58,61006
 916,48;14207,283;  216,283;24113,488;58,54659
 917,04;14220,975;  239,590;24033,642;58,76000
 917,59;14283,437;  254,129;23937,412;59,23718
 918,15;14143,821;  206,206;23718,181;59,27879
 918,70;14146,052;  226,283;23675,335;59,36176
 919,26;14147,898;  229,667;23483,565;59,85332
 919,81;13966,129;  212,975;23370,412;59,38979
 920,37;14091,821;  233,283;23301,335;60,07676
 920,92;14074,667;  241,975;23216,796;60,20805
 921,48;13978,283;  209,667;22934,027;60,58967
 922,03;13951,052;  218,437;23038,488;60,17784
 922,59;13906,744;  225,821;22863,565;60,43413
 923,14;13804,513;  223,975;22679,488;60,47752
 923,69;13850,821;  244,283;22620,642;60,80765
 924,25;13833,052;  248,513;22641,181;60,66512
 924,80;13811,821;  225,975;22275,796;61,61431
 925,36;13759,744;  219,744;22273,104;61,39654
 925,91;13713,744;  222,052;22124,873;61,59797
 926,47;13666,590;  209,667;22107,181;61,45411
 927,02;13758,744;  269,744;22038,335;61,96543
 927,57;13624,360;  220,975;21821,565;62,05101
 928,13;13558,283;  217,360;21776,642;61,88018
 928,68;13593,360;  221,283;21722,027;62,19355
 929,24;13483,283;  192,821;21528,642;62,29177
 929,79;13434,975;  216,052;21382,335;62,45274
 930,34;13430,590;  216,513;21190,642;63,00179
 930,90;13389,898;  215,898;21257,642;62,60888
 931,45;13482,360;  233,513;21206,719;63,17034
 932,01;13446,206;  231,360;21068,950;63,41830
 932,56;13416,898;  244,513;20865,642;63,87810
 933,11;13406,360;  256,437;20914,258;63,65591
 933,67;13305,898;  216,360;20690,488;63,93209
 934,22;13283,129;  221,283;20578,796;64,16229
 934,77;13289,360;  251,360;20507,642;64,36522
 935,33;13241,975;  233,975;20403,412;64,49362
 935,88;13141,052;  226,590;20301,335;64,33189
 936,43;13128,360;  218,975;20248,181;64,45280
 936,99;13116,283;  225,206;20154,719;64,68335
 937,54;13032,360;  212,513;19992,719;64,81149
 938,09;13050,590;  235,360;19954,412;64,98908
 938,65;13017,129;  230,437;19810,104;65,30597
 939,20;12973,513;  204,129;19720,104;65,43042
 939,75;12928,206;  217,360;19588,488;65,61748
 940,31;12844,206;  214,590;19526,642;65,39758
 940,86;12930,360;  228,744;19496,873;65,92034
 941,41;12904,360;  300,129;19384,873;66,04349
 941,96;12766,129;  217,590;19234,412;65,98652
 942,52;12729,437;  218,898;19187,027;65,95558
 943,07;12669,283;  200,283;19000,335;66,32428
 943,62;12651,129;  210,513;18923,565;66,48095
 944,18;12616,437;  204,667;18843,796;66,58986
 944,73;12624,590;  220,129;18759,181;66,90990
 945,28;12532,206;  200,898;18568,873;67,13482
 945,83;12534,206;  224,975;18574,873;67,08065
 946,39;12527,667;  214,590;18463,565;67,47270
 946,94;12510,590;  239,052;18505,642;67,18024
 947,49;12436,590;  225,590;18264,719;67,69174
 948,04;12416,898;  248,513;18248,181;67,60339
 948,59;12409,821;  237,129;18177,258;67,85176
 949,15;12321,437;  208,898;18127,104;67,59906
 949,70;12347,667;  211,283;18002,412;68,21593
 950,25;12267,052;  243,590;17877,258;68,18469
 950,80;12269,360;  190,129;17786,719;68,64529
 951,36;12252,283;  188,975;17675,027;68,98817
 951,91;12255,667;  236,129;17672,027;68,93559
 952,46;12116,052;  207,821;17485,873;68,92114
 953,01;12152,437;  238,283;17504,565;69,00243
 953,56;12127,744;  203,975;17356,642;69,51554
 954,11;12081,821;  221,283;17362,796;69,19190
 954,67;12118,667;  214,898;17186,104;70,14098
 955,22;12000,821;  202,129;17152,181;69,60859
 955,77;12033,206;  238,437;17072,488;70,06495
 956,32;11975,052;  267,283;16949,796;70,17989
 956,87;11901,975;  207,821;16783,565;70,54980
 957,42;11920,513;  210,206;16742,488;70,83298
 957,98;11880,437;  209,821;16680,873;70,85531
 958,53;11892,513;  240,437;16656,335;70,98044
 959,08;11832,283;  216,283;16515,642;71,26660
 959,63;11757,513;  214,283;16453,335;71,08316
 960,18;11752,360;  226,206;16438,873;71,09351
 960,73;11716,052;  214,513;16331,412;71,36323
 961,28;11659,052;  206,975;16188,027;71,66034
 961,83;11689,129;  241,667;16189,565;71,78038
 962,39;11619,437;  200,129;16034,719;72,11622
 962,94;11589,513;  231,360;16000,950;72,02567
 963,49;11516,052;  214,744;15862,104;72,22501
 964,04;11494,052;  232,052;15809,027;72,29902
 964,59;11503,052;  199,975;15702,950;72,90908
 965,14;11492,052;  234,206;15642,412;73,06397
 965,69;11401,667;  220,129;15507,950;73,14017
 966,24;11356,744;  213,437;15436,719;73,19911
 966,79;11288,590;  231,667;15336,258;73,20240
 967,34;11200,667;  199,052;15212,719;73,27734
 967,89;11173,590;  209,590;15114,104;73,56161
 968,44;11102,898;  226,206;15046,565;73,39021
 968,99;11111,360;  229,052;14984,565;73,75079
 969,55;11044,283;  227,283;14903,027;73,70665
 970,10;11001,590;  230,821;14821,642;73,81880
 970,65;10954,283;  233,513;14703,335;74,09054
 971,20;10895,360;  210,052;14610,488;74,20128
 971,75;10719,744;  201,206;14497,181;73,57692
 972,30;10784,360;  225,898;14445,873;74,25091
 972,85;10720,129;  206,513;14366,796;74,24721
 973,40;10620,667;  204,513;14167,565;74,59797
 973,95;10598,513;  224,360;14185,412;74,30782
 974,50;10589,437;  248,360;14086,950;74,72637
 975,05;10513,129;  224,206;13905,642;75,20353
 975,60;10554,821;  227,667;13878,950;75,64970
 976,15;10468,821;  216,052;13755,950;75,72265
 976,70;10499,744;  212,744;13693,335;76,30971
 977,25;10430,821;  228,667;13616,258;76,20605
 977,80;10355,206;  212,975;13398,565;76,91905
 978,35;10248,975;  231,590;13314,796;76,56674
 978,89;10204,129;  194,667;13252,873;76,65266
 979,44;10239,667;  216,744;13219,796;77,08131
 979,99;10171,975;  206,129;13049,488;77,59532
 980,54;10082,975;  236,513;12988,104;77,21752
 981,09;10061,667;  238,437;12832,565;77,99849
 981,64; 9968,898;  231,360;12723,488;77,94939
 982,19;10011,513;  253,667;12714,719;78,30676
 982,74; 9904,360;  233,667;12564,565;78,42650
 983,29; 9805,590;  209,052;12400,027;78,71838
 983,84; 9770,667;  228,513;12303,488;79,02421
 984,39; 9784,129;  277,437;12298,181;79,08572
 984,94; 9660,206;  198,129;12154,719;79,13692
 985,49; 9662,052;  248,667;12060,335;79,69565
 986,03; 9585,898;  239,206;11997,796;79,48820
 986,58; 9498,283;  271,360;11828,565;79,83697
 987,13; 9426,052;  228,898;11728,796;79,97596
 987,68; 9382,052;  239,437;11609,335;80,41071
 988,23; 9348,052;  231,821;11558,027;80,48795
 988,78; 9255,744;  215,283;11352,104;81,17632
 989,33; 9156,360;  235,898;11312,181;80,53660
 989,88; 9180,129;  261,975;11214,412;81,42621
 990,42; 9055,283;  220,667;11102,181;81,18922
 990,97; 9014,744;  220,283;10949,027;81,97102
 991,52; 8960,206;  248,975;10915,027;81,67250
 992,07; 8908,129;  256,667;10801,412;82,04525
 992,62; 8757,975;  241,052;10718,873;81,28525
 993,17; 8748,360;  244,590;10596,104;82,15001
 993,71; 8660,513;  236,744;10508,565;82,00853
 994,26; 8587,513;  220,667;10335,950;82,71490
 994,81; 8549,206;  246,129;10295,027;82,62674
 995,36; 8479,206;  235,052;10137,719;83,25185
 995,91; 8522,129;  228,821;10097,335;84,03806
 996,45; 8421,821;  232,513; 9939,719;84,36318
 997,00; 8302,360;  214,129; 9861,565;83,83813
 997,55; 8309,898;  235,513; 9794,335;84,47051
 998,10; 8267,052;  261,590; 9676,488;85,02972
 998,65; 8198,129;  223,975; 9595,027;85,09348
 999,19; 8065,590;  251,283; 9456,412;84,89080
 999,74; 8032,052;  278,975; 9402,104;84,98265
1000,29; 7960,590;  251,821; 9298,950;85,20680
1000,84; 7832,513;  231,744; 9158,950;85,14164
1001,38; 7802,052;  234,129; 9078,796;85,56481
1001,93; 7772,283;  242,437; 9040,335;85,58688
1002,48; 7595,129;  218,129; 8857,104;85,39207
1003,03; 7660,283;  236,052; 8843,104;86,25753
1003,57; 7569,513;  242,667; 8662,719;87,01664
1004,12; 7537,513;  267,052; 8632,565;86,90993
1004,67; 7389,898;  233,052; 8498,412;86,58844
1005,22; 7330,360;  223,437; 8366,565;87,27509
1005,76; 7217,821;  216,206; 8234,027;87,32566
1006,31; 7204,821;  247,283; 8191,796;87,57665
1006,86; 7076,437;  226,744; 8071,488;87,31569
1007,40; 7043,667;  218,590; 7946,335;88,31914
1007,95; 7000,513;  238,437; 7855,027;88,78089
1008,50; 6901,129;  234,360; 7722,488;89,03118
1009,04; 6836,283;  231,513; 7619,181;89,40263
1009,59; 6700,283;  247,744; 7518,027;88,75224
1010,14; 6671,898;  221,360; 7391,488;89,96405
1010,68; 6577,821;  234,283; 7255,873;90,34333
1011,23; 6526,206;  215,590; 7127,412;91,30177
1011,78; 6453,360;  240,129; 7102,796;90,53667
1012,32; 6386,821;  239,821; 7005,104;90,86095
1012,87; 6361,898;  259,206; 6943,412;91,30019
1013,42; 6248,052;  210,360; 6846,796;90,97793
1013,96; 6305,898;  261,360; 6832,565;91,98523
1014,51; 6169,590;  198,667; 6706,412;91,75104
1015,06; 6230,283;  190,360; 6751,488;92,05616
1015,60; 6295,898;  268,975; 6764,488;92,78594
1016,15; 6259,206;  215,052; 6756,335;92,40013
1016,69; 6265,206;  231,437; 6763,719;92,36846
1017,24; 6284,744;  196,283; 6787,796;92,36819
1017,79; 6331,129;  245,744; 6832,796;92,38404
1018,33; 6341,437;  220,821; 6814,104;92,83108
1018,88; 6429,667;  237,744; 6866,104;93,41562
1019,42; 6426,975;  221,437; 6870,104;93,33507
1019,97; 6426,821;  215,437; 6884,873;93,13207
1020,51; 6474,283;  248,206; 6918,335;93,34268
1021,06; 6504,513;  204,590; 6930,642;93,66450
1021,61; 6460,744;  187,898; 6853,258;94,11114
1022,15; 6441,437;  193,437; 6810,796;94,41832
1022,70; 6454,052;  225,206; 6826,950;94,35152
1023,24; 6438,744;  213,975; 6803,335;94,46698
1023,79; 6377,821;  222,898; 6735,258;94,51141
1024,33; 6325,821;  221,513; 6661,950;94,78096
1024,88; 6245,898;  233,437; 6588,873;94,60344
1025,42; 6135,360;  224,360; 6499,950;94,19034
1025,97; 6050,052;  212,898; 6359,719;94,96216
1026,51; 5974,975;  180,360; 6257,873;95,34517
1027,06; 5908,898;  212,129; 6224,027;94,75825
1027,60; 5829,283;  227,437; 6133,565;94,84802
1028,15; 5789,513;  232,052; 6013,565;96,12468
1028,69; 5646,513;  191,206; 5878,642;95,91857
1029,24; 5609,975;  211,129; 5852,181;95,70637
1029,78; 5492,283;  207,437; 5700,258;96,21369
1030,33; 5389,206;  193,360; 5620,796;95,73297
1030,87; 5392,667;  217,744; 5544,412;97,15124
1031,42; 5265,898;  199,513; 5511,565;95,37528
1031,96; 5235,744;  219,206; 5417,181;96,50948
1032,51; 5134,206;  208,898; 5315,412;96,45148
1033,05; 5098,513;  224,821; 5261,565;96,76275
1033,60; 4952,129;  180,590; 5120,796;96,58582
1034,14; 4931,513;  219,206; 5065,642;97,23242
1034,69; 4897,129;  212,898; 5014,873;97,54800
1035,23; 4828,052;  221,437; 4951,873;97,38246
1035,77; 4766,129;  215,590; 4875,335;97,65640
1036,32; 4706,590;  191,206; 4794,950;98,08070
1036,86; 4668,437;  214,667; 4770,719;97,75501
1037,41; 4578,206;  224,360; 4664,796;98,04996
1037,95; 4534,437;  185,513; 4588,642;98,76893
1038,50; 4468,206;  200,283; 4514,027;98,93779
1039,04; 4472,513;  232,667; 4480,642;99,80864
1039,58; 4397,129;  198,052; 4391,950;100,12349
1040,13; 4340,129;  209,821; 4376,412;99,12920
1040,67; 4358,129;  246,283; 4344,258;100,33849
1041,21; 4275,513;  239,975; 4268,412;100,17629
1041,76; 4184,513;  202,590; 4130,027;101,38733
1042,30; 4178,898;  205,360; 4121,488;101,46598
1042,85; 4079,206;  207,360; 4036,796;101,10746
1043,39; 4064,744;  202,052; 3977,719;102,30489
1043,93; 4079,206;  230,129; 3965,719;103,03798
1044,48; 3995,129;  225,744; 3904,335;102,46818
1045,02; 3904,206;  209,590; 3804,258;102,78045
1045,56; 3933,360;  238,744; 3770,642;104,60708
1046,11; 3838,744;  230,590; 3755,873;102,35077
1046,65; 3798,975;  220,206; 3681,719;103,38741
1047,19; 3755,667;  204,975; 3618,412;104,02104
1047,74; 3702,513;  194,667; 3528,873;105,20785
1048,28; 3661,667;  223,206; 3535,412;103,81183
1048,82; 3608,744;  244,744; 3506,181;103,14473
1049,37; 3560,437;  223,975; 3444,642;103,59535
1049,91; 3520,052;  217,821; 3417,335;103,21040
1050,45; 3470,283;  227,590; 3377,719;102,93840
1050,99; 3409,283;  216,744; 3306,873;103,31409
1051,54; 3359,667;  210,975; 3262,335;103,18981
1052,08; 3333,821;  234,590; 3226,796;103,57679
1052,62; 3303,667;  239,283; 3178,642;104,25348
1053,16; 3234,437;  217,437; 3109,335;104,32595
1053,71; 3242,283;  225,667; 3088,027;105,38911
1054,25; 3164,975;  234,129; 3042,104;104,37579
1054,79; 3121,744;  223,821; 2991,258;104,71507
1055,33; 3024,283;  194,975; 2892,873;104,87081
1055,88; 3047,590;  228,590; 2926,796;104,47684
1056,42; 3025,821;  236,821; 2891,027;105,07851
1056,96; 3006,898;  236,898; 2825,873;106,99215
1057,50; 2925,590;  228,129; 2797,796;104,97318
1058,05; 2891,052;  220,052; 2745,796;105,75101
1058,59; 2874,513;  232,590; 2715,719;106,39493
1059,13; 2775,590;  206,206; 2624,642;106,24156
1059,67; 2758,129;  222,052; 2633,719;105,15866
1060,21; 2722,590;  227,437; 2581,181;106,00786
1060,76; 2678,975;  236,667; 2548,950;105,62323
1061,30; 2674,744;  250,513; 2537,565;105,99806
1061,84; 2617,513;  233,513; 2464,181;106,87385
1062,38; 2548,360;  214,821; 2407,796;106,40972
1062,92; 2593,513;  259,513; 2438,796;107,09946
1063,46; 2524,129;  238,206; 2377,873;106,83544
1064,01; 2494,360;  223,590; 2308,719;108,90307
1064,55; 2470,898;  229,437; 2278,181;109,40661
1065,09; 2400,821;  196,744; 2234,027;108,18709
1065,63; 2424,975;  258,898; 2275,642;107,40464
1066,17; 2414,437;  254,975; 2250,642;108,20749
1066,71; 2378,744;  246,667; 2217,719;108,16950
1067,25; 2323,744;  230,206; 2156,488;108,68283
1067,80; 2309,898;  243,360; 2149,719;108,40234
1068,34; 2304,283;  260,052; 2148,950;108,22346
1068,88; 2243,590;  225,283; 2081,258;108,74649
1069,42; 2252,052;  254,437; 2088,181;108,93642
1069,96; 2196,975;  238,590; 2014,565;110,27096
1070,50; 2211,667;  254,898; 2044,258;109,35584
1071,04; 2153,744;  217,898; 1960,027;111,11957
1071,58; 2125,898;  223,667; 1952,335;110,04030
1072,12; 2103,821;  229,283; 1930,642;110,17885
1072,66; 2092,052;  229,052; 1914,104;110,56039
1073,21; 2086,206;  240,744; 1917,950;110,03191
1073,75; 2069,898;  245,437; 1871,565;112,19662
1074,29; 2021,437;  234,283; 1851,258;110,52452
1074,83; 2028,052;  257,283; 1843,642;111,62470
1075,37; 1982,821;  249,129; 1828,412;109,77720
1075,91; 1973,437;  242,744; 1790,104;111,84810
1076,45; 1936,052;  235,590; 1773,950;110,53732
1076,99; 1938,437;  249,898; 1745,335;112,91275
1077,53; 1885,437;  220,052; 1713,488;111,51358
1078,07; 1888,513;  228,437; 1713,950;111,75105
1078,61; 1846,898;  234,360; 1670,258;112,30174
1079,15; 1840,667;  238,206; 1639,412;114,36304
1079,69; 1815,206;  225,744; 1633,027;112,94543
1080,23; 1827,590;  254,129; 1633,796;114,04645
1080,77; 1833,437;  267,052; 1646,104;113,58417
1081,31; 1755,129;  225,821; 1581,642;112,79568
1081,85; 1735,513;  249,283; 1560,950;113,30852
1082,39; 1711,821;  227,437; 1537,719;113,28736
1082,93; 1709,898;  246,975; 1544,412;112,75489
1083,47; 1682,052;  230,590; 1494,335;114,85406
1084,01; 1690,975;  247,590; 1503,719;114,90737
1084,55; 1647,283;  227,590; 1449,104;116,22404
1085,09; 1629,283;  252,744; 1463,412;113,70080
1085,63; 1624,129;  239,206; 1461,027;113,34908
1086,17; 1595,744;  228,129; 1410,642;115,65326
1086,71; 1583,898;  225,590; 1403,950;115,27107
1087,24; 1580,667;  251,821; 1425,873;113,18462
1087,78; 1573,744;  247,513; 1391,873;115,89283
1088,32; 1506,360;  229,052; 1347,181;114,23618
1088,86; 1533,513;  251,975; 1361,796;115,47252
1089,40; 1474,975;  245,744; 1326,104;113,77978
1089,94; 1451,129;  219,129; 1296,719;114,32916
1090,48; 1460,052;  254,744; 1307,642;114,47525
1091,02; 1445,129;  249,667; 1296,796;114,16566
1091,56; 1429,513;  248,667; 1270,873;115,51942
1092,10; 1392,437;  225,744; 1243,796;114,60047
1092,63; 1428,360;  262,821; 1270,335;115,68465
1093,17; 1368,283;  257,744; 1241,488;112,88894
1093,71; 1356,744;  228,052; 1212,488;114,65364
1094,25; 1353,667;  260,821; 1198,642;116,53034
1094,79; 1338,052;  236,206; 1177,181;117,09622
1095,33; 1314,129;  235,744; 1167,642;115,71916
1095,87; 1304,898;  229,667; 1172,104;114,09052
1096,40; 1272,975;  218,437; 1133,258;115,27264
1096,94; 1273,590;  242,437; 1127,027;116,56851
1097,48; 1268,898;  245,283; 1121,258;116,85441
1098,02; 1228,821;  233,129; 1089,796;116,22859
1098,56; 1203,590;  203,437; 1066,027;115,94772
1099,10; 1186,898;  219,206; 1061,412;114,89975
1099,63; 1184,821;  203,821; 1055,335;115,20663
1100,17; 1198,513;  247,744; 1059,642;117,10451
1100,71; 1185,975;  261,667; 1069,719;114,38717

