
Integration time [ms]: 120,000
Averaging Nr. [scans]: 13
Smoothing Nr. [pixels]: 0
Data measured with spectrometer [name]: 2009305U1
Wave   ;Sample   ;Dark     ;Reference;Reflectance
[nm]   ;[counts] ;[counts] ;[counts] ;[%]

 175,72;  201,737;  202,673;  202,814; 0,00000
 176,32;  223,630;  225,431;  219,229; 0,00000
 176,92;  259,679;  241,593;  259,926;98,65104
 177,52;  262,614;  251,671;  258,560;158,85981
 178,12;  224,212;  228,123;  221,690; 0,00000
 178,72;  246,410;  262,428;  250,906; 0,00000
 179,32;  246,766;  256,969;  246,180; 0,00000
 179,92;  243,449;  244,743;  247,528;-46,45868
 180,52;  250,599;  240,295;  251,040;95,89941
 181,12;  252,346;  250,513;  250,351; 0,00000
 181,73;  272,102;  264,591;  277,112;59,99302
 182,33;  357,949;  344,982;  351,462;200,11054
 182,93;  266,312;  260,594;  266,980;89,54226
 183,53;  227,100;  240,272;  226,189; 0,00000
 184,13;  244,664;  234,428;  232,913; 0,00000
 184,73;  272,532;  272,348;  270,276; 0,00000
 185,33;  253,900;  227,895;  345,845;22,04751
 185,93;  264,821;  241,810;  363,162;18,96183
 186,53;  290,255;  245,969;  383,769;32,13845
 187,13;  304,776;  274,977;  418,310;20,78961
 187,73;  277,341;  236,042;  378,887;28,91160
 188,33;  277,604;  240,114;  373,931;28,01542
 188,93;  291,849;  258,330;  373,870;29,01067
 189,53;  285,117;  257,396;  374,368;23,69852
 190,13;  330,920;  277,224;  424,265;36,51747
 190,73;  263,344;  216,698;  365,464;31,35544
 191,34;  303,948;  258,249;  403,767;31,40428
 191,94;  266,936;  218,263;  371,997;31,66038
 192,54;  286,410;  243,523;  387,787;29,72827
 193,14;  294,630;  247,900;  396,592;31,42752
 193,74;  295,392;  257,129;  400,532;26,68215
 194,34;  284,527;  240,671;  386,728;30,02658
 194,94;  252,174;  220,361;  356,781;23,31954
 195,54;  233,003;  204,742;  327,334;23,05281
 196,14;  257,388;  227,827;  378,689;19,59472
 196,74;  252,952;  222,971;  359,044;22,03327
 197,34;  246,750;  197,063;  371,027;28,56171
 197,94;  249,422;  228,132;  384,373;13,62658
 198,54;  271,908;  235,596;  395,794;22,66718
 199,14;  263,326;  219,374;  388,308;26,01752
 199,74;  243,013;  202,220;  401,273;20,49373
 200,34;  240,516;  196,990;  393,795;22,11595
 200,94;  282,294;  228,446;  426,289;27,21757
 201,54;  259,201;  204,218;  443,961;22,93400
 202,14;  296,266;  229,608;  481,986;26,41199
 202,74;  274,970;  219,912;  475,274;21,56079
 203,34;  250,396;  188,920;  492,839;20,22783
 203,94;  229,856;  167,224;  499,348;18,85783
 204,54;  302,111;  245,363;  589,973;16,46744
 205,14;  275,078;  199,220;  600,798;18,88991
 205,74;  313,637;  236,688;  696,371;16,73949
 206,34;  281,330;  209,069;  707,819;14,48842
 206,94;  293,064;  215,837;  774,562;13,82194
 207,54;  268,287;  180,146;  806,666;14,06834
 208,14;  313,079;  214,378;  884,062;14,73844
 208,74;  317,880;  211,373;  951,337;14,39354
 209,34;  319,731;  194,759; 1045,915;14,68265
 209,94;  346,570;  216,528; 1149,937;13,93194
 210,54;  363,902;  213,302; 1239,675;14,67297
 211,14;  373,349;  218,374; 1375,700;13,39084
 211,73;  378,050;  201,448; 1478,977;13,82369
 212,33;  395,915;  217,908; 1586,632;13,00533
 212,93;  400,352;  205,834; 1714,331;12,89481
 213,53;  396,183;  178,220; 1776,071;13,64102
 214,13;  433,782;  200,076; 1832,252;14,31866
 214,73;  414,189;  190,377; 1872,755;13,30331
 215,33;  414,570;  173,143; 1893,014;14,03749
 215,93;  464,073;  201,842; 2020,959;14,41529
 216,53;  432,960;  158,603; 2108,122;14,07305
 217,13;  520,109;  216,302; 2311,821;14,49793
 217,73;  543,755;  194,611; 2514,042;15,05298
 218,33;  549,941;  147,770; 2710,446;15,69340
 218,93;  620,738;  176,163; 3006,310;15,70856
 219,53;  681,705;  183,770; 3305,411;15,95107
 220,13;  732,299;  156,541; 3596,351;16,73808
 220,73;  817,559;  191,836; 3941,482;16,68754
 221,32;  890,265;  182,912; 4363,260;16,92091
 221,92;  977,220;  190,848; 4775,100;17,15376
 222,52; 1027,183;  174,227; 5205,811;16,95203
 223,12; 1142,860;  171,612; 5659,397;17,69835
 223,72; 1221,855;  195,843; 6067,054;17,47529
 224,32; 1311,413;  201,998; 6450,584;17,75467
 224,92; 1375,531;  183,767; 6756,102;18,13304
 225,52; 1462,059;  200,684; 7072,450;18,35591
 226,12; 1509,943;  193,225; 7427,116;18,20206
 226,72; 1559,212;  164,840; 7739,306;18,40885
 227,31; 1635,868;  160,994; 8128,208;18,51180
 227,91; 1759,067;  178,452; 8522,116;18,94389
 228,51; 1804,653;  181,909; 8913,420;18,58492
 229,11; 1892,861;  182,301; 9324,768;18,71005
 229,71; 1952,552;  175,219; 9553,884;18,95081
 230,31; 2028,049;  170,000;10006,581;18,88918
 230,91; 2099,949;  162,060;10330,474;19,05792
 231,51; 2183,488;  162,304;10694,483;19,19056
 232,10; 2278,746;  171,616;11055,467;19,36015
 232,70; 2361,065;  189,671;11322,958;19,50362
 233,30; 2404,319;  200,534;11530,911;19,45024
 233,90; 2416,053;  179,764;11686,583;19,43446
 234,50; 2450,778;  181,534;11918,588;19,33401
 235,10; 2482,916;  166,536;11994,333;19,58420
 235,70; 2502,593;  187,221;12088,487;19,45483
 236,29; 2521,950;  187,988;12111,897;19,57379
 236,89; 2494,064;  166,599;12029,823;19,61916
 237,49; 2521,694;  197,687;11971,528;19,73873
 238,09; 2450,946;  176,993;11716,511;19,70579
 238,69; 2395,921;  218,442;11547,115;19,22095
 239,29; 2314,818;  172,223;11220,918;19,39229
 239,89; 2240,253;  193,907;10971,228;18,98753
 240,48; 2160,064;  176,531;10591,259;19,04546
 241,08; 2063,720;  175,145;10224,619;18,79278
 241,68; 2012,953;  196,993; 9925,720;18,66596
 242,28; 1911,045;  168,918; 9604,373;18,46362
 242,88; 1879,238;  214,538; 9311,832;18,29885
 243,48; 1805,853;  207,533; 8999,871;18,17856
 244,07; 1688,800;  190,298; 8722,403;17,56310
 244,67; 1658,068;  200,070; 8626,684;17,30230
 245,27; 1619,511;  198,602; 8464,284;17,19046
 245,87; 1591,572;  202,768; 8392,547;16,95777
 246,47; 1534,778;  190,295; 8414,382;16,34812
 247,06; 1522,646;  179,146; 8363,177;16,41612
 247,66; 1536,812;  176,685; 8450,657;16,43862
 248,26; 1556,427;  217,295; 8599,618;15,97566
 248,86; 1569,537;  200,757; 8748,312;16,01371
 249,46; 1538,032;  157,457; 8985,134;15,63916
 250,05; 1639,843;  203,377; 9328,022;15,74271
 250,65; 1672,076;  168,832; 9752,153;15,68604
 251,25; 1753,980;  174,760;10184,430;15,77694
 251,85; 1833,123;  191,137;10734,774;15,57324
 252,44; 1935,690;  155,835;11399,855;15,82935
 253,04; 2078,867;  197,451;12181,097;15,69986
 253,64; 2164,853;  155,678;12806,281;15,88205
 254,24; 2362,848;  195,146;13819,981;15,90994
 254,84; 2493,032;  170,996;14760,980;15,91527
 255,43; 2679,775;  175,527;15673,602;16,15844
 256,03; 2872,837;  178,063;16632,867;16,37683
 256,63; 3078,643;  183,214;17740,187;16,49162
 257,23; 3233,112;  177,907;18504,473;16,67091
 257,82; 3494,142;  190,672;19507,424;17,10158
 258,42; 3629,689;  145,747;20302,163;17,28453
 259,02; 3901,008;  190,682;21198,699;17,66148
 259,62; 4039,535;  173,669;21930,235;17,76873
 260,21; 4227,939;  179,989;22397,750;18,21944
 260,81; 4369,645;  187,994;22933,955;18,38415
 261,41; 4513,742;  162,594;23400,776;18,72413
 262,01; 4683,415;  205,975;23824,308;18,95748
 262,60; 4801,266;  158,984;24167,088;19,33631
 263,20; 4936,037;  164,756;24460,117;19,63865
 263,80; 5069,864;  201,359;24601,526;19,95275
 264,40; 5080,928;  163,976;24723,670;20,02041
 264,99; 5231,110;  187,974;24932,785;20,38058
 265,59; 5343,558;  179,353;25036,733;20,77534
 266,19; 5444,782;  165,821;25188,490;21,09671
 266,78; 5571,324;  212,895;25312,266;21,34886
 267,38; 5545,788;  186,739;25277,200;21,35891
 267,98; 5617,467;  172,049;25385,041;21,59767
 268,58; 5683,291;  188,354;25331,948;21,85422
 269,17; 5768,372;  171,427;25344,257;22,23407
 269,77; 5785,187;  191,520;25145,525;22,41591
 270,37; 5770,559;  163,205;25022,926;22,55598
 270,96; 5844,201;  215,441;24936,068;22,76949
 271,56; 5747,223;  174,753;24681,858;22,73818
 272,16; 5775,314;  178,979;24415,776;23,09024
 272,75; 5800,014;  177,210;24341,755;23,26882
 273,35; 5814,895;  187,057;24250,780;23,38723
 273,95; 5809,316;  186,287;24241,027;23,37597
 274,54; 5874,292;  175,300;24275,778;23,64680
 275,14; 5990,636;  200,519;24642,891;23,68885
 275,74; 6023,137;  153,825;24701,154;23,91019
 276,33; 6173,980;  213,136;25015,994;24,03289
 276,93; 6312,138;  195,455;25489,552;24,18226
 277,53; 6450,714;  185,065;26006,631;24,26518
 278,12; 6646,187;  172,215;26618,996;24,47924
 278,72; 6827,173;  216,219;27075,304;24,61347
 279,32; 6999,247;  186,064;27665,976;24,79332
 279,91; 7253,325;  164,832;28374,510;25,12787
 280,51; 7477,455;  172,373;28907,973;25,42171
 281,11; 7684,519;  183,525;29638,489;25,46598
 281,70; 7890,079;  165,370;30074,476;25,82728
 282,30; 8114,838;  181,214;30776,550;25,93083
 282,90; 8324,323;  178,752;31071,250;26,36747
 283,49; 8582,121;  191,519;31703,206;26,62695
 284,09; 8724,976;  213,908;32174,372;26,62999
 284,69; 8910,968;  201,602;32551,480;26,92241
 285,28; 9232,904;  201,523;32877,715;27,63903
 285,88; 9403,106;  235,209;33144,707;27,85791
 286,47; 9551,943;  184,368;33220,054;28,35593
 287,07; 9761,637;  209,679;33248,088;28,91168
 287,67; 9967,391;  204,456;33355,794;29,44960
 288,26;10149,991;  172,448;33241,410;30,17193
 288,86;10374,184;  179,754;33428,826;30,66079
 289,46;10683,545;  192,063;33471,747;31,52518
 290,05;10947,062;  174,837;33601,850;32,22611
 290,65;11281,810;  180,521;33802,888;33,01757
 291,24;11616,427;  188,988;33879,003;33,91936
 291,84;11907,874;  206,368;34112,571;34,51140
 292,44;12280,601;  191,072;34235,115;35,51144
 293,03;12644,024;  241,449;34378,031;36,33221
 293,63;12837,056;  179,598;34411,921;36,97516
 294,22;13162,614;  205,832;34641,153;37,62643
 294,82;13381,669;  186,438;34577,243;38,36848
 295,41;13395,002;  169,832;34333,169;38,71159
 296,01;13647,435;  219,286;34338,309;39,35678
 296,61;13642,414;  198,218;34063,374;39,69920
 297,20;13543,668;  189,978;33632,022;39,93084
 297,80;13586,889;  203,223;33573,652;40,10637
 298,39;13451,046;  174,983;33088,159;40,33662
 298,99;13471,006;  220,749;32950,935;40,48329
 299,58;13349,535;  203,609;32750,873;40,39027
 300,18;13387,146;  204,683;32613,290;40,67581
 300,78;13187,965;  186,527;32260,315;40,53602
 301,37;13182,774;  187,512;32215,892;40,57421
 301,97;13138,509;  196,140;32287,880;40,32928
 302,56;13017,131;  183,983;32152,209;40,14345
 303,16;12951,113;  173,212;32088,694;40,03668
 303,75;12892,495;  183,605;32134,495;39,77633
 304,35;13038,616;  179,766;32333,153;39,99221
 304,94;12970,635;  186,064;32333,222;39,76890
 305,54;12852,188;  204,604;32260,260;39,45508
 306,13;12833,008;  168,074;32186,516;39,55512
 306,73;12631,163;  162,995;32020,506;39,13729
 307,33;12523,058;  202,378;31912,690;38,85386
 307,92;12492,368;  194,757;32025,129;38,63483
 308,52;12631,875;  158,596;32481,024;38,59017
 309,11;12695,184;  179,977;32994,471;38,13926
 309,71;12725,894;  160,590;33237,434;37,98822
 310,30;12753,591;  174,218;33455,381;37,79727
 310,90;12888,437;  210,295;33790,920;37,75434
 311,49;12775,009;  182,833;33948,536;37,29280
 312,09;12764,797;  159,914;34164,542;37,06814
 312,68;12873,029;  230,450;34592,532;36,79224
 313,28;12822,983;  166,988;34646,206;36,70616
 313,87;12755,524;  156,910;34788,836;36,37861
 314,47;12779,532;  172,902;35029,917;36,16670
 315,06;12640,457;  163,065;35299,219;35,51155
 315,66;12659,336;  164,914;35459,619;35,40027
 316,25;12435,618;  156,982;35359,386;34,88011
 316,85;12424,041;  158,914;35417,171;34,78654
 317,44;12354,055;  178,747;35551,114;34,42039
 318,04;12159,436;  157,214;35579,271;33,88347
 318,63;12058,104;  155,072;35726,555;33,46229
 319,22;12046,182;  181,905;35905,413;33,21140
 319,82;11904,258;  167,754;35877,499;32,86639
 320,41;11713,882;  187,829;35789,622;32,37492
 321,01;11629,528;  194,144;35985,116;31,95047
 321,60;11501,384;  183,216;36034,226;31,57001
 322,20;11394,647;  171,834;36012,471;31,31310
 322,79;11270,398;  204,065;36081,114;30,84516
 323,39;11146,406;  165,535;36264,448;30,41884
 323,98;10970,034;  162,373;36174,645;30,01105
 324,58;10829,047;  169,212;36082,534;29,68212
 325,17;10698,223;  180,674;35980,084;29,37911
 325,76;10498,647;  196,525;35776,620;28,95473
 326,36;10311,398;  163,298;35371,970;28,82273
 326,95;10098,468;  198,754;35069,435;28,38979
 327,55; 9842,920;  161,138;34641,898;28,07879
 328,14; 9653,430;  174,762;34387,672;27,70495
 328,74; 9470,367;  192,213;33867,091;27,55215
 329,33; 9255,213;  190,298;33500,292;27,21380
 329,92; 8952,771;  162,978;33018,813;26,75261
 330,52; 8707,225;  185,147;32312,238;26,52614
 331,11; 8505,094;  168,446;31877,121;26,29138
 331,71; 8254,094;  182,371;31285,125;25,95179
 332,30; 8036,558;  205,371;30798,837;25,59758
 332,89; 7843,708;  233,836;30230,908;25,36872
 333,49; 7592,102;  194,370;29681,099;25,08834
 334,08; 7362,979;  181,061;29290,311;24,67229
 334,68; 7222,263;  180,908;28844,380;24,56561
 335,27; 7048,963;  199,148;28509,180;24,19572
 335,86; 6884,863;  240,446;28279,505;23,69700
 336,46; 6730,627;  197,917;27999,599;23,49754
 337,05; 6551,981;  182,908;27786,484;23,07336
 337,65; 6494,897;  165,677;27644,737;23,03288
 338,24; 6447,134;  223,681;27624,652;22,71253
 338,83; 6327,626;  197,758;27574,945;22,39042
 339,43; 6289,590;  171,674;27464,343;22,41597
 340,02; 6190,918;  179,828;27356,946;22,11820
 340,61; 6129,747;  174,680;27473,017;21,81476
 341,21; 6090,597;  205,367;27452,091;21,59977
 341,80; 6019,251;  178,753;27378,828;21,47236
 342,40; 5969,102;  184,455;27491,454;21,18375
 342,99; 5949,708;  182,451;27617,523;21,02147
 343,58; 5929,136;  183,298;27786,907;20,81553
 344,18; 5902,446;  195,298;27881,312;20,61383
 344,77; 5868,787;  176,058;28227,568;20,29384
 345,36; 5879,391;  168,447;28489,512;20,16501
 345,96; 5982,172;  195,298;28794,851;20,23414
 346,55; 5945,147;  166,843;29047,867;20,00727
 347,14; 5970,925;  165,455;29447,062;19,82634
 347,74; 6033,692;  151,771;29812,017;19,83099
 348,33; 6120,700;  171,462;30503,914;19,61344
 348,92; 6203,042;  191,928;31151,410;19,41607
 349,52; 6217,058;  155,541;31617,050;19,26645
 350,11; 6295,708;  183,519;31846,779;19,30373
 350,70; 6261,770;  180,680;31873,408;19,18765
 351,29; 6198,442;  155,818;31621,476;19,20387
 351,89; 6160,319;  185,362;31699,576;18,95956
 352,48; 6171,716;  158,680;31723,262;19,04995
 353,07; 6127,071;  175,148;31659,396;18,90445
 353,67; 6119,678;  186,851;31579,556;18,89874
 354,26; 6005,404;  189,455;31300,726;18,69403
 354,85; 5971,326;  179,607;31184,856;18,67980
 355,45; 5952,443;  158,753;31068,172;18,74409
 356,04; 5903,150;  171,610;30902,801;18,65056
 356,63; 5927,594;  197,062;30688,623;18,79383
 357,22; 5864,197;  185,820;30543,010;18,70521
 357,82; 5831,792;  191,976;30352,412;18,69938
 358,41; 5813,735;  202,294;30250,845;18,67458
 359,00; 5795,839;  168,982;29995,238;18,86545
 359,60; 5794,962;  188,065;30018,757;18,79573
 360,19; 5741,455;  182,611;29786,862;18,77718
 360,78; 5784,169;  194,523;29616,870;18,99796
 361,37; 5736,471;  178,985;29418,142;19,00700
 361,97; 5722,289;  196,986;29340,258;18,95910
 362,56; 5665,926;  175,365;29036,458;19,02409
 363,15; 5707,623;  220,907;28797,122;19,20029
 363,74; 5570,545;  188,056;28358,776;19,10668
 364,34; 5591,210;  197,905;28033,378;19,37566
 364,93; 5506,349;  172,211;27588,802;19,45588
 365,52; 5451,940;  153,908;27112,428;19,65253
 366,11; 5448,472;  173,982;26848,518;19,77350
 366,71; 5370,182;  170,598;26452,336;19,78402
 367,30; 5358,048;  172,370;26109,029;19,99362
 367,89; 5365,082;  227,607;25897,457;20,01365
 368,48; 5333,304;  186,594;25524,475;20,31231
 369,07; 5250,847;  179,603;25048,562;20,39186
 369,67; 5281,319;  197,980;24801,124;20,66134
 370,26; 5227,914;  178,219;24544,953;20,72372
 370,85; 5212,922;  183,216;24214,610;20,92973
 371,44; 5212,796;  179,601;23966,503;21,15952
 372,03; 5143,074;  168,751;23732,350;21,11020
 372,63; 5152,635;  156,293;23380,987;21,51306
 373,22; 5131,342;  176,834;23073,486;21,63857
 373,81; 5101,212;  157,139;22784,407;21,85007
 374,40; 5075,448;  177,916;22525,182;21,91558
 374,99; 5052,687;  172,445;22297,340;22,05769
 375,59; 5046,215;  164,453;22014,855;22,34175
 376,18; 5114,079;  194,753;21910,702;22,65305
 376,77; 5072,704;  189,140;21655,398;22,74995
 377,36; 5136,561;  198,292;21627,694;23,04436
 377,95; 5113,864;  193,213;21311,650;23,30026
 378,55; 5115,682;  166,683;21149,809;23,58562
 379,14; 5156,543;  196,908;21141,953;23,67928
 379,73; 5167,700;  184,137;20977,656;23,96691
 380,32; 5259,691;  192,832;20964,307;24,39335
 380,91; 5232,655;  164,133;20836,090;24,51883
 381,50; 5300,921;  190,981;20822,730;24,76736
 382,10; 5305,922;  169,601;20675,846;25,04759
 382,69; 5337,489;  156,908;20648,499;25,28150
 383,28; 5393,705;  201,674;20597,764;25,45601
 383,87; 5398,362;  171,981;20438,512;25,78823
 384,46; 5439,722;  168,284;20395,775;26,06076
 385,05; 5492,134;  201,058;20345,605;26,26555
 385,64; 5551,549;  173,290;20372,133;26,62657
 386,24; 5575,887;  160,207;20337,384;26,84062
 386,83; 5664,084;  204,283;20341,147;27,11346
 387,42; 5738,385;  197,982;20443,755;27,36572
 388,01; 5844,732;  187,663;20722,576;27,54854
 388,60; 6000,832;  185,669;20944,242;28,01331
 389,19; 6101,254;  171,195;21150,735;28,26591
 389,78; 6230,515;  177,043;21370,802;28,56252
 390,37; 6460,449;  234,666;21847,997;28,80529
 390,96; 6528,915;  180,052;22023,426;29,06539
 391,56; 6618,801;  184,039;22139,320;29,30849
 392,15; 6752,402;  169,582;22411,555;29,59638
 392,74; 6807,639;  150,800;22583,063;29,67529
 393,33; 7012,886;  174,192;22846,524;30,16317
 393,92; 7177,484;  192,027;23328,953;30,19181
 394,51; 7303,837;  174,577;23483,413;30,58609
 395,10; 7504,849;  210,938;23741,130;30,99809
 395,69; 7586,443;  191,709;23890,302;31,20326
 396,28; 7713,686;  189,164;24005,657;31,59374
 396,87; 7770,902;  197,000;24049,721;31,75278
 397,46; 7891,461;  196,915;24168,127;32,09911
 398,06; 8015,887;  211,983;24401,439;32,26159
 398,65; 8085,985;  191,424;24435,851;32,56237
 399,24; 8238,286;  197,112;24662,782;32,86717
 399,83; 8250,732;  175,619;24707,790;32,91642
 400,42; 8392,678;  214,283;24793,714;33,27333
 401,01; 8483,747;  189,019;24914,542;33,54723
 401,60; 8572,799;  199,975;24900,798;33,89694
 402,19; 8649,406;  220,863;24849,078;34,22312
 402,78; 8668,530;  222,501;24901,088;34,22412
 403,37; 8723,199;  204,834;24741,548;34,71681
 403,96; 8671,455;  203,697;24609,990;34,69498
 404,55; 8702,727;  211,322;24417,879;35,07894
 405,14; 8714,139;  194,415;24293,260;35,35325
 405,73; 8754,179;  207,883;24275,116;35,51009
 406,32; 8816,549;  205,219;24131,352;35,99132
 406,91; 8742,312;  198,856;23904,980;36,03902
 407,50; 8802,300;  207,674;23733,268;36,53309
 408,09; 8687,888;  183,730;23420,189;36,59834
 408,68; 8753,846;  192,793;23255,197;37,12125
 409,27; 8709,966;  185,273;23146,454;37,12654
 409,86; 8793,602;  197,701;22960,388;37,76312
 410,45; 8808,183;  238,122;22919,365;37,78480
 411,04; 8803,775;  238,082;22843,339;37,89248
 411,63; 8768,773;  211,592;22600,535;38,22057
 412,22; 8771,591;  218,021;22288,056;38,75649
 412,81; 8718,271;  223,652;22056,752;38,90707
 413,40; 8614,824;  235,979;21728,740;38,98450
 413,99; 8599,329;  260,589;21397,851;39,45043
 414,58; 8438,104;  202,285;21003,304;39,59335
 415,17; 8395,035;  218,036;20759,640;39,80701
 415,76; 8379,335;  210,789;20711,639;39,84492
 416,35; 8318,671;  191,259;20454,580;40,10898
 416,94; 8426,944;  230,023;20514,156;40,41051
 417,53; 8571,550;  201,576;20800,791;40,63249
 418,12; 8601,634;  201,580;20827,937;40,72485
 418,71; 8821,075;  220,980;21186,040;41,02109
 419,30; 8898,026;  211,736;21228,228;41,33083
 419,89; 8976,509;  194,893;21434,172;41,34611
 420,48; 9181,704;  237,442;21733,900;41,60807
 421,07; 9246,903;  215,368;21822,005;41,79982
 421,66; 9324,702;  188,454;21846,735;42,18363
 422,25; 9324,900;  208,395;21852,910;42,11924
 422,84; 9363,822;  225,783;21737,539;42,47928
 423,43; 9301,006;  215,391;21508,323;42,66963
 424,02; 9208,513;  233,317;21253,813;42,69735
 424,60; 9097,958;  215,646;20826,513;43,09529
 425,19; 8976,938;  213,481;20615,233;42,95443
 425,78; 8968,133;  234,251;20400,833;43,30869
 426,37; 8962,256;  238,797;20253,664;43,58490
 426,96; 8964,020;  222,105;20170,398;43,82287
 427,55; 8888,411;  211,732;20039,514;43,76021
 428,14; 8810,725;  203,353;19811,972;43,89586
 428,73; 8801,520;  204,266;19667,866;44,17094
 429,32; 8831,582;  222,719;19620,862;44,37983
 429,91; 8893,772;  242,190;19615,704;44,65675
 430,50; 8806,172;  231,888;19457,006;44,59938
 431,08; 8733,845;  221,587;19289,596;44,64157
 431,67; 8808,664;  259,438;19255,284;45,00576
 432,26; 8740,629;  261,905;19013,763;45,21538
 432,85; 8581,568;  275,980;18644,633;45,21609
 433,44; 8459,060;  279,142;18309,281;45,36802
 434,03; 8374,039;  303,076;17873,504;45,93492
 434,62; 8148,252;  254,220;17499,553;45,77489
 435,21; 8090,383;  270,981;17245,806;46,06470
 435,79; 8052,015;  249,226;17166,079;46,12435
 436,38; 7974,945;  252,083;16985,729;46,15170
 436,97; 7949,070;  247,930;16873,153;46,32203
 437,56; 7882,522;  255,023;16748,946;46,24430
 438,15; 7846,077;  235,558;16658,115;46,34186
 438,74; 7908,102;  265,790;16633,993;46,68999
 439,33; 7928,998;  241,711;16658,018;46,82714
 439,91; 7957,019;  221,026;16713,130;46,90725
 440,50; 8032,265;  271,565;16805,548;46,93787
 441,09; 8071,939;  262,189;16895,628;46,95210
 441,68; 8071,698;  241,660;16963,225;46,82599
 442,27; 8075,419;  233,887;16851,869;47,18703
 442,86; 8122,895;  203,599;16819,088;47,66213
 443,44; 8188,102;  227,595;16931,893;47,65544
 444,03; 8267,229;  271,446;16995,269;47,81074
 444,62; 8146,441;  226,600;16879,912;47,55716
 445,21; 8093,750;  245,366;16666,519;47,79435
 445,80; 8092,226;  265,147;16604,455;47,90337
 446,39; 7948,537;  268,760;16364,850;47,71206
 446,97; 7823,179;  227,772;16116,035;47,80514
 447,56; 7742,038;  218,705;15890,562;48,00537
 448,15; 7704,244;  228,618;15759,022;48,13542
 448,74; 7595,456;  257,389;15456,208;48,28051
 449,33; 7522,131;  235,088;15347,125;48,22013
 449,91; 7438,997;  238,175;15103,327;48,44096
 450,50; 7360,644;  230,558;14860,535;48,73614
 451,09; 7285,295;  234,097;14801,560;48,40374
 451,68; 7230,481;  259,410;14724,733;48,19160
 452,26; 7177,118;  251,953;14609,451;48,23379
 452,85; 7122,383;  230,104;14421,058;48,56812
 453,44; 7163,117;  243,810;14491,666;48,56385
 454,03; 7134,173;  217,417;14426,473;48,67851
 454,61; 7108,335;  230,811;14415,041;48,48711
 455,20; 7227,623;  245,893;14580,549;48,70525
 455,79; 7223,205;  254,961;14556,496;48,72375
 456,38; 7268,623;  252,439;14684,904;48,61390
 456,97; 7339,257;  237,283;14765,098;48,88536
 457,55; 7337,350;  240,597;14742,400;48,93704
 458,14; 7341,183;  249,512;14730,724;48,97153
 458,73; 7276,106;  247,136;14630,007;48,87043
 459,31; 7334,365;  265,453;14709,332;48,94054
 459,90; 7372,095;  278,294;14787,950;48,89021
 460,49; 7486,355;  316,676;14902,291;49,15582
 461,08; 7485,285;  239,457;14907,869;49,39749
 461,66; 7470,571;  248,298;15049,536;48,79506
 462,25; 7551,871;  251,999;15121,148;49,09408
 462,84; 7616,271;  277,304;15109,398;49,48032
 463,43; 7515,619;  215,394;15085,289;49,09399
 464,01; 7570,100;  248,782;15117,756;49,23889
 464,60; 7542,687;  291,775;15077,974;49,03837
 465,19; 7393,384;  228,247;14843,912;49,02368
 465,77; 7401,328;  248,251;14804,322;49,14154
 466,36; 7365,714;  262,163;14688,107;49,24150
 466,95; 7188,755;  245,856;14414,014;49,00354
 467,53; 7045,004;  250,795;14096,619;49,07045
 468,12; 6933,442;  284,642;13785,386;49,24765
 468,71; 6779,791;  249,478;13594,462;48,93459
 469,29; 6671,365;  227,721;13304,237;49,27646
 469,88; 6545,933;  237,801;13053,236;49,22292
 470,47; 6630,425;  300,502;13186,269;49,12337
 471,06; 6573,699;  263,195;13153,729;48,95456
 471,64; 6645,582;  248,577;13220,818;49,31303
 472,23; 6624,083;  221,439;13272,338;49,05902
 472,81; 6693,905;  220,431;13340,822;49,33903
 473,40; 6764,918;  234,747;13485,729;49,28066
 473,99; 6897,954;  335,209;13697,135;49,11527
 474,57; 6881,413;  245,516;13793,499;48,98070
 475,16; 6953,428;  253,433;13941,336;48,94829
 475,75; 7018,891;  273,676;14125,956;48,69390
 476,33; 7105,992;  271,682;14198,006;49,07476
 476,92; 7141,026;  275,979;14259,027;49,09549
 477,51; 7136,239;  265,064;14328,410;48,85875
 478,09; 7159,233;  257,910;14312,913;49,10225
 478,68; 7094,979;  273,913;14221,761;48,90407
 479,27; 7151,917;  287,599;14305,290;48,96896
 479,85; 7099,876;  257,605;14283,426;48,78339
 480,44; 7186,891;  254,839;14418,392;48,94289
 481,02; 7805,751;  255,537;15815,136;48,52448
 481,61; 8862,426;  283,919;17873,001;48,77177
 482,20; 9397,379;  255,691;19099,150;48,51385
 482,78; 9868,199;  299,453;19992,311;48,58993
 483,37;10153,738;  278,699;20533,405;48,75429
 483,95;10312,491;  304,393;20791,766;48,85008
 484,54;10400,977;  317,687;21021,241;48,70319
 485,13;10306,725;  274,631;20883,675;48,67812
 485,71;10110,210;  255,552;20621,442;48,38806
 486,30;10030,359;  284,013;20314,022;48,65872
 486,88; 9854,125;  322,246;19987,396;48,47092
 487,47; 9506,199;  301,556;19228,616;48,63219
 488,05; 9010,924;  276,713;18322,323;48,40075
 488,64; 8413,753;  297,104;17030,624;48,50533
 489,23; 7488,157;  304,637;15145,886;48,40239
 489,81; 6392,651;  299,947;12970,050;48,08725
 490,40; 6012,722;  248,179;12323,096;47,73982
 490,98; 5894,209;  239,182;12008,747;48,04788
 491,57; 5861,167;  273,023;11980,192;47,73267
 492,15; 5810,095;  253,952;11882,885;47,77862
 492,74; 5765,577;  260,944;11757,133;47,88225
 493,32; 5716,188;  277,412;11662,063;47,77288
 493,91; 5665,702;  263,340;11601,767;47,64649
 494,50; 5663,986;  262,198;11572,590;47,75951
 495,08; 5614,658;  241,813;11485,521;47,78535
 495,67; 5598,561;  272,570;11503,391;47,42299
 496,25; 5518,639;  224,038;11384,741;47,43967
 496,84; 5528,944;  231,646;11343,679;47,67172
 497,42; 5469,892;  221,502;11293,373;47,40292
 498,01; 5474,453;  249,648;11233,564;47,56778
 498,59; 5380,417;  227,811;11193,057;46,99034
 499,18; 5412,179;  225,572;11124,262;47,58927
 499,76; 5364,344;  260,115;11101,294;47,08186
 500,35; 5273,911;  245,432;10862,542;47,36203
 500,93; 5227,695;  241,963;10813,297;47,16275
 501,52; 5209,559;  238,734;10757,351;47,25740
 502,10; 5187,222;  261,129;10747,595;46,97572
 502,69; 5087,939;  242,363;10559,944;46,96426
 503,27; 5002,952;  227,429;10349,820;47,17782
 503,86; 4977,937;  233,977;10292,458;47,16378
 504,44; 4927,505;  224,981;10143,073;47,41360
 505,03; 4763,523;  207,673; 9910,660;46,95306
 505,61; 4735,787;  228,441; 9867,810;46,75977
 506,19; 4668,208;  250,134; 9720,605;46,65104
 506,78; 4572,508;  215,912; 9514,755;46,85094
 507,36; 4504,774;  224,980; 9341,724;46,94433
 507,95; 4413,117;  231,532; 9195,965;46,64640
 508,53; 4353,708;  226,066; 9043,616;46,81166
 509,12; 4257,525;  230,530; 8892,813;46,48884
 509,70; 4203,575;  257,455; 8769,488;46,35932
 510,29; 4123,902;  247,459; 8619,416;46,30271
 510,87; 3988,364;  229,989; 8412,749;45,93041
 511,46; 3910,787;  219,298; 8211,179;46,19048
 512,04; 3833,701;  224,918; 8099,680;45,82719
 512,62; 3757,474;  237,914; 7993,451;45,38125
 513,21; 3647,561;  213,229; 7789,415;45,33062
 513,79; 3625,545;  220,165; 7669,221;45,71558
 514,38; 3532,613;  209,315; 7499,517;45,58581
 514,96; 3514,485;  244,391; 7433,540;45,48652
 515,54; 3383,758;  212,778; 7283,317;44,84778
 516,13; 3363,325;  226,779; 7157,826;45,25356
 516,71; 3279,823;  215,862; 7056,039;44,79360
 517,30; 3212,247;  208,251; 6931,959;44,67767
 517,88; 3171,470;  234,174; 6882,673;44,17984
 518,46; 3109,854;  213,022; 6747,913;44,32870
 519,05; 3070,156;  225,718; 6659,507;44,21092
 519,63; 3057,584;  224,178; 6659,420;44,02953
 520,22; 3042,249;  243,724; 6564,271;44,27662
 520,80; 2988,051;  227,494; 6466,969;44,24342
 521,38; 2973,709;  257,027; 6436,694;43,96163
 521,97; 2936,814;  218,883; 6429,178;43,76493
 522,55; 2948,606;  235,575; 6443,647;43,70168
 523,13; 2896,165;  216,732; 6398,186;43,34631
 523,72; 2898,770;  224,330; 6381,243;43,43800
 524,30; 2959,725;  239,351; 6545,207;43,14044
 524,89; 2949,386;  207,114; 6567,260;43,11648
 525,47; 3004,460;  238,660; 6665,749;43,03348
 526,05; 3018,660;  213,276; 6727,615;43,06475
 526,64; 3083,700;  229,356; 6855,141;43,07934
 527,22; 3118,140;  232,121; 6943,659;43,00086
 527,80; 3201,254;  269,432; 7065,555;43,13963
 528,39; 3198,618;  226,435; 7190,884;42,67649
 528,97; 3249,190;  226,510; 7359,112;42,37836
 529,55; 3362,585;  234,655; 7559,822;42,70114
 530,14; 3434,261;  257,130; 7734,782;42,48835
 530,72; 3462,723;  221,972; 7856,769;42,44712
 531,30; 3508,832;  217,746; 7992,942;42,32802
 531,89; 3545,873;  229,746; 8072,921;42,28042
 532,47; 3593,539;  256,594; 8217,595;41,91615
 533,05; 3601,721;  264,355; 8219,821;41,95061
 533,63; 3596,947;  252,056; 8273,838;41,69760
 534,22; 3562,770;  224,980; 8342,061;41,12057
 534,80; 3649,512;  241,755; 8435,057;41,59199
 535,38; 3693,611;  314,977; 8489,709;41,33021
 535,97; 3636,185;  234,133; 8436,888;41,47451
 536,55; 3636,947;  271,140; 8468,496;41,05967
 537,13; 3624,617;  265,745; 8446,124;41,06010
 537,71; 3615,276;  285,283; 8475,119;40,66007
 538,30; 3650,761;  305,674; 8570,323;40,47465
 538,88; 3665,772;  318,837; 8599,984;40,41632
 539,46; 3753,304;  344,062; 8806,603;40,28627
 540,05; 3808,911;  345,912; 8897,023;40,49765
 540,63; 3882,575;  386,296; 9111,519;40,07094
 541,21; 3921,040;  393,223; 9243,260;39,86218
 541,79; 3928,004;  411,761; 9345,393;39,35962
 542,38; 4018,570;  420,142; 9496,556;39,64593
 542,96; 4066,760;  444,997; 9640,398;39,38668
 543,54; 4145,179;  449,299; 9854,765;39,29502
 544,12; 4118,855;  405,685; 9999,510;38,70375
 544,70; 4170,821;  405,382;10057,138;39,01299
 545,29; 4260,737;  420,603;10257,492;39,03809
 545,87; 4214,697;  410,915;10329,470;38,35016
 546,45; 4212,332;  392,603;10323,885;38,46159
 547,03; 4239,102;  383,760;10485,760;38,16415
 547,62; 4248,522;  363,839;10602,636;37,94082
 548,20; 4359,975;  382,919;10766,056;38,30303
 548,78; 4377,933;  344,546;10952,908;38,02083
 549,36; 4411,123;  347,391;11183,078;37,50323
 549,94; 4450,127;  320,764;11287,724;37,65276
 550,53; 4589,203;  322,697;11513,627;38,12468
 551,11; 4617,304;  294,548;11726,288;37,81363
 551,69; 4718,518;  322,468;12059,610;37,45418
 552,27; 4821,843;  275,540;12330,394;37,71346
 552,85; 4983,386;  287,163;12753,477;37,67131
 553,44; 5044,736;  288,544;13036,442;37,30962
 554,02; 5199,272;  310,085;13449,201;37,21093
 554,60; 5264,089;  248,318;13720,860;37,22958
 555,18; 5429,703;  287,852;14092,826;37,24636
 555,76; 5563,136;  277,008;14460,557;37,26943
 556,34; 5688,931;  292,169;14913,550;36,91007
 556,93; 5808,498;  277,853;15329,007;36,74565
 557,51; 5919,885;  240,707;15647,690;36,86106
 558,09; 6038,059;  284,853;16070,707;36,44533
 558,67; 6158,848;  280,172;16447,067;36,36243
 559,25; 6259,223;  288,786;16734,988;36,30283
 559,83; 6306,660;  273,791;17033,614;35,99602
 560,41; 6422,208;  265,398;17391,253;35,95038
 561,00; 6542,038;  280,634;17766,934;35,80748
 561,58; 6607,952;  274,782;18011,072;35,70741
 562,16; 6676,281;  268,625;18341,204;35,45513
 562,74; 6802,249;  237,393;18731,886;35,49627
 563,32; 6898,665;  245,867;19154,726;35,18350
 563,90; 7054,635;  267,019;19544,270;35,21050
 564,48; 7096,563;  267,550;20046,724;34,52628
 565,06; 7317,543;  267,326;20579,929;34,70859
 565,65; 7502,697;  272,181;21263,904;34,44460
 566,23; 7808,938;  311,788;22040,081;34,50409
 566,81; 7970,536;  279,324;22783,792;34,17638
 567,39; 8236,867;  277,023;23701,381;33,98106
 567,97; 8432,138;  289,940;24310,168;33,89725
 568,55; 8707,599;  293,252;25197,412;33,78691
 569,13; 8890,891;  270,634;25881,528;33,65856
 569,71; 9101,825;  280,933;26851,239;33,19831
 570,29; 9443,639;  308,160;27888,993;33,12256
 570,87; 9672,879;  303,624;28621,612;33,08588
 571,45; 9819,935;  296,018;29325,907;32,80728
 572,03; 9934,867;  249,486;29702,693;32,88396
 572,61;10086,432;  242,944;30408,629;32,63141
 573,20;10336,028;  281,092;31069,696;32,65798
 573,78;10391,606;  260,329;31782,006;32,14067
 574,36;10558,327;  279,328;32300,505;32,10063
 574,94;10657,097;  317,256;32642,774;31,98662
 575,52;10640,498;  265,725;32846,235;31,84349
 576,10;10818,745;  308,953;33440,563;31,72134
 576,68;10915,505;  288,870;33975,623;31,54544
 577,26;11056,015;  309,574;34699,026;31,24923
 577,84;11180,945;  315,943;35186,679;31,15794
 578,42;11276,438;  350,873;35502,631;31,08113
 579,00;11225,393;  290,252;35667,901;30,90975
 579,58;11238,495;  329,718;35955,711;30,62027
 580,16;11246,384;  305,028;35934,796;30,70847
 580,74;11184,788;  303,875;36128,711;30,37254
 581,32;11157,889;  300,872;36230,094;30,21779
 581,90;11098,602;  327,182;36174,629;30,04794
 582,48;11066,555;  327,798;36293,768;29,85811
 583,06;11051,236;  317,718;36487,822;29,67511
 583,64;11015,908;  308,871;36568,753;29,52860
 584,22;10973,356;  320,649;36441,638;29,49174
 584,80;10822,699;  320,258;36211,539;29,26182
 585,38;10679,616;  324,553;35778,495;29,20708
 585,96;10634,108;  299,253;35838,913;29,07978
 586,54;10599,475;  319,802;35884,305;28,90431
 587,12;10564,847;  300,568;36082,359;28,68576
 587,70;10577,206;  326,331;36191,135;28,58199
 588,28;10512,698;  305,568;36305,241;28,35340
 588,86;10574,901;  315,031;36369,510;28,45657
 589,44;10500,291;  297,962;36510,054;28,17382
 590,02;10475,950;  307,114;36686,583;27,95213
 590,59;10457,923;  285,802;36964,214;27,73327
 591,17;10522,604;  298,047;37099,676;27,78289
 591,75;10462,754;  289,503;37335,237;27,46133
 592,33;10501,265;  309,655;37533,493;27,37926
 592,91;10466,838;  272,199;37770,302;27,18708
 593,49;10487,067;  276,587;38115,931;26,98377
 594,07;10499,132;  285,510;38350,610;26,83198
 594,65;10470,933;  301,418;38358,213;26,72194
 595,23;10540,902;  307,960;38870,395;26,53604
 595,81;10473,496;  283,500;38835,566;26,43178
 596,39;10464,865;  271,577;38992,460;26,32504
 596,97;10433,033;  305,198;39202,896;26,03710
 597,55;10381,835;  285,497;39101,230;26,01094
 598,12;10280,431;  272,973;39094,948;25,77782
 598,70;10273,353;  269,431;39324,222;25,61510
 599,28;10248,330;  292,662;39457,523;25,41990
 599,86;10169,943;  276,815;39468,964;25,24263
 600,44;10170,609;  251,740;39539,023;25,24702
 601,02;10169,111;  308,287;39632,593;25,07565
 601,60;10012,920;  285,734;39636,789;24,71900
 602,18; 9942,523;  254,434;39624,823;24,60755
 602,75; 9899,706;  259,269;39722,651;24,42882
 603,33; 9861,827;  276,046;39733,774;24,29380
 603,91; 9811,179;  263,669;39629,278;24,25343
 604,49; 9794,681;  287,354;39768,137;24,08090
 605,07; 9735,221;  289,734;39779,503;23,91882
 605,65; 9677,370;  293,279;39876,357;23,70733
 606,23; 9690,990;  322,032;39961,370;23,63551
 606,80; 9607,747;  339,115;40031,476;23,35117
 607,38; 9553,659;  361,129;40020,091;23,17895
 607,96; 9496,042;  396,345;40120,463;22,90724
 608,54; 9479,488;  436,971;40132,952;22,77943
 609,12; 9340,263;  423,730;40212,084;22,40991
 609,70; 9349,030;  447,584;40164,958;22,41197
 610,27; 9310,566;  446,960;40221,891;22,28440
 610,85; 9279,158;  452,660;40361,469;22,11667
 611,43; 9196,719;  453,661;40190,327;22,00250
 612,01; 9041,323;  428,579;39938,834;21,79876
 612,59; 9008,704;  437,122;40005,832;21,66253
 613,16; 8936,546;  400,803;40000,582;21,55503
 613,74; 8867,035;  391,816;39860,382;21,47334
 614,32; 8787,708;  378,203;39818,573;21,32208
 614,90; 8736,582;  368,735;39740,501;21,25342
 615,48; 8619,699;  336,420;39404,202;21,20233
 616,05; 8504,536;  326,033;39490,968;20,88221
 616,63; 8432,834;  335,569;39351,965;20,75349
 617,21; 8326,625;  332,883;39185,457;20,57455
 617,79; 8248,629;  313,578;39065,963;20,47629
 618,36; 8225,262;  330,580;39125,867;20,34959
 618,94; 8003,389;  261,959;38822,725;20,07592
 619,52; 7973,441;  292,032;38375,453;20,16996
 620,10; 7910,737;  285,269;38330,713;20,04305
 620,67; 7849,503;  295,723;38250,497;19,90205
 621,25; 7787,595;  306,350;38026,894;19,83334
 621,83; 7707,407;  298,651;38062,774;19,61850
 622,41; 7719,843;  328,959;38049,670;19,59370
 622,98; 7548,129;  308,800;37788,029;19,31558
 623,56; 7524,639;  314,030;37795,674;19,23771
 624,14; 7452,971;  289,659;37659,464;19,16872
 624,72; 7412,412;  301,805;37544,194;19,09278
 625,29; 7364,847;  282,799;37675,744;18,93953
 625,87; 7328,126;  326,270;37619,830;18,77497
 626,45; 7219,871;  279,259;37344,439;18,72542
 627,02; 7130,513;  287,732;37357,465;18,45921
 627,60; 7122,134;  271,817;37247,702;18,52645
 628,18; 7037,570;  253,730;37361,161;18,28162
 628,76; 7004,303;  261,724;37356,021;18,17686
 629,33; 6937,677;  296,726;37384,113;17,90622
 629,91; 6919,122;  278,346;37340,329;17,91803
 630,49; 6915,985;  296,956;37449,416;17,81586
 631,06; 6874,803;  287,340;37625,831;17,64255
 631,64; 6785,583;  293,568;37572,200;17,41484
 632,22; 6762,061;  254,949;37478,527;17,48116
 632,79; 6776,576;  288,257;37824,059;17,28568
 633,37; 6734,969;  277,349;37826,435;17,19781
 633,95; 6720,822;  270,644;37963,712;17,11237
 634,52; 6683,322;  272,189;38068,796;16,96219
 635,10; 6644,106;  282,499;38029,680;16,85320
 635,68; 6686,771;  274,949;38237,268;16,88996
 636,25; 6609,083;  266,637;38241,039;16,70190
 636,83; 6602,765;  254,878;38432,405;16,62729
 637,41; 6572,464;  251,487;38505,802;16,52357
 637,98; 6600,479;  285,409;38627,908;16,47016
 638,56; 6575,052;  273,867;38771,280;16,36782
 639,13; 6498,891;  265,800;38871,974;16,14532
 639,71; 6541,893;  311,878;39154,614;16,03907
 640,29; 6379,290;  246,955;38826,648;15,89524
 640,86; 6387,933;  252,032;38988,317;15,84019
 641,44; 6380,806;  253,417;38967,062;15,82747
 642,02; 6370,987;  276,341;38914,962;15,77346
 642,59; 6314,784;  253,879;39161,323;15,57775
 643,17; 6301,658;  263,110;39098,531;15,54907
 643,74; 6286,531;  249,111;39141,738;15,52330
 644,32; 6238,097;  286,649;39185,253;15,29990
 644,89; 6207,817;  280,649;39099,692;15,26871
 645,47; 6237,921;  291,111;39116,437;15,31683
 646,05; 6154,180;  286,111;39135,414;15,10469
 646,62; 6055,284;  264,189;39107,852;14,90873
 647,20; 6116,696;  269,497;39209,444;15,01594
 647,77; 6016,416;  249,804;39035,729;14,86779
 648,35; 5991,520;  245,420;39003,398;14,82559
 648,92; 6005,624;  272,651;39009,682;14,79972
 649,50; 5957,190;  234,882;38843,966;14,82114
 650,08; 5904,602;  246,882;38764,251;14,68875
 650,65; 5909,630;  238,036;39112,535;14,58950
 651,23; 5958,734;  220,421;39827,512;14,48810
 651,80; 6112,300;  233,729;40797,488;14,49217
 652,38; 6118,558;  246,499;41191,465;14,34135
 652,95; 6137,355;  227,268;41534,057;14,30779
 653,53; 6189,305;  255,961;41894,187;14,24975
 654,10; 6201,641;  281,576;41945,318;14,20915
 654,68; 6128,283;  241,577;41909,064;14,12782
 655,25; 6137,388;  238,192;41917,579;14,15375
 655,83; 6140,108;  237,423;42057,709;14,11440
 656,40; 6109,520;  264,500;42034,840;13,99323
 656,98; 6076,624;  239,270;41918,278;14,00550
 657,55; 6037,421;  252,347;41811,332;13,92015
 658,13; 5951,063;  241,116;41390,693;13,87608
 658,70; 5923,245;  266,270;41249,977;13,80298
 659,28; 5741,503;  236,501;40241,339;13,76084
 659,85; 5578,300;  255,040;39406,315;13,59664
 660,43; 5651,558;  261,887;39494,676;13,73767
 661,00; 5595,970;  240,502;39551,730;13,62325
 661,58; 5646,920;  237,810;40107,784;13,56688
 662,15; 5586,871;  226,503;40183,453;13,41536
 662,73; 5711,744;  300,272;40518,660;13,45522
 663,30; 5659,695;  244,042;40675,406;13,39468
 663,88; 5687,646;  254,965;40897,306;13,36705
 664,45; 5680,827;  244,734;41079,282;13,31248
 665,03; 5705,854;  242,658;41416,797;13,26851
 665,60; 5817,343;  323,504;41846,697;13,23077
 666,17; 5759,832;  247,658;41960,520;13,21457
 666,75; 5807,860;  249,735;42413,650;13,18218
 667,32; 5847,656;  268,505;42639,396;13,16742
 667,90; 5841,376;  244,582;42979,604;13,09650
 668,47; 5877,557;  273,274;43192,888;13,05763
 669,05; 5909,200;  237,582;43631,019;13,07022
 669,62; 5876,381;  231,583;43641,611;13,00344
 670,19; 5917,640;  232,198;43783,433;13,05460
 670,77; 5920,129;  248,198;43903,025;12,99268
 671,34; 5887,925;  243,353;43823,310;12,95222
 671,92; 5925,645;  231,737;44287,748;12,92425
 672,49; 5908,903;  258,738;44173,340;12,86626
 673,06; 5912,700;  215,507;44343,470;12,91062
 673,64; 5895,420;  232,661;44171,293;12,88788
 674,21; 5894,447;  220,046;44244,347;12,88925
 674,79; 5893,705;  250,508;44513,323;12,74930
 675,36; 5945,656;  260,585;44484,223;12,85528
 675,93; 5909,837;  219,508;44374,123;12,88728
 676,51; 5955,172;  256,816;44710,176;12,81873
 677,08; 5899,738;  241,124;44763,692;12,70954
 677,65; 5959,073;  250,047;44833,976;12,80512
 678,23; 5974,101;  253,509;45032,876;12,77506
 678,80; 5934,436;  240,971;45153,160;12,67688
 679,38; 5930,002;  240,048;45315,367;12,62321
 679,95; 6021,798;  241,510;45585,344;12,74768
 680,52; 6048,210;  246,664;45759,705;12,74700
 681,10; 6127,392;  255,126;46247,374;12,76795
 681,67; 6149,496;  254,664;46474,505;12,75390
 682,24; 6142,447;  234,126;46637,789;12,73244
 682,82; 6223,012;  238,050;47233,381;12,73523
 683,39; 6291,963;  280,973;47459,127;12,74105
 683,96; 6324,221;  245,665;47797,719;12,78295
 684,54; 6324,633;  227,589;48127,234;12,72879
 685,11; 6396,584;  269,666;48378,288;12,73559
 685,68; 6492,227;  246,358;48929,495;12,82963
 686,25; 6481,177;  229,436;49081,164;12,79738
 686,83; 6497,666;  244,897;49196,602;12,77334
 687,40; 6510,770;  219,205;49533,271;12,75816
 687,97; 6621,336;  269,667;49965,556;12,78108
 688,55; 6589,210;  222,129;49932,071;12,80847
 689,12; 6617,237;  214,206;50320,663;12,77885
 689,69; 6670,419;  222,899;50349,716;12,86242
 690,26; 6707,677;  246,130;50497,462;12,85846
 690,84; 6719,012;  245,361;50658,285;12,84125
 691,41; 6731,501;  248,822;50775,800;12,83013
 691,98; 6768,759;  254,823;51050,469;12,82381
 692,56; 6757,479;  233,284;51139,369;12,81614
 693,13; 6865,814;  283,592;51161,576;12,93727
 693,70; 6880,457;  266,823;51358,245;12,94470
 694,27; 6859,638;  254,285;51426,453;12,90810
 694,84; 6898,743;  234,131;51492,583;13,00198
 695,42; 6979,616;  288,362;51602,791;13,03971
 695,99; 6909,644;  251,132;51901,229;12,89158
 696,56; 6934,133;  233,747;51796,052;12,99474
 697,13; 7051,006;  253,594;52059,182;13,12100
 697,71; 7058,572;  221,517;52124,466;13,17277
 698,28; 7125,753;  241,825;52567,212;13,15600
 698,85; 7072,088;  218,672;52430,573;13,12616
 699,42; 7154,424;  217,903;52602,627;13,24150
 699,99; 7200,297;  269,364;52899,758;13,16907
 700,57; 7184,171;  250,288;52759,427;13,20510
 701,14; 7266,583;  239,903;52950,788;13,33060
 701,71; 7319,610;  251,057;53144,841;13,36367
 702,28; 7283,407;  249,750;53175,587;13,28965
 702,85; 7351,511;  240,212;53278,641;13,40782
 703,43; 7374,616;  267,981;53533,464;13,34191
 704,00; 7487,105;  279,366;53798,363;13,46763
 704,57; 7437,055;  251,674;53675,417;13,44979
 705,14; 7568,544;  272,597;54065,932;13,56292
 705,71; 7579,725;  271,290;54061,216;13,58700
 706,28; 7578,291;  252,367;53901,808;13,65517
 706,86; 7629,319;  276,752;54297,400;13,61066
 707,43; 7671,423;  300,598;54147,300;13,68854
 708,00; 7699,912;  264,060;54117,123;13,80767
 708,57; 7699,324;  243,675;54126,561;13,83677
 709,14; 7756,352;  272,599;54215,230;13,87354
 709,71; 7787,071;  248,830;54312,438;13,94328
 710,28; 7859,637;  264,445;54427,876;14,02273
 710,86; 7873,665;  265,676;54698,083;13,97695
 711,43; 7940,461;  280,061;54701,983;14,07595
 712,00; 7965,950;  256,600;54690,575;14,16275
 712,57; 8016,439;  265,293;54991,705;14,16345
 713,14; 8034,697;  255,216;55000,451;14,21034
 713,71; 8072,263;  266,831;54936,505;14,27744
 714,28; 8062,752;  265,601;54977,558;14,25127
 714,85; 8028,626;  241,524;54659,535;14,30979
 715,42; 8143,807;  249,140;55004,127;14,41817
 716,00; 8203,681;  311,140;55111,181;14,40244
 716,57; 8198,324;  262,602;55229,773;14,43720
 717,14; 8246,582;  249,217;55154,826;14,56566
 717,71; 8244,609;  234,987;55096,957;14,59959
 718,28; 8349,406;  280,449;55273,164;14,67277
 718,85; 8304,587;  247,218;55374,218;14,61601
 719,42; 8421,461;  269,449;55454,810;14,77205
 719,99; 8393,565;  247,219;55223,709;14,81787
 720,56; 8514,977;  264,988;55553,840;14,92161
 721,13; 8527,005;  241,296;55688,124;14,94352
 721,70; 8582,032;  248,835;55484,255;15,08669
 722,27; 8601,752;  273,912;55549,770;15,06596
 722,84; 8749,164;  306,374;55677,900;15,24753
 723,41; 8733,191;  240,835;55715,569;15,30851
 723,98; 8807,526;  266,682;55931,161;15,34344
 724,55; 8873,323;  283,144;55921,215;15,43939
 725,12; 8856,351;  221,836;55925,192;15,50089
 725,69; 8996,840;  253,221;56131,091;15,64773
 726,27; 9023,944;  266,606;56193,145;15,65864
 726,84; 9119,125;  269,298;56558,891;15,72196
 727,41; 9189,614;  274,683;56495,175;15,85708
 727,98; 9271,488;  272,376;56762,306;15,93047
 728,55; 9308,977;  296,068;56619,205;16,00214
 729,12; 9331,389;  239,607;56799,951;16,07448
 729,69; 9396,109;  279,376;57065,620;16,05447
 730,26; 9455,751;  276,069;57301,443;16,09754
 730,82; 9461,240;  272,069;57015,958;16,19412
 731,39; 9569,345;  263,608;57200,396;16,34398
 731,96; 9609,526;  251,454;57379,758;16,38080
 732,53; 9734,784;  265,455;57658,119;16,49920
 733,10; 9800,504;  274,609;57655,326;16,60121
 733,67; 9873,608;  271,455;57940,841;16,65035
 734,24; 9817,867;  251,994;57573,126;16,68821
 734,81; 9876,125;  285,456;57668,949;16,71329
 735,38; 9894,844;  270,840;57484,925;16,82104
 735,95; 9911,026;  271,148;57348,594;16,88912
 736,52; 9958,515;  277,610;57559,878;16,90035
 737,09; 9979,465;  265,918;57244,547;17,04770
 737,66;10106,723;  307,072;57340,678;17,18224
 738,23;10128,212;  259,534;57458,193;17,25334
 738,80;10225,932;  314,919;57686,631;17,27509
 739,37;10289,113;  294,150;57997,146;17,32139
 739,94;10381,833;  266,765;58021,969;17,51369
 740,51;10520,707;  361,073;58162,869;17,57667
 741,07;10446,042;  257,304;57969,230;17,65448
 741,64;10569,300;  299,458;58260,591;17,71850
 742,21;10571,020;  268,459;58352,491;17,73734
 742,78;10602,817;  238,074;58040,006;17,93148
 743,35;10688,921;  267,921;58393,598;17,92839
 743,92;10813,179;  293,382;58500,806;18,07295
 744,49;10883,360;  272,075;58297,244;18,28738
 745,06;10891,696;  262,537;58309,990;18,31115
 745,63;10905,261;  246,922;58349,813;18,34391
 746,19;11055,058;  260,537;58279,174;18,60526
 746,76;11054,009;  260,614;58369,227;18,57452
 747,33;11081,267;  256,307;58286,589;18,65398
 747,90;11214,217;  280,384;58549,027;18,76452
 748,47;11181,014;  276,615;58454,850;18,74309
 749,04;11285,888;  273,000;58474,596;18,92197
 749,61;11335,607;  287,308;58464,495;18,99078
 750,17;11408,327;  285,693;58499,856;19,10641
 750,74;11426,893;  274,001;58413,910;19,18285
 751,31;11406,690;  257,078;58361,194;19,18902
 751,88;11459,486;  231,463;58242,479;19,35499
 752,45;11544,514;  261,617;58344,071;19,42565
 753,02;11579,157;  282,848;58210,355;19,50077
 753,58;11619,107;  249,232;58226,639;19,61087
 754,15;11705,750;  258,617;58347,616;19,70620
 754,72;11666,239;  247,156;58025,824;19,76349
 755,29;11703,882;  241,156;57871,723;19,89001
 755,86;11816,986;  262,387;58023,931;20,00396
 756,42;11879,167;  267,311;57938,600;20,13455
 756,99;11850,426;  228,388;57931,653;20,14104
 757,56;11933,222;  235,003;57765,245;20,33403
 758,13;12009,096;  200,234;57725,068;20,52828
 758,70;12087,431;  227,773;57822,122;20,59170
 759,26;12205,228;  223,696;57884,329;20,77940
 759,83;12277,947;  234,543;57974,152;20,85813
 760,40;12264,744;  219,928;57712,590;20,95018
 760,97;12346,387;  197,774;57783,567;21,09655
 761,53;12354,722;  193,697;57436,697;21,24456
 762,10;12410,519;  196,544;57388,905;21,35596
 762,67;12536,854;  229,313;57454,112;21,50736
 763,24;12432,958;  189,852;56929,781;21,57758
 763,80;12556,986;  228,314;57080,835;21,68536
 764,37;12557,936;  218,929;57096,119;21,69412
 764,94;12536,810;  215,391;56619,172;21,84502
 765,50;12587,453;  216,314;56701,841;21,90143
 766,07;12676,865;  252,622;56651,433;22,02926
 766,64;12676,738;  230,776;56431,872;22,14541
 767,21;12692,073;  225,777;56265,618;22,24542
 767,77;12692,024;  250,315;56115,825;22,27082
 768,34;12750,590;  239,239;56116,109;22,39093
 768,91;12839,002;  255,162;55937,317;22,59941
 769,47;12888,568;  245,008;55948,909;22,69780
 770,04;12868,672;  262,855;55841,962;22,68086
 770,61;12847,084;  240,086;55658,939;22,74857
 771,18;12880,112;  231,932;55498,454;22,88579
 771,74;12982,293;  246,932;55584,123;23,01411
 772,31;13031,089;  247,317;55284,253;23,22762
 772,88;12903,348;  225,471;55091,615;23,10692
 773,44;12998,375;  228,471;55019,130;23,30672
 774,01;13110,556;  246,010;55033,953;23,48062
 774,58;13050,738;  234,549;54714,775;23,52448
 775,14;13193,688;  230,703;54775,598;23,76572
 775,71;13274,639;  238,395;54690,421;23,94079
 776,27;13306,666;  283,857;54724,475;23,92113
 776,84;13450,617;  308,165;54764,067;24,13412
 777,41;13435,336;  245,165;54464,966;24,32722
 777,97;13402,364;  244,550;54181,635;24,39474
 778,54;13479,853;  259,012;54240,381;24,49149
 779,11;13519,880;  268,551;54182,666;24,57859
 779,67;13541,446;  228,166;54092,642;24,71625
 780,24;13578,704;  251,936;53933,388;24,82565
 780,80;13671,193;  269,013;53984,749;24,95019
 781,37;13665,759;  254,859;53989,264;24,95775
 781,94;13654,248;  246,783;53653,703;25,10436
 782,50;13754,660;  257,091;53683,833;25,26370
 783,07;13823,688;  281,937;53762,964;25,32066
 783,63;13831,561;  240,860;53436,556;25,54850
 784,20;13824,666;  273,399;53488,686;25,46499
 784,77;13815,924;  256,553;53280,586;25,57212
 785,33;13865,874;  229,784;52997,332;25,84181
 785,90;13870,979;  253,015;53002,078;25,81650
 786,46;13986,929;  269,861;52896,439;26,06491
 787,03;13983,418;  242,092;52744,339;26,17283
 787,59;14074,830;  248,631;52615,315;26,40266
 788,16;14089,089;  258,478;52575,292;26,43626
 788,73;14096,885;  265,401;52391,576;26,53462
 789,29;14141,220;  244,786;51910,014;26,89707
 789,86;14166,325;  267,171;51898,222;26,92015
 790,42;14205,583;  257,094;51859,737;27,03057
 790,99;14200,764;  272,479;51447,944;27,21672
 791,55;14209,407;  245,633;51501,152;27,24345
 792,12;14298,665;  265,556;51433,359;27,42566
 792,68;14289,770;  254,556;51144,874;27,57934
 793,25;14288,797;  265,941;50834,543;27,73036
 793,81;14316,209;  309,249;50529,058;27,89130
 794,38;14195,236;  217,557;50328,112;27,89368
 794,94;14249,264;  244,173;50104,243;28,08879
 795,51;14253,984;  257,788;49860,681;28,21649
 796,07;14251,011;  260,789;49633,504;28,33594
 796,64;14320,731;  264,712;49687,480;28,44037
 797,20;14264,912;  258,558;49121,303;28,66469
 797,77;14189,247;  229,328;48871,664;28,69911
 798,33;14239,659;  241,866;48671,641;28,90328
 798,90;14268,764;  274,636;48687,771;28,90564
 799,46;14168,483;  246,251;48125,363;29,07788
 800,03;14205,665;  270,790;48025,109;29,18034
 800,59;14185,769;  272,713;47941,624;29,18685
 801,15;14169,027;  258,175;47589,524;29,39036
 801,72;14160,978;  252,406;47287,732;29,57048
 802,28;14105,928;  285,560;46983,631;29,59516
 802,85;14071,340;  249,330;46889,300;29,63555
 803,41;14119,983;  246,561;46712,892;29,85693
 803,98;14073,780;  249,484;46328,330;30,00139
 804,54;14107,884;  249,946;46006,846;30,28601
 805,11;14105,912;  258,485;45810,130;30,39940
 805,67;14094,401;  272,100;45752,414;30,39183
 806,23;14020,043;  262,408;45267,006;30,56940
 806,80;14063,302;  275,562;45117,444;30,74746
 807,36;14108,868;  282,793;45013,267;30,90974
 807,93;14081,203;  286,024;44813,321;30,98140
 808,49;13964,076;  245,640;44510,144;30,99196
 809,05;13962,796;  234,640;44363,505;31,10924
 809,62;13963,131;  270,410;44212,405;31,16090
 810,18;14040,697;  263,871;44157,151;31,38710
 810,74;13994,263;  232,025;43883,896;31,52726
 811,31;14028,983;  245,872;43546,335;31,83132
 811,87;14056,164;  256,564;43534,004;31,88636
 812,44;14115,345;  283,949;43399,288;32,07999
 813,00;14025,373;  209,719;43112,880;32,20195
 813,56;14152,708;  260,950;43217,010;32,33946
 814,13;14194,966;  259,565;43157,449;32,48505
 814,69;14149,301;  251,719;42808,348;32,65668
 815,25;14108,790;  229,104;42601,479;32,75645
 815,82;14187,741;  275,335;42334,840;33,07791
 816,38;14171,460;  298,182;42184,817;33,12102
 816,94;14072,257;  235,490;41865,486;33,23749
 817,51;14007,438;  226,644;41713,001;33,21765
 818,07;14094,235;  242,105;41376,747;33,67510
 818,63;14009,724;  265,336;41247,262;33,53768
 819,20;14063,367;  249,798;41189,777;33,74103
 819,76;13947,933;  235,414;40615,138;33,95892
 820,32;14084,268;  268,952;40609,961;34,24633
 820,89;13967,680;  270,799;40403,553;34,12893
 821,45;13892,169;  233,338;40010,145;34,33868
 822,01;13890,273;  273,876;39788,660;34,45899
 822,57;13908,455;  267,107;39675,791;34,61508
 823,14;13873,867;  238,415;39514,075;34,71731
 823,70;13871,279;  241,108;39247,282;34,94362
 824,26;13797,614;  235,262;39008,797;34,97837
 824,82;13841,795;  257,570;38887,005;35,16548
 825,39;13785,976;  239,647;38619,828;35,29512
 825,95;13846,235;  261,878;38651,958;35,38507
 826,51;13689,262;  258,340;38153,550;35,44227
 827,08;13837,366;  278,417;38206,065;35,74951
 827,64;13754,701;  257,186;38029,657;35,73374
 828,20;13734,267;  242,956;37724,249;35,99479
 828,76;13774,372;  273,494;37724,072;36,04985
 829,32;13777,938;  275,879;37573,895;36,20047
 829,89;13740,119;  234,187;37475,256;36,26623
 830,45;13771,300;  253,572;37367,925;36,42183
 831,01;13731,635;  241,188;37192,517;36,50869
 831,57;13823,278;  252,188;37083,494;36,84662
 832,14;13855,921;  246,496;37046,163;36,98247
 832,70;13793,641;  233,111;36757,370;37,12746
 833,26;13802,437;  214,189;36663,808;37,27953
 833,82;13856,926;  238,343;36525,016;37,53054
 834,38;13868,338;  233,804;36584,069;37,50876
 834,95;13884,135;  234,882;36441,892;37,69782
 835,51;13901,009;  205,343;36314,946;37,92804
 836,07;14004,728;  243,190;36355,615;38,10749
 836,63;14042,217;  262,882;36381,668;38,15005
 837,19;14085,399;  247,421;36206,645;38,48241
 837,75;13998,888;  215,421;35942,391;38,58000
 838,32;14123,992;  258,268;36010,829;38,78246
 838,88;14164,173;  257,499;36027,575;38,87796
 839,44;14164,970;  251,499;35891,705;39,03869
 840,00;14228,305;  248,961;35852,067;39,26440
 840,56;14106,025;  224,422;35544,428;39,30238
 841,12;14180,437;  231,346;35616,482;39,42076
 841,68;14210,926;  218,654;35367,151;39,80902
 842,25;14206,569;  231,039;35432,358;39,70172
 842,81;14126,519;  224,193;35091,796;39,87176
 843,37;14242,162;  205,270;35087,311;40,24103
 843,93;14224,651;  234,885;35064,749;40,16601
 844,49;14314,986;  240,578;35030,880;40,45498
 845,05;14259,398;  202,040;34888,395;40,52706
 845,61;14294,964;  253,809;34860,756;40,57323
 846,17;14298,761;  233,040;34734,348;40,76866
 846,73;14292,711;  242,810;34729,863;40,73964
 847,29;14277,200;  215,733;34468,763;41,05175
 847,86;14296,612;  221,118;34521,817;41,03559
 848,42;14276,871;  208,580;34236,024;41,34395
 848,98;14327,129;  241,811;34193,924;41,48584
 849,54;14300,618;  228,965;34233,670;41,38149
 850,10;14351,261;  237,734;34080,108;41,70371
 850,66;14260,365;  216,734;33874,469;41,72482
 851,22;14353,162;  212,504;33864,061;42,02081
 851,78;14402,881;  268,043;33891,807;42,03824
 852,34;14373,216;  237,274;33624,938;42,33882
 852,90;14365,321;  226,889;33522,991;42,46272
 853,46;14373,502;  218,120;33292,583;42,79852
 854,02;14420,606;  234,274;33293,791;42,91149
 854,58;14379,249;  221,659;32997,075;43,19576
 855,14;14424,584;  221,736;32969,359;43,37062
 855,70;14377,843;  196,121;32805,721;43,48941
 856,26;14468,639;  242,275;32805,159;43,68890
 856,82;14366,974;  229,429;32524,905;43,77562
 857,38;14432,310;  246,276;32449,035;44,05223
 857,94;14415,799;  240,430;32373,473;44,11462
 858,50;14448,134;  249,661;32173,527;44,47604
 859,06;14369,623;  224,892;32001,965;44,51238
 859,62;14428,035;  242,969;31978,326;44,69799
 860,18;14351,754;  227,738;31700,841;44,87646
 860,74;14313,705;  195,431;31622,280;44,92424
 861,30;14206,040;  207,893;31446,333;44,81065
 861,86;14361,298;  260,124;31459,925;45,19636
 862,42;14243,172;  226,662;31272,133;45,14832
 862,98;14279,353;  253,047;31308,571;45,16525
 863,54;14236,765;  233,971;31118,394;45,33934
 864,10;14313,947;  223,202;31050,293;45,70897
 864,66;14261,743;  208,202;30911,809;45,77163
 865,22;14296,386;  230,510;30695,324;46,17089
 865,78;14282,952;  229,895;30639,608;46,21240
 866,34;14223,825;  226,664;30513,200;46,21579
 866,90;14274,161;  236,895;30375,023;46,57644
 867,45;14208,650;  230,818;30249,076;46,56443
 868,01;14200,446;  235,511;30036,976;46,85990
 868,57;14142,551;  226,434;29866,799;46,94988
 869,13;14187,040;  211,204;29736,391;47,33530
 869,69;14177,682;  215,512;29661,214;47,41667
 870,25;14181,094;  209,512;29513,113;47,67872
 870,81;14245,045;  218,974;29522,167;47,86533
 871,37;14236,380;  225,974;29387,682;48,04385
 871,93;14271,715;  233,436;29172,197;48,51030
 872,49;14199,358;  253,897;29027,866;48,46554
 873,04;14141,770;  212,513;28819,304;48,69213
 873,60;14160,721;  219,667;28684,666;48,97613
 874,16;14147,594;  236,206;28544,181;49,14300
 874,72;14102,902;  222,437;28517,873;49,05549
 875,28;14141,210;  226,052;28424,873;49,34659
 875,84;14190,287;  226,590;28321,873;49,70121
 876,40;14182,056;  220,513;28379,412;49,58128
 876,95;14199,979;  239,129;28235,104;49,86735
 877,51;14297,056;  260,052;28329,873;50,00746
 878,07;14343,363;  269,744;28231,488;50,33169
 878,63;14273,517;  228,283;28280,027;50,06902
 879,19;14339,517;  235,898;28263,258;50,32090
 879,75;14382,979;  226,590;28335,642;50,36238
 880,30;14476,517;  230,821;28199,027;50,93532
 880,86;14600,902;  267,821;28385,488;50,97536
 881,42;14657,671;  216,667;28452,104;51,14496
 881,98;14794,825;  240,898;28461,335;51,57230
 882,54;14884,287;  224,744;28577,719;51,70372
 883,09;15095,440;  238,513;28735,488;52,13510
 883,65;15085,363;  214,283;28770,335;52,07681
 884,21;15302,363;  256,206;28987,565;52,36842
 884,77;15415,748;  221,360;28983,104;52,82847
 885,32;15470,671;  230,975;29187,642;52,62932
 885,88;15608,594;  259,283;29262,335;52,92309
 886,44;15721,210;  237,513;29484,642;52,94091
 887,00;15754,056;  254,360;29404,412;53,17210
 887,56;15916,748;  231,437;29648,488;53,32047
 888,11;15943,671;  236,360;29552,412;53,57922
 888,67;16148,748;  264,206;29822,412;53,73987
 889,23;16239,748;  237,667;29833,873;54,06801
 889,79;16164,056;  214,360;29723,027;54,05089
 890,34;16210,133;  239,360;29613,258;54,37063
 890,90;16407,440;  302,975;29761,181;54,66886
 891,46;16344,671;  225,667;29652,104;54,77729
 892,01;16394,594;  252,975;29674,104;54,86404
 892,57;16424,748;  252,821;29550,335;55,19897
 893,13;16398,363;  233,283;29317,873;55,57954
 893,69;16343,210;  227,129;29388,719;55,26475
 894,24;16355,748;  236,667;29281,335;55,49756
 894,80;16257,440;  231,052;29059,104;55,59303
 895,36;16232,133;  230,129;28942,873;55,73136
 895,91;16190,440;  231,206;28773,719;55,91391
 896,47;16261,671;  258,975;28624,412;56,41618
 897,03;16145,902;  220,667;28386,335;56,54130
 897,58;16140,440;  238,821;28392,488;56,48152
 898,14;16105,056;  239,975;28132,565;56,87919
 898,70;16029,825;  209,667;27967,642;56,99320
 899,25;16084,210;  228,129;27958,719;57,17902
 899,81;16079,748;  250,590;27772,104;57,51558
 900,37;15959,594;  217,437;27573,104;57,54624
 900,92;15961,056;  240,283;27632,719;57,39093
 901,48;15977,056;  224,821;27419,488;57,92398
 902,03;15977,363;  223,513;27255,796;58,27791
 902,59;15941,902;  226,052;27215,412;58,22980
 903,15;15953,440;  256,052;26958,950;58,78534
 903,70;15860,825;  244,052;26687,181;59,05796
 904,26;15828,825;  217,744;26660,335;59,03764
 904,82;15790,902;  236,744;26648,488;58,89107
 905,37;15734,210;  240,052;26469,873;59,07077
 905,93;15616,671;  224,744;26360,104;58,89311
 906,48;15671,210;  239,667;26317,104;59,17584
 907,04;15624,517;  253,898;26173,181;59,30187
 907,60;15527,748;  224,975;25972,873;59,43310
 908,15;15482,440;  218,667;25883,104;59,47441
 908,71;15521,210;  250,513;25858,335;59,63294
 909,26;15443,825;  213,283;25706,950;59,74245
 909,82;15409,440;  257,437;25599,796;59,78924
 910,37;15372,363;  268,052;25525,796;59,80071
 910,93;15276,287;  219,744;25226,335;60,21030
 911,48;15180,594;  208,513;25048,181;60,27488
 912,04;15183,363;  216,590;24939,950;60,53697
 912,60;15199,825;  242,206;25022,488;60,36097
 913,15;15108,133;  235,975;24808,104;60,52450
 913,71;14987,517;  226,360;24581,642;60,60762
 914,26;15025,825;  204,360;24588,950;60,78210
 914,82;14973,517;  234,975;24467,873;60,82039
 915,37;15029,210;  226,898;24384,950;61,27279
 915,93;14996,440;  277,129;24278,258;61,32758
 916,48;14912,363;  216,283;24113,488;61,49707
 917,04;14952,133;  239,590;24033,642;61,83286
 917,59;14965,287;  254,129;23937,412;62,11621
 918,15;14856,210;  206,206;23718,181;62,30869
 918,70;14827,902;  226,283;23675,335;62,26955
 919,26;14873,287;  229,667;23483,565;62,97275
 919,81;14760,979;  212,975;23370,412;62,82217
 920,37;14772,363;  233,283;23301,335;63,02691
 920,92;14704,133;  241,975;23216,796;62,94786
 921,48;14626,748;  209,667;22934,027;63,44329
 922,03;14641,825;  218,437;23038,488;63,20489
 922,59;14710,902;  225,821;22863,565;63,98641
 923,14;14619,594;  223,975;22679,488;64,10728
 923,69;14595,517;  244,283;22620,642;64,13570
 924,25;14645,363;  248,513;22641,181;64,29270
 924,80;14528,671;  225,975;22275,796;64,86536
 925,36;14491,440;  219,744;22273,104;64,71439
 925,91;14465,748;  222,052;22124,873;65,03133
 926,47;14442,210;  209,667;22107,181;64,99616
 927,02;14485,748;  269,744;22038,335;65,30512
 927,57;14438,210;  220,975;21821,565;65,81873
 928,13;14411,287;  217,360;21776,642;65,83673
 928,68;14357,056;  221,283;21722,027;65,74551
 929,24;14229,748;  192,821;21528,642;65,79042
 929,79;14231,210;  216,052;21382,335;66,21454
 930,34;14149,287;  216,513;21190,642;66,42838
 930,90;14210,748;  215,898;21257,642;66,50993
 931,45;14214,363;  233,513;21206,719;66,66053
 932,01;14165,287;  231,360;21068,950;66,86919
 932,56;14099,902;  244,513;20865,642;67,19025
 933,11;14122,440;  256,437;20914,258;67,12230
 933,67;14023,517;  216,360;20690,488;67,43709
 934,22;14035,517;  221,283;20578,796;67,85816
 934,77;13960,825;  251,360;20507,642;67,68007
 935,33;13924,748;  233,975;20403,412;67,87881
 935,88;13915,133;  226,590;20301,335;68,18788
 936,43;13854,517;  218,975;20248,181;68,07830
 936,99;13899,287;  225,206;20154,719;68,61222
 937,54;13778,287;  212,513;19992,719;68,58257
 938,09;13851,671;  235,360;19954,412;69,05155
 938,65;13700,517;  230,437;19810,104;68,79627
 939,20;13683,287;  204,129;19720,104;69,06730
 939,75;13674,056;  217,360;19588,488;69,46780
 940,31;13644,979;  214,590;19526,642;69,54408
 940,86;13713,363;  228,744;19496,873;69,98406
 941,41;13710,671;  300,129;19384,873;70,26839
 941,96;13608,594;  217,590;19234,412;70,41663
 942,52;13563,979;  218,898;19187,027;70,35528
 943,07;13473,979;  200,283;19000,335;70,60457
 943,62;13471,825;  210,513;18923,565;70,86664
 944,18;13436,825;  204,667;18843,796;70,99129
 944,73;13406,287;  220,129;18759,181;71,12639
 945,28;13296,902;  200,898;18568,873;71,29803
 945,83;13353,979;  224,975;18574,873;71,54810
 946,39;13382,748;  214,590;18463,565;72,15834
 946,94;13369,517;  239,052;18505,642;71,88241
 947,49;13335,902;  225,590;18264,719;72,67708
 948,04;13378,133;  248,513;18248,181;72,94368
 948,59;13319,133;  237,129;18177,258;72,92034
 949,15;13279,056;  208,898;18127,104;72,94345
 949,70;13279,979;  211,283;18002,412;73,45625
 950,25;13252,594;  243,590;17877,258;73,77367
 950,80;13117,594;  190,129;17786,719;73,46574
 951,36;13125,517;  188,975;17675,027;73,98207
 951,91;13205,363;  236,129;17672,027;74,38237
 952,46;13022,517;  207,821;17485,873;74,16748
 953,01;13059,056;  238,283;17504,565;74,25323
 953,56;12946,671;  203,975;17356,642;74,28988
 954,11;12975,056;  221,283;17362,796;74,40284
 954,67;12964,517;  214,898;17186,104;75,12501
 955,22;12891,517;  202,129;17152,181;74,86342
 955,77;12868,056;  238,437;17072,488;75,02424
 956,32;12888,133;  267,283;16949,796;75,65317
 956,87;12735,748;  207,821;16783,565;75,57988
 957,42;12752,210;  210,206;16742,488;75,86372
 957,98;12769,825;  209,821;16680,873;76,25502
 958,53;12738,979;  240,437;16656,335;76,13682
 959,08;12625,440;  216,283;16515,642;76,13279
 959,63;12597,979;  214,283;16453,335;76,25874
 960,18;12588,671;  226,206;16438,873;76,25189
 960,73;12572,440;  214,513;16331,412;76,67683
 961,28;12473,210;  206,975;16188,027;76,75486
 961,83;12454,210;  241,667;16189,565;76,57775
 962,39;12390,748;  200,129;16034,719;76,98727
 962,94;12325,825;  231,360;16000,950;76,69486
 963,49;12233,594;  214,744;15862,104;76,81072
 964,04;12284,671;  232,052;15809,027;77,37458
 964,59;12189,748;  199,975;15702,950;77,33853
 965,14;12187,440;  234,206;15642,412;77,57707
 965,69;12065,210;  220,129;15507,950;77,48050
 966,24;12063,825;  213,437;15436,719;77,84384
 966,79;11997,671;  231,667;15336,258;77,89687
 967,34;11898,902;  199,052;15212,719;77,92800
 967,89;11971,825;  209,590;15114,104;78,91727
 968,44;11898,133;  226,206;15046,565;78,75603
 968,99;11862,594;  229,052;14984,565;78,84200
 969,55;11825,594;  227,283;14903,027;79,03048
 970,10;11770,979;  230,821;14821,642;79,09190
 970,65;11721,902;  233,513;14703,335;79,39551
 971,20;11672,671;  210,052;14610,488;79,59911
 971,75;11537,902;  201,206;14497,181;79,29992
 972,30;11532,056;  225,898;14445,873;79,50898
 972,85;11468,902;  206,513;14366,796;79,53505
 973,40;11397,594;  204,513;14167,565;80,16214
 973,95;11363,287;  224,360;14185,412;79,78573
 974,50;11307,287;  248,360;14086,950;79,91368
 975,05;11206,979;  224,206;13905,642;80,27500
 975,60;11229,748;  227,667;13878,950;80,59375
 976,15;11181,210;  216,052;13755,950;80,98405
 976,70;11121,056;  212,744;13693,335;80,91865
 977,25;11053,748;  228,667;13616,258;80,85907
 977,80;10942,133;  212,975;13398,565;81,37032
 978,35;10895,979;  231,590;13314,796;81,51204
 978,89;10833,363;  194,667;13252,873;81,47135
 979,44;10829,287;  216,744;13219,796;81,61578
 979,99;10718,979;  206,129;13049,488;81,85436
 980,54;10688,056;  236,513;12988,104;81,96266
 981,09;10598,210;  238,437;12832,565;82,25875
 981,64;10574,440;  231,360;12723,488;82,79678
 982,19;10587,056;  253,667;12714,719;82,92549
 982,74;10401,210;  233,667;12564,565;82,45581
 983,29;10332,825;  209,052;12400,027;83,04318
 983,84;10284,671;  228,513;12303,488;83,28098
 984,39;10304,363;  277,437;12298,181;83,41353
 984,94;10175,210;  198,129;12154,719;83,44420
 985,49;10180,825;  248,667;12060,335;84,08769
 986,03;10077,748;  239,206;11997,796;83,67110
 986,58; 9988,287;  271,360;11828,565;84,07678
 987,13; 9876,825;  228,898;11728,796;83,89576
 987,68; 9821,133;  239,437;11609,335;84,27249
 988,23; 9756,133;  231,821;11558,027;84,09093
 988,78; 9612,594;  215,283;11352,104;84,38056
 989,33; 9565,287;  235,898;11312,181;84,22852
 989,88; 9524,671;  261,975;11214,412;84,57201
 990,42; 9365,133;  220,667;11102,181;84,03671
 990,97; 9305,979;  220,283;10949,027;84,68555
 991,52; 9243,979;  248,975;10915,027;84,33302
 992,07; 9186,594;  256,667;10801,412;84,68605
 992,62; 9114,594;  241,052;10718,873;84,68881
 993,17; 8959,440;  244,590;10596,104;84,18914
 993,71; 8923,517;  236,744;10508,565;84,56897
 994,26; 8781,671;  220,667;10335,950;84,63435
 994,81; 8766,594;  246,129;10295,027;84,79005
 995,36; 8620,594;  235,052;10137,719;84,67963
 995,91; 8595,210;  228,821;10097,335;84,77861
 996,45; 8498,287;  232,513; 9939,719;85,15090
 997,00; 8328,902;  214,129; 9861,565;84,11326
 997,55; 8347,133;  235,513; 9794,335;84,86004
 998,10; 8288,363;  261,590; 9676,488;85,25608
 998,65; 8228,056;  223,975; 9595,027;85,41283
 999,19; 8141,133;  251,283; 9456,412;85,71146
 999,74; 8077,133;  278,975; 9402,104;85,47679
1000,29; 8037,902;  251,821; 9298,950;86,06135
1000,84; 7880,594;  231,744; 9158,950;85,68023
1001,38; 7834,056;  234,129; 9078,796;85,92666
1001,93; 7825,210;  242,437; 9040,335;86,18846
1002,48; 7660,748;  218,129; 8857,104;86,15165
1003,03; 7645,979;  236,052; 8843,104;86,09135
1003,57; 7576,440;  242,667; 8662,719;87,09891
1004,12; 7501,825;  267,052; 8632,565;86,48331
1004,67; 7421,594;  233,052; 8498,412;86,97192
1005,22; 7297,979;  223,437; 8366,565;86,87745
1005,76; 7188,517;  216,206; 8234,027;86,96018
1006,31; 7172,363;  247,283; 8191,796;87,16809
1006,86; 7088,440;  226,744; 8071,488;87,46870
1007,40; 6996,825;  218,590; 7946,335;87,71298
1007,95; 6910,210;  238,437; 7855,027;87,59527
1008,50; 6830,363;  234,360; 7722,488;88,08614
1009,04; 6765,287;  231,513; 7619,181;88,44163
1009,59; 6627,825;  247,744; 7518,027;87,75561
1010,14; 6521,979;  221,360; 7391,488;87,87317
1010,68; 6444,287;  234,283; 7255,873;88,44156
1011,23; 6366,210;  215,590; 7127,412;88,98696
1011,78; 6303,440;  240,129; 7102,796;88,35211
1012,32; 6259,287;  239,821; 7005,104;88,97581
1012,87; 6206,748;  259,206; 6943,412;88,97904
1013,42; 6123,440;  210,360; 6846,796;89,10024
1013,96; 6159,979;  261,360; 6832,565;89,76464
1014,51; 6050,825;  198,667; 6706,412;89,92606
1015,06; 6097,825;  190,360; 6751,488;90,03733
1015,60; 6141,287;  268,975; 6764,488;90,40566
1016,15; 6090,671;  215,052; 6756,335;89,82366
1016,69; 6167,979;  231,437; 6763,719;90,88006
1017,24; 6199,594;  196,283; 6787,796;91,07638
1017,79; 6287,517;  245,744; 6832,796;91,72196
1018,33; 6251,594;  220,821; 6814,104;91,46844
1018,88; 6370,517;  237,744; 6866,104;92,52324
1019,42; 6335,902;  221,437; 6870,104;91,96528
1019,97; 6361,133;  215,437; 6884,873;92,14716
1020,51; 6417,825;  248,206; 6918,335;92,49625
1021,06; 6378,671;  204,590; 6930,642;91,79353
1021,61; 6377,671;  187,898; 6853,258;92,86480
1022,15; 6389,825;  193,437; 6810,796;93,63838
1022,70; 6404,902;  225,206; 6826,950;93,60702
1023,24; 6354,133;  213,975; 6803,335;93,18292
1023,79; 6336,748;  222,898; 6735,258;93,88072
1024,33; 6287,363;  221,513; 6661,950;94,18383
1024,88; 6227,979;  233,437; 6588,873;94,32149
1025,42; 6083,748;  224,360; 6499,950;93,36792
1025,97; 6076,440;  212,898; 6359,719;95,39146
1026,51; 5927,825;  180,360; 6257,873;94,56936
1027,06; 5904,748;  212,129; 6224,027;94,68922
1027,60; 5802,594;  227,437; 6133,565;94,39614
1028,15; 5741,748;  232,052; 6013,565;95,29851
1028,69; 5644,363;  191,206; 5878,642;95,88077
1029,24; 5581,440;  211,129; 5852,181;95,20053
1029,78; 5512,748;  207,437; 5700,258;96,58628
1030,33; 5370,902;  193,360; 5620,796;95,39572
1030,87; 5358,210;  217,744; 5544,412;96,50434
1031,42; 5224,594;  199,513; 5511,565;94,59773
1031,96; 5175,902;  219,206; 5417,181;95,35821
1032,51; 5127,363;  208,898; 5315,412;96,31749
1033,05; 5078,671;  224,821; 5261,565;96,36880
1033,60; 4913,517;  180,590; 5120,796;95,80425
1034,14; 4891,902;  219,206; 5065,642;96,41509
1034,69; 4828,594;  212,898; 5014,873;96,12079
1035,23; 4736,671;  221,437; 4951,873;95,45070
1035,77; 4676,363;  215,590; 4875,335;95,73000
1036,32; 4599,594;  191,206; 4794,950;95,75659
1036,86; 4557,594;  214,667; 4770,719;95,32216
1037,41; 4486,748;  224,360; 4664,796;95,99030
1037,95; 4404,825;  185,513; 4588,642;95,82530
1038,50; 4380,517;  200,283; 4514,027;96,90502
1039,04; 4363,979;  232,667; 4480,642;97,25367
1039,58; 4277,287;  198,052; 4391,950;97,26595
1040,13; 4228,287;  209,821; 4376,412;96,44493
1040,67; 4198,594;  246,283; 4344,258;96,44548
1041,21; 4153,979;  239,975; 4268,412;97,15938
1041,76; 4053,671;  202,590; 4130,027;98,05584
1042,30; 4013,210;  205,360; 4121,488;97,23505
1042,85; 3950,825;  207,360; 4036,796;97,75499
1043,39; 3896,517;  202,052; 3977,719;97,84934
1043,93; 3915,056;  230,129; 3965,719;98,64376
1044,48; 3838,133;  225,744; 3904,335;98,20035
1045,02; 3772,902;  209,590; 3804,258;99,12771
1045,56; 3757,979;  238,744; 3770,642;99,64145
1046,11; 3714,902;  230,590; 3755,873;98,83779
1046,65; 3677,517;  220,206; 3681,719;99,87861
1047,19; 3622,902;  204,975; 3618,412;100,13155
1047,74; 3556,363;  194,667; 3528,873;100,82450
1048,28; 3514,748;  223,206; 3535,412;99,37614
1048,82; 3517,902;  244,744; 3506,181;100,35939
1049,37; 3443,979;  223,975; 3444,642;99,97940
1049,91; 3414,363;  217,821; 3417,335;99,90714
1050,45; 3374,210;  227,590; 3377,719;99,88859
1050,99; 3345,594;  216,744; 3306,873;101,25306
1051,54; 3260,210;  210,975; 3262,335;99,93036
1052,08; 3273,517;  234,590; 3226,796;101,56143
1052,62; 3237,440;  239,283; 3178,642;102,00037
1053,16; 3142,594;  217,437; 3109,335;101,15010
1053,71; 3120,210;  225,667; 3088,027;101,12434
1054,25; 3108,671;  234,129; 3042,104;102,37065
1054,79; 3053,979;  223,821; 2991,258;102,26640
1055,33; 2950,287;  194,975; 2892,873;102,12808
1055,88; 2966,671;  228,590; 2926,796;101,47783
1056,42; 2953,363;  236,821; 2891,027;102,34859
1056,96; 2891,671;  236,898; 2825,873;102,54147
1057,50; 2865,133;  228,129; 2797,796;102,62044
1058,05; 2817,440;  220,052; 2745,796;102,83656
1058,59; 2812,056;  232,590; 2715,719;103,87964
1059,13; 2700,517;  206,206; 2624,642;103,13736
1059,67; 2712,748;  222,052; 2633,719;103,27694
1060,21; 2625,440;  227,437; 2581,181;101,88039
1060,76; 2596,440;  236,667; 2548,950;102,05383
1061,30; 2613,671;  250,513; 2537,565;103,32768
1061,84; 2563,671;  233,513; 2464,181;104,46012
1062,38; 2474,825;  214,821; 2407,796;103,05653
1062,92; 2525,363;  259,513; 2438,796;103,97228
1063,46; 2453,594;  238,206; 2377,873;103,53892
1064,01; 2418,748;  223,590; 2308,719;105,27684
1064,55; 2395,287;  229,437; 2278,181;105,71598
1065,09; 2358,287;  196,744; 2234,027;106,09928
1065,63; 2363,671;  258,898; 2275,642;104,36490
1066,17; 2329,594;  254,975; 2250,642;103,95617
1066,71; 2296,979;  246,667; 2217,719;104,02118
1067,25; 2258,133;  230,206; 2156,488;105,27670
1067,80; 2277,748;  243,360; 2149,719;106,71588
1068,34; 2257,748;  260,052; 2148,950;105,75987
1068,88; 2161,748;  225,283; 2081,258;104,33682
1069,42; 2200,979;  254,437; 2088,181;106,15124
1069,96; 2139,210;  238,590; 2014,565;107,01836
1070,50; 2164,902;  254,898; 2044,258;106,74231
1071,04; 2065,133;  217,898; 1960,027;106,03318
1071,58; 2066,287;  223,667; 1952,335;106,59189
1072,12; 2042,825;  229,283; 1930,642;106,59371
1072,66; 2059,671;  229,052; 1914,104;108,63874
1073,21; 2034,979;  240,744; 1917,950;106,97761
1073,75; 1982,440;  245,437; 1871,565;106,81834
1074,29; 1958,133;  234,283; 1851,258;106,60956
1074,83; 1940,517;  257,283; 1843,642;106,10675
1075,37; 1939,363;  249,129; 1828,412;107,02546
1075,91; 1905,671;  242,744; 1790,104;107,46868
1076,45; 1876,902;  235,590; 1773,950;106,69232
1076,99; 1841,056;  249,898; 1745,335;106,40088
1077,53; 1814,363;  220,052; 1713,488;106,75456
1078,07; 1801,133;  228,437; 1713,950;105,86886
1078,61; 1783,517;  234,360; 1670,258;107,88772
1079,15; 1739,440;  238,206; 1639,412;107,13877
1079,69; 1725,287;  225,744; 1633,027;106,55587
1080,23; 1738,825;  254,129; 1633,796;107,61262
1080,77; 1733,671;  267,052; 1646,104;106,34982
1081,31; 1665,594;  225,821; 1581,642;106,19196
1081,85; 1683,517;  249,283; 1560,950;109,34439
1082,39; 1638,594;  227,437; 1537,719;107,69872
1082,93; 1634,979;  246,975; 1544,412;106,98048
1083,47; 1573,748;  230,590; 1494,335;106,28398
1084,01; 1619,363;  247,590; 1503,719;109,20640
1084,55; 1568,287;  227,590; 1449,104;109,75697
1085,09; 1557,979;  252,744; 1463,412;107,81117
1085,63; 1527,363;  239,206; 1461,027;105,42932
1086,17; 1502,517;  228,129; 1410,642;107,76947
1086,71; 1504,210;  225,590; 1403,950;108,50841
1087,24; 1506,517;  251,821; 1425,873;106,86888
1087,78; 1490,979;  247,513; 1391,873;108,66037
1088,32; 1436,594;  229,052; 1347,181;107,99670
1088,86; 1448,517;  251,975; 1361,796;107,81398
1089,40; 1424,133;  245,744; 1326,104;109,07372
1089,94; 1378,440;  219,129; 1296,719;107,58369
1090,48; 1370,210;  254,744; 1307,642;105,94239
1091,02; 1384,671;  249,667; 1296,796;108,39199
1091,56; 1369,133;  248,667; 1270,873;109,61251
1092,10; 1330,748;  225,744; 1243,796;108,54101
1092,63; 1340,594;  262,821; 1270,335;106,97357
1093,17; 1338,056;  257,744; 1241,488;109,81630
1093,71; 1291,979;  228,052; 1212,488;108,07471
1094,25; 1296,210;  260,821; 1198,642;110,40362
1094,79; 1250,056;  236,206; 1177,181;107,74463
1095,33; 1265,979;  235,744; 1167,642;110,55228
1095,87; 1227,902;  229,667; 1172,104;105,92062
1096,40; 1192,902;  218,437; 1133,258;106,51977
1096,94; 1197,363;  242,437; 1127,027;107,95131
1097,48; 1202,363;  245,283; 1121,258;109,25891
1098,02; 1158,748;  233,129; 1089,796;108,04886
1098,56; 1132,440;  203,437; 1066,027;107,69930
1099,10; 1135,517;  219,206; 1061,412;108,79901
1099,63; 1136,056;  203,821; 1055,335;109,47973
1100,17; 1136,902;  247,744; 1059,642;109,51593
1100,71; 1153,440;  261,667; 1069,719;110,36086

