
Integration time [ms]: 120,000
Averaging Nr. [scans]: 13
Smoothing Nr. [pixels]: 0
Data measured with spectrometer [name]: 2009305U1
Wave   ;Sample   ;Dark     ;Reference;Reflectance
[nm]   ;[counts] ;[counts] ;[counts] ;[%]

 175,72;  204,741;  202,673;  202,814; 0,00000
 176,32;  228,837;  225,431;  219,229; 0,00000
 176,92;  254,112;  241,593;  259,926;68,28893
 177,52;  256,555;  251,671;  258,560;70,89585
 178,12;  236,077;  228,123;  221,690; 0,00000
 178,72;  269,290;  262,428;  250,906; 0,00000
 179,32;  253,976;  256,969;  246,180; 0,00000
 179,92;  255,008;  244,743;  247,528;368,59543
 180,52;  241,596;  240,295;  251,040;12,11526
 181,12;  252,151;  250,513;  250,351; 0,00000
 181,73;  277,983;  264,591;  277,112;106,96133
 182,33;  359,479;  344,982;  351,462;223,71257
 182,93;  273,342;  260,594;  266,980;199,63071
 183,53;  237,806;  240,272;  226,189; 0,00000
 184,13;  237,168;  234,428;  232,913; 0,00000
 184,73;  280,195;  272,348;  270,276; 0,00000
 185,33;  264,238;  227,895;  345,845;30,81185
 185,93;  268,028;  241,810;  363,162;21,60432
 186,53;  289,583;  245,969;  383,769;31,65030
 187,13;  298,569;  274,977;  418,310;16,45923
 187,73;  272,919;  236,042;  378,887;25,81621
 188,33;  264,843;  240,114;  373,931;18,47955
 188,93;  275,075;  258,330;  373,870;14,49281
 189,53;  284,060;  257,396;  374,368;22,79503
 190,13;  317,048;  277,224;  424,265;27,08394
 190,73;  250,586;  216,698;  365,464;22,77944
 191,34;  295,964;  258,249;  403,767;25,91777
 191,94;  272,480;  218,263;  371,997;35,26641
 192,54;  292,541;  243,523;  387,787;33,97812
 193,14;  296,488;  247,900;  396,592;32,67723
 193,74;  288,140;  257,129;  400,532;21,62530
 194,34;  285,384;  240,671;  386,728;30,61341
 194,94;  252,660;  220,361;  356,781;23,67580
 195,54;  235,925;  204,742;  327,334;25,43624
 196,14;  252,788;  227,827;  378,689;16,54600
 196,74;  250,952;  222,971;  359,044;20,56342
 197,34;  236,575;  197,063;  371,027;22,71298
 197,94;  253,273;  228,132;  384,373;16,09166
 198,54;  270,081;  235,596;  395,794;21,52670
 199,14;  241,150;  219,374;  388,308;12,89029
 199,74;  231,440;  202,220;  401,273;14,67949
 200,34;  221,932;  196,990;  393,795;12,67346
 200,94;  253,379;  228,446;  426,289;12,60217
 201,54;  248,447;  204,218;  443,961;18,44835
 202,14;  267,885;  229,608;  481,986;15,16635
 202,74;  248,277;  219,912;  475,274;11,10772
 203,34;  227,265;  188,920;  492,839;12,61683
 203,94;  217,412;  167,224;  499,348;15,11119
 204,54;  279,603;  245,363;  589,973; 9,93573
 205,14;  247,058;  199,220;  600,798;11,91257
 205,74;  302,069;  236,688;  696,371;14,22296
 206,34;  263,734;  209,069;  707,819;10,96023
 206,94;  282,490;  215,837;  774,562;11,92932
 207,54;  250,647;  180,146;  806,666;11,25285
 208,14;  283,509;  214,378;  884,062;10,32301
 208,74;  292,049;  211,373;  951,337;10,90263
 209,34;  289,896;  194,759; 1045,915;11,17740
 209,94;  308,378;  216,528; 1149,937; 9,84028
 210,54;  318,922;  213,302; 1239,675;10,29060
 211,14;  328,336;  218,374; 1375,700; 9,50143
 211,73;  337,887;  201,448; 1478,977;10,67989
 212,33;  357,858;  217,908; 1586,632;10,22487
 212,93;  344,468;  205,834; 1714,331; 9,19021
 213,53;  328,800;  178,220; 1776,071; 9,42396
 214,13;  370,963;  200,076; 1832,252;10,46987
 214,73;  344,269;  190,377; 1872,755; 9,14729
 215,33;  329,993;  173,143; 1893,014; 9,11988
 215,93;  379,767;  201,842; 2020,959; 9,78083
 216,53;  353,181;  158,603; 2108,122; 9,98081
 217,13;  414,274;  216,302; 2311,821; 9,44740
 217,73;  409,501;  194,611; 2514,042; 9,26474
 218,33;  400,964;  147,770; 2710,446; 9,88008
 218,93;  452,861;  176,163; 3006,310; 9,77682
 219,53;  492,485;  183,770; 3305,411; 9,88952
 220,13;  516,091;  156,541; 3596,351;10,45260
 220,73;  566,958;  191,836; 3941,482;10,00421
 221,32;  605,433;  182,912; 4363,260;10,10733
 221,92;  660,898;  190,848; 4775,100;10,25357
 222,52;  712,664;  174,227; 5205,811;10,70114
 223,12;  787,304;  171,612; 5659,397;11,21930
 223,72;  833,286;  195,843; 6067,054;10,85709
 224,32;  896,878;  201,998; 6450,584;11,12060
 224,92;  918,233;  183,767; 6756,102;11,17512
 225,52; 1001,857;  200,684; 7072,450;11,65891
 226,12; 1046,431;  193,225; 7427,116;11,79456
 226,72; 1083,131;  164,840; 7739,306;12,12351
 227,31; 1134,025;  160,994; 8128,208;12,21294
 227,91; 1231,083;  178,452; 8522,116;12,61594
 228,51; 1269,752;  181,909; 8913,420;12,45883
 229,11; 1360,737;  182,301; 9324,768;12,88970
 229,71; 1401,303;  175,219; 9553,884;13,07312
 230,31; 1474,223;  170,000;10006,581;13,25892
 230,91; 1550,942;  162,060;10330,474;13,65879
 231,51; 1613,471;  162,304;10694,483;13,77842
 232,10; 1673,532;  171,616;11055,467;13,79949
 232,70; 1725,538;  189,671;11322,958;13,79527
 233,30; 1846,127;  200,534;11530,911;14,52373
 233,90; 1860,097;  179,764;11686,583;14,60293
 234,50; 1922,456;  181,534;11918,588;14,83270
 235,10; 1984,387;  166,536;11994,333;15,36931
 235,70; 2023,702;  187,221;12088,487;15,43097
 236,29; 2050,223;  187,988;12111,897;15,61765
 236,89; 2056,934;  166,599;12029,823;15,93441
 237,49; 2094,878;  197,687;11971,528;16,11361
 238,09; 2092,503;  176,993;11716,511;16,59957
 238,69; 2133,078;  218,442;11547,115;16,90080
 239,29; 2070,898;  172,223;11220,918;17,18462
 239,89; 2042,040;  193,907;10971,228;17,14836
 240,48; 1994,781;  176,531;10591,259;17,45845
 241,08; 1939,998;  175,145;10224,619;17,56165
 241,68; 1894,559;  196,993; 9925,720;17,44901
 242,28; 1855,349;  168,918; 9604,373;17,87334
 242,88; 1840,330;  214,538; 9311,832;17,87116
 243,48; 1792,357;  207,533; 8999,871;18,02506
 244,07; 1717,438;  190,298; 8722,403;17,89875
 244,67; 1681,243;  200,070; 8626,684;17,57732
 245,27; 1664,810;  198,602; 8464,284;17,73850
 245,87; 1611,495;  202,768; 8392,547;17,20104
 246,47; 1617,763;  190,295; 8414,382;17,35716
 247,06; 1562,345;  179,146; 8363,177;16,90120
 247,66; 1552,557;  176,685; 8450,657;16,62891
 248,26; 1584,968;  217,295; 8599,618;16,31615
 248,86; 1574,343;  200,757; 8748,312;16,06994
 249,46; 1552,104;  157,457; 8985,134;15,79857
 250,05; 1587,124;  203,377; 9328,022;15,16494
 250,65; 1603,129;  168,832; 9752,153;14,96659
 251,25; 1661,279;  174,760;10184,430;14,85083
 251,85; 1712,226;  191,137;10734,774;14,42661
 252,44; 1701,173;  155,835;11399,855;13,74365
 253,04; 1794,804;  197,451;12181,097;13,32944
 253,64; 1814,509;  155,678;12806,281;13,11267
 254,24; 1921,526;  195,146;13819,981;12,67083
 254,84; 1999,027;  170,996;14760,980;12,52936
 255,43; 2096,153;  175,527;15673,602;12,39267
 256,03; 2143,764;  178,063;16632,867;11,94607
 256,63; 2223,904;  183,214;17740,187;11,62324
 257,23; 2263,037;  177,907;18504,473;11,37764
 257,82; 2354,752;  190,672;19507,424;11,20312
 258,42; 2360,918;  145,747;20302,163;10,98991
 259,02; 2492,576;  190,682;21198,699;10,95722
 259,62; 2502,396;  173,669;21930,235;10,70356
 260,21; 2527,803;  179,989;22397,750;10,56729
 260,81; 2554,312;  187,994;22933,955;10,40325
 261,41; 2560,562;  162,594;23400,776;10,31908
 262,01; 2620,480;  205,975;23824,308;10,22301
 262,60; 2616,499;  158,984;24167,088;10,23619
 263,20; 2669,428;  164,756;24460,117;10,30926
 263,80; 2694,022;  201,359;24601,526;10,21576
 264,40; 2664,931;  163,976;24723,670;10,18317
 264,99; 2692,459;  187,974;24932,785;10,12125
 265,59; 2737,104;  179,353;25036,733;10,28970
 266,19; 2752,389;  165,821;25188,490;10,33690
 266,78; 2832,400;  212,895;25312,266;10,43654
 267,38; 2830,087;  186,739;25277,200;10,53527
 267,98; 2854,980;  172,049;25385,041;10,64107
 268,58; 2884,365;  188,354;25331,948;10,72246
 269,17; 2925,931;  171,427;25344,257;10,94237
 269,77; 2927,861;  191,520;25145,525;10,96554
 270,37; 2934,846;  163,205;25022,926;11,14913
 270,96; 3005,045;  215,441;24936,068;11,28452
 271,56; 2985,490;  174,753;24681,858;11,46907
 272,16; 2981,553;  178,979;24415,776;11,56330
 272,75; 3015,071;  177,210;24341,755;11,74390
 273,35; 3068,853;  187,057;24250,780;11,97569
 273,95; 3105,668;  186,287;24241,027;12,13641
 274,54; 3115,280;  175,300;24275,778;12,19885
 275,14; 3263,419;  200,519;24642,891;12,53111
 275,74; 3290,443;  153,825;24701,154;12,77784
 276,33; 3430,432;  213,136;25015,994;12,97147
 276,93; 3508,110;  195,455;25489,552;13,09655
 277,53; 3645,513;  185,065;26006,631;13,40139
 278,12; 3731,520;  172,215;26618,996;13,45837
 278,72; 3956,166;  216,219;27075,304;13,92433
 279,32; 4044,281;  186,064;27665,976;14,04014
 279,91; 4191,836;  164,832;28374,510;14,27526
 280,51; 4388,463;  172,373;28907,973;14,67201
 281,11; 4565,806;  183,525;29638,489;14,87791
 281,70; 4701,877;  165,370;30074,476;15,16764
 282,30; 4877,105;  181,214;30776,550;15,34839
 282,90; 5046,060;  178,752;31071,250;15,75563
 283,49; 5248,297;  191,519;31703,206;16,04731
 284,09; 5458,113;  213,908;32174,372;16,40841
 284,69; 5668,331;  201,602;32551,480;16,89876
 285,28; 5816,130;  201,523;32877,715;17,18256
 285,88; 6046,200;  235,209;33144,707;17,65749
 286,47; 6107,386;  184,368;33220,054;17,92915
 287,07; 6302,068;  209,679;33248,088;18,44032
 287,67; 6507,434;  204,456;33355,794;19,01274
 288,26; 6662,671;  172,448;33241,410;19,62633
 288,86; 6879,388;  179,754;33428,826;20,14984
 289,46; 7160,262;  192,063;33471,747;20,93830
 290,05; 7355,835;  174,837;33601,850;21,48262
 290,65; 7654,841;  180,521;33802,888;22,23020
 291,24; 7916,814;  188,988;33879,003;22,93803
 291,84; 8229,981;  206,368;34112,571;23,66414
 292,44; 8521,671;  191,072;34235,115;24,47006
 293,03; 8801,261;  241,449;34378,031;25,07519
 293,63; 9042,031;  179,598;34411,921;25,88908
 294,22; 9305,436;  205,832;34641,153;26,42521
 294,82; 9485,266;  186,438;34577,243;27,03870
 295,41; 9622,261;  169,832;34333,169;27,66834
 296,01; 9747,117;  219,286;34338,309;27,92527
 296,61; 9863,740;  198,218;34063,374;28,54120
 297,20; 9865,156;  189,978;33632,022;28,93118
 297,80; 9971,650;  203,223;33573,652;29,27270
 298,39; 9924,842;  174,983;33088,159;29,62297
 298,99;10007,151;  220,749;32950,935;29,90023
 299,58;10001,876;  203,609;32750,873;30,10474
 300,18;10031,276;  204,683;32613,290;30,32094
 300,78;10020,105;  186,527;32260,315;30,65923
 301,37;10008,579;  187,512;32215,892;30,66364
 301,97;10092,233;  196,140;32287,880;30,83688
 302,56;10062,761;  183,983;32152,209;30,90187
 303,16;10090,070;  173,212;32088,694;31,07225
 303,75;10066,802;  183,605;32134,495;30,93246
 304,35;10214,845;  179,766;32333,153;31,21002
 304,94;10234,644;  186,064;32333,222;31,25807
 305,54;10222,126;  204,604;32260,260;31,25040
 306,13;10119,363;  168,074;32186,516;31,07987
 306,73;10093,396;  162,995;32020,506;31,17130
 307,33;10070,978;  202,378;31912,690;31,12110
 307,92;10090,829;  194,757;32025,129;31,09003
 308,52;10156,014;  158,596;32481,024;30,93028
 309,11;10382,755;  179,977;32994,471;31,09229
 309,71;10398,957;  160,590;33237,434;30,95327
 310,30;10468,311;  174,218;33455,381;30,93069
 310,90;10569,618;  210,295;33790,920;30,84911
 311,49;10499,455;  182,833;33948,536;30,55355
 312,09;10565,537;  159,914;34164,542;30,60061
 312,68;10738,416;  230,450;34592,532;30,58012
 313,28;10634,906;  166,988;34646,206;30,36008
 313,87;10619,269;  156,910;34788,836;30,21016
 314,47;10744,401;  172,902;35029,917;30,32818
 315,06;10724,826;  163,065;35299,219;30,05953
 315,66;10725,229;  164,914;35459,619;29,92039
 316,25;10617,926;  156,982;35359,386;29,71656
 316,85;10572,996;  158,914;35417,171;29,53657
 317,44;10530,904;  178,747;35551,114;29,26623
 318,04;10458,244;  157,214;35579,271;29,08084
 318,63;10416,718;  155,072;35726,555;28,84796
 319,22;10370,074;  181,905;35905,413;28,51951
 319,82;10378,964;  167,754;35877,499;28,59503
 320,41;10219,823;  187,829;35789,622;28,17834
 321,01;10153,237;  194,144;35985,116;27,82571
 321,60;10078,222;  183,216;36034,226;27,60036
 322,20; 9964,933;  171,834;36012,471;27,32401
 322,79; 9998,995;  204,065;36081,114;27,30138
 323,39; 9853,377;  165,535;36264,448;26,83694
 323,98; 9795,356;  162,373;36174,645;26,74917
 324,58; 9688,259;  169,212;36082,534;26,50562
 325,17; 9557,814;  180,674;35980,084;26,19356
 325,76; 9441,103;  196,525;35776,620;25,98244
 326,36; 9241,270;  163,298;35371,970;25,78334
 326,95; 9126,202;  198,754;35069,435;25,60159
 327,55; 8906,106;  161,138;34641,898;25,36188
 328,14; 8764,997;  174,762;34387,672;25,10817
 328,74; 8625,471;  192,213;33867,091;25,04317
 329,33; 8410,181;  190,298;33500,292;24,67693
 329,92; 8236,167;  162,978;33018,813;24,57155
 330,52; 8034,068;  185,147;32312,238;24,43085
 331,11; 7844,929;  168,446;31877,121;24,20941
 331,71; 7620,528;  182,371;31285,125;23,91479
 332,30; 7438,721;  205,371;30798,837;23,64345
 332,89; 7288,710;  233,836;30230,908;23,51854
 333,49; 7037,370;  194,370;29681,099;23,20705
 334,08; 6860,245;  181,061;29290,311;22,94523
 334,68; 6711,367;  180,908;28844,380;22,78321
 335,27; 6588,424;  199,148;28509,180;22,56895
 335,86; 6500,622;  240,446;28279,505;22,32662
 336,46; 6365,990;  197,917;27999,599;22,18597
 337,05; 6214,438;  182,908;27786,484;21,85054
 337,65; 6170,535;  165,677;27644,737;21,85249
 338,24; 6114,081;  223,681;27624,652;21,49705
 338,83; 6052,632;  197,758;27574,945;21,38596
 339,43; 5959,645;  171,674;27464,343;21,20705
 340,02; 5911,561;  179,828;27356,946;21,09029
 340,61; 5832,350;  174,680;27473,017;20,72533
 341,21; 5782,932;  205,367;27452,091;20,47059
 341,80; 5733,062;  178,753;27378,828;20,42019
 342,40; 5709,157;  184,455;27491,454;20,23182
 342,99; 5643,864;  182,451;27617,523;19,90668
 343,58; 5584,642;  183,298;27786,907;19,56753
 344,18; 5618,143;  195,298;27881,312;19,58695
 344,77; 5564,902;  176,058;28227,568;19,21053
 345,36; 5577,279;  168,447;28489,512;19,09826
 345,96; 5614,826;  195,298;28794,851;18,94969
 346,55; 5586,404;  166,843;29047,867;18,76513
 347,14; 5603,663;  165,455;29447,062;18,57210
 347,74; 5596,856;  151,771;29812,017;18,35819
 348,33; 5713,083;  171,462;30503,914;18,26961
 348,92; 5768,371;  191,928;31151,410;18,01207
 349,52; 5776,979;  155,541;31617,050;17,86767
 350,11; 5806,478;  183,519;31846,779;17,75862
 350,70; 5760,151;  180,680;31873,408;17,60489
 351,29; 5644,139;  155,818;31621,476;17,44226
 351,89; 5617,587;  185,362;31699,576;17,23738
 352,48; 5566,184;  158,680;31723,262;17,13156
 353,07; 5519,206;  175,148;31659,396;16,97375
 353,67; 5475,348;  186,851;31579,556;16,84626
 354,26; 5387,832;  189,455;31300,726;16,70898
 354,85; 5339,886;  179,607;31184,856;16,64324
 355,45; 5241,762;  158,753;31068,172;16,44486
 356,04; 5212,937;  171,610;30902,801;16,40459
 356,63; 5179,229;  197,062;30688,623;16,33949
 357,22; 5073,879;  185,820;30543,010;16,10182
 357,82; 4966,253;  191,976;30352,412;15,82960
 358,41; 4986,677;  202,294;30250,845;15,92217
 359,00; 4884,660;  168,982;29995,238;15,81049
 359,60; 4868,836;  188,065;30018,757;15,69112
 360,19; 4825,805;  182,611;29786,862;15,68421
 360,78; 4756,967;  194,523;29616,870;15,50673
 361,37; 4704,103;  178,985;29418,142;15,47623
 361,97; 4651,806;  196,986;29340,258;15,28593
 362,56; 4590,327;  175,365;29036,458;15,29728
 363,15; 4573,295;  220,907;28797,122;15,23081
 363,74; 4492,168;  188,056;28358,776;15,27867
 364,34; 4422,970;  197,905;28033,378;15,17871
 364,93; 4287,412;  172,211;27588,802;15,00989
 365,52; 4227,237;  153,908;27112,428;15,10962
 366,11; 4202,829;  173,982;26848,518;15,10372
 366,71; 4122,766;  170,598;26452,336;15,03770
 367,30; 4046,403;  172,370;26109,029;14,93652
 367,89; 4052,966;  227,607;25897,457;14,90215
 368,48; 4011,748;  186,594;25524,475;15,09658
 369,07; 3924,228;  179,603;25048,562;15,05743
 369,67; 3908,938;  197,980;24801,124;15,08327
 370,26; 3856,193;  178,219;24544,953;15,09424
 370,85; 3774,145;  183,216;24214,610;14,94266
 371,44; 3752,871;  179,601;23966,503;15,02201
 372,03; 3733,216;  168,751;23732,350;15,12700
 372,63; 3680,199;  156,293;23380,987;15,17310
 373,22; 3653,065;  176,834;23073,486;15,18227
 373,81; 3592,900;  157,139;22784,407;15,18416
 374,40; 3564,627;  177,916;22525,182;15,15492
 374,99; 3539,836;  172,445;22297,340;15,21992
 375,59; 3530,819;  164,453;22014,855;15,40642
 376,18; 3526,893;  194,753;21910,702;15,34420
 376,77; 3480,741;  189,140;21655,398;15,33384
 377,36; 3494,639;  198,292;21627,694;15,38236
 377,95; 3463,270;  193,213;21311,650;15,48437
 378,55; 3402,007;  166,683;21149,809;15,41869
 379,14; 3443,470;  196,908;21141,953;15,50038
 379,73; 3445,542;  184,137;20977,656;15,68472
 380,32; 3452,206;  192,832;20964,307;15,69158
 380,91; 3449,911;  164,133;20836,090;15,89486
 381,50; 3450,078;  190,981;20822,730;15,79652
 382,10; 3461,206;  169,601;20675,846;16,05172
 382,69; 3471,118;  156,908;20648,499;16,17352
 383,28; 3507,269;  201,674;20597,764;16,20700
 383,87; 3459,931;  171,981;20438,512;16,22355
 384,46; 3472,541;  168,284;20395,775;16,33548
 385,05; 3518,141;  201,058;20345,605;16,46641
 385,64; 3548,290;  173,290;20372,133;16,70888
 386,24; 3509,422;  160,207;20337,384;16,59903
 386,83; 3591,833;  204,283;20341,147;16,82263
 387,42; 3623,024;  197,982;20443,755;16,91732
 388,01; 3676,064;  187,663;20722,576;16,98766
 388,60; 3738,592;  185,669;20944,242;17,11545
 389,19; 3818,901;  171,195;21150,735;17,38697
 389,78; 3874,742;  177,043;21370,802;17,44712
 390,37; 4028,103;  234,666;21847,997;17,55138
 390,96; 4061,626;  180,052;22023,426;17,77003
 391,56; 4102,529;  184,039;22139,320;17,84759
 392,15; 4163,235;  169,582;22411,555;17,95548
 392,74; 4187,531;  150,800;22583,063;17,99520
 393,33; 4292,525;  174,192;22846,524;18,16457
 393,92; 4443,465;  192,027;23328,953;18,37512
 394,51; 4456,344;  174,577;23483,413;18,36972
 395,10; 4578,289;  210,938;23741,130;18,56062
 395,69; 4616,356;  191,709;23890,302;18,67050
 396,28; 4668,550;  189,164;24005,657;18,80791
 396,87; 4759,144;  197,000;24049,721;19,12631
 397,46; 4818,412;  196,915;24168,127;19,27936
 398,06; 4902,765;  211,983;24401,439;19,39185
 398,65; 4919,328;  191,424;24435,851;19,50099
 399,24; 4976,474;  197,112;24662,782;19,53497
 399,83; 4994,445;  175,619;24707,790;19,64289
 400,42; 5129,337;  214,283;24793,714;19,99662
 401,01; 5107,919;  189,019;24914,542;19,89402
 401,60; 5214,518;  199,975;24900,798;20,30112
 402,19; 5228,056;  220,863;24849,078;20,33113
 402,78; 5283,346;  222,501;24901,088;20,50703
 403,37; 5257,812;  204,834;24741,548;20,59354
 403,96; 5293,305;  203,697;24609,990;20,85367
 404,55; 5303,509;  211,322;24417,879;21,03639
 405,14; 5260,442;  194,415;24293,260;21,02186
 405,73; 5307,579;  207,883;24275,116;21,18937
 406,32; 5335,185;  205,219;24131,352;21,44085
 406,91; 5265,370;  198,856;23904,980;21,37217
 407,50; 5313,463;  207,674;23733,268;21,70312
 408,09; 5238,674;  183,730;23420,189;21,75436
 408,68; 5241,037;  192,793;23255,197;21,88950
 409,27; 5259,279;  185,273;23146,454;22,09819
 409,86; 5277,294;  197,701;22960,388;22,31544
 410,45; 5332,154;  238,122;22919,365;22,45923
 411,04; 5361,494;  238,082;22843,339;22,66469
 411,63; 5303,219;  211,592;22600,535;22,74170
 412,22; 5305,653;  218,021;22288,056;23,05221
 412,81; 5271,306;  223,652;22056,752;23,11927
 413,40; 5213,636;  235,979;21728,740;23,15969
 413,99; 5258,765;  260,589;21397,851;23,64628
 414,58; 5082,618;  202,285;21003,304;23,46199
 415,17; 5065,904;  218,036;20759,640;23,60024
 415,76; 5052,367;  210,789;20711,639;23,61648
 416,35; 5053,341;  191,259;20454,580;23,99450
 416,94; 5127,608;  230,023;20514,156;24,14490
 417,53; 5184,855;  201,576;20800,791;24,19159
 418,12; 5248,708;  201,580;20827,937;24,46931
 418,71; 5399,382;  220,980;21186,040;24,70015
 419,30; 5419,748;  211,736;21228,228;24,78060
 419,89; 5519,732;  194,893;21434,172;25,07071
 420,48; 5636,456;  237,442;21733,900;25,11583
 421,07; 5665,010;  215,368;21822,005;25,22207
 421,66; 5658,023;  188,454;21846,735;25,25394
 422,25; 5763,128;  208,395;21852,910;25,66347
 422,84; 5765,540;  225,783;21737,539;25,75223
 423,43; 5720,458;  215,391;21508,323;25,85396
 424,02; 5702,935;  233,317;21253,813;26,02040
 424,60; 5606,159;  215,646;20826,513;26,15375
 425,19; 5573,428;  213,481;20615,233;26,27200
 425,78; 5589,921;  234,251;20400,833;26,55715
 426,37; 5561,542;  238,797;20253,664;26,59395
 426,96; 5581,062;  222,105;20170,398;26,86424
 427,55; 5516,857;  211,732;20039,514;26,75601
 428,14; 5533,386;  203,353;19811,972;27,18209
 428,73; 5507,934;  204,266;19667,866;27,24916
 429,32; 5531,727;  222,719;19620,862;27,36864
 429,91; 5566,450;  242,190;19615,704;27,48216
 430,50; 5566,229;  231,888;19457,006;27,74672
 431,08; 5526,286;  221,587;19289,596;27,81989
 431,67; 5554,671;  259,438;19255,284;27,87574
 432,26; 5530,999;  261,905;19013,763;28,09905
 432,85; 5470,991;  275,980;18644,633;28,28194
 433,44; 5421,174;  279,142;18309,281;28,51909
 434,03; 5331,166;  303,076;17873,504;28,61677
 434,62; 5220,166;  254,220;17499,553;28,79589
 435,21; 5194,655;  270,981;17245,806;29,00574
 435,79; 5145,836;  249,226;17166,079;28,94516
 436,38; 5171,339;  252,083;16985,729;29,39739
 436,97; 5146,042;  247,930;16873,153;29,46193
 437,56; 5119,426;  255,023;16748,946;29,49209
 438,15; 5102,989;  235,558;16658,115;29,63870
 438,74; 5156,737;  265,790;16633,993;29,88078
 439,33; 5195,258;  241,711;16658,018;30,17455
 439,91; 5179,346;  221,026;16713,130;30,06481
 440,50; 5261,305;  271,565;16805,548;30,17869
 441,09; 5359,138;  262,189;16895,628;30,64278
 441,68; 5335,873;  241,660;16963,225;30,46493
 442,27; 5355,895;  233,887;16851,869;30,82208
 442,86; 5374,917;  203,599;16819,088;31,12348
 443,44; 5424,356;  227,595;16931,893;31,11032
 444,03; 5520,912;  271,446;16995,269;31,38915
 444,62; 5415,974;  226,600;16879,912;31,16121
 445,21; 5414,853;  245,366;16666,519;31,48066
 445,80; 5423,951;  265,147;16604,455;31,57296
 446,39; 5374,946;  268,760;16364,850;31,72314
 446,97; 5283,717;  227,772;16116,035;31,82188
 447,56; 5232,638;  218,705;15890,562;31,99323
 448,15; 5192,181;  228,618;15759,022;31,96029
 448,74; 5143,457;  257,389;15456,208;32,14768
 449,33; 5113,630;  235,088;15347,125;32,28249
 449,91; 5034,438;  238,175;15103,327;32,26514
 450,50; 4994,329;  230,558;14860,535;32,56171
 451,09; 5005,650;  234,097;14801,560;32,75486
 451,68; 4995,806;  259,410;14724,733;32,74311
 452,26; 4991,003;  251,953;14609,451;33,00750
 452,85; 4932,027;  230,104;14421,058;33,13324
 453,44; 4995,664;  243,810;14491,666;33,35136
 454,03; 4975,977;  217,417;14426,473;33,48963
 454,61; 4965,419;  230,811;14415,041;33,37938
 455,20; 5067,723;  245,893;14580,549;33,63757
 455,79; 5089,424;  254,961;14556,496;33,80380
 456,38; 5125,202;  252,439;14684,904;33,76252
 456,97; 5182,712;  237,283;14765,098;34,04110
 457,55; 5168,952;  240,597;14742,400;33,98443
 458,14; 5222,245;  249,512;14730,724;34,33921
 458,73; 5175,246;  247,136;14630,007;34,26374
 459,31; 5209,374;  265,453;14709,332;34,22849
 459,90; 5299,931;  278,294;14787,950;34,60893
 460,49; 5407,398;  316,676;14902,291;34,90235
 461,08; 5378,885;  239,457;14907,869;35,03738
 461,66; 5414,226;  248,298;15049,536;34,90200
 462,25; 5471,939;  251,999;15121,148;35,10584
 462,84; 5503,179;  277,304;15109,398;35,23356
 463,43; 5458,409;  215,394;15085,289;35,25926
 464,01; 5533,644;  248,782;15117,756;35,54288
 464,60; 5536,115;  291,775;15077,974;35,46780
 465,19; 5395,194;  228,247;14843,912;35,35212
 465,77; 5424,315;  248,251;14804,322;35,55948
 466,36; 5445,808;  262,163;14688,107;35,93280
 466,95; 5320,762;  245,856;14414,014;35,81909
 467,53; 5222,581;  250,795;14096,619;35,90820
 468,12; 5133,532;  284,642;13785,386;35,91572
 468,71; 5063,056;  249,478;13594,462;36,07032
 469,29; 4959,362;  227,721;13304,237;36,18427
 469,88; 4901,402;  237,801;13053,236;36,39050
 470,47; 4991,201;  300,502;13186,269;36,40217
 471,06; 4957,671;  263,195;13153,729;36,41801
 471,64; 5003,349;  248,577;13220,818;36,65344
 472,23; 5035,145;  221,439;13272,338;36,88410
 472,81; 5084,865;  220,431;13340,822;37,07537
 473,40; 5138,264;  234,747;13485,729;37,00493
 473,99; 5317,140;  335,209;13697,135;37,28453
 474,57; 5256,947;  245,516;13793,499;36,99024
 475,16; 5374,565;  253,433;13941,336;37,41356
 475,75; 5397,957;  273,676;14125,956;36,99233
 476,33; 5471,254;  271,682;14198,006;37,33628
 476,92; 5480,644;  275,979;14259,027;37,22125
 477,51; 5519,647;  265,064;14328,410;37,36368
 478,09; 5515,860;  257,910;14312,913;37,40981
 478,68; 5507,564;  273,913;14221,761;37,52300
 479,27; 5576,643;  287,599;14305,290;37,73121
 479,85; 5559,185;  257,605;14283,426;37,79871
 480,44; 5615,496;  254,839;14418,392;37,84825
 481,02; 6155,390;  255,537;15815,136;37,91777
 481,61; 6990,331;  283,919;17873,001;38,12827
 482,20; 7470,233;  255,691;19099,150;38,28672
 482,78; 7809,666;  299,453;19992,311;38,13674
 483,37; 8082,471;  278,699;20533,405;38,52819
 483,95; 8215,478;  304,393;20791,766;38,61445
 484,54; 8267,498;  317,687;21021,241;38,39829
 485,13; 8204,551;  274,631;20883,675;38,47787
 485,71; 8124,770;  255,552;20621,442;38,63921
 486,30; 8001,214;  284,013;20314,022;38,52820
 486,88; 7982,912;  322,246;19987,396;38,95554
 487,47; 7636,917;  301,556;19228,616;38,75595
 488,05; 7268,935;  276,713;18322,323;38,74750
 488,64; 6778,723;  297,104;17030,624;38,73435
 489,23; 6049,112;  304,637;15145,886;38,70614
 489,81; 5175,685;  299,947;12970,050;38,48223
 490,40; 4900,266;  248,179;12323,096;38,52687
 490,98; 4794,843;  239,182;12008,747;38,70713
 491,57; 4783,438;  273,023;11980,192;38,52695
 492,15; 4769,951;  253,952;11882,885;38,83416
 492,74; 4752,465;  260,944;11757,133;39,06966
 493,32; 4727,328;  277,412;11662,063;39,08697
 493,91; 4650,384;  263,340;11601,767;38,69182
 494,50; 4660,396;  262,198;11572,590;38,88635
 495,08; 4595,958;  241,813;11485,521;38,72517
 495,67; 4616,936;  272,570;11503,391;38,68253
 496,25; 4554,585;  224,038;11384,741;38,80174
 496,84; 4535,897;  231,646;11343,679;38,73504
 497,42; 4532,354;  221,502;11293,373;38,93517
 498,01; 4535,369;  249,648;11233,564;39,01815
 498,59; 4448,648;  227,811;11193,057;38,49286
 499,18; 4445,497;  225,572;11124,262;38,71956
 499,76; 4455,198;  260,115;11101,294;38,69582
 500,35; 4379,787;  245,432;10862,542;38,94050
 500,93; 4347,960;  241,963;10813,297;38,84086
 501,52; 4351,266;  238,734;10757,351;39,09765
 502,10; 4354,124;  261,129;10747,595;39,03121
 502,69; 4258,300;  242,363;10559,944;38,92324
 503,27; 4193,790;  227,429;10349,820;39,18404
 503,86; 4147,123;  233,977;10292,458;38,90395
 504,44; 4103,702;  224,981;10143,073;39,10753
 505,03; 4031,486;  207,673; 9910,660;39,40861
 505,61; 3986,493;  228,441; 9867,810;38,98649
 506,19; 3926,967;  250,134; 9720,605;38,82419
 506,78; 3842,912;  215,912; 9514,755;39,00485
 507,36; 3796,402;  224,980; 9341,724;39,17431
 507,95; 3757,537;  231,532; 9195,965;39,33328
 508,53; 3679,746;  226,066; 9043,616;39,16825
 509,12; 3648,663;  230,530; 8892,813;39,45995
 509,70; 3585,713;  257,455; 8769,488;39,10062
 510,29; 3534,410;  247,459; 8619,416;39,26143
 510,87; 3449,178;  229,989; 8412,749;39,34111
 511,46; 3385,153;  219,298; 8211,179;39,61339
 512,04; 3308,723;  224,918; 8099,680;39,16061
 512,62; 3242,136;  237,914; 7993,451;38,73647
 513,21; 3168,265;  213,229; 7789,415;39,00427
 513,79; 3136,472;  220,165; 7669,221;39,15002
 514,38; 3050,426;  209,315; 7499,517;38,97163
 514,96; 3058,667;  244,391; 7433,540;39,14617
 515,54; 2969,490;  212,778; 7283,317;38,98871
 516,13; 2955,831;  226,779; 7157,826;39,37431
 516,71; 2893,604;  215,862; 7056,039;39,14726
 517,30; 2806,277;  208,251; 6931,959;38,63979
 517,88; 2828,913;  234,174; 6882,673;39,02744
 518,46; 2745,111;  213,022; 6747,913;38,74722
 519,05; 2741,506;  225,718; 6659,507;39,10274
 519,63; 2735,471;  224,178; 6659,420;39,02407
 520,22; 2687,592;  243,724; 6564,271;38,66545
 520,80; 2656,490;  227,494; 6466,969;38,92949
 521,38; 2685,004;  257,027; 6436,694;39,28977
 521,97; 2629,346;  218,883; 6429,178;38,81399
 522,55; 2613,455;  235,575; 6443,647;38,30304
 523,13; 2608,322;  216,732; 6398,186;38,68977
 523,72; 2615,670;  224,330; 6381,243;38,83992
 524,30; 2663,075;  239,351; 6545,207;38,43608
 524,89; 2649,166;  207,114; 6567,260;38,39616
 525,47; 2722,299;  238,660; 6665,749;38,64329
 526,05; 2727,655;  213,276; 6727,615;38,59760
 526,64; 2755,977;  229,356; 6855,141;38,13316
 527,22; 2857,301;  232,121; 6943,659;39,11443
 527,80; 2921,876;  269,432; 7065,555;39,02878
 528,39; 2912,619;  226,435; 7190,884;38,56993
 528,97; 3004,241;  226,510; 7359,112;38,94415
 529,55; 3071,737;  234,655; 7559,822;38,73061
 530,14; 3175,867;  257,130; 7734,782;39,03280
 530,72; 3185,762;  221,972; 7856,769;38,81950
 531,30; 3215,225;  217,746; 7992,942;38,55182
 531,89; 3269,427;  229,746; 8072,921;38,75574
 532,47; 3318,245;  256,594; 8217,595;38,45812
 533,05; 3360,047;  264,355; 8219,821;38,91277
 533,63; 3353,800;  252,056; 8273,838;38,66652
 534,22; 3364,229;  224,980; 8342,061;38,67461
 534,80; 3384,152;  241,755; 8435,057;38,35325
 535,38; 3499,244;  314,977; 8489,709;38,95255
 535,97; 3344,719;  234,133; 8436,888;37,92124
 536,55; 3441,064;  271,140; 8468,496;38,67009
 537,13; 3421,586;  265,745; 8446,124;38,57817
 537,71; 3419,227;  285,283; 8475,119;38,26626
 538,30; 3448,832;  305,674; 8570,323;38,03135
 538,88; 3456,945;  318,837; 8599,984;37,89461
 539,46; 3574,031;  344,062; 8806,603;38,16784
 540,05; 3606,925;  345,912; 8897,023;38,13555
 540,63; 3655,490;  386,296; 9111,519;37,46832
 541,21; 3741,690;  393,223; 9243,260;37,83562
 541,79; 3783,429;  411,761; 9345,393;37,74129
 542,38; 3838,335;  420,142; 9496,556;37,66018
 542,96; 3897,520;  444,997; 9640,398;37,54620
 543,54; 3961,038;  449,299; 9854,765;37,33721
 544,12; 3991,661;  405,685; 9999,510;37,37796
 544,70; 4023,006;  405,382;10057,138;37,48151
 545,29; 4106,717;  420,603;10257,492;37,47236
 545,87; 4100,737;  410,915;10329,470;37,20120
 546,45; 4074,356;  392,603;10323,885;37,07228
 547,03; 4096,362;  383,760;10485,760;36,75116
 547,62; 4168,205;  363,839;10602,636;37,15638
 548,20; 4228,099;  382,919;10766,056;37,03293
 548,78; 4264,328;  344,546;10952,908;36,94993
 549,36; 4310,451;  347,391;11183,078;36,57415
 549,94; 4348,692;  320,764;11287,724;36,72785
 550,53; 4435,369;  322,697;11513,627;36,75005
 551,11; 4466,144;  294,548;11726,288;36,49135
 551,69; 4599,794;  322,468;12059,610;36,44265
 552,27; 4687,357;  275,540;12330,394;36,59785
 552,85; 4838,161;  287,163;12753,477;36,50637
 553,44; 4939,566;  288,544;13036,442;36,48461
 554,02; 5056,648;  310,085;13449,201;36,12544
 554,60; 5124,488;  248,318;13720,860;36,19339
 555,18; 5301,190;  287,852;14092,826;36,31545
 555,76; 5437,586;  277,008;14460,557;36,38425
 556,34; 5561,691;  292,169;14913,550;36,03984
 556,93; 5674,646;  277,853;15329,007;35,85634
 557,51; 5814,011;  240,707;15647,690;36,17388
 558,09; 5942,140;  284,853;16070,707;35,83770
 558,67; 6063,316;  280,172;16447,067;35,77152
 559,25; 6202,545;  288,786;16734,988;35,95821
 559,83; 6246,601;  273,791;17033,614;35,63767
 560,41; 6353,772;  265,398;17391,253;35,55078
 561,00; 6478,884;  280,634;17766,934;35,44632
 561,58; 6563,393;  274,782;18011,072;35,45618
 562,16; 6590,804;  268,625;18341,204;34,98216
 562,74; 6758,231;  237,393;18731,886;35,25827
 563,32; 6873,618;  245,867;19154,726;35,05104
 563,90; 7011,562;  267,019;19544,270;34,98706
 564,48; 7106,469;  267,550;20046,724;34,57636
 565,06; 7290,679;  267,326;20579,929;34,57634
 565,65; 7517,142;  272,181;21263,904;34,51342
 566,23; 7779,621;  311,788;22040,081;34,36917
 566,81; 7963,870;  279,324;22783,792;34,14676
 567,39; 8256,936;  277,023;23701,381;34,06673
 567,97; 8464,241;  289,940;24310,168;34,03090
 568,55; 8768,884;  293,252;25197,412;34,03300
 569,13; 8894,249;  270,634;25881,528;33,67167
 569,71; 9207,591;  280,933;26851,239;33,59637
 570,29; 9564,572;  308,160;27888,993;33,56103
 570,87; 9739,344;  303,624;28621,612;33,32059
 571,45; 9842,659;  296,018;29325,907;32,88556
 572,03; 9979,381;  249,486;29702,693;33,03510
 572,61;10205,194;  242,944;30408,629;33,02511
 573,20;10457,668;  281,092;31069,696;33,05306
 573,78;10568,095;  260,329;31782,006;32,70056
 574,36;10706,084;  279,328;32300,505;32,56206
 574,94;10796,904;  317,256;32642,774;32,41912
 575,52;10791,666;  265,725;32846,235;32,30748
 576,10;10980,598;  308,953;33440,563;32,20986
 576,68;11084,875;  288,870;33975,623;32,04822
 577,26;11249,332;  309,574;34699,026;31,81138
 577,84;11405,277;  315,943;35186,679;31,80126
 578,42;11516,938;  350,873;35502,631;31,76531
 579,00;11470,109;  290,252;35667,901;31,60147
 579,58;11470,747;  329,718;35955,711;31,27219
 580,16;11448,570;  305,028;35934,796;31,27593
 580,74;11494,162;  303,875;36128,711;31,23611
 581,32;11452,458;  300,872;36230,094;31,03765
 581,90;11455,419;  327,182;36174,629;31,04332
 582,48;11415,277;  327,798;36293,768;30,82769
 583,06;11410,082;  317,718;36487,822;30,66721
 583,64;11445,182;  308,871;36568,753;30,71248
 584,22;11359,878;  320,649;36441,638;30,56181
 584,80;11187,027;  320,258;36211,539;30,27691
 585,38;11063,403;  324,553;35778,495;30,28958
 585,96;11054,587;  299,253;35838,913;30,26291
 586,54;11011,634;  319,802;35884,305;30,06321
 587,12;10983,131;  300,568;36082,359;29,85474
 587,70;11011,102;  326,331;36191,135;29,79180
 588,28;10978,533;  305,568;36305,241;29,64739
 588,86;11014,851;  315,031;36369,510;29,67681
 589,44;10950,886;  297,962;36510,054;29,41814
 590,02;11027,159;  307,114;36686,583;29,46729
 590,59;11048,559;  285,802;36964,214;29,34358
 591,17;11042,537;  298,047;37099,676;29,19569
 591,75;11001,662;  289,503;37335,237;28,91604
 592,33;11077,721;  309,655;37533,493;28,92788
 592,91;11043,455;  272,199;37770,302;28,72480
 593,49;11117,175;  276,587;38115,931;28,64898
 594,07;11123,331;  285,510;38350,610;28,47181
 594,65;11088,809;  301,418;38358,213;28,34551
 595,23;11167,978;  307,960;38870,395;28,16217
 595,81;11152,738;  283,500;38835,566;28,19366
 596,39;11169,762;  271,577;38992,460;28,14550
 596,97;11132,117;  305,198;39202,896;27,83434
 597,55;11109,338;  285,497;39101,230;27,88519
 598,12;10984,549;  272,973;39094,948;27,59153
 598,70;11030,406;  269,431;39324,222;27,55353
 599,28;10989,143;  292,662;39457,523;27,31142
 599,86;10988,873;  276,815;39468,964;27,33215
 600,44;10998,076;  251,740;39539,023;27,35322
 601,02;10949,894;  308,287;39632,593;27,06114
 601,60;10848,813;  285,734;39636,789;26,84319
 602,18;10812,294;  254,434;39624,823;26,81675
 602,75;10795,915;  259,269;39722,651;26,69980
 603,33;10733,018;  276,046;39733,774;26,50171
 603,91;10704,523;  263,669;39629,278;26,52278
 604,49;10641,614;  287,354;39768,137;26,22607
 605,07;10613,910;  289,734;39779,503;26,14393
 605,65;10585,080;  293,279;39876,357;26,00051
 606,23;10567,771;  322,032;39961,370;25,84740
 606,80;10547,347;  339,115;40031,476;25,71838
 607,38;10466,324;  361,129;40020,091;25,48023
 607,96;10484,734;  396,345;40120,463;25,39613
 608,54;10426,820;  436,971;40132,952;25,16589
 609,12;10402,776;  423,730;40212,084;25,08032
 609,70;10370,754;  447,584;40164,958;24,98446
 610,27;10310,005;  446,960;40221,891;24,79714
 610,85;10283,606;  452,660;40361,469;24,63352
 611,43;10232,622;  453,661;40190,327;24,60941
 612,01;10124,306;  428,579;39938,834;24,53977
 612,59;10063,509;  437,122;40005,832;24,32828
 613,16; 9976,446;  400,803;40000,582;24,18105
 613,74; 9868,832;  391,816;39860,382;24,01156
 614,32; 9819,400;  378,203;39818,573;23,93790
 614,90; 9690,477;  368,735;39740,501;23,67621
 615,48; 9609,891;  336,420;39404,202;23,73688
 616,05; 9525,581;  326,033;39490,968;23,48925
 616,63; 9485,809;  335,569;39351,965;23,45229
 617,21; 9379,144;  332,883;39185,457;23,28356
 617,79; 9266,283;  313,578;39065,963;23,10233
 618,36; 9203,111;  330,580;39125,867;22,87013
 618,94; 9035,912;  261,959;38822,725;22,75358
 619,52; 8995,890;  292,032;38375,453;22,85472
 620,10; 8853,004;  285,269;38330,713;22,51974
 620,67; 8811,315;  295,723;38250,497;22,43616
 621,25; 8743,798;  306,350;38026,894;22,36831
 621,83; 8672,466;  298,651;38062,774;22,17399
 622,41; 8617,010;  328,959;38049,670;21,97215
 622,98; 8526,658;  308,800;37788,029;21,92643
 623,56; 8457,240;  314,030;37795,674;21,72586
 624,14; 8423,632;  289,659;37659,464;21,76616
 624,72; 8328,099;  301,805;37544,194;21,55150
 625,29; 8317,515;  282,799;37675,744;21,48725
 625,87; 8290,313;  326,270;37619,830;21,35501
 626,45; 8111,795;  279,259;37344,439;21,13179
 627,02; 8139,352;  287,732;37357,465;21,18067
 627,60; 8046,079;  271,817;37247,702;21,02522
 628,18; 8020,314;  253,730;37361,161;20,93000
 628,76; 7949,558;  261,724;37356,021;20,72511
 629,33; 7953,952;  296,726;37384,113;20,64644
 629,91; 7963,850;  278,346;37340,329;20,73689
 630,49; 7891,584;  296,956;37449,416;20,44179
 631,06; 7860,012;  287,340;37625,831;20,28114
 631,64; 7791,849;  293,568;37572,200;20,11415
 632,22; 7745,627;  254,949;37478,527;20,12347
 632,79; 7743,440;  288,257;37824,059;19,86153
 633,37; 7698,087;  277,349;37826,435;19,76277
 633,95; 7661,922;  270,644;37963,712;19,60912
 634,52; 7683,332;  272,189;38068,796;19,60796
 635,10; 7620,737;  282,499;38029,680;19,44049
 635,68; 7619,718;  274,949;38237,268;19,34752
 636,25; 7565,054;  266,637;38241,039;19,21931
 636,83; 7568,174;  254,878;38432,405;19,15602
 637,41; 7552,504;  251,487;38505,802;19,08547
 637,98; 7504,326;  285,409;38627,908;18,82746
 638,56; 7558,135;  273,867;38771,280;18,92145
 639,13; 7483,448;  265,800;38871,974;18,69558
 639,71; 7525,547;  311,878;39154,614;18,57148
 640,29; 7393,481;  246,955;38826,648;18,52406
 640,86; 7392,952;  252,032;38988,317;18,43470
 641,44; 7360,038;  253,417;38967,062;18,35689
 642,02; 7355,894;  276,341;38914,962;18,32248
 642,59; 7351,134;  253,879;39161,323;18,24138
 643,17; 7317,066;  263,110;39098,531;18,16372
 643,74; 7272,999;  249,111;39141,738;18,05969
 644,32; 7242,162;  286,649;39185,253;17,88114
 644,89; 7195,094;  280,649;39099,692;17,81199
 645,47; 7180,335;  291,111;39116,437;17,74415
 646,05; 7124,036;  286,111;39135,414;17,60115
 646,62; 7077,969;  264,189;39107,852;17,54155
 647,20; 7076,901;  269,497;39209,444;17,48180
 647,77; 6989,680;  249,804;39035,729;17,37712
 648,35; 6967,843;  245,420;39003,398;17,34462
 648,92; 6905,622;  272,651;39009,682;17,12307
 649,50; 6839,016;  234,882;38843,966;17,10513
 650,08; 6812,641;  246,882;38764,251;17,04623
 650,65; 6803,189;  238,036;39112,535;16,88807
 651,23; 6843,813;  220,421;39827,512;16,72274
 651,80; 6976,515;  233,729;40797,488;16,62268
 652,38; 7035,140;  246,499;41191,465;16,57992
 652,95; 7063,995;  227,268;41534,057;16,55110
 653,53; 7067,312;  255,961;41894,187;16,35841
 654,10; 7100,476;  281,576;41945,318;16,36651
 654,68; 7035,639;  241,577;41909,064;16,30543
 655,25; 7039,648;  238,192;41917,579;16,31851
 655,83; 6969,504;  237,423;42057,709;16,09764
 656,40; 7041,975;  264,500;42034,840;16,22557
 656,98; 6944,138;  239,270;41918,278;16,08692
 657,55; 6954,917;  252,347;41811,332;16,12785
 658,13; 6827,542;  241,116;41390,693;16,00606
 658,70; 6777,243;  266,270;41249,977;15,88673
 659,28; 6615,099;  236,501;40241,339;15,94457
 659,85; 6452,877;  255,040;39406,315;15,83049
 660,43; 6470,502;  261,887;39494,676;15,82507
 661,00; 6459,435;  240,502;39551,730;15,81974
 661,58; 6480,213;  237,810;40107,784;15,65690
 662,15; 6477,992;  226,503;40183,453;15,64556
 662,73; 6556,771;  300,272;40518,660;15,55631
 663,30; 6557,011;  244,042;40675,406;15,61404
 663,88; 6538,482;  254,965;40897,306;15,46052
 664,45; 6525,491;  244,734;41079,282;15,38099
 665,03; 6581,654;  242,658;41416,797;15,39558
 665,60; 6674,587;  323,504;41846,697;15,29527
 666,17; 6566,366;  247,658;41960,520;15,14810
 666,75; 6654,683;  249,735;42413,650;15,19059
 667,32; 6691,077;  268,505;42639,396;15,15798
 667,90; 6744,471;  244,582;42979,604;15,20975
 668,47; 6746,634;  273,274;43192,888;15,08252
 669,05; 6759,874;  237,582;43631,019;15,03060
 669,62; 6716,730;  231,583;43641,611;14,93928
 670,19; 6707,739;  232,198;43783,433;14,86879
 670,77; 6771,210;  248,198;43903,025;14,94225
 671,34; 6752,066;  243,353;43823,310;14,93511
 671,92; 6801,383;  231,737;44287,748;14,91203
 672,49; 6771,854;  258,738;44173,340;14,83132
 673,06; 6757,401;  215,507;44343,470;14,82483
 673,64; 6784,872;  232,661;44171,293;14,91219
 674,21; 6709,805;  220,046;44244,347;14,74131
 674,79; 6784,507;  250,508;44513,323;14,76182
 675,36; 6772,593;  260,585;44484,223;14,72517
 675,93; 6713,372;  219,508;44374,123;14,70710
 676,51; 6728,227;  256,816;44710,176;14,55775
 677,08; 6741,313;  241,124;44763,692;14,59976
 677,65; 6722,861;  250,047;44833,976;14,51827
 678,23; 6728,871;  253,509;45032,876;14,46059
 678,80; 6764,957;  240,971;45153,160;14,52609
 679,38; 6765,351;  240,048;45315,367;14,47644
 679,95; 6803,053;  241,510;45585,344;14,47064
 680,52; 6809,678;  246,664;45759,705;14,42007
 681,10; 6895,149;  255,126;46247,374;14,43726
 681,67; 6911,619;  254,664;46474,505;14,40281
 682,24; 6944,860;  234,126;46637,789;14,46165
 682,82; 7016,561;  238,050;47233,381;14,42380
 683,39; 7063,802;  280,973;47459,127;14,37705
 683,96; 7118,811;  245,665;47797,719;14,45394
 684,54; 7131,667;  227,589;48127,234;14,41363
 685,11; 7227,368;  269,666;48378,288;14,46249
 685,68; 7244,916;  246,358;48929,495;14,37573
 686,25; 7229,926;  229,436;49081,164;14,33008
 686,83; 7301,089;  244,897;49196,602;14,41460
 687,40; 7325,098;  219,205;49533,271;14,40946
 687,97; 7389,338;  269,667;49965,556;14,32648
 688,55; 7333,117;  222,129;49932,071;14,30496
 689,12; 7361,665;  214,206;50320,663;14,26455
 689,69; 7416,290;  222,899;50349,716;14,35038
 690,26; 7432,530;  246,130;50497,462;14,30091
 690,84; 7472,847;  245,361;50658,285;14,33657
 691,41; 7505,164;  248,822;50775,800;14,36132
 691,98; 7559,481;  254,823;51050,469;14,38048
 692,56; 7532,798;  233,284;51139,369;14,33918
 693,13; 7611,577;  283,592;51161,576;14,40306
 693,70; 7653,509;  266,823;51358,245;14,45778
 694,27; 7602,057;  254,285;51426,453;14,35892
 694,84; 7621,067;  234,131;51492,583;14,41116
 695,42; 7701,230;  288,362;51602,791;14,44597
 695,99; 7708,085;  251,132;51901,229;14,43744
 696,56; 7672,403;  233,747;51796,052;14,42654
 697,13; 7760,412;  253,594;52059,182;14,49036
 697,71; 7700,191;  221,517;52124,466;14,40896
 698,28; 7805,277;  241,825;52567,212;14,45465
 698,85; 7833,056;  218,672;52430,573;14,58362
 699,42; 7831,373;  217,903;52602,627;14,53376
 699,99; 7880,536;  269,364;52899,758;14,46155
 700,57; 7888,930;  250,288;52759,427;14,54726
 701,14; 7899,170;  239,903;52950,788;14,53071
 701,71; 7909,026;  251,057;53144,841;14,47801
 702,28; 7971,804;  249,750;53175,587;14,59033
 702,85; 7974,044;  240,212;53278,641;14,58156
 703,43; 8006,208;  267,981;53533,464;14,52766
 704,00; 8045,679;  279,366;53798,363;14,51132
 704,57; 8070,150;  251,674;53675,417;14,63483
 705,14; 8126,467;  272,597;54065,932;14,60008
 705,71; 8134,707;  271,290;54061,216;14,61875
 706,28; 8143,485;  252,367;53901,808;14,70867
 706,86; 8197,572;  276,752;54297,400;14,66258
 707,43; 8211,581;  300,598;54147,300;14,69168
 708,00; 8240,052;  264,060;54117,123;14,81066
 708,57; 8193,985;  243,675;54126,561;14,75479
 709,14; 8265,840;  272,599;54215,230;14,81804
 709,71; 8245,465;  248,830;54312,438;14,79116
 710,28; 8357,859;  264,445;54427,876;14,94258
 710,86; 8384,561;  265,676;54698,083;14,91553
 711,43; 8422,262;  280,061;54701,983;14,96125
 712,00; 8403,349;  256,600;54690,575;14,96629
 712,57; 8462,281;  265,293;54991,705;14,97812
 713,14; 8486,983;  255,216;55000,451;15,03650
 713,71; 8459,608;  266,831;54936,505;14,98596
 714,28; 8533,617;  265,601;54977,558;15,11190
 714,85; 8496,703;  241,524;54659,535;15,16994
 715,42; 8502,944;  249,140;55004,127;15,07407
 716,00; 8665,184;  311,140;55111,181;15,24459
 716,57; 8594,732;  262,602;55229,773;15,15837
 717,14; 8601,664;  249,217;55154,826;15,21237
 717,71; 8605,597;  234,987;55096,957;15,25758
 718,28; 8686,145;  280,449;55273,164;15,28511
 718,85; 8678,077;  247,218;55374,218;15,29352
 719,42; 8800,548;  269,449;55454,810;15,45899
 719,99; 8736,250;  247,219;55223,709;15,44120
 720,56; 8825,413;  264,988;55553,840;15,48309
 721,13; 8861,038;  241,296;55688,124;15,54596
 721,70; 8866,662;  248,835;55484,255;15,60200
 722,27; 8899,595;  273,912;55549,770;15,60479
 722,84; 8985,835;  306,374;55677,900;15,67495
 723,41; 8918,921;  240,835;55715,569;15,64331
 723,98; 9016,162;  266,682;55931,161;15,71825
 724,55; 9127,094;  283,144;55921,215;15,89550
 725,12; 9024,180;  221,836;55925,192;15,80218
 725,69; 9124,036;  253,221;56131,091;15,87536
 726,27; 9132,892;  266,606;56193,145;15,85345
 726,84; 9155,286;  269,298;56558,891;15,78620
 727,41; 9250,064;  274,683;56495,175;15,96461
 727,98; 9305,151;  272,376;56762,306;15,99006
 728,55; 9339,314;  296,068;56619,205;16,05600
 729,12; 9393,400;  239,607;56799,951;16,18412
 729,69; 9450,948;  279,376;57065,620;16,15104
 730,26; 9507,034;  276,069;57301,443;16,18747
 730,82; 9481,659;  272,069;57015,958;16,23010
 731,39; 9500,899;  263,608;57200,396;16,22377
 731,96; 9555,370;  251,454;57379,758;16,28600
 732,53; 9672,918;  265,455;57658,119;16,39140
 733,10; 9761,312;  274,609;57655,326;16,53291
 733,67; 9804,860;  271,455;57940,841;16,53114
 734,24; 9688,562;  251,994;57573,126;16,46263
 734,81; 9770,571;  285,456;57668,949;16,52935
 735,38; 9772,350;  270,840;57484,925;16,60694
 735,95; 9774,821;  271,148;57348,594;16,65049
 736,52; 9828,292;  277,610;57559,878;16,67302
 737,09; 9838,916;  265,918;57244,547;16,80103
 737,66; 9913,772;  307,072;57340,678;16,84393
 738,23; 9940,628;  259,534;57458,193;16,92539
 738,80;10045,560;  314,919;57686,631;16,96070
 739,37;10048,800;  294,150;57997,146;16,90493
 739,94;10075,656;  266,765;58021,969;16,98356
 740,51;10180,588;  361,073;58162,869;16,98825
 741,07;10130,905;  257,304;57969,230;17,10842
 741,64;10225,838;  299,458;58260,591;17,12592
 742,21;10272,847;  268,459;58352,491;17,22399
 742,78;10267,626;  238,074;58040,006;17,35159
 743,35;10309,943;  267,921;58393,598;17,27640
 743,92;10387,875;  293,382;58500,806;17,34228
 744,49;10460,654;  272,075;58297,244;17,55890
 745,06;10457,510;  262,537;58309,990;17,56317
 745,63;10437,673;  246,922;58349,813;17,53915
 746,19;10427,605;  260,537;58279,174;17,52380
 746,76;10464,615;  260,614;58369,227;17,56022
 747,33;10514,316;  256,307;58286,589;17,67699
 747,90;10591,711;  280,384;58549,027;17,69618
 748,47;10637,335;  276,615;58454,850;17,80858
 749,04;10637,652;  273,000;58474,596;17,80819
 749,61;10694,893;  287,308;58464,495;17,88946
 750,17;10736,287;  285,693;58499,856;17,95198
 750,74;10751,911;  274,001;58413,910;18,02189
 751,31;10725,075;  257,078;58361,194;18,01593
 751,88;10750,161;  231,463;58242,479;18,13224
 752,45;10858,093;  261,617;58344,071;18,24385
 753,02;10883,564;  282,848;58210,355;18,29997
 753,58;10870,881;  249,232;58226,639;18,32032
 754,15;10905,199;  258,617;58347,616;18,32805
 754,72;10917,516;  247,156;58025,824;18,46765
 755,29;10912,371;  241,156;57871,723;18,51659
 755,86;10928,304;  262,387;58023,931;18,46543
 756,42;11048,852;  267,311;57938,600;18,69482
 756,99;11027,707;  228,388;57931,653;18,71527
 757,56;11078,332;  235,003;57765,245;18,84805
 758,13;11048,495;  200,234;57725,068;18,85840
 758,70;11221,889;  227,773;57822,122;19,08888
 759,26;11191,822;  223,696;57884,329;19,02186
 759,83;11246,370;  234,543;57974,152;19,07153
 760,40;11212,687;  219,928;57712,590;19,12028
 760,97;11204,619;  197,774;57783,567;19,11382
 761,53;11280,705;  193,697;57436,697;19,36832
 762,10;11213,099;  196,544;57388,905;19,26229
 762,67;11348,494;  229,313;57454,112;19,43070
 763,24;11224,503;  189,852;56929,781;19,44777
 763,80;11312,358;  228,314;57080,835;19,49614
 764,37;11226,906;  218,929;57096,119;19,35394
 764,94;11243,916;  215,391;56619,172;19,55281
 765,50;11278,310;  216,314;56701,841;19,58377
 766,07;11349,550;  252,622;56651,433;19,67582
 766,64;11290,021;  230,776;56431,872;19,67799
 767,21;11283,415;  225,777;56265,618;19,73174
 767,77;11329,501;  250,315;56115,825;19,83189
 768,34;11312,588;  239,239;56116,109;19,81741
 768,91;11343,674;  255,162;55937,317;19,91394
 769,47;11371,914;  245,008;55948,909;19,97509
 770,04;11408,385;  262,855;55841,962;20,05345
 770,61;11305,164;  240,086;55658,939;19,96627
 771,18;11435,019;  231,932;55498,454;20,27102
 771,74;11441,644;  246,932;55584,123;20,23000
 772,31;11487,038;  247,317;55284,253;20,42214
 772,88;11409,278;  225,471;55091,615;20,38380
 773,44;11478,134;  228,471;55019,130;20,53208
 774,01;11532,528;  246,010;55033,953;20,60037
 774,58;11527,306;  234,549;54714,775;20,72818
 775,14;11604,700;  230,703;54775,598;20,85254
 775,71;11655,325;  238,395;54690,421;20,96695
 776,27;11717,642;  283,857;54724,475;21,00231
 776,84;11801,190;  308,165;54764,067;21,10520
 777,41;11748,584;  245,165;54464,966;21,21627
 777,97;11665,055;  244,550;54181,635;21,17375
 778,54;11739,988;  259,012;54240,381;21,26840
 779,11;11807,382;  268,551;54182,666;21,40224
 779,67;11790,468;  228,166;54092,642;21,46554
 780,24;11772,477;  251,936;53933,388;21,46093
 780,80;11846,718;  269,013;53984,749;21,55366
 781,37;11805,881;  254,859;53989,264;21,49651
 781,94;11882,275;  246,783;53653,703;21,78649
 782,50;11837,438;  257,091;53683,833;21,67519
 783,07;11924,755;  281,937;53762,964;21,77000
 783,63;11863,688;  240,860;53436,556;21,84919
 784,20;11911,928;  273,399;53488,686;21,87065
 784,77;11977,860;  256,553;53280,586;22,10565
 785,33;11927,408;  229,784;52997,332;22,16822
 785,90;11888,495;  253,015;53002,078;22,05817
 786,46;11934,812;  269,861;52896,439;22,16551
 787,03;11984,206;  242,092;52744,339;22,36497
 787,59;12019,446;  248,631;52615,315;22,47768
 788,16;12020,686;  258,478;52575,292;22,48265
 788,73;12022,926;  265,401;52391,576;22,55589
 789,29;11958,243;  244,786;51910,014;22,67184
 789,86;12069,253;  267,171;51898,222;22,85850
 790,42;12075,493;  257,094;51859,737;22,90270
 790,99;12025,425;  272,479;51447,944;22,96598
 791,55;12055,512;  245,633;51501,152;23,04118
 792,12;12040,060;  265,556;51433,359;23,01155
 792,68;12023,838;  254,556;51144,874;23,12676
 793,25;11986,771;  265,941;50834,543;23,17808
 793,81;11966,165;  309,249;50529,058;23,21179
 794,38;11967,097;  217,557;50328,112;23,44724
 794,94;11904,260;  244,173;50104,243;23,38562
 795,51;11904,039;  257,788;49860,681;23,47898
 796,07;11852,972;  260,789;49633,504;23,47893
 796,64;11907,058;  264,712;49687,480;23,55664
 797,20;11824,221;  258,558;49121,303;23,66970
 797,77;11789,692;  229,328;48871,664;23,76605
 798,33;11757,394;  241,866;48671,641;23,77778
 798,90;11800,634;  274,636;48687,771;23,80758
 799,46;11783,182;  246,251;48125,363;24,09596
 800,03;11786,499;  270,790;48025,109;24,11449
 800,59;11746,893;  272,713;47941,624;24,07057
 801,15;11771,979;  258,175;47589,524;24,32596
 801,72;11691,373;  252,406;47287,732;24,31995
 802,28;11709,690;  285,560;46983,631;24,46382
 802,85;11653,007;  249,330;46889,300;24,45044
 803,41;11646,478;  246,561;46712,892;24,53372
 803,98;11593,642;  249,484;46328,330;24,61901
 804,54;11576,497;  249,946;46006,846;24,75376
 805,11;11581,660;  258,485;45810,130;24,85789
 805,67;11513,054;  272,100;45752,414;24,71609
 806,23;11400,910;  262,408;45267,006;24,74970
 806,80;11455,843;  275,562;45117,444;24,93267
 807,36;11454,160;  282,793;45013,267;24,97484
 807,93;11444,631;  286,024;44813,321;25,06015
 808,49;11463,178;  245,640;44510,144;25,34206
 809,05;11404,957;  234,640;44363,505;25,31295
 809,62;11411,966;  270,410;44212,405;25,35515
 810,18;11491,514;  263,871;44157,151;25,57941
 810,74;11403,062;  232,025;43883,896;25,59120
 811,31;11406,918;  245,872;43546,335;25,77581
 811,87;11412,081;  256,564;43534,004;25,77675
 812,44;11480,398;  283,949;43399,288;25,96860
 813,00;11338,408;  209,719;43112,880;25,93909
 813,56;11447,186;  260,950;43217,010;26,04111
 814,13;11491,503;  259,565;43157,449;26,18297
 814,69;11462,897;  251,719;42808,348;26,34414
 815,25;11346,445;  229,104;42601,479;26,23724
 815,82;11452,455;  275,335;42334,840;26,57454
 816,38;11419,387;  298,182;42184,817;26,55073
 816,94;11345,320;  235,490;41865,486;26,68708
 817,51;11293,098;  226,644;41713,001;26,67492
 818,07;11255,261;  242,105;41376,747;26,77343
 818,63;11259,578;  265,336;41247,262;26,82705
 819,20;11264,665;  249,798;41189,777;26,90492
 819,76;11185,674;  235,414;40615,138;27,11821
 820,32;11253,299;  268,952;40609,961;27,22874
 820,89;11226,693;  270,799;40403,553;27,29913
 821,45;11097,318;  233,338;40010,145;27,31235
 822,01;11143,635;  273,876;39788,660;27,50808
 822,57;11099,183;  267,107;39675,791;27,48652
 823,14;11107,808;  238,415;39514,075;27,67463
 823,70;11052,432;  241,108;39247,282;27,71696
 824,26;11063,826;  235,262;39008,797;27,92772
 824,82;11117,913;  257,570;38887,005;28,11416
 825,39;11066,922;  239,647;38619,828;28,21059
 825,95;11203,239;  261,878;38651,958;28,50049
 826,51;11089,326;  258,340;38153,550;28,58141
 827,08;11187,104;  278,417;38206,065;28,76183
 827,64;11147,191;  257,186;38029,657;28,83053
 828,20;11132,815;  242,956;37724,249;29,05412
 828,76;11171,979;  273,494;37724,072;29,10098
 829,32;11172,911;  275,879;37573,895;29,21612
 829,89;11131,536;  234,187;37475,256;29,26164
 830,45;11219,468;  253,572;37367,925;29,54624
 831,01;11219,632;  241,188;37192,517;29,71055
 831,57;11224,564;  252,188;37083,494;29,79090
 832,14;11253,804;  246,496;37046,163;29,91143
 832,70;11207,198;  233,111;36757,370;30,04602
 833,26;11189,900;  214,189;36663,808;30,11200
 833,82;11230,371;  238,343;36525,016;30,29219
 834,38;11213,611;  233,804;36584,069;30,20558
 834,95;11267,851;  234,882;36441,892;30,47192
 835,51;11292,707;  205,343;36314,946;30,70475
 836,07;11322,793;  243,190;36355,615;30,68086
 836,63;11417,033;  262,882;36381,668;30,88185
 837,19;11415,812;  247,421;36206,645;31,05849
 837,75;11290,129;  215,421;35942,391;30,99817
 838,32;11422,677;  258,268;36010,829;31,22688
 838,88;11462,148;  257,499;36027,575;31,32409
 839,44;11470,234;  251,499;35891,705;31,47775
 840,00;11527,013;  248,961;35852,067;31,67716
 840,56;11506,484;  224,422;35544,428;31,94241
 841,12;11499,955;  231,346;35616,482;31,84560
 841,68;11431,810;  218,654;35367,151;31,90224
 842,25;11507,204;  231,039;35432,358;32,03336
 842,81;11481,291;  224,193;35091,796;32,28526
 843,37;11500,146;  205,270;35087,311;32,38020
 843,93;11493,309;  234,885;35064,749;32,32405
 844,49;11621,473;  240,578;35030,880;32,71284
 845,05;11563,405;  202,040;34888,395;32,75457
 845,61;11655,876;  253,809;34860,756;32,94734
 846,17;11581,039;  233,040;34734,348;32,89150
 846,73;11596,818;  242,810;34729,863;32,92252
 847,29;11558,750;  215,733;34468,763;33,11537
 847,86;11647,991;  221,118;34521,817;33,31382
 848,42;11597,077;  208,580;34236,024;33,46856
 848,98;11651,009;  241,811;34193,924;33,60380
 849,54;11691,327;  228,965;34233,670;33,70816
 850,10;11642,567;  237,734;34080,108;33,69986
 850,66;11605,730;  216,734;33874,469;33,83768
 851,22;11659,278;  212,504;33864,061;34,01558
 851,78;11657,133;  268,043;33891,807;33,87215
 852,34;11691,143;  237,274;33624,938;34,30569
 852,90;11681,229;  226,889;33522,991;34,40144
 853,46;11672,854;  218,120;33292,583;34,63317
 854,02;11684,017;  234,274;33293,791;34,63373
 854,58;11572,027;  221,659;32997,075;34,63074
 855,14;11605,344;  221,736;32969,359;34,76163
 855,70;11569,199;  196,121;32805,721;34,87647
 856,26;11557,516;  242,275;32805,159;34,74889
 856,82;11588,757;  229,429;32524,905;35,17312
 857,38;11616,997;  246,276;32449,035;35,30977
 857,94;11589,621;  240,430;32373,473;35,31938
 858,50;11615,015;  249,661;32173,527;35,60144
 859,06;11546,179;  224,892;32001,965;35,62722
 859,62;11565,265;  242,969;31978,326;35,67723
 860,18;11520,659;  227,738;31700,841;35,88118
 860,74;11529,745;  195,431;31622,280;36,06570
 861,30;11507,370;  207,893;31446,333;36,17171
 861,86;11598,841;  260,124;31459,925;36,34227
 862,42;11526,312;  226,662;31272,133;36,39710
 862,98;11578,706;  253,047;31308,571;36,46906
 863,54;11541,254;  233,971;31118,394;36,61161
 864,10;11574,725;  223,202;31050,293;36,82321
 864,66;11516,734;  208,202;30911,809;36,83128
 865,22;11474,282;  230,510;30695,324;36,90741
 865,78;11508,445;  229,895;30639,608;37,08865
 866,34;11519,532;  226,664;30513,200;37,28676
 866,90;11480,772;  236,895;30375,023;37,30781
 867,45;11448,089;  230,818;30249,076;37,36816
 868,01;11462,252;  235,511;30036,976;37,67178
 868,57;11425,877;  226,434;29866,799;37,78443
 869,13;11418,963;  211,204;29736,391;37,96000
 869,69;11430,819;  215,512;29661,214;38,08810
 870,25;11436,444;  209,512;29513,113;38,31246
 870,81;11422,069;  218,974;29522,167;38,23165
 871,37;11482,463;  225,974;29387,682;38,60024
 871,93;11434,549;  233,436;29172,197;38,70626
 872,49;11447,404;  253,897;29027,866;38,90151
 873,04;11350,337;  212,513;28819,304;38,93420
 873,60;11340,500;  219,667;28684,666;39,06845
 874,16;11301,587;  236,206;28544,181;39,08927
 874,72;11333,356;  222,437;28517,873;39,26753
 875,28;11335,817;  226,052;28424,873;39,39798
 875,84;11327,817;  226,590;28321,873;39,51278
 876,40;11304,125;  220,513;28379,412;39,36096
 876,95;11366,817;  239,129;28235,104;39,74746
 877,51;11385,663;  260,052;28329,873;39,63549
 878,07;11460,048;  269,744;28231,488;40,02005
 878,63;11536,048;  228,283;28280,027;40,31038
 879,19;11553,433;  235,898;28263,258;40,38031
 879,75;11604,894;  226,590;28335,642;40,47914
 880,30;11579,817;  230,821;28199,027;40,57821
 880,86;11715,279;  267,821;28385,488;40,71269
 881,42;11780,279;  216,667;28452,104;40,95425
 881,98;11875,510;  240,898;28461,335;41,22761
 882,54;11967,663;  224,744;28577,719;41,41689
 883,09;12066,510;  238,513;28735,488;41,50615
 883,65;12111,510;  214,283;28770,335;41,66272
 884,21;12280,587;  256,206;28987,565;41,85107
 884,77;12330,125;  221,360;28983,104;42,10025
 885,32;12458,971;  230,975;29187,642;42,22860
 885,88;12533,356;  259,283;29262,335;42,31994
 886,44;12680,356;  237,513;29484,642;42,54381
 887,00;12691,279;  254,360;29404,412;42,66517
 887,56;12824,433;  231,437;29648,488;42,80849
 888,11;12808,817;  236,360;29552,412;42,88592
 888,67;12990,740;  264,206;29822,412;43,05584
 889,23;12990,356;  237,667;29833,873;43,08893
 889,79;12988,433;  214,360;29723,027;43,28922
 890,34;12963,279;  239,360;29613,258;43,31709
 890,90;13158,894;  302,975;29761,181;43,64122
 891,46;13023,125;  225,667;29652,104;43,48966
 892,01;13132,817;  252,975;29674,104;43,77753
 892,57;13154,663;  252,821;29550,335;44,03733
 893,13;13079,971;  233,283;29317,873;44,17009
 893,69;13027,817;  227,129;29388,719;43,89571
 894,24;13024,587;  236,667;29281,335;44,02846
 894,80;12958,356;  231,052;29059,104;44,14902
 895,36;13012,817;  230,129;28942,873;44,51922
 895,91;12906,587;  231,206;28773,719;44,40878
 896,47;12945,817;  258,975;28624,412;44,72641
 897,03;12890,048;  220,667;28386,335;44,98165
 897,58;12796,202;  238,821;28392,488;44,60300
 898,14;12793,202;  239,975;28132,565;45,00560
 898,70;12747,433;  209,667;27967,642;45,16816
 899,25;12793,663;  228,129;27958,719;45,31290
 899,81;12786,279;  250,590;27772,104;45,54869
 900,37;12719,202;  217,437;27573,104;45,70082
 900,92;12707,894;  240,283;27632,719;45,51480
 901,48;12653,587;  224,821;27419,488;45,70295
 902,03;12645,894;  223,513;27255,796;45,95387
 902,59;12595,279;  226,052;27215,412;45,83001
 903,15;12619,587;  256,052;26958,950;46,30035
 903,70;12516,356;  244,052;26687,181;46,41018
 904,26;12462,279;  217,744;26660,335;46,30611
 904,82;12519,279;  236,744;26648,488;46,50406
 905,37;12439,433;  240,052;26469,873;46,50958
 905,93;12416,202;  224,744;26360,104;46,64737
 906,48;12423,433;  239,667;26317,104;46,72148
 907,04;12368,971;  253,898;26173,181;46,74154
 907,60;12285,433;  224,975;25972,873;46,84055
 908,15;12304,433;  218,667;25883,104;47,09149
 908,71;12346,971;  250,513;25858,335;47,23736
 909,26;12275,971;  213,283;25706,950;47,31641
 909,82;12236,356;  257,437;25599,796;47,26837
 910,37;12257,356;  268,052;25525,796;47,46783
 910,93;12186,587;  219,744;25226,335;47,85475
 911,48;12161,587;  208,513;25048,181;48,12091
 912,04;12147,202;  216,590;24939,950;48,25643
 912,60;12146,971;  242,206;25022,488;48,04128
 913,15;12120,202;  235,975;24808,104;48,36466
 913,71;12033,279;  226,360;24581,642;48,47786
 914,26;12019,587;  204,360;24588,950;48,45366
 914,82;12009,663;  234,975;24467,873;48,58968
 915,37;11955,817;  226,898;24384,950;48,55077
 915,93;12021,048;  277,129;24278,258;48,93070
 916,48;11898,202;  216,283;24113,488;48,88404
 917,04;11915,356;  239,590;24033,642;49,07010
 917,59;11898,125;  254,129;23937,412;49,16547
 918,15;11760,510;  206,206;23718,181;49,14221
 918,70;11732,279;  226,283;23675,335;49,06807
 919,26;11787,510;  229,667;23483,565;49,70282
 919,81;11727,048;  212,975;23370,412;49,72084
 920,37;11746,663;  233,283;23301,335;49,91050
 920,92;11653,971;  241,975;23216,796;49,67175
 921,48;11605,740;  209,667;22934,027;50,14915
 922,03;11538,663;  218,437;23038,488;49,60649
 922,59;11593,433;  225,821;22863,565;50,21530
 923,14;11584,279;  223,975;22679,488;50,59027
 923,69;11620,125;  244,283;22620,642;50,83866
 924,25;11577,817;  248,513;22641,181;50,59381
 924,80;11504,817;  225,975;22275,796;51,15163
 925,36;11489,356;  219,744;22273,104;51,10156
 925,91;11435,125;  222,052;22124,873;51,19465
 926,47;11416,740;  209,667;22107,181;51,17966
 927,02;11417,740;  269,744;22038,335;51,21138
 927,57;11373,279;  220,975;21821,565;51,62963
 928,13;11311,740;  217,360;21776,642;51,45988
 928,68;11339,125;  221,283;21722,027;51,70910
 929,24;11252,279;  192,821;21528,642;51,83516
 929,79;11140,894;  216,052;21382,335;51,61436
 930,34;11090,740;  216,513;21190,642;51,84591
 930,90;11054,433;  215,898;21257,642;51,50968
 931,45;11113,971;  233,513;21206,719;51,87790
 932,01;11080,663;  231,360;21068,950;52,06602
 932,56;10995,740;  244,513;20865,642;52,13695
 933,11;11042,894;  256,437;20914,258;52,21489
 933,67;10908,510;  216,360;20690,488;52,22273
 934,22;10919,510;  221,283;20578,796;52,55174
 934,77;10950,663;  251,360;20507,642;52,81968
 935,33;10823,587;  233,975;20403,412;52,50326
 935,88;10793,433;  226,590;20301,335;52,63749
 936,43;10790,048;  218,975;20248,181;52,77829
 936,99;10732,048;  225,206;20154,719;52,72001
 937,54;10655,663;  212,513;19992,719;52,79596
 938,09;10698,510;  235,360;19954,412;53,06112
 938,65;10678,356;  230,437;19810,104;53,36107
 939,20;10602,356;  204,129;19720,104;53,28059
 939,75;10630,433;  217,360;19588,488;53,75563
 940,31;10600,817;  214,590;19526,642;53,78106
 940,86;10608,279;  228,744;19496,873;53,86893
 941,41;10642,663;  300,129;19384,873;54,19268
 941,96;10571,587;  217,590;19234,412;54,44651
 942,52;10519,740;  218,898;19187,027;54,30605
 943,07;10489,048;  200,283;19000,335;54,72732
 943,62;10479,663;  210,513;18923,565;54,87694
 944,18;10486,048;  204,667;18843,796;55,16020
 944,73;10546,971;  220,129;18759,181;55,70318
 945,28;10456,587;  200,898;18568,873;55,83462
 945,83;10491,971;  224,975;18574,873;55,95124
 946,39;10530,048;  214,590;18463,565;56,52623
 946,94;10476,510;  239,052;18505,642;56,04471
 947,49;10426,587;  225,590;18264,719;56,54927
 948,04;10489,125;  248,513;18248,181;56,89334
 948,59;10438,894;  237,129;18177,258;56,86562
 949,15;10351,048;  208,898;18127,104;56,60249
 949,70;10339,587;  211,283;18002,412;56,92896
 950,25;10306,894;  243,590;17877,258;57,06870
 950,80;10201,202;  190,129;17786,719;56,89212
 951,36;10194,356;  188,975;17675,027;57,21921
 951,91;10243,894;  236,129;17672,027;57,39748
 952,46;10092,894;  207,821;17485,873;57,21173
 953,01;10118,356;  238,283;17504,565;57,22177
 953,56;10076,971;  203,975;17356,642;57,55954
 954,11;10031,048;  221,283;17362,796;57,22812
 954,67; 9983,587;  214,898;17186,104;57,56037
 955,22; 9969,279;  202,129;17152,181;57,62313
 955,77; 9980,202;  238,437;17072,488;57,86940
 956,32; 9894,279;  267,283;16949,796;57,70711
 956,87; 9861,125;  207,821;16783,565;58,23753
 957,42; 9823,356;  210,206;16742,488;58,14775
 957,98; 9800,817;  209,821;16680,873;58,22941
 958,53; 9822,125;  240,437;16656,335;58,36835
 959,08; 9769,587;  216,283;16515,642;58,61153
 959,63; 9728,740;  214,283;16453,335;58,58998
 960,18; 9725,817;  226,206;16438,873;58,59376
 960,73; 9695,740;  214,513;16331,412;58,82786
 961,28; 9698,433;  206,975;16188,027;59,39195
 961,83; 9748,125;  241,667;16189,565;59,60947
 962,39; 9625,202;  200,129;16034,719;59,52205
 962,94; 9609,048;  231,360;16000,950;59,46691
 963,49; 9555,663;  214,744;15862,104;59,69646
 964,04; 9594,971;  232,052;15809,027;60,10743
 964,59; 9475,356;  199,975;15702,950;59,82968
 965,14; 9525,971;  234,206;15642,412;60,30401
 965,69; 9419,048;  220,129;15507,950;60,17155
 966,24; 9435,048;  213,437;15436,719;60,57571
 966,79; 9410,433;  231,667;15336,258;60,76805
 967,34; 9254,587;  199,052;15212,719;60,31527
 967,89; 9248,202;  209,590;15114,104;60,64345
 968,44; 9237,125;  226,206;15046,565;60,80095
 968,99; 9189,048;  229,052;14984,565;60,72304
 969,55; 9144,971;  227,283;14903,027;60,76481
 970,10; 9092,817;  230,821;14821,642;60,73679
 970,65; 9075,587;  233,513;14703,335;61,10700
 971,20; 9003,279;  210,052;14610,488;61,06222
 971,75; 8855,279;  201,206;14497,181;60,53503
 972,30; 8859,202;  225,898;14445,873;60,71251
 972,85; 8815,510;  206,513;14366,796;60,79678
 973,40; 8703,202;  204,513;14167,565;60,86555
 973,95; 8705,663;  224,360;14185,412;60,74975
 974,50; 8675,433;  248,360;14086,950;60,89546
 975,05; 8611,202;  224,206;13905,642;61,30201
 975,60; 8593,663;  227,667;13878,950;61,28359
 976,15; 8509,894;  216,052;13755,950;61,25484
 976,70; 8453,971;  212,744;13693,335;61,13402
 977,25; 8411,510;  228,667;13616,258;61,12259
 977,80; 8308,663;  212,975;13398,565;61,39800
 978,35; 8282,125;  231,590;13314,796;61,53335
 978,89; 8192,587;  194,667;13252,873;61,24822
 979,44; 8209,971;  216,744;13219,796;61,47193
 979,99; 8109,894;  206,129;13049,488;61,53970
 980,54; 8130,663;  236,513;12988,104;61,90718
 981,09; 8048,894;  238,437;12832,565;62,01666
 981,64; 7960,433;  231,360;12723,488;61,87154
 982,19; 7971,817;  253,667;12714,719;61,93819
 982,74; 7870,048;  233,667;12564,565;61,92883
 983,29; 7804,587;  209,052;12400,027;62,30457
 983,84; 7698,894;  228,513;12303,488;61,86664
 984,39; 7764,510;  277,437;12298,181;62,28461
 984,94; 7658,356;  198,129;12154,719;62,39427
 985,49; 7641,587;  248,667;12060,335;62,58997
 986,03; 7577,971;  239,206;11997,796;62,41195
 986,58; 7495,740;  271,360;11828,565;62,50975
 987,13; 7411,971;  228,898;11728,796;62,46206
 987,68; 7383,202;  239,437;11609,335;62,83051
 988,23; 7354,433;  231,821;11558,027;62,88612
 988,78; 7242,279;  215,283;11352,104;63,09697
 989,33; 7238,587;  235,898;11312,181;63,22237
 989,88; 7203,510;  261,975;11214,412;63,37891
 990,42; 7120,433;  220,667;11102,181;63,40814
 990,97; 7055,202;  220,283;10949,027;63,70661
 991,52; 7005,279;  248,975;10915,027;63,34400
 992,07; 6993,587;  256,667;10801,412;63,88888
 992,62; 6887,894;  241,052;10718,873;63,43726
 993,17; 6842,433;  244,590;10596,104;63,73795
 993,71; 6790,048;  236,744;10508,565;63,79885
 994,26; 6725,587;  220,667;10335,950;64,30783
 994,81; 6745,279;  246,129;10295,027;64,67525
 995,36; 6647,510;  235,052;10137,719;64,75485
 995,91; 6645,356;  228,821;10097,335;65,02028
 996,45; 6586,587;  232,513; 9939,719;65,45728
 997,00; 6496,817;  214,129; 9861,565;65,12288
 997,55; 6545,433;  235,513; 9794,335;66,01148
 998,10; 6440,663;  261,590; 9676,488;65,63080
 998,65; 6383,356;  223,975; 9595,027;65,72774
 999,19; 6339,125;  251,283; 9456,412;66,13533
 999,74; 6283,356;  278,975; 9402,104;65,81493
1000,29; 6221,587;  251,821; 9298,950;65,98519
1000,84; 6146,587;  231,744; 9158,950;66,25637
1001,38; 6102,894;  234,129; 9078,796;66,35372
1001,93; 6022,279;  242,437; 9040,335;65,69572
1002,48; 5927,048;  218,129; 8857,104;66,08329
1003,03; 5910,279;  236,052; 8843,104;65,92532
1003,57; 5831,894;  242,667; 8662,719;66,37996
1004,12; 5820,202;  267,052; 8632,565;66,38146
1004,67; 5744,048;  233,052; 8498,412;66,67582
1005,22; 5637,279;  223,437; 8366,565;66,48356
1005,76; 5579,356;  216,206; 8234,027;66,89037
1006,31; 5540,433;  247,283; 8191,796;66,62648
1006,86; 5458,663;  226,744; 8071,488;66,69331
1007,40; 5342,202;  218,590; 7946,335;66,30152
1007,95; 5346,510;  238,437; 7855,027;67,06509
1008,50; 5263,894;  234,360; 7722,488;67,16677
1009,04; 5188,202;  231,513; 7619,181;67,09409
1009,59; 5115,587;  247,744; 7518,027;66,95534
1010,14; 5080,817;  221,360; 7391,488;67,77365
1010,68; 5018,510;  234,283; 7255,873;68,13594
1011,23; 4919,202;  215,590; 7127,412;68,05170
1011,78; 4914,356;  240,129; 7102,796;68,11094
1012,32; 4883,433;  239,821; 7005,104;68,63884
1012,87; 4848,971;  259,206; 6943,412;68,66583
1013,42; 4735,048;  210,360; 6846,796;68,17949
1013,96; 4772,663;  261,360; 6832,565;68,65260
1014,51; 4671,356;  198,667; 6706,412;68,72871
1015,06; 4698,894;  190,360; 6751,488;68,71584
1015,60; 4774,356;  268,975; 6764,488;69,36143
1016,15; 4748,048;  215,052; 6756,335;69,29828
1016,69; 4764,663;  231,437; 6763,719;69,39729
1017,24; 4758,587;  196,283; 6787,796;69,21481
1017,79; 4813,587;  245,744; 6832,796;69,34578
1018,33; 4817,125;  220,821; 6814,104;69,71192
1018,88; 4887,971;  237,744; 6866,104;70,15653
1019,42; 4882,048;  221,437; 6870,104;70,09843
1019,97; 4846,971;  215,437; 6884,873;69,44417
1020,51; 4944,587;  248,206; 6918,335;70,40915
1021,06; 4907,510;  204,590; 6930,642;69,92095
1021,61; 4896,433;  187,898; 6853,258;70,64187
1022,15; 4883,048;  193,437; 6810,796;70,86832
1022,70; 4914,894;  225,206; 6826,950;71,03711
1023,24; 4864,356;  213,975; 6803,335;70,57409
1023,79; 4846,894;  222,898; 6735,258;71,00339
1024,33; 4794,125;  221,513; 6661,950;70,99847
1024,88; 4732,663;  233,437; 6588,873;70,79336
1025,42; 4714,971;  224,360; 6499,950;71,55680
1025,97; 4603,356;  212,898; 6359,719;71,42648
1026,51; 4528,971;  180,360; 6257,873;71,55248
1027,06; 4526,125;  212,129; 6224,027;71,75764
1027,60; 4446,279;  227,437; 6133,565;71,43160
1028,15; 4406,048;  232,052; 6013,565;72,19556
1028,69; 4274,510;  191,206; 5878,642;71,79515
1029,24; 4271,587;  211,129; 5852,181;71,98051
1029,78; 4216,894;  207,437; 5700,258;72,99451
1030,33; 4144,125;  193,360; 5620,796;72,79247
1030,87; 4090,279;  217,744; 5544,412;72,70089
1031,42; 4073,510;  199,513; 5511,565;72,92843
1031,96; 4011,202;  219,206; 5417,181;72,95141
1032,51; 3948,125;  208,898; 5315,412;73,22466
1033,05; 3898,356;  224,821; 5261,565;72,93471
1033,60; 3823,894;  180,590; 5120,796;73,74802
1034,14; 3805,971;  219,206; 5065,642;74,00830
1034,69; 3755,356;  212,898; 5014,873;73,77085
1035,23; 3720,510;  221,437; 4951,873;73,96935
1035,77; 3665,817;  215,590; 4875,335;74,04327
1036,32; 3603,048;  191,206; 4794,950;74,11016
1036,86; 3592,433;  214,667; 4770,719;74,13799
1037,41; 3539,894;  224,360; 4664,796;74,66686
1037,95; 3486,894;  185,513; 4588,642;74,97806
1038,50; 3459,356;  200,283; 4514,027;75,55091
1039,04; 3376,356;  232,667; 4480,642;74,00440
1039,58; 3353,510;  198,052; 4391,950;75,23926
1040,13; 3329,817;  209,821; 4376,412;74,88128
1040,67; 3274,971;  246,283; 4344,258;73,90695
1041,21; 3261,587;  239,975; 4268,412;75,00705
1041,76; 3153,894;  202,590; 4130,027;75,14581
1042,30; 3156,202;  205,360; 4121,488;75,35100
1042,85; 3098,663;  207,360; 4036,796;75,50207
1043,39; 3042,433;  202,052; 3977,719;75,22858
1043,93; 3032,740;  230,129; 3965,719;75,02459
1044,48; 2997,663;  225,744; 3904,335;75,35276
1045,02; 2940,510;  209,590; 3804,258;75,97140
1045,56; 2947,740;  238,744; 3770,642;76,70086
1046,11; 2921,356;  230,590; 3755,873;76,32765
1046,65; 2858,971;  220,206; 3681,719;76,23155
1047,19; 2834,279;  204,975; 3618,412;77,02806
1047,74; 2773,356;  194,667; 3528,873;77,34041
1048,28; 2745,048;  223,206; 3535,412;76,13785
1048,82; 2787,894;  244,744; 3506,181;77,97638
1049,37; 2719,587;  223,975; 3444,642;77,48741
1049,91; 2674,125;  217,821; 3417,335;76,77117
1050,45; 2651,202;  227,590; 3377,719;76,93690
1050,99; 2650,740;  216,744; 3306,873;78,76682
1051,54; 2581,817;  210,975; 3262,335;77,69790
1052,08; 2592,587;  234,590; 3226,796;78,80461
1052,62; 2538,279;  239,283; 3178,642;78,21418
1053,16; 2473,740;  217,437; 3109,335;78,02155
1053,71; 2469,740;  225,667; 3088,027;78,39941
1054,25; 2440,433;  234,129; 3042,104;78,57277
1054,79; 2419,817;  223,821; 2991,258;79,35127
1055,33; 2337,125;  194,975; 2892,873;79,40070
1055,88; 2319,740;  228,590; 2926,796;77,50150
1056,42; 2311,894;  236,821; 2891,027;78,18057
1056,96; 2264,971;  236,898; 2825,873;78,33498
1057,50; 2236,510;  228,129; 2797,796;78,15723
1058,05; 2185,817;  220,052; 2745,796;77,82915
1058,59; 2205,510;  232,590; 2715,719;79,45295
1059,13; 2115,433;  206,206; 2624,642;78,94468
1059,67; 2120,433;  222,052; 2633,719;78,71653
1060,21; 2063,740;  227,437; 2581,181;78,01629
1060,76; 2068,817;  236,667; 2548,950;79,23555
1061,30; 2050,817;  250,513; 2537,565;78,71723
1061,84; 2001,356;  233,513; 2464,181;79,25172
1062,38; 1987,587;  214,821; 2407,796;80,83838
1062,92; 2005,433;  259,513; 2438,796;80,11440
1063,46; 1926,279;  238,206; 2377,873;78,89418
1064,01; 1923,971;  223,590; 2308,719;81,54800
1064,55; 1912,433;  229,437; 2278,181;82,14769
1065,09; 1848,202;  196,744; 2234,027;81,06178
1065,63; 1908,356;  258,898; 2275,642;81,78814
1066,17; 1874,433;  254,975; 2250,642;81,14868
1066,71; 1842,202;  246,667; 2217,719;80,94838
1067,25; 1793,048;  230,206; 2156,488;81,13255
1067,80; 1800,356;  243,360; 2149,719;81,67379
1068,34; 1801,125;  260,052; 2148,950;81,58582
1068,88; 1745,510;  225,283; 2081,258;81,90988
1069,42; 1771,663;  254,437; 2088,181;82,73929
1069,96; 1706,510;  238,590; 2014,565;82,65427
1070,50; 1719,587;  254,898; 2044,258;81,85546
1071,04; 1680,125;  217,898; 1960,027;83,93334
1071,58; 1658,433;  223,667; 1952,335;82,99835
1072,12; 1631,587;  229,283; 1930,642;82,42254
1072,66; 1643,663;  229,052; 1914,104;83,95062
1073,21; 1631,587;  240,744; 1917,950;82,92616
1073,75; 1608,048;  245,437; 1871,565;83,79481
1074,29; 1585,356;  234,283; 1851,258;83,55559
1074,83; 1580,894;  257,283; 1843,642;83,43704
1075,37; 1565,971;  249,129; 1828,412;83,38230
1075,91; 1548,356;  242,744; 1790,104;84,37674
1076,45; 1535,433;  235,590; 1773,950;84,49535
1076,99; 1513,740;  249,898; 1745,335;84,51327
1077,53; 1465,894;  220,052; 1713,488;83,42117
1078,07; 1463,048;  228,437; 1713,950;83,11009
1078,61; 1436,433;  234,360; 1670,258;83,71577
1079,15; 1429,279;  238,206; 1639,412;85,00344
1079,69; 1431,894;  225,744; 1633,027;85,70773
1080,23; 1447,971;  254,129; 1633,796;86,53117
1080,77; 1454,894;  267,052; 1646,104;86,13471
1081,31; 1359,125;  225,821; 1581,642;83,58800
1081,85; 1396,587;  249,283; 1560,950;87,46912
1082,39; 1347,125;  227,437; 1537,719;85,45396
1082,93; 1344,125;  246,975; 1544,412;84,56290
1083,47; 1304,202;  230,590; 1494,335;84,95481
1084,01; 1301,971;  247,590; 1503,719;83,93890
1084,55; 1306,587;  227,590; 1449,104;88,33273
1085,09; 1312,663;  252,744; 1463,412;87,54835
1085,63; 1285,817;  239,206; 1461,027;85,65996
1086,17; 1245,663;  228,129; 1410,642;86,04846
1086,71; 1239,894;  225,590; 1403,950;86,07761
1087,24; 1258,510;  251,821; 1425,873;85,74480
1087,78; 1231,125;  247,513; 1391,873;85,95301
1088,32; 1189,740;  229,052; 1347,181;85,91930
1088,86; 1201,587;  251,975; 1361,796;85,56438
1089,40; 1179,663;  245,744; 1326,104;86,44522
1089,94; 1151,587;  219,129; 1296,719;86,53174
1090,48; 1152,356;  254,744; 1307,642;85,25151
1091,02; 1146,740;  249,667; 1296,796;85,66979
1091,56; 1141,740;  248,667; 1270,873;87,36725
1092,10; 1101,510;  225,744; 1243,796;86,02365
1092,63; 1132,202;  262,821; 1270,335;86,28974
1093,17; 1109,817;  257,744; 1241,488;86,61531
1093,71; 1089,356;  228,052; 1212,488;87,49206
1094,25; 1114,663;  260,821; 1198,642;91,04532
1094,79; 1056,202;  236,206; 1177,181;87,14325
1095,33; 1060,817;  235,744; 1167,642;88,53684
1095,87; 1049,740;  229,667; 1172,104;87,01627
1096,40; 1013,817;  218,437; 1133,258;86,94385
1096,94; 1046,279;  242,437; 1127,027;90,87170
1097,48; 1030,894;  245,283; 1121,258;89,68424
1098,02;  987,202;  233,129; 1089,796;88,02403
1098,56;  977,663;  203,437; 1066,027;89,75603
1099,10;  960,971;  219,206; 1061,412;88,07413
1099,63;  951,894;  203,821; 1055,335;87,85217
1100,17;  965,817;  247,744; 1059,642;88,44375
1100,71;  969,971;  261,667; 1069,719;87,65573

