
Integration time [ms]: 120,000
Averaging Nr. [scans]: 13
Smoothing Nr. [pixels]: 0
Data measured with spectrometer [name]: 2009305U1
Wave   ;Sample   ;Dark     ;Reference;Reflectance
[nm]   ;[counts] ;[counts] ;[counts] ;[%]

 175,72;  205,418;  202,673;  202,814; 0,00000
 176,32;  224,599;  225,431;  219,229; 0,00000
 176,92;  254,296;  241,593;  259,926;69,28839
 177,52;  249,492;  251,671;  258,560;-31,62528
 178,12;  236,709;  228,123;  221,690; 0,00000
 178,72;  264,533;  262,428;  250,906; 0,00000
 179,32;  262,974;  256,969;  246,180; 0,00000
 179,92;  249,932;  244,743;  247,528;186,34156
 180,52;  241,547;  240,295;  251,040;11,65149
 181,12;  251,286;  250,513;  250,351; 0,00000
 181,73;  273,460;  264,591;  277,112;70,83657
 182,33;  339,093;  344,982;  351,462;-90,87496
 182,93;  271,991;  260,594;  266,980;178,47823
 183,53;  237,487;  240,272;  226,189; 0,00000
 184,13;  227,580;  234,428;  232,913; 0,00000
 184,73;  267,511;  272,348;  270,276; 0,00000
 185,33;  256,734;  227,895;  345,845;24,44975
 185,93;  259,362;  241,810;  363,162;14,46349
 186,53;  280,541;  245,969;  383,769;25,08892
 187,13;  306,843;  274,977;  418,310;22,23151
 187,73;  263,576;  236,042;  378,887;19,27506
 188,33;  281,741;  240,114;  373,931;31,10708
 188,93;  290,054;  258,330;  373,870;27,45650
 189,53;  277,315;  257,396;  374,368;17,02866
 190,13;  312,274;  277,224;  424,265;23,83701
 190,73;  250,467;  216,698;  365,464;22,69968
 191,34;  287,530;  258,249;  403,767;20,12175
 191,94;  275,201;  218,263;  371,997;37,03638
 192,54;  282,101;  243,523;  387,787;26,74171
 193,14;  294,478;  247,900;  396,592;31,32552
 193,74;  282,241;  257,129;  400,532;17,51177
 194,34;  278,210;  240,671;  386,728;25,70174
 194,94;  261,746;  220,361;  356,781;30,33635
 195,54;  222,526;  204,742;  327,334;14,50695
 196,14;  253,076;  227,827;  378,689;16,73642
 196,74;  243,487;  222,971;  359,044;15,07724
 197,34;  235,746;  197,063;  371,027;22,23620
 197,94;  266,287;  228,132;  384,373;24,42102
 198,54;  264,912;  235,596;  395,794;18,29978
 199,14;  238,190;  219,374;  388,308;11,13816
 199,74;  234,999;  202,220;  401,273;16,46758
 200,34;  235,126;  196,990;  393,795;19,37736
 200,94;  262,790;  228,446;  426,289;17,35913
 201,54;  256,435;  204,218;  443,961;21,78005
 202,14;  279,948;  229,608;  481,986;19,94617
 202,74;  255,427;  219,912;  475,274;13,90794
 203,34;  244,803;  188,920;  492,839;18,38754
 203,94;  222,687;  167,224;  499,348;16,69932
 204,54;  291,611;  245,363;  589,973;13,42052
 205,14;  263,795;  199,220;  600,798;16,08043
 205,74;  300,338;  236,688;  696,371;13,84643
 206,34;  262,590;  209,069;  707,819;10,73097
 206,94;  290,269;  215,837;  774,562;13,32176
 207,54;  257,864;  180,146;  806,666;12,40480
 208,14;  289,520;  214,378;  884,062;11,22049
 208,74;  297,916;  211,373;  951,337;11,69552
 209,34;  313,561;  194,759; 1045,915;13,95772
 209,94;  329,163;  216,528; 1149,937;12,06709
 210,54;  334,312;  213,302; 1239,675;11,79003
 211,14;  343,083;  218,374; 1375,700;10,77564
 211,73;  350,418;  201,448; 1478,977;11,66077
 212,33;  384,058;  217,908; 1586,632;12,13904
 212,93;  387,605;  205,834; 1714,331;12,04978
 213,53;  355,802;  178,220; 1776,071;11,11383
 214,13;  380,380;  200,076; 1832,252;11,04685
 214,73;  375,179;  190,377; 1872,755;10,98453
 215,33;  363,317;  173,143; 1893,014;11,05745
 215,93;  387,699;  201,842; 2020,959;10,21690
 216,53;  366,899;  158,603; 2108,122;10,68449
 217,13;  433,880;  216,302; 2311,821;10,38301
 217,73;  431,703;  194,611; 2514,042;10,22195
 218,33;  390,103;  147,770; 2710,446; 9,45624
 218,93;  455,959;  176,163; 3006,310; 9,88628
 219,53;  467,835;  183,770; 3305,411; 9,09986
 220,13;  468,142;  156,541; 3596,351; 9,05867
 220,73;  526,936;  191,836; 3941,482; 8,93684
 221,32;  538,762;  182,912; 4363,260; 8,51245
 221,92;  581,166;  190,848; 4775,100; 8,51431
 222,52;  600,736;  174,227; 5205,811; 8,47663
 223,12;  629,625;  171,612; 5659,397; 8,34605
 223,72;  686,127;  195,843; 6067,054; 8,35064
 224,32;  721,190;  201,998; 6450,584; 8,30896
 224,92;  732,709;  183,767; 6756,102; 8,35231
 225,52;  784,925;  200,684; 7072,450; 8,50205
 226,12;  805,061;  193,225; 7427,116; 8,45791
 226,72;  813,911;  164,840; 7739,306; 8,56920
 227,31;  844,660;  160,994; 8128,208; 8,58099
 227,91;  909,253;  178,452; 8522,116; 8,75875
 228,51;  935,529;  181,909; 8913,420; 8,63104
 229,11;  999,416;  182,301; 9324,768; 8,93757
 229,71; 1047,083;  175,219; 9553,884; 9,29625
 230,31; 1086,093;  170,000;10006,581; 9,31313
 230,91; 1133,262;  162,060;10330,474; 9,55117
 231,51; 1204,529;  162,304;10694,483; 9,89563
 232,10; 1249,584;  171,616;11055,467; 9,90429
 232,70; 1310,364;  189,671;11322,958;10,06615
 233,30; 1424,425;  200,534;11530,911;10,80186
 233,90; 1453,636;  179,764;11686,583;11,07058
 234,50; 1532,826;  181,534;11918,588;11,51304
 235,10; 1597,555;  166,536;11994,333;12,09878
 235,70; 1705,434;  187,221;12088,487;12,75673
 236,29; 1757,595;  187,988;12111,897;13,16352
 236,89; 1818,720;  166,599;12029,823;13,92641
 237,49; 1892,666;  197,687;11971,528;14,39615
 238,09; 1918,052;  176,993;11716,511;15,08780
 238,69; 1983,039;  218,442;11547,115;15,57637
 239,29; 1996,544;  172,223;11220,918;16,51164
 239,89; 2054,894;  193,907;10971,228;17,26762
 240,48; 2075,801;  176,531;10591,259;18,23638
 241,08; 2088,249;  175,145;10224,619;19,03686
 241,68; 2134,757;  196,993; 9925,720;19,91796
 242,28; 2099,007;  168,918; 9604,373;20,45571
 242,88; 2145,805;  214,538; 9311,832;21,22903
 243,48; 2151,242;  207,533; 8999,871;22,10685
 244,07; 2154,618;  190,298; 8722,403;23,02268
 244,67; 2179,446;  200,070; 8626,684;23,48957
 245,27; 2169,726;  198,602; 8464,284;23,84707
 245,87; 2199,759;  202,768; 8392,547;24,38394
 246,47; 2207,207;  190,295; 8414,382;24,52445
 247,06; 2234,149;  179,146; 8363,177;25,10992
 247,66; 2280,038;  176,685; 8450,657;25,42132
 248,26; 2383,244;  217,295; 8599,618;25,83948
 248,86; 2418,980;  200,757; 8748,312;25,95155
 249,46; 2440,643;  157,457; 8985,134;25,86394
 250,05; 2553,874;  203,377; 9328,022;25,75988
 250,65; 2625,141;  168,832; 9752,153;25,63108
 251,25; 2725,948;  174,760;10184,430;25,48724
 251,85; 2843,710;  191,137;10734,774;25,15805
 252,44; 2947,434;  155,835;11399,855;24,82742
 253,04; 3137,936;  197,451;12181,097;24,53748
 253,64; 3218,084;  155,678;12806,281;24,20759
 254,24; 3417,604;  195,146;13819,981;23,65135
 254,84; 3548,258;  170,996;14760,980;23,14781
 255,43; 3683,755;  175,527;15673,602;22,63654
 256,03; 3833,666;  178,063;16632,867;22,21602
 256,63; 3982,392;  183,214;17740,187;21,63914
 257,23; 4052,867;  177,907;18504,473;21,14395
 257,82; 4143,741;  190,672;19507,424;20,46446
 258,42; 4188,077;  145,747;20302,163;20,05480
 259,02; 4294,501;  190,682;21198,699;19,53454
 259,62; 4267,930;  173,669;21930,235;18,81851
 260,21; 4247,213;  179,989;22397,750;18,30619
 260,81; 4185,058;  187,994;22933,955;17,57263
 261,41; 4123,638;  162,594;23400,776;17,04541
 262,01; 4084,211;  205,975;23824,308;16,42045
 262,60; 3974,560;  158,984;24167,088;15,89287
 263,20; 3876,906;  164,756;24460,117;15,27926
 263,80; 3795,623;  201,359;24601,526;14,73049
 264,40; 3649,950;  163,976;24723,670;14,19388
 264,99; 3529,810;  187,974;24932,785;13,50520
 265,59; 3407,966;  179,353;25036,733;12,98855
 266,19; 3334,124;  165,821;25188,490;12,66173
 266,78; 3277,737;  212,895;25312,266;12,21083
 267,38; 3091,728;  186,739;25277,200;11,57806
 267,98; 2995,587;  172,049;25385,041;11,19874
 268,58; 2945,169;  188,354;25331,948;10,96428
 269,17; 2822,943;  171,427;25344,257;10,53325
 269,77; 2756,359;  191,520;25145,525;10,27827
 270,37; 2615,375;  163,205;25022,926; 9,86403
 270,96; 2569,193;  215,441;24936,068; 9,52141
 271,56; 2459,142;  174,753;24681,858; 9,32133
 272,16; 2374,220;  178,979;24415,776; 9,05747
 272,75; 2315,233;  177,210;24341,755; 8,84777
 273,35; 2284,708;  187,057;24250,780; 8,71707
 273,95; 2238,735;  186,287;24241,027; 8,53241
 274,54; 2177,132;  175,300;24275,778; 8,30619
 275,14; 2212,086;  200,519;24642,891; 8,22983
 275,74; 2182,865;  153,825;24701,154; 8,26583
 276,33; 2244,791;  213,136;25015,994; 8,19121
 276,93; 2245,817;  195,455;25489,552; 8,10609
 277,53; 2271,327;  185,065;26006,631; 8,07953
 278,12; 2306,499;  172,215;26618,996; 8,07011
 278,72; 2432,582;  216,219;27075,304; 8,25182
 279,32; 2424,067;  186,064;27665,976; 8,14414
 279,91; 2516,381;  164,832;28374,510; 8,33597
 280,51; 2596,551;  172,373;28907,973; 8,43615
 281,11; 2711,054;  183,525;29638,489; 8,58100
 281,70; 2756,201;  165,370;30074,476; 8,66235
 282,30; 2852,680;  181,214;30776,550; 8,73161
 282,90; 2952,035;  178,752;31071,250; 8,97720
 283,49; 3083,132;  191,519;31703,206; 9,17632
 284,09; 3215,332;  213,908;32174,372; 9,39105
 284,69; 3314,997;  201,602;32551,480; 9,62413
 285,28; 3411,830;  201,523;32877,715; 9,82460
 285,88; 3561,882;  235,209;33144,707;10,10855
 286,47; 3641,379;  184,368;33220,054;10,46448
 287,07; 3800,642;  209,679;33248,088;10,86905
 287,67; 3957,472;  204,456;33355,794;11,32086
 288,26; 4070,736;  172,448;33241,410;11,78836
 288,86; 4276,593;  179,754;33428,826;12,32166
 289,46; 4490,539;  192,063;33471,747;12,91621
 290,05; 4713,293;  174,837;33601,850;13,57721
 290,65; 4985,450;  180,521;33802,888;14,29087
 291,24; 5275,013;  188,988;33879,003;15,09654
 291,84; 5541,854;  206,368;34112,571;15,73602
 292,44; 5796,094;  191,072;34235,115;16,46403
 293,03; 6182,465;  241,449;34378,031;17,40366
 293,63; 6442,861;  179,598;34411,921;18,29634
 294,22; 6698,218;  205,832;34641,153;18,85385
 294,82; 6929,789;  186,438;34577,243;19,60801
 295,41; 7115,432;  169,832;34333,169;20,33057
 296,01; 7363,030;  219,286;34338,309;20,93772
 296,61; 7558,963;  198,218;34063,374;21,73545
 297,20; 7664,775;  189,978;33632,022;22,35150
 297,80; 7855,891;  203,223;33573,652;22,93248
 298,39; 7931,864;  174,983;33088,159;23,56771
 298,99; 8076,905;  220,749;32950,935;24,00279
 299,58; 8212,406;  203,609;32750,873;24,60667
 300,18; 8269,922;  204,683;32613,290;24,88610
 300,78; 8369,775;  186,527;32260,315;25,51382
 301,37; 8475,810;  187,512;32215,892;25,87798
 301,97; 8666,519;  196,140;32287,880;26,39426
 302,56; 8753,654;  183,983;32152,209;26,80684
 303,16; 8854,420;  173,212;32088,694;27,20062
 303,75; 8945,216;  183,605;32134,495;27,42212
 304,35; 9175,421;  179,766;32333,153;27,97732
 304,94; 9250,358;  186,064;32333,222;28,19625
 305,54; 9388,300;  204,604;32260,260;28,64922
 306,13; 9401,127;  168,074;32186,516;28,83667
 306,73; 9386,603;  162,995;32020,506;28,95269
 307,33; 9520,218;  202,378;31912,690;29,38426
 307,92; 9642,485;  194,757;32025,129;29,68149
 308,52; 9839,176;  158,596;32481,024;29,95004
 309,11;10128,659;  179,977;32994,471;30,31795
 309,71;10233,067;  160,590;33237,434;30,45175
 310,30;10396,010;  174,218;33455,381;30,71344
 310,90;10643,856;  210,295;33790,920;31,07018
 311,49;10671,053;  182,833;33948,536;31,06176
 312,09;10854,403;  159,914;34164,542;31,45010
 312,68;11141,417;  230,450;34592,532;31,75293
 313,28;11165,331;  166,988;34646,206;31,89847
 313,87;11265,314;  156,910;34788,836;32,07562
 314,47;11420,324;  172,902;35029,917;32,26731
 315,06;11475,919;  163,065;35299,219;32,19719
 315,66;11567,480;  164,914;35459,619;32,30673
 316,25;11635,838;  156,982;35359,386;32,60816
 316,85;11655,299;  158,914;35417,171;32,60622
 317,44;11766,759;  178,747;35551,114;32,76007
 318,04;11764,516;  157,214;35579,271;32,76857
 318,63;11845,536;  155,072;35726,555;32,86471
 319,22;11898,630;  181,905;35905,413;32,79836
 319,82;11913,385;  167,754;35877,499;32,89195
 320,41;11883,567;  187,829;35789,622;32,85154
 321,01;11953,253;  194,144;35985,116;32,85496
 321,60;11965,994;  183,216;36034,226;32,86596
 322,20;11892,555;  171,834;36012,471;32,70232
 322,79;11965,006;  204,065;36081,114;32,78124
 323,39;11935,723;  165,535;36264,448;32,60538
 323,98;11948,993;  162,373;36174,645;32,72945
 324,58;11926,955;  169,212;36082,534;32,73922
 325,17;11811,533;  180,674;35980,084;32,48897
 325,76;11802,023;  196,525;35776,620;32,61795
 326,36;11662,223;  163,298;35371,970;32,65935
 326,95;11545,546;  198,754;35069,435;32,53963
 327,55;11444,864;  161,138;34641,898;32,72470
 328,14;11267,022;  174,762;34387,672;32,42127
 328,74;11159,306;  192,213;33867,091;32,56758
 329,33;10981,701;  190,298;33500,292;32,39689
 329,92;10723,806;  162,978;33018,813;32,14293
 330,52;10566,429;  185,147;32312,238;32,31317
 331,11;10394,773;  168,446;31877,121;32,25088
 331,71;10195,228;  182,371;31285,125;32,19283
 332,30;10007,512;  205,371;30798,837;32,03998
 332,89; 9781,283;  233,836;30230,908;31,82793
 333,49; 9601,940;  194,370;29681,099;31,90442
 334,08; 9449,777;  181,061;29290,311;31,84114
 334,68; 9199,345;  180,908;28844,380;31,46317
 335,27; 9119,208;  199,148;28509,180;31,50848
 335,86; 8983,004;  240,446;28279,505;31,17993
 336,46; 8869,971;  197,917;27999,599;31,19255
 337,05; 8764,907;  182,908;27786,484;31,09017
 337,65; 8678,971;  165,677;27644,737;30,98102
 338,24; 8663,116;  223,681;27624,652;30,79977
 338,83; 8596,100;  197,758;27574,945;30,67642
 339,43; 8507,139;  171,674;27464,343;30,54104
 340,02; 8483,440;  179,828;27356,946;30,55369
 340,61; 8464,832;  174,680;27473,017;30,36871
 341,21; 8445,690;  205,367;27452,091;30,24336
 341,80; 8354,757;  178,753;27378,828;30,05875
 342,40; 8355,720;  184,455;27491,454;29,92370
 342,99; 8399,206;  182,451;27617,523;29,94982
 343,58; 8321,086;  183,298;27786,907;29,48088
 344,18; 8405,524;  195,298;27881,312;29,65478
 344,77; 8416,564;  176,058;28227,568;29,37633
 345,36; 8505,776;  168,447;28489,512;29,43862
 345,96; 8540,952;  195,298;28794,851;29,18106
 346,55; 8505,947;  166,843;29047,867;28,87399
 347,14; 8557,058;  165,455;29447,062;28,65827
 347,74; 8685,701;  151,771;29812,017;28,77228
 348,33; 8803,106;  171,462;30503,914;28,45679
 348,92; 8931,489;  191,928;31151,410;28,22903
 349,52; 8974,684;  155,541;31617,050;28,03153
 350,11; 9018,280;  183,519;31846,779;27,90224
 350,70; 8959,264;  180,680;31873,408;27,69905
 351,29; 8889,871;  155,818;31621,476;27,75742
 351,89; 8808,802;  185,362;31699,576;27,36365
 352,48; 8758,849;  158,680;31723,262;27,24626
 353,07; 8698,653;  175,148;31659,396;27,07228
 353,67; 8620,091;  186,851;31579,556;26,86369
 354,26; 8525,607;  189,455;31300,726;26,79464
 354,85; 8411,022;  179,607;31184,856;26,54846
 355,45; 8342,837;  158,753;31068,172;26,47764
 356,04; 8208,553;  171,610;30902,801;26,15240
 356,63; 8133,000;  197,062;30688,623;26,02667
 357,22; 8037,961;  185,820;30543,010;25,86584
 357,82; 7944,883;  191,976;30352,412;25,70556
 358,41; 7869,097;  202,294;30250,845;25,51472
 359,00; 7658,841;  168,982;29995,238;25,11163
 359,60; 7651,722;  188,065;30018,757;25,02006
 360,19; 7583,723;  182,611;29786,862;25,00017
 360,78; 7510,104;  194,523;29616,870;24,86403
 361,37; 7369,221;  178,985;29418,142;24,59112
 361,97; 7278,054;  196,986;29340,258;24,29744
 362,56; 7158,076;  175,365;29036,458;24,19420
 363,15; 7043,168;  220,907;28797,122;23,87391
 363,74; 6975,143;  188,056;28358,776;24,09270
 364,34; 6767,714;  197,905;28033,378;23,60229
 364,93; 6616,464;  172,211;27588,802;23,50494
 365,52; 6480,081;  153,908;27112,428;23,46632
 366,11; 6379,928;  173,982;26848,518;23,26543
 366,71; 6230,784;  170,598;26452,336;23,05855
 367,30; 6132,987;  172,370;26109,029;22,98144
 367,89; 6079,818;  227,607;25897,457;22,79799
 368,48; 5891,223;  186,594;25524,475;22,51423
 369,07; 5779,187;  179,603;25048,562;22,51636
 369,67; 5731,404;  197,980;24801,124;22,49072
 370,26; 5566,036;  178,219;24544,953;22,11136
 370,85; 5456,994;  183,216;24214,610;21,94537
 371,44; 5391,763;  179,601;23966,503;21,91190
 372,03; 5236,416;  168,751;23732,350;21,50633
 372,63; 5172,750;  156,293;23380,987;21,59967
 373,22; 5084,615;  176,834;23073,486;21,43449
 373,81; 4960,676;  157,139;22784,407;21,22898
 374,40; 4892,032;  177,916;22525,182;21,09482
 374,99; 4840,964;  172,445;22297,340;21,10075
 375,59; 4711,901;  164,453;22014,855;20,81174
 376,18; 4681,131;  194,753;21910,702;20,65937
 376,77; 4634,652;  189,140;21655,398;20,70930
 377,36; 4570,964;  198,292;21627,694;20,40501
 377,95; 4483,095;  193,213;21311,650;20,31344
 378,55; 4419,099;  166,683;21149,809;20,26589
 379,14; 4368,415;  196,908;21141,953;19,91644
 379,73; 4343,406;  184,137;20977,656;20,00272
 380,32; 4321,295;  192,832;20964,307;19,87563
 380,91; 4303,180;  164,133;20836,090;20,02252
 381,50; 4289,885;  190,981;20822,730;19,86697
 382,10; 4182,448;  169,601;20675,846;19,56890
 382,69; 4181,308;  156,908;20648,499;19,63928
 383,28; 4206,911;  201,674;20597,764;19,63728
 383,87; 4129,968;  171,981;20438,512;19,52967
 384,46; 4080,666;  168,284;20395,775;19,34190
 385,05; 4129,798;  201,058;20345,605;19,50275
 385,64; 4061,236;  173,290;20372,133;19,24836
 386,24; 4034,355;  160,207;20337,384;19,20065
 386,83; 4079,395;  204,283;20341,147;19,24387
 387,42; 4079,085;  197,982;20443,755;19,16994
 388,01; 4120,561;  187,663;20722,576;19,15225
 388,60; 4173,471;  185,669;20944,242;19,21039
 389,19; 4171,278;  171,195;21150,735;19,06659
 389,78; 4236,331;  177,043;21370,802;19,15323
 390,37; 4360,877;  234,666;21847,997;19,09105
 390,96; 4325,746;  180,052;22023,426;18,97918
 391,56; 4338,844;  184,039;22139,320;18,92394
 392,15; 4401,304;  169,582;22411,555;19,02584
 392,74; 4426,128;  150,800;22583,063;19,05883
 393,33; 4473,172;  174,192;22846,524;18,96135
 393,92; 4581,865;  192,027;23328,953;18,97330
 394,51; 4611,871;  174,577;23483,413;19,03696
 395,10; 4699,504;  210,938;23741,130;19,07577
 395,69; 4688,273;  191,709;23890,302;18,97397
 396,28; 4767,921;  189,164;24005,657;19,22515
 396,87; 4763,820;  197,000;24049,721;19,14591
 397,46; 4785,104;  196,915;24168,127;19,14041
 398,06; 4818,003;  211,983;24401,439;19,04144
 398,65; 4868,311;  191,424;24435,851;19,29057
 399,24; 4906,780;  197,112;24662,782;19,25011
 399,83; 4883,480;  175,619;24707,790;19,19056
 400,42; 4947,523;  214,283;24793,714;19,25691
 401,01; 4979,935;  189,019;24914,542;19,37640
 401,60; 4996,578;  199,975;24900,798;19,41880
 402,19; 4989,850;  220,863;24849,078;19,36392
 402,78; 5048,614;  222,501;24901,088;19,55587
 403,37; 5011,223;  204,834;24741,548;19,58856
 403,96; 4992,590;  203,697;24609,990;19,62155
 404,55; 5014,512;  211,322;24417,879;19,84252
 405,14; 4955,402;  194,415;24293,260;19,75608
 405,73; 4989,061;  207,883;24275,116;19,86592
 406,32; 5016,106;  205,219;24131,352;20,10725
 406,91; 4975,155;  198,856;23904,980;20,14795
 407,50; 4976,870;  207,674;23733,268;20,27237
 408,09; 4919,254;  183,730;23420,189;20,37971
 408,68; 4906,323;  192,793;23255,197;20,43815
 409,27; 4883,517;  185,273;23146,454;20,46168
 409,86; 4902,075;  197,701;22960,388;20,66704
 410,45; 4922,662;  238,122;22919,365;20,65381
 411,04; 4946,930;  238,082;22843,339;20,83077
 411,63; 4887,312;  211,592;22600,535;20,88406
 412,22; 4915,254;  218,021;22288,056;21,28331
 412,81; 4865,149;  223,652;22056,752;21,25899
 413,40; 4859,484;  235,979;21728,740;21,51191
 413,99; 4840,884;  260,589;21397,851;21,66929
 414,58; 4724,568;  202,285;21003,304;21,74068
 415,17; 4696,189;  218,036;20759,640;21,80040
 415,76; 4705,623;  210,789;20711,639;21,92511
 416,35; 4676,787;  191,259;20454,580;22,13620
 416,94; 4738,334;  230,023;20514,156;22,22580
 417,53; 4847,904;  201,576;20800,791;22,55585
 418,12; 4881,204;  201,580;20827,937;22,68759
 418,71; 4996,624;  220,980;21186,040;22,77906
 419,30; 5049,056;  211,736;21228,228;23,01678
 419,89; 5111,236;  194,893;21434,172;23,14741
 420,48; 5255,289;  237,442;21733,900;23,34267
 421,07; 5289,593;  215,368;21822,005;23,48456
 421,66; 5324,887;  188,454;21846,735;23,71579
 422,25; 5338,089;  208,395;21852,910;23,69974
 422,84; 5374,068;  225,783;21737,539;23,93243
 423,43; 5330,502;  215,391;21508,323;24,02258
 424,02; 5332,343;  233,317;21253,813;24,25740
 424,60; 5215,072;  215,646;20826,513;24,25627
 425,19; 5228,935;  213,481;20615,233;24,58345
 425,78; 5250,601;  234,251;20400,833;24,87456
 426,37; 5256,628;  238,797;20253,664;25,07052
 426,96; 5284,591;  222,105;20170,398;25,37804
 427,55; 5262,440;  211,732;20039,514;25,47288
 428,14; 5239,579;  203,353;19811,972;25,68374
 428,73; 5230,683;  204,266;19667,866;25,82470
 429,32; 5298,261;  222,719;19620,862;26,16509
 429,91; 5333,746;  242,190;19615,704;26,28101
 430,50; 5347,028;  231,888;19457,006;26,60655
 431,08; 5301,214;  221,587;19289,596;26,63952
 431,67; 5384,001;  259,438;19255,284;26,97728
 432,26; 5307,929;  261,905;19013,763;26,90946
 432,85; 5264,816;  275,980;18644,633;27,15951
 433,44; 5259,733;  279,142;18309,281;27,62369
 434,03; 5163,198;  303,076;17873,504;27,66080
 434,62; 5042,345;  254,220;17499,553;27,76476
 435,21; 5093,826;  270,981;17245,806;28,41175
 435,79; 5057,349;  249,226;17166,079;28,42209
 436,38; 5049,129;  252,083;16985,729;28,66707
 436,97; 5041,884;  247,930;16873,153;28,83543
 437,56; 5014,755;  255,023;16748,946;28,85749
 438,15; 5048,425;  235,558;16658,115;29,30644
 438,74; 5063,980;  265,790;16633,993;29,31409
 439,33; 5108,987;  241,711;16658,018;29,64903
 439,91; 5133,376;  221,026;16713,130;29,78607
 440,50; 5256,787;  271,565;16805,548;30,15137
 441,09; 5295,935;  262,189;16895,628;30,26281
 441,68; 5344,480;  241,660;16963,225;30,51640
 442,27; 5425,970;  233,887;16851,869;31,24376
 442,86; 5335,689;  203,599;16819,088;30,88738
 443,44; 5467,379;  227,595;16931,893;31,36788
 444,03; 5545,943;  271,446;16995,269;31,53883
 444,62; 5509,164;  226,600;16879,912;31,72080
 445,21; 5445,563;  245,366;16666,519;31,66767
 445,80; 5499,509;  265,147;16604,455;32,03540
 446,39; 5502,423;  268,760;16364,850;32,51512
 446,97; 5384,412;  227,772;16116,035;32,45565
 447,56; 5356,312;  218,705;15890,562;32,78238
 448,15; 5345,362;  228,618;15759,022;32,94662
 448,74; 5312,806;  257,389;15456,208;33,26191
 449,33; 5284,660;  235,088;15347,125;33,41424
 449,91; 5240,490;  238,175;15103,327;33,65128
 450,50; 5182,333;  230,558;14860,535;33,84677
 451,09; 5220,808;  234,097;14801,560;34,23184
 451,68; 5210,361;  259,410;14724,733;34,22635
 452,26; 5224,611;  251,953;14609,451;34,63457
 452,85; 5197,822;  230,104;14421,058;35,00623
 453,44; 5263,754;  243,810;14491,666;35,23298
 454,03; 5235,372;  217,417;14426,473;35,31519
 454,61; 5239,774;  230,811;14415,041;35,31360
 455,20; 5415,274;  245,893;14580,549;36,06212
 455,79; 5393,150;  254,961;14556,496;35,92753
 456,38; 5509,515;  252,439;14684,904;36,42535
 456,97; 5552,540;  237,283;14765,098;36,58676
 457,55; 5607,437;  240,597;14742,400;37,00809
 458,14; 5587,146;  249,512;14730,724;36,85903
 458,73; 5587,919;  247,136;14630,007;37,13294
 459,31; 5697,621;  265,453;14709,332;37,60879
 459,90; 5724,054;  278,294;14787,950;37,53197
 460,49; 5821,152;  316,676;14902,291;37,73908
 461,08; 5823,001;  239,457;14907,869;38,06509
 461,66; 5891,444;  248,298;15049,536;38,12618
 462,25; 5999,281;  251,999;15121,148;38,65239
 462,84; 6046,483;  277,304;15109,398;38,89659
 463,43; 5984,368;  215,394;15085,289;38,79633
 464,01; 6070,256;  248,782;15117,756;39,15182
 464,60; 6139,700;  291,775;15077,974;39,54989
 465,19; 6005,503;  228,247;14843,912;39,52784
 465,77; 6043,983;  248,251;14804,322;39,81659
 466,36; 6012,301;  262,163;14688,107;39,85970
 466,95; 5955,505;  245,856;14414,014;40,29916
 467,53; 5810,767;  250,795;14096,619;40,15631
 468,12; 5763,021;  284,642;13785,386;40,57835
 468,71; 5660,620;  249,478;13594,462;40,54813
 469,29; 5591,245;  227,721;13304,237;41,01646
 469,88; 5517,668;  237,801;13053,236;41,19928
 470,47; 5606,739;  300,502;13186,269;41,17906
 471,06; 5577,465;  263,195;13153,729;41,22614
 471,64; 5673,653;  248,577;13220,818;41,82065
 472,23; 5647,055;  221,439;13272,338;41,57274
 472,81; 5733,382;  220,431;13340,822;42,01819
 473,40; 5838,597;  234,747;13485,729;42,29007
 473,99; 6006,463;  335,209;13697,135;42,44339
 474,57; 6041,256;  245,516;13793,499;42,77936
 475,16; 6116,803;  253,433;13941,336;42,83615
 475,75; 6213,385;  273,676;14125,956;42,87893
 476,33; 6290,757;  271,682;14198,006;43,22085
 476,92; 6326,958;  275,979;14259,027;43,27367
 477,51; 6372,420;  265,064;14328,410;43,42748
 478,09; 6406,691;  257,910;14312,913;43,74799
 478,68; 6404,245;  273,913;14221,761;43,95181
 479,27; 6469,716;  287,599;14305,290;44,10224
 479,85; 6485,607;  257,605;14283,426;44,40383
 480,44; 6565,696;  254,839;14418,392;44,55702
 481,02; 7250,310;  255,537;15815,136;44,95471
 481,61; 8208,775;  283,919;17873,001;45,05554
 482,20; 8818,283;  255,691;19099,150;45,44066
 482,78; 9228,549;  299,453;19992,311;45,34180
 483,37; 9526,109;  278,699;20533,405;45,65561
 483,95; 9662,761;  304,393;20791,766;45,67871
 484,54; 9833,679;  317,687;21021,241;45,96308
 485,13; 9714,140;  274,631;20883,675;45,80275
 485,71; 9651,432;  255,552;20621,442;46,13538
 486,30; 9574,549;  284,013;20314,022;46,38308
 486,88; 9412,097;  322,246;19987,396;46,22314
 487,47; 9056,798;  301,556;19228,616;46,25781
 488,05; 8658,744;  276,713;18322,323;46,44914
 488,64; 8080,905;  297,104;17030,624;46,51622
 489,23; 7225,482;  304,637;15145,886;46,63250
 489,81; 6225,204;  299,947;12970,050;46,76566
 490,40; 5877,468;  248,179;12323,096;46,61969
 490,98; 5771,708;  239,182;12008,747;47,00705
 491,57; 5758,010;  273,023;11980,192;46,85153
 492,15; 5716,065;  253,952;11882,885;46,97003
 492,74; 5723,202;  260,944;11757,133;47,51364
 493,32; 5639,567;  277,412;11662,063;47,09986
 493,91; 5636,338;  263,340;11601,767;47,38751
 494,50; 5660,358;  262,198;11572,590;47,72744
 495,08; 5630,064;  241,813;11485,521;47,92237
 495,67; 5639,242;  272,570;11503,391;47,78521
 496,25; 5549,798;  224,038;11384,741;47,71886
 496,84; 5566,804;  231,646;11343,679;48,01244
 497,42; 5552,446;  221,502;11293,373;48,14854
 498,01; 5584,328;  249,648;11233,564;48,56811
 498,59; 5550,697;  227,811;11193,057;48,54324
 499,18; 5544,596;  225,572;11124,262;48,80425
 499,76; 5549,540;  260,115;11101,294;48,79013
 500,35; 5446,320;  245,432;10862,542;48,98591
 500,93; 5413,105;  241,963;10813,297;48,91665
 501,52; 5427,954;  238,734;10757,351;49,33368
 502,10; 5401,175;  261,129;10747,595;49,01600
 502,69; 5312,100;  242,363;10559,944;49,13687
 503,27; 5246,545;  227,429;10349,820;49,58430
 503,86; 5233,746;  233,977;10292,458;49,70700
 504,44; 5162,939;  224,981;10143,073;49,78738
 505,03; 5039,949;  207,673; 9910,660;49,80194
 505,61; 5028,153;  228,441; 9867,810;49,79281
 506,19; 4931,551;  250,134; 9720,605;49,43172
 506,78; 4860,311;  215,912; 9514,755;49,94598
 507,36; 4798,019;  224,980; 9341,724;50,16088
 507,95; 4757,252;  231,532; 9195,965;50,48530
 508,53; 4667,174;  226,066; 9043,616;50,36668
 509,12; 4648,076;  230,530; 8892,813;50,99747
 509,70; 4559,192;  257,455; 8769,488;50,53713
 510,29; 4505,234;  247,459; 8619,416;50,85758
 510,87; 4388,846;  229,989; 8412,749;50,82462
 511,46; 4323,297;  219,298; 8211,179;51,35210
 512,04; 4253,178;  224,918; 8099,680;51,15405
 512,62; 4150,568;  237,914; 7993,451;50,44981
 513,21; 4071,191;  213,229; 7789,415;50,92221
 513,79; 4019,986;  220,165; 7669,221;51,01076
 514,38; 3906,017;  209,315; 7499,517;50,70782
 514,96; 3911,048;  244,391; 7433,540;51,00265
 515,54; 3824,374;  212,778; 7283,317;51,07950
 516,13; 3781,143;  226,779; 7157,826;51,28178
 516,71; 3699,188;  215,862; 7056,039;50,92451
 517,30; 3630,678;  208,251; 6931,959;50,90089
 517,88; 3598,511;  234,174; 6882,673;50,60296
 518,46; 3536,266;  213,022; 6747,913;50,85386
 519,05; 3530,208;  225,718; 6659,507;51,36149
 519,63; 3508,717;  224,178; 6659,420;51,03987
 520,22; 3464,183;  243,724; 6564,271;50,95221
 520,80; 3441,681;  227,494; 6466,969;51,51374
 521,38; 3463,081;  257,027; 6436,694;51,88069
 521,97; 3414,930;  218,883; 6429,178;51,46370
 522,55; 3420,516;  235,575; 6443,647;51,30322
 523,13; 3413,642;  216,732; 6398,186;51,71777
 523,72; 3412,099;  224,330; 6381,243;51,77545
 524,30; 3464,898;  239,351; 6545,207;51,15162
 524,89; 3481,582;  207,114; 6567,260;51,48416
 525,47; 3557,232;  238,660; 6665,749;51,63414
 526,05; 3565,627;  213,276; 6727,615;51,46110
 526,64; 3656,362;  229,356; 6855,141;51,72226
 527,22; 3756,182;  232,121; 6943,659;52,50750
 527,80; 3837,241;  269,432; 7065,555;52,49772
 528,39; 3894,772;  226,435; 7190,884;52,67232
 528,97; 3976,361;  226,510; 7359,112;52,57340
 529,55; 4090,893;  234,655; 7559,822;52,64368
 530,14; 4209,842;  257,130; 7734,782;52,86033
 530,72; 4281,863;  221,972; 7856,769;53,17615
 531,30; 4343,570;  217,746; 7992,942;53,06393
 531,89; 4365,781;  229,746; 8072,921;52,73420
 532,47; 4478,436;  256,594; 8217,595;53,03155
 533,05; 4482,124;  264,355; 8219,821;53,01725
 533,63; 4513,783;  252,056; 8273,838;53,12694
 534,22; 4520,660;  224,980; 8342,061;52,92148
 534,80; 4571,986;  241,755; 8435,057;52,85086
 535,38; 4647,868;  314,977; 8489,709;53,00346
 535,97; 4576,419;  234,133; 8436,888;52,93693
 536,55; 4630,648;  271,140; 8468,496;53,18188
 537,13; 4614,219;  265,745; 8446,124;53,15737
 537,71; 4632,491;  285,283; 8475,119;53,08052
 538,30; 4664,632;  305,674; 8570,323;52,74221
 538,88; 4705,248;  318,837; 8599,984;52,96865
 539,46; 4791,263;  344,062; 8806,603;52,55161
 540,05; 4847,844;  345,912; 8897,023;52,64734
 540,63; 4970,991;  386,296; 9111,519;52,54531
 541,21; 5042,776;  393,223; 9243,260;52,53710
 541,79; 5118,525;  411,761; 9345,393;52,68590
 542,38; 5211,192;  420,142; 9496,556;52,78572
 542,96; 5272,831;  444,997; 9640,398;52,50271
 543,54; 5408,288;  449,299; 9854,765;52,72454
 544,12; 5466,632;  405,685; 9999,510;52,75213
 544,70; 5478,182;  405,382;10057,138;52,55832
 545,29; 5590,165;  420,603;10257,492;52,55282
 545,87; 5590,910;  410,915;10329,470;52,22530
 546,45; 5591,333;  392,603;10323,885;52,34702
 547,03; 5611,218;  383,760;10485,760;51,74677
 547,62; 5687,609;  363,839;10602,636;51,99604
 548,20; 5771,651;  382,919;10766,056;51,89888
 548,78; 5806,661;  344,546;10952,908;51,48877
 549,36; 5942,995;  347,391;11183,078;51,64052
 549,94; 6008,989;  320,764;11287,724;51,86693
 550,53; 6124,678;  322,697;11513,627;51,84539
 551,11; 6183,212;  294,548;11726,288;51,51153
 551,69; 6410,531;  322,468;12059,610;51,87006
 552,27; 6493,893;  275,540;12330,394;51,58381
 552,85; 6685,633;  287,163;12753,477;51,32608
 553,44; 6889,942;  288,544;13036,442;51,78421
 554,02; 7073,875;  310,085;13449,201;51,47827
 554,60; 7237,777;  248,318;13720,860;51,87929
 555,18; 7418,360;  287,852;14092,826;51,65173
 555,76; 7623,500;  277,008;14460,557;51,79586
 556,34; 7816,849;  292,169;14913,550;51,46354
 556,93; 8056,691;  277,853;15329,007;51,68267
 557,51; 8185,909;  240,707;15647,690;51,56884
 558,09; 8399,353;  284,853;16070,707;51,40362
 558,67; 8587,483;  280,172;16447,067;51,38470
 559,25; 8724,500;  288,786;16734,988;51,29278
 559,83; 8874,887;  273,791;17033,614;51,31973
 560,41; 9040,027;  265,398;17391,253;51,23615
 561,00; 9206,657;  280,634;17766,934;51,04581
 561,58; 9354,388;  274,782;18011,072;51,19225
 562,16; 9513,857;  268,625;18341,204;51,15613
 562,74; 9656,982;  237,393;18731,886;50,93186
 563,32; 9884,539;  245,867;19154,726;50,97437
 563,90;10120,955;  267,019;19544,270;51,11691
 564,48;10232,666;  267,550;20046,724;50,38186
 565,06;10508,313;  267,326;20579,929;50,41691
 565,65;10859,778;  272,181;21263,904;50,43701
 566,23;11187,379;  311,788;22040,081;50,05267
 566,81;11511,383;  279,324;22783,792;49,91035
 567,39;11946,525;  277,023;23701,381;49,81781
 567,97;12203,095;  289,940;24310,168;49,59635
 568,55;12570,074;  293,252;25197,412;49,29627
 569,13;12941,362;  270,634;25881,528;49,47398
 569,71;13328,663;  280,933;26851,239;49,10644
 570,29;13805,179;  308,160;27888,993;48,93623
 570,87;14084,393;  303,624;28621,612;48,66436
 571,45;14424,249;  296,018;29325,907;48,66788
 572,03;14539,903;  249,486;29702,693;48,51905
 572,61;14870,563;  242,944;30408,629;48,49092
 573,20;15170,912;  281,092;31069,696;48,36147
 573,78;15383,857;  260,329;31782,006;47,97818
 574,36;15627,486;  279,328;32300,505;47,93127
 574,94;15754,357;  317,256;32642,774;47,75515
 575,52;15795,555;  265,725;32846,235;47,66601
 576,10;16034,680;  308,953;33440,563;47,46442
 576,68;16257,180;  288,870;33975,623;47,40234
 577,26;16605,086;  309,574;34699,026;47,38520
 577,84;16772,309;  315,943;35186,679;47,19248
 578,42;16886,156;  350,873;35502,631;47,03970
 579,00;16832,636;  290,252;35667,901;46,75942
 579,58;16932,561;  329,718;35955,711;46,60317
 580,16;16901,426;  305,028;35934,796;46,58015
 580,74;16957,105;  303,875;36128,711;46,48515
 581,32;16916,858;  300,872;36230,094;46,24644
 581,90;16880,915;  327,182;36174,629;46,17828
 582,48;16852,052;  327,798;36293,768;45,94414
 583,06;16869,400;  317,718;36487,822;45,76067
 583,64;16894,183;  308,871;36568,753;45,74012
 584,22;16699,598;  320,649;36441,638;45,34469
 584,80;16516,601;  320,258;36211,539;45,12612
 585,38;16293,528;  324,553;35778,495;45,04147
 585,96;16304,830;  299,253;35838,913;45,03582
 586,54;16232,278;  319,802;35884,305;44,74258
 587,12;16238,780;  300,568;36082,359;44,54280
 587,70;16307,816;  326,331;36191,135;44,56036
 588,28;16182,817;  305,568;36305,241;44,10387
 588,86;16245,649;  315,031;36369,510;44,18485
 589,44;16189,159;  297,962;36510,054;43,88367
 590,02;16272,283;  307,114;36686,583;43,88511
 590,59;16252,612;  285,802;36964,214;43,53190
 591,17;16306,514;  298,047;37099,676;43,49934
 591,75;16358,429;  289,503;37335,237;43,37591
 592,33;16442,744;  309,655;37533,493;43,34074
 592,91;16486,274;  272,199;37770,302;43,23972
 593,49;16575,560;  276,587;38115,931;43,07414
 594,07;16659,126;  285,510;38350,610;43,01477
 594,65;16499,987;  301,418;38358,213;42,56420
 595,23;16629,136;  307,960;38870,395;42,32403
 595,81;16677,982;  283,500;38835,566;42,52556
 596,39;16658,179;  271,577;38992,460;42,31980
 596,97;16798,792;  305,198;39202,896;42,40249
 597,55;16703,986;  285,497;39101,230;42,29854
 598,12;16531,252;  272,973;39094,948;41,87906
 598,70;16543,835;  269,431;39324,222;41,67070
 599,28;16635,096;  292,662;39457,523;41,72729
 599,86;16553,658;  276,815;39468,964;41,53088
 600,44;16502,544;  251,740;39539,023;41,36403
 601,02;16548,989;  308,287;39632,593;41,29940
 601,60;16451,786;  285,734;39636,789;41,08162
 602,18;16353,901;  254,434;39624,823;40,89232
 602,75;16300,687;  259,269;39722,651;40,64887
 603,33;16229,885;  276,046;39733,774;40,43274
 603,91;16144,090;  263,669;39629,278;40,34085
 604,49;16148,360;  287,354;39768,137;40,17399
 605,07;16119,927;  289,734;39779,503;40,08682
 605,65;16069,523;  293,279;39876,357;39,85603
 606,23;16093,238;  322,032;39961,370;39,78675
 606,80;15982,360;  339,115;40031,476;39,41122
 607,38;15914,415;  361,129;40020,091;39,21758
 607,96;15827,079;  396,345;40120,463;38,84475
 608,54;15859,888;  436,971;40132,952;38,85259
 609,12;15798,697;  423,730;40212,084;38,64188
 609,70;15748,963;  447,584;40164,958;38,52566
 610,27;15709,591;  446,960;40221,891;38,37249
 610,85;15639,324;  452,660;40361,469;38,05341
 611,43;15609,671;  453,661;40190,327;38,14112
 612,01;15389,496;  428,579;39938,834;37,86591
 612,59;15317,876;  437,122;40005,832;37,60738
 613,16;15120,465;  400,803;40000,582;37,17107
 613,74;14972,531;  391,816;39860,382;36,94260
 614,32;14905,276;  378,203;39818,573;36,83300
 614,90;14814,950;  368,735;39740,501;36,69181
 615,48;14523,842;  336,420;39404,202;36,31489
 616,05;14427,936;  326,033;39490,968;36,00645
 616,63;14334,262;  335,569;39351,965;35,87900
 617,21;14196,888;  332,883;39185,457;35,68362
 617,79;14082,757;  313,578;39065,963;35,53118
 618,36;13994,522;  330,580;39125,867;35,22062
 618,94;13758,936;  261,959;38822,725;35,00184
 619,52;13607,934;  292,032;38375,453;34,96509
 620,10;13490,901;  285,269;38330,713;34,71015
 620,67;13364,676;  295,723;38250,497;34,43296
 621,25;13280,776;  306,350;38026,894;34,39618
 621,83;13195,946;  298,651;38062,774;34,15224
 622,41;13133,461;  328,959;38049,670;33,94555
 622,98;12915,442;  308,800;37788,029;33,63634
 623,56;12931,750;  314,030;37795,674;33,66373
 624,14;12738,595;  289,659;37659,464;33,31282
 624,72;12696,598;  301,805;37544,194;33,28141
 625,29;12655,165;  282,799;37675,744;33,08743
 625,87;12564,162;  326,270;37619,830;32,81503
 626,45;12352,988;  279,259;37344,439;32,57432
 627,02;12327,369;  287,732;37357,465;32,47835
 627,60;12224,494;  271,817;37247,702;32,32560
 628,18;12182,005;  253,730;37361,161;32,14525
 628,76;12162,659;  261,724;37356,021;32,08293
 629,33;12112,649;  296,726;37384,113;31,85968
 629,91;12049,055;  278,346;37340,329;31,75952
 630,49;12020,886;  296,956;37449,416;31,55627
 631,06;11964,194;  287,340;37625,831;31,27297
 631,64;11890,051;  293,568;37572,200;31,10759
 632,22;11781,715;  254,949;37478,527;30,96630
 632,79;11860,591;  288,257;37824,059;30,83012
 633,37;11721,017;  277,349;37826,435;30,47656
 633,95;11749,226;  270,644;37963,712;30,45277
 634,52;11776,625;  272,189;38068,796;30,43775
 635,10;11614,413;  282,499;38029,680;30,02056
 635,68;11630,955;  274,949;38237,268;29,91389
 636,25;11551,729;  266,637;38241,039;29,71763
 636,83;11523,121;  254,878;38432,405;29,51538
 637,41;11511,116;  251,487;38505,802;29,43362
 637,98;11490,304;  285,409;38627,908;29,22317
 638,56;11421,599;  273,867;38771,280;28,95710
 639,13;11340,352;  265,800;38871,974;28,68596
 639,71;11340,244;  311,878;39154,614;28,39235
 640,29;11124,790;  246,955;38826,648;28,19575
 640,86;11127,848;  252,032;38988,317;28,07656
 641,44;11039,522;  253,417;38967,062;27,86125
 642,02;10963,196;  276,341;38914,962;27,65848
 642,59;10925,408;  253,879;39161,323;27,42799
 643,17;10793,081;  263,110;39098,531;27,11435
 643,74;10783,217;  249,111;39141,738;27,08510
 644,32;10722,736;  286,649;39185,253;26,82895
 644,89;10620,641;  280,649;39099,692;26,63639
 645,47;10574,930;  291,111;39116,437;26,48740
 646,05;10431,373;  286,111;39135,414;26,11440
 646,62;10375,970;  264,189;39107,852;26,03200
 647,20;10361,105;  269,497;39209,444;25,91582
 647,77;10241,548;  249,804;39035,729;25,76126
 648,35;10106,452;  245,420;39003,398;25,44259
 648,92;10100,588;  272,651;39009,682;25,37091
 649,50; 9981,800;  234,882;38843,966;25,24514
 650,08; 9886,089;  246,882;38764,251;25,02561
 650,65; 9887,301;  238,036;39112,535;24,82158
 651,23; 9982,898;  220,421;39827,512;24,64830
 651,80;10115,879;  233,729;40797,488;24,36202
 652,38;10203,630;  246,499;41191,465;24,31833
 652,95;10220,073;  227,268;41534,057;24,19168
 653,53;10172,669;  255,961;41894,187;23,81636
 654,10;10196,420;  281,576;41945,318;23,79730
 654,68;10097,094;  241,577;41909,064;23,65278
 655,25;10038,767;  238,192;41917,579;23,51420
 655,83; 9974,672;  237,423;42057,709;23,28355
 656,40; 9963,038;  264,500;42034,840;23,21872
 656,98; 9831,019;  239,270;41918,278;23,01338
 657,55; 9756,077;  252,347;41811,332;22,86805
 658,13; 9621,674;  241,116;41390,693;22,79624
 658,70; 9522,809;  266,270;41249,977;22,58590
 659,28; 9235,868;  236,501;40241,339;22,49570
 659,85; 8999,541;  255,040;39406,315;22,33516
 660,43; 8913,292;  261,887;39494,676;22,05147
 661,00; 8917,658;  240,502;39551,730;22,07297
 661,58; 8874,255;  237,810;40107,784;21,66153
 662,15; 8871,236;  226,503;40183,453;21,63512
 662,73; 8946,679;  300,272;40518,660;21,49864
 663,30; 8855,045;  244,042;40675,406;21,29783
 663,88; 8863,796;  254,965;40897,306;21,18193
 664,45; 8838,700;  244,734;41079,282;21,04582
 665,03; 8860,374;  242,658;41416,797;20,92992
 665,60; 8955,278;  323,504;41846,697;20,78784
 666,17; 8851,413;  247,658;41960,520;20,62614
 666,75; 8823,318;  249,735;42413,650;20,33393
 667,32; 8861,607;  268,505;42639,396;20,28067
 667,90; 8837,358;  244,582;42979,604;20,10710
 668,47; 8853,724;  273,274;43192,888;19,99191
 669,05; 8863,320;  237,582;43631,019;19,87798
 669,62; 8815,994;  231,583;43641,611;19,77518
 670,19; 8739,514;  232,198;43783,433;19,53404
 670,77; 8690,034;  248,198;43903,025;19,33769
 671,34; 8619,707;  243,353;43823,310;19,22066
 671,92; 8645,150;  231,737;44287,748;19,09708
 672,49; 8606,055;  258,738;44173,340;19,00807
 673,06; 8536,421;  215,507;44343,470;18,85633
 673,64; 8438,094;  232,661;44171,293;18,67476
 674,21; 8378,614;  220,046;44244,347;18,53197
 674,79; 8425,134;  250,508;44513,323;18,46838
 675,36; 8407,192;  260,585;44484,223;18,42139
 675,93; 8276,405;  219,508;44374,123;18,24701
 676,51; 8273,155;  256,816;44710,176;18,03315
 677,08; 8291,598;  241,124;44763,692;18,08178
 677,65; 8248,656;  250,047;44833,976;17,94057
 678,23; 8256,561;  253,509;45032,876;17,87219
 678,80; 8168,773;  240,971;45153,160;17,65178
 679,38; 8140,908;  240,048;45315,367;17,52813
 679,95; 8192,659;  241,510;45585,344;17,53524
 680,52; 8182,794;  246,664;45759,705;17,43705
 681,10; 8226,852;  255,126;46247,374;17,33276
 681,67; 8217,141;  254,664;46474,505;17,22740
 682,24; 8222,738;  234,126;46637,789;17,21548
 682,82; 8213,335;  238,050;47233,381;16,97038
 683,39; 8252,316;  280,973;47459,127;16,89626
 683,96; 8226,298;  245,665;47797,719;16,78294
 684,54; 8245,202;  227,589;48127,234;16,73836
 685,11; 8271,645;  269,666;48378,288;16,63315
 685,68; 8305,319;  246,358;48929,495;16,55391
 686,25; 8254,685;  229,436;49081,164;16,42777
 686,83; 8215,743;  244,897;49196,602;16,28308
 687,40; 8273,494;  219,205;49533,271;16,33264
 687,97; 8243,783;  269,667;49965,556;16,04583
 688,55; 8192,995;  222,129;49932,071;16,03475
 689,12; 8145,899;  214,206;50320,663;15,82968
 689,69; 8103,419;  222,899;50349,716;15,72117
 690,26; 8108,093;  246,130;50497,462;15,64528
 690,84; 8061,459;  245,361;50658,285;15,50416
 691,41; 8008,979;  248,822;50775,800;15,35844
 691,98; 7999,960;  254,823;51050,469;15,24764
 692,56; 7948,941;  233,284;51139,369;15,15665
 693,13; 7997,077;  283,592;51161,576;15,16075
 693,70; 7909,981;  266,823;51358,245;14,95977
 694,27; 7848,732;  254,285;51426,453;14,84097
 694,84; 7837,482;  234,131;51492,583;14,83336
 695,42; 7842,233;  288,362;51602,791;14,72075
 695,99; 7744,060;  251,132;51901,229;14,50709
 696,56; 7683,888;  233,747;51796,052;14,44881
 697,13; 7727,023;  253,594;52059,182;14,42591
 697,71; 7677,005;  221,517;52124,466;14,36428
 698,28; 7706,909;  241,825;52567,212;14,26666
 698,85; 7635,121;  218,672;52430,573;14,20452
 699,42; 7635,641;  217,903;52602,627;14,16012
 699,99; 7630,392;  269,364;52899,758;13,98627
 700,57; 7576,604;  250,288;52759,427;13,95246
 701,14; 7530,662;  239,903;52950,788;13,83160
 701,71; 7518,028;  251,057;53144,841;13,73880
 702,28; 7475,009;  249,750;53175,587;13,65167
 702,85; 7488,991;  240,212;53278,641;13,66703
 703,43; 7486,741;  267,981;53533,464;13,55242
 704,00; 7453,107;  279,366;53798,363;13,40410
 704,57; 7385,166;  251,674;53675,417;13,35266
 705,14; 7432,224;  272,597;54065,932;13,30951
 705,71; 7440,282;  271,290;54061,216;13,32776
 706,28; 7342,571;  252,367;53901,808;13,21580
 706,86; 7370,707;  276,752;54297,400;13,13193
 707,43; 7354,457;  300,598;54147,300;13,09989
 708,00; 7312,516;  264,060;54117,123;13,08831
 708,57; 7209,189;  243,675;54126,561;12,92714
 709,14; 7210,324;  272,599;54215,230;12,86130
 709,71; 7192,306;  248,830;54312,438;12,84316
 710,28; 7203,441;  264,445;54427,876;12,81122
 710,86; 7148,961;  265,676;54698,083;12,64556
 711,43; 7180,865;  280,061;54701,983;12,68019
 712,00; 7098,539;  256,600;54690,575;12,56924
 712,57; 7083,290;  265,293;54991,705;12,45833
 713,14; 7060,425;  255,216;55000,451;12,43069
 713,71; 7052,483;  266,831;54936,505;12,41209
 714,28; 7027,157;  265,601;54977,558;12,35846
 714,85; 6935,369;  241,524;54659,535;12,30079
 715,42; 6961,504;  249,140;55004,127;12,25891
 716,00; 6994,101;  311,140;55111,181;12,19518
 716,57; 6926,928;  262,602;55229,773;12,12419
 717,14; 6881,987;  249,217;55154,826;12,08031
 717,71; 6880,584;  234,987;55096,957;12,11330
 718,28; 6913,257;  280,449;55273,164;12,06125
 718,85; 6828,316;  247,218;55374,218;11,93807
 719,42; 6894,374;  269,449;55454,810;12,00486
 719,99; 6823,509;  247,219;55223,709;11,96200
 720,56; 6855,798;  264,988;55553,840;11,92069
 721,13; 6774,395;  241,296;55688,124;11,78264
 721,70; 6810,607;  248,835;55484,255;11,87965
 722,27; 6770,127;  273,912;55549,770;11,75235
 722,84; 6868,031;  306,374;55677,900;11,85024
 723,41; 6703,859;  240,835;55715,569;11,65039
 723,98; 6780,456;  266,682;55931,161;11,70185
 724,55; 6722,591;  283,144;55921,215;11,57381
 725,12; 6644,649;  221,836;55925,192;11,53039
 725,69; 6727,323;  253,221;56131,091;11,58616
 726,27; 6710,073;  266,606;56193,145;11,52131
 726,84; 6732,362;  269,298;56558,891;11,48181
 727,41; 6730,113;  274,683;56495,175;11,48234
 727,98; 6723,941;  272,376;56762,306;11,42073
 728,55; 6755,768;  296,068;56619,205;11,46900
 729,12; 6648,750;  239,607;56799,951;11,33151
 729,69; 6739,885;  279,376;57065,620;11,37689
 730,26; 6717,174;  276,069;57301,443;11,29516
 730,82; 6675,848;  272,069;57015,958;11,28541
 731,39; 6694,060;  263,608;57200,396;11,29402
 731,96; 6734,041;  251,454;57379,758;11,34742
 732,53; 6758,099;  265,455;57658,119;11,31267
 733,10; 6769,696;  274,609;57655,326;11,31929
 733,67; 6754,754;  271,455;57940,841;11,24219
 734,24; 6702,043;  251,994;57573,126;11,25248
 734,81; 6740,256;  285,456;57668,949;11,24853
 735,38; 6647,468;  270,840;57484,925;11,14521
 735,95; 6661,295;  271,148;57348,594;11,19557
 736,52; 6616,738;  277,610;57559,878;11,06648
 737,09; 6587,489;  265,918;57244,547;11,09463
 737,66; 6646,086;  307,072;57340,678;11,11452
 738,23; 6594,375;  259,534;57458,193;11,07516
 738,80; 6686,741;  314,919;57686,631;11,10621
 739,37; 6629,337;  294,150;57997,146;10,97896
 739,94; 6637,242;  266,765;58021,969;11,03013
 740,51; 6702,223;  361,073;58162,869;10,97051
 741,07; 6619,974;  257,304;57969,230;11,02488
 741,64; 6666,494;  299,458;58260,591;10,98501
 742,21; 6650,014;  268,459;58352,491;10,98676
 742,78; 6640,764;  238,074;58040,006;11,07695
 743,35; 6649,130;  267,921;58393,598;10,97830
 743,92; 6781,342;  293,382;58500,806;11,14628
 744,49; 6712,862;  272,075;58297,244;11,09999
 745,06; 6656,767;  262,537;58309,990;11,01552
 745,63; 6646,363;  246,922;58349,813;11,01398
 746,19; 6659,191;  260,537;58279,174;11,02862
 746,76; 6726,172;  260,614;58369,227;11,12668
 747,33; 6706,846;  256,307;58286,589;11,11582
 747,90; 6757,981;  280,384;58549,027;11,11678
 748,47; 6728,424;  276,615;58454,850;11,08973
 749,04; 6721,559;  273,000;58474,596;11,07970
 749,61; 6734,541;  287,308;58464,495;11,08206
 750,17; 6727,522;  285,693;58499,856;11,06574
 750,74; 6766,119;  274,001;58413,910;11,16637
 751,31; 6721,946;  257,078;58361,194;11,12635
 751,88; 6683,543;  231,463;58242,479;11,12216
 752,45; 6749,986;  261,617;58344,071;11,17096
 753,02; 6698,967;  282,848;58210,355;11,07612
 753,58; 6715,256;  249,232;58226,639;11,15266
 754,15; 6785,930;  258,617;58347,616;11,23675
 754,72; 6719,758;  247,156;58025,824;11,20241
 755,29; 6695,277;  241,156;57871,723;11,19913
 755,86; 6741,490;  262,387;58023,931;11,21698
 756,42; 6765,779;  267,311;57938,600;11,26812
 756,99; 6720,760;  228,388;57931,653;11,25131
 757,56; 6742,818;  235,003;57765,245;11,31199
 758,13; 6731,031;  200,234;57725,068;11,35300
 758,70; 6776,397;  227,773;57822,122;11,37025
 759,26; 6774,609;  223,696;57884,329;11,36115
 759,83; 6794,052;  234,543;57974,152;11,36050
 760,40; 6792,110;  219,928;57712,590;11,43134
 760,97; 6798,091;  197,774;57783,567;11,46171
 761,53; 6725,226;  193,697;57436,697;11,41018
 762,10; 6779,285;  196,544;57388,905;11,50983
 762,67; 6773,266;  229,313;57454,112;11,43552
 763,24; 6745,709;  189,852;56929,781;11,55422
 763,80; 6777,537;  228,314;57080,835;11,51967
 764,37; 6786,364;  218,929;57096,119;11,54669
 764,94; 6763,961;  215,391;56619,172;11,61016
 765,50; 6739,635;  216,314;56701,841;11,54866
 766,07; 6826,847;  252,622;56651,433;11,65667
 766,64; 6780,674;  230,776;56431,872;11,65440
 767,21; 6760,348;  225,777;56265,618;11,66058
 767,77; 6799,637;  250,315;56115,825;11,72337
 768,34; 6773,234;  239,239;56116,109;11,69356
 768,91; 6810,677;  255,162;55937,317;11,77310
 769,47; 6816,197;  245,008;55948,909;11,79664
 770,04; 6797,639;  262,855;55841,962;11,75763
 770,61; 6755,005;  240,086;55658,939;11,75578
 771,18; 6807,602;  231,932;55498,454;11,89811
 771,74; 6813,353;  246,932;55584,123;11,86620
 772,31; 6850,642;  247,317;55284,253;11,99799
 772,88; 6845,546;  225,471;55091,615;12,06587
 773,44; 6821,220;  228,471;55019,130;12,03261
 774,01; 6855,740;  246,010;55033,953;12,06421
 774,58; 6860,414;  234,549;54714,775;12,16196
 775,14; 6839,856;  230,703;54775,598;12,11691
 775,71; 6875,530;  238,395;54690,421;12,18896
 776,27; 6920,896;  283,857;54724,475;12,19134
 776,84; 6965,647;  308,165;54764,067;12,22545
 777,41; 6934,397;  245,165;54464,966;12,33725
 777,97; 6889,071;  244,550;54181,635;12,31902
 778,54; 6915,976;  259,012;54240,381;12,33196
 779,11; 6952,265;  268,551;54182,666;12,39696
 779,67; 6948,938;  228,166;54092,642;12,47719
 780,24; 6945,381;  251,936;53933,388;12,46882
 780,80; 6986,286;  269,013;53984,749;12,50522
 781,37; 7017,036;  254,859;53989,264;12,58445
 781,94; 6971,941;  246,783;53653,703;12,59230
 782,50; 7025,845;  257,091;53683,833;12,66923
 783,07; 7054,134;  281,937;53762,964;12,66280
 783,63; 6990,962;  240,860;53436,556;12,68919
 784,20; 7037,328;  273,399;53488,686;12,71050
 784,77; 7059,617;  256,553;53280,586;12,83015
 785,33; 7054,598;  229,784;52997,332;12,93373
 785,90; 7120,426;  253,015;53002,078;13,01902
 786,46; 7127,561;  269,861;52896,439;13,03087
 787,03; 7086,927;  242,092;52744,339;13,03722
 787,59; 7165,216;  248,631;52615,315;13,20799
 788,16; 7137,659;  258,478;52575,292;13,14908
 788,73; 7130,256;  265,401;52391,576;13,16969
 789,29; 7130,852;  244,786;51910,014;13,32824
 789,86; 7185,218;  267,171;51898,222;13,39901
 790,42; 7119,661;  257,094;51859,737;13,29887
 790,99; 7117,104;  272,479;51447,944;13,37482
 791,55; 7137,778;  245,633;51501,152;13,44664
 792,12; 7144,298;  265,556;51433,359;13,44350
 792,68; 7127,125;  254,556;51144,874;13,50467
 793,25; 7126,876;  265,941;50834,543;13,56758
 793,81; 7163,934;  309,249;50529,058;13,64937
 794,38; 7009,223;  217,557;50328,112;13,55336
 794,94; 7079,205;  244,173;50104,243;13,70843
 795,51; 7037,571;  257,788;49860,681;13,66812
 796,07; 7036,937;  260,789;49633,504;13,72448
 796,64; 7077,149;  264,712;49687,480;13,78401
 797,20; 7019,976;  258,558;49121,303;13,83757
 797,77; 7013,112;  229,328;48871,664;13,94625
 798,33; 7038,631;  241,866;48671,641;14,03427
 798,90; 7013,997;  274,636;48687,771;13,92052
 799,46; 7013,210;  246,251;48125,363;14,13342
 800,03; 7012,037;  270,790;48025,109;14,11652
 800,59; 7062,172;  272,713;47941,624;14,24295
 801,15; 7043,000;  258,175;47589,524;14,33474
 801,72; 7009,827;  252,406;47287,732;14,36669
 802,28; 7017,655;  285,560;46983,631;14,41622
 802,85; 7032,021;  249,330;46889,300;14,54266
 803,41; 6984,618;  246,561;46712,892;14,50094
 803,98; 6967,599;  249,484;46328,330;14,57961
 804,54; 6974,657;  249,946;46006,846;14,69661
 805,11; 6977,485;  258,485;45810,130;14,75029
 805,67; 6990,159;  272,100;45752,414;14,77135
 806,23; 6968,140;  262,408;45267,006;14,90010
 806,80; 6988,506;  275,562;45117,444;14,97025
 807,36; 6993,564;  282,793;45013,267;15,00268
 807,93; 6969,546;  286,024;44813,321;15,00994
 808,49; 6920,450;  245,640;44510,144;15,07937
 809,05; 6917,201;  234,640;44363,505;15,14329
 809,62; 6940,490;  270,410;44212,405;15,17928
 810,18; 6954,010;  263,871;44157,151;15,24183
 810,74; 6912,145;  232,025;43883,896;15,30317
 811,31; 6883,972;  245,872;43546,335;15,33032
 811,87; 6921,800;  256,564;43534,004;15,40118
 812,44; 6971,474;  283,949;43399,288;15,51078
 813,00; 6950,147;  209,719;43112,880;15,71080
 813,56; 6985,513;  260,950;43217,010;15,65452
 814,13; 6997,725;  259,565;43157,449;15,70744
 814,69; 6965,630;  251,719;42808,348;15,77642
 815,25; 6918,765;  229,104;42601,479;15,78779
 815,82; 7002,131;  275,335;42334,840;15,99352
 816,38; 7012,112;  298,182;42184,817;16,02881
 816,94; 6924,094;  235,490;41865,486;16,06679
 817,51; 6915,767;  226,644;41713,001;16,12367
 818,07; 6906,749;  242,105;41376,747;16,20202
 818,63; 6917,884;  265,336;41247,262;16,23288
 819,20; 6935,019;  249,798;41189,777;16,32932
 819,76; 6910,385;  235,414;40615,138;16,53050
 820,32; 6943,828;  268,952;40609,961;16,54613
 820,89; 6910,271;  270,799;40403,553;16,54377
 821,45; 6866,637;  233,338;40010,145;16,67630
 822,01; 6882,003;  273,876;39788,660;16,72318
 822,57; 6877,908;  267,107;39675,791;16,77498
 823,14; 6839,966;  238,415;39514,075;16,80825
 823,70; 6854,870;  241,108;39247,282;16,95568
 824,26; 6868,775;  235,262;39008,797;17,10835
 824,82; 6878,064;  257,570;38887,005;17,13847
 825,39; 6858,814;  239,647;38619,828;17,24632
 825,95; 6863,027;  261,878;38651,958;17,19493
 826,51; 6859,623;  258,340;38153,550;17,41984
 827,08; 6925,220;  278,417;38206,065;17,52495
 827,64; 6897,201;  257,186;38029,657;17,57898
 828,20; 6840,260;  242,956;37724,249;17,60159
 828,76; 6927,318;  273,494;37724,072;17,76695
 829,32; 6890,223;  275,879;37573,895;17,73377
 829,89; 6912,589;  234,187;37475,256;17,93289
 830,45; 6944,108;  253,572;37367,925;18,02682
 831,01; 6912,859;  241,188;37192,517;18,05529
 831,57; 6911,456;  252,188;37083,494;18,08046
 832,14; 6931,283;  246,496;37046,163;18,16535
 832,70; 6896,880;  233,111;36757,370;18,24477
 833,26; 6905,323;  214,189;36663,808;18,35721
 833,82; 6915,150;  238,343;36525,016;18,40016
 834,38; 6886,670;  233,804;36584,069;18,30211
 834,95; 6962,190;  234,882;36441,892;18,58013
 835,51; 6913,018;  205,343;36314,946;18,57587
 836,07; 6992,153;  243,190;36355,615;18,68876
 836,63; 7052,211;  262,882;36381,668;18,79722
 837,19; 7007,039;  247,421;36206,645;18,79801
 837,75; 6964,482;  215,421;35942,391;18,89066
 838,32; 7053,155;  258,268;36010,829;19,00532
 838,88; 7066,675;  257,499;36027,575;19,03596
 839,44; 7085,580;  251,499;35891,705;19,17520
 840,00; 7122,176;  248,961;35852,067;19,30510
 840,56; 7045,927;  224,422;35544,428;19,31343
 841,12; 7092,985;  231,346;35616,482;19,39130
 841,68; 7067,659;  218,654;35367,151;19,48591
 842,25; 7154,563;  231,039;35432,358;19,66837
 842,81; 7136,468;  224,193;35091,796;19,82435
 843,37; 7179,757;  205,270;35087,311;19,99449
 843,93; 7177,277;  234,885;35064,749;19,93230
 844,49; 7233,181;  240,578;35030,880;20,09929
 845,05; 7231,009;  202,040;34888,395;20,26436
 845,61; 7267,836;  253,809;34860,756;20,26769
 846,17; 7282,356;  233,040;34734,348;20,43203
 846,73; 7316,338;  242,810;34729,863;20,51068
 847,29; 7232,550;  215,733;34468,763;20,48524
 847,86; 7318,839;  221,118;34521,817;20,69264
 848,42; 7272,359;  208,580;34236,024;20,75906
 848,98; 7368,648;  241,811;34193,924;20,99085
 849,54; 7395,937;  228,965;34233,670;21,07641
 850,10; 7400,457;  237,734;34080,108;21,16495
 850,66; 7390,207;  216,734;33874,469;21,31300
 851,22; 7422,035;  212,504;33864,061;21,42406
 851,78; 7505,862;  268,043;33891,807;21,52591
 852,34; 7448,151;  237,274;33624,938;21,59743
 852,90; 7457,210;  226,889;33522,991;21,71522
 853,46; 7392,037;  218,120;33292,583;21,69020
 854,02; 7456,326;  234,274;33293,791;21,84561
 854,58; 7392,615;  221,659;32997,075;21,87907
 855,14; 7432,597;  221,736;32969,359;22,01949
 855,70; 7430,963;  196,121;32805,721;22,18623
 856,26; 7493,482;  242,275;32805,159;22,26832
 856,82; 7434,002;  229,429;32524,905;22,30830
 857,38; 7491,984;  246,276;32449,035;22,50027
 857,94; 7473,811;  240,430;32373,473;22,51073
 858,50; 7471,716;  249,661;32173,527;22,62275
 859,06; 7443,928;  224,892;32001,965;22,71775
 859,62; 7480,909;  242,969;31978,326;22,80718
 860,18; 7421,352;  227,738;31700,841;22,85639
 860,74; 7450,949;  195,431;31622,280;23,08700
 861,30; 7421,546;  207,893;31446,333;23,09223
 861,86; 7544,912;  260,124;31459,925;23,34883
 862,42; 7485,970;  226,662;31272,133;23,38282
 862,98; 7578,567;  253,047;31308,571;23,58846
 863,54; 7498,702;  233,971;31118,394;23,52232
 864,10; 7513,145;  223,202;31050,293;23,64785
 864,66; 7530,972;  208,202;30911,809;23,84987
 865,22; 7540,877;  230,510;30695,324;23,99610
 865,78; 7523,166;  229,895;30639,608;23,98336
 866,34; 7510,301;  226,664;30513,200;24,04909
 866,90; 7498,359;  236,895;30375,023;24,09395
 867,45; 7528,648;  230,818;30249,076;24,31130
 868,01; 7465,091;  235,511;30036,976;24,25914
 868,57; 7488,304;  226,434;29866,799;24,49993
 869,13; 7473,054;  211,204;29736,391;24,59544
 869,69; 7470,574;  215,512;29661,214;24,63878
 870,25; 7432,863;  209,512;29513,113;24,65005
 870,81; 7491,691;  218,974;29522,167;24,81885
 871,37; 7536,133;  225,974;29387,682;25,06767
 871,93; 7497,192;  233,436;29172,197;25,10044
 872,49; 7528,096;  253,897;29027,866;25,28049
 873,04; 7471,231;  212,513;28819,304;25,37411
 873,60; 7463,982;  219,667;28684,666;25,44990
 874,16; 7490,502;  236,206;28544,181;25,62633
 874,72; 7490,425;  222,437;28517,873;25,68608
 875,28; 7493,963;  226,052;28424,873;25,77381
 875,84; 7514,579;  226,590;28321,873;25,94026
 876,40; 7533,502;  220,513;28379,412;25,97044
 876,95; 7501,502;  239,129;28235,104;25,94078
 877,51; 7593,733;  260,052;28329,873;26,12657
 878,07; 7633,425;  269,744;28231,488;26,33484
 878,63; 7629,810;  228,283;28280,027;26,38526
 879,19; 7624,271;  235,898;28263,258;26,36129
 879,75; 7659,040;  226,590;28335,642;26,44148
 880,30; 7677,579;  230,821;28199,027;26,62580
 880,86; 7772,579;  267,821;28385,488;26,69054
 881,42; 7785,040;  216,667;28452,104;26,80452
 881,98; 7827,194;  240,898;28461,335;26,88228
 882,54; 7868,579;  224,744;28577,719;26,95955
 883,09; 7943,425;  238,513;28735,488;27,03765
 883,65; 7908,810;  214,283;28770,335;26,94535
 884,21; 8057,117;  256,206;28987,565;27,15121
 884,77; 8096,271;  221,360;28983,104;27,37981
 885,32; 8129,117;  230,975;29187,642;27,27573
 885,88; 8268,348;  259,283;29262,335;27,61456
 886,44; 8265,502;  237,513;29484,642;27,44881
 887,00; 8341,425;  254,360;29404,412;27,74289
 887,56; 8406,117;  231,437;29648,488;27,78892
 888,11; 8432,579;  236,360;29552,412;27,95813
 888,67; 8543,117;  264,206;29822,412;28,00884
 889,23; 8611,579;  237,667;29833,873;28,29387
 889,79; 8579,963;  214,360;29723,027;28,34965
 890,34; 8588,579;  239,360;29613,258;28,42394
 890,90; 8765,425;  302,975;29761,181;28,72697
 891,46; 8669,194;  225,667;29652,104;28,69368
 892,01; 8779,963;  252,975;29674,104;28,98253
 892,57; 8722,887;  252,821;29550,335;28,91053
 893,13; 8734,348;  233,283;29317,873;29,22876
 893,69; 8723,117;  227,129;29388,719;29,13417
 894,24; 8693,040;  236,667;29281,335;29,11506
 894,80; 8734,656;  231,052;29059,104;29,49767
 895,36; 8700,733;  230,129;28942,873;29,50120
 895,91; 8667,040;  231,206;28773,719;29,55533
 896,47; 8643,348;  258,975;28624,412;29,55841
 897,03; 8586,117;  220,667;28386,335;29,70088
 897,58; 8581,425;  238,821;28392,488;29,63239
 898,14; 8610,502;  239,975;28132,565;30,00986
 898,70; 8526,194;  209,667;27967,642;29,96086
 899,25; 8579,579;  228,129;27958,719;30,11638
 899,81; 8587,963;  250,590;27772,104;30,29402
 900,37; 8490,656;  217,437;27573,104;30,24316
 900,92; 8538,963;  240,283;27632,719;30,29552
 901,48; 8492,579;  224,821;27419,488;30,40213
 902,03; 8433,579;  223,513;27255,796;30,37134
 902,59; 8488,271;  226,052;27215,412;30,61288
 903,15; 8483,579;  256,052;26958,950;30,81136
 903,70; 8414,810;  244,052;26687,181;30,89936
 904,26; 8342,810;  217,744;26660,335;30,72719
 904,82; 8384,733;  236,744;26648,488;30,84987
 905,37; 8460,579;  240,052;26469,873;31,34038
 905,93; 8359,348;  224,744;26360,104;31,12490
 906,48; 8415,117;  239,667;26317,104;31,35067
 907,04; 8468,194;  253,898;26173,181;31,69183
 907,60; 8440,579;  224,975;25972,873;31,90786
 908,15; 8368,810;  218,667;25883,104;31,75656
 908,71; 8425,194;  250,513;25858,335;31,92259
 909,26; 8417,733;  213,283;25706,950;32,18231
 909,82; 8418,271;  257,437;25599,796;32,20235
 910,37; 8417,194;  268,052;25525,796;32,26394
 910,93; 8303,502;  219,744;25226,335;32,32651
 911,48; 8301,425;  208,513;25048,181;32,58060
 912,04; 8296,733;  216,590;24939,950;32,68222
 912,60; 8369,425;  242,206;25022,488;32,79712
 913,15; 8264,656;  235,975;24808,104;32,67393
 913,71; 8205,579;  226,360;24581,642;32,76176
 914,26; 8221,579;  204,360;24588,950;32,87822
 914,82; 8240,733;  234,975;24467,873;33,03673
 915,37; 8242,425;  226,898;24384,950;33,17953
 915,93; 8246,348;  277,129;24278,258;33,20352
 916,48; 8141,348;  216,283;24113,488;33,16315
 917,04; 8189,963;  239,590;24033,642;33,41328
 917,59; 8186,425;  254,129;23937,412;33,49323
 918,15; 8159,810;  206,206;23718,181;33,82788
 918,70; 8128,117;  226,283;23675,335;33,69789
 919,26; 8131,656;  229,667;23483,565;33,98135
 919,81; 8106,502;  212,975;23370,412;34,08636
 920,37; 8164,656;  233,283;23301,335;34,38250
 920,92; 8158,117;  241,975;23216,796;34,45573
 921,48; 8081,194;  209,667;22934,027;34,63916
 922,03; 8071,810;  218,437;23038,488;34,41435
 922,59; 8087,733;  225,821;22863,565;34,72922
 923,14; 8062,117;  223,975;22679,488;34,90520
 923,69; 8059,194;  244,283;22620,642;34,92486
 924,25; 8111,117;  248,513;22641,181;35,11240
 924,80; 7975,040;  225,975;22275,796;35,14344
 925,36; 8020,963;  219,744;22273,104;35,37429
 925,91; 7973,963;  222,052;22124,873;35,39230
 926,47; 7939,271;  209,667;22107,181;35,29900
 927,02; 7979,194;  269,744;22038,335;35,41548
 927,57; 7894,425;  220,975;21821,565;35,52426
 928,13; 7901,887;  217,360;21776,642;35,64370
 928,68; 7907,887;  221,283;21722,027;35,75041
 929,24; 7839,271;  192,821;21528,642;35,83856
 929,79; 7867,810;  216,052;21382,335;36,15069
 930,34; 7857,117;  216,513;21190,642;36,42871
 930,90; 7836,963;  215,898;21257,642;36,21879
 931,45; 7865,733;  233,513;21206,719;36,39033
 932,01; 7821,502;  231,360;21068,950;36,42524
 932,56; 7783,348;  244,513;20865,642;36,55879
 933,11; 7855,425;  256,437;20914,258;36,78504
 933,67; 7751,502;  216,360;20690,488;36,80324
 934,22; 7735,810;  221,283;20578,796;36,91279
 934,77; 7694,425;  251,360;20507,642;36,74448
 935,33; 7668,963;  233,975;20403,412;36,86265
 935,88; 7673,579;  226,590;20301,335;37,09631
 936,43; 7685,733;  218,975;20248,181;37,27935
 936,99; 7659,117;  225,206;20154,719;37,30102
 937,54; 7610,425;  212,513;19992,719;37,40058
 938,09; 7655,502;  235,360;19954,412;37,62931
 938,65; 7609,963;  230,437;19810,104;37,68975
 939,20; 7588,117;  204,129;19720,104;37,83561
 939,75; 7558,194;  217,360;19588,488;37,89575
 940,31; 7537,425;  214,590;19526,642;37,91847
 940,86; 7582,271;  228,744;19496,873;38,16420
 941,41; 7632,579;  300,129;19384,873;38,42048
 941,96; 7555,810;  217,590;19234,412;38,58804
 942,52; 7533,271;  218,898;19187,027;38,56138
 943,07; 7510,656;  200,283;19000,335;38,88486
 943,62; 7525,502;  210,513;18923,565;39,09030
 944,18; 7495,348;  204,667;18843,796;39,11492
 944,73; 7499,348;  220,129;18759,181;39,26425
 945,28; 7445,425;  200,898;18568,873;39,44108
 945,83; 7473,117;  224,975;18574,873;39,49963
 946,39; 7482,194;  214,590;18463,565;39,82472
 946,94; 7461,963;  239,052;18505,642;39,54165
 947,49; 7428,887;  225,590;18264,719;39,93151
 948,04; 7443,810;  248,513;18248,181;39,97461
 948,59; 7424,271;  237,129;18177,258;40,06182
 949,15; 7395,733;  208,898;18127,104;40,10912
 949,70; 7363,348;  211,283;18002,412;40,20018
 950,25; 7340,271;  243,590;17877,258;40,24506
 950,80; 7303,656;  190,129;17786,719;40,42560
 951,36; 7295,887;  188,975;17675,027;40,64332
 951,91; 7334,887;  236,129;17672,027;40,71346
 952,46; 7178,117;  207,821;17485,873;40,34191
 953,01; 7247,579;  238,283;17504,565;40,59528
 953,56; 7218,425;  203,975;17356,642;40,89422
 954,11; 7248,271;  221,283;17362,796;40,99398
 954,67; 7192,733;  214,898;17186,104;41,11573
 955,22; 7151,963;  202,129;17152,181;41,00185
 955,77; 7170,656;  238,437;17072,488;41,17974
 956,32; 7176,579;  267,283;16949,796;41,41640
 956,87; 7078,271;  207,821;16783,565;41,44882
 957,42; 7113,810;  210,206;16742,488;41,75832
 957,98; 7086,425;  209,821;16680,873;41,74963
 958,53; 7135,040;  240,437;16656,335;41,99955
 959,08; 7070,271;  216,283;16515,642;42,05066
 959,63; 7049,963;  214,283;16453,335;42,09409
 960,18; 7076,271;  226,206;16438,873;42,25132
 960,73; 7088,194;  214,513;16331,412;42,64891
 961,28; 7023,963;  206,975;16188,027;42,65669
 961,83; 7022,502;  241,667;16189,565;42,51867
 962,39; 6965,733;  200,129;16034,719;42,72674
 962,94; 6975,656;  231,360;16000,950;42,76773
 963,49; 6930,887;  214,744;15862,104;42,92189
 964,04; 6909,425;  232,052;15809,027;42,86694
 964,59; 6884,656;  199,975;15702,950;43,11870
 965,14; 6917,117;  234,206;15642,412;43,37242
 965,69; 6848,194;  220,129;15507,950;43,35520
 966,24; 6815,579;  213,437;15436,719;43,36872
 966,79; 6784,887;  231,667;15336,258;43,38561
 967,34; 6731,425;  199,052;15212,719;43,50951
 967,89; 6762,887;  209,590;15114,104;43,96853
 968,44; 6768,656;  226,206;15046,565;44,14502
 968,99; 6726,963;  229,052;14984,565;44,03718
 969,55; 6633,040;  227,283;14903,027;43,64861
 970,10; 6639,271;  230,821;14821,642;43,92111
 970,65; 6680,348;  233,513;14703,335;44,55366
 971,20; 6615,733;  210,052;14610,488;44,48255
 971,75; 6561,117;  201,206;14497,181;44,48743
 972,30; 6592,502;  225,898;14445,873;44,77226
 972,85; 6490,579;  206,513;14366,796;44,37811
 973,40; 6438,502;  204,513;14167,565;44,64632
 973,95; 6498,425;  224,360;14185,412;44,93978
 974,50; 6463,887;  248,360;14086,950;44,91445
 975,05; 6374,040;  224,206;13905,642;44,95021
 975,60; 6395,502;  227,667;13878,950;45,18136
 976,15; 6324,810;  216,052;13755,950;45,11672
 976,70; 6312,733;  212,744;13693,335;45,25016
 977,25; 6326,579;  228,667;13616,258;45,54899
 977,80; 6242,348;  212,975;13398,565;45,72699
 978,35; 6216,502;  231,590;13314,796;45,74499
 978,89; 6141,963;  194,667;13252,873;45,54451
 979,44; 6171,579;  216,744;13219,796;45,79567
 979,99; 6122,271;  206,129;13049,488;46,06382
 980,54; 6161,810;  236,513;12988,104;46,46711
 981,09; 6108,194;  238,437;12832,565;46,60710
 981,64; 6034,502;  231,360;12723,488;46,45439
 982,19; 6098,194;  253,667;12714,719;46,90236
 982,74; 5982,194;  233,667;12564,565;46,61888
 983,29; 5930,579;  209,052;12400,027;46,93248
 983,84; 5948,194;  228,513;12303,488;47,36805
 984,39; 5976,194;  277,437;12298,181;47,40769
 984,94; 5860,117;  198,129;12154,719;47,35454
 985,49; 5854,348;  248,667;12060,335;47,45884
 986,03; 5798,117;  239,206;11997,796;47,27532
 986,58; 5775,194;  271,360;11828,565;47,62254
 987,13; 5693,733;  228,898;11728,796;47,52072
 987,68; 5634,810;  239,437;11609,335;47,45313
 988,23; 5630,194;  231,821;11558,027;47,66268
 988,78; 5592,271;  215,283;11352,104;48,28118
 989,33; 5562,348;  235,898;11312,181;48,08879
 989,88; 5570,656;  261,975;11214,412;48,47032
 990,42; 5492,271;  220,667;11102,181;48,44550
 990,97; 5454,194;  220,283;10949,027;48,78401
 991,52; 5473,271;  248,975;10915,027;48,98060
 992,07; 5402,733;  256,667;10801,412;48,80218
 992,62; 5365,117;  241,052;10718,873;48,90392
 993,17; 5281,117;  244,590;10596,104;48,65498
 993,71; 5294,117;  236,744;10508,565;49,23541
 994,26; 5233,656;  220,667;10335,950;49,55856
 994,81; 5198,502;  246,129;10295,027;49,28275
 995,36; 5126,579;  235,052;10137,719;49,39605
 995,91; 5097,425;  228,821;10097,335;49,33472
 996,45; 5080,502;  232,513; 9939,719;49,94216
 997,00; 4989,887;  214,129; 9861,565;49,50287
 997,55; 5009,271;  235,513; 9794,335;49,94086
 998,10; 4953,194;  261,590; 9676,488;49,83170
 998,65; 4910,810;  223,975; 9595,027;50,01396
 999,19; 4892,656;  251,283; 9456,412;50,42160
 999,74; 4820,887;  278,975; 9402,104;49,78458
1000,29; 4778,271;  251,821; 9298,950;50,03189
1000,84; 4717,963;  231,744; 9158,950;50,25334
1001,38; 4670,502;  234,129; 9078,796;50,15873
1001,93; 4642,656;  242,437; 9040,335;50,01444
1002,48; 4569,887;  218,129; 8857,104;50,37354
1003,03; 4580,502;  236,052; 8843,104;50,47547
1003,57; 4503,425;  242,667; 8662,719;50,60251
1004,12; 4465,579;  267,052; 8632,565;50,18851
1004,67; 4428,502;  233,052; 8498,412;50,75944
1005,22; 4380,040;  223,437; 8366,565;51,04431
1005,76; 4293,271;  216,206; 8234,027;50,85004
1006,31; 4309,963;  247,283; 8191,796;51,13819
1006,86; 4238,656;  226,744; 8071,488;51,14139
1007,40; 4156,502;  218,590; 7946,335;50,95810
1007,95; 4174,117;  238,437; 7855,027;51,67248
1008,50; 4113,117;  234,360; 7722,488;51,79876
1009,04; 4082,733;  231,513; 7619,181;52,13038
1009,59; 4010,348;  247,744; 7518,027;51,75320
1010,14; 3952,425;  221,360; 7391,488;52,03624
1010,68; 3914,656;  234,283; 7255,873;52,41509
1011,23; 3859,887;  215,590; 7127,412;52,72556
1011,78; 3822,502;  240,129; 7102,796;52,20089
1012,32; 3778,117;  239,821; 7005,104;52,30079
1012,87; 3773,194;  259,206; 6943,412;52,57152
1013,42; 3707,810;  210,360; 6846,796;52,70072
1013,96; 3720,425;  261,360; 6832,565;52,63974
1014,51; 3630,425;  198,667; 6706,412;52,73344
1015,06; 3681,117;  190,360; 6751,488;53,20361
1015,60; 3734,348;  268,975; 6764,488;53,35026
1016,15; 3710,810;  215,052; 6756,335;53,44147
1016,69; 3728,963;  231,437; 6763,719;53,54219
1017,24; 3717,425;  196,283; 6787,796;53,41933
1017,79; 3834,194;  245,744; 6832,796;54,47733
1018,33; 3786,579;  220,821; 6814,104;54,08167
1018,88; 3854,810;  237,744; 6866,104;54,56954
1019,42; 3864,656;  221,437; 6870,104;54,79623
1019,97; 3838,963;  215,437; 6884,873;54,33033
1020,51; 3910,810;  248,206; 6918,335;54,91054
1021,06; 3857,040;  204,590; 6930,642;54,30303
1021,61; 3847,963;  187,898; 6853,258;54,91175
1022,15; 3847,348;  193,437; 6810,796;55,21706
1022,70; 3866,887;  225,206; 6826,950;55,16240
1023,24; 3826,963;  213,975; 6803,335;54,83065
1023,79; 3791,502;  222,898; 6735,258;54,79740
1024,33; 3792,887;  221,513; 6661,950;55,45234
1024,88; 3762,271;  233,437; 6588,873;55,52466
1025,42; 3714,271;  224,360; 6499,950;55,61089
1025,97; 3678,194;  212,898; 6359,719;56,37542
1026,51; 3596,040;  180,360; 6257,873;56,20194
1027,06; 3606,425;  212,129; 6224,027;56,45964
1027,60; 3539,656;  227,437; 6133,565;56,08105
1028,15; 3511,656;  232,052; 6013,565;56,72570
1028,69; 3434,810;  191,206; 5878,642;57,03103
1029,24; 3387,117;  211,129; 5852,181;56,30135
1029,78; 3332,656;  207,437; 5700,258;56,89643
1030,33; 3248,579;  193,360; 5620,796;56,29212
1030,87; 3239,733;  217,744; 5544,412;56,73319
1031,42; 3192,502;  199,513; 5511,565;56,34336
1031,96; 3182,117;  219,206; 5417,181;57,00127
1032,51; 3121,425;  208,898; 5315,412;57,03553
1033,05; 3077,194;  224,821; 5261,565;56,63129
1033,60; 2988,425;  180,590; 5120,796;56,83639
1034,14; 2983,348;  219,206; 5065,642;57,03453
1034,69; 2934,963;  212,898; 5014,873;56,68637
1035,23; 2865,348;  221,437; 4951,873;55,89149
1035,77; 2849,887;  215,590; 4875,335;56,53306
1036,32; 2790,502;  191,206; 4794,950;56,46048
1036,86; 2809,656;  214,667; 4770,719;56,95696
1037,41; 2763,425;  224,360; 4664,796;57,18054
1037,95; 2712,271;  185,513; 4588,642;57,38550
1038,50; 2706,733;  200,283; 4514,027;58,10382
1039,04; 2687,887;  232,667; 4480,642;57,79740
1039,58; 2619,348;  198,052; 4391,950;57,73379
1040,13; 2604,579;  209,821; 4376,412;57,47524
1040,67; 2614,271;  246,283; 4344,258;57,78436
1041,21; 2589,502;  239,975; 4268,412;58,32354
1041,76; 2512,271;  202,590; 4130,027;58,80886
1042,30; 2486,579;  205,360; 4121,488;58,25189
1042,85; 2442,810;  207,360; 4036,796;58,37543
1043,39; 2409,425;  202,052; 3977,719;58,46312
1043,93; 2396,963;  230,129; 3965,719;58,00514
1044,48; 2363,887;  225,744; 3904,335;58,12396
1045,02; 2349,963;  209,590; 3804,258;59,54301
1045,56; 2340,502;  238,744; 3770,642;59,50788
1046,11; 2287,656;  230,590; 3755,873;58,35179
1046,65; 2265,040;  220,206; 3681,719;59,07343
1047,19; 2217,117;  204,975; 3618,412;58,94770
1047,74; 2168,579;  194,667; 3528,873;59,20185
1048,28; 2171,887;  223,206; 3535,412;58,83332
1048,82; 2155,579;  244,744; 3506,181;58,58874
1049,37; 2103,271;  223,975; 3444,642;58,35114
1049,91; 2106,733;  217,821; 3417,335;59,03746
1050,45; 2082,502;  227,590; 3377,719;58,88367
1050,99; 2044,348;  216,744; 3306,873;59,14329
1051,54; 1991,271;  210,975; 3262,335;58,34436
1052,08; 1994,348;  234,590; 3226,796;58,81139
1052,62; 1943,194;  239,283; 3178,642;57,96880
1053,16; 1928,194;  217,437; 3109,335;59,15692
1053,71; 1911,117;  225,667; 3088,027;58,88324
1054,25; 1879,887;  234,129; 3042,104;58,61013
1054,79; 1870,887;  223,821; 2991,258;59,51592
1055,33; 1819,502;  194,975; 2892,873;60,21454
1055,88; 1820,579;  228,590; 2926,796;59,00174
1056,42; 1815,579;  236,821; 2891,027;59,48136
1056,96; 1781,656;  236,898; 2825,873;59,66677
1057,50; 1782,963;  228,129; 2797,796;60,50723
1058,05; 1751,194;  220,052; 2745,796;60,62143
1058,59; 1741,887;  232,590; 2715,719;60,78203
1059,13; 1694,502;  206,206; 2624,642;61,53960
1059,67; 1675,733;  222,052; 2633,719;60,27700
1060,21; 1646,579;  227,437; 2581,181;60,29297
1060,76; 1633,425;  236,667; 2548,950;60,40601
1061,30; 1639,656;  250,513; 2537,565;60,73943
1061,84; 1598,117;  233,513; 2464,181;61,17469
1062,38; 1556,656;  214,821; 2407,796;61,18787
1062,92; 1586,963;  259,513; 2438,796;60,91224
1063,46; 1541,656;  238,206; 2377,873;60,91835
1064,01; 1510,963;  223,590; 2308,719;61,74070
1064,55; 1506,425;  229,437; 2278,181;62,33030
1065,09; 1445,887;  196,744; 2234,027;61,31414
1065,63; 1490,502;  258,898; 2275,642;61,06892
1066,17; 1475,963;  254,975; 2250,642;61,18196
1066,71; 1454,733;  246,667; 2217,719;61,29039
1067,25; 1419,656;  230,206; 2156,488;61,74847
1067,80; 1409,348;  243,360; 2149,719;61,16309
1068,34; 1424,733;  260,052; 2148,950;61,65927
1068,88; 1356,040;  225,283; 2081,258;60,92527
1069,42; 1371,502;  254,437; 2088,181;60,91719
1069,96; 1337,656;  238,590; 2014,565;61,88518
1070,50; 1354,887;  254,898; 2044,258;61,47386
1071,04; 1313,579;  217,898; 1960,027;62,89321
1071,58; 1277,194;  223,667; 1952,335;60,94446
1072,12; 1291,963;  229,283; 1930,642;62,46068
1072,66; 1270,194;  229,052; 1914,104;61,78696
1073,21; 1287,810;  240,744; 1917,950;62,42915
1073,75; 1257,579;  245,437; 1871,565;62,24244
1074,29; 1244,348;  234,283; 1851,258;62,46636
1074,83; 1233,502;  257,283; 1843,642;61,53833
1075,37; 1227,579;  249,129; 1828,412;61,95534
1075,91; 1217,117;  242,744; 1790,104;62,97005
1076,45; 1211,810;  235,590; 1773,950;63,45845
1076,99; 1189,502;  249,898; 1745,335;62,83141
1077,53; 1173,579;  220,052; 1713,488;63,84784
1078,07; 1183,271;  228,437; 1713,950;64,27640
1078,61; 1139,194;  234,360; 1670,258;63,01524
1079,15; 1126,887;  238,206; 1639,412;63,42257
1079,69; 1107,579;  225,744; 1633,027;62,66222
1080,23; 1120,963;  254,129; 1633,796;62,82925
1080,77; 1127,502;  267,052; 1646,104;62,39431
1081,31; 1097,271;  225,821; 1581,642;64,27470
1081,85; 1094,040;  249,283; 1560,950;64,40335
1082,39; 1060,887;  227,437; 1537,719;63,60841
1082,93; 1055,502;  246,975; 1544,412;62,31726
1083,47; 1031,579;  230,590; 1494,335;63,38217
1084,01; 1034,810;  247,590; 1503,719;62,67026
1084,55; 1005,425;  227,590; 1449,104;63,67794
1085,09; 1018,656;  252,744; 1463,412;63,26358
1085,63; 1013,348;  239,206; 1461,027;63,35971
1086,17;  984,810;  228,129; 1410,642;63,98919
1086,71;  975,271;  225,590; 1403,950;63,62071
1087,24;  992,963;  251,821; 1425,873;63,12688
1087,78;  974,963;  247,513; 1391,873;63,56830
1088,32;  941,579;  229,052; 1347,181;63,72494
1088,86;  964,733;  251,975; 1361,796;64,22275
1089,40;  936,040;  245,744; 1326,104;63,89503
1089,94;  917,810;  219,129; 1296,719;64,83732
1090,48;  922,656;  254,744; 1307,642;63,43554
1091,02;  910,117;  249,667; 1296,796;63,07247
1091,56;  906,502;  248,667; 1270,873;64,35442
1092,10;  881,348;  225,744; 1243,796;64,39788
1092,63;  907,425;  262,821; 1270,335;63,97968
1093,17;  876,502;  257,744; 1241,488;62,89823
1093,71;  854,040;  228,052; 1212,488;63,58850
1094,25;  880,656;  260,821; 1198,642;66,09305
1094,79;  855,810;  236,206; 1177,181;65,84700
1095,33;  854,502;  235,744; 1167,642;66,39757
1095,87;  846,579;  229,667; 1172,104;65,45921
1096,40;  817,502;  218,437; 1133,258;65,48443
1096,94;  833,425;  242,437; 1127,027;66,80928
1097,48;  820,733;  245,283; 1121,258;65,69251
1098,02;  796,194;  233,129; 1089,796;65,72743
1098,56;  766,502;  203,437; 1066,027;65,27610
1099,10;  774,271;  219,206; 1061,412;65,90615
1099,63;  783,117;  203,821; 1055,335;68,03136
1100,17;  779,271;  247,744; 1059,642;65,46720
1100,71;  792,579;  261,667; 1069,719;65,70265

