
Integration time [ms]: 120,000
Averaging Nr. [scans]: 13
Smoothing Nr. [pixels]: 0
Data measured with spectrometer [name]: 2009305U1
Wave   ;Sample   ;Dark     ;Reference;Reflectance
[nm]   ;[counts] ;[counts] ;[counts] ;[%]

 175,72;  198,971;  202,673;  202,814; 0,00000
 176,32;  223,040;  225,431;  219,229; 0,00000
 176,92;  254,884;  241,593;  259,926;72,50009
 177,52;  260,925;  251,671;  258,560;134,33062
 178,12;  238,837;  228,123;  221,690; 0,00000
 178,72;  254,531;  262,428;  250,906; 0,00000
 179,32;  252,639;  256,969;  246,180; 0,00000
 179,92;  249,320;  244,743;  247,528;164,34652
 180,52;  247,621;  240,295;  251,040;68,18464
 181,12;  264,804;  250,513;  250,351; 0,00000
 181,73;  264,833;  264,591;  277,112; 1,93260
 182,33;  347,297;  344,982;  351,462;35,71850
 182,93;  271,628;  260,594;  266,980;172,79042
 183,53;  239,282;  240,272;  226,189; 0,00000
 184,13;  233,943;  234,428;  232,913; 0,00000
 184,73;  274,302;  272,348;  270,276; 0,00000
 185,33;  251,805;  227,895;  345,845;20,27081
 185,93;  266,322;  241,810;  363,162;20,19930
 186,53;  283,679;  245,969;  383,769;27,36630
 187,13;  308,349;  274,977;  418,310;23,28269
 187,73;  274,648;  236,042;  378,887;27,02640
 188,33;  272,917;  240,114;  373,931;24,51326
 188,93;  275,372;  258,330;  373,870;14,74994
 189,53;  286,420;  257,396;  374,368;24,81235
 190,13;  314,557;  277,224;  424,265;25,38979
 190,73;  257,391;  216,698;  365,464;27,35358
 191,34;  293,005;  258,249;  403,767;23,88412
 191,94;  267,115;  218,263;  371,997;31,77665
 192,54;  278,753;  243,523;  387,787;24,42053
 193,14;  289,541;  247,900;  396,592;28,00475
 193,74;  285,665;  257,129;  400,532;19,89927
 194,34;  274,906;  240,671;  386,728;23,43926
 194,94;  253,705;  220,361;  356,781;24,44227
 195,54;  233,893;  204,742;  327,334;23,77907
 196,14;  255,007;  227,827;  378,689;18,01645
 196,74;  238,836;  222,971;  359,044;11,65923
 197,34;  227,486;  197,063;  371,027;17,48788
 197,94;  256,525;  228,132;  384,373;18,17303
 198,54;  269,067;  235,596;  395,794;20,89366
 199,14;  246,341;  219,374;  388,308;15,96311
 199,74;  244,638;  202,220;  401,273;21,30981
 200,34;  238,331;  196,990;  393,795;21,00613
 200,94;  262,001;  228,446;  426,289;16,96011
 201,54;  254,268;  204,218;  443,961;20,87624
 202,14;  276,845;  229,608;  481,986;18,71679
 202,74;  252,994;  219,912;  475,274;12,95516
 203,34;  242,152;  188,920;  492,839;17,51526
 203,94;  226,253;  167,224;  499,348;17,77301
 204,54;  294,960;  245,363;  589,973;14,39227
 205,14;  261,017;  199,220;  600,798;15,38851
 205,74;  311,789;  236,688;  696,371;16,33743
 206,34;  267,532;  209,069;  707,819;11,72178
 206,94;  294,541;  215,837;  774,562;14,08632
 207,54;  269,119;  180,146;  806,666;14,20118
 208,14;  301,104;  214,378;  884,062;12,95030
 208,74;  306,912;  211,373;  951,337;12,91124
 209,34;  312,418;  194,759; 1045,915;13,82350
 209,94;  332,116;  216,528; 1149,937;12,38343
 210,54;  334,188;  213,302; 1239,675;11,77796
 211,14;  343,214;  218,374; 1375,700;10,78700
 211,73;  378,679;  201,448; 1478,977;13,87292
 212,33;  389,396;  217,908; 1586,632;12,52907
 212,93;  386,241;  205,834; 1714,331;11,95937
 213,53;  370,286;  178,220; 1776,071;12,02027
 214,13;  408,435;  200,076; 1832,252;12,76572
 214,73;  384,230;  190,377; 1872,755;11,52253
 215,33;  384,500;  173,143; 1893,014;12,28914
 215,93;  428,931;  201,842; 2020,959;12,48349
 216,53;  409,092;  158,603; 2108,122;12,84876
 217,13;  490,545;  216,302; 2311,821;13,08711
 217,73;  511,833;  194,611; 2514,042;13,67668
 218,33;  505,942;  147,770; 2710,446;13,97650
 218,93;  579,744;  176,163; 3006,310;14,26006
 219,53;  634,239;  183,770; 3305,411;14,43053
 220,13;  660,384;  156,541; 3596,351;14,64741
 220,73;  722,094;  191,836; 3941,482;14,14156
 221,32;  797,527;  182,912; 4363,260;14,70249
 221,92;  871,015;  190,848; 4775,100;14,83704
 222,52;  933,630;  174,227; 5205,811;15,09272
 223,12; 1022,597;  171,612; 5659,397;15,50690
 223,72; 1101,971;  195,843; 6067,054;15,43341
 224,32; 1157,818;  201,998; 6450,584;15,29658
 224,92; 1213,323;  183,767; 6756,102;15,66500
 225,52; 1282,223;  200,684; 7072,450;15,73888
 226,12; 1311,001;  193,225; 7427,116;15,45193
 226,72; 1339,368;  164,840; 7739,306;15,50642
 227,31; 1393,566;  160,994; 8128,208;15,47056
 227,91; 1492,722;  178,452; 8522,116;15,75171
 228,51; 1546,485;  181,909; 8913,420;15,62818
 229,11; 1631,264;  182,301; 9324,768;15,84870
 229,71; 1634,988;  175,219; 9553,884;15,56479
 230,31; 1707,007;  170,000;10006,581;15,62542
 230,91; 1738,487;  162,060;10330,474;15,50318
 231,51; 1796,338;  162,304;10694,483;15,51468
 232,10; 1862,206;  171,616;11055,467;15,53301
 232,70; 1916,213;  189,671;11322,958;15,50793
 233,30; 1971,656;  200,534;11530,911;15,63163
 233,90; 1968,238;  179,764;11686,583;15,54273
 234,50; 1966,860;  181,534;11918,588;15,21102
 235,10; 1988,477;  166,536;11994,333;15,40389
 235,70; 2047,639;  187,221;12088,487;15,63210
 236,29; 1985,224;  187,988;12111,897;15,07254
 236,89; 1957,043;  166,599;12029,823;15,09239
 237,49; 1969,831;  197,687;11971,528;15,05154
 238,09; 1885,070;  176,993;11716,511;14,80198
 238,69; 1900,842;  218,442;11547,115;14,85081
 239,29; 1801,432;  172,223;11220,918;14,74572
 239,89; 1763,615;  193,907;10971,228;14,56492
 240,48; 1671,576;  176,531;10591,259;14,35510
 241,08; 1614,739;  175,145;10224,619;14,32507
 241,68; 1556,373;  196,993; 9925,720;13,97284
 242,28; 1474,782;  168,918; 9604,373;13,83997
 242,88; 1464,502;  214,538; 9311,832;13,73995
 243,48; 1383,918;  207,533; 8999,871;13,37967
 244,07; 1337,304;  190,298; 8722,403;13,44341
 244,67; 1298,159;  200,070; 8626,684;13,03120
 245,27; 1267,525;  198,602; 8464,284;12,93206
 245,87; 1260,017;  202,768; 8392,547;12,90937
 246,47; 1225,481;  190,295; 8414,382;12,58725
 247,06; 1192,954;  179,146; 8363,177;12,38764
 247,66; 1208,532;  176,685; 8450,657;12,47100
 248,26; 1239,872;  217,295; 8599,618;12,19921
 248,86; 1248,767;  200,757; 8748,312;12,26094
 249,46; 1283,657;  157,457; 8985,134;12,75759
 250,05; 1336,059;  203,377; 9328,022;12,41344
 250,65; 1339,118;  168,832; 9752,153;12,21169
 251,25; 1437,392;  174,760;10184,430;12,61413
 251,85; 1506,103;  191,137;10734,774;12,47166
 252,44; 1566,109;  155,835;11399,855;12,54244
 253,04; 1693,017;  197,451;12181,097;12,48006
 253,64; 1778,924;  155,678;12806,281;12,83138
 254,24; 1960,531;  195,146;13819,981;12,95711
 254,84; 2091,041;  170,996;14760,980;13,16002
 255,43; 2225,181;  175,527;15673,602;13,22522
 256,03; 2377,969;  178,063;16632,867;13,36938
 256,63; 2558,164;  183,214;17740,187;13,52710
 257,23; 2697,159;  177,907;18504,473;13,74645
 257,82; 2892,478;  190,672;19507,424;13,98686
 258,42; 3018,712;  145,747;20302,163;14,25335
 259,02; 3209,088;  190,682;21198,699;14,36788
 259,62; 3345,755;  173,669;21930,235;14,57990
 260,21; 3505,203;  179,989;22397,750;14,96647
 260,81; 3625,792;  187,994;22933,955;15,11388
 261,41; 3719,796;  162,594;23400,776;15,30757
 262,01; 3848,077;  205,975;23824,308;15,42066
 262,60; 3916,236;  158,984;24167,088;15,64993
 263,20; 4049,212;  164,756;24460,117;15,98847
 263,80; 4116,764;  201,359;24601,526;16,04663
 264,40; 4188,408;  163,976;24723,670;16,38633
 264,99; 4269,488;  187,974;24932,785;16,49442
 265,59; 4327,899;  179,353;25036,733;16,68939
 266,19; 4380,753;  165,821;25188,490;16,84445
 266,78; 4464,480;  212,895;25312,266;16,93901
 267,38; 4492,164;  186,739;25277,200;17,15961
 267,98; 4485,997;  172,049;25385,041;17,11002
 268,58; 4583,593;  188,354;25331,948;17,48055
 269,17; 4600,901;  171,427;25344,257;17,59625
 269,77; 4614,371;  191,520;25145,525;17,72401
 270,37; 4593,406;  163,205;25022,926;17,82080
 270,96; 4605,077;  215,441;24936,068;17,75698
 271,56; 4594,131;  174,753;24681,858;18,03305
 272,16; 4575,922;  178,979;24415,776;18,14160
 272,75; 4547,532;  177,210;24341,755;18,08568
 273,35; 4590,908;  187,057;24250,780;18,30079
 273,95; 4631,906;  186,287;24241,027;18,48126
 274,54; 4661,976;  175,300;24275,778;18,61655
 275,14; 4766,177;  200,519;24642,891;18,67928
 275,74; 4721,664;  153,825;24701,154;18,60829
 276,33; 4878,398;  213,136;25015,994;18,80938
 276,93; 4939,010;  195,455;25489,552;18,75361
 277,53; 5051,598;  185,065;26006,631;18,84678
 278,12; 5130,209;  172,215;26618,996;18,74706
 278,72; 5359,076;  216,219;27075,304;19,14755
 279,32; 5443,938;  186,064;27665,976;19,13352
 279,91; 5642,134;  164,832;28374,510;19,41639
 280,51; 5755,252;  172,373;28907,973;19,42844
 281,11; 5966,486;  183,525;29638,489;19,63323
 281,70; 6074,375;  165,370;30074,476;19,75654
 282,30; 6287,515;  181,214;30776,550;19,95827
 282,90; 6368,927;  178,752;31071,250;20,03779
 283,49; 6542,358;  191,519;31703,206;20,15392
 284,09; 6735,825;  213,908;32174,372;20,40620
 284,69; 6890,976;  201,602;32551,480;20,67820
 285,28; 7077,297;  201,523;32877,715;21,04215
 285,88; 7240,411;  235,209;33144,707;21,28626
 286,47; 7291,938;  184,368;33220,054;21,51483
 287,07; 7436,333;  209,679;33248,088;21,87349
 287,67; 7596,765;  204,456;33355,794;22,29867
 288,26; 7662,542;  172,448;33241,410;22,64992
 288,86; 7825,798;  179,754;33428,826;22,99626
 289,46; 8082,805;  192,063;33471,747;23,71039
 290,05; 8220,788;  174,837;33601,850;24,07021
 290,65; 8443,981;  180,521;33802,888;24,57727
 291,24; 8720,026;  188,988;33879,003;25,32216
 291,84; 9003,702;  206,368;34112,571;25,94609
 292,44; 9157,260;  191,072;34235,115;26,33702
 293,03; 9401,702;  241,449;34378,031;26,83412
 293,63; 9595,971;  179,598;34411,921;27,50726
 294,22; 9792,887;  205,832;34641,153;27,84076
 294,82; 9921,754;  186,438;34577,243;28,30790
 295,41;10012,298;  169,832;34333,169;28,81003
 296,01;10089,608;  219,286;34338,309;28,92909
 296,61;10106,867;  198,218;34063,374;29,25912
 297,20;10045,207;  189,978;33632,022;29,46958
 297,80;10098,190;  203,223;33573,652;29,65190
 298,39; 9975,719;  174,983;33088,159;29,77754
 298,99; 9977,572;  220,749;32950,935;29,80986
 299,58; 9969,093;  203,609;32750,873;30,00401
 300,18; 9922,090;  204,683;32613,290;29,98403
 300,78; 9762,753;  186,527;32260,315;29,85686
 301,37; 9820,647;  187,512;32215,892;30,07687
 301,97; 9734,079;  196,140;32287,880;29,72085
 302,56; 9775,602;  183,983;32152,209;30,00360
 303,16; 9682,705;  173,212;32088,694;29,79586
 303,75; 9690,331;  183,605;32134,495;29,75418
 304,35; 9690,438;  179,766;32333,153;29,57907
 304,94; 9672,118;  186,064;32333,222;29,50822
 305,54; 9629,912;  204,604;32260,260;29,40295
 306,13; 9589,894;  168,074;32186,516;29,42623
 306,73; 9439,133;  162,995;32020,506;29,11759
 307,33; 9456,061;  202,378;31912,690;29,18193
 307,92; 9395,966;  194,757;32025,129;28,90701
 308,52; 9425,864;  158,596;32481,024;28,67132
 309,11; 9521,684;  179,977;32994,471;28,46823
 309,71; 9604,247;  160,590;33237,434;28,55066
 310,30; 9628,586;  174,218;33455,381;28,40756
 310,90; 9685,355;  210,295;33790,920;28,21585
 311,49; 9647,943;  182,833;33948,536;28,03173
 312,09; 9583,200;  159,914;34164,542;27,71178
 312,68; 9691,516;  230,450;34592,532;27,53345
 313,28; 9633,120;  166,988;34646,206;27,45460
 313,87; 9622,608;  156,910;34788,836;27,33229
 314,47; 9592,455;  172,902;35029,917;27,02341
 315,06; 9547,433;  163,065;35299,219;26,70858
 315,66; 9504,893;  164,914;35459,619;26,46283
 316,25; 9380,041;  156,982;35359,386;26,20008
 316,85; 9286,668;  158,914;35417,171;25,88827
 317,44; 9257,850;  178,747;35551,114;25,66722
 318,04; 9155,576;  157,214;35579,271;25,40327
 318,63; 9064,227;  155,072;35726,555;25,04578
 319,22; 9020,591;  181,905;35905,413;24,74193
 319,82; 8961,967;  167,754;35877,499;24,62693
 320,41; 8831,278;  187,829;35789,622;24,27813
 321,01; 8759,876;  194,144;35985,116;23,93266
 321,60; 8643,699;  183,216;36034,226;23,59901
 322,20; 8518,851;  171,834;36012,471;23,28925
 322,79; 8448,911;  204,065;36081,114;22,98084
 323,39; 8361,712;  165,535;36264,448;22,70478
 323,98; 8199,912;  162,373;36174,645;22,31889
 324,58; 8142,496;  169,212;36082,534;22,20147
 325,17; 8025,404;  180,674;35980,084;21,91301
 325,76; 7919,893;  196,525;35776,620;21,70699
 326,36; 7705,518;  163,298;35371,970;21,42148
 326,95; 7552,232;  198,754;35069,435;21,08785
 327,55; 7352,099;  161,138;34641,898;20,85500
 328,14; 7198,021;  174,762;34387,672;20,52810
 328,74; 7074,152;  192,213;33867,091;20,43642
 329,33; 6900,958;  190,298;33500,292;20,14608
 329,92; 6680,492;  162,978;33018,813;19,83670
 330,52; 6540,571;  185,147;32312,238;19,78213
 331,11; 6359,638;  168,446;31877,121;19,52523
 331,71; 6157,980;  182,371;31285,125;19,21248
 332,30; 5990,964;  205,371;30798,837;18,91121
 332,89; 5871,622;  233,836;30230,908;18,79445
 333,49; 5634,941;  194,370;29681,099;18,45091
 334,08; 5507,852;  181,061;29290,311;18,29931
 334,68; 5368,132;  180,908;28844,380;18,09699
 335,27; 5257,506;  199,148;28509,180;17,86772
 335,86; 5140,330;  240,446;28279,505;17,47521
 336,46; 5037,852;  197,917;27999,599;17,40879
 337,05; 4951,528;  182,908;27786,484;17,27537
 337,65; 4838,533;  165,677;27644,737;17,00515
 338,24; 4897,631;  223,681;27624,652;17,05761
 338,83; 4792,192;  197,758;27574,945;16,78198
 339,43; 4697,464;  171,674;27464,343;16,58244
 340,02; 4636,200;  179,828;27356,946;16,39752
 340,61; 4643,032;  174,680;27473,017;16,36859
 341,21; 4622,306;  205,367;27452,091;16,21090
 341,80; 4567,203;  178,753;27378,828;16,13396
 342,40; 4525,747;  184,455;27491,454;15,89809
 342,99; 4525,699;  182,451;27617,523;15,83100
 343,58; 4539,035;  183,298;27786,907;15,77959
 344,18; 4520,865;  195,298;27881,312;15,62365
 344,77; 4538,612;  176,058;28227,568;15,55194
 345,36; 4526,386;  168,447;28489,512;15,38762
 345,96; 4608,606;  195,298;28794,851;15,43139
 346,55; 4583,366;  166,843;29047,867;15,29213
 347,14; 4614,719;  165,455;29447,062;15,19474
 347,74; 4641,191;  151,771;29812,017;15,13615
 348,33; 4763,844;  171,462;30503,914;15,14016
 348,92; 4865,595;  191,928;31151,410;15,09608
 349,52; 4878,901;  155,541;31617,050;15,01314
 350,11; 4955,320;  183,519;31846,779;15,07047
 350,70; 4929,059;  180,680;31873,408;14,98255
 351,29; 4849,831;  155,818;31621,476;14,91789
 351,89; 4875,283;  185,362;31699,576;14,88192
 352,48; 4839,933;  158,680;31723,262;14,83071
 353,07; 4845,451;  175,148;31659,396;14,83378
 353,67; 4850,288;  186,851;31579,556;14,85516
 354,26; 4815,582;  189,455;31300,726;14,86962
 354,85; 4800,333;  179,607;31184,856;14,90304
 355,45; 4747,571;  158,753;31068,172;14,84602
 356,04; 4774,281;  171,610;30902,801;14,97720
 356,63; 4744,655;  197,062;30688,623;14,91427
 357,22; 4707,971;  185,820;30543,010;14,89648
 357,82; 4731,347;  191,976;30352,412;15,05075
 358,41; 4691,684;  202,294;30250,845;14,94045
 359,00; 4655,327;  168,982;29995,238;15,04160
 359,60; 4661,769;  188,065;30018,757;14,99698
 360,19; 4661,562;  182,611;29786,862;15,12942
 360,78; 4693,039;  194,523;29616,870;15,28945
 361,37; 4631,566;  178,985;29418,142;15,22815
 361,97; 4668,486;  196,986;29340,258;15,34316
 362,56; 4645,699;  175,365;29036,458;15,48914
 363,15; 4679,582;  220,907;28797,122;15,60275
 363,74; 4613,845;  188,056;28358,776;15,71060
 364,34; 4559,014;  197,905;28033,378;15,66745
 364,93; 4512,374;  172,211;27588,802;15,83043
 365,52; 4468,561;  153,908;27112,428;16,00479
 366,11; 4468,498;  173,982;26848,518;16,09968
 366,71; 4424,899;  170,598;26452,336;16,18729
 367,30; 4412,968;  172,370;26109,029;16,34982
 367,89; 4426,635;  227,607;25897,457;16,35782
 368,48; 4413,747;  186,594;25524,475;16,68313
 369,07; 4342,367;  179,603;25048,562;16,73879
 369,67; 4336,736;  197,980;24801,124;16,82206
 370,26; 4323,345;  178,219;24544,953;17,01142
 370,85; 4305,314;  183,216;24214,610;17,15297
 371,44; 4262,463;  179,601;23966,503;17,16433
 372,03; 4267,953;  168,751;23732,350;17,39633
 372,63; 4240,007;  156,293;23380,987;17,58350
 373,22; 4237,262;  176,834;23073,486;17,73372
 373,81; 4174,682;  157,139;22784,407;17,75532
 374,40; 4198,114;  177,916;22525,182;17,98967
 374,99; 4198,961;  172,445;22297,340;18,19903
 375,59; 4174,899;  164,453;22014,855;18,35411
 376,18; 4253,418;  194,753;21910,702;18,68978
 376,77; 4209,816;  189,140;21655,398;18,73021
 377,36; 4236,187;  198,292;21627,694;18,84278
 377,95; 4210,800;  193,213;21311,650;19,02407
 378,55; 4209,183;  166,683;21149,809;19,26548
 379,14; 4251,709;  196,908;21141,953;19,35924
 379,73; 4196,702;  184,137;20977,656;19,29719
 380,32; 4285,964;  192,832;20964,307;19,70554
 380,91; 4296,852;  164,133;20836,090;19,99191
 381,50; 4337,765;  190,981;20822,730;20,09904
 382,10; 4340,118;  169,601;20675,846;20,33779
 382,69; 4376,198;  156,908;20648,499;20,59035
 383,28; 4425,140;  201,674;20597,764;20,70723
 383,87; 4420,030;  171,981;20438,512;20,96090
 384,46; 4421,111;  168,284;20395,775;21,02499
 385,05; 4492,441;  201,058;20345,605;21,30295
 385,64; 4517,882;  173,290;20372,133;21,50911
 386,24; 4514,518;  160,207;20337,384;21,58038
 386,83; 4632,357;  204,283;20341,147;21,98989
 387,42; 4700,630;  197,982;20443,755;22,23994
 388,01; 4773,165;  187,663;20722,576;22,33027
 388,60; 4881,502;  185,669;20944,242;22,62118
 389,19; 4941,746;  171,195;21150,735;22,73906
 389,78; 5032,879;  177,043;21370,802;22,91163
 390,37; 5251,399;  234,666;21847,997;23,21129
 390,96; 5254,017;  180,052;22023,426;23,22885
 391,56; 5385,980;  184,039;22139,320;23,69335
 392,15; 5445,342;  169,582;22411,555;23,71984
 392,74; 5530,333;  150,800;22583,063;23,98123
 393,33; 5680,940;  174,192;22846,524;24,28841
 393,92; 5804,015;  192,027;23328,953;24,25555
 394,51; 5895,671;  174,577;23483,413;24,54474
 395,10; 6022,259;  210,938;23741,130;24,69729
 395,69; 6066,404;  191,709;23890,302;24,78921
 396,28; 6152,869;  189,164;24005,657;25,04023
 396,87; 6207,620;  197,000;24049,721;25,19889
 397,46; 6299,815;  196,915;24168,127;25,45929
 398,06; 6421,788;  211,983;24401,439;25,67153
 398,65; 6457,697;  191,424;24435,851;25,84624
 399,24; 6558,830;  197,112;24662,782;26,00263
 399,83; 6579,539;  175,619;24707,790;26,10417
 400,42; 6739,550;  214,283;24793,714;26,54767
 401,01; 6758,374;  189,019;24914,542;26,56913
 401,60; 6797,965;  199,975;24900,798;26,71162
 402,19; 6860,029;  220,863;24849,078;26,95756
 402,78; 6929,349;  222,501;24901,088;27,17679
 403,37; 6907,119;  204,834;24741,548;27,31533
 403,96; 6940,625;  203,697;24609,990;27,60324
 404,55; 6876,238;  211,322;24417,879;27,53352
 405,14; 6940,541;  194,415;24293,260;27,99356
 405,73; 6959,682;  207,883;24275,116;28,05391
 406,32; 6980,653;  205,219;24131,352;28,31813
 406,91; 6901,736;  198,856;23904,980;28,27489
 407,50; 6921,560;  207,674;23733,268;28,53865
 408,09; 6860,850;  183,730;23420,189;28,73553
 408,68; 6856,767;  192,793;23255,197;28,89540
 409,27; 6837,245;  185,273;23146,454;28,97051
 409,86; 6874,378;  197,701;22960,388;29,33167
 410,45; 6938,767;  238,122;22919,365;29,54267
 411,04; 6910,212;  238,082;22843,339;29,51583
 411,63; 6847,439;  211,592;22600,535;29,63895
 412,22; 6790,491;  218,021;22288,056;29,78006
 412,81; 6805,173;  223,652;22056,752;30,14470
 413,40; 6727,186;  235,979;21728,740;30,20183
 413,99; 6728,442;  260,589;21397,851;30,59930
 414,58; 6601,848;  202,285;21003,304;30,76562
 415,17; 6524,086;  218,036;20759,640;30,69891
 415,76; 6502,214;  210,789;20711,639;30,68861
 416,35; 6460,631;  191,259;20454,580;30,93951
 416,94; 6531,537;  230,023;20514,156;31,06622
 417,53; 6629,631;  201,576;20800,791;31,20534
 418,12; 6649,345;  201,580;20827,937;31,25983
 418,71; 6804,494;  220,980;21186,040;31,40232
 419,30; 6881,913;  211,736;21228,228;31,73782
 419,89; 6878,889;  194,893;21434,172;31,46998
 420,48; 7113,038;  237,442;21733,900;31,98479
 421,07; 7139,273;  215,368;21822,005;32,04527
 421,66; 7122,674;  188,454;21846,735;32,01648
 422,25; 7177,810;  208,395;21852,910;32,19945
 422,84; 7215,067;  225,783;21737,539;32,49053
 423,43; 7139,668;  215,391;21508,323;32,51913
 424,02; 7087,672;  233,317;21253,813;32,60796
 424,60; 6961,158;  215,646;20826,513;32,72794
 425,19; 6907,513;  213,481;20615,233;32,81107
 425,78; 6886,515;  234,251;20400,833;32,98657
 426,37; 6877,221;  238,797;20253,664;33,16747
 426,96; 6891,441;  222,105;20170,398;33,43312
 427,55; 6880,576;  211,732;20039,514;33,63384
 428,14; 6767,093;  203,353;19811,972;33,47375
 428,73; 6742,768;  204,266;19667,866;33,59349
 429,32; 6785,434;  222,719;19620,862;33,83167
 429,91; 6830,769;  242,190;19615,704;34,00818
 430,50; 6810,342;  231,888;19457,006;34,21802
 431,08; 6742,344;  221,587;19289,596;34,19737
 431,67; 6757,504;  259,438;19255,284;34,20783
 432,26; 6679,901;  261,905;19013,763;34,22592
 432,85; 6621,591;  275,980;18644,633;34,54587
 433,44; 6509,573;  279,142;18309,281;34,55564
 434,03; 6396,712;  303,076;17873,504;34,68120
 434,62; 6250,898;  254,220;17499,553;34,77276
 435,21; 6203,372;  270,981;17245,806;34,94817
 435,79; 6151,674;  249,226;17166,079;34,89093
 436,38; 6162,698;  252,083;16985,729;35,32174
 436,97; 6102,463;  247,930;16873,153;35,21476
 437,56; 6069,207;  255,023;16748,946;35,25046
 438,15; 6021,982;  235,558;16658,115;35,23461
 438,74; 6034,413;  265,790;16633,993;35,24286
 439,33; 6066,537;  241,711;16658,018;35,48195
 439,91; 6085,924;  221,026;16713,130;35,56186
 440,50; 6130,760;  271,565;16805,548;35,43729
 441,09; 6162,430;  262,189;16895,628;35,47216
 441,68; 6199,479;  241,660;16963,225;35,62956
 442,27; 6170,030;  233,887;16851,869;35,72120
 442,86; 6145,581;  203,599;16819,088;35,76170
 443,44; 6217,158;  227,595;16931,893;35,85642
 444,03; 6282,669;  271,446;16995,269;35,94407
 444,62; 6169,114;  226,600;16879,912;35,68368
 445,21; 6149,584;  245,366;16666,519;35,95495
 445,80; 6141,064;  265,147;16604,455;35,96185
 446,39; 6029,364;  268,760;16364,850;35,78884
 446,97; 5929,499;  227,772;16116,035;35,88641
 447,56; 5875,576;  218,705;15890,562;36,09573
 448,15; 5849,263;  228,618;15759,022;36,19123
 448,74; 5763,819;  257,389;15456,208;36,22933
 449,33; 5712,343;  235,088;15347,125;36,24432
 449,91; 5626,603;  238,175;15103,327;36,24872
 450,50; 5552,095;  230,558;14860,535;36,37420
 451,09; 5536,855;  234,097;14801,560;36,40138
 451,68; 5510,041;  259,410;14724,733;36,29806
 452,26; 5525,821;  251,953;14609,451;36,73250
 452,85; 5450,955;  230,104;14421,058;36,79000
 453,44; 5487,115;  243,810;14491,666;36,80066
 454,03; 5440,078;  217,417;14426,473;36,75586
 454,61; 5474,990;  230,811;14415,041;36,97189
 455,20; 5549,034;  245,893;14580,549;36,99524
 455,79; 5583,529;  254,961;14556,496;37,25871
 456,38; 5629,609;  252,439;14684,904;37,25746
 456,97; 5614,634;  237,283;14765,098;37,01417
 457,55; 5639,437;  240,597;14742,400;37,22875
 458,14; 5661,011;  249,512;14730,724;37,36910
 458,73; 5638,928;  247,136;14630,007;37,48759
 459,31; 5658,345;  265,453;14709,332;37,33687
 459,90; 5684,317;  278,294;14787,950;37,25811
 460,49; 5757,748;  316,676;14902,291;37,30437
 461,08; 5726,267;  239,457;14907,869;37,40562
 461,66; 5781,487;  248,298;15049,536;37,38328
 462,25; 5856,255;  251,999;15121,148;37,69050
 462,84; 5841,373;  277,304;15109,398;37,51371
 463,43; 5781,745;  215,394;15085,289;37,43369
 464,01; 5806,772;  248,782;15117,756;37,37978
 464,60; 5818,312;  291,775;15077,974;37,37632
 465,19; 5708,813;  228,247;14843,912;37,49789
 465,77; 5682,516;  248,251;14804,322;37,33332
 466,36; 5622,300;  262,163;14688,107;37,15623
 466,95; 5528,839;  245,856;14414,014;37,28772
 467,53; 5416,775;  250,795;14096,619;37,31075
 468,12; 5309,090;  284,642;13785,386;37,21608
 468,71; 5227,875;  249,478;13594,462;37,30537
 469,29; 5091,817;  227,721;13304,237;37,19719
 469,88; 5015,942;  237,801;13053,236;37,28427
 470,47; 5082,616;  300,502;13186,269;37,11160
 471,06; 5044,875;  263,195;13153,729;37,09451
 471,64; 5057,378;  248,577;13220,818;37,06993
 472,23; 5075,699;  221,439;13272,338;37,19483
 472,81; 5111,943;  220,431;13340,822;37,28175
 473,40; 5161,216;  234,747;13485,729;37,17814
 473,99; 5309,403;  335,209;13697,135;37,22663
 474,57; 5261,188;  245,516;13793,499;37,02154
 475,16; 5332,560;  253,433;13941,336;37,10669
 475,75; 5415,300;  273,676;14125,956;37,11753
 476,33; 5431,868;  271,682;14198,006;37,05346
 476,92; 5439,426;  275,979;14259,027;36,92648
 477,51; 5456,293;  265,064;14328,410;36,91318
 478,09; 5489,820;  257,910;14312,913;37,22454
 478,68; 5423,785;  273,913;14221,761;36,92234
 479,27; 5471,542;  287,599;14305,290;36,98143
 479,85; 5433,312;  257,605;14283,426;36,90128
 480,44; 5493,140;  254,839;14418,392;36,98437
 481,02; 6028,729;  255,537;15815,136;37,10373
 481,61; 6780,951;  283,919;17873,001;36,93787
 482,20; 7205,734;  255,691;19099,150;36,88306
 482,78; 7595,952;  299,453;19992,311;37,05150
 483,37; 7770,717;  278,699;20533,405;36,98902
 483,95; 7871,334;  304,393;20791,766;36,93466
 484,54; 7930,692;  317,687;21021,241;36,77149
 485,13; 7822,398;  274,631;20883,675;36,62357
 485,71; 7759,126;  255,552;20621,442;36,84383
 486,30; 7694,653;  284,013;20314,022;36,99769
 486,88; 7562,969;  322,246;19987,396;36,82007
 487,47; 7248,822;  301,556;19228,616;36,70547
 488,05; 6948,051;  276,713;18322,323;36,96932
 488,64; 6407,345;  297,104;17030,624;36,51498
 489,23; 5744,224;  304,637;15145,886;36,65181
 489,81; 4887,188;  299,947;12970,050;36,20524
 490,40; 4623,288;  248,179;12323,096;36,23304
 490,98; 4493,522;  239,182;12008,747;36,14696
 491,57; 4448,203;  273,023;11980,192;35,66345
 492,15; 4465,908;  253,952;11882,885;36,21963
 492,74; 4420,684;  260,944;11757,133;36,18365
 493,32; 4379,522;  277,412;11662,063;36,03193
 493,91; 4334,709;  263,340;11601,767;35,90770
 494,50; 4304,514;  262,198;11572,590;35,73984
 495,08; 4284,667;  241,813;11485,521;35,95659
 495,67; 4273,680;  272,570;11503,391;35,62616
 496,25; 4222,144;  224,038;11384,741;35,82306
 496,84; 4221,004;  231,646;11343,679;35,90124
 497,42; 4160,548;  221,502;11293,373;35,57705
 498,01; 4149,692;  249,648;11233,564;35,50687
 498,59; 4133,653;  227,811;11193,057;35,62020
 499,18; 4084,545;  225,572;11124,262;35,40768
 499,76; 4100,150;  260,115;11101,294;35,42082
 500,35; 3976,413;  245,432;10862,542;35,14121
 500,93; 3977,212;  241,963;10813,297;35,33375
 501,52; 3961,724;  238,734;10757,351;35,39430
 502,10; 3925,484;  261,129;10747,595;34,94366
 502,69; 3874,445;  242,363;10559,944;35,20284
 503,27; 3764,157;  227,429;10349,820;34,93965
 503,86; 3774,426;  233,977;10292,458;35,19865
 504,44; 3701,167;  224,981;10143,073;35,04894
 505,03; 3606,261;  207,673; 9910,660;35,02620
 505,61; 3573,660;  228,441; 9867,810;34,70371
 506,19; 3526,035;  250,134; 9720,605;34,59068
 506,78; 3465,957;  215,912; 9514,755;34,95107
 507,36; 3384,073;  224,980; 9341,724;34,65155
 507,95; 3341,280;  231,532; 9195,965;34,68985
 508,53; 3252,704;  226,066; 9043,616;34,32516
 509,12; 3252,965;  230,530; 8892,813;34,89190
 509,70; 3188,407;  257,455; 8769,488;34,43305
 510,29; 3145,588;  247,459; 8619,416;34,61710
 510,87; 3042,363;  229,989; 8412,749;34,36951
 511,46; 2967,953;  219,298; 8211,179;34,39309
 512,04; 2911,865;  224,918; 8099,680;34,12099
 512,62; 2874,943;  237,914; 7993,451;34,00188
 513,21; 2804,847;  213,229; 7789,415;34,20742
 513,79; 2758,296;  220,165; 7669,221;34,07319
 514,38; 2687,060;  209,315; 7499,517;33,98734
 514,96; 2660,730;  244,391; 7433,540;33,61092
 515,54; 2607,211;  212,778; 7283,317;33,86493
 516,13; 2597,130;  226,779; 7157,826;34,19903
 516,71; 2510,438;  215,862; 7056,039;33,54558
 517,30; 2463,466;  208,251; 6931,959;33,54124
 517,88; 2479,317;  234,174; 6882,673;33,76917
 518,46; 2389,540;  213,022; 6747,913;33,30610
 519,05; 2388,863;  225,718; 6659,507;33,62163
 519,63; 2371,053;  224,178; 6659,420;33,36122
 520,22; 2340,051;  243,724; 6564,271;33,16686
 520,80; 2319,596;  227,494; 6466,969;33,53010
 521,38; 2294,545;  257,027; 6436,694;32,97133
 521,97; 2272,150;  218,883; 6429,178;33,06231
 522,55; 2260,254;  235,575; 6443,647;32,61366
 523,13; 2249,093;  216,732; 6398,186;32,87837
 523,72; 2231,006;  224,330; 6381,243;32,59225
 524,30; 2327,762;  239,351; 6545,207;33,11860
 524,89; 2294,387;  207,114; 6567,260;32,81800
 525,47; 2359,132;  238,660; 6665,749;32,99273
 526,05; 2338,298;  213,276; 6727,615;32,62068
 526,64; 2389,411;  229,356; 6855,141;32,60074
 527,22; 2430,203;  232,121; 6943,659;32,75079
 527,80; 2481,982;  269,432; 7065,555;32,55605
 528,39; 2484,776;  226,435; 7190,884;32,42670
 528,97; 2551,329;  226,510; 7359,112;32,59426
 529,55; 2614,741;  234,655; 7559,822;32,49191
 530,14; 2695,268;  257,130; 7734,782;32,60566
 530,72; 2704,703;  221,972; 7856,769;32,51863
 531,30; 2730,197;  217,746; 7992,942;32,31368
 531,89; 2772,549;  229,746; 8072,921;32,42058
 532,47; 2821,298;  256,594; 8217,595;32,21586
 533,05; 2826,915;  264,355; 8219,821;32,21132
 533,63; 2874,899;  252,056; 8273,838;32,69651
 534,22; 2822,948;  224,980; 8342,061;32,00619
 534,80; 2870,647;  241,755; 8435,057;32,08587
 535,38; 2933,869;  314,977; 8489,709;32,03642
 535,97; 2822,398;  234,133; 8436,888;31,55360
 536,55; 2868,439;  271,140; 8468,496;31,68460
 537,13; 2879,614;  265,745; 8446,124;31,95291
 537,71; 2889,069;  285,283; 8475,119;31,79290
 538,30; 2881,714;  305,674; 8570,323;31,16939
 538,88; 2913,807;  318,837; 8599,984;31,33588
 539,46; 2989,675;  344,062; 8806,603;31,26263
 540,05; 3012,860;  345,912; 8897,023;31,18832
 540,63; 3087,668;  386,296; 9111,519;30,96049
 541,21; 3133,397;  393,223; 9243,260;30,96229
 541,79; 3169,287;  411,761; 9345,393;30,86679
 542,38; 3220,930;  420,142; 9496,556;30,85788
 542,96; 3251,650;  444,997; 9640,398;30,52236
 543,54; 3302,869;  449,299; 9854,765;30,33948
 544,12; 3342,025;  405,685; 9999,510;30,60656
 544,70; 3367,233;  405,382;10057,138;30,68717
 545,29; 3395,474;  420,603;10257,492;30,24199
 545,87; 3413,979;  410,915;10329,470;30,27724
 546,45; 3372,935;  392,603;10323,885;30,00954
 547,03; 3389,296;  383,760;10485,760;29,75189
 547,62; 3430,628;  363,839;10602,636;29,95263
 548,20; 3510,198;  382,919;10766,056;30,11883
 548,78; 3507,525;  344,546;10952,908;29,81590
 549,36; 3548,677;  347,391;11183,078;29,54392
 549,94; 3577,795;  320,764;11287,724;29,69858
 550,53; 3654,208;  322,697;11513,627;29,76975
 551,11; 3700,742;  294,548;11726,288;29,79593
 551,69; 3806,622;  322,468;12059,610;29,68486
 552,27; 3868,244;  275,540;12330,394;29,80296
 552,85; 3967,983;  287,163;12753,477;29,52613
 553,44; 4044,001;  288,544;13036,442;29,45942
 554,02; 4191,855;  310,085;13449,201;29,54362
 554,60; 4228,732;  248,318;13720,860;29,54464
 555,18; 4355,798;  287,852;14092,826;29,46725
 555,76; 4467,564;  277,008;14460,557;29,54518
 556,34; 4598,193;  292,169;14913,550;29,45019
 556,93; 4698,502;  277,853;15329,007;29,37083
 557,51; 4801,523;  240,707;15647,690;29,60226
 558,09; 4912,452;  284,853;16070,707;29,31485
 558,67; 5018,439;  280,172;16447,067;29,30845
 559,25; 5067,887;  288,786;16734,988;29,05900
 559,83; 5162,843;  273,791;17033,614;29,17127
 560,41; 5235,521;  265,398;17391,253;29,02117
 561,00; 5373,780;  280,634;17766,934;29,12649
 561,58; 5355,971;  274,782;18011,072;28,64854
 562,16; 5468,945;  268,625;18341,204;28,77464
 562,74; 5548,289;  237,393;18731,886;28,71610
 563,32; 5657,700;  245,867;19154,726;28,62062
 563,90; 5776,148;  267,019;19544,270;28,57840
 564,48; 5829,618;  267,550;20046,724;28,12083
 565,06; 6042,235;  267,326;20579,929;28,43018
 565,65; 6215,075;  272,181;21263,904;28,31066
 566,23; 6417,752;  311,788;22040,081;28,10145
 566,81; 6546,513;  279,324;22783,792;27,84864
 567,39; 6808,158;  277,023;23701,381;27,88181
 567,97; 7010,234;  289,940;24310,168;27,97764
 568,55; 7220,107;  293,252;25197,412;27,81405
 569,13; 7399,159;  270,634;25881,528;27,83396
 569,71; 7617,110;  280,933;26851,239;27,61044
 570,29; 7898,419;  308,160;27888,993;27,52005
 570,87; 8081,587;  303,624;28621,612;27,46651
 571,45; 8197,461;  296,018;29325,907;27,21830
 572,03; 8279,116;  249,486;29702,693;27,26233
 572,61; 8451,562;  242,944;30408,629;27,21178
 573,20; 8666,578;  281,092;31069,696;27,23568
 573,78; 8768,794;  260,329;31782,006;26,99242
 574,36; 8930,567;  279,328;32300,505;27,01724
 574,94; 9002,689;  317,256;32642,774;26,86866
 575,52; 9006,219;  265,725;32846,235;26,82737
 576,10; 9194,106;  308,953;33440,563;26,81775
 576,68; 9247,528;  288,870;33975,623;26,59401
 577,26; 9445,629;  309,574;34699,026;26,56645
 577,84; 9556,859;  315,943;35186,679;26,50049
 578,42; 9640,806;  350,873;35502,631;26,42808
 579,00; 9560,810;  290,252;35667,901;26,20456
 579,58; 9661,464;  329,718;35955,711;26,19364
 580,16; 9606,637;  305,028;35934,796;26,10629
 580,74; 9574,869;  303,875;36128,711;25,87868
 581,32; 9616,135;  300,872;36230,094;25,92670
 581,90; 9577,708;  327,182;36174,629;25,80526
 582,48; 9617,115;  327,798;36293,768;25,82807
 583,06; 9602,272;  317,718;36487,822;25,66914
 583,64; 9602,194;  308,871;36568,753;25,62977
 584,22; 9496,567;  320,649;36441,638;25,40328
 584,80; 9432,752;  320,258;36211,539;25,38916
 585,38; 9310,275;  324,553;35778,495;25,34478
 585,96; 9266,411;  299,253;35838,913;25,23141
 586,54; 9228,576;  319,802;35884,305;25,04962
 587,12; 9256,117;  300,568;36082,359;25,02823
 587,70; 9312,719;  326,331;36191,135;25,05629
 588,28; 9216,128;  305,568;36305,241;24,75178
 588,86; 9234,970;  315,031;36369,510;24,74017
 589,44; 9212,402;  297,962;36510,054;24,61730
 590,02; 9235,746;  307,114;36686,583;24,54305
 590,59; 9287,648;  285,802;36964,214;24,54263
 591,17; 9321,758;  298,047;37099,676;24,51987
 591,75; 9311,071;  289,503;37335,237;24,35251
 592,33; 9353,272;  309,655;37533,493;24,29523
 592,91; 9407,981;  272,199;37770,302;24,36332
 593,49; 9485,545;  276,587;38115,931;24,33699
 594,07; 9470,770;  285,510;38350,610;24,13040
 594,65; 9444,319;  301,418;38358,213;24,02436
 595,23; 9553,323;  307,960;38870,395;23,97505
 595,81; 9540,160;  283,500;38835,566;24,01080
 596,39; 9527,051;  271,577;38992,460;23,90305
 596,97; 9535,717;  305,198;39202,896;23,73024
 597,55; 9476,618;  285,497;39101,230;23,67885
 598,12; 9409,460;  272,973;39094,948;23,53432
 598,70; 9397,218;  269,431;39324,222;23,37175
 599,28; 9405,499;  292,662;39457,523;23,26789
 599,86; 9426,899;  276,815;39468,964;23,34673
 600,44; 9329,880;  251,740;39539,023;23,10707
 601,02; 9333,687;  308,287;39632,593;22,95120
 601,60; 9297,230;  285,734;39636,789;22,90027
 602,18; 9281,338;  254,434;39624,823;22,92816
 602,75; 9228,390;  259,269;39722,651;22,72771
 603,33; 9190,686;  276,046;39733,774;22,59289
 603,91; 9236,178;  263,669;39629,278;22,79276
 604,49; 9215,911;  287,354;39768,137;22,61494
 605,07; 9204,928;  289,734;39779,503;22,57596
 605,65; 9168,688;  293,279;39876,357;22,42223
 606,23; 9195,361;  322,032;39961,370;22,38516
 606,80; 9158,973;  339,115;40031,476;22,22054
 607,38; 9122,929;  361,129;40020,091;22,09286
 607,96; 9126,890;  396,345;40120,463;21,97795
 608,54; 9068,040;  436,971;40132,952;21,74293
 609,12; 9047,945;  423,730;40212,084;21,67522
 609,70; 9048,306;  447,584;40164,958;21,65481
 610,27; 8981,746;  446,960;40221,891;21,45770
 610,85; 9001,602;  452,660;40361,469;21,42119
 611,43; 8999,279;  453,661;40190,327;21,50562
 612,01; 8876,059;  428,579;39938,834;21,38047
 612,59; 8863,827;  437,122;40005,832;21,29639
 613,16; 8804,831;  400,803;40000,582;21,22241
 613,74; 8723,043;  391,816;39860,382;21,10851
 614,32; 8657,403;  378,203;39818,573;20,99169
 614,90; 8642,242;  368,735;39740,501;21,01381
 615,48; 8491,788;  336,420;39404,202;20,87492
 616,05; 8447,467;  326,033;39490,968;20,73649
 616,63; 8435,300;  335,569;39351,965;20,75981
 617,21; 8325,422;  332,883;39185,457;20,57145
 617,79; 8270,579;  313,578;39065,963;20,53293
 618,36; 8251,510;  330,580;39125,867;20,41725
 618,94; 8117,069;  261,959;38822,725;20,37073
 619,52; 8042,801;  292,032;38375,453;20,35208
 620,10; 8026,413;  285,269;38330,713;20,34710
 620,67; 7949,426;  295,723;38250,497;20,16532
 621,25; 7878,291;  306,350;38026,894;20,07378
 621,83; 7847,624;  298,651;38062,774;19,98980
 622,41; 7855,459;  328,959;38049,670;19,95323
 622,98; 7749,448;  308,800;37788,029;19,85272
 623,56; 7755,375;  314,030;37795,674;19,85331
 624,14; 7653,057;  289,659;37659,464;19,70414
 624,72; 7596,558;  301,805;37544,194;19,58723
 625,29; 7632,348;  282,799;37675,744;19,65491
 625,87; 7608,227;  326,270;37619,830;19,52604
 626,45; 7519,879;  279,259;37344,439;19,53483
 627,02; 7461,980;  287,732;37357,465;19,35339
 627,60; 7446,489;  271,817;37247,702;19,40365
 628,18; 7370,099;  253,730;37361,161;19,17775
 628,76; 7385,295;  261,724;37356,021;19,20395
 629,33; 7435,034;  296,726;37384,113;19,24727
 629,91; 7356,720;  278,346;37340,329;19,09875
 630,49; 7389,000;  296,956;37449,416;19,08903
 631,06; 7393,697;  287,340;37625,831;19,03226
 631,64; 7340,495;  293,568;37572,200;18,90340
 632,22; 7306,613;  254,949;37478,527;18,94408
 632,79; 7322,509;  288,257;37824,059;18,74011
 633,37; 7340,696;  277,349;37826,435;18,81097
 633,95; 7341,225;  270,644;37963,712;18,75831
 634,52; 7342,860;  272,189;38068,796;18,70716
 635,10; 7320,038;  282,499;38029,680;18,64388
 635,68; 7331,322;  274,949;38237,268;18,58783
 636,25; 7261,861;  266,637;38241,039;18,42089
 636,83; 7299,679;  254,878;38432,405;18,45274
 637,41; 7241,672;  251,487;38505,802;18,27293
 637,98; 7281,166;  285,409;38627,908;18,24544
 638,56; 7316,958;  273,867;38771,280;18,29497
 639,13; 7284,222;  265,800;38871,974;18,17953
 639,71; 7315,548;  311,878;39154,614;18,03084
 640,29; 7214,252;  246,955;38826,648;18,05949
 640,86; 7173,195;  252,032;38988,317;17,86739
 641,44; 7233,829;  253,417;38967,062;18,03088
 642,02; 7227,002;  276,341;38914,962;17,98890
 642,59; 7197,791;  253,879;39161,323;17,84726
 643,17; 7158,425;  263,110;39098,531;17,75522
 643,74; 7232,983;  249,111;39141,738;17,95680
 644,32; 7169,618;  286,649;39185,253;17,69464
 644,89; 7142,099;  280,649;39099,692;17,67547
 645,47; 7123,272;  291,111;39116,437;17,59717
 646,05; 7087,137;  286,111;39135,414;17,50617
 646,62; 7057,541;  264,189;39107,852;17,48896
 647,20; 7094,945;  269,497;39209,444;17,52814
 647,77; 7017,426;  249,804;39035,729;17,44865
 648,35; 6961,291;  245,420;39003,398;17,32771
 648,92; 6959,003;  272,651;39009,682;17,26088
 649,50; 6875,483;  234,882;38843,966;17,19958
 650,08; 6863,195;  246,882;38764,251;17,17748
 650,65; 6886,522;  238,036;39112,535;17,10243
 651,23; 6949,003;  220,421;39827,512;16,98833
 651,80; 7141,484;  233,729;40797,488;17,02937
 652,38; 7161,580;  246,499;41191,465;16,88872
 652,95; 7220,137;  227,268;41534,057;16,92910
 653,53; 7252,311;  255,961;41894,187;16,80271
 654,10; 7327,253;  281,576;41945,318;16,91081
 654,68; 7247,272;  241,577;41909,064;16,81334
 655,25; 7247,522;  238,192;41917,579;16,81726
 655,83; 7249,465;  237,423;42057,709;16,76708
 656,40; 7223,868;  264,500;42034,840;16,66103
 656,98; 7219,503;  239,270;41918,278;16,74760
 657,55; 7172,061;  252,347;41811,332;16,65034
 658,13; 7062,772;  241,116;41390,693;16,57771
 658,70; 7062,561;  266,270;41249,977;16,58291
 659,28; 6862,888;  236,501;40241,339;16,56396
 659,85; 6714,753;  255,040;39406,315;16,49937
 660,43; 6745,311;  261,887;39494,676;16,52552
 661,00; 6733,792;  240,502;39551,730;16,51765
 661,58; 6744,965;  237,810;40107,784;16,32094
 662,15; 6766,907;  226,503;40183,453;16,36863
 662,73; 6845,311;  300,272;40518,660;16,27375
 663,30; 6863,946;  244,042;40675,406;16,37319
 663,88; 6870,196;  254,965;40897,306;16,27670
 664,45; 6879,061;  244,734;41079,282;16,24685
 665,03; 6956,542;  242,658;41416,797;16,30607
 665,60; 7090,253;  323,504;41846,697;16,29631
 666,17; 7009,580;  247,658;41960,520;16,21064
 666,75; 7095,292;  249,735;42413,650;16,23558
 667,32; 7185,773;  268,505;42639,396;16,32552
 667,90; 7235,946;  244,582;42979,604;16,35980
 668,47; 7224,580;  273,274;43192,888;16,19611
 669,05; 7272,446;  237,582;43631,019;16,21181
 669,62; 7229,004;  231,583;43641,611;16,11937
 670,19; 7268,023;  232,198;43783,433;16,15528
 670,77; 7289,350;  248,198;43903,025;16,12915
 671,34; 7313,908;  243,353;43823,310;16,22433
 671,92; 7339,158;  231,737;44287,748;16,13269
 672,49; 7367,177;  258,738;44173,340;16,18696
 673,06; 7317,735;  215,507;44343,470;16,09462
 673,64; 7322,908;  232,661;44171,293;16,13670
 674,21; 7289,235;  220,046;44244,347;16,05747
 674,79; 7347,023;  250,508;44513,323;16,03268
 675,36; 7359,042;  260,585;44484,223;16,05127
 675,93; 7314,754;  219,508;44374,123;16,06909
 676,51; 7338,696;  256,816;44710,176;15,93103
 677,08; 7349,254;  241,124;44763,692;15,96523
 677,65; 7388,042;  250,047;44833,976;16,01024
 678,23; 7434,523;  253,509;45032,876;16,03644
 678,80; 7443,389;  240,971;45153,160;16,03667
 679,38; 7434,793;  240,048;45315,367;15,96160
 679,95; 7479,504;  241,510;45585,344;15,96247
 680,52; 7540,908;  246,664;45759,705;16,02671
 681,10; 7576,543;  255,126;46247,374;15,91881
 681,67; 7634,331;  254,664;46474,505;15,96645
 682,24; 7648,504;  234,126;46637,789;15,97800
 682,82; 7775,447;  238,050;47233,381;16,03861
 683,39; 7847,004;  280,973;47459,127;16,03715
 683,96; 7878,639;  245,665;47797,719;16,05183
 684,54; 7925,581;  227,589;48127,234;16,07108
 685,11; 8028,831;  269,666;48378,288;16,12843
 685,68; 8102,927;  246,358;48929,495;16,13817
 686,25; 8075,101;  229,436;49081,164;16,06016
 686,83; 8125,658;  244,897;49196,602;16,09905
 687,40; 8190,985;  219,205;49533,271;16,16533
 687,97; 8302,081;  269,667;49965,556;16,16314
 688,55; 8332,178;  222,129;49932,071;16,31474
 689,12; 8351,966;  214,206;50320,663;16,24094
 689,69; 8385,216;  222,899;50349,716;16,28333
 690,26; 8406,389;  246,130;50497,462;16,23889
 690,84; 8441,639;  245,361;50658,285;16,25829
 691,41; 8463,120;  248,822;50775,800;16,25725
 691,98; 8538,447;  254,823;51050,469;16,30774
 692,56; 8607,697;  233,284;51139,369;16,45071
 693,13; 8656,947;  283,592;51161,576;16,45772
 693,70; 8650,197;  266,823;51358,245;16,40857
 694,27; 8671,986;  254,285;51426,453;16,44976
 694,84; 8677,928;  234,131;51492,583;16,47298
 695,42; 8765,639;  288,362;51602,791;16,52026
 695,99; 8747,043;  251,132;51901,229;16,44897
 696,56; 8748,447;  233,747;51796,052;16,51342
 697,13; 8906,543;  253,594;52059,182;16,70273
 697,71; 8856,486;  221,517;52124,466;16,63676
 698,28; 8935,043;  241,825;52567,212;16,61377
 698,85; 8926,370;  218,672;52430,573;16,67761
 699,42; 8975,313;  217,903;52602,627;16,71749
 699,99; 9020,486;  269,364;52899,758;16,62751
 700,57; 9022,120;  250,288;52759,427;16,70535
 701,14; 9087,909;  239,903;52950,788;16,78592
 701,71; 9153,390;  251,057;53144,841;16,83058
 702,28; 9180,101;  249,750;53175,587;16,87333
 702,85; 9178,813;  240,212;53278,641;16,85307
 703,43; 9258,986;  267,981;53533,464;16,87961
 704,00; 9389,005;  279,366;53798,363;17,02132
 704,57; 9336,178;  251,674;53675,417;17,00462
 705,14; 9392,275;  272,597;54065,932;16,95317
 705,71; 9463,986;  271,290;54061,216;17,09000
 706,28; 9424,005;  252,367;53901,808;17,09550
 706,86; 9537,102;  276,752;54297,400;17,14224
 707,43; 9583,890;  300,598;54147,300;17,24022
 708,00; 9603,525;  264,060;54117,123;17,34250
 708,57; 9562,775;  243,675;54126,561;17,29510
 709,14; 9619,717;  272,599;54215,230;17,32789
 709,71; 9682,352;  248,830;54312,438;17,44893
 710,28; 9707,140;  264,445;54427,876;17,43371
 710,86; 9722,852;  265,676;54698,083;17,37416
 711,43; 9824,640;  280,061;54701,983;17,53811
 712,00; 9852,506;  256,600;54690,575;17,62852
 712,57; 9922,910;  265,293;54991,705;17,64709
 713,14; 9966,083;  255,216;55000,451;17,73829
 713,71; 9937,333;  266,831;54936,505;17,68897
 714,28; 9921,737;  265,601;54977,558;17,64904
 714,85; 9961,679;  241,524;54659,535;17,86202
 715,42;10045,467;  249,140;55004,127;17,89121
 716,00;10127,487;  311,140;55111,181;17,91303
 716,57;10089,814;  262,602;55229,773;17,87833
 717,14;10075,141;  249,217;55154,826;17,89603
 717,71;10076,544;  234,987;55096,957;17,93876
 718,28;10195,410;  280,449;55273,164;18,02959
 718,85;10141,737;  247,218;55374,218;17,94859
 719,42;10280,679;  269,449;55454,810;18,14110
 719,99;10223,698;  247,219;55223,709;18,14681
 720,56;10310,948;  264,988;55553,840;18,16996
 721,13;10328,429;  241,296;55688,124;18,19244
 721,70;10401,602;  248,835;55484,255;18,38090
 722,27;10358,237;  273,912;55549,770;18,24363
 722,84;10502,487;  306,374;55677,900;18,41400
 723,41;10503,660;  240,835;55715,569;18,50000
 723,98;10570,910;  266,682;55931,161;18,51132
 724,55;10661,622;  283,144;55921,215;18,65355
 725,12;10625,333;  221,836;55925,192;18,67661
 725,69;10738,506;  253,221;56131,091;18,76465
 726,27;10710,910;  266,606;56193,145;18,67504
 726,84;10873,776;  269,298;56558,891;18,83914
 727,41;10947,256;  274,683;56495,175;18,98342
 727,98;11019,122;  272,376;56762,306;19,02418
 728,55;11056,372;  296,068;56619,205;19,10459
 729,12;11053,622;  239,607;56799,951;19,11943
 729,69;11121,872;  279,376;57065,620;19,09352
 730,26;11257,045;  276,069;57301,443;19,25630
 730,82;11192,141;  272,069;57015,958;19,24449
 731,39;11339,545;  263,608;57200,396;19,45304
 731,96;11414,103;  251,454;57379,758;19,53961
 732,53;11492,045;  265,455;57658,119;19,56102
 733,10;11593,680;  274,609;57655,326;19,72626
 733,67;11657,084;  271,455;57940,841;19,74293
 734,24;11608,103;  251,994;57573,126;19,81138
 734,81;11694,507;  285,456;57668,949;19,88211
 735,38;11645,218;  270,840;57484,925;19,88038
 735,95;11681,468;  271,148;57348,594;19,99094
 736,52;11723,565;  277,610;57559,878;19,98167
 737,09;11740,430;  265,918;57244,547;20,13827
 737,66;11879,218;  307,072;57340,678;20,29005
 738,23;11893,545;  259,534;57458,193;20,33966
 738,80;12056,257;  314,919;57686,631;20,46538
 739,37;12094,738;  294,150;57997,146;20,45056
 739,94;12131,757;  266,765;58021,969;20,54359
 740,51;12257,007;  361,073;58162,869;20,58056
 741,07;12182,872;  257,304;57969,230;20,66396
 741,64;12274,430;  299,458;58260,591;20,66035
 742,21;12343,372;  268,459;58352,491;20,78870
 742,78;12357,238;  238,074;58040,006;20,96671
 743,35;12423,488;  267,921;58393,598;20,91256
 743,92;12480,123;  293,382;58500,806;20,93675
 744,49;12629,757;  272,075;58297,244;21,29711
 745,06;12548,084;  262,537;58309,990;21,16466
 745,63;12572,103;  246,922;58349,813;21,21268
 746,19;12641,661;  260,537;58279,174;21,33991
 746,76;12683,296;  260,614;58369,227;21,37838
 747,33;12753,238;  256,307;58286,589;21,53519
 747,90;12823,873;  280,384;58549,027;21,52700
 748,47;12861,969;  276,615;58454,850;21,63241
 749,04;12951,450;  273,000;58474,596;21,78368
 749,61;12968,161;  287,308;58464,495;21,79695
 750,17;13107,411;  285,693;58499,856;22,02508
 750,74;13103,892;  274,001;58413,910;22,06727
 751,31;13084,142;  257,078;58361,194;22,07600
 751,88;13071,161;  231,463;58242,479;22,13321
 752,45;13131,488;  261,617;58344,071;22,15793
 753,02;13165,815;  282,848;58210,355;22,23981
 753,58;13196,527;  249,232;58226,639;22,33162
 754,15;13263,777;  258,617;58347,616;22,38833
 754,72;13262,027;  247,156;58025,824;22,52539
 755,29;13217,508;  241,156;57871,723;22,51644
 755,86;13273,527;  262,387;58023,931;22,52561
 756,42;13372,854;  267,311;57938,600;22,72455
 756,99;13385,489;  228,388;57931,653;22,80131
 757,56;13384,739;  235,003;57765,245;22,85708
 758,13;13431,142;  200,234;57725,068;23,00034
 758,70;13523,008;  227,773;57822,122;23,08427
 759,26;13519,950;  223,696;57884,329;23,05950
 759,83;13696,277;  234,543;57974,152;23,31456
 760,40;13639,604;  219,928;57712,590;23,34155
 760,97;13634,316;  197,774;57783,567;23,33308
 761,53;13647,950;  193,697;57436,697;23,50375
 762,10;13684,585;  196,544;57388,905;23,58364
 762,67;13763,220;  229,313;57454,112;23,65042
 763,24;13636,162;  189,852;56929,781;23,69814
 763,80;13743,489;  228,314;57080,835;23,77234
 764,37;13777,200;  218,929;57096,119;23,83780
 764,94;13662,220;  215,391;56619,172;23,84030
 765,50;13721,316;  216,314;56701,841;23,90878
 766,07;13748,181;  252,622;56651,433;23,92880
 766,64;13719,816;  230,776;56431,872;24,00138
 767,21;13705,220;  225,777;56265,618;24,05332
 767,77;13779,778;  250,315;56115,825;24,21792
 768,34;13811,412;  239,239;56116,109;24,28943
 768,91;13892,278;  255,162;55937,317;24,49100
 769,47;13872,605;  245,008;55948,909;24,46435
 770,04;13829,008;  262,855;55841,962;24,40873
 770,61;13838,335;  240,086;55658,939;24,53723
 771,18;13905,355;  231,932;55498,454;24,74088
 771,74;13961,912;  246,932;55584,123;24,78438
 772,31;13967,162;  247,317;55284,253;24,92843
 772,88;13899,951;  225,471;55091,615;24,92335
 773,44;13911,509;  228,471;55019,130;24,97330
 774,01;13990,451;  246,010;55033,953;25,08662
 774,58;14012,778;  234,549;54714,775;25,29033
 775,14;14142,643;  230,703;54775,598;25,50549
 775,71;14090,509;  238,395;54690,421;25,43911
 776,27;14170,220;  283,857;54724,475;25,50736
 776,84;14259,855;  308,165;54764,067;25,62016
 777,41;14186,797;  245,165;54464,966;25,71317
 777,97;14166,663;  244,550;54181,635;25,81176
 778,54;14205,913;  259,012;54240,381;25,83651
 779,11;14266,317;  268,551;54182,666;25,96308
 779,67;14344,567;  228,166;54092,642;26,20725
 780,24;14304,663;  251,936;53933,388;26,17799
 780,80;14356,759;  269,013;53984,749;26,22648
 781,37;14443,547;  254,859;53989,264;26,40522
 781,94;14392,028;  246,783;53653,703;26,48579
 782,50;14466,124;  257,091;53683,833;26,59536
 783,07;14553,451;  281,937;53762,964;26,68519
 783,63;14471,624;  240,860;53436,556;26,75172
 784,20;14562,951;  273,399;53488,686;26,85234
 784,77;14456,048;  256,553;53280,586;26,77936
 785,33;14440,836;  229,784;52997,332;26,93142
 785,90;14552,855;  253,015;53002,078;27,10918
 786,46;14557,105;  269,861;52896,439;27,14834
 787,03;14553,048;  242,092;52744,339;27,25780
 787,59;14599,759;  248,631;52615,315;27,40507
 788,16;14606,625;  258,478;52575,292;27,42550
 788,73;14634,413;  265,401;52391,576;27,56583
 789,29;14592,740;  244,786;51910,014;27,77101
 789,86;14649,144;  267,171;51898,222;27,85528
 790,42;14615,240;  257,094;51859,737;27,82444
 790,99;14602,798;  272,479;51447,944;28,00232
 791,55;14610,663;  245,633;51501,152;28,02631
 792,12;14729,606;  265,556;51433,359;28,26787
 792,68;14621,779;  254,556;51144,874;28,23174
 793,25;14651,413;  265,941;50834,543;28,44744
 793,81;14673,894;  309,249;50529,058;28,60354
 794,38;14565,452;  217,557;50328,112;28,63248
 794,94;14587,087;  244,173;50104,243;28,76633
 795,51;14517,567;  257,788;49860,681;28,74788
 796,07;14468,433;  260,789;49633,504;28,77631
 796,64;14589,298;  264,712;49687,480;28,98378
 797,20;14456,087;  258,558;49121,303;29,05594
 797,77;14368,952;  229,328;48871,664;29,06856
 798,33;14349,894;  241,866;48671,641;29,13090
 798,90;14444,991;  274,636;48687,771;29,26965
 799,46;14339,164;  246,251;48125,363;29,43436
 800,03;14296,260;  270,790;48025,109;29,37005
 800,59;14309,741;  272,713;47941,624;29,44692
 801,15;14222,760;  258,175;47589,524;29,50388
 801,72;14163,395;  252,406;47287,732;29,57562
 802,28;14098,260;  285,560;46983,631;29,57874
 802,85;14100,356;  249,330;46889,300;29,69776
 803,41;14077,529;  246,561;46712,892;29,76557
 803,98;14034,318;  249,484;46328,330;29,91575
 804,54;14027,875;  249,946;46006,846;30,11115
 805,11;13939,202;  258,485;45810,130;30,03342
 805,67;13947,991;  272,100;45752,414;30,06991
 806,23;13859,779;  262,408;45267,006;30,21329
 806,80;13933,876;  275,562;45117,444;30,45883
 807,36;13902,587;  282,793;45013,267;30,44858
 807,93;13948,529;  286,024;44813,321;30,68344
 808,49;13839,626;  245,640;44510,144;30,71081
 809,05;13801,568;  234,640;44363,505;30,74389
 809,62;13923,664;  270,410;44212,405;31,07108
 810,18;13896,530;  263,871;44157,151;31,05865
 810,74;13798,549;  232,025;43883,896;31,07890
 811,31;13799,876;  245,872;43546,335;31,30222
 811,87;13907,587;  256,564;43534,004;31,54305
 812,44;13875,684;  283,949;43399,288;31,52413
 813,00;13870,934;  209,719;43112,880;31,84198
 813,56;13921,568;  260,950;43217,010;31,80138
 814,13;13922,126;  259,565;43157,449;31,84903
 814,69;13857,453;  251,719;42808,348;31,97089
 815,25;13785,241;  229,104;42601,479;31,99287
 815,82;13799,414;  275,335;42334,840;32,15463
 816,38;13796,511;  298,182;42184,817;32,22586
 816,94;13712,376;  235,490;41865,486;32,37302
 817,51;13667,549;  226,644;41713,001;32,39837
 818,07;13618,107;  242,105;41376,747;32,51761
 818,63;13601,203;  265,336;41247,262;32,54085
 819,20;13684,992;  249,798;41189,777;32,81681
 819,76;13557,626;  235,414;40615,138;32,99233
 820,32;13570,953;  268,952;40609,961;32,97389
 820,89;13525,588;  270,799;40403,553;33,02736
 821,45;13512,299;  233,338;40010,145;33,38368
 822,01;13424,857;  273,876;39788,660;33,28117
 822,57;13459,338;  267,107;39675,791;33,47544
 823,14;13385,511;  238,415;39514,075;33,47390
 823,70;13345,915;  241,108;39247,282;33,59675
 824,26;13299,626;  235,262;39008,797;33,69402
 824,82;13317,492;  257,570;38887,005;33,80821
 825,39;13208,126;  239,647;38619,828;33,78952
 825,95;13245,453;  261,878;38651,958;33,82013
 826,51;13204,934;  258,340;38153,550;34,16420
 827,08;13206,184;  278,417;38206,065;34,08534
 827,64;13158,511;  257,186;38029,657;34,15536
 828,20;13094,684;  242,956;37724,249;34,28838
 828,76;13171,319;  273,494;37724,072;34,43959
 829,32;13094,723;  275,879;37573,895;34,36870
 829,89;13070,588;  234,187;37475,256;34,46840
 830,45;13142,607;  253,572;37367,925;34,72790
 831,01;13107,473;  241,188;37192,517;34,81955
 831,57;13120,184;  252,188;37083,494;34,93766
 832,14;13095,127;  246,496;37046,163;34,91507
 832,70;13058,685;  233,111;36757,370;35,11522
 833,26;13072,858;  214,189;36663,808;35,27792
 833,82;13110,415;  238,343;36525,016;35,47328
 834,38;13135,435;  233,804;36584,069;35,49253
 834,95;13147,531;  234,882;36441,892;35,66339
 835,51;13120,781;  205,343;36314,946;35,76732
 836,07;13221,800;  243,190;36355,615;35,93946
 836,63;13201,435;  262,882;36381,668;35,82222
 837,19;13184,762;  247,421;36206,645;35,97781
 837,75;13175,704;  215,421;35942,391;36,27591
 838,32;13242,646;  258,268;36010,829;36,31734
 838,88;13309,281;  257,499;36027,575;36,48799
 839,44;13219,839;  251,499;35891,705;36,38683
 840,00;13208,473;  248,961;35852,067;36,39995
 840,56;13172,954;  224,422;35544,428;36,66062
 841,12;13210,127;  231,346;35616,482;36,67863
 841,68;13199,608;  218,654;35367,151;36,93175
 842,25;13191,858;  231,039;35432,358;36,81913
 842,81;13180,723;  224,193;35091,796;37,15922
 843,37;13132,127;  205,270;35087,311;37,05878
 843,93;13153,685;  234,885;35064,749;37,09116
 844,49;13226,397;  240,578;35030,880;37,32597
 845,05;13105,493;  202,040;34888,395;37,20037
 845,61;13186,743;  253,809;34860,756;37,37092
 846,17;13144,685;  233,040;34734,348;37,42364
 846,73;13198,089;  242,810;34729,863;37,56563
 847,29;13177,339;  215,733;34468,763;37,84076
 847,86;13225,128;  221,118;34521,817;37,91179
 848,42;13132,762;  208,580;34236,024;37,98164
 848,98;13166,089;  241,811;34193,924;38,06620
 849,54;13250,416;  228,965;34233,670;38,29309
 850,10;13247,820;  237,734;34080,108;38,44318
 850,66;13207,532;  216,734;33874,469;38,59677
 851,22;13234,628;  212,504;33864,061;38,69694
 851,78;13336,647;  268,043;33891,807;38,86717
 852,34;13239,820;  237,274;33624,938;38,94416
 852,90;13272,378;  226,889;33522,991;39,18023
 853,46;13153,859;  218,120;33292,583;39,11096
 854,02;13287,109;  234,274;33293,791;39,48284
 854,58;13183,743;  221,659;32997,075;39,54819
 855,14;13145,993;  221,736;32969,359;39,46624
 855,70;13129,089;  196,121;32805,721;39,66000
 856,26;13151,570;  242,275;32805,159;39,64420
 856,82;13134,282;  229,429;32524,905;39,95870
 857,38;13089,763;  246,276;32449,035;39,88319
 857,94;13067,551;  240,430;32373,473;39,91879
 858,50;13043,186;  249,661;32173,527;40,07511
 859,06;13018,359;  224,892;32001,965;40,26005
 859,62;12987,532;  242,969;31978,326;40,15888
 860,18;12890,705;  227,738;31700,841;40,23425
 860,74;12837,186;  195,431;31622,280;40,22597
 861,30;12835,513;  207,893;31446,333;40,42334
 861,86;12926,609;  260,124;31459,925;40,59797
 862,42;12794,167;  226,662;31272,133;40,48096
 862,98;12828,186;  253,047;31308,571;40,49244
 863,54;12691,821;  233,971;31118,394;40,33700
 864,10;12751,148;  223,202;31050,293;40,63940
 864,66;12685,936;  208,202;30911,809;40,63931
 865,22;12675,801;  230,510;30695,324;40,85136
 865,78;12658,744;  229,895;30639,608;40,87131
 866,34;12654,148;  226,664;30513,200;41,03303
 866,90;12624,782;  236,895;30375,023;41,10371
 867,45;12550,263;  230,818;30249,076;41,03984
 868,01;12525,590;  235,511;30036,976;41,23985
 868,57;12438,302;  226,434;29866,799;41,20013
 869,13;12403,475;  211,204;29736,391;41,29448
 869,69;12462,263;  215,512;29661,214;41,59096
 870,25;12407,359;  209,512;29513,113;41,62576
 870,81;12478,071;  218,974;29522,167;41,83536
 871,37;12448,013;  225,974;29387,682;41,91126
 871,93;12374,879;  233,436;29172,197;41,95564
 872,49;12364,206;  253,897;29027,866;42,08772
 873,04;12247,456;  212,513;28819,304;42,07023
 873,60;12256,860;  219,667;28684,666;42,28770
 874,16;12279,033;  236,206;28544,181;42,54217
 874,72;12205,956;  222,437;28517,873;42,35142
 875,28;12284,263;  226,052;28424,873;42,76140
 875,84;12244,648;  226,590;28321,873;42,77607
 876,40;12293,187;  220,513;28379,412;42,87339
 876,95;12255,648;  239,129;28235,104;42,92231
 877,51;12326,494;  260,052;28329,873;42,98724
 878,07;12420,263;  269,744;28231,488;43,45408
 878,63;12399,187;  228,283;28280,027;43,38733
 879,19;12402,571;  235,898;28263,258;43,40999
 879,75;12446,802;  226,590;28335,642;43,47429
 880,30;12473,033;  230,821;28199,027;43,77189
 880,86;12524,494;  267,821;28385,488;43,59065
 881,42;12557,417;  216,667;28452,104;43,70660
 881,98;12697,033;  240,898;28461,335;44,13870
 882,54;12719,110;  224,744;28577,719;44,06721
 883,09;12857,110;  238,513;28735,488;44,28048
 883,65;12945,494;  214,283;28770,335;44,58323
 884,21;13137,879;  256,206;28987,565;44,83489
 884,77;13120,956;  221,360;28983,104;44,84984
 885,32;13254,417;  230,975;29187,642;44,97563
 885,88;13362,956;  259,283;29262,335;45,18032
 886,44;13391,494;  237,513;29484,642;44,97529
 887,00;13502,494;  254,360;29404,412;45,44807
 887,56;13613,648;  231,437;29648,488;45,49134
 888,11;13677,956;  236,360;29552,412;45,85064
 888,67;13812,340;  264,206;29822,412;45,83544
 889,23;13815,879;  237,667;29833,873;45,87822
 889,79;13808,494;  214,360;29723,027;46,06828
 890,34;13864,340;  239,360;29613,258;46,38465
 890,90;13917,417;  302,975;29761,181;46,21613
 891,46;13905,956;  225,667;29652,104;46,48979
 892,01;13945,033;  252,975;29674,104;46,53818
 892,57;13960,494;  252,821;29550,335;46,78784
 893,13;13879,802;  233,283;29317,873;46,92010
 893,69;13840,033;  227,129;29388,719;46,68094
 894,24;13815,879;  236,667;29281,335;46,75286
 894,80;13800,340;  231,052;29059,104;47,06974
 895,36;13703,571;  230,129;28942,873;46,92495
 895,91;13596,494;  231,206;28773,719;46,82590
 896,47;13545,571;  258,975;28624,412;46,84080
 897,03;13505,725;  220,667;28386,335;47,16756
 897,58;13504,956;  238,821;28392,488;47,12045
 898,14;13434,340;  239,975;28132,565;47,30420
 898,70;13341,648;  209,667;27967,642;47,30886
 899,25;13423,648;  228,129;27958,719;47,58470
 899,81;13346,110;  250,590;27772,104;47,58285
 900,37;13185,725;  217,437;27573,104;47,40622
 900,92;13267,417;  240,283;27632,719;47,55741
 901,48;13192,879;  224,821;27419,488;47,68603
 902,03;13180,879;  223,513;27255,796;47,93293
 902,59;13164,187;  226,052;27215,412;47,93791
 903,15;13144,802;  256,052;26958,950;48,26723
 903,70;12955,033;  244,052;26687,181;48,06913
 904,26;12942,571;  217,744;26660,335;48,12247
 904,82;12974,956;  236,744;26648,488;48,22935
 905,37;12944,494;  240,052;26469,873;48,43511
 905,93;12859,033;  224,744;26360,104;48,34174
 906,48;12875,417;  239,667;26317,104;48,45472
 907,04;12875,648;  253,898;26173,181;48,69637
 907,60;12807,417;  224,975;25972,873;48,86784
 908,15;12778,340;  218,667;25883,104;48,93804
 908,71;12819,879;  250,513;25858,335;49,08409
 909,26;12706,494;  213,283;25706,950;49,00516
 909,82;12714,340;  257,437;25599,796;49,15448
 910,37;12734,648;  268,052;25525,796;49,35752
 910,93;12681,494;  219,744;25226,335;49,83386
 911,48;12611,494;  208,513;25048,181;49,93215
 912,04;12595,494;  216,590;24939,950;50,06967
 912,60;12555,187;  242,206;25022,488;49,68862
 913,15;12532,110;  235,975;24808,104;50,04098
 913,71;12490,033;  226,360;24581,642;50,35324
 914,26;12471,802;  204,360;24588,950;50,30817
 914,82;12508,033;  234,975;24467,873;50,64626
 915,37;12411,033;  226,898;24384,950;50,43509
 915,93;12453,571;  277,129;24278,258;50,73279
 916,48;12391,956;  216,283;24113,488;50,95020
 917,04;12340,187;  239,590;24033,642;50,85555
 917,59;12407,802;  254,129;23937,412;51,31752
 918,15;12243,417;  206,206;23718,181;51,19609
 918,70;12227,725;  226,283;23675,335;51,18093
 919,26;12301,648;  229,667;23483,565;51,91379
 919,81;12123,494;  212,975;23370,412;51,43281
 920,37;12123,263;  233,283;23301,335;51,54306
 920,92;12104,879;  241,975;23216,796;51,63437
 921,48;12009,725;  209,667;22934,027;51,92691
 922,03;12078,187;  218,437;23038,488;51,97074
 922,59;11989,417;  225,821;22863,565;51,96452
 923,14;11951,802;  223,975;22679,488;52,22694
 923,69;11885,187;  244,283;22620,642;52,02322
 924,25;11978,725;  248,513;22641,181;52,38416
 924,80;11812,187;  225,975;22275,796;52,54560
 925,36;11819,110;  219,744;22273,104;52,59682
 925,91;11739,340;  222,052;22124,873;52,58358
 926,47;11699,263;  209,667;22107,181;52,46987
 927,02;11681,340;  269,744;22038,335;52,42230
 927,57;11635,033;  220,975;21821,565;52,84142
 928,13;11635,187;  217,360;21776,642;52,96014
 928,68;11561,802;  221,283;21722,027;52,74478
 929,24;11505,187;  192,821;21528,642;53,02053
 929,79;11464,417;  216,052;21382,335;53,14285
 930,34;11400,263;  216,513;21190,642;53,32164
 930,90;11448,956;  215,898;21257,642;53,38463
 931,45;11471,571;  233,513;21206,719;53,58293
 932,01;11440,417;  231,360;21068,950;53,79249
 932,56;11328,956;  244,513;20865,642;53,75284
 933,11;11339,417;  256,437;20914,258;53,65029
 933,67;11273,494;  216,360;20690,488;54,00540
 934,22;11240,494;  221,283;20578,796;54,12847
 934,77;11228,263;  251,360;20507,642;54,19012
 935,33;11157,033;  233,975;20403,412;54,15648
 935,88;11092,110;  226,590;20301,335;54,12532
 936,43;11097,187;  218,975;20248,181;54,31175
 936,99;11034,725;  225,206;20154,719;54,23875
 937,54;10951,956;  212,513;19992,719;54,29389
 938,09;10952,648;  235,360;19954,412;54,34992
 938,65;10884,648;  230,437;19810,104;54,41467
 939,20;10834,879;  204,129;19720,104;54,47204
 939,75;10831,263;  217,360;19588,488;54,79239
 940,31;10812,725;  214,590;19526,642;54,87835
 940,86;10831,879;  228,744;19496,873;55,02939
 941,41;10846,494;  300,129;19384,873;55,26071
 941,96;10760,494;  217,590;19234,412;55,43989
 942,52;10713,110;  218,898;19187,027;55,32550
 943,07;10697,340;  200,283;19000,335;55,83526
 943,62;10629,494;  210,513;18923,565;55,67761
 944,18;10665,110;  204,667;18843,796;56,12088
 944,73;10594,340;  220,129;18759,181;55,95870
 945,28;10540,802;  200,898;18568,873;56,29311
 945,83;10613,110;  224,975;18574,873;56,61140
 946,39;10548,494;  214,590;18463,565;56,62731
 946,94;10577,648;  239,052;18505,642;56,59839
 947,49;10504,340;  225,590;18264,719;56,98030
 948,04;10543,340;  248,513;18248,181;57,19454
 948,59;10489,879;  237,129;18177,258;57,14981
 949,15;10473,263;  208,898;18127,104;57,28456
 949,70;10384,033;  211,283;18002,412;57,17878
 950,25;10367,033;  243,590;17877,258;57,40974
 950,80;10339,187;  190,129;17786,719;57,67627
 951,36;10299,725;  188,975;17675,027;57,82180
 951,91;10395,110;  236,129;17672,027;58,26474
 952,46;10237,187;  207,821;17485,873;58,04685
 953,01;10311,187;  238,283;17504,565;58,33858
 953,56;10243,417;  203,975;17356,642;58,52992
 954,11;10200,879;  221,283;17362,796;58,21887
 954,67;10104,494;  214,898;17186,104;58,27280
 955,22;10109,187;  202,129;17152,181;58,44854
 955,77;10118,725;  238,437;17072,488;58,69228
 956,32;10087,571;  267,283;16949,796;58,86576
 956,87;10067,187;  207,821;16783,565;59,48068
 957,42; 9993,802;  210,206;16742,488;59,17874
 957,98; 9983,879;  209,821;16680,873;59,34082
 958,53;10021,110;  240,437;16656,335;59,58049
 959,08; 9912,263;  216,283;16515,642;59,48688
 959,63; 9867,879;  214,283;16453,335;59,44680
 960,18; 9844,879;  226,206;16438,873;59,32813
 960,73; 9810,110;  214,513;16331,412;59,53749
 961,28; 9733,110;  206,975;16188,027;59,60893
 961,83; 9791,956;  241,667;16189,565;59,88431
 962,39; 9693,187;  200,129;16034,719;59,95139
 962,94; 9661,187;  231,360;16000,950;59,79754
 963,49; 9617,571;  214,744;15862,104;60,09210
 964,04; 9629,802;  232,052;15809,027;60,33103
 964,59; 9548,340;  199,975;15702,950;60,30046
 965,14; 9577,033;  234,206;15642,412;60,63540
 965,69; 9473,110;  220,129;15507,950;60,52518
 966,24; 9480,648;  213,437;15436,719;60,87525
 966,79; 9413,033;  231,667;15336,258;60,78527
 967,34; 9313,340;  199,052;15212,719;60,70661
 967,89; 9277,725;  209,590;15114,104;60,84153
 968,44; 9251,879;  226,206;15046,565;60,90050
 968,99; 9304,648;  229,052;14984,565;61,50647
 969,55; 9222,033;  227,283;14903,027;61,28991
 970,10; 9160,494;  230,821;14821,642;61,20062
 970,65; 9127,956;  233,513;14703,335;61,46892
 971,20; 9102,802;  210,052;14610,488;61,75334
 971,75; 8956,494;  201,206;14497,181;61,24303
 972,30; 8914,263;  225,898;14445,873;61,09972
 972,85; 8882,648;  206,513;14366,796;61,27091
 973,40; 8830,340;  204,513;14167,565;61,77609
 973,95; 8804,648;  224,360;14185,412;61,45875
 974,50; 8744,956;  248,360;14086,950;61,39784
 975,05; 8710,263;  224,206;13905,642;62,02607
 975,60; 8679,033;  227,667;13878,950;61,90895
 976,15; 8622,648;  216,052;13755,950;62,08759
 976,70; 8618,110;  212,744;13693,335;62,35161
 977,25; 8566,417;  228,667;13616,258;62,27969
 977,80; 8458,571;  212,975;13398,565;62,53490
 978,35; 8428,494;  231,590;13314,796;62,65211
 978,89; 8393,263;  194,667;13252,873;62,78501
 979,44; 8382,110;  216,744;13219,796;62,79576
 979,99; 8273,879;  206,129;13049,488;62,81651
 980,54; 8254,110;  236,513;12988,104;62,87526
 981,09; 8236,110;  238,437;12832,565;63,50319
 981,64; 8136,187;  231,360;12723,488;63,27846
 982,19; 8176,802;  253,667;12714,719;63,58319
 982,74; 8066,417;  233,667;12564,565;63,52133
 983,29; 8017,263;  209,052;12400,027;64,04911
 983,84; 7951,417;  228,513;12303,488;63,95793
 984,39; 7968,033;  277,437;12298,181;63,97770
 984,94; 7860,340;  198,129;12154,719;64,08358
 985,49; 7851,110;  248,667;12060,335;64,36384
 986,03; 7817,802;  239,206;11997,796;64,45157
 986,58; 7726,187;  271,360;11828,565;64,50371
 987,13; 7700,571;  228,898;11728,796;64,97165
 987,68; 7690,879;  239,437;11609,335;65,53658
 988,23; 7629,725;  231,821;11558,027;65,31670
 988,78; 7533,879;  215,283;11352,104;65,71531
 989,33; 7482,187;  235,898;11312,181;65,42166
 989,88; 7470,879;  261,975;11214,412;65,82009
 990,42; 7318,571;  220,667;11102,181;65,22901
 990,97; 7337,802;  220,283;10949,027;66,34066
 991,52; 7320,648;  248,975;10915,027;66,30076
 992,07; 7213,879;  256,667;10801,412;65,97800
 992,62; 7145,494;  241,052;10718,873;65,89578
 993,17; 7093,571;  244,590;10596,104;66,16405
 993,71; 7077,571;  236,744;10508,565;66,59799
 994,26; 6983,956;  220,667;10335,950;66,86208
 994,81; 6925,110;  246,129;10295,027;66,46481
 995,36; 6833,879;  235,052;10137,719;66,63686
 995,91; 6828,033;  228,821;10097,335;66,87138
 996,45; 6719,648;  232,513; 9939,719;66,82803
 997,00; 6659,417;  214,129; 9861,565;66,80830
 997,55; 6637,725;  235,513; 9794,335;66,97700
 998,10; 6532,110;  261,590; 9676,488;66,60209
 998,65; 6534,340;  223,975; 9595,027;67,33892
 999,19; 6479,802;  251,283; 9456,412;67,66357
 999,74; 6363,417;  278,975; 9402,104;66,69250
1000,29; 6348,494;  251,821; 9298,950;67,38793
1000,84; 6239,648;  231,744; 9158,950;67,29882
1001,38; 6198,417;  234,129; 9078,796;67,43372
1001,93; 6155,956;  242,437; 9040,335;67,21514
1002,48; 6013,187;  218,129; 8857,104;67,08039
1003,03; 6039,340;  236,052; 8843,104;67,42481
1003,57; 5961,187;  242,667; 8662,719;67,91549
1004,12; 5916,725;  267,052; 8632,565;67,53528
1004,67; 5852,648;  233,052; 8498,412;67,98974
1005,22; 5739,725;  223,437; 8366,565;67,74163
1005,76; 5706,648;  216,206; 8234,027;68,47798
1006,31; 5676,494;  247,283; 8191,796;68,33913
1006,86; 5579,725;  226,744; 8071,488;68,23652
1007,40; 5487,263;  218,590; 7946,335;68,17867
1007,95; 5467,648;  238,437; 7855,027;68,65554
1008,50; 5377,033;  234,360; 7722,488;68,67768
1009,04; 5330,033;  231,513; 7619,181;69,01393
1009,59; 5238,802;  247,744; 7518,027;68,65012
1010,14; 5160,494;  221,360; 7391,488;68,88488
1010,68; 5112,648;  234,283; 7255,873;69,47664
1011,23; 5043,340;  215,590; 7127,412;69,84773
1011,78; 4994,879;  240,129; 7102,796;69,28429
1012,32; 4929,725;  239,821; 7005,104;69,32310
1012,87; 4920,802;  259,206; 6943,412;69,74046
1013,42; 4819,494;  210,360; 6846,796;69,45195
1013,96; 4826,725;  261,360; 6832,565;69,47531
1014,51; 4750,648;  198,667; 6706,412;69,94714
1015,06; 4759,417;  190,360; 6751,488;69,63829
1015,60; 4831,725;  268,975; 6764,488;70,24464
1016,15; 4798,187;  215,052; 6756,335;70,06477
1016,69; 4836,879;  231,437; 6763,719;70,50280
1017,24; 4813,340;  196,283; 6787,796;70,04549
1017,79; 4910,263;  245,744; 6832,796;70,81346
1018,33; 4881,417;  220,821; 6814,104;70,68704
1018,88; 4922,802;  237,744; 6866,104;70,68201
1019,42; 4947,571;  221,437; 6870,104;71,08394
1019,97; 4955,648;  215,437; 6884,873;71,07364
1020,51; 5043,494;  248,206; 6918,335;71,89199
1021,06; 4991,725;  204,590; 6930,642;71,17302
1021,61; 4961,187;  187,898; 6853,258;71,61337
1022,15; 4963,187;  193,437; 6810,796;72,07935
1022,70; 4968,802;  225,206; 6826,950;71,85368
1023,24; 4956,263;  213,975; 6803,335;71,96888
1023,79; 4929,648;  222,898; 6735,258;72,27411
1024,33; 4886,802;  221,513; 6661,950;72,43746
1024,88; 4830,725;  233,437; 6588,873;72,33631
1025,42; 4773,110;  224,360; 6499,950;72,48322
1025,97; 4742,110;  212,898; 6359,719;73,68380
1026,51; 4648,187;  180,360; 6257,873;73,51406
1027,06; 4631,648;  212,129; 6224,027;73,51288
1027,60; 4547,802;  227,437; 6133,565;73,15054
1028,15; 4500,340;  232,052; 6013,565;73,82649
1028,69; 4387,494;  191,206; 5878,642;73,78172
1029,24; 4369,340;  211,129; 5852,181;73,71341
1029,78; 4324,417;  207,437; 5700,258;74,95203
1030,33; 4231,648;  193,360; 5620,796;74,40508
1030,87; 4188,110;  217,744; 5544,412;74,53751
1031,42; 4121,648;  199,513; 5511,565;73,83464
1031,96; 4094,417;  219,206; 5417,181;74,55233
1032,51; 4011,802;  208,898; 5315,412;74,47163
1033,05; 3975,879;  224,821; 5261,565;74,47386
1033,60; 3888,340;  180,590; 5120,796;75,05254
1034,14; 3841,571;  219,206; 5065,642;74,74286
1034,69; 3817,417;  212,898; 5014,873;75,06327
1035,23; 3756,187;  221,437; 4951,873;74,72355
1035,77; 3713,417;  215,590; 4875,335;75,06478
1036,32; 3618,187;  191,206; 4794,950;74,43899
1036,86; 3625,263;  214,667; 4770,719;74,85859
1037,41; 3538,110;  224,360; 4664,796;74,62667
1037,95; 3505,033;  185,513; 4588,642;75,39001
1038,50; 3461,494;  200,283; 4514,027;75,60048
1039,04; 3467,033;  232,667; 4480,642;76,13899
1039,58; 3354,340;  198,052; 4391,950;75,25906
1040,13; 3333,725;  209,821; 4376,412;74,97506
1040,67; 3314,494;  246,283; 4344,258;74,87141
1041,21; 3273,110;  239,975; 4268,412;75,29310
1041,76; 3193,802;  202,590; 4130,027;76,16193
1042,30; 3154,187;  205,360; 4121,488;75,29954
1042,85; 3106,033;  207,360; 4036,796;75,69451
1043,39; 3057,263;  202,052; 3977,719;75,62138
1043,93; 3046,802;  230,129; 3965,719;75,40102
1044,48; 3019,417;  225,744; 3904,335;75,94412
1045,02; 2952,879;  209,590; 3804,258;76,31550
1045,56; 2947,187;  238,744; 3770,642;76,68518
1046,11; 2918,417;  230,590; 3755,873;76,24429
1046,65; 2861,725;  220,206; 3681,719;76,31111
1047,19; 2781,725;  204,975; 3618,412;75,48844
1047,74; 2762,187;  194,667; 3528,873;77,00542
1048,28; 2742,956;  223,206; 3535,412;76,07468
1048,82; 2742,187;  244,744; 3506,181;76,57492
1049,37; 2670,417;  223,975; 3444,642;75,96073
1049,91; 2651,340;  217,821; 3417,335;76,05904
1050,45; 2636,879;  227,590; 3377,719;76,48222
1050,99; 2596,340;  216,744; 3306,873;77,00637
1051,54; 2521,494;  210,975; 3262,335;75,72097
1052,08; 2541,494;  234,590; 3226,796;77,09710
1052,62; 2491,340;  239,283; 3178,642;76,61729
1053,16; 2446,802;  217,437; 3109,335;77,09004
1053,71; 2442,725;  225,667; 3088,027;77,45560
1054,25; 2395,263;  234,129; 3042,104;76,96417
1054,79; 2379,725;  223,821; 2991,258;77,90256
1055,33; 2297,494;  194,975; 2892,873;77,93175
1055,88; 2313,879;  228,590; 2926,796;77,28426
1056,42; 2303,110;  236,821; 2891,027;77,84960
1056,96; 2245,648;  236,898; 2825,873;77,58862
1057,50; 2218,417;  228,129; 2797,796;77,45316
1058,05; 2165,802;  220,052; 2745,796;77,03670
1058,59; 2169,187;  232,590; 2715,719;77,99016
1059,13; 2079,340;  206,206; 2624,642;77,45230
1059,67; 2094,110;  222,052; 2633,719;77,62504
1060,21; 2087,110;  227,437; 2581,181;79,00914
1060,76; 2047,263;  236,667; 2548,950;78,30341
1061,30; 2035,494;  250,513; 2537,565;78,04723
1061,84; 1997,956;  233,513; 2464,181;79,09930
1062,38; 1932,263;  214,821; 2407,796;78,31564
1062,92; 1982,110;  259,513; 2438,796;79,04418
1063,46; 1903,417;  238,206; 2377,873;77,82572
1064,01; 1868,802;  223,590; 2308,719;78,90215
1064,55; 1857,187;  229,437; 2278,181;79,45111
1065,09; 1801,802;  196,744; 2234,027;78,78424
1065,63; 1857,263;  258,898; 2275,642;79,25474
1066,17; 1841,648;  254,975; 2250,642;79,50589
1066,71; 1810,340;  246,667; 2217,719;79,33191
1067,25; 1767,110;  230,206; 2156,488;79,78600
1067,80; 1772,187;  243,360; 2149,719;80,19615
1068,34; 1762,802;  260,052; 2148,950;79,55697
1068,88; 1695,879;  225,283; 2081,258;79,23577
1069,42; 1726,725;  254,437; 2088,181;80,28865
1069,96; 1673,340;  238,590; 2014,565;80,78661
1070,50; 1687,725;  254,898; 2044,258;80,07484
1071,04; 1623,725;  217,898; 1960,027;80,69592
1071,58; 1637,417;  223,667; 1952,335;81,78265
1072,12; 1621,956;  229,283; 1930,642;81,85648
1072,66; 1594,110;  229,052; 1914,104;81,00983
1073,21; 1600,648;  240,744; 1917,950;81,08151
1073,75; 1563,033;  245,437; 1871,565;81,02655
1074,29; 1552,879;  234,283; 1851,258;81,54710
1074,83; 1534,648;  257,283; 1843,642;80,52180
1075,37; 1525,187;  249,129; 1828,412;80,79983
1075,91; 1493,802;  242,744; 1790,104;80,85113
1076,45; 1474,956;  235,590; 1773,950;80,56409
1076,99; 1465,340;  249,898; 1745,335;81,27676
1077,53; 1424,187;  220,052; 1713,488;80,62844
1078,07; 1431,110;  228,437; 1713,950;80,96009
1078,61; 1417,340;  234,360; 1670,258;82,38612
1079,15; 1386,494;  238,206; 1639,412;81,95002
1079,69; 1377,187;  225,744; 1633,027;81,82026
1080,23; 1384,340;  254,129; 1633,796;81,91914
1080,77; 1372,340;  267,052; 1646,104;80,14843
1081,31; 1310,879;  225,821; 1581,642;80,02956
1081,85; 1344,725;  249,283; 1560,950;83,51526
1082,39; 1298,187;  227,437; 1537,719;81,71901
1082,93; 1304,725;  246,975; 1544,412;81,52615
1083,47; 1254,571;  230,590; 1494,335;81,02753
1084,01; 1277,033;  247,590; 1503,719;81,95356
1084,55; 1238,879;  227,590; 1449,104;82,78979
1085,09; 1251,725;  252,744; 1463,412;82,51489
1085,63; 1235,571;  239,206; 1461,027;81,54756
1086,17; 1218,802;  228,129; 1410,642;83,77690
1086,71; 1189,879;  225,590; 1403,950;81,83312
1087,24; 1226,340;  251,821; 1425,873;83,00478
1087,78; 1195,417;  247,513; 1391,873;82,83269
1088,32; 1137,571;  229,052; 1347,181;81,25354
1088,86; 1150,187;  251,975; 1361,796;80,93300
1089,40; 1157,033;  245,744; 1326,104;84,35047
1089,94; 1110,802;  219,129; 1296,719;82,74694
1090,48; 1127,725;  254,744; 1307,642;82,91218
1091,02; 1107,417;  249,667; 1296,796;81,91447
1091,56; 1091,033;  248,667; 1270,873;82,40664
1092,10; 1072,725;  225,744; 1243,796;83,19623
1092,63; 1096,956;  262,821; 1270,335;82,79141
1093,17; 1064,956;  257,744; 1241,488;82,05502
1093,71; 1055,033;  228,052; 1212,488;84,00549
1094,25; 1059,110;  260,821; 1198,642;85,12161
1094,79; 1030,648;  236,206; 1177,181;84,42757
1095,33; 1022,033;  235,744; 1167,642;84,37494
1095,87; 1004,417;  229,667; 1172,104;82,20713
1096,40;  976,340;  218,437; 1133,258;82,84721
1096,94;  992,571;  242,437; 1127,027;84,80022
1097,48;  979,956;  245,283; 1121,258;83,86918
1098,02;  974,879;  233,129; 1089,796;86,58554
1098,56;  921,263;  203,437; 1066,027;83,21759
1099,10;  911,417;  219,206; 1061,412;82,19031
1099,63;  912,494;  203,821; 1055,335;83,22512
1100,17;  925,725;  247,744; 1059,642;83,50565
1100,71;  943,417;  261,667; 1069,719;84,36958

