
Integration time [ms]: 120,000
Averaging Nr. [scans]: 13
Smoothing Nr. [pixels]: 0
Data measured with spectrometer [name]: 2009305U1
Wave   ;Sample   ;Dark     ;Reference;Reflectance
[nm]   ;[counts] ;[counts] ;[counts] ;[%]

 175,72;  184,301;  184,295;  197,827; 0,04251
 176,32;  210,693;  214,370;  203,218; 0,00000
 176,92;  230,615;  226,679;  235,896;42,70477
 177,52;  241,248;  240,910;  250,332; 3,58476
 178,12;  218,507;  216,986;  204,819; 0,00000
 178,72;  246,848;  243,524;  236,057; 0,00000
 179,32;  247,136;  243,370;  224,940; 0,00000
 179,92;  231,681;  243,217;  229,841; 0,00000
 180,52;  231,184;  225,450;  240,248;38,74733
 181,12;  237,658;  237,140;  229,870; 0,00000
 181,73;  261,110;  257,064;  249,292; 0,00000
 182,33;  307,594;  300,295;  311,285;66,41738
 182,93;  255,099;  244,987;  256,834;85,35181
 183,53;  224,456;  222,678;  218,471; 0,00000
 184,13;  230,948;  224,601;  211,837; 0,00000
 184,73;  261,036;  246,985;  256,064;154,76070
 185,33;  247,867;  213,130;  330,659;29,55629
 185,93;  283,529;  223,206;  353,080;46,44718
 186,53;  279,901;  234,514;  367,087;34,23560
 187,13;  315,298;  264,669;  410,813;34,64339
 187,73;  273,591;  220,052;  354,845;39,71940
 188,33;  273,608;  230,975;  353,340;34,84093
 188,93;  289,649;  230,050;  379,969;39,75424
 189,53;  306,570;  237,740;  379,819;48,44508
 190,13;  323,849;  264,584;  409,056;41,02184
 190,73;  272,624;  205,278;  349,020;46,85193
 191,34;  309,195;  255,280;  379,229;43,49756
 191,94;  268,846;  221,512;  359,021;34,42248
 192,54;  287,878;  246,055;  399,315;27,28893
 193,14;  298,380;  247,054;  378,659;39,00041
 193,74;  288,214;  238,130;  381,571;34,91584
 194,34;  294,207;  232,131;  383,271;41,07199
 194,94;  248,308;  212,361;  353,007;25,55832
 195,54;  241,433;  180,745;  336,212;39,03546
 196,14;  277,921;  205,593;  361,941;46,26079
 196,74;  251,144;  205,207;  347,908;32,19141
 197,34;  236,225;  183,593;  344,264;32,75745
 197,94;  276,407;  212,515;  370,868;40,34758
 198,54;  266,441;  215,285;  382,971;30,50720
 199,14;  265,888;  203,440;  392,451;33,03949
 199,74;  249,807;  199,901;  383,564;27,17212
 200,34;  248,313;  183,594;  400,590;29,82483
 200,94;  283,841;  211,516;  423,952;34,04549
 201,54;  269,758;  200,055;  446,689;28,26165
 202,14;  290,302;  196,210;  478,861;33,28920
 202,74;  286,762;  192,978;  483,579;32,27222
 203,34;  265,367;  187,672;  504,213;24,54525
 203,94;  255,587;  158,056;  517,737;27,11591
 204,54;  328,945;  228,208;  600,447;27,06247
 205,14;  301,793;  184,055;  623,865;26,77020
 205,74;  349,377;  226,825;  716,986;25,00229
 206,34;  321,904;  194,440;  740,392;23,34704
 206,94;  357,787;  202,517;  804,099;25,81029
 207,54;  337,782;  175,979;  831,022;24,70116
 208,14;  377,655;  197,517;  948,616;23,98319
 208,74;  396,902;  194,824; 1013,495;24,68363
 209,34;  406,295;  198,440; 1109,964;22,80303
 209,94;  447,286;  210,594; 1218,612;23,48097
 210,54;  447,251;  204,902; 1334,803;21,44870
 211,14;  493,834;  204,978; 1439,231;23,40328
 211,73;  490,681;  209,363; 1548,033;21,01478
 212,33;  541,615;  203,901; 1686,146;22,78395
 212,93;  527,065;  196,978; 1784,114;20,79765
 213,53;  520,051;  167,440; 1836,377;21,12789
 214,13;  531,918;  181,057; 1934,305;20,01206
 214,73;  537,840;  182,056; 1955,553;20,06119
 215,33;  546,055;  158,825; 1998,304;21,05111
 215,93;  604,811;  184,748; 2108,971;21,83027
 216,53;  597,825;  145,978; 2218,070;21,80634
 217,13;  682,613;  198,825; 2427,407;21,70833
 217,73;  729,341;  183,287; 2687,121;21,80870
 218,33;  743,926;  150,288; 2895,620;21,62356
 218,93;  845,291;  164,366; 3200,675;22,42610
 219,53;  967,767;  179,211; 3492,118;23,80256
 220,13; 1024,214;  143,442; 3827,770;23,90592
 220,73; 1153,046;  180,286; 4235,916;23,98542
 221,32; 1249,363;  171,132; 4657,033;24,03600
 221,92; 1397,749;  180,518; 5094,689;24,76980
 222,52; 1516,770;  154,672; 5531,414;25,33315
 223,12; 1651,833;  167,133; 6014,909;25,38914
 223,72; 1800,829;  186,902; 6441,715;25,80295
 224,32; 1929,235;  178,441; 6839,074;26,28571
 224,92; 2051,815;  172,056; 7167,902;26,86964
 225,52; 2180,475;  184,132; 7617,290;26,85726
 226,12; 2343,600;  186,671; 7956,323;27,76094
 226,72; 2443,559;  156,902; 8313,455;28,03460
 227,31; 2556,908;  145,517; 8745,590;28,03918
 227,91; 2772,788;  180,825; 9216,982;28,68435
 228,51; 2915,664;  171,593; 9563,212;29,21829
 229,11; 3081,053;  163,902;10099,008;29,36205
 229,71; 3215,034;  165,363;10411,443;29,76427
 230,31; 3393,108;  156,980;10827,400;30,32803
 230,91; 3524,182;  149,362;11244,271;30,41773
 231,51; 3687,843;  156,364;11547,641;31,00161
 232,10; 3836,347;  152,980;11871,946;31,43082
 232,70; 4033,669;  166,900;12211,425;32,10395
 233,30; 4165,825;  185,671;12495,092;32,33421
 233,90; 4290,789;  163,825;12632,843;33,09775
 234,50; 4406,056;  171,056;12739,901;33,69442
 235,10; 4465,738;  165,595;12845,055;33,91424
 235,70; 4548,697;  179,209;12911,744;34,31750
 236,29; 4616,893;  187,132;12930,451;34,76144
 236,89; 4588,991;  164,901;12878,370;34,79845
 237,49; 4633,197;  182,133;12774,044;35,34860
 238,09; 4528,135;  166,979;12520,469;35,30303
 238,69; 4527,839;  190,823;12205,593;36,09737
 239,29; 4406,235;  159,671;11880,440;36,23110
 239,89; 4302,027;  180,285;11544,773;36,26861
 240,48; 4130,252;  167,440;11175,374;35,99960
 241,08; 3970,289;  165,902;10767,850;35,88385
 241,68; 3853,374;  191,825;10447,975;35,70101
 242,28; 3689,473;  158,594;10063,107;35,64919
 242,88; 3596,836;  189,826; 9767,110;35,57386
 243,48; 3430,355;  200,517; 9498,623;34,73652
 244,07; 3266,444;  182,594; 9211,194;34,15645
 244,67; 3181,184;  180,440; 9046,766;33,84427
 245,27; 3036,681;  181,901; 8874,879;32,84007
 245,87; 2977,705;  192,057; 8875,004;32,08183
 246,47; 2844,410;  179,517; 8785,359;30,96609
 247,06; 2765,524;  172,133; 8792,469;30,08458
 247,66; 2692,080;  178,363; 8906,597;28,79983
 248,26; 2686,984;  193,978; 9052,033;28,14394
 248,86; 2630,477;  184,670; 9272,355;26,91342
 249,46; 2565,771;  140,441; 9457,066;26,03228
 250,05; 2613,262;  182,748; 9876,916;25,07192
 250,65; 2581,781;  162,516;10290,465;23,88702
 251,25; 2605,471;  169,748;10800,132;22,91284
 251,85; 2609,358;  169,978;11396,861;21,72803
 252,44; 2651,943;  140,363;12093,784;21,01139
 253,04; 2704,585;  186,594;12820,762;19,93001
 253,64; 2738,479;  140,516;13630,311;19,25872
 254,24; 2834,189;  183,671;14600,418;18,38500
 254,84; 2875,694;  166,518;15538,297;17,62435
 255,43; 2972,336;  182,440;16577,597;17,01659
 256,03; 3063,234;  166,747;17554,421;16,65828
 256,63; 3150,570;  177,055;18707,428;16,04671
 257,23; 3205,425;  166,824;19583,703;15,64928
 257,82; 3281,057;  178,208;20535,007;15,24232
 258,42; 3313,289;  143,746;21378,040;14,92653
 259,02; 3429,340;  174,132;22303,139;14,71014
 259,62; 3478,208;  169,746;22953,842;14,52093
 260,21; 3525,653;  170,286;23373,909;14,46053
 260,81; 3574,070;  177,287;23901,634;14,31771
 261,41; 3608,039;  156,516;24311,688;14,28896
 262,01; 3690,237;  203,823;24746,197;14,20569
 262,60; 3724,964;  164,593;24958,319;14,35997
 263,20; 3797,976;  163,286;25316,718;14,45008
 263,80; 3851,531;  193,438;25480,421;14,46631
 264,40; 3906,829;  156,284;25588,227;14,74738
 264,99; 3983,314;  179,592;25805,311;14,84338
 265,59; 4100,358;  171,283;25922,201;15,25800
 266,19; 4172,526;  163,053;25947,534;15,54995
 266,78; 4302,673;  198,284;26206,252;15,78128
 267,38; 4342,977;  168,284;26133,399;16,07809
 267,98; 4401,433;  158,592;26068,556;16,37533
 268,58; 4545,710;  176,130;26086,534;16,86419
 269,17; 4628,469;  171,437;26104,131;17,18692
 269,77; 4703,725;  180,900;25874,579;17,60287
 270,37; 4773,070;  150,438;25739,457;18,06490
 270,96; 4892,731;  201,823;25557,498;18,50043
 271,56; 4887,227;  165,208;25347,487;18,75135
 272,16; 5017,610;  168,439;25178,472;19,38890
 272,75; 5051,157;  168,977;25026,209;19,64088
 273,35; 5207,428;  178,900;25041,886;20,22495
 273,95; 5284,922;  169,054;24932,476;20,65897
 274,54; 5424,094;  154,979;25007,139;21,20184
 275,14; 5659,631;  184,362;25444,989;21,67511
 275,74; 5756,587;  143,362;25424,154;22,20352
 276,33; 6027,133;  180,824;25957,897;22,68027
 276,93; 6249,175;  177,517;26382,491;23,16987
 277,53; 6451,427;  179,286;26841,795;23,52420
 278,12; 6736,810;  162,362;27369,205;24,16468
 278,72; 7017,115;  186,055;27954,253;24,60030
 279,32; 7302,034;  165,593;28613,941;25,08561
 279,91; 7677,723;  157,055;29348,821;25,76298
 280,51; 7954,784;  176,594;29967,436;26,10933
 281,11; 8293,225;  183,132;30763,341;26,52072
 281,70; 8565,166;  153,901;31077,040;27,20055
 282,30; 8884,842;  154,901;31781,102;27,60351
 282,90; 9216,711;  159,901;32184,575;28,28073
 283,49; 9508,808;  186,362;32664,692;28,70359
 284,09; 9834,447;  195,978;33202,256;29,20193
 284,69;10178,600;  193,286;33508,839;29,97193
 285,28;10523,913;  190,824;33869,912;30,68103
 285,88;10786,325;  203,669;34070,714;31,24765
 286,47;11027,408;  168,208;34116,308;31,98765
 287,07;11308,346;  205,132;34231,136;32,63156
 287,67;11654,817;  189,594;34321,469;33,59095
 288,26;11943,699;  166,440;34320,234;34,48302
 288,86;12176,501;  162,978;34296,553;35,19562
 289,46;12667,406;  176,824;34525,048;36,36456
 290,05;12890,321;  163,055;34572,326;36,98790
 290,65;13390,888;  172,439;34708,084;38,27480
 291,24;13793,445;  183,901;34922,725;39,17676
 291,84;14207,724;  192,901;35024,352;40,23612
 292,44;14562,106;  166,979;35126,077;41,17705
 293,03;15047,658;  225,517;35254,139;42,31437
 293,63;15368,290;  178,285;35440,711;43,07703
 294,22;15825,474;  197,439;35606,619;44,13554
 294,82;15975,571;  176,900;35589,791;44,61277
 295,41;16063,859;  160,362;35295,810;45,26340
 296,01;16285,574;  214,054;35187,567;45,95340
 296,61;16426,047;  175,286;34875,487;46,83189
 297,20;16343,271;  184,977;34411,187;47,21029
 297,80;16531,384;  186,056;34292,246;47,92481
 298,39;16495,512;  149,747;33772,784;48,61478
 298,99;16459,075;  174,516;33673,670;48,61185
 299,58;16521,265;  185,440;33550,037;48,96155
 300,18;16543,792;  197,902;33349,139;49,30703
 300,78;16439,372;  165,209;32991,923;49,57597
 301,37;16588,052;  195,361;32963,293;50,02663
 301,97;16691,523;  188,363;32983,106;50,32258
 302,56;16611,594;  174,208;32992,322;50,08632
 303,16;16587,264;  160,362;32874,154;50,21400
 303,75;16627,290;  173,825;32935,769;50,22127
 304,35;16843,666;  172,210;33155,594;50,54501
 304,94;16843,111;  178,516;33171,055;50,51019
 305,54;16823,671;  201,363;33102,648;50,52176
 306,13;16837,675;  148,902;33002,099;50,79802
 306,73;16681,667;  169,748;32694,319;50,76752
 307,33;16702,636;  192,517;32634,839;50,89068
 307,92;16682,079;  173,594;32825,158;50,55955
 308,52;16900,871;  167,516;33296,648;50,50949
 309,11;17152,475;  167,592;33765,516;50,55337
 309,71;17231,716;  147,515;33981,399;50,49435
 310,30;17388,686;  156,517;34257,652;50,53254
 310,90;17539,378;  182,824;34515,883;50,55347
 311,49;17527,410;  171,593;34722,128;50,23313
 312,09;17567,905;  147,594;34879,850;50,15600
 312,68;17754,436;  214,055;35222,454;50,10335
 313,28;17702,387;  152,209;35442,388;49,73105
 313,87;17720,079;  140,747;35588,425;49,59234
 314,47;17730,212;  165,362;35807,003;49,28182
 315,06;17735,631;  149,594;36000,703;49,05298
 315,66;17697,520;  158,594;36164,542;48,71119
 316,25;17582,309;  143,977;36048,139;48,56911
 316,85;17523,995;  140,748;36223,780;48,17568
 317,44;17431,502;  163,592;36375,223;47,68609
 318,04;17332,824;  133,131;36306,670;47,54772
 318,63;17203,762;  142,825;36398,751;47,05696
 319,22;17157,490;  175,670;36628,384;46,58589
 319,82;17004,420;  167,132;36698,242;46,09027
 320,41;16828,729;  180,593;36505,044;45,83176
 321,01;16627,864;  164,902;36727,751;45,02648
 321,60;16559,316;  161,824;36660,883;44,92579
 322,20;16322,436;  163,286;36746,491;44,17095
 322,79;16197,034;  190,901;36793,982;43,72892
 323,39;16054,531;  154,287;36744,063;43,45543
 323,98;15840,594;  149,748;36728,802;42,89571
 324,58;15625,889;  161,670;36565,773;42,47933
 325,17;15386,838;  177,285;36335,674;42,06369
 325,76;15209,279;  189,286;36205,908;41,70295
 326,36;14862,118;  160,363;35731,377;41,33072
 326,95;14585,940;  186,286;35447,619;40,83695
 327,55;14230,081;  151,516;35084,187;40,30200
 328,14;13873,234;  164,517;34533,095;39,88736
 328,74;13623,829;  193,131;34246,824;39,43977
 329,33;13273,394;  177,286;33765,476;38,99022
 329,92;12901,832;  153,361;33152,311;38,63296
 330,52;12475,800;  167,056;32528,495;38,03522
 331,11;12174,719;  166,901;32082,469;37,62370
 331,71;11781,646;  170,132;31485,282;37,07954
 332,30;11491,804;  181,824;31033,978;36,65864
 332,89;11138,349;  197,748;30421,414;36,19879
 333,49;10778,420;  180,132;29866,897;35,70038
 334,08;10506,140;  169,439;29472,601;35,27504
 334,68;10188,963;  171,670;29057,282;34,67918
 335,27; 9936,695;  171,210;28651,099;34,28906
 335,86; 9714,719;  211,439;28407,853;33,70386
 336,46; 9438,514;  189,287;28198,817;33,02171
 337,05; 9231,837;  167,132;27914,989;32,66813
 337,65; 9052,520;  158,209;27835,714;32,13552
 338,24; 8987,079;  211,671;27792,121;31,81749
 338,83; 8805,110;  188,363;27679,637;31,34357
 339,43; 8635,743;  167,977;27600,626;30,86747
 340,02; 8455,300;  171,670;27526,557;30,28209
 340,61; 8388,151;  144,747;27517,117;30,11578
 341,21; 8306,752;  204,977;27578,901;29,59669
 341,80; 8121,873;  173,208;27446,505;29,14449
 342,40; 8029,524;  181,210;27575,088;28,64988
 342,99; 7926,426;  168,132;27764,568;28,11339
 343,58; 7886,086;  173,825;27831,015;27,88520
 344,18; 7808,552;  181,209;27956,557;27,46084
 344,77; 7734,938;  156,362;28303,414;26,92494
 345,36; 7714,248;  151,747;28636,850;26,54897
 345,96; 7714,892;  189,978;28914,802;26,19655
 346,55; 7620,580;  166,056;29104,704;25,75975
 347,14; 7589,039;  146,902;29529,308;25,32855
 347,74; 7554,142;  140,749;29922,693;24,89224
 348,33; 7639,686;  162,057;30594,924;24,57090
 348,92; 7659,810;  173,288;31239,689;24,09845
 349,52; 7689,667;  140,596;31731,766;23,89614
 350,11; 7637,703;  169,054;31934,179;23,51210
 350,70; 7523,405;  168,824;32034,282;23,08010
 351,29; 7378,175;  145,207;31703,695;22,91925
 351,89; 7264,380;  168,823;31755,084;22,46406
 352,48; 7108,735;  133,824;31716,755;22,08443
 353,07; 7044,957;  170,979;31680,616;21,81548
 353,67; 6886,063;  177,827;31566,510;21,37151
 354,26; 6735,442;  164,902;31349,663;21,06971
 354,85; 6632,049;  170,517;31122,539;20,87596
 355,45; 6473,064;  147,439;30946,868;20,53812
 356,04; 6398,961;  168,441;30854,389;20,30415
 356,63; 6238,682;  191,901;30606,183;19,88139
 357,22; 6148,631;  178,976;30532,776;19,66691
 357,82; 5991,693;  176,284;30253,274;19,33508
 358,41; 5915,211;  178,901;30189,604;19,11421
 359,00; 5832,300;  157,285;29990,366;19,02256
 359,60; 5724,214;  173,594;29884,920;18,68183
 360,19; 5621,653;  173,056;29680,967;18,46487
 360,78; 5503,715;  176,978;29623,542;18,08950
 361,37; 5386,018;  174,670;29305,271;17,88960
 361,97; 5344,456;  174,901;29251,571;17,77905
 362,56; 5209,459;  156,362;28891,787;17,58491
 363,15; 5148,398;  186,285;28685,113;17,41164
 363,74; 5063,917;  180,669;28221,549;17,41475
 364,34; 4917,671;  202,977;27871,436;17,03996
 364,93; 4803,188;  151,516;27498,227;17,00999
 365,52; 4695,027;  143,978;27014,777;16,93678
 366,11; 4618,241;  164,285;26756,337;16,74920
 366,71; 4533,182;  162,285;26257,077;16,75007
 367,30; 4440,750;  173,901;25967,293;16,54241
 367,89; 4414,267;  193,132;25702,454;16,54742
 368,48; 4305,908;  173,669;25454,546;16,34531
 369,07; 4262,789;  174,209;25000,898;16,46849
 369,67; 4202,310;  190,362;24715,787;16,35832
 370,26; 4106,088;  171,594;24476,894;16,18780
 370,85; 4091,547;  172,670;24129,037;16,35839
 371,44; 4031,655;  161,824;23912,824;16,29334
 372,03; 3971,535;  144,977;23667,022;16,26796
 372,63; 3941,492;  133,055;23322,396;16,42322
 373,22; 3885,283;  158,824;23081,220;16,25685
 373,81; 3858,913;  151,285;22752,374;16,40464
 374,40; 3835,022;  167,594;22517,835;16,40889
 374,99; 3782,077;  158,670;22259,875;16,39461
 375,59; 3769,787;  150,209;21937,832;16,61300
 376,18; 3783,778;  188,132;21922,073;16,54392
 376,77; 3732,564;  171,209;21540,934;16,66542
 377,36; 3778,723;  193,132;21607,432;16,74391
 377,95; 3753,942;  172,208;21250,304;16,99268
 378,55; 3728,788;  158,286;21130,059;17,02527
 379,14; 3759,705;  177,978;21056,077;17,15543
 379,73; 3780,317;  169,593;20937,146;17,38637
 380,32; 3811,012;  189,055;21018,388;17,38873
 380,91; 3788,030;  159,977;20825,454;17,55611
 381,50; 3843,916;  174,516;20808,286;17,78347
 382,10; 3844,858;  146,670;20658,004;18,02997
 382,69; 3861,036;  143,747;20707,549;18,07686
 383,28; 3919,857;  180,131;20610,989;18,30430
 383,87; 3949,359;  166,516;20470,509;18,63103
 384,46; 3950,625;  147,669;20359,472;18,81552
 385,05; 4045,206;  190,362;20436,930;19,03949
 385,64; 4064,395;  174,131;20410,798;19,22384
 386,24; 4059,096;  146,284;20377,784;19,34020
 386,83; 4180,368;  178,669;20427,340;19,76277
 387,42; 4239,232;  186,901;20495,333;19,95393
 388,01; 4325,077;  178,053;20840,835;20,07002
 388,60; 4395,738;  172,977;20987,300;20,28776
 389,19; 4511,040;  147,514;21203,105;20,72384
 389,78; 4631,537;  167,052;21483,589;20,94376
 390,37; 4832,419;  209,899;21952,014;21,26067
 390,96; 4895,892;  183,669;22077,604;21,52296
 391,56; 5016,733;  176,359;22219,677;21,95846
 392,15; 5111,196;  153,822;22464,999;22,21924
 392,74; 5173,467;  142,358;22689,519;22,31371
 393,33; 5375,200;  151,282;22946,061;22,91717
 393,92; 5548,683;  169,281;23452,229;23,10447
 394,51; 5675,843;  147,590;23615,113;23,55704
 395,10; 5784,930;  190,741;23826,394;23,66843
 395,69; 5898,146;  167,357;23919,584;24,12738
 396,28; 5980,214;  180,740;24011,599;24,33598
 396,87; 6088,623;  178,662;24071,694;24,73508
 397,46; 6198,157;  175,661;24241,631;25,02495
 398,06; 6340,860;  196,121;24465,224;25,31918
 398,65; 6476,733;  180,272;24479,366;25,91233
 399,24; 6597,636;  191,272;24716,729;26,12128
 399,83; 6646,743;  161,268;24731,493;26,39567
 400,42; 6799,209;  198,495;24846,525;26,77989
 401,01; 6879,782;  173,952;24919,751;27,09886
 401,60; 6977,992;  186,023;24898,145;27,48436
 402,19; 7073,481;  204,788;24867,129;27,85093
 402,78; 7135,344;  206,550;24866,973;28,09681
 403,37; 7140,069;  190,467;24672,257;28,38682
 403,96; 7234,198;  195,689;24575,255;28,87053
 404,55; 7269,319;  193,450;24500,227;29,11068
 405,14; 7316,756;  179,288;24271,108;29,62611
 405,73; 7356,784;  198,356;24179,713;29,84997
 406,32; 7421,376;  193,811;24054,210;30,29105
 406,91; 7426,412;  192,804;23818,329;30,61777
 407,50; 7440,150;  190,877;23736,881;30,78770
 408,09; 7425,208;  163,105;23384,733;31,27301
 408,68; 7522,271;  191,103;23312,260;31,70762
 409,27; 7551,608;  170,029;23122,023;32,16095
 409,86; 7626,159;  173,727;22920,391;32,76275
 410,45; 7688,249;  210,424;22866,854;33,00531
 411,04; 7664,967;  213,813;22785,056;33,01171
 411,63; 7683,361;  202,512;22479,516;33,58104
 412,22; 7703,636;  209,902;22259,595;33,98566
 412,81; 7661,137;  216,520;22037,661;34,11654
 413,40; 7656,835;  217,907;21662,955;34,68832
 413,99; 7667,703;  242,829;21353,178;35,17172
 414,58; 7533,646;  196,907;20932,662;35,38207
 415,17; 7537,517;  193,520;20718,005;35,78164
 415,76; 7559,682;  187,979;20643,920;36,03698
 416,35; 7591,663;  181,365;20489,360;36,48956
 416,94; 7674,073;  202,595;20508,474;36,79466
 417,53; 7855,883;  183,212;20824,269;37,17189
 418,12; 7924,134;  177,443;20809,060;37,54766
 418,71; 8190,703;  209,753;21164,698;38,08624
 419,30; 8286,377;  200,213;21246,610;38,42066
 419,89; 8441,488;  189,521;21466,984;38,78266
 420,48; 8652,178;  216,368;21774,013;39,13141
 421,07; 8688,389;  214,677;21823,706;39,21376
 421,66; 8768,681;  170,139;21769,149;39,80989
 422,25; 8789,937;  200,065;21749,560;39,86113
 422,84; 8890,102;  215,834;21735,846;40,30791
 423,43; 8858,876;  187,449;21496,941;40,69279
 424,02; 8816,856;  212,065;21197,095;41,00443
 424,60; 8658,372;  201,067;20720,609;41,21586
 425,19; 8651,239;  202,527;20455,125;41,71668
 425,78; 8708,514;  214,374;20434,843;42,00763
 426,37; 8747,124;  223,067;20259,517;42,54275
 426,96; 8746,274;  215,990;20078,784;42,94604
 427,55; 8717,859;  190,069;19928,459;43,20408
 428,14; 8674,113;  186,223;19699,909;43,49711
 428,73; 8698,721;  203,914;19608,876;43,77647
 429,32; 8738,369;  214,759;19553,521;44,07526
 429,91; 8792,667;  224,760;19577,158;44,27310
 430,50; 8753,857;  215,838;19393,426;44,52082
 431,08; 8722,166;  234,993;19221,291;44,70157
 431,67; 8774,235;  275,917;19138,650;45,05348
 432,26; 8699,064;  281,610;18977,273;45,02357
 432,85; 8623,843;  309,148;18636,042;45,36882
 433,44; 8471,747;  295,995;18198,826;45,66737
 434,03; 8358,532;  317,381;17848,328;45,86832
 434,62; 8226,711;  278,457;17497,617;46,15936
 435,21; 8205,431;  289,840;17252,954;46,66355
 435,79; 8137,648;  281,150;17115,335;46,66990
 436,38; 8156,691;  287,151;17034,350;46,99018
 436,97; 8207,975;  283,228;16888,343;47,72473
 437,56; 8118,096;  276,307;16705,029;47,73219
 438,15; 8105,483;  261,999;16700,325;47,71462
 438,74; 8207,283;  267,999;16648,307;48,46847
 439,33; 8247,402;  244,153;16696,091;48,64624
 439,91; 8292,755;  207,769;16760,981;48,84240
 440,50; 8423,234;  251,538;16775,223;49,45444
 441,09; 8502,554;  252,386;16861,179;49,67350
 441,68; 8552,498;  235,310;16873,180;49,98950
 442,27; 8592,053;  211,617;16813,330;50,47935
 442,86; 8605,597;  202,235;16820,931;50,56571
 443,44; 8659,866;  213,927;16859,015;50,74133
 444,03; 8680,008;  267,928;16906,946;50,55635
 444,62; 8683,759;  223,774;16783,283;51,08838
 445,21; 8650,983;  235,158;16569,272;51,52300
 445,80; 8608,727;  246,621;16480,177;51,51124
 446,39; 8479,416;  256,236;16175,169;51,65660
 446,97; 8412,715;  203,776;16041,588;51,83127
 447,56; 8397,298;  227,624;15799,214;52,46525
 448,15; 8305,548;  211,545;15600,119;52,59749
 448,74; 8217,842;  240,853;15439,423;52,48513
 449,33; 8167,231;  222,085;15224,445;52,95931
 449,91; 8034,826;  224,163;15042,083;52,71093
 450,50; 7995,311;  207,317;14791,434;53,40052
 451,09; 7944,967;  238,394;14693,650;53,31329
 451,68; 7941,091;  254,625;14617,610;53,51579
 452,26; 7893,897;  229,395;14563,259;53,47129
 452,85; 7893,999;  221,010;14423,878;54,02422
 453,44; 7881,320;  240,320;14445,120;53,79168
 454,03; 7866,117;  214,088;14462,032;53,70620
 454,61; 7850,695;  200,627;14358,695;54,03327
 455,20; 8029,538;  239,320;14595,285;54,26467
 455,79; 8041,629;  242,165;14593,882;54,34517
 456,38; 8099,257;  233,552;14710,707;54,33184
 456,97; 8194,114;  222,475;14729,974;54,94840
 457,55; 8199,997;  225,860;14714,395;55,03756
 458,14; 8226,187;  244,475;14698,813;55,22019
 458,73; 8157,679;  236,860;14631,509;55,02614
 459,31; 8288,122;  251,092;14638,795;55,86041
 459,90; 8296,066;  256,322;14756,484;55,44589
 460,49; 8438,009;  289,630;14762,370;56,30156
 461,08; 8466,055;  215,939;14935,813;56,04746
 461,66; 8530,710;  239,554;14978,165;56,25466
 462,25; 8586,116;  239,093;15091,202;56,20093
 462,84; 8684,815;  260,631;15126,850;56,66662
 463,43; 8632,743;  206,633;15070,583;56,68823
 464,01; 8634,777;  223,249;15068,459;56,66156
 464,60; 8631,108;  258,171;14952,986;56,97885
 465,19; 8529,608;  210,711;14738,074;57,26364
 465,77; 8509,876;  222,788;14734,030;57,10805
 466,36; 8435,069;  237,710;14633,092;56,94437
 466,95; 8290,806;  226,095;14286,349;57,35822
 467,53; 8133,416;  230,558;13982,086;57,46894
 468,12; 7956,551;  249,789;13718,657;57,21907
 468,71; 7873,481;  235,788;13488,129;57,63278
 469,29; 7692,401;  219,405;13240,393;57,39192
 469,88; 7554,443;  214,405;13028,273;57,28199
 470,47; 7681,732;  278,176;13160,903;57,46886
 471,06; 7628,931;  229,099;13112,504;57,43693
 471,64; 7733,114;  243,637;13188,973;57,85464
 472,23; 7690,669;  215,562;13259,991;57,30497
 472,81; 7736,773;  216,946;13370,405;57,16996
 473,40; 7854,198;  220,331;13543,757;57,29658
 473,99; 7986,465;  285,639;13706,083;57,38131
 474,57; 7998,615;  218,793;13785,772;57,34380
 475,16; 8142,994;  240,715;13932,020;57,71750
 475,75; 8202,805;  245,640;13994,885;57,87347
 476,33; 8231,082;  254,795;14186,735;57,25180
 476,92; 8334,310;  248,485;14189,010;58,00230
 477,51; 8349,319;  245,256;14263,845;57,80940
 478,09; 8384,776;  255,333;14299,113;57,88643
 478,68; 8292,837;  255,564;14160,805;57,80032
 479,27; 8351,448;  266,794;14300,900;57,60719
 479,85; 8340,503;  243,871;14296,175;57,61782
 480,44; 8441,528;  236,410;14430,812;57,80531
 481,02; 9538,099;  257,949;16322,615;57,76746
 481,61;10666,689;  266,334;18114,172;58,27235
 482,20;11311,882;  272,565;19333,007;57,91742
 482,78;11778,986;  286,641;20043,999;58,16742
 483,37;12108,885;  279,797;20606,688;58,19428
 483,95;12161,029;  307,720;20751,073;57,98124
 484,54;12337,391;  318,334;20964,520;58,21442
 485,13;12292,364;  285,106;20814,300;58,48869
 485,71;12100,840;  273,721;20515,993;58,42783
 486,30;11981,990;  309,336;20288,875;58,42304
 486,88;11708,608;  334,567;19782,344;58,48505
 487,47;11317,227;  323,413;19041,583;58,73338
 488,05;10727,040;  301,029;18078,575;58,64707
 488,64; 9922,814;  300,645;16705,905;58,65295
 489,23; 8694,894;  326,337;14607,392;58,59901
 489,81; 7552,318;  306,414;12768,341;58,14433
 490,40; 7208,932;  257,184;12240,729;58,01078
 490,98; 7119,274;  260,261;12005,524;58,39812
 491,57; 7021,214;  285,568;11892,209;58,03269
 492,15; 6993,473;  262,492;11840,935;58,13373
 492,74; 6905,849;  270,260;11759,520;57,75471
 493,32; 6874,944;  281,492;11654,935;57,97235
 493,91; 6813,552;  260,415;11528,715;58,15550
 494,50; 6771,798;  274,648;11528,411;57,73313
 495,08; 6699,468;  254,340;11442,206;57,60820
 495,67; 6712,254;  270,261;11414,371;57,80626
 496,25; 6628,431;  214,570;11345,056;57,62427
 496,84; 6620,327;  235,031;11293,367;57,74192
 497,42; 6601,845;  220,647;11254,693;57,83190
 498,01; 6535,534;  240,569;11201,206;57,43247
 498,59; 6471,451;  210,340;11126,499;57,35636
 499,18; 6473,185;  207,646;11063,341;57,71660
 499,76; 6438,136;  237,493;10956,525;57,84705
 500,35; 6319,733;  225,879;10782,042;57,72793
 500,93; 6267,570;  207,570;10750,708;57,47814
 501,52; 6273,361;  214,724;10719,184;57,67680
 502,10; 6214,983;  224,495;10611,104;57,67511
 502,69; 6111,098;  216,649;10495,712;57,34422
 503,27; 6000,458;  202,263;10271,935;57,58077
 503,86; 5974,629;  221,187;10225,434;57,50999
 504,44; 5879,671;  201,188;10119,544;57,25227
 505,03; 5740,305;  192,265; 9807,976;57,69766
 505,61; 5679,102;  205,419; 9726,177;57,49209
 506,19; 5604,834;  221,496; 9609,778;57,34104
 506,78; 5451,087;  188,881; 9403,046;57,10996
 507,36; 5388,169;  203,188; 9217,753;57,51783
 507,95; 5282,478;  202,882; 9100,522;57,08925
 508,53; 5237,209;  209,881; 8975,529;57,35261
 509,12; 5130,574;  215,959; 8819,105;57,12579
 509,70; 5030,478;  224,267; 8661,870;56,96180
 510,29; 4937,050;  219,959; 8533,361;56,74079
 510,87; 4819,327;  200,958; 8326,434;56,83813
 511,46; 4719,602;  202,420; 8120,962;57,04563
 512,04; 4620,608;  203,805; 8019,401;56,51268
 512,62; 4516,905;  211,420; 7889,691;56,07363
 513,21; 4420,479;  190,190; 7701,885;56,31604
 513,79; 4346,584;  201,961; 7601,439;56,01237
 514,38; 4249,098;  184,345; 7395,874;56,36464
 514,96; 4179,198;  228,807; 7330,768;55,62395
 515,54; 4096,866;  190,345; 7184,534;55,85381
 516,13; 4042,128;  207,423; 7129,475;55,39838
 516,71; 3968,337;  206,269; 7003,289;55,34878
 517,30; 3895,316;  187,347; 6848,754;55,66345
 517,88; 3849,384;  220,193; 6809,864;55,07393
 518,46; 3756,084;  196,270; 6688,106;54,83524
 519,05; 3725,783;  199,886; 6640,044;54,74861
 519,63; 3730,666;  202,347; 6611,479;55,05143
 520,22; 3706,742;  215,195; 6509,927;55,46778
 520,80; 3588,086;  217,733; 6416,831;54,36843
 521,38; 3613,185;  220,271; 6387,824;55,01232
 521,97; 3570,246;  200,964; 6374,077;54,57995
 522,55; 3560,115;  217,118; 6382,549;54,22162
 523,13; 3572,683;  187,965; 6351,919;54,91148
 523,72; 3548,152;  198,116; 6328,985;54,64210
 524,30; 3634,717;  221,427; 6465,062;54,66832
 524,89; 3619,744;  191,426; 6498,597;54,35587
 525,47; 3700,151;  208,196; 6625,784;54,41226
 526,05; 3713,046;  183,350; 6706,235;54,11250
 526,64; 3791,786;  202,043; 6768,689;54,66632
 527,22; 3836,983;  209,581; 6948,777;53,82545
 527,80; 3928,108;  241,581; 7088,656;53,84090
 528,39; 3966,866;  207,505; 7192,121;53,82345
 528,97; 4039,664;  206,043; 7327,477;53,83215
 529,55; 4133,719;  220,888; 7507,245;53,70079
 530,14; 4234,055;  236,582; 7735,722;53,30575
 530,72; 4266,736;  211,428; 7829,282;53,23426
 531,30; 4342,398;  186,044; 7957,396;53,48303
 531,89; 4360,439;  212,274; 8023,224;53,10705
 532,47; 4412,574;  237,275; 8105,220;53,06720
 533,05; 4433,651;  234,043; 8156,158;53,01120
 533,63; 4466,754;  238,352; 8223,506;52,95329
 534,22; 4420,731;  211,352; 8258,726;52,30749
 534,80; 4479,415;  236,276; 8357,008;52,25070
 535,38; 4511,565;  290,198; 8391,213;52,10912
 535,97; 4457,374;  236,967; 8355,891;51,98235
 536,55; 4468,854;  275,814; 8418,499;51,49456
 537,13; 4475,335;  285,274; 8414,440;51,54355
 537,71; 4478,376;  324,274; 8509,074;50,75387
 538,30; 4475,191;  343,814; 8560,001;50,28339
 538,88; 4508,000;  394,276; 8688,624;49,59672
 539,46; 4589,515;  433,122; 8859,711;49,32474
 540,05; 4644,594;  466,199; 8994,876;48,99230
 540,63; 4737,875;  516,584; 9211,594;48,54843
 541,21; 4770,660;  553,661; 9389,074;47,72837
 541,79; 4796,008;  585,430; 9490,825;47,28120
 542,38; 4858,635;  610,891; 9665,587;46,91206
 542,96; 4934,856;  619,892; 9832,686;46,83664
 543,54; 5001,411;  640,353;10044,525;46,37365
 544,12; 5049,324;  616,738;10099,140;46,74539
 544,70; 5073,534;  585,431;10239,488;46,48930
 545,29; 5148,726;  589,276;10391,748;46,51327
 545,87; 5156,239;  566,661;10396,441;46,69055
 546,45; 5124,550;  511,968;10428,928;46,51205
 547,03; 5178,408;  484,430;10468,019;47,01693
 547,62; 5208,220;  451,046;10650,126;46,64317
 548,20; 5349,915;  454,662;10806,368;47,28934
 548,78; 5340,374;  423,817;10968,016;46,62807
 549,36; 5442,945;  384,355;11162,606;46,93331
 549,94; 5471,292;  348,046;11349,397;46,56924
 550,53; 5577,711;  353,970;11519,060;46,78637
 551,11; 5667,829;  321,740;11744,712;46,80121
 551,69; 5781,492;  322,278;12035,687;46,60654
 552,27; 5869,341;  288,585;12353,906;46,25452
 552,85; 6046,757;  290,740;12700,137;46,38434
 553,44; 6163,940;  293,740;12988,679;46,24048
 554,02; 6321,405;  302,125;13355,225;46,11380
 554,60; 6414,539;  248,202;13685,877;45,88842
 555,18; 6601,524;  274,355;14067,972;45,87026
 555,76; 6764,962;  262,894;14443,504;45,85182
 556,34; 6893,935;  266,664;14855,357;45,42745
 556,93; 7059,782;  246,971;15236,449;45,45062
 557,51; 7208,966;  241,433;15520,028;45,60323
 558,09; 7358,112;  254,971;15945,460;45,27036
 558,67; 7483,941;  254,434;16294,834;45,07062
 559,25; 7567,694;  264,741;16634,511;44,61243
 559,83; 7652,301;  246,742;16903,445;44,45994
 560,41; 7812,976;  245,818;17288,566;44,40105
 561,00; 7925,593;  260,588;17663,237;44,04505
 561,58; 7988,411;  244,971;17852,167;43,97884
 562,16; 8089,422;  238,125;18270,086;43,54101
 562,74; 8295,460;  210,817;18614,291;43,92998
 563,32; 8382,306;  219,742;19016,409;43,42559
 563,90; 8484,882;  249,280;19446,035;42,90101
 564,48; 8659,095;  249,202;19913,082;42,76823
 565,06; 8859,942;  237,434;20473,486;42,60964
 565,65; 9137,434;  242,896;21163,105;42,51648
 566,23; 9453,801;  284,741;21987,149;42,24904
 566,81; 9670,698;  235,895;22738,244;41,92808
 567,39; 9966,898;  248,588;23649,632;41,52939
 567,97;10226,458;  250,203;24208,511;41,64006
 568,55;10590,085;  256,049;25142,720;41,52438
 569,13;10796,679;  238,511;25803,050;41,30005
 569,71;11145,119;  233,279;26776,896;41,10909
 570,29;11498,999;  277,201;27750,057;40,84686
 570,87;11731,477;  277,279;28466,148;40,63376
 571,45;11934,027;  269,203;29155,068;40,38247
 572,03;12019,055;  239,050;29567,445;40,16587
 572,61;12205,840;  232,434;30339,482;39,76945
 573,20;12505,572;  262,972;30979,332;39,85694
 573,78;12691,940;  248,973;31569,687;39,72760
 574,36;12802,732;  246,280;32141,464;39,36786
 574,94;12846,136;  293,588;32449,874;39,03606
 575,52;12891,792;  273,205;32771,570;38,82838
 576,10;13108,722;  312,974;33379,065;38,69749
 576,68;13233,540;  306,588;33874,303;38,51007
 577,26;13421,089;  311,513;34649,651;38,17789
 577,84;13520,198;  314,511;35069,006;37,99706
 578,42;13566,483;  354,435;35383,284;37,71762
 579,00;13534,958;  319,434;35515,966;37,54780
 579,58;13521,380;  338,050;35656,189;37,32736
 580,16;13496,048;  340,204;35768,955;37,13324
 580,74;13417,070;  330,127;35979,468;36,71020
 581,32;13374,547;  329,896;35959,160;36,61218
 581,90;13357,342;  345,358;35949,486;36,54628
 582,48;13281,912;  354,050;36141,772;36,12374
 583,06;13249,891;  347,973;36293,830;35,89264
 583,64;13269,869;  338,819;36302,471;35,95589
 584,22;13084,502;  348,436;36074,776;35,64895
 584,80;12931,515;  360,050;35787,339;35,48526
 585,38;12791,310;  367,972;35386,390;35,47658
 585,96;12689,599;  346,434;35559,021;35,05328
 586,54;12699,692;  366,589;35559,175;35,04461
 587,12;12587,902;  333,743;35809,156;34,54268
 587,70;12584,545;  356,819;35869,995;34,43152
 588,28;12520,292;  349,051;35917,658;34,21905
 588,86;12575,576;  358,743;36089,420;34,19144
 589,44;12531,838;  323,975;36105,574;34,11771
 590,02;12543,952;  336,205;36360,472;33,88757
 590,59;12505,602;  314,512;36532,244;33,66056
 591,17;12529,330;  317,283;36781,036;33,49092
 591,75;12496,157;  311,360;36901,051;33,30118
 592,33;12472,815;  316,513;37167,296;32,98791
 592,91;12506,250;  269,360;37393,336;32,96223
 593,49;12526,646;  287,053;37808,699;32,62009
 594,07;12493,325;  303,899;37951,230;32,37793
 594,65;12431,000;  302,128;37944,292;32,22150
 595,23;12450,056;  295,513;38405,061;31,89370
 595,81;12426,503;  281,821;38476,329;31,79693
 596,39;12417,258;  276,744;38504,285;31,75855
 596,97;12342,291;  268,745;38800,626;31,33391
 597,55;12303,293;  276,128;38623,636;31,36361
 598,12;12245,708;  264,899;38662,890;31,20166
 598,70;12142,616;  256,976;38839,831;30,80550
 599,28;12152,132;  286,899;39036,974;30,61990
 599,86;12066,743;  263,668;38949,201;30,51031
 600,44;12066,570;  232,745;39173,505;30,38930
 601,02;12005,256;  297,900;39158,875;30,12625
 601,60;11898,324;  264,898;39208,596;29,87242
 602,18;11869,261;  247,207;39117,011;29,89995
 602,75;11823,404;  239,359;39293,431;29,66155
 603,33;11784,476;  272,283;39159,377;29,60415
 603,91;11651,390;  255,054;39177,970;29,27924
 604,49;11662,792;  273,976;39339,036;29,15346
 605,07;11648,239;  281,283;39377,245;29,07450
 605,65;11592,488;  318,591;39527,967;28,75306
 606,23;11541,204;  374,051;39609,504;28,46190
 606,80;11473,983;  413,744;39615,951;28,21331
 607,38;11377,712;  448,823;39660,512;27,87151
 607,96;11388,047;  503,282;39724,944;27,75192
 608,54;11283,990;  571,053;39776,487;27,32513
 609,12;11230,345;  566,359;39810,325;27,17357
 609,70;11188,752;  620,514;39910,051;26,89835
 610,27;11121,567;  625,590;39979,318;26,67086
 610,85;11031,187;  635,899;39960,190;26,43478
 611,43;10960,675;  625,668;39947,091;26,28340
 612,01;10821,723;  608,667;39761,215;26,08529
 612,59;10756,657;  601,283;39677,311;25,98876
 613,16;10634,384;  557,051;39608,717;25,80513
 613,74;10492,837;  527,668;39517,443;25,55842
 614,32;10382,288;  490,822;39433,252;25,40023
 614,90;10342,527;  444,514;39371,201;25,42732
 615,48;10166,465;  390,744;39064,530;25,27738
 616,05;10022,909;  351,897;39045,362;24,99392
 616,63; 9907,431;  357,743;38848,501;24,81034
 617,21; 9810,472;  367,282;38751,578;24,60170
 617,79; 9652,792;  350,283;38648,860;24,28944
 618,36; 9659,818;  335,591;38569,765;24,38715
 618,94; 9411,464;  288,897;38271,570;24,01771
 619,52; 9333,657;  323,743;37968,270;23,93419
 620,10; 9220,666;  306,436;37982,717;23,66006
 620,67; 9110,101;  313,743;37838,951;23,44120
 621,25; 9055,460;  325,975;37652,010;23,38712
 621,83; 8980,174;  315,436;37614,695;23,23032
 622,41; 8873,148;  335,282;37650,142;22,88060
 622,98; 8757,187;  310,897;37359,647;22,79777
 623,56; 8737,233;  311,127;37389,090;22,72537
 624,14; 8659,305;  293,052;37221,747;22,65515
 624,72; 8545,564;  292,359;37056,428;22,44911
 625,29; 8502,364;  270,204;37210,772;22,28488
 625,87; 8507,675;  311,590;37166,648;22,23870
 626,45; 8391,306;  274,127;36979,893;22,11418
 627,02; 8250,294;  281,590;36826,574;21,80519
 627,60; 8273,095;  280,130;36793,344;21,89061
 628,18; 8197,730;  255,744;37007,017;21,61010
 628,76; 8167,286;  266,512;36927,929;21,55065
 629,33; 8070,438;  282,205;36944,167;21,24336
 629,91; 8035,358;  272,129;36946,794;21,16783
 630,49; 8067,665;  298,282;37049,970;21,14021
 631,06; 8022,634;  288,820;37132,182;20,99106
 631,64; 7942,943;  281,512;37167,021;20,77084
 632,22; 7850,334;  242,896;37035,207;20,67671
 632,79; 7917,389;  269,358;37383,812;20,60661
 633,37; 7839,909;  245,206;37453,040;20,41157
 633,95; 7820,641;  259,820;37436,482;20,33755
 634,52; 7800,243;  243,821;37674,266;20,18790
 635,10; 7753,495;  255,282;37646,937;20,05317
 635,68; 7759,429;  252,665;37901,332;19,93899
 636,25; 7653,880;  234,665;37819,314;19,74002
 636,83; 7664,594;  222,282;38074,698;19,66139
 637,41; 7657,503;  235,511;38088,980;19,60716
 637,98; 7625,747;  259,742;38272,870;19,37753
 638,56; 7616,768;  253,819;38265,599;19,37018
 639,13; 7554,178;  243,358;38480,757;19,11955
 639,71; 7537,263;  274,666;38491,036;19,00389
 640,29; 7435,199;  207,666;38380,223;18,93384
 640,86; 7458,996;  227,359;38517,192;18,88657
 641,44; 7389,947;  232,974;38526,546;18,68975
 642,02; 7348,129;  255,051;38513,592;18,53986
 642,59; 7325,235;  229,513;38672,408;18,45782
 643,17; 7241,032;  230,897;38687,685;18,22860
 643,74; 7194,137;  217,743;38751,039;18,10485
 644,32; 7173,319;  253,282;38577,162;18,05672
 644,89; 7140,655;  240,666;38636,670;17,97059
 645,47; 7091,299;  260,282;38681,639;17,77922
 646,05; 7015,942;  238,051;38619,686;17,65920
 646,62; 6967,509;  239,897;38553,655;17,55926
 647,20; 6936,691;  252,205;38696,778;17,38733
 647,77; 6826,335;  228,128;38491,594;17,24414
 648,35; 6850,748;  213,051;38425,332;17,37058
 648,92; 6847,930;  243,205;38540,456;17,24595
 649,50; 6705,727;  213,205;38420,117;16,99306
 650,08; 6647,063;  214,436;38294,164;16,89252
 650,65; 6713,399;  226,667;38557,210;16,92314
 651,23; 6790,735;  212,821;39523,256;16,73325
 651,80; 6934,148;  216,975;40346,226;16,73885
 652,38; 6971,638;  228,975;40765,964;16,63336
 652,95; 6913,127;  196,821;41077,241;16,42915
 653,53; 7030,233;  235,590;41300,211;16,54622
 654,10; 7021,799;  252,513;41446,872;16,43256
 654,68; 6964,674;  223,898;41371,996;16,38174
 655,25; 6917,163;  206,513;41443,042;16,27356
 655,83; 6879,192;  213,206;41592,319;16,10954
 656,40; 6915,297;  235,667;41462,904;16,20198
 656,98; 6840,402;  208,898;41358,335;16,11566
 657,55; 6749,122;  228,129;41231,458;15,90357
 658,13; 6680,612;  209,359;40807,812;15,93965
 658,70; 6623,717;  227,744;40482,473;15,88875
 659,28; 6418,361;  208,206;39521,827;15,79645
 659,85; 6308,082;  219,052;38957,335;15,71838
 660,43; 6307,033;  237,975;39002,535;15,65620
 661,00; 6296,292;  224,129;39145,505;15,60110
 661,58; 6257,474;  219,667;39440,859;15,39425
 662,15; 6293,271;  202,975;39733,059;15,40674
 662,73; 6348,453;  264,514;39915,644;15,34367
 663,30; 6297,866;  214,898;40116,152;15,24506
 663,88; 6343,202;  226,898;40353,121;15,24266
 664,45; 6290,923;  211,668;40622,475;15,04364
 665,03; 6345,566;  222,668;41017,290;15,00908
 665,60; 6373,979;  272,668;41437,260;14,82175
 666,17; 6362,392;  225,437;41382,768;14,91097
 666,75; 6380,420;  217,129;41839,045;14,80780
 667,32; 6421,449;  238,668;42165,783;14,74650
 667,90; 6392,631;  222,052;42342,291;14,64991
 668,47; 6459,351;  246,283;42721,953;14,62736
 669,05; 6458,072;  227,052;42966,307;14,57915
 669,62; 6452,331;  196,129;43056,507;14,59670
 670,19; 6450,821;  204,514;43181,092;14,53421
 670,77; 6451,233;  219,129;43457,600;14,41333
 671,34; 6424,415;  224,129;43329,569;14,38400
 671,92; 6450,136;  207,053;43659,000;14,36779
 672,49; 6435,703;  227,591;43643,508;14,29916
 673,06; 6439,654;  177,514;43846,477;14,34002
 673,64; 6396,990;  207,360;43640,062;14,25108
 674,21; 6327,787;  207,745;43620,185;14,09744
 674,79; 6416,277;  217,822;43895,462;14,19137
 675,36; 6400,152;  231,514;43961,201;14,10629
 675,93; 6344,795;  192,822;43873,709;14,08390
 676,51; 6430,900;  230,591;44100,909;14,13327
 677,08; 6378,005;  224,591;44177,801;13,99992
 677,65; 6387,957;  228,130;44255,617;13,99087
 678,23; 6384,831;  225,514;44461,971;13,92362
 678,80; 6379,013;  208,438;44629,632;13,89106
 679,38; 6385,734;  207,591;44721,371;13,87917
 679,95; 6415,685;  219,438;45007,648;13,83455
 680,52; 6425,790;  211,899;45327,387;13,77330
 681,10; 6484,434;  218,591;45782,587;13,75174
 681,67; 6501,924;  217,361;46051,556;13,71152
 682,24; 6473,413;  206,745;46019,064;13,67900
 682,82; 6529,134;  207,361;46624,110;13,61959
 683,39; 6598,316;  239,207;46983,157;13,60413
 683,96; 6605,960;  222,361;47219,664;13,58290
 684,54; 6655,449;  206,746;47556,634;13,61926
 685,11; 6650,247;  235,592;47942,911;13,44585
 685,68; 6719,275;  219,592;48337,880;13,50772
 686,25; 6702,073;  198,823;48390,311;13,49460
 686,83; 6715,255;  202,823;48527,742;13,47634
 687,40; 6761,283;  198,976;48840,942;13,49104
 687,97; 6802,696;  230,976;49264,758;13,40243
 688,55; 6773,109;  201,592;49324,035;13,37783
 689,12; 6749,291;  187,284;49642,850;13,26849
 689,69; 6773,396;  203,746;49712,281;13,26973
 690,26; 6827,270;  214,130;49762,328;13,34688
 690,84; 6838,452;  211,746;49857,912;13,34787
 691,41; 6877,634;  211,746;50039,420;13,37788
 691,98; 6923,432;  215,515;50320,236;13,38779
 692,56; 6894,614;  202,284;50382,128;13,33669
 693,13; 6968,950;  254,746;50443,098;13,37801
 693,70; 6990,517;  227,361;50761,759;13,38327
 694,27; 6968,776;  205,977;50697,806;13,39385
 694,84; 6968,112;  212,900;50888,929;13,33019
 695,42; 7026,524;  243,592;51035,206;13,35443
 695,99; 7046,783;  211,285;51261,868;13,38966
 696,56; 7010,273;  196,131;51061,760;13,39636
 697,13; 7127,994;  228,977;51420,729;13,47681
 697,71; 7106,330;  178,285;51443,930;13,51401
 698,28; 7120,435;  208,823;51814,360;13,39316
 698,85; 7111,694;  169,823;51745,637;13,45955
 699,42; 7133,876;  188,823;52025,222;13,39802
 699,99; 7165,443;  227,900;51990,499;13,40262
 700,57; 7178,163;  213,900;52048,469;13,43556
 701,14; 7181,037;  204,669;52352,900;13,37796
 701,71; 7254,066;  233,131;52431,715;13,45043
 702,28; 7211,632;  215,900;52510,838;13,37746
 702,85; 7240,584;  214,439;52524,808;13,43165
 703,43; 7266,612;  233,285;52780,469;13,38478
 704,00; 7345,794;  250,977;53012,362;13,44699
 704,57; 7280,130;  222,516;52989,100;13,37516
 705,14; 7357,620;  249,054;53214,147;13,42123
 705,71; 7378,571;  256,439;53318,347;13,42231
 706,28; 7349,215;  223,747;53126,316;13,46904
 706,86; 7449,012;  257,131;53472,593;13,51464
 707,43; 7486,579;  267,131;53348,870;13,60062
 708,00; 7448,607;  244,901;53469,378;13,53457
 708,57; 7441,943;  223,362;53255,348;13,61175
 709,14; 7486,202;  257,901;53455,471;13,58765
 709,71; 7506,230;  230,362;53512,748;13,65530
 710,28; 7557,489;  222,901;53705,563;13,71396
 710,86; 7597,594;  234,593;53911,302;13,71731
 711,43; 7591,700;  246,132;53852,656;13,70275
 712,00; 7659,651;  233,670;53982,856;13,81599
 712,57; 7686,141;  235,593;54065,979;13,84078
 713,14; 7710,323;  222,901;54212,487;13,86827
 713,71; 7744,351;  232,209;54147,303;13,93328
 714,28; 7716,995;  235,132;54164,503;13,87345
 714,85; 7695,177;  214,670;53909,165;13,93161
 715,42; 7751,359;  231,055;54119,903;13,95521
 716,00; 7802,925;  252,670;54347,950;13,95733
 716,57; 7795,877;  214,978;54415,919;13,98666
 717,14; 7830,443;  198,747;54288,042;14,10944
 717,71; 7822,472;  197,055;54346,781;14,08210
 718,28; 7904,192;  228,286;54398,135;14,17007
 718,85; 7873,682;  195,747;54500,104;14,13871
 719,42; 7948,864;  238,901;54584,227;14,18698
 719,99; 7985,892;  204,747;54380,889;14,36268
 720,56; 8004,151;  224,440;54814,166;14,25124
 721,13; 8053,641;  211,363;54751,212;14,37899
 721,70; 8043,823;  209,132;54765,182;14,36081
 722,27; 8077,159;  242,594;54603,305;14,41218
 722,84; 8209,495;  259,594;54851,351;14,56246
 723,41; 8203,446;  208,132;54885,090;14,62282
 723,98; 8237,936;  227,517;55110,367;14,59549
 724,55; 8289,349;  239,440;55086,644;14,67697
 725,12; 8331,377;  189,978;55009,537;14,85127
 725,69; 8389,405;  211,286;55338,506;14,83499
 726,27; 8411,587;  225,517;55358,168;14,84795
 726,84; 8449,231;  222,671;55766,368;14,81097
 727,41; 8500,721;  227,671;55682,952;14,91842
 727,98; 8585,134;  231,363;56046,999;14,96672
 728,55; 8658,623;  249,902;55844,584;15,12505
 729,12; 8675,806;  198,517;56084,014;15,16903
 729,69; 8735,988;  236,363;56138,445;15,20449
 730,26; 8792,400;  239,979;56380,338;15,23400
 730,82; 8763,121;  222,133;56228,307;15,25008
 731,39; 8827,995;  218,286;56224,584;15,37275
 731,96; 8890,485;  208,056;56617,477;15,39181
 732,53; 8988,206;  223,287;56831,369;15,48351
 733,10; 9046,003;  236,594;56863,262;15,55700
 733,67; 9094,416;  233,287;57139,077;15,57158
 734,24; 9051,521;  215,364;56786,816;15,61946
 734,81; 9136,088;  240,979;56851,631;15,71278
 735,38; 9125,193;  230,441;56672,755;15,75901
 735,95; 9143,990;  214,594;56480,647;15,86995
 736,52; 9204,788;  238,671;56657,924;15,89194
 737,09; 9194,124;  231,748;56370,586;15,96466
 737,66; 9308,152;  270,056;56344,324;16,11808
 738,23; 9378,565;  219,518;56548,448;16,25993
 738,80; 9431,132;  256,441;56825,802;16,21848
 739,37; 9499,160;  245,056;57118,463;16,27141
 739,94; 9484,111;  227,518;57129,433;16,26763
 740,51; 9603,832;  304,825;57112,402;16,36931
 741,07; 9623,783;  220,210;57025,756;16,55397
 741,64; 9747,427;  253,979;57237,495;16,65999
 742,21; 9736,070;  218,287;57288,464;16,67733
 742,78; 9719,099;  202,133;57099,664;16,72650
 743,35; 9860,896;  226,133;57452,941;16,83610
 743,92; 9952,309;  244,749;57613,834;16,92124
 744,49; 9975,876;  230,903;57333,111;17,06584
 745,06; 9994,673;  227,056;57338,542;17,10272
 745,63;10006,778;  211,287;57391,357;17,13095
 746,19;10060,653;  216,518;57442,403;17,20224
 746,76;10119,065;  227,980;57379,604;17,30674
 747,33;10208,247;  217,980;57379,111;17,47738
 747,90;10252,276;  238,903;57539,927;17,47503
 748,47;10291,304;  230,980;57495,435;17,56818
 749,04;10407,794;  234,211;57479,404;17,77194
 749,61;10411,053;  252,134;57434,297;17,76589
 750,17;10568,542;  242,903;57533,804;18,02318
 750,74;10557,648;  235,980;57432,312;18,04603
 751,31;10538,060;  211,057;57311,436;18,08570
 751,88;10540,012;  216,595;57192,943;18,11878
 752,45;10674,655;  226,518;57360,374;18,28712
 753,02;10666,068;  232,134;57214,574;18,31079
 753,58;10657,789;  216,595;57089,082;18,35895
 754,15;10788,586;  215,595;57228,436;18,54493
 754,72;10809,614;  215,672;56940,559;18,67600
 755,29;10784,181;  209,672;56853,298;18,66849
 755,86;10912,594;  231,442;56911,267;18,84472
 756,42;10986,699;  233,288;56809,314;19,00701
 756,99;10990,881;  202,672;56734,283;19,08350
 757,56;11008,294;  209,442;56711,637;19,11227
 758,13;11132,476;  184,596;56604,914;19,40415
 758,70;11194,120;  197,365;56664,653;19,47456
 759,26;11271,379;  195,288;56709,930;19,59862
 759,83;11321,022;  207,826;56888,438;19,60670
 760,40;11442,974;  189,365;56689,869;19,91771
 760,97;11437,079;  189,211;56785,838;19,87374
 761,53;11446,492;  169,827;56386,730;20,05921
 762,10;11479,212;  175,134;56373,238;20,11470
 762,67;11511,010;  208,904;56383,515;20,11960
 763,24;11485,730;  165,519;55932,177;20,29925
 763,80;11570,528;  198,211;56085,916;20,34851
 764,37;11616,787;  201,442;56039,116;20,44380
 764,94;11571,046;  175,365;55586,931;20,56553
 765,50;11607,689;  188,519;55511,516;20,64091
 766,07;11710,487;  225,442;55673,870;20,71302
 766,64;11691,823;  185,750;55308,686;20,87348
 767,21;11672,620;  201,596;55195,963;20,85854
 767,77;11695,572;  229,904;55054,317;20,91343
 768,34;11750,215;  218,058;55079,055;21,02068
 768,91;11780,013;  221,673;54855,255;21,15611
 769,47;11842,810;  216,750;54909,763;21,25694
 770,04;11841,761;  224,673;54792,040;21,28944
 770,61;11805,328;  200,135;54474,164;21,38259
 771,18;11903,202;  188,289;54490,133;21,57369
 771,74;11972,692;  220,981;54652,333;21,58997
 772,31;11949,336;  222,519;54311,687;21,68053
 772,88;11966,672;  193,904;54008,118;21,87669
 773,44;11918,854;  196,135;53918,934;21,82075
 774,01;12064,882;  212,058;54015,903;22,02970
 774,58;12048,064;  192,750;53621,257;22,18912
 775,14;12127,708;  190,981;53840,303;22,24954
 775,71;12132,967;  204,366;53651,580;22,31847
 776,27;12244,534;  237,904;53588,627;22,50509
 776,84;12308,177;  255,674;53623,673;22,58377
 777,41;12291,359;  217,597;53486,335;22,66576
 777,97;12314,849;  203,443;53160,842;22,87009
 778,54;12434,262;  213,597;53252,889;23,04078
 779,11;12444,213;  220,443;53185,397;23,07898
 779,67;12444,011;  192,212;53044,520;23,18120
 780,24;12489,347;  208,981;53006,797;23,25923
 780,80;12555,221;  227,751;52924,997;23,39301
 781,37;12581,095;  211,674;52925,736;23,46513
 781,94;12594,893;  211,674;52544,782;23,66230
 782,50;12745,767;  217,751;52581,982;23,92476
 783,07;12754,872;  238,366;52571,721;23,91688
 783,63;12747,747;  204,674;52303,921;24,07534
 784,20;12759,313;  230,366;52247,967;24,08598
 784,77;12816,803;  216,136;51989,629;24,33807
 785,33;12815,908;  196,905;51902,060;24,40570
 785,90;12918,706;  213,982;51835,721;24,61119
 786,46;12899,272;  227,751;51803,152;24,56892
 787,03;12954,455;  205,674;51479,737;24,86400
 787,59;13018,175;  212,751;51430,399;25,00198
 788,16;13015,357;  226,213;51400,214;24,99149
 788,73;13067,078;  231,520;51345,568;25,11160
 789,29;13087,029;  216,905;50817,538;25,43471
 789,86;13072,134;  231,136;50807,969;25,38909
 790,42;13093,086;  220,367;50581,399;25,56087
 790,99;13102,498;  240,136;50228,369;25,73078
 791,55;13141,834;  214,136;50316,492;25,80258
 792,12;13259,324;  225,290;50260,154;26,04990
 792,68;13227,814;  218,213;49940,200;26,16468
 793,25;13178,765;  229,982;49683,554;26,18372
 793,81;13242,947;  253,674;49300,370;26,48348
 794,38;13198,129;  196,751;49155,108;26,55599
 794,94;13238,619;  208,982;48975,770;26,71826
 795,51;13296,109;  222,290;48723,970;26,95539
 796,07;13232,676;  224,752;48527,709;26,92987
 796,64;13339,319;  237,752;48653,909;27,06032
 797,20;13247,501;  225,521;48116,878;27,19067
 797,77;13287,837;  201,059;47758,463;27,51786
 798,33;13237,481;  210,598;47591,586;27,49390
 798,90;13339,740;  249,675;47581,479;27,65596
 799,46;13258,230;  220,675;47046,986;27,84237
 800,03;13285,412;  220,982;47011,956;27,92083
 800,59;13301,671;  237,444;46714,310;28,10910
 801,15;13294,314;  237,444;46593,048;28,16676
 801,72;13283,266;  236,675;46283,249;28,33347
 802,28;13320,832;  250,213;45913,987;28,62361
 802,85;13288,937;  220,752;45662,033;28,75840
 803,41;13321,581;  227,752;45525,157;28,90636
 803,98;13282,071;  211,367;45132,664;29,09690
 804,54;13299,484;  223,752;44854,865;29,29735
 805,11;13232,512;  232,444;44689,757;29,24169
 805,67;13371,617;  248,060;44598,650;29,59049
 806,23;13249,645;  229,367;44110,080;29,67198
 806,80;13274,750;  245,521;44053,204;29,74188
 807,36;13297,009;  259,983;44054,788;29,76843
 807,93;13349,807;  252,675;43625,681;30,19650
 808,49;13227,912;  208,829;43364,496;30,16772
 809,05;13181,710;  202,521;43096,620;30,25868
 809,62;13281,276;  237,906;43094,589;30,43486
 810,18;13340,381;  239,291;43010,251;30,63081
 810,74;13284,410;  206,291;42693,143;30,78157
 811,31;13297,053;  220,983;42556,036;30,88710
 811,87;13299,928;  222,599;42406,082;31,00106
 812,44;13323,110;  253,522;42376,667;31,02709
 813,00;13267,369;  185,522;42043,405;31,25301
 813,56;13424,705;  232,368;42023,990;31,56694
 814,13;13342,887;  220,676;41985,652;31,41918
 814,69;13387,838;  233,137;41844,313;31,61338
 815,25;13306,482;  193,676;41439,437;31,79189
 815,82;13340,279;  246,983;41346,329;31,85767
 816,38;13359,153;  254,445;41201,375;32,00413
 816,94;13270,259;  210,599;40847,499;32,13744
 817,51;13219,671;  209,214;40604,314;32,20801
 818,07;13269,007;  208,907;40373,053;32,51681
 818,63;13230,805;  240,445;40231,791;32,48293
 819,20;13292,833;  222,368;40143,684;32,74057
 819,76;13162,092;  204,291;39676,192;32,82791
 820,32;13239,736;  260,445;39560,546;33,02610
 820,89;13289,149;  248,753;39424,823;33,28664
 821,45;13151,561;  212,291;39046,561;33,31921
 822,01;13123,513;  245,291;38839,146;33,36858
 822,57;13147,541;  238,984;38697,039;33,56529
 823,14;13096,185;  213,984;38437,777;33,70205
 823,70;13123,367;  212,368;38137,593;34,04330
 824,26;13119,241;  210,138;38051,485;34,11375
 824,82;13038,654;  236,368;37912,531;33,97980
 825,39;13059,605;  210,445;37668,962;34,30237
 825,95;13131,095;  232,907;37698,086;34,42714
 826,51;13097,123;  233,061;37340,209;34,66734
 827,08;13172,536;  258,446;37264,255;34,89747
 827,64;13105,641;  242,446;37058,301;34,93928
 828,20;13035,823;  216,061;36853,963;34,99044
 828,76;13112,005;  233,830;36818,009;35,20149
 829,32;13135,803;  242,984;36664,209;35,39919
 829,89;13128,139;  217,523;36507,333;35,57642
 830,45;13128,859;  223,292;36429,456;35,64467
 831,01;13086,426;  210,830;36210,041;35,76633
 831,57;13197,762;  221,369;36199,241;36,06771
 832,14;13210,713;  217,753;36158,518;36,15104
 832,70;13207,895;  217,754;35823,333;36,48344
 833,26;13197,847;  192,600;35836,149;36,48696
 833,82;13211,875;  221,600;35653,811;36,66233
 834,38;13296,749;  220,138;35700,318;36,85610
 834,95;13280,854;  205,831;35563,903;36,97889
 835,51;13284,267;  187,754;35439,796;37,15108
 836,07;13369,911;  223,908;35431,457;37,33859
 836,63;13404,631;  238,446;35502,965;37,33550
 837,19;13405,814;  220,908;35318,165;37,56677
 837,75;13263,380;  187,215;34972,442;37,59114
 838,32;13406,178;  234,062;34950,258;37,94228
 838,88;13438,283;  231,369;35022,997;37,96003
 839,44;13423,773;  215,138;34942,427;38,03532
 840,00;13493,032;  219,139;34937,166;38,23343
 840,56;13499,291;  197,062;34664,982;38,59307
 841,12;13532,473;  210,523;34566,336;38,77641
 841,68;13536,193;  191,369;34411,690;38,99678
 842,25;13576,606;  213,216;34540,505;38,92935
 842,81;13537,711;  209,062;34166,551;39,25099
 843,37;13609,124;  200,677;34108,444;39,54388
 843,93;13661,152;  217,600;33974,029;39,82516
 844,49;13776,411;  217,293;34138,537;39,97235
 845,05;13695,516;  181,754;33876,583;40,10634
 845,61;13781,775;  227,908;33980,629;40,15637
 846,17;13809,265;  201,447;33825,752;40,47018
 846,73;13826,601;  214,293;33754,645;40,58487
 847,29;13800,552;  186,831;33527,076;40,83270
 847,86;13850,658;  205,293;33453,891;41,04042
 848,42;13790,301;  198,908;33180,707;41,20877
 848,98;13837,176;  213,293;33252,599;41,23538
 849,54;13874,742;  192,754;33276,646;41,35544
 850,10;13878,309;  214,601;33108,923;41,53820
 850,66;13887,876;  192,447;32969,815;41,78319
 851,22;13899,519;  193,755;32879,323;41,93216
 851,78;13992,471;  235,524;32951,369;42,04980
 852,34;13945,345;  208,524;32657,646;42,33341
 852,90;13933,912;  200,370;32535,000;42,47317
 853,46;13894,171;  200,524;32310,277;42,64638
 854,02;14026,584;  211,678;32426,708;42,88342
 854,58;13962,689;  206,062;32093,524;43,14118
 855,14;13945,332;  190,755;32055,724;43,16520
 855,70;13986,361;  172,755;31881,616;43,56387
 856,26;14041,927;  223,832;31785,740;43,78093
 856,82;14005,109;  191,063;31705,555;43,83395
 857,38;14035,215;  225,755;31565,524;44,06369
 857,94;14051,858;  214,678;31372,878;44,40943
 858,50;14077,886;  200,524;31268,079;44,66834
 859,06;14022,992;  209,986;31150,740;44,64340
 859,62;14077,712;  216,370;31003,094;45,02376
 860,18;14083,356;  206,986;30951,371;45,13465
 860,74;14053,153;  180,370;30834,033;45,25653
 861,30;14049,104;  183,755;30583,464;45,61014
 861,86;14112,363;  221,217;30656,356;45,64180
 862,42;14127,469;  210,986;30467,172;45,99550
 862,98;14229,035;  229,371;30472,911;46,28977
 863,54;14130,140;  213,986;30165,265;46,46264
 864,10;14258,861;  222,371;30297,157;46,67195
 864,66;14186,582;  188,448;29972,511;46,99874
 865,22;14197,610;  200,371;29838,327;47,22741
 865,78;14241,023;  213,986;29731,219;47,52152
 866,34;14207,282;  189,986;29658,419;47,56716
 866,90;14223,387;  214,986;29544,465;47,76219
 867,45;14202,492;  218,448;29311,204;48,06710
 868,01;14203,366;  205,448;29149,712;48,36163
 868,57;14146,472;  196,755;29037,912;48,36739
 869,13;14227,731;  190,063;28962,881;48,78795
 869,69;14214,297;  207,679;28789,235;49,00579
 870,25;14183,633;  190,294;28689,359;49,10105
 870,81;14304,738;  200,448;28635,943;49,60100
 871,37;14303,843;  206,602;28572,759;49,69740
 871,93;14222,795;  209,756;28351,421;49,79463
 872,49;14187,285;  212,371;28081,236;50,14526
 873,04;14201,467;  195,679;27925,513;50,50801
 873,60;14194,033;  186,525;27833,021;50,66649
 874,16;14164,062;  221,525;27777,452;50,59723
 874,72;14217,831;  216,833;27668,529;51,00231
 875,28;14188,985;  209,217;27578,529;51,07826
 875,84;14289,600;  199,294;27488,606;51,63306
 876,40;14271,369;  206,987;27558,144;51,42153
 876,95;14304,138;  215,448;27464,990;51,70248
 877,51;14396,831;  230,140;27389,683;52,16101
 878,07;14389,215;  235,679;27404,067;52,09561
 878,63;14467,754;  204,063;27450,683;52,35031
 879,19;14549,292;  230,525;27395,837;52,70975
 879,75;14595,754;  217,140;27518,144;52,66698
 880,30;14683,908;  204,140;27504,067;53,03958
 880,86;14831,062;  246,602;27632,837;53,25471
 881,42;14865,062;  195,679;27613,990;53,50214
 881,98;14940,446;  223,525;27740,298;53,48346
 882,54;15125,446;  201,140;27807,452;54,06121
 883,09;15252,215;  203,217;27904,606;54,32579
 883,65;15271,677;  198,833;28032,606;54,15308
 884,21;15530,677;  243,371;28218,683;54,64570
 884,77;15570,369;  209,371;28177,913;54,92241
 885,32;15728,369;  199,140;28359,067;55,14655
 885,88;15841,523;  237,756;28573,144;55,06813
 886,44;16005,215;  216,448;28568,529;55,68821
 887,00;16027,523;  229,063;28618,067;55,64993
 887,56;16184,677;  201,987;28782,837;55,92098
 888,11;16230,600;  203,833;28804,913;56,03553
 888,67;16391,985;  242,679;28922,760;56,30844
 889,23;16454,677;  221,063;28964,837;56,47697
 889,79;16437,985;  197,217;28793,913;56,79246
 890,34;16460,292;  211,063;28712,298;57,01237
 890,90;16605,754;  263,448;28960,067;56,94854
 891,46;16608,138;  198,448;28711,144;57,55222
 892,01;16699,600;  232,756;28770,144;57,70270
 892,57;16652,138;  239,525;28721,913;57,62373
 893,13;16543,446;  212,140;28498,452;57,73572
 893,69;16704,831;  205,525;28414,990;58,48854
 894,24;16608,215;  213,602;28287,990;58,39705
 894,80;16685,138;  223,063;28159,298;58,92732
 895,36;16603,446;  214,833;28115,144;58,73989
 895,91;16516,446;  215,063;27910,990;58,85841
 896,47;16557,523;  218,910;27818,375;59,19902
 897,03;16482,600;  202,525;27609,375;59,40148
 897,58;16490,985;  222,679;27469,913;59,70626
 898,14;16495,908;  228,910;27214,529;60,28025
 898,70;16396,215;  191,756;27056,683;60,31827
 899,25;16528,677;  219,525;27118,913;60,63020
 899,81;16465,754;  231,525;26918,683;60,83161
 900,37;16321,215;  186,679;26720,760;60,80684
 900,92;16441,369;  213,987;26721,375;61,21834
 901,48;16402,754;  216,217;26582,221;61,39169
 902,03;16386,138;  210,217;26393,837;61,77878
 902,59;16345,985;  211,833;26299,452;61,84601
 903,15;16333,985;  236,294;26182,683;62,04212
 903,70;16191,831;  223,756;25924,990;62,12960
 904,26;16246,062;  195,140;25798,683;62,69024
 904,82;16268,215;  216,756;25776,529;62,79970
 905,37;16293,292;  210,833;25604,913;63,33153
 905,93;16217,215;  199,294;25466,144;63,39501
 906,48;16240,062;  224,910;25284,144;63,90918
 907,04;16271,677;  229,756;25327,221;63,91849
 907,60;16146,754;  197,217;25153,913;63,90885
 908,15;16149,138;  193,833;24999,837;64,32034
 908,71;16166,215;  231,448;25018,375;64,28698
 909,26;16056,062;  205,910;24807,067;64,42848
 909,82;16048,523;  230,140;24689,298;64,67264
 910,37;16051,292;  251,448;24686,375;64,66090
 910,93;16009,292;  206,525;24474,913;65,11667
 911,48;15849,831;  197,063;24251,221;65,07302
 912,04;15796,446;  210,987;24162,067;65,07205
 912,60;15908,369;  222,217;24160,298;65,52803
 913,15;15790,523;  213,910;23950,221;65,62356
 913,71;15777,292;  205,833;23840,067;65,88519
 914,26;15772,446;  195,294;23721,760;66,21119
 914,82;15796,754;  212,217;23677,683;66,41478
 915,37;15719,677;  201,371;23610,067;66,29291
 915,93;15765,677;  242,063;23501,683;66,74062
 916,48;15718,369;  201,217;23327,298;67,09806
 917,04;15691,138;  224,217;23170,529;67,40483
 917,59;15765,446;  242,217;23080,913;67,96898
 918,15;15657,292;  181,910;22879,837;68,17972
 918,70;15689,831;  198,063;22880,298;68,29912
 919,26;15658,985;  215,294;22711,452;68,65035
 919,81;15595,677;  199,833;22521,221;68,97351
 920,37;15547,369;  202,833;22501,144;68,81479
 920,92;15528,062;  224,217;22416,913;68,95892
 921,48;15505,908;  196,910;22247,529;69,42661
 922,03;15539,369;  204,987;22186,760;69,75954
 922,59;15515,062;  199,448;22080,990;69,99330
 923,14;15486,446;  193,602;21856,067;70,59605
 923,69;15427,600;  231,602;21813,837;70,40975
 924,25;15498,062;  224,833;21808,683;70,76230
 924,80;15352,138;  209,910;21624,683;70,70927
 925,36;15381,292;  212,756;21531,375;71,15159
 925,91;15336,062;  207,371;21426,221;71,29835
 926,47;15333,754;  192,371;21330,606;71,63031
 927,02;15292,523;  235,756;21237,990;71,69126
 927,57;15218,062;  214,679;21092,990;71,86109
 928,13;15223,523;  198,987;21051,067;72,05294
 928,68;15258,831;  214,602;21010,298;72,34299
 929,24;15114,677;  174,756;20707,298;72,76216
 929,79;15144,677;  201,756;20650,529;73,07490
 930,34;15117,831;  210,910;20506,144;73,45035
 930,90;15138,523;  189,294;20477,990;73,68255
 931,45;15166,138;  218,371;20442,760;73,90961
 932,01;15124,369;  229,987;20300,990;74,20846
 932,56;15151,985;  219,294;20153,837;74,90862
 933,11;15147,369;  227,448;20151,067;74,88560
 933,67;15010,677;  202,371;19957,298;74,96006
 934,22;15058,600;  213,448;19845,683;75,61621
 934,77;15020,677;  235,294;19716,144;75,89701
 935,33;14954,677;  213,063;19619,067;75,96419
 935,88;14927,292;  224,679;19557,452;76,05020
 936,43;14933,600;  211,140;19404,683;76,70528
 936,99;14930,292;  218,063;19388,837;76,74301
 937,54;14825,215;  196,910;19159,760;77,14192
 938,09;14940,292;  213,833;19112,990;77,92125
 938,65;14866,523;  214,833;18999,683;77,99738
 939,20;14767,215;  193,371;18904,529;77,88852
 939,75;14813,062;  192,756;18855,913;78,33779
 940,31;14710,985;  190,217;18765,606;78,17208
 940,86;14799,831;  208,910;18741,760;78,73005
 941,41;14681,985;  261,217;18618,067;78,55796
 941,96;14594,985;  203,294;18531,683;78,52131
 942,52;14589,754;  204,371;18390,221;79,10206
 943,07;14549,985;  185,525;18250,298;79,51641
 943,62;14463,138;  194,987;18187,067;79,30240
 944,18;14345,600;  188,679;18077,375;79,13892
 944,73;14359,446;  204,987;17980,067;79,63092
 945,28;14315,062;  171,448;17817,298;80,15263
 945,83;14303,215;  200,448;17900,529;79,67629
 946,39;14306,600;  200,217;17766,837;80,30221
 946,94;14218,062;  216,525;17710,990;80,03409
 947,49;14230,600;  198,140;17559,683;80,82496
 948,04;14203,292;  209,448;17533,990;80,77468
 948,59;14158,600;  215,910;17451,837;80,89319
 949,15;14096,062;  195,063;17338,606;81,08591
 949,70;14079,754;  198,140;17245,144;81,43140
 950,25;14018,677;  223,833;17110,067;81,69284
 950,80;13959,446;  174,525;17025,990;81,80251
 951,36;13962,292;  183,448;16968,375;82,09058
 951,91;13999,215;  220,063;16986,375;82,18356
 952,46;13854,754;  184,987;16705,221;82,74560
 953,01;13920,138;  214,063;16755,144;82,86082
 953,56;13792,446;  174,679;16636,990;82,72087
 954,11;13765,985;  212,525;16604,298;82,68452
 954,67;13757,292;  202,910;16519,760;83,06985
 955,22;13664,138;  182,217;16359,067;83,34083
 955,77;13701,677;  219,448;16325,760;83,70774
 956,32;13644,908;  241,910;16267,067;83,63723
 956,87;13498,831;  192,910;16121,683;83,53387
 957,42;13542,677;  194,371;16073,221;84,06343
 957,98;13477,754;  201,987;15934,298;84,38536
 958,53;13490,062;  219,602;15933,760;84,44907
 959,08;13503,292;  188,371;15792,990;85,32679
 959,63;13397,523;  188,987;15764,606;84,80264
 960,18;13387,292;  220,525;15669,529;85,22729
 960,73;13464,677;  202,371;15648,298;85,86280
 961,28;13342,369;  174,371;15491,606;85,96851
 961,83;13362,446;  225,833;15445,375;86,31412
 962,39;13270,985;  188,448;15338,144;86,35511
 962,94;13238,138;  222,602;15222,683;86,76978
 963,49;13212,831;  195,679;15134,221;87,13803
 964,04;13181,754;  215,371;15090,837;87,16623
 964,59;13109,138;  182,371;14968,990;87,42206
 965,14;13095,062;  217,448;14867,913;87,89901
 965,69;13072,754;  202,679;14836,375;87,94822
 966,24;13001,677;  199,756;14702,529;88,27223
 966,79;12943,754;  209,063;14632,990;88,28865
 967,34;12888,754;  185,448;14482,760;88,85101
 967,89;12857,985;  194,679;14468,144;88,71921
 968,44;12833,446;  206,910;14355,837;89,24024
 968,99;12789,138;  212,910;14314,529;89,18287
 969,55;12748,677;  208,525;14219,990;89,49922
 970,10;12679,138;  213,063;14147,452;89,46266
 970,65;12651,677;  215,063;14005,990;90,17968
 971,20;12589,831;  202,833;13916,606;90,32524
 971,75;12419,446;  179,371;13785,913;89,95728
 972,30;12454,138;  200,217;13733,221;90,54842
 972,85;12373,062;  190,987;13635,221;90,61189
 973,40;12251,138;  188,063;13475,221;90,78748
 973,95;12314,062;  207,833;13460,221;91,35130
 974,50;12235,985;  228,140;13368,221;91,38334
 975,05;12088,369;  212,294;13339,913;90,46633
 975,60;12186,062;  218,217;13244,298;91,87602
 976,15;12065,985;  205,602;13059,375;92,27160
 976,70;12070,985;  210,756;13049,298;92,37987
 977,25;12020,215;  208,756;12956,990;92,65173
 977,80;11894,062;  199,679;12824,067;92,63326
 978,35;11821,292;  217,756;12692,221;93,01831
 978,89;11754,369;  193,063;12586,067;93,28897
 979,44;11739,677;  210,371;12541,375;93,49852
 979,99;11692,292;  199,756;12421,529;94,03330
 980,54;11680,138;  231,448;12338,452;94,56254
 981,09;11574,985;  221,525;12251,683;94,37499
 981,64;11509,600;  215,140;12166,529;94,50333
 982,19;11494,908;  244,063;12148,913;94,50639
 982,74;11464,831;  224,371;11990,144;95,53524
 983,29;11325,292;  185,448;11820,067;95,74739
 983,84;11281,677;  226,371;11734,221;96,06752
 984,39;11306,292;  237,833;11668,375;96,83232
 984,94;11199,369;  174,987;11529,298;97,09424
 985,49;11199,985;  230,910;11452,760;97,74747
 986,03;11105,292;  225,679;11379,067;97,54536
 986,58;11025,369;  247,217;11277,990;97,70985
 987,13;10838,908;  213,525;11125,221;97,37609
 987,68;10837,985;  218,448;11025,990;98,26042
 988,23;10812,600;  225,371;10975,529;98,48441
 988,78;10731,985;  202,987;10827,452;99,10144
 989,33;10572,138;  216,294;10752,452;98,28862
 989,88;10572,523;  227,217;10662,913;99,13383
 990,42;10414,600;  204,756;10464,221;99,51634
 990,97;10352,600;  207,756;10439,298;99,15264
 991,52;10301,908;  235,371;10357,221;99,45352
 992,07;10255,292;  233,448;10245,529;100,09752
 992,62;10119,292;  220,602;10119,683;99,99606
 993,17;10036,523;  229,679; 9986,375;100,51399
 993,71; 9991,292;  217,602; 9936,298;100,56586
 994,26; 9870,138;  201,910; 9791,298;100,82216
 994,81; 9797,831;  239,063; 9783,144;100,15388
 995,36; 9673,677;  210,679; 9580,990;100,98915
 995,91; 9671,215;  220,371; 9553,067;101,26596
 996,45; 9577,138;  221,833; 9513,067;100,68959
 997,00; 9475,138;  202,833; 9352,529;101,34004
 997,55; 9409,215;  219,987; 9287,990;101,33684
 998,10; 9318,985;  239,910; 9143,067;101,97590
 998,65; 9309,062;  213,679; 9101,375;102,33679
 999,19; 9122,138;  230,063; 9017,606;101,18956
 999,74; 9113,754;  244,833; 8895,606;102,52172
1000,29; 9048,292;  232,217; 8837,913;102,44465
1000,84; 8900,446;  216,756; 8648,452;102,98865
1001,38; 8799,677;  212,679; 8550,067;102,99386
1001,93; 8805,908;  230,987; 8519,760;103,45224
1002,48; 8664,908;  207,679; 8383,760;103,43867
1003,03; 8658,908;  220,294; 8316,760;104,22589
1003,57; 8554,908;  225,140; 8151,913;105,08396
1004,12; 8471,138;  231,217; 8155,683;103,98078
1004,67; 8396,677;  213,063; 8012,606;104,92428
1005,22; 8215,369;  206,987; 7887,375;104,27054
1005,76; 8099,677;  201,294; 7718,837;105,06602
1006,31; 8096,062;  234,294; 7762,452;104,43149
1006,86; 7966,523;  210,679; 7636,837;104,43953
1007,40; 7866,985;  197,448; 7464,760;105,53472
1007,95; 7798,908;  215,448; 7399,529;105,55922
1008,50; 7670,831;  223,448; 7246,606;106,04037
1009,04; 7643,446;  219,910; 7168,837;106,82997
1009,59; 7499,369;  226,294; 7063,760;106,37092
1010,14; 7386,754;  204,756; 6964,990;106,23889
1010,68; 7294,985;  215,063; 6820,452;107,18402
1011,23; 7197,062;  201,833; 6752,452;106,78729
1011,78; 7124,908;  220,371; 6672,606;107,01000
1012,32; 7013,677;  211,833; 6552,913;107,26632
1012,87; 7013,985;  240,910; 6538,298;107,55371
1013,42; 6875,138;  203,756; 6396,529;107,72852
1013,96; 6880,677;  234,833; 6443,452;107,04223
1014,51; 6794,446;  185,756; 6337,375;107,43010
1015,06; 6811,215;  189,987; 6316,298;108,07855
1015,60; 6924,062;  251,756; 6416,990;108,22469
1016,15; 6892,062;  216,217; 6347,529;108,88118
1016,69; 6901,600;  216,679; 6386,067;108,35630
1017,24; 6915,062;  186,987; 6373,837;108,74799
1017,79; 6999,600;  236,294; 6422,913;109,32151
1018,33; 6948,600;  194,679; 6420,837;108,47655
1018,88; 7068,985;  225,602; 6471,837;109,56013
1019,42; 7083,600;  214,679; 6464,760;109,90132
1019,97; 7071,292;  214,756; 6489,452;109,27281
1020,51; 7176,600;  218,679; 6494,144;110,87498
1021,06; 7140,292;  190,987; 6484,144;110,42637
1021,61; 7119,523;  186,294; 6447,837;110,72717
1022,15; 7108,369;  166,602; 6419,375;111,01902
1022,70; 7113,831;  200,294; 6426,144;111,04567
1023,24; 7107,831;  205,448; 6356,760;112,20994
1023,79; 7054,138;  216,910; 6299,683;112,40315
1024,33; 7014,523;  202,525; 6244,529;112,74402
1024,88; 6905,831;  214,525; 6137,606;112,97002
1025,42; 6832,985;  206,217; 6075,990;112,89648
1025,97; 6748,831;  204,602; 5978,913;113,33349
1026,51; 6611,369;  183,371; 5862,067;113,19496
1027,06; 6602,523;  201,217; 5816,452;113,99890
1027,60; 6504,600;  226,063; 5688,067;114,94932
1028,15; 6407,754;  221,756; 5664,990;113,64563
1028,69; 6264,523;  184,140; 5511,990;114,12451
1029,24; 6237,446;  201,294; 5490,452;114,12312
1029,78; 6122,292;  196,756; 5361,452;114,73156
1030,33; 6032,523;  183,910; 5243,606;115,59219
1030,87; 5971,908;  195,756; 5187,452;115,71521
1031,42; 5854,908;  185,987; 5099,760;115,36799
1031,96; 5818,831;  212,602; 5028,067;116,42133
1032,51; 5671,138;  189,140; 4952,990;115,07495
1033,05; 5648,831;  210,371; 4917,606;115,53407
1033,60; 5504,831;  179,910; 4787,529;115,56773
1034,14; 5475,754;  201,371; 4741,606;116,16983
1034,69; 5422,908;  206,140; 4670,221;116,86095
1035,23; 5317,831;  201,679; 4589,913;116,58793
1035,77; 5272,985;  202,987; 4556,067;116,46919
1036,32; 5186,062;  177,525; 4467,221;116,75737
1036,86; 5130,908;  198,525; 4416,452;116,93855
1037,41; 5051,446;  211,833; 4347,144;117,03141
1037,95; 4920,908;  179,987; 4279,837;115,63645
1038,50; 4937,215;  195,679; 4237,144;117,32221
1039,04; 4837,677;  216,448; 4159,606;117,19615
1039,58; 4771,138;  187,217; 4092,452;117,37889
1040,13; 4705,292;  194,756; 4048,683;117,03742
1040,67; 4701,985;  221,294; 4048,221;117,08325
1041,21; 4629,446;  219,448; 3952,144;118,14511
1041,76; 4516,215;  183,217; 3869,913;117,53065
1042,30; 4461,062;  204,448; 3828,452;117,45610
1042,85; 4413,677;  205,448; 3741,990;118,99275
1043,39; 4337,985;  191,756; 3725,606;117,32894
1043,93; 4311,215;  206,910; 3681,760;118,11462
1044,48; 4233,369;  214,063; 3593,452;118,93589
1045,02; 4159,908;  198,140; 3577,606;117,23059
1045,56; 4126,292;  214,602; 3530,144;117,98041
1046,11; 4093,369;  208,448; 3482,990;118,64013
1046,65; 4050,215;  202,756; 3425,452;119,38636
1047,19; 3988,215;  203,217; 3378,144;119,21528
1047,74; 3897,677;  180,294; 3310,375;118,76316
1048,28; 3868,215;  209,602; 3271,529;119,48729
1048,82; 3850,754;  226,294; 3252,452;119,77101
1049,37; 3808,908;  206,910; 3168,221;121,63523
1049,91; 3726,985;  205,448; 3139,760;120,01236
1050,45; 3703,062;  229,987; 3105,067;120,79922
1050,99; 3640,831;  205,448; 3052,683;120,65682
1051,54; 3548,523;  192,217; 3018,683;118,74569
1052,08; 3566,215;  228,217; 2970,990;121,70158
1052,62; 3504,292;  221,679; 2910,837;122,06846
1053,16; 3421,677;  200,602; 2873,452;120,51088
1053,71; 3424,754;  208,063; 2857,144;121,42666
1054,25; 3347,369;  218,140; 2776,913;122,29411
1054,79; 3316,369;  224,371; 2769,913;121,46717
1055,33; 3237,908;  187,987; 2706,375;121,10606
1055,88; 3204,908;  222,217; 2691,067;120,81294
1056,42; 3187,062;  227,448; 2667,375;121,29927
1056,96; 3130,369;  206,910; 2601,298;122,09630
1057,50; 3093,215;  204,217; 2595,221;120,82783
1058,05; 3013,831;  206,448; 2504,990;122,13753
1058,59; 3018,754;  225,448; 2493,144;123,17813
1059,13; 2918,677;  192,525; 2439,144;121,34464
1059,67; 2932,446;  215,910; 2422,990;123,08279
1060,21; 2869,369;  209,217; 2369,990;123,11112
1060,76; 2844,677;  231,140; 2335,144;124,21729
1061,30; 2809,523;  230,063; 2338,990;122,31147
1061,84; 2786,754;  210,833; 2281,221;124,41729
1062,38; 2703,215;  204,833; 2233,452;123,15681
1062,92; 2717,908;  250,140; 2221,913;125,15473
1063,46; 2675,523;  231,294; 2198,375;124,25666
1064,01; 2623,292;  214,448; 2159,067;123,87228
1064,55; 2578,215;  215,679; 2124,221;123,78749
1065,09; 2551,754;  188,294; 2060,990;126,20625
1065,63; 2533,908;  234,217; 2096,221;123,50621
1066,17; 2522,754;  229,602; 2079,683;123,94875
1066,71; 2462,985;  225,679; 2040,837;123,25683
1067,25; 2405,138;  207,217; 1999,606;122,62527
1067,80; 2401,062;  237,063; 2000,067;122,74494
1068,34; 2390,523;  248,987; 1987,067;123,21272
1068,88; 2312,754;  213,602; 1910,683;123,69193
1069,42; 2332,600;  242,371; 1934,837;123,50201
1069,96; 2287,677;  216,602; 1905,375;122,63785
1070,50; 2309,446;  242,602; 1896,683;124,95425
1071,04; 2236,677;  208,063; 1826,913;125,31201
1071,58; 2190,908;  211,217; 1808,529;123,93890
1072,12; 2168,446;  208,756; 1799,837;123,16725
1072,66; 2170,600;  225,448; 1770,067;125,93084
1073,21; 2145,062;  226,525; 1767,144;124,53022
1073,75; 2115,831;  228,602; 1737,452;125,07730
1074,29; 2093,292;  223,756; 1714,837;125,38131
1074,83; 2093,600;  239,063; 1691,760;127,66170
1075,37; 2039,215;  222,679; 1680,452;124,61038
1075,91; 2018,369;  238,140; 1660,298;125,17802
1076,45; 2004,138;  221,140; 1629,144;126,63304
1076,99; 1966,523;  237,987; 1604,221;126,51828
1077,53; 1926,138;  208,910; 1574,144;125,78269
1078,07; 1933,754;  227,525; 1585,683;125,62818
1078,61; 1885,062;  210,987; 1563,452;123,77951
1079,15; 1858,446;  214,448; 1531,606;124,81407
1079,69; 1852,908;  221,525; 1531,067;124,57655
1080,23; 1882,446;  239,217; 1487,067;131,68481
1080,77; 1883,600;  245,987; 1506,067;129,96099
1081,31; 1787,677;  203,371; 1450,529;127,03332
1081,85; 1795,138;  231,833; 1455,298;127,77687
1082,39; 1767,754;  212,140; 1439,606;126,73379
1082,93; 1758,062;  225,448; 1430,144;127,21992
1083,47; 1696,446;  201,448; 1394,298;125,32993
1084,01; 1731,138;  233,140; 1393,067;129,14590
1084,55; 1672,677;  210,679; 1364,760;126,68074
1085,09; 1686,138;  233,371; 1356,221;129,38214
1085,63; 1653,677;  225,294; 1326,452;129,71645
1086,17; 1645,446;  208,371; 1307,452;130,75245
1086,71; 1612,677;  213,987; 1283,298;130,80289
1087,24; 1625,677;  238,602; 1308,144;129,68865
1087,78; 1596,446;  222,140; 1284,144;129,40685
1088,32; 1553,446;  206,448; 1242,837;129,97039
1088,86; 1587,754;  246,756; 1259,990;132,34823
1089,40; 1529,600;  222,525; 1237,760;128,74610
1089,94; 1500,215;  194,910; 1185,990;131,70529
1090,48; 1504,369;  234,140; 1214,529;129,56383
1091,02; 1477,369;  226,679; 1201,529;128,29567
1091,56; 1462,985;  224,525; 1181,144;129,46213
1092,10; 1438,908;  205,371; 1143,683;131,46343
1092,63; 1448,677;  242,525; 1178,837;128,81951
1093,17; 1419,985;  224,217; 1149,529;129,22862
1093,71; 1394,369;  223,756; 1128,298;129,41500
1094,25; 1397,985;  243,140; 1128,683;130,41096
1094,79; 1363,138;  225,833; 1084,760;132,41007
1095,33; 1346,985;  219,217; 1084,606;130,31920
1095,87; 1319,985;  223,987; 1073,221;129,05716
1096,40; 1299,062;  208,987; 1051,298;129,41471
1096,94; 1295,523;  217,525; 1051,683;129,23193
1097,48; 1311,908;  233,294; 1051,298;131,85922
1098,02; 1271,523;  217,756; 1009,529;133,08956
1098,56; 1230,062;  197,602; 1000,837;128,53774
1099,10; 1234,138;  206,140;  963,144;135,79826
1099,63; 1222,985;  205,217;  974,452;132,30909
1100,17; 1216,138;  227,140;  976,990;131,89279
1100,71; 1224,523;  233,448;  991,606;130,72149

