
Integration time [ms]: 120,000
Averaging Nr. [scans]: 13
Smoothing Nr. [pixels]: 0
Data measured with spectrometer [name]: 2009305U1
Wave   ;Sample   ;Dark     ;Reference;Reflectance
[nm]   ;[counts] ;[counts] ;[counts] ;[%]

 175,72;  196,170;  202,673;  202,814; 0,00000
 176,32;  234,884;  225,431;  219,229; 0,00000
 176,92;  260,442;  241,593;  259,926;102,81495
 177,52;  257,080;  251,671;  258,560;78,52374
 178,12;  229,935;  228,123;  221,690; 0,00000
 178,72;  262,939;  262,428;  250,906; 0,00000
 179,32;  261,257;  256,969;  246,180; 0,00000
 179,92;  251,087;  244,743;  247,528;227,81382
 180,52;  241,466;  240,295;  251,040;10,89843
 181,12;  257,551;  250,513;  250,351; 0,00000
 181,73;  273,534;  264,591;  277,112;71,42624
 182,33;  335,584;  344,982;  351,462;-145,02438
 182,93;  272,495;  260,594;  266,980;186,37662
 183,53;  234,131;  240,272;  226,189; 0,00000
 184,13;  231,212;  234,428;  232,913; 0,00000
 184,73;  274,789;  272,348;  270,276; 0,00000
 185,33;  279,139;  227,895;  345,845;43,44568
 185,93;  280,665;  241,810;  363,162;32,01854
 186,53;  305,484;  245,969;  383,769;43,18957
 187,13;  318,298;  274,977;  418,310;30,22368
 187,73;  287,157;  236,042;  378,887;35,78320
 188,33;  289,292;  240,114;  373,931;36,74961
 188,93;  300,933;  258,330;  373,870;36,87225
 189,53;  307,586;  257,396;  374,368;42,90737
 190,13;  338,191;  277,224;  424,265;41,46256
 190,73;  276,502;  216,698;  365,464;40,20025
 191,34;  304,238;  258,249;  403,767;31,60326
 191,94;  280,860;  218,263;  371,997;40,71777
 192,54;  299,437;  243,523;  387,787;38,75847
 193,14;  310,823;  247,900;  396,592;42,31773
 193,74;  298,061;  257,129;  400,532;28,54360
 194,34;  298,174;  240,671;  386,728;39,37028
 194,94;  267,161;  220,361;  356,781;34,30572
 195,54;  246,640;  204,742;  327,334;34,17720
 196,14;  275,579;  227,827;  378,689;31,65266
 196,74;  258,674;  222,971;  359,044;26,23822
 197,34;  248,776;  197,063;  371,027;29,72649
 197,94;  277,060;  228,132;  384,373;31,31600
 198,54;  284,952;  235,596;  395,794;30,80918
 199,14;  263,342;  219,374;  388,308;26,02659
 199,74;  255,234;  202,220;  401,273;26,63326
 200,34;  258,483;  196,990;  393,795;31,24559
 200,94;  300,227;  228,446;  426,289;36,28175
 201,54;  283,757;  204,218;  443,961;33,17668
 202,14;  315,400;  229,608;  481,986;33,99360
 202,74;  289,799;  219,912;  475,274;27,36771
 203,34;  280,021;  188,920;  492,839;29,97559
 203,94;  278,249;  167,224;  499,348;33,42858
 204,54;  352,566;  245,363;  589,973;31,10839
 205,14;  308,715;  199,220;  600,798;27,26612
 205,74;  358,466;  236,688;  696,371;26,49177
 206,34;  342,496;  209,069;  707,819;26,75226
 206,94;  372,201;  215,837;  774,562;27,98573
 207,54;  356,830;  180,146;  806,666;28,20082
 208,14;  377,528;  214,378;  884,062;24,36232
 208,74;  401,048;  211,373;  951,337;25,63299
 209,34;  436,351;  194,759; 1045,915;28,38394
 209,94;  466,707;  216,528; 1149,937;26,80278
 210,54;  463,836;  213,302; 1239,675;24,40959
 211,14;  492,230;  218,374; 1375,700;23,66283
 211,73;  527,098;  201,448; 1478,977;25,49058
 212,33;  538,488;  217,908; 1586,632;23,42185
 212,93;  558,263;  205,834; 1714,331;23,36288
 213,53;  540,710;  178,220; 1776,071;22,68612
 214,13;  585,563;  200,076; 1832,252;23,61795
 214,73;  563,862;  190,377; 1872,755;22,19981
 215,33;  545,323;  173,143; 1893,014;21,63998
 215,93;  589,196;  201,842; 2020,959;21,29354
 216,53;  565,466;  158,603; 2108,122;20,86989
 217,13;  640,486;  216,302; 2311,821;20,24241
 217,73;  641,443;  194,611; 2514,042;19,26472
 218,33;  661,019;  147,770; 2710,446;20,02787
 218,93;  727,225;  176,163; 3006,310;19,47115
 219,53;  774,374;  183,770; 3305,411;18,91965
 220,13;  798,986;  156,541; 3596,351;18,67675
 220,73;  896,108;  191,836; 3941,482;18,78237
 221,32;  998,048;  182,912; 4363,260;19,49925
 221,92; 1082,065;  190,848; 4775,100;19,44084
 222,52; 1180,033;  174,227; 5205,811;19,98984
 223,12; 1274,865;  171,612; 5659,397;20,10378
 223,72; 1398,604;  195,843; 6067,054;20,48573
 224,32; 1496,843;  201,998; 6450,584;20,72222
 224,92; 1604,743;  183,767; 6756,102;21,62057
 225,52; 1709,401;  200,684; 7072,450;21,95531
 226,12; 1820,197;  193,225; 7427,116;22,49096
 226,72; 1907,176;  164,840; 7739,306;23,00276
 227,31; 2031,307;  160,994; 8128,208;23,47512
 227,91; 2229,464;  178,452; 8522,116;24,58167
 228,51; 2335,383;  181,909; 8913,420;24,66325
 229,11; 2512,817;  182,301; 9324,768;25,49111
 229,71; 2644,501;  175,219; 9553,884;26,32871
 230,31; 2801,663;  170,000;10006,581;26,75384
 230,91; 2967,088;  162,060;10330,474;27,58570
 231,51; 3146,035;  162,304;10694,483;28,32967
 232,10; 3379,966;  171,616;11055,467;29,47807
 232,70; 3553,635;  189,671;11322,958;30,21537
 233,30; 3755,903;  200,534;11530,911;31,37909
 233,90; 3907,341;  179,764;11686,583;32,39450
 234,50; 4117,562;  181,534;11918,588;33,53506
 235,10; 4242,589;  166,536;11994,333;34,46164
 235,70; 4407,022;  187,221;12088,487;35,45674
 236,29; 4544,559;  187,988;12111,897;36,53643
 236,89; 4633,493;  166,599;12029,823;37,65329
 237,49; 4797,493;  197,687;11971,528;39,06802
 238,09; 4824,035;  176,993;11716,511;40,27068
 238,69; 4894,317;  218,442;11547,115;41,27470
 239,29; 4854,879;  172,223;11220,918;42,38198
 239,89; 4884,670;  193,907;10971,228;43,52439
 240,48; 4774,627;  176,531;10591,259;44,14993
 241,08; 4701,716;  175,145;10224,619;45,04287
 241,68; 4666,293;  196,993; 9925,720;45,93921
 242,28; 4559,082;  168,918; 9604,373;46,52838
 242,88; 4478,609;  214,538; 9311,832;46,87186
 243,48; 4380,139;  207,533; 8999,871;47,45729
 244,07; 4245,518;  190,298; 8722,403;47,52895
 244,67; 4194,929;  200,070; 8626,684;47,40764
 245,27; 4117,175;  198,602; 8464,284;47,40773
 245,87; 4038,838;  202,768; 8392,547;46,83973
 246,47; 3965,275;  190,295; 8414,382;45,90151
 247,06; 3906,713;  179,146; 8363,177;45,54684
 247,66; 3884,967;  176,685; 8450,657;44,81864
 248,26; 3888,650;  217,295; 8599,618;43,79877
 248,86; 3896,214;  200,757; 8748,312;43,23409
 249,46; 3846,220;  157,457; 8985,134;41,78633
 250,05; 3897,534;  203,377; 9328,022;40,48548
 250,65; 3899,480;  168,832; 9752,153;38,92855
 251,25; 3990,557;  174,760;10184,430;38,12111
 251,85; 4072,866;  191,137;10734,774;36,81585
 252,44; 4083,486;  155,835;11399,855;34,93103
 253,04; 4212,262;  197,451;12181,097;33,50242
 253,64; 4233,775;  155,678;12806,281;32,23638
 254,24; 4388,102;  195,146;13819,981;30,77437
 254,84; 4462,066;  170,996;14760,980;29,41107
 255,43; 4538,591;  175,527;15673,602;28,15229
 256,03; 4629,760;  178,063;16632,867;27,05409
 256,63; 4681,470;  183,214;17740,187;25,62091
 257,23; 4640,113;  177,907;18504,473;24,34830
 257,82; 4672,292;  190,672;19507,424;23,20069
 258,42; 4613,391;  145,747;20302,163;22,16487
 259,02; 4597,588;  190,682;21198,699;20,97726
 259,62; 4553,196;  173,669;21930,235;20,12968
 260,21; 4452,113;  179,989;22397,750;19,22842
 260,81; 4321,335;  187,994;22933,955;18,17176
 261,41; 4166,698;  162,594;23400,776;17,23071
 262,01; 4058,334;  205,975;23824,308;16,31088
 262,60; 3911,959;  158,984;24167,088;15,63212
 263,20; 3777,040;  164,756;24460,117;14,86820
 263,80; 3676,507;  201,359;24601,526;14,24231
 264,40; 3501,721;  163,976;24723,670;13,59034
 264,99; 3436,444;  187,974;24932,785;13,12788
 265,59; 3288,453;  179,353;25036,733;12,50775
 266,19; 3205,169;  165,821;25188,490;12,14638
 266,78; 3212,734;  212,895;25312,266;11,95185
 267,38; 3088,495;  186,739;25277,200;11,56518
 267,98; 3054,135;  172,049;25385,041;11,43096
 268,58; 3032,472;  188,354;25331,948;11,31150
 269,17; 2978,303;  171,427;25344,257;11,15042
 269,77; 3005,228;  191,520;25145,525;11,27558
 270,37; 2940,155;  163,205;25022,926;11,17048
 270,96; 2988,281;  215,441;24936,068;11,21670
 271,56; 2963,831;  174,753;24681,858;11,38069
 272,16; 2978,955;  178,979;24415,776;11,55258
 272,75; 3007,059;  177,210;24341,755;11,71075
 273,35; 3068,124;  187,057;24250,780;11,97266
 273,95; 3141,491;  186,287;24241,027;12,28533
 274,54; 3162,937;  175,300;24275,778;12,39659
 275,14; 3377,667;  200,519;24642,891;12,99853
 275,74; 3400,143;  153,825;24701,154;13,22473
 276,33; 3596,963;  213,136;25015,994;13,64289
 276,93; 3702,132;  195,455;25489,552;13,86362
 277,53; 3931,528;  185,065;26006,631;14,50905
 278,12; 4091,926;  172,215;26618,996;14,82113
 278,72; 4342,839;  216,219;27075,304;15,36396
 279,32; 4526,226;  186,064;27665,976;15,79394
 279,91; 4786,877;  164,832;28374,510;16,38461
 280,51; 5027,379;  172,373;28907,973;16,89544
 281,11; 5326,546;  183,525;29638,489;17,46063
 281,70; 5572,898;  165,370;30074,476;18,07987
 282,30; 5878,908;  181,214;30776,550;18,62275
 282,90; 6120,489;  178,752;31071,250;19,23359
 283,49; 6465,171;  191,519;31703,206;19,90897
 284,09; 6760,782;  213,908;32174,372;20,48429
 284,69; 7041,144;  201,602;32551,480;21,14240
 285,28; 7312,350;  201,523;32877,715;21,76149
 285,88; 7670,689;  235,209;33144,707;22,59372
 286,47; 7938,750;  184,368;33220,054;23,47274
 287,07; 8265,795;  209,679;33248,088;24,38409
 287,67; 8584,523;  204,456;33355,794;25,27822
 288,26; 8865,109;  172,448;33241,410;26,28646
 288,86; 9226,663;  179,754;33428,826;27,20951
 289,46; 9689,816;  192,063;33471,747;28,53919
 290,05;10077,742;  174,837;33601,850;29,62546
 290,65;10571,871;  180,521;33802,888;30,90606
 291,24;11049,650;  188,988;33879,003;32,23704
 291,84;11583,932;  206,368;34112,571;33,55599
 292,44;12039,402;  191,072;34235,115;34,80295
 293,03;12624,792;  241,449;34378,031;36,27587
 293,63;13058,850;  179,598;34411,921;37,62307
 294,22;13603,019;  205,832;34641,153;38,90536
 294,82;13880,417;  186,438;34577,243;39,81872
 295,41;14201,821;  169,832;34333,169;41,07324
 296,01;14535,041;  219,286;34338,309;41,95828
 296,61;14753,207;  198,218;34063,374;42,97925
 297,20;14953,962;  189,978;33632,022;44,14797
 297,80;15210,618;  203,223;33573,652;44,97214
 298,39;15194,251;  174,983;33088,159;45,63299
 298,99;15496,919;  220,749;32950,935;46,67303
 299,58;15655,498;  203,609;32750,873;47,47523
 300,18;15822,077;  204,683;32613,290;48,18903
 300,78;15865,230;  186,527;32260,315;48,88323
 301,37;16107,253;  187,512;32215,892;49,70511
 301,97;16271,408;  196,140;32287,880;50,09161
 302,56;16405,314;  183,983;32152,209;50,74204
 303,16;16548,030;  173,212;32088,694;51,30682
 303,75;16656,782;  183,605;32134,495;51,55780
 304,35;16991,653;  179,766;32333,153;52,28652
 304,94;17158,643;  186,064;32333,222;52,79652
 305,54;17199,433;  204,604;32260,260;53,01663
 306,13;17269,142;  168,074;32186,516;53,41006
 306,73;17238,290;  162,995;32020,506;53,59896
 307,33;17383,022;  202,378;31912,690;54,17999
 307,92;17491,354;  194,757;32025,129;54,33991
 308,52;17834,695;  158,596;32481,024;54,68679
 309,11;18228,955;  179,977;32994,471;55,00307
 309,71;18451,500;  160,590;33237,434;55,29823
 310,30;18666,249;  174,218;33455,381;55,56305
 310,90;18997,018;  210,295;33790,920;55,94513
 311,49;19149,736;  182,833;33948,536;56,17210
 312,09;19281,254;  159,914;34164,542;56,23158
 312,68;19659,248;  230,450;34592,532;56,54139
 313,28;19731,200;  166,988;34646,206;56,74204
 313,87;19795,233;  156,910;34788,836;56,70583
 314,47;20043,820;  172,902;35029,917;57,00694
 315,06;20092,950;  163,065;35299,219;56,72187
 315,66;20180,331;  164,914;35459,619;56,70941
 316,25;20160,620;  156,982;35359,386;56,82464
 316,85;20174,851;  158,914;35417,171;56,76950
 317,44;20253,533;  178,747;35551,114;56,75274
 318,04;20242,589;  157,214;35579,271;56,70302
 318,63;20113,225;  155,072;35726,555;56,10717
 319,22;20275,198;  181,905;35905,413;56,24670
 319,82;20149,511;  167,754;35877,499;55,95604
 320,41;20044,303;  187,829;35789,622;55,77380
 321,01;20041,926;  194,144;35985,116;55,45472
 321,60;19983,131;  183,216;36034,226;55,22833
 322,20;19899,128;  171,834;36012,471;55,04169
 322,79;19885,808;  204,065;36081,114;54,85887
 323,39;19801,236;  165,535;36264,448;54,39416
 323,98;19662,048;  162,373;36174,645;54,14731
 324,58;19552,091;  169,212;36082,534;53,97128
 325,17;19384,482;  180,674;35980,084;53,64281
 325,76;19153,778;  196,525;35776,620;53,28050
 326,36;18879,429;  163,298;35371,970;53,15773
 326,95;18659,698;  198,754;35069,435;52,94116
 327,55;18289,519;  161,138;34641,898;52,57535
 328,14;18013,077;  174,762;34387,672;52,13913
 328,74;17674,268;  192,213;33867,091;51,91423
 329,33;17389,821;  190,298;33500,292;51,63472
 329,92;16930,037;  162,978;33018,813;51,03221
 330,52;16475,962;  185,147;32312,238;50,70741
 331,11;16177,681;  168,446;31877,121;50,48850
 331,71;15770,338;  182,371;31285,125;50,11764
 332,30;15396,105;  205,371;30798,837;49,65352
 332,89;14972,386;  233,836;30230,908;49,13329
 333,49;14537,017;  194,370;29681,099;48,64102
 334,08;14288,122;  181,061;29290,311;48,46247
 334,68;13846,157;  180,908;28844,380;47,67479
 335,27;13617,780;  199,148;28509,180;47,39886
 335,86;13368,912;  240,446;28279,505;46,82206
 336,46;13070,092;  197,917;27999,599;46,29999
 337,05;12881,658;  182,908;27786,484;46,00400
 337,65;12670,323;  165,677;27644,737;45,50609
 338,24;12546,475;  223,681;27624,652;44,97211
 338,83;12387,160;  197,758;27574,945;44,52394
 339,43;12238,086;  171,674;27464,343;44,21118
 340,02;12085,131;  179,828;27356,946;43,80635
 340,61;11947,170;  174,680;27473,017;43,12530
 341,21;11849,883;  205,367;27452,091;42,73731
 341,80;11707,945;  178,753;27378,828;42,38662
 342,40;11625,878;  184,455;27491,454;41,89923
 342,99;11520,001;  182,451;27617,523;41,32502
 343,58;11497,283;  183,298;27786,907;40,98734
 344,18;11386,434;  195,298;27881,312;40,42162
 344,77;11328,019;  176,058;28227,568;39,75529
 345,36;11293,236;  168,447;28489,512;39,28097
 345,96;11364,691;  195,298;28794,851;39,05443
 346,55;11274,394;  166,843;29047,867;38,45969
 347,14;11249,990;  165,455;29447,062;37,85494
 347,74;11211,664;  151,771;29812,017;37,28861
 348,33;11346,574;  171,462;30503,914;36,84210
 348,92;11409,337;  191,928;31151,410;36,23255
 349,52;11430,002;  155,541;31617,050;35,83573
 350,11;11393,714;  183,519;31846,779;35,40442
 350,70;11299,904;  180,680;31873,408;35,08446
 351,29;11069,557;  155,818;31621,476;34,68461
 351,89;10886,636;  185,362;31699,576;33,95698
 352,48;10747,100;  158,680;31723,262;33,54526
 353,07;10550,542;  175,148;31659,396;32,95424
 353,67;10398,961;  186,851;31579,556;32,53020
 354,26;10177,309;  189,455;31300,726;32,10365
 354,85; 9970,809;  179,607;31184,856;31,57918
 355,45; 9788,540;  158,753;31068,172;31,15486
 356,04; 9591,386;  171,610;30902,801;30,65217
 356,63; 9429,010;  197,062;30688,623;30,27706
 357,22; 9191,120;  185,820;30543,010;29,66447
 357,82; 8985,655;  191,976;30352,412;29,15634
 358,41; 8857,993;  202,294;30250,845;28,80571
 359,00; 8635,098;  168,982;29995,238;28,38477
 359,60; 8515,925;  188,065;30018,757;27,91708
 360,19; 8334,353;  182,611;29786,862;27,53571
 360,78; 8163,684;  194,523;29616,870;27,08540
 361,37; 7998,346;  178,985;29418,142;26,74277
 361,97; 7839,007;  196,986;29340,258;26,22225
 362,56; 7604,425;  175,365;29036,458;25,74074
 363,15; 7468,964;  220,907;28797,122;25,36395
 363,74; 7272,032;  188,056;28358,776;25,14659
 364,34; 7103,809;  197,905;28033,378;24,80972
 364,93; 6840,327;  172,211;27588,802;24,32146
 365,52; 6665,989;  153,908;27112,428;24,15593
 366,11; 6500,802;  173,982;26848,518;23,71857
 366,71; 6337,813;  170,598;26452,336;23,46578
 367,30; 6196,213;  172,370;26109,029;23,22521
 367,89; 6074,674;  227,607;25897,457;22,77796
 368,48; 5908,355;  186,594;25524,475;22,58185
 369,07; 5726,365;  179,603;25048,562;22,30396
 369,67; 5624,565;  197,980;24801,124;22,05647
 370,26; 5489,074;  178,219;24544,953;21,79551
 370,85; 5373,670;  183,216;24214,610;21,59864
 371,44; 5248,322;  179,601;23966,503;21,30887
 372,03; 5123,974;  168,751;23732,350;21,02914
 372,63; 5013,063;  156,293;23380,987;20,91210
 373,22; 4905,622;  176,834;23073,486;20,65275
 373,81; 4807,120;  157,139;22784,407;20,55034
 374,40; 4730,319;  177,916;22525,182;20,37119
 374,99; 4634,213;  172,445;22297,340;20,16628
 375,59; 4510,937;  164,453;22014,855;19,89201
 376,18; 4500,241;  194,753;21910,702;19,82639
 376,77; 4444,616;  189,140;21655,398;19,82402
 377,36; 4410,020;  198,292;21627,694;19,65396
 377,95; 4299,214;  193,213;21311,650;19,44273
 378,55; 4243,772;  166,683;21149,809;19,43032
 379,14; 4214,700;  196,908;21141,953;19,18254
 379,73; 4156,999;  184,137;20977,656;19,10625
 380,32; 4168,788;  192,832;20964,307;19,14142
 380,91; 4122,868;  164,133;20836,090;19,15027
 381,50; 4139,933;  190,981;20822,730;19,14017
 382,10; 4090,327;  169,601;20675,846;19,11966
 382,69; 4057,435;  156,908;20648,499;19,03477
 383,28; 4115,527;  201,674;20597,764;19,18923
 383,87; 4075,581;  171,981;20438,512;19,26131
 384,46; 4061,914;  168,284;20395,775;19,24920
 385,05; 4099,460;  201,058;20345,605;19,35215
 385,64; 4067,802;  173,290;20372,133;19,28087
 386,24; 4064,975;  160,207;20337,384;19,35240
 386,83; 4135,754;  204,283;20341,147;19,52375
 387,42; 4136,049;  197,982;20443,755;19,45130
 388,01; 4230,196;  187,663;20722,576;19,68615
 388,60; 4290,673;  185,669;20944,242;19,77498
 389,19; 4345,747;  171,195;21150,735;19,89820
 389,78; 4441,704;  177,043;21370,802;20,12225
 390,37; 4591,319;  234,666;21847,997;20,15725
 390,96; 4661,816;  180,052;22023,426;20,51773
 391,56; 4716,307;  184,039;22139,320;20,64318
 392,15; 4805,645;  169,582;22411,555;20,84376
 392,74; 4835,726;  150,800;22583,063;20,88477
 393,33; 5011,678;  174,192;22846,524;21,33652
 393,92; 5124,835;  192,027;23328,953;21,32007
 394,51; 5220,981;  174,577;23483,413;21,65018
 395,10; 5371,841;  210,938;23741,130;21,93311
 395,69; 5418,222;  191,709;23890,302;22,05411
 396,28; 5462,537;  189,164;24005,657;22,14169
 396,87; 5564,307;  197,000;24049,721;22,50187
 397,46; 5660,532;  196,915;24168,127;22,79241
 398,06; 5807,760;  211,983;24401,439;23,13312
 398,65; 5841,685;  191,424;24435,851;23,30540
 399,24; 5971,072;  197,112;24662,782;23,60025
 399,83; 6044,494;  175,619;24707,790;23,92318
 400,42; 6130,249;  214,283;24793,714;24,06877
 401,01; 6231,273;  189,019;24914,542;24,43731
 401,60; 6316,300;  199,975;24900,798;24,76163
 402,19; 6375,934;  220,863;24849,078;24,99195
 402,78; 6448,679;  222,501;24901,088;25,22907
 403,37; 6443,766;  204,834;24741,548;25,42692
 403,96; 6519,416;  203,697;24609,990;25,87742
 404,55; 6598,799;  211,322;24417,879;26,38738
 405,14; 6618,251;  194,415;24293,260;26,65620
 405,73; 6636,666;  207,883;24275,116;26,71177
 406,32; 6750,476;  205,219;24131,352;27,35610
 406,91; 6768,914;  198,856;23904,980;27,71460
 407,50; 6769,876;  207,674;23733,268;27,89389
 408,09; 6770,839;  183,730;23420,189;28,34816
 408,68; 6829,488;  192,793;23255,197;28,77712
 409,27; 6899,422;  185,273;23146,454;29,24130
 409,86; 6980,476;  197,701;22960,388;29,79778
 410,45; 7014,061;  238,122;22919,365;29,87464
 411,04; 7027,133;  238,082;22843,339;30,03306
 411,63; 7057,155;  211,592;22600,535;30,57564
 412,22; 7108,092;  218,021;22288,056;31,21912
 412,81; 7096,680;  223,652;22056,752;31,47985
 413,40; 7040,659;  235,979;21728,740;31,66033
 413,99; 7072,505;  260,589;21397,851;32,22705
 414,58; 6973,581;  202,285;21003,304;32,55271
 415,17; 6982,034;  218,036;20759,640;32,92828
 415,76; 6963,165;  210,789;20711,639;32,93706
 416,35; 7007,525;  191,259;20454,580;33,63844
 416,94; 7164,721;  230,023;20514,156;34,18779
 417,53; 7264,572;  201,576;20800,791;34,28769
 418,12; 7367,570;  201,580;20827,937;34,74191
 418,71; 7630,053;  220,980;21186,040;35,34010
 419,30; 7726,331;  211,736;21228,228;35,75571
 419,89; 7882,959;  194,893;21434,172;36,19740
 420,48; 8060,188;  237,442;21733,900;36,39086
 421,07; 8174,088;  215,368;21822,005;36,83461
 421,66; 8230,907;  188,454;21846,735;37,13338
 422,25; 8306,260;  208,395;21852,910;37,41301
 422,84; 8376,692;  225,783;21737,539;37,89049
 423,43; 8318,670;  215,391;21508,323;38,05619
 424,02; 8316,724;  233,317;21253,813;38,45488
 424,60; 8194,906;  215,646;20826,513;38,71385
 425,19; 8225,107;  213,481;20615,233;39,26930
 425,78; 8248,817;  234,251;20400,833;39,74182
 426,37; 8278,916;  238,797;20253,664;40,17073
 426,96; 8277,424;  222,105;20170,398;40,38100
 427,55; 8298,437;  211,732;20039,514;40,78472
 428,14; 8254,631;  203,353;19811,972;41,05989
 428,73; 8289,803;  204,266;19667,866;41,54184
 429,32; 8335,579;  222,719;19620,862;41,82287
 429,91; 8474,351;  242,190;19615,704;42,49183
 430,50; 8413,954;  231,888;19457,006;42,55925
 431,08; 8422,457;  221,587;19289,596;43,00853
 431,67; 8486,855;  259,438;19255,284;43,31167
 432,26; 8475,534;  261,905;19013,763;43,80168
 432,85; 8432,353;  275,980;18644,633;44,40376
 433,44; 8349,284;  279,142;18309,281;44,75917
 434,03; 8231,491;  303,076;17873,504;45,12363
 434,62; 8109,381;  254,220;17499,553;45,54949
 435,21; 8082,940;  270,981;17245,806;46,02085
 435,79; 8052,789;  249,226;17166,079;46,12893
 436,38; 8083,376;  252,083;16985,729;46,79968
 436,97; 8122,653;  247,930;16873,153;47,36612
 437,56; 8031,237;  255,023;16748,946;47,14593
 438,15; 8070,435;  235,558;16658,115;47,70802
 438,74; 8098,131;  265,790;16633,993;47,85095
 439,33; 8165,591;  241,711;16658,018;48,26835
 439,91; 8223,574;  221,026;16713,130;48,52351
 440,50; 8314,630;  271,565;16805,548;48,64566
 441,09; 8395,982;  262,189;16895,628;48,90025
 441,68; 8462,516;  241,660;16963,225;49,16320
 442,27; 8516,619;  233,887;16851,869;49,84198
 442,86; 8514,444;  203,599;16819,088;50,01866
 443,44; 8592,049;  227,595;16931,893;50,07367
 444,03; 8708,176;  271,446;16995,269;50,44738
 444,62; 8682,010;  226,600;16879,912;50,77314
 445,21; 8692,466;  245,366;16666,519;51,44036
 445,80; 8686,465;  265,147;16604,455;51,54024
 446,39; 8614,380;  268,760;16364,850;51,84874
 446,97; 8520,633;  227,772;16116,035;52,19489
 447,56; 8474,979;  218,705;15890,562;52,68216
 448,15; 8435,575;  228,618;15759,022;52,84445
 448,74; 8344,682;  257,389;15456,208;53,21001
 449,33; 8316,182;  235,088;15347,125;53,47455
 449,91; 8191,751;  238,175;15103,327;53,50484
 450,50; 8147,738;  230,558;14860,535;54,11615
 451,09; 8135,110;  234,097;14801,560;54,23740
 451,68; 8125,532;  259,410;14724,733;54,37917
 452,26; 8088,047;  251,953;14609,451;54,57841
 452,85; 8055,837;  230,104;14421,058;55,14593
 453,44; 8087,571;  243,810;14491,666;55,05222
 454,03; 8141,547;  217,417;14426,473;55,76817
 454,61; 8127,247;  230,811;14415,041;55,67053
 455,20; 8346,555;  245,893;14580,549;56,51103
 455,79; 8331,242;  254,961;14556,496;56,47142
 456,38; 8424,570;  252,439;14684,904;56,62325
 456,97; 8496,268;  237,283;14765,098;56,84946
 457,55; 8559,794;  240,597;14742,400;57,36664
 458,14; 8552,798;  249,512;14730,724;57,33834
 458,73; 8609,239;  247,136;14630,007;58,13932
 459,31; 8623,291;  265,453;14709,332;57,86422
 459,90; 8761,918;  278,294;14787,950;58,46881
 460,49; 8825,830;  316,676;14902,291;58,33936
 461,08; 8922,998;  239,457;14907,869;59,19891
 461,66; 8977,713;  248,298;15049,536;58,97760
 462,25; 9085,972;  251,999;15121,148;59,41143
 462,84; 9196,596;  277,304;15109,398;60,13508
 463,43; 9141,138;  215,394;15085,289;60,02560
 464,01; 9217,579;  248,782;15117,756;60,31887
 464,60; 9202,569;  291,775;15077,974;60,26426
 465,19; 9098,158;  228,247;14843,912;60,68770
 465,77; 9143,135;  248,251;14804,322;61,10773
 466,36; 9093,842;  262,163;14688,107;61,22080
 466,95; 8911,245;  245,856;14414,014;61,16101
 467,53; 8799,517;  250,795;14096,619;61,74224
 468,12; 8634,055;  284,642;13785,386;61,84410
 468,71; 8516,473;  249,478;13594,462;61,94833
 469,29; 8348,943;  227,721;13304,237;62,10540
 469,88; 8226,829;  237,801;13053,236;62,33911
 470,47; 8366,376;  300,502;13186,269;62,59522
 471,06; 8334,888;  263,195;13153,729;62,61721
 471,64; 8402,290;  248,577;13220,818;62,85509
 472,23; 8448,264;  221,439;13272,338;63,03646
 472,81; 8524,438;  220,431;13340,822;63,29085
 473,40; 8648,203;  234,747;13485,729;63,49308
 473,99; 8840,304;  335,209;13697,135;63,65171
 474,57; 8916,998;  245,516;13793,499;64,00571
 475,16; 9048,234;  253,433;13941,336;64,25236
 475,75; 9177,986;  273,676;14125,956;64,28047
 476,33; 9227,771;  271,682;14198,006;64,31051
 476,92; 9313,084;  275,979;14259,027;64,62900
 477,51; 9377,472;  265,064;14328,410;64,79545
 478,09; 9358,365;  257,910;14312,913;64,74886
 478,68; 9361,021;  273,913;14221,761;65,15061
 479,27; 9464,795;  287,599;14305,290;65,46867
 479,85; 9408,751;  257,605;14283,426;65,24499
 480,44; 9515,504;  254,839;14418,392;65,38377
 481,02;10497,726;  255,537;15815,136;65,82553
 481,61;11900,862;  283,919;17873,001;66,04633
 482,20;12753,630;  255,691;19099,150;66,32508
 482,78;13320,386;  299,453;19992,311;66,12008
 483,37;13732,262;  278,699;20533,405;66,42191
 483,95;13985,520;  304,393;20791,766;66,77834
 484,54;14096,648;  317,687;21021,241;66,55360
 485,13;14026,799;  274,631;20883,675;66,72880
 485,71;13909,297;  255,552;20621,442;67,04222
 486,30;13751,036;  284,013;20314,022;67,23423
 486,88;13574,506;  322,246;19987,396;67,38957
 487,47;13010,129;  301,556;19228,616;67,14500
 488,05;12484,203;  276,713;18322,323;67,64798
 488,64;11585,241;  297,104;17030,624;67,45824
 489,23;10388,472;  304,637;15145,886;67,94465
 489,81; 8896,350;  299,947;12970,050;67,84794
 490,40; 8428,284;  248,179;12323,096;67,74461
 490,98; 8247,253;  239,182;12008,747;68,04049
 491,57; 8158,959;  273,023;11980,192;67,35989
 492,15; 8117,348;  253,952;11882,885;67,61923
 492,74; 8060,300;  260,944;11757,133;67,84297
 493,32; 8003,705;  277,412;11662,063;67,86587
 493,91; 7963,367;  263,340;11601,767;67,91089
 494,50; 7961,849;  262,198;11572,590;68,07590
 495,08; 7903,071;  241,813;11485,521;68,13818
 495,67; 7930,692;  272,570;11503,391;68,18844
 496,25; 7854,281;  224,038;11384,741;68,36704
 496,84; 7872,233;  231,646;11343,679;68,75957
 497,42; 7807,021;  221,502;11293,373;68,51162
 498,01; 7806,048;  249,648;11233,564;68,79513
 498,59; 7714,158;  227,811;11193,057;68,27341
 499,18; 7695,576;  225,572;11124,262;68,54039
 499,76; 7655,108;  260,115;11101,294;68,21208
 500,35; 7565,314;  245,432;10862,542;68,94420
 500,93; 7484,893;  241,963;10813,297;68,51481
 501,52; 7464,561;  238,734;10757,351;68,69560
 502,10; 7474,664;  261,129;10747,595;68,78899
 502,69; 7368,443;  242,363;10559,944;69,06735
 503,27; 7223,285;  227,429;10349,820;69,11268
 503,86; 7163,404;  233,977;10292,458;68,89138
 504,44; 7113,367;  224,981;10143,073;69,45274
 505,03; 6951,763;  207,673; 9910,660;69,50530
 505,61; 6860,979;  228,441; 9867,810;68,80676
 506,19; 6773,582;  250,134; 9720,605;68,88198
 506,78; 6642,226;  215,912; 9514,755;69,10874
 507,36; 6507,423;  224,980; 9341,724;68,91104
 507,95; 6392,858;  231,532; 9195,965;68,73080
 508,53; 6385,156;  226,066; 9043,616;69,85035
 509,12; 6248,012;  230,530; 8892,813;69,46762
 509,70; 6124,440;  257,455; 8769,488;68,92579
 510,29; 6064,958;  247,459; 8619,416;69,48792
 510,87; 5894,902;  229,989; 8412,749;69,22986
 511,46; 5806,041;  219,298; 8211,179;69,90523
 512,04; 5699,333;  224,918; 8099,680;69,51847
 512,62; 5579,472;  237,914; 7993,451;68,87412
 513,21; 5453,317;  213,229; 7789,415;69,16525
 513,79; 5373,099;  220,165; 7669,221;69,17566
 514,38; 5263,796;  209,315; 7499,517;69,33252
 514,96; 5222,178;  244,391; 7433,540;69,24029
 515,54; 5090,004;  212,778; 7283,317;68,97955
 516,13; 4996,888;  226,779; 7157,826;68,82234
 516,71; 4928,612;  215,862; 7056,039;68,89808
 517,30; 4838,832;  208,251; 6931,959;68,86945
 517,88; 4798,881;  234,174; 6882,673;68,65770
 518,46; 4699,425;  213,022; 6747,913;68,65306
 519,05; 4680,365;  225,718; 6659,507;69,23831
 519,63; 4634,795;  224,178; 6659,420;68,53848
 520,22; 4553,968;  243,724; 6564,271;68,19416
 520,80; 4513,574;  227,494; 6466,969;68,69296
 521,38; 4519,574;  257,027; 6436,694;68,97697
 521,97; 4444,591;  218,883; 6429,178;68,04359
 522,55; 4455,402;  235,575; 6443,647;67,97323
 523,13; 4437,186;  216,732; 6398,186;68,27607
 523,72; 4411,474;  224,330; 6381,243;68,00721
 524,30; 4530,353;  239,351; 6545,207;68,04788
 524,89; 4552,504;  207,114; 6567,260;68,32217
 525,47; 4603,445;  238,660; 6665,749;67,91231
 526,05; 4617,570;  213,276; 6727,615;67,60923
 526,64; 4703,784;  229,356; 6855,141;67,53053
 527,22; 4806,464;  232,121; 6943,659;68,15640
 527,80; 4907,952;  269,432; 7065,555;68,25244
 528,39; 4973,067;  226,435; 7190,884;68,15516
 528,97; 5038,128;  226,510; 7359,112;67,45951
 529,55; 5199,440;  234,655; 7559,822;67,77709
 530,14; 5347,991;  257,130; 7734,782;68,08101
 530,72; 5397,560;  221,972; 7856,769;67,78946
 531,30; 5472,213;  217,746; 7992,942;67,57986
 531,89; 5548,112;  229,746; 8072,921;67,80885
 532,47; 5621,233;  256,594; 8217,595;67,38648
 533,05; 5626,521;  264,355; 8219,821;67,40228
 533,63; 5683,931;  252,056; 8273,838;67,71408
 534,22; 5644,736;  224,980; 8342,061;66,76976
 534,80; 5716,749;  241,755; 8435,057;66,82281
 535,38; 5797,469;  314,977; 8489,709;67,06631
 535,97; 5738,841;  234,133; 8436,888;67,10804
 536,55; 5764,213;  271,140; 8468,496;67,01030
 537,13; 5754,457;  265,745; 8446,124;67,09606
 537,71; 5710,929;  285,283; 8475,119;66,24853
 538,30; 5803,637;  305,674; 8570,323;66,52385
 538,88; 5813,062;  318,837; 8599,984;66,34618
 539,46; 5895,176;  344,062; 8806,603;65,59630
 540,05; 5992,965;  345,912; 8897,023;66,03882
 540,63; 6112,892;  386,296; 9111,519;65,63266
 541,21; 6191,201;  393,223; 9243,260;65,51360
 541,79; 6264,716;  411,761; 9345,393;65,51596
 542,38; 6317,282;  420,142; 9496,556;64,97214
 542,96; 6413,669;  444,997; 9640,398;64,90933
 543,54; 6546,760;  449,299; 9854,765;64,82891
 544,12; 6597,557;  405,685; 9999,510;64,54018
 544,70; 6666,501;  405,382;10057,138;64,87026
 545,29; 6814,340;  420,603;10257,492;64,99755
 545,87; 6735,793;  410,915;10329,470;63,76814
 546,45; 6762,946;  392,603;10323,885;64,14422
 547,03; 6823,565;  383,760;10485,760;63,74782
 547,62; 6893,979;  363,839;10602,636;63,77839
 548,20; 6991,306;  382,919;10766,056;63,64538
 548,78; 7037,776;  344,546;10952,908;63,09391
 549,36; 7123,681;  347,391;11183,078;62,53679
 549,94; 7266,037;  320,764;11287,724;63,32906
 550,53; 7345,288;  322,697;11513,627;62,75253
 551,11; 7416,263;  294,548;11726,288;62,29773
 551,69; 7626,204;  322,468;12059,610;62,22755
 552,27; 7744,094;  275,540;12330,394;61,95474
 552,85; 7967,524;  287,163;12753,477;61,60891
 553,44; 8108,915;  288,544;13036,442;61,34635
 554,02; 8332,692;  310,085;13449,201;61,05896
 554,60; 8517,241;  248,318;13720,860;61,37612
 555,18; 8722,504;  287,852;14092,826;61,09864
 555,76; 8957,704;  277,008;14460,557;61,20257
 556,34; 9088,794;  292,169;14913,550;60,16275
 556,93; 9420,005;  277,853;15329,007;60,74054
 557,51; 9544,864;  240,707;15647,690;60,38922
 558,09; 9734,663;  284,853;16070,707;59,86252
 558,67; 9905,580;  280,172;16447,067;59,53776
 559,25;10057,283;  288,786;16734,988;59,39667
 559,83;10250,868;  273,791;17033,614;59,52973
 560,41;10406,452;  265,398;17391,253;59,21488
 561,00;10607,988;  280,634;17766,934;59,05969
 561,58;10702,182;  274,782;18011,072;58,79133
 562,16;10779,374;  268,625;18341,204;58,15855
 562,74;11008,112;  237,393;18731,886;58,23744
 563,32;11186,975;  245,867;19154,726;57,86234
 563,90;11353,438;  267,019;19544,270;57,51037
 564,48;11517,572;  267,550;20046,724;56,87812
 565,06;11878,844;  267,326;20579,929;57,16411
 565,65;12269,823;  272,181;21263,904;57,15416
 566,23;12610,023;  311,788;22040,081;56,60010
 566,81;12986,698;  279,324;22783,792;56,46600
 567,39;13461,252;  277,023;23701,381;56,28427
 567,97;13748,604;  289,940;24310,168;56,03054
 568,55;14183,344;  293,252;25197,412;55,77418
 569,13;14495,477;  270,634;25881,528;55,54216
 569,71;15031,251;  280,933;26851,239;55,51429
 570,29;15489,562;  308,160;27888,993;55,04330
 570,87;15833,475;  303,624;28621,612;54,84094
 571,45;16143,564;  296,018;29325,907;54,59045
 572,03;16305,370;  249,486;29702,693;54,51320
 572,61;16717,747;  242,944;30408,629;54,61438
 573,20;17028,495;  281,092;31069,696;54,39481
 573,78;17271,141;  260,329;31782,006;53,96544
 574,36;17468,095;  279,328;32300,505;53,67937
 574,94;17630,258;  317,256;32642,774;53,55831
 575,52;17667,979;  265,725;32846,235;53,41308
 576,10;17847,526;  308,953;33440,563;52,93607
 576,68;18135,951;  288,870;33975,623;52,97952
 577,26;18483,787;  309,574;34699,026;52,84822
 577,84;18636,092;  315,943;35186,679;52,53732
 578,42;18765,366;  350,873;35502,631;52,38570
 579,00;18767,229;  290,252;35667,901;52,22783
 579,58;18785,931;  329,718;35955,711;51,80547
 580,16;18768,142;  305,028;35934,796;51,81935
 580,74;18816,382;  303,875;36128,711;51,67506
 581,32;18773,495;  300,872;36230,094;51,41392
 581,90;18614,315;  327,182;36174,629;51,01377
 582,48;18630,692;  327,798;36293,768;50,88948
 583,06;18670,551;  317,718;36487,822;50,74034
 583,64;18618,696;  308,871;36568,753;50,49610
 584,22;18393,771;  320,649;36441,638;50,03496
 584,80;18250,667;  320,258;36211,539;49,95756
 585,38;17933,843;  324,553;35778,495;49,66807
 585,96;17820,851;  299,253;35838,913;49,30154
 586,54;17792,860;  319,802;35884,305;49,13061
 587,12;17697,258;  300,568;36082,359;48,61883
 587,70;17706,629;  326,331;36191,135;48,46060
 588,28;17564,211;  305,568;36305,241;47,94111
 588,86;17590,873;  315,031;36369,510;47,91594
 589,44;17460,841;  297,962;36510,054;47,39544
 590,02;17564,963;  307,114;36686,583;47,43843
 590,59;17538,571;  285,802;36964,214;47,03794
 591,17;17497,579;  298,047;37099,676;46,73579
 591,75;17484,691;  289,503;37335,237;46,41611
 592,33;17461,228;  309,655;37533,493;46,07685
 592,91;17563,340;  272,199;37770,302;46,11204
 593,49;17643,695;  276,587;38115,931;45,89696
 594,07;17634,406;  285,510;38350,610;45,57691
 594,65;17461,058;  301,418;38358,213;45,08956
 595,23;17580,420;  307,960;38870,395;44,79090
 595,81;17610,032;  283,500;38835,566;44,94320
 596,39;17533,095;  271,577;38992,460;44,57935
 596,97;17544,470;  305,198;39202,896;44,31952
 597,55;17382,670;  285,497;39101,230;44,04702
 598,12;17323,768;  272,973;39094,948;43,92047
 598,70;17293,801;  269,431;39324,222;43,59099
 599,28;17139,836;  292,662;39457,523;43,01604
 599,86;17116,684;  276,815;39468,964;42,96746
 600,44;16997,805;  251,740;39539,023;42,62464
 601,02;17008,145;  308,287;39632,593;42,46701
 601,60;16825,826;  285,734;39636,789;42,03214
 602,18;16711,629;  254,434;39624,823;41,80094
 602,75;16583,946;  259,269;39722,651;41,36665
 603,33;16490,551;  276,046;39733,774;41,09336
 603,91;16367,114;  263,669;39629,278;40,90740
 604,49;16302,964;  287,354;39768,137;40,56558
 605,07;16182,875;  289,734;39779,503;40,24622
 605,65;16073,818;  293,279;39876,357;39,86688
 606,23;16119,008;  322,032;39961,370;39,85177
 606,80;15937,385;  339,115;40031,476;39,29791
 607,38;15888,315;  361,129;40020,091;39,15177
 607,96;15787,711;  396,345;40120,463;38,74565
 608,54;15659,256;  436,971;40132,952;38,34717
 609,12;15609,343;  423,730;40212,084;38,16597
 609,70;15552,976;  447,584;40164,958;38,03220
 610,27;15427,809;  446,960;40221,891;37,66405
 610,85;15372,398;  452,660;40361,469;37,38457
 611,43;15215,866;  453,661;40190,327;37,15008
 612,01;15004,104;  428,579;39938,834;36,89048
 612,59;14871,426;  437,122;40005,832;36,47909
 613,16;14849,641;  400,803;40000,582;36,48717
 613,74;14691,894;  391,816;39860,382;36,23156
 614,32;14558,196;  378,203;39818,573;35,95299
 614,90;14365,797;  368,735;39740,501;35,55101
 615,48;14196,990;  336,420;39404,202;35,47826
 616,05;14128,154;  326,033;39490,968;35,24102
 616,63;13904,010;  335,569;39351,965;34,77625
 617,21;13753,182;  332,883;39185,457;34,54160
 617,79;13728,296;  313,578;39065,963;34,61650
 618,36;13467,005;  330,580;39125,867;33,86088
 618,94;13318,880;  261,959;38822,725;33,86064
 619,52;13123,562;  292,032;38375,453;33,69322
 620,10;12956,632;  285,269;38330,713;33,30586
 620,67;12854,353;  295,723;38250,497;33,08841
 621,25;12674,353;  306,350;38026,894;32,78851
 621,83;12540,353;  298,651;38062,774;32,41622
 622,41;12541,775;  328,959;38049,670;32,37695
 622,98;12270,721;  308,800;37788,029;31,91614
 623,56;12120,454;  314,030;37795,674;31,49922
 624,14;11972,331;  289,659;37659,464;31,26233
 624,72;11900,691;  301,805;37544,194;31,14431
 625,29;11787,719;  282,799;37675,744;30,76762
 625,87;11708,396;  326,270;37619,830;30,52035
 626,45;11508,335;  279,259;37344,439;30,29549
 627,02;11424,009;  287,732;37357,465;30,04143
 627,60;11277,669;  271,817;37247,702;29,76495
 628,18;11220,343;  253,730;37361,161;29,55368
 628,76;11140,423;  261,724;37356,021;29,32715
 629,33;11035,676;  296,726;37384,113;28,95580
 629,91;10991,016;  278,346;37340,329;28,90474
 630,49;10941,557;  296,956;37449,416;28,65113
 631,06;10847,443;  287,340;37625,831;28,28209
 631,64;10745,498;  293,568;37572,200;28,03732
 632,22;10636,045;  254,949;37478,527;27,88850
 632,79;10637,772;  288,257;37824,059;27,57238
 633,37;10585,020;  277,349;37826,435;27,45119
 633,95;10527,254;  270,644;37963,712;27,21087
 634,52;10478,787;  272,189;38068,796;27,00400
 635,10;10423,884;  282,499;38029,680;26,86660
 635,68;10396,595;  274,949;38237,268;26,66235
 636,25;10257,735;  266,637;38241,039;26,31008
 636,83;10250,653;  254,878;38432,405;26,18236
 637,41;10183,631;  251,487;38505,802;25,96346
 637,98;10202,183;  285,409;38627,908;25,86366
 638,56;10079,700;  273,867;38771,280;25,47141
 639,13;10044,463;  265,800;38871,974;25,32927
 639,71;10058,271;  311,878;39154,614;25,09193
 640,29; 9861,587;  246,955;38826,648;24,92148
 640,86; 9854,962;  252,032;38988,317;24,79053
 641,44; 9725,953;  253,417;38967,062;24,46821
 642,02; 9672,559;  276,341;38914,962;24,31820
 642,59; 9632,781;  253,879;39161,323;24,10567
 643,17; 9515,079;  263,110;39098,531;23,82353
 643,74; 9475,608;  249,111;39141,738;23,72300
 644,32; 9421,445;  286,649;39185,253;23,48361
 644,89; 9335,282;  280,649;39099,692;23,32523
 645,47; 9295,196;  291,111;39116,437;23,19127
 646,05; 9202,187;  286,111;39135,414;22,95041
 646,62; 9085,254;  264,189;39107,852;22,70915
 647,20; 9006,014;  269,497;39209,444;22,43587
 647,77; 8896,390;  249,804;39035,729;22,29310
 648,35; 8867,842;  245,420;39003,398;22,24683
 648,92; 8851,756;  272,651;39009,682;22,14704
 649,50; 8664,285;  234,882;38843,966;21,83269
 650,08; 8582,430;  246,882;38764,251;21,64101
 650,65; 8567,882;  238,036;39112,535;21,42753
 651,23; 8625,796;  220,421;39827,512;21,22189
 651,80; 8764,402;  233,729;40797,488;21,03028
 652,38; 8776,932;  246,499;41191,465;20,83390
 652,95; 8760,384;  227,268;41534,057;20,65790
 653,53; 8716,759;  255,961;41894,187;20,31979
 654,10; 8752,135;  281,576;41945,318;20,33077
 654,68; 8631,279;  241,577;41909,064;20,13489
 655,25; 8631,424;  238,192;41917,579;20,13761
 655,83; 8534,492;  237,423;42057,709;19,83982
 656,40; 8509,559;  264,500;42034,840;19,73903
 656,98; 8414,165;  239,270;41918,278;19,61394
 657,55; 8329,925;  252,347;41811,332;19,43642
 658,13; 8199,070;  241,116;41390,693;19,33909
 658,70; 8092,292;  266,270;41249,977;19,09544
 659,28; 7859,744;  236,501;40241,339;19,05580
 659,85; 7645,119;  255,040;39406,315;18,87571
 660,43; 7599,187;  261,887;39494,676;18,70196
 661,00; 7536,101;  240,502;39551,730;18,55856
 661,58; 7502,553;  237,810;40107,784;18,22109
 662,15; 7486,621;  226,503;40183,453;18,16985
 662,73; 7539,843;  300,272;40518,660;18,00065
 663,30; 7494,218;  244,042;40675,406;17,93206
 663,88; 7433,516;  254,965;40897,306;17,66274
 664,45; 7398,815;  244,734;41079,282;17,51968
 665,03; 7463,959;  242,658;41416,797;17,53844
 665,60; 7532,489;  323,504;41846,697;17,36134
 666,17; 7435,095;  247,658;41960,520;17,23074
 666,75; 7472,470;  249,735;42413,650;17,13013
 667,32; 7475,769;  268,505;42639,396;17,00994
 667,90; 7445,298;  244,582;42979,604;16,84968
 668,47; 7457,058;  273,274;43192,888;16,73776
 669,05; 7449,818;  237,582;43631,019;16,62057
 669,62; 7380,809;  231,583;43641,611;16,46907
 670,19; 7369,569;  232,198;43783,433;16,38845
 670,77; 7362,329;  248,198;43903,025;16,29632
 671,34; 7330,397;  243,353;43823,310;16,26216
 671,92; 7316,464;  231,737;44287,748;16,08118
 672,49; 7275,840;  258,738;44173,340;15,97897
 673,06; 7202,753;  215,507;44343,470;15,83406
 673,64; 7184,898;  232,661;44171,293;15,82261
 674,21; 7114,350;  220,046;44244,347;15,66022
 674,79; 7101,957;  250,508;44513,323;15,47902
 675,36; 7071,409;  260,585;44484,223;15,40087
 675,93; 6998,477;  219,508;44374,123;15,35280
 676,51; 7007,775;  256,816;44710,176;15,18661
 677,08; 6980,227;  241,124;44763,692;15,13638
 677,65; 6902,141;  250,047;44833,976;14,92039
 678,23; 6911,594;  253,509;45032,876;14,86864
 678,80; 6840,661;  240,971;45153,160;14,69465
 679,38; 6835,267;  240,048;45315,367;14,63155
 679,95; 6850,720;  241,510;45585,344;14,57576
 680,52; 6824,018;  246,664;45759,705;14,45158
 681,10; 6862,778;  255,126;46247,374;14,36688
 681,67; 6855,538;  254,664;46474,505;14,28147
 682,24; 6807,529;  234,126;46637,789;14,16570
 682,82; 6857,828;  238,050;47233,381;14,08603
 683,39; 6908,203;  280,973;47459,127;14,04724
 683,96; 6842,886;  245,665;47797,719;13,87368
 684,54; 6854,415;  227,589;48127,234;13,83481
 685,11; 6889,560;  269,666;48378,288;13,76031
 685,68; 6912,781;  246,358;48929,495;13,69350
 686,25; 6856,003;  229,436;49081,164;13,56465
 686,83; 6848,609;  244,897;49196,602;13,49026
 687,40; 6919,523;  219,205;49533,271;13,58703
 687,97; 6917,668;  269,667;49965,556;13,37737
 688,55; 6871,812;  222,129;49932,071;13,37697
 689,12; 6844,034;  214,206;50320,663;13,23148
 689,69; 6839,871;  222,899;50349,716;13,20046
 690,26; 6799,246;  246,130;50497,462;13,04068
 690,84; 6812,698;  245,361;50658,285;13,02709
 691,41; 6787,228;  248,822;50775,800;12,94042
 691,98; 6832,449;  254,823;51050,469;12,94919
 692,56; 6759,594;  233,284;51139,369;12,82029
 693,13; 6790,354;  283,592;51161,576;12,78895
 693,70; 6763,191;  266,823;51358,245;12,71518
 694,27; 6705,335;  254,285;51426,453;12,60656
 694,84; 6672,557;  234,131;51492,583;12,56071
 695,42; 6708,625;  288,362;51602,791;12,51161
 695,99; 6627,846;  251,132;51901,229;12,34599
 696,56; 6630,914;  233,747;51796,052;12,40667
 697,13; 6649,751;  253,594;52059,182;12,34646
 697,71; 6593,511;  221,517;52124,466;12,27675
 698,28; 6576,117;  241,825;52567,212;12,10558
 698,85; 6524,954;  218,672;52430,573;12,07825
 699,42; 6566,329;  217,903;52602,627;12,11885
 699,99; 6555,782;  269,364;52899,758;11,94446
 700,57; 6492,157;  250,288;52759,427;11,88721
 701,14; 6473,917;  239,903;52950,788;11,82681
 701,71; 6495,908;  251,057;53144,841;11,80640
 702,28; 6505,976;  249,750;53175,587;11,82074
 702,85; 6439,120;  240,212;53278,641;11,68758
 703,43; 6475,496;  267,981;53533,464;11,65392
 704,00; 6471,179;  279,366;53798,363;11,56937
 704,57; 6455,400;  251,674;53675,417;11,61230
 705,14; 6459,160;  272,597;54065,932;11,50061
 705,71; 6487,766;  271,290;54061,216;11,55695
 706,28; 6432,680;  252,367;53901,808;11,51981
 706,86; 6454,671;  276,752;54297,400;11,43622
 707,43; 6457,662;  300,598;54147,300;11,43443
 708,00; 6408,807;  264,060;54117,123;11,41021
 708,57; 6345,490;  243,675;54126,561;11,32422
 709,14; 6367,557;  272,599;54215,230;11,29896
 709,71; 6325,779;  248,830;54312,438;11,24037
 710,28; 6370,847;  264,445;54427,876;11,27403
 710,86; 6392,299;  265,676;54698,083;11,25547
 711,43; 6406,059;  280,061;54701,983;11,25649
 712,00; 6343,742;  256,600;54690,575;11,18262
 712,57; 6345,579;  265,293;54991,705;11,11033
 713,14; 6382,262;  255,216;55000,451;11,19193
 713,71; 6329,945;  266,831;54936,505;11,09045
 714,28; 6333,782;  265,601;54977,558;11,09114
 714,85; 6328,004;  241,524;54659,535;11,18468
 715,42; 6317,764;  249,140;55004,127;11,08323
 716,00; 6355,601;  311,140;55111,181;11,03003
 716,57; 6303,591;  262,602;55229,773;10,99018
 717,14; 6328,274;  249,217;55154,826;11,07183
 717,71; 6312,034;  234,987;55096,957;11,07698
 718,28; 6348,718;  280,449;55273,164;11,03468
 718,85; 6247,170;  247,218;55374,218;10,88387
 719,42; 6302,545;  269,449;55454,810;10,93242
 719,99; 6279,151;  247,219;55223,709;10,97184
 720,56; 6299,911;  264,988;55553,840;10,91526
 721,13; 6284,825;  241,296;55688,124;10,89968
 721,70; 6275,201;  248,835;55484,255;10,91033
 722,27; 6289,576;  273,912;55549,770;10,88299
 722,84; 6342,490;  306,374;55677,900;10,90112
 723,41; 6307,635;  240,835;55715,569;10,93615
 723,98; 6288,164;  266,682;55931,161;10,81746
 724,55; 6308,693;  283,144;55921,215;10,82990
 725,12; 6293,915;  221,836;55925,192;10,90074
 725,69; 6278,598;  253,221;56131,091;10,78312
 726,27; 6348,819;  266,606;56193,145;10,87536
 726,84; 6341,964;  269,298;56558,891;10,78826
 727,41; 6409,262;  274,683;56495,175;10,91164
 727,98; 6344,945;  272,376;56762,306;10,74983
 728,55; 6401,321;  296,068;56619,205;10,83969
 729,12; 6372,081;  239,607;56799,951;10,84236
 729,69; 6401,995;  279,376;57065,620;10,78187
 730,26; 6461,985;  276,069;57301,443;10,84766
 730,82; 6429,669;  272,069;57015,958;10,85156
 731,39; 6424,736;  263,608;57200,396;10,82100
 731,96; 6451,958;  251,454;57379,758;10,85365
 732,53; 6506,102;  265,455;57658,119;10,87360
 733,10; 6556,939;  274,609;57655,326;10,94850
 733,67; 6590,699;  271,455;57940,841;10,95771
 734,24; 6488,998;  251,994;57573,126;10,88081
 734,81; 6522,373;  285,456;57668,949;10,86884
 735,38; 6528,749;  270,840;57484,925;10,93771
 735,95; 6458,047;  271,148;57348,594;10,83948
 736,52; 6544,730;  277,610;57559,878;10,94077
 737,09; 6454,106;  265,918;57244,547;10,86054
 737,66; 6554,558;  307,072;57340,678;10,95404
 738,23; 6530,626;  259,534;57458,193;10,96370
 738,80; 6672,693;  314,919;57686,631;11,08172
 739,37; 6633,453;  294,150;57997,146;10,98609
 739,94; 6653,675;  266,765;58021,969;11,05859
 740,51; 6767,973;  361,073;58162,869;11,08426
 741,07; 6710,349;  257,304;57969,230;11,18147
 741,64; 6722,955;  299,458;58260,591;11,08242
 742,21; 6743,253;  268,459;58352,491;11,14729
 742,78; 6708,475;  238,074;58040,006;11,19409
 743,35; 6764,389;  267,921;58393,598;11,17659
 743,92; 6863,303;  293,382;58500,806;11,28708
 744,49; 6859,678;  272,075;58297,244;11,35301
 745,06; 6851,900;  262,537;58309,990;11,35168
 745,63; 6816,352;  246,922;58349,813;11,30655
 746,19; 6868,958;  260,537;58279,174;11,39017
 746,76; 6891,487;  260,614;58369,227;11,41117
 747,33; 6905,478;  256,307;58286,589;11,45811
 747,90; 7010,777;  280,384;58549,027;11,55063
 748,47; 6967,537;  276,615;58454,850;11,50073
 749,04; 6960,450;  273,000;58474,596;11,49015
 749,61; 7007,364;  287,308;58464,495;11,55102
 750,17; 7023,201;  285,693;58499,856;11,57366
 750,74; 7021,423;  274,001;58413,910;11,60549
 751,31; 7019,567;  257,078;58361,194;11,63857
 751,88; 7004,712;  231,463;58242,479;11,67580
 752,45; 7096,472;  261,617;58344,071;11,76750
 753,02; 7049,078;  282,848;58210,355;11,68051
 753,58; 7069,069;  249,232;58226,639;11,76292
 754,15; 7120,752;  258,617;58347,616;11,81314
 754,72; 7107,127;  247,156;58025,824;11,87284
 755,29; 7127,272;  241,156;57871,723;11,94872
 755,86; 7154,494;  262,387;58023,931;11,93200
 756,42; 7201,484;  267,311;57938,600;12,02362
 756,99; 7215,168;  228,388;57931,653;12,10812
 757,56; 7195,851;  235,003;57765,245;12,09946
 758,13; 7160,380;  200,234;57725,068;12,09938
 758,70; 7305,448;  227,773;57822,122;12,28884
 759,26; 7276,131;  223,696;57884,329;12,23093
 759,83; 7317,583;  234,543;57974,152;12,26721
 760,40; 7315,728;  219,928;57712,590;12,34210
 760,97; 7350,334;  197,774;57783,567;12,42070
 761,53; 7345,325;  193,697;57436,697;12,49345
 762,10; 7371,777;  196,544;57388,905;12,54579
 762,67; 7431,845;  229,313;57454,112;12,58638
 763,24; 7317,066;  189,852;56929,781;12,56120
 763,80; 7375,134;  228,314;57080,835;12,57081
 764,37; 7436,509;  218,929;57096,119;12,68976
 764,94; 7419,808;  215,391;56619,172;12,77293
 765,50; 7436,183;  216,314;56701,841;12,78180
 766,07; 7484,943;  252,622;56651,433;12,82353
 766,64; 7496,780;  230,776;56431,872;12,92858
 767,21; 7457,232;  225,777;56265,618;12,90413
 767,77; 7522,223;  250,315;56115,825;13,01681
 768,34; 7510,137;  239,239;56116,109;13,01236
 768,91; 7549,897;  255,162;55937,317;13,10067
 769,47; 7594,580;  245,008;55948,909;13,19400
 770,04; 7595,802;  262,855;55841,962;13,19371
 770,61; 7591,100;  240,086;55658,939;13,26447
 771,18; 7591,014;  231,932;55498,454;13,31562
 771,74; 7675,697;  246,932;55584,123;13,42454
 772,31; 7661,919;  247,317;55284,253;13,47205
 772,88; 7642,140;  225,471;55091,615;13,51775
 773,44; 7661,054;  228,471;55019,130;13,56542
 774,01; 7705,737;  246,010;55033,953;13,61564
 774,58; 7704,113;  234,549;54714,775;13,71060
 775,14; 7701,642;  230,703;54775,598;13,69686
 775,71; 7710,402;  238,395;54690,421;13,72218
 776,27; 7821,623;  283,857;54724,475;13,84585
 776,84; 7920,845;  308,165;54764,067;13,97953
 777,41; 7829,913;  245,165;54464,966;13,98889
 777,97; 7792,596;  244,550;54181,635;13,99417
 778,54; 7866,510;  259,012;54240,381;14,09282
 779,11; 7926,500;  268,551;54182,666;14,20398
 779,67; 7902,491;  228,166;54092,642;14,24747
 780,24; 7927,405;  251,936;53933,388;14,29818
 780,80; 7914,934;  269,013;53984,749;14,23404
 781,37; 8022,925;  254,859;53989,264;14,45641
 781,94; 7984,839;  246,783;53653,703;14,48886
 782,50; 8011,445;  257,091;53683,833;14,51399
 783,07; 8073,359;  281,937;53762,964;14,56857
 783,63; 8056,811;  240,860;53436,556;14,69283
 784,20; 8036,187;  273,399;53488,686;14,58751
 784,77; 8101,177;  256,553;53280,586;14,79447
 785,33; 8078,630;  229,784;52997,332;14,87438
 785,90; 8130,005;  253,015;53002,078;14,93295
 786,46; 8121,611;  269,861;52896,439;14,91974
 787,03; 8152,140;  242,092;52744,339;15,06611
 787,59; 8175,439;  248,631;52615,315;15,13712
 788,16; 8189,430;  258,478;52575,292;15,15947
 788,73; 8200,190;  265,401;52391,576;15,22227
 789,29; 8171,488;  244,786;51910,014;15,34243
 789,86; 8198,633;  267,171;51898,222;15,36181
 790,42; 8209,547;  257,094;51859,737;15,41094
 790,99; 8205,999;  272,479;51447,944;15,50259
 791,55; 8213,297;  245,633;51501,152;15,54499
 792,12; 8260,365;  265,556;51433,359;15,62469
 792,68; 8202,356;  254,556;51144,874;15,61751
 793,25; 8205,962;  265,941;50834,543;15,70148
 793,81; 8244,953;  309,249;50529,058;15,80194
 794,38; 8182,021;  217,557;50328,112;15,89378
 794,94; 8216,396;  244,173;50104,243;15,98919
 795,51; 8194,694;  257,788;49860,681;16,00089
 796,07; 8204,608;  260,789;49633,504;16,08949
 796,64; 8258,522;  264,712;49687,480;16,17435
 797,20; 8263,205;  258,558;49121,303;16,38190
 797,77; 8179,888;  229,328;48871,664;16,34494
 798,33; 8194,571;  241,866;48671,641;16,42111
 798,90; 8267,716;  274,636;48687,771;16,51015
 799,46; 8160,092;  246,251;48125,363;16,52879
 800,03; 8177,467;  270,790;48025,109;16,55699
 800,59; 8181,150;  272,713;47941,624;16,59034
 801,15; 8217,295;  258,175;47589,524;16,81575
 801,72; 8185,362;  252,406;47287,732;16,86595
 802,28; 8169,968;  285,560;46983,631;16,88380
 802,85; 8139,267;  249,330;46889,300;16,91669
 803,41; 8151,873;  246,561;46712,892;17,01299
 803,98; 8114,556;  249,484;46328,330;17,06873
 804,54; 8100,624;  249,946;46006,846;17,15736
 805,11; 8100,230;  258,485;45810,130;17,21507
 805,67; 8161,836;  272,100;45752,414;17,34758
 806,23; 8093,212;  262,408;45267,006;17,40001
 806,80; 8088,049;  275,562;45117,444;17,42230
 807,36; 8122,270;  282,793;45013,267;17,52603
 807,93; 8109,799;  286,024;44813,321;17,57074
 808,49; 8072,713;  245,640;44510,144;17,68251
 809,05; 8066,627;  234,640;44363,505;17,74799
 809,62; 8103,387;  270,410;44212,405;17,82572
 810,18; 8130,070;  263,871;44157,151;17,92119
 810,74; 8085,523;  232,025;43883,896;17,99120
 811,31; 8121,590;  245,872;43546,335;18,18853
 811,87; 8124,273;  256,564;43534,004;18,17970
 812,44; 8222,110;  283,949;43399,288;18,41145
 813,00; 8114,255;  209,719;43112,880;18,42413
 813,56; 8217,476;  260,950;43217,010;18,52248
 814,13; 8242,236;  259,565;43157,449;18,60854
 814,69; 8179,381;  251,719;42808,348;18,62850
 815,25; 8144,603;  229,104;42601,479;18,68080
 815,82; 8175,209;  275,335;42334,840;18,78261
 816,38; 8179,969;  298,182;42184,817;18,81695
 816,94; 8099,267;  235,490;41865,486;18,88969
 817,51; 8127,873;  226,644;41713,001;19,04537
 818,07; 8085,172;  242,105;41376,747;19,06682
 818,63; 8079,163;  265,336;41247,262;19,06652
 819,20; 8078,769;  249,798;41189,777;19,12305
 819,76; 8061,144;  235,414;40615,138;19,38035
 820,32; 8139,058;  268,952;40609,961;19,50895
 820,89; 8091,664;  270,799;40403,553;19,48749
 821,45; 8032,194;  233,338;40010,145;19,60654
 822,01; 8085,184;  273,876;39788,660;19,76806
 822,57; 8041,944;  267,107;39675,791;19,72874
 823,14; 8024,166;  238,415;39514,075;19,82335
 823,70; 8000,926;  241,108;39247,282;19,89382
 824,26; 8021,147;  235,262;39008,797;20,08041
 824,82; 8068,215;  257,570;38887,005;20,21941
 825,39; 8001,591;  239,647;38619,828;20,22383
 825,95; 8060,197;  261,878;38651,958;20,31337
 826,51; 7991,803;  258,340;38153,550;20,40749
 827,08; 8102,717;  278,417;38206,065;20,62954
 827,64; 8119,246;  257,186;38029,657;20,81426
 828,20; 8033,160;  242,956;37724,249;20,78425
 828,76; 8068,843;  273,494;37724,072;20,81503
 829,32; 8104,218;  275,879;37573,895;20,98862
 829,89; 8093,055;  234,187;37475,256;21,10269
 830,45; 8060,277;  253,572;37367,925;21,03419
 831,01; 8097,652;  241,188;37192,517;21,26166
 831,57; 8155,181;  252,188;37083,494;21,45727
 832,14; 8107,095;  246,496;37046,163;21,36052
 832,70; 8098,471;  233,111;36757,370;21,53462
 833,26; 8120,769;  214,189;36663,808;21,69181
 833,82; 8154,837;  238,343;36525,016;21,81653
 834,38; 8232,135;  233,804;36584,069;22,00350
 834,95; 8178,818;  234,882;36441,892;21,94033
 835,51; 8177,963;  205,343;36314,946;22,07895
 836,07; 8256,108;  243,190;36355,615;22,18881
 836,63; 8320,252;  262,882;36381,668;22,30798
 837,19; 8304,397;  247,421;36206,645;22,40587
 837,75; 8318,618;  215,421;35942,391;22,68090
 838,32; 8391,225;  258,268;36010,829;22,74790
 838,88; 8413,831;  257,499;36027,575;22,80211
 839,44; 8413,591;  251,499;35891,705;22,90136
 840,00; 8383,428;  248,961;35852,067;22,84763
 840,56; 8362,111;  224,422;35544,428;23,03988
 841,12; 8405,563;  231,346;35616,482;23,10071
 841,68; 8389,554;  218,654;35367,151;23,24680
 842,25; 8421,160;  231,039;35432,358;23,26652
 842,81; 8385,382;  224,193;35091,796;23,40622
 843,37; 8422,834;  205,270;35087,311;23,55815
 843,93; 8442,825;  234,885;35064,749;23,56581
 844,49; 8468,816;  240,578;35030,880;23,65095
 845,05; 8428,729;  202,040;34888,395;23,71737
 845,61; 8505,259;  253,809;34860,756;23,84333
 846,17; 8490,096;  233,040;34734,348;23,93259
 846,73; 8540,086;  242,810;34729,863;24,05911
 847,29; 8449,154;  215,733;34468,763;24,03706
 847,86; 8509,837;  221,118;34521,817;24,16487
 848,42; 8469,674;  208,580;34236,024;24,27774
 848,98; 8508,280;  241,811;34193,924;24,34744
 849,54; 8580,886;  228,965;34233,670;24,56108
 850,10; 8544,569;  237,734;34080,108;24,54566
 850,66; 8599,253;  216,734;33874,469;24,90518
 851,22; 8608,397;  212,504;33864,061;24,94949
 851,78; 8616,773;  268,043;33891,807;24,82985
 852,34; 8623,610;  237,274;33624,938;25,11807
 852,90; 8640,831;  226,889;33522,991;25,27005
 853,46; 8633,976;  218,120;33292,583;25,44518
 854,02; 8656,351;  234,274;33293,791;25,47550
 854,58; 8700,111;  221,659;32997,075;25,86833
 855,14; 8647,871;  221,736;32969,359;25,73052
 855,70; 8604,785;  196,121;32805,721;25,78585
 856,26; 8696,160;  242,275;32805,159;25,96172
 856,82; 8609,997;  229,429;32524,905;25,94967
 857,38; 8683,296;  246,276;32449,035;26,19968
 857,94; 8674,210;  240,430;32373,473;26,24644
 858,50; 8705,277;  249,661;32173,527;26,48682
 859,06; 8636,345;  224,892;32001,965;26,47020
 859,62; 8707,567;  242,969;31978,326;26,67245
 860,18; 8635,019;  227,738;31700,841;26,71259
 860,74; 8582,779;  195,431;31622,280;26,68848
 861,30; 8602,539;  207,893;31446,333;26,87281
 861,86; 8736,530;  260,124;31459,925;27,16814
 862,42; 8634,444;  226,662;31272,133;27,08215
 862,98; 8719,204;  253,047;31308,571;27,26135
 863,54; 8635,194;  233,971;31118,394;27,20214
 864,10; 8698,416;  223,202;31050,293;27,49275
 864,66; 8629,714;  208,202;30911,809;27,42841
 865,22; 8703,090;  230,510;30695,324;27,81104
 865,78; 8604,388;  229,895;30639,608;27,53888
 866,34; 8675,841;  226,664;30513,200;27,89747
 866,90; 8602,754;  236,895;30375,023;27,75839
 867,45; 8632,822;  230,818;30249,076;27,98964
 868,01; 8612,659;  235,511;30036,976;28,10985
 868,57; 8626,650;  226,434;29866,799;28,34046
 869,13; 8619,871;  211,204;29736,391;28,47964
 869,69; 8669,401;  215,512;29661,214;28,71010
 870,25; 8657,468;  209,512;29513,113;28,82907
 870,81; 8675,382;  218,974;29522,167;28,85832
 871,37; 8686,142;  225,974;29387,682;29,01122
 871,93; 8695,133;  233,436;29172,197;29,24001
 872,49; 8672,508;  253,897;29027,866;29,25773
 873,04; 8598,961;  212,513;28819,304;29,31628
 873,60; 8600,644;  219,667;28684,666;29,44310
 874,16; 8643,865;  236,206;28544,181;29,70067
 874,72; 8650,788;  222,437;28517,873;29,78697
 875,28; 8686,096;  226,052;28424,873;30,00141
 875,84; 8698,865;  226,590;28321,873;30,15551
 876,40; 8666,635;  220,513;28379,412;29,99450
 876,95; 8754,865;  239,129;28235,104;30,41772
 877,51; 8810,865;  260,052;28329,873;30,46266
 878,07; 8822,019;  269,744;28231,488;30,58563
 878,63; 8809,558;  228,283;28280,027;30,59088
 879,19; 8889,558;  235,898;28263,258;30,87576
 879,75; 8865,712;  226,590;28335,642;30,73430
 880,30; 8954,250;  230,821;28199,027;31,19052
 880,86; 9071,327;  267,821;28385,488;31,30952
 881,42; 9066,481;  216,667;28452,104;31,34293
 881,98; 9086,327;  240,898;28461,335;31,34405
 882,54; 9203,788;  224,744;28577,719;31,66879
 883,09; 9310,327;  238,513;28735,488;31,83430
 883,65; 9307,558;  214,283;28770,335;31,84360
 884,21; 9475,096;  256,206;28987,565;32,08651
 884,77; 9520,404;  221,360;28983,104;32,33129
 885,32; 9568,404;  230,975;29187,642;32,24621
 885,88; 9707,250;  259,283;29262,335;32,57577
 886,44; 9757,712;  237,513;29484,642;32,55088
 887,00; 9785,327;  254,360;29404,412;32,69623
 887,56; 9904,404;  231,437;29648,488;32,88218
 888,11; 9912,481;  236,360;29552,412;33,00622
 888,67;10032,712;  264,206;29822,412;33,04837
 889,23;10060,096;  237,667;29833,873;33,18814
 889,79; 9995,481;  214,360;29723,027;33,14660
 890,34;10001,942;  239,360;29613,258;33,23557
 890,90;10176,788;  302,975;29761,181;33,51804
 891,46;10109,096;  225,667;29652,104;33,58690
 892,01;10172,250;  252,975;29674,104;33,71480
 892,57;10190,635;  252,821;29550,335;33,92033
 893,13;10132,019;  233,283;29317,873;34,03430
 893,69;10141,327;  227,129;29388,719;33,99745
 894,24;10141,712;  236,667;29281,335;34,10280
 894,80;10142,712;  231,052;29059,104;34,38200
 895,36;10083,173;  230,129;28942,873;34,31593
 895,91; 9988,865;  231,206;28773,719;34,18641
 896,47;10032,788;  258,975;28624,412;34,45677
 897,03;10007,712;  220,667;28386,335;34,74814
 897,58; 9965,865;  238,821;28392,488;34,54983
 898,14; 9996,865;  239,975;28132,565;34,98022
 898,70; 9906,635;  209,667;27967,642;34,93399
 899,25; 9970,712;  228,129;27958,719;35,13298
 899,81;10001,558;  250,590;27772,104;35,43035
 900,37; 9951,019;  217,437;27573,104;35,58159
 900,92; 9995,481;  240,283;27632,719;35,61274
 901,48; 9959,788;  224,821;27419,488;35,79734
 902,03; 9938,173;  223,513;27255,796;35,93725
 902,59; 9979,019;  226,052;27215,412;36,13634
 903,15; 9997,712;  256,052;26958,950;36,48166
 903,70; 9874,173;  244,052;26687,181;36,41824
 904,26; 9925,788;  217,744;26660,335;36,71367
 904,82; 9970,404;  236,744;26648,488;36,85353
 905,37;10003,173;  240,052;26469,873;37,22146
 905,93; 9917,173;  224,744;26360,104;37,08550
 906,48; 9944,404;  239,667;26317,104;37,21507
 907,04; 9965,712;  253,898;26173,181;37,46945
 907,60; 9930,558;  224,975;25972,873;37,69466
 908,15; 9890,327;  218,667;25883,104;37,68507
 908,71; 9927,558;  250,513;25858,335;37,78941
 909,26; 9901,404;  213,283;25706,950;38,00207
 909,82; 9896,327;  257,437;25599,796;38,03470
 910,37; 9951,865;  268,052;25525,796;38,33998
 910,93; 9861,019;  219,744;25226,335;38,55494
 911,48; 9837,404;  208,513;25048,181;38,76417
 912,04; 9826,788;  216,590;24939,950;38,87092
 912,60; 9820,173;  242,206;25022,488;38,65157
 913,15; 9831,327;  235,975;24808,104;39,04974
 913,71; 9771,558;  226,360;24581,642;39,19149
 914,26; 9786,788;  204,360;24588,950;39,29707
 914,82; 9811,635;  234,975;24467,873;39,51925
 915,37; 9786,788;  226,898;24384,950;39,57227
 915,93; 9854,712;  277,129;24278,258;39,90472
 916,48; 9825,635;  216,283;24113,488;40,21119
 917,04; 9805,712;  239,590;24033,642;40,20383
 917,59; 9817,096;  254,129;23937,412;40,37855
 918,15; 9732,250;  206,206;23718,181;40,51571
 918,70; 9779,942;  226,283;23675,335;40,74220
 919,26; 9794,481;  229,667;23483,565;41,13209
 919,81; 9702,404;  212,975;23370,412;40,97789
 920,37; 9692,019;  233,283;23301,335;41,00362
 920,92; 9669,481;  241,975;23216,796;41,03408
 921,48; 9645,096;  209,667;22934,027;41,52121
 922,03; 9629,942;  218,437;23038,488;41,24226
 922,59; 9666,404;  225,821;22863,565;41,70284
 923,14; 9575,404;  223,975;22679,488;41,64424
 923,69; 9639,173;  244,283;22620,642;41,98579
 924,25; 9636,712;  248,513;22641,181;41,92532
 924,80; 9522,327;  225,975;22275,796;42,16067
 925,36; 9555,250;  219,744;22273,104;42,33144
 925,91; 9521,942;  222,052;22124,873;42,45978
 926,47; 9534,712;  209,667;22107,181;42,58495
 927,02; 9587,942;  269,744;22038,335;42,80570
 927,57; 9479,942;  220,975;21821,565;42,86442
 928,13; 9532,635;  217,360;21776,642;43,20772
 928,68; 9542,250;  221,283;21722,027;43,35184
 929,24; 9451,019;  192,821;21528,642;43,39274
 929,79; 9437,712;  216,052;21382,335;43,56769
 930,34; 9429,942;  216,513;21190,642;43,92759
 930,90; 9489,712;  215,898;21257,642;44,07341
 931,45; 9478,250;  233,513;21206,719;44,07880
 932,01; 9498,250;  231,360;21068,950;44,47199
 932,56; 9459,096;  244,513;20865,642;44,68515
 933,11; 9495,712;  256,437;20914,258;44,72531
 933,67; 9418,635;  216,360;20690,488;44,94587
 934,22; 9429,404;  221,283;20578,796;45,23205
 934,77; 9428,865;  251,360;20507,642;45,30696
 935,33; 9388,404;  233,975;20403,412;45,38763
 935,88; 9344,558;  226,590;20301,335;45,42009
 936,43; 9351,635;  218,975;20248,181;45,59671
 936,99; 9343,173;  225,206;20154,719;45,75108
 937,54; 9298,942;  212,513;19992,719;45,93698
 938,09; 9327,481;  235,360;19954,412;46,10831
 938,65; 9256,019;  230,437;19810,104;46,09671
 939,20; 9211,404;  204,129;19720,104;46,15334
 939,75; 9189,173;  217,360;19588,488;46,31539
 940,31; 9182,788;  214,590;19526,642;46,43835
 940,86; 9261,481;  228,744;19496,873;46,87916
 941,41; 9296,096;  300,129;19384,873;47,13696
 941,96; 9186,404;  217,590;19234,412;47,16253
 942,52; 9159,942;  218,898;19187,027;47,13720
 943,07; 9165,558;  200,283;19000,335;47,68750
 943,62; 9190,173;  210,513;18923,565;47,98608
 944,18; 9186,096;  204,667;18843,796;48,18588
 944,73; 9153,788;  220,129;18759,181;48,18833
 945,28; 9084,481;  200,898;18568,873;48,36452
 945,83; 9084,635;  224,975;18574,873;48,28179
 946,39; 9097,788;  214,590;18463,565;48,67779
 946,94; 9102,173;  239,052;18505,642;48,52094
 947,49; 9061,250;  225,590;18264,719;48,98052
 948,04; 9133,712;  248,513;18248,181;49,36312
 948,59; 9090,404;  237,129;18177,258;49,34900
 949,15; 9038,096;  208,898;18127,104;49,27501
 949,70; 9098,327;  211,283;18002,412;49,95211
 950,25; 9083,481;  243,590;17877,258;50,13075
 950,80; 8996,788;  190,129;17786,719;50,04753
 951,36; 9035,788;  188,975;17675,027;50,59354
 951,91; 9029,788;  236,129;17672,027;50,43422
 952,46; 8937,173;  207,821;17485,873;50,52278
 953,01; 8969,096;  238,283;17504,565;50,56568
 953,56; 8950,558;  203,975;17356,642;50,99255
 954,11; 8959,865;  221,283;17362,796;50,97906
 954,67; 8947,481;  214,898;17186,104;51,45529
 955,22; 8844,327;  202,129;17152,181;50,98626
 955,77; 8893,865;  238,437;17072,488;51,41619
 956,32; 8935,173;  267,283;16949,796;51,95794
 956,87; 8804,019;  207,821;16783,565;51,86010
 957,42; 8809,788;  210,206;16742,488;52,01691
 957,98; 8805,865;  209,821;16680,873;52,18880
 958,53; 8817,019;  240,437;16656,335;52,24559
 959,08; 8787,942;  216,283;16515,642;52,58893
 959,63; 8692,404;  214,283;16453,335;52,20823
 960,18; 8733,558;  226,206;16438,873;52,47349
 960,73; 8688,788;  214,513;16331,412;52,58006
 961,28; 8701,558;  206,975;16188,027;53,15409
 961,83; 8741,327;  241,667;16189,565;53,29643
 962,39; 8648,096;  200,129;16034,719;53,35135
 962,94; 8654,635;  231,360;16000,950;53,41467
 963,49; 8586,942;  214,744;15862,104;53,50550
 964,04; 8597,788;  232,052;15809,027;53,70578
 964,59; 8552,481;  199,975;15702,950;53,87679
 965,14; 8576,635;  234,206;15642,412;54,14277
 965,69; 8574,558;  220,129;15507,950;54,64761
 966,24; 8543,250;  213,437;15436,719;54,71759
 966,79; 8513,865;  231,667;15336,258;54,83232
 967,34; 8480,327;  199,052;15212,719;55,15824
 967,89; 8450,712;  209,590;15114,104;55,29279
 968,44; 8489,173;  226,206;15046,565;55,75416
 968,99; 8504,404;  229,052;14984,565;56,08312
 969,55; 8506,635;  227,283;14903,027;56,41521
 970,10; 8404,481;  230,821;14821,642;56,01919
 970,65; 8415,712;  233,513;14703,335;56,54664
 971,20; 8400,096;  210,052;14610,488;56,87358
 971,75; 8311,558;  201,206;14497,181;56,73172
 972,30; 8334,942;  225,898;14445,873;57,02573
 972,85; 8290,635;  206,513;14366,796;57,09011
 973,40; 8235,712;  204,513;14167,565;57,51750
 973,95; 8180,635;  224,360;14185,412;56,98908
 974,50; 8180,942;  248,360;14086,950;57,32219
 975,05; 8182,558;  224,206;13905,642;58,16898
 975,60; 8130,173;  227,667;13878,950;57,88838
 976,15; 8120,712;  216,052;13755,950;58,38050
 976,70; 8103,173;  212,744;13693,335;58,53178
 977,25; 8057,942;  228,667;13616,258;58,48158
 977,80; 8010,865;  212,975;13398,565;59,13949
 978,35; 7893,942;  231,590;13314,796;58,56632
 978,89; 7866,250;  194,667;13252,873;58,74913
 979,44; 7853,712;  216,744;13219,796;58,73211
 979,99; 7772,635;  206,129;13049,488;58,91376
 980,54; 7748,173;  236,513;12988,104;58,90763
 981,09; 7723,558;  238,437;12832,565;59,43342
 981,64; 7628,327;  231,360;12723,488;59,21302
 982,19; 7640,788;  253,667;12714,719;59,28168
 982,74; 7589,558;  233,667;12564,565;59,65413
 983,29; 7475,096;  209,052;12400,027;59,60183
 983,84; 7432,865;  228,513;12303,488;59,66349
 984,39; 7470,558;  277,437;12298,181;59,83923
 984,94; 7349,250;  198,129;12154,719;59,80903
 985,49; 7371,942;  248,667;12060,335;60,30711
 986,03; 7387,019;  239,206;11997,796;60,78801
 986,58; 7311,481;  271,360;11828,565;60,91543
 987,13; 7236,019;  228,898;11728,796;60,93203
 987,68; 7153,327;  239,437;11609,335;60,80873
 988,23; 7183,250;  231,821;11558,027;61,37474
 988,78; 7105,481;  215,283;11352,104;61,86862
 989,33; 7062,942;  235,898;11312,181;61,63660
 989,88; 7043,173;  261,975;11214,412;61,91497
 990,42; 6977,635;  220,667;11102,181;62,09584
 990,97; 6932,712;  220,283;10949,027;62,56491
 991,52; 6908,173;  248,975;10915,027;62,43358
 992,07; 6847,558;  256,667;10801,412;62,50403
 992,62; 6788,481;  241,052;10718,873;62,48846
 993,17; 6747,019;  244,590;10596,104;62,81621
 993,71; 6690,404;  236,744;10508,565;62,82878
 994,26; 6606,404;  220,667;10335,950;63,12959
 994,81; 6646,250;  246,129;10295,027;63,68978
 995,36; 6545,635;  235,052;10137,719;63,72609
 995,91; 6518,327;  228,821;10097,335;63,73306
 996,45; 6463,558;  232,513; 9939,719;64,18989
 997,00; 6359,635;  214,129; 9861,565;63,70092
 997,55; 6357,327;  235,513; 9794,335;64,04360
 998,10; 6311,788;  261,590; 9676,488;64,26196
 998,65; 6232,327;  223,975; 9595,027;64,11609
 999,19; 6171,096;  251,283; 9456,412;64,30995
 999,74; 6094,712;  278,975; 9402,104;63,74717
1000,29; 6105,096;  251,821; 9298,950;64,69760
1000,84; 6010,481;  231,744; 9158,950;64,73175
1001,38; 5995,712;  234,129; 9078,796;65,14188
1001,93; 5966,635;  242,437; 9040,335;65,06325
1002,48; 5893,635;  218,129; 8857,104;65,69652
1003,03; 5862,173;  236,052; 8843,104;65,36641
1003,57; 5802,788;  242,667; 8662,719;66,03429
1004,12; 5794,019;  267,052; 8632,565;66,06848
1004,67; 5757,865;  233,052; 8498,412;66,84299
1005,22; 5681,865;  223,437; 8366,565;67,03110
1005,76; 5572,481;  216,206; 8234,027;66,80462
1006,31; 5587,712;  247,283; 8191,796;67,22160
1006,86; 5511,635;  226,744; 8071,488;67,36855
1007,40; 5405,327;  218,590; 7946,335;67,11838
1007,95; 5399,712;  238,437; 7855,027;67,76359
1008,50; 5344,019;  234,360; 7722,488;68,23680
1009,04; 5264,404;  231,513; 7619,181;68,12557
1009,59; 5210,173;  247,744; 7518,027;68,25634
1010,14; 5170,173;  221,360; 7391,488;69,01987
1010,68; 5093,404;  234,283; 7255,873;69,20257
1011,23; 5012,942;  215,590; 7127,412;69,40793
1011,78; 5013,019;  240,129; 7102,796;69,54862
1012,32; 4946,712;  239,821; 7005,104;69,57419
1012,87; 4958,404;  259,206; 6943,412;70,30301
1013,42; 4816,173;  210,360; 6846,796;69,40191
1013,96; 4882,865;  261,360; 6832,565;70,32965
1014,51; 4786,788;  198,667; 6706,412;70,50248
1015,06; 4825,019;  190,360; 6751,488;70,63814
1015,60; 4909,788;  268,975; 6764,488;71,44645
1016,15; 4902,635;  215,052; 6756,335;71,66152
1016,69; 4901,481;  231,437; 6763,719;71,49177
1017,24; 4927,481;  196,283; 6787,796;71,77711
1017,79; 4991,019;  245,744; 6832,796;72,03944
1018,33; 4960,712;  220,821; 6814,104;71,88969
1018,88; 5042,173;  237,744; 6866,104;72,48292
1019,42; 5040,942;  221,437; 6870,104;72,48830
1019,97; 5038,250;  215,437; 6884,873;72,31216
1020,51; 5115,712;  248,206; 6918,335;72,97469
1021,06; 5070,712;  204,590; 6930,642;72,34736
1021,61; 5067,481;  187,898; 6853,258;73,20809
1022,15; 5018,250;  193,437; 6810,796;72,91146
1022,70; 5090,481;  225,206; 6826,950;73,69681
1023,24; 4982,250;  213,975; 6803,335;72,36325
1023,79; 4994,635;  222,898; 6735,258;73,27201
1024,33; 4933,404;  221,513; 6661,950;73,16104
1024,88; 4923,250;  233,437; 6588,873;73,79215
1025,42; 4826,788;  224,360; 6499,950;73,33858
1025,97; 4783,635;  212,898; 6359,719;74,35935
1026,51; 4668,173;  180,360; 6257,873;73,84292
1027,06; 4658,635;  212,129; 6224,027;73,96176
1027,60; 4599,635;  227,437; 6133,565;74,02815
1028,15; 4556,404;  232,052; 6013,565;74,79619
1028,69; 4463,327;  191,206; 5878,642;75,11506
1029,24; 4413,635;  211,129; 5852,181;74,49862
1029,78; 4367,096;  207,437; 5700,258;75,72902
1030,33; 4293,942;  193,360; 5620,796;75,55284
1030,87; 4234,327;  217,744; 5544,412;75,40517
1031,42; 4186,481;  199,513; 5511,565;75,05513
1031,96; 4119,942;  219,206; 5417,181;75,04339
1032,51; 4081,635;  208,898; 5315,412;75,83915
1033,05; 4049,096;  224,821; 5261,565;75,92752
1033,60; 3944,712;  180,590; 5120,796;76,19361
1034,14; 3899,712;  219,206; 5065,642;75,94251
1034,69; 3872,788;  212,898; 5014,873;76,21636
1035,23; 3841,788;  221,437; 4951,873;76,53315
1035,77; 3809,712;  215,590; 4875,335;77,13130
1036,32; 3701,327;  191,206; 4794,950;76,24492
1036,86; 3707,404;  214,667; 4770,719;76,66147
1037,41; 3673,635;  224,360; 4664,796;77,67874
1037,95; 3586,327;  185,513; 4588,642;77,23629
1038,50; 3543,327;  200,283; 4514,027;77,49751
1039,04; 3553,481;  232,667; 4480,642;78,17403
1039,58; 3459,019;  198,052; 4391,950;77,75504
1040,13; 3421,250;  209,821; 4376,412;77,07570
1040,67; 3434,788;  246,283; 4344,258;77,80686
1041,21; 3365,635;  239,975; 4268,412;77,58989
1041,76; 3293,865;  202,590; 4130,027;78,70974
1042,30; 3280,404;  205,360; 4121,488;78,52255
1042,85; 3226,327;  207,360; 4036,796;78,83581
1043,39; 3193,327;  202,052; 3977,719;79,22507
1043,93; 3178,404;  230,129; 3965,719;78,92394
1044,48; 3109,096;  225,744; 3904,335;78,38198
1045,02; 3064,404;  209,590; 3804,258;79,41802
1045,56; 3050,250;  238,744; 3770,642;79,60325
1046,11; 3012,327;  230,590; 3755,873;78,90818
1046,65; 2989,942;  220,206; 3681,719;80,01519
1047,19; 2949,788;  204,975; 3618,412;80,41203
1047,74; 2880,558;  194,667; 3528,873;80,55563
1048,28; 2857,865;  223,206; 3535,412;79,54396
1048,82; 2838,635;  244,744; 3506,181;79,53214
1049,37; 2813,558;  223,975; 3444,642;80,40516
1049,91; 2772,635;  217,821; 3417,335;79,85006
1050,45; 2732,019;  227,590; 3377,719;79,50243
1050,99; 2687,019;  216,744; 3306,873;79,94084
1051,54; 2659,865;  210,975; 3262,335;80,25571
1052,08; 2631,712;  234,590; 3226,796;80,11218
1052,62; 2582,942;  239,283; 3178,642;79,73368
1053,16; 2552,712;  217,437; 3109,335;80,75233
1053,71; 2562,250;  225,667; 3088,027;81,63135
1054,25; 2520,942;  234,129; 3042,104;81,43995
1054,79; 2488,788;  223,821; 2991,258;81,84351
1055,33; 2439,558;  194,975; 2892,873;83,19746
1055,88; 2457,481;  228,590; 2926,796;82,60639
1056,42; 2432,250;  236,821; 2891,027;82,71510
1056,96; 2402,096;  236,898; 2825,873;83,63148
1057,50; 2368,250;  228,129; 2797,796;83,28398
1058,05; 2294,865;  220,052; 2745,796;82,14662
1058,59; 2289,942;  232,590; 2715,719;82,85321
1059,13; 2212,558;  206,206; 2624,642;82,96070
1059,67; 2215,712;  222,052; 2633,719;82,66727
1060,21; 2192,788;  227,437; 2581,181;83,49896
1060,76; 2171,404;  236,667; 2548,950;83,67215
1061,30; 2157,865;  250,513; 2537,565;83,39784
1061,84; 2097,788;  233,513; 2464,181;83,57477
1062,38; 2069,481;  214,821; 2407,796;84,57277
1062,92; 2097,404;  259,513; 2438,796;84,33465
1063,46; 2016,250;  238,206; 2377,873;83,09910
1064,01; 1979,788;  223,590; 2308,719;84,22492
1064,55; 1957,865;  229,437; 2278,181;84,36528
1065,09; 1902,942;  196,744; 2234,027;83,74872
1065,63; 1945,712;  258,898; 2275,642;83,64043
1066,17; 1932,096;  254,975; 2250,642;84,03811
1066,71; 1884,635;  246,667; 2217,719;83,10117
1067,25; 1858,173;  230,206; 2156,488;84,51342
1067,80; 1854,173;  243,360; 2149,719;84,49683
1068,34; 1855,558;  260,052; 2148,950;84,46754
1068,88; 1791,096;  225,283; 2081,258;84,36609
1069,42; 1803,327;  254,437; 2088,181;84,46600
1069,96; 1756,712;  238,590; 2014,565;85,48100
1070,50; 1770,250;  254,898; 2044,258;84,68683
1071,04; 1703,019;  217,898; 1960,027;85,24749
1071,58; 1700,173;  223,667; 1952,335;85,41295
1072,12; 1684,327;  229,283; 1930,642;85,52244
1072,66; 1666,327;  229,052; 1914,104;85,29559
1073,21; 1676,558;  240,744; 1917,950;85,60747
1073,75; 1647,712;  245,437; 1871,565;86,23394
1074,29; 1617,250;  234,283; 1851,258;85,52806
1074,83; 1625,481;  257,283; 1843,642;86,24766
1075,37; 1580,865;  249,129; 1828,412;84,32541
1075,91; 1575,327;  242,744; 1790,104;86,11978
1076,45; 1552,250;  235,590; 1773,950;85,58855
1076,99; 1538,019;  249,898; 1745,335;86,13680
1077,53; 1492,173;  220,052; 1713,488;85,18080
1078,07; 1489,096;  228,437; 1713,950;84,86356
1078,61; 1461,788;  234,360; 1670,258;85,48161
1079,15; 1463,788;  238,206; 1639,412;87,46629
1079,69; 1439,096;  225,744; 1633,027;86,21949
1080,23; 1438,712;  254,129; 1633,796;85,86002
1080,77; 1454,404;  267,052; 1646,104;86,09915
1081,31; 1386,481;  225,821; 1581,642;85,60566
1081,85; 1413,250;  249,283; 1560,950;88,73952
1082,39; 1361,865;  227,437; 1537,719;86,57894
1082,93; 1366,712;  246,975; 1544,412;86,30376
1083,47; 1318,173;  230,590; 1494,335;86,06035
1084,01; 1362,942;  247,590; 1503,719;88,79280
1084,55; 1313,096;  227,590; 1449,104;88,86564
1085,09; 1302,173;  252,744; 1463,412;86,68185
1085,63; 1291,942;  239,206; 1461,027;86,16126
1086,17; 1284,096;  228,129; 1410,642;89,29854
1086,71; 1264,250;  225,590; 1403,950;88,14454
1087,24; 1266,635;  251,821; 1425,873;86,43685
1087,78; 1249,558;  247,513; 1391,873;87,56375
1088,32; 1199,942;  229,052; 1347,181;86,83171
1088,86; 1235,096;  251,975; 1361,796;88,58375
1089,40; 1189,558;  245,744; 1326,104;87,36105
1089,94; 1160,481;  219,129; 1296,719;87,35712
1090,48; 1169,250;  254,744; 1307,642;86,85606
1091,02; 1164,481;  249,667; 1296,796;87,36398
1091,56; 1144,404;  248,667; 1270,873;87,62781
1092,10; 1114,250;  225,744; 1243,796;87,27509
1092,63; 1152,558;  262,821; 1270,335;88,31014
1093,17; 1125,942;  257,744; 1241,488;88,25445
1093,71; 1096,173;  228,052; 1212,488;88,18457
1094,25; 1111,865;  260,821; 1198,642;90,74696
1094,79; 1086,173;  236,206; 1177,181;90,32836
1095,33; 1052,712;  235,744; 1167,642;87,66702
1095,87; 1053,788;  229,667; 1172,104;87,44580
1096,40; 1023,404;  218,437; 1133,258;87,99177
1096,94; 1030,096;  242,437; 1127,027;89,04230
1097,48; 1042,788;  245,283; 1121,258;91,04207
1098,02; 1002,635;  233,129; 1089,796;89,82551
1098,56;  970,173;  203,437; 1066,027;88,88768
1099,10;  968,942;  219,206; 1061,412;89,02059
1099,63;  965,250;  203,821; 1055,335;89,42065
1100,17;  978,865;  247,744; 1059,642;90,05085
1100,71;  990,865;  261,667; 1069,719;90,24149

