
Integration time [ms]: 120,000
Averaging Nr. [scans]: 13
Smoothing Nr. [pixels]: 0
Data measured with spectrometer [name]: 2009305U1
Wave   ;Sample   ;Dark     ;Reference;Reflectance
[nm]   ;[counts] ;[counts] ;[counts] ;[%]

 175,72;  192,515;  202,673;  202,814; 0,00000
 176,32;  235,250;  225,431;  219,229; 0,00000
 176,92;  244,574;  241,593;  259,926;16,26287
 177,52;  258,354;  251,671;  258,560;97,01439
 178,12;  231,856;  228,123;  221,690; 0,00000
 178,72;  246,423;  262,428;  250,906; 0,00000
 179,32;  244,384;  256,969;  246,180; 0,00000
 179,92;  250,998;  244,743;  247,528;224,60099
 180,52;  246,624;  240,295;  251,040;58,90863
 181,12;  251,399;  250,513;  250,351; 0,00000
 181,73;  285,594;  264,591;  277,112;167,74492
 182,33;  343,559;  344,982;  351,462;-21,95879
 182,93;  263,966;  260,594;  266,980;52,80660
 183,53;  239,637;  240,272;  226,189; 0,00000
 184,13;  237,363;  234,428;  232,913; 0,00000
 184,73;  269,837;  272,348;  270,276; 0,00000
 185,33;  269,292;  227,895;  345,845;35,09679
 185,93;  273,771;  241,810;  363,162;26,33698
 186,53;  284,441;  245,969;  383,769;27,91911
 187,13;  306,361;  274,977;  418,310;21,89527
 187,73;  273,122;  236,042;  378,887;25,95827
 188,33;  281,064;  240,114;  373,931;30,60103
 188,93;  292,213;  258,330;  373,870;29,32513
 189,53;  289,878;  257,396;  374,368;27,76861
 190,13;  337,931;  277,224;  424,265;41,28610
 190,73;  272,100;  216,698;  365,464;37,24088
 191,34;  315,853;  258,249;  403,767;39,58562
 191,94;  279,748;  218,263;  371,997;39,99404
 192,54;  299,423;  243,523;  387,787;38,74874
 193,14;  294,708;  247,900;  396,592;31,48011
 193,74;  286,925;  257,129;  400,532;20,77785
 194,34;  276,789;  240,671;  386,728;24,72886
 194,94;  254,705;  220,361;  356,781;25,17497
 195,54;  232,416;  204,742;  327,334;22,57398
 196,14;  255,907;  227,827;  378,689;18,61308
 196,74;  256,027;  222,971;  359,044;24,29310
 197,34;  235,869;  197,063;  371,027;22,30661
 197,94;  268,327;  228,132;  384,373;25,72667
 198,54;  272,425;  235,596;  395,794;22,98987
 199,14;  260,528;  219,374;  388,308;24,36138
 199,74;  242,147;  202,220;  401,273;20,05861
 200,34;  242,786;  196,990;  393,795;23,26980
 200,94;  274,955;  228,446;  426,289;23,50798
 201,54;  256,939;  204,218;  443,961;21,99061
 202,14;  289,971;  229,608;  481,986;23,91772
 202,74;  275,849;  219,912;  475,274;21,90521
 203,34;  251,916;  188,920;  492,839;20,72789
 203,94;  223,219;  167,224;  499,348;16,85956
 204,54;  295,053;  245,363;  589,973;14,41926
 205,14;  265,047;  199,220;  600,798;16,39209
 205,74;  312,986;  236,688;  696,371;16,59782
 206,34;  281,794;  209,069;  707,819;14,58135
 206,94;  305,920;  215,837;  774,562;16,12297
 207,54;  271,650;  180,146;  806,666;14,60512
 208,14;  319,269;  214,378;  884,062;15,66278
 208,74;  316,134;  211,373;  951,337;14,15751
 209,34;  338,656;  194,759; 1045,915;16,90604
 209,94;  356,167;  216,528; 1149,937;14,96016
 210,54;  363,009;  213,302; 1239,675;14,58597
 211,14;  396,622;  218,374; 1375,700;15,40175
 211,73;  400,213;  201,448; 1478,977;15,55855
 212,33;  433,567;  217,908; 1586,632;15,75624
 212,93;  426,665;  205,834; 1714,331;14,63914
 213,53;  421,368;  178,220; 1776,071;15,21720
 214,13;  443,997;  200,076; 1832,252;14,94450
 214,73;  430,894;  190,377; 1872,755;14,29625
 215,33;  413,552;  173,143; 1893,014;13,97831
 215,93;  483,170;  201,842; 2020,959;15,46506
 216,53;  455,408;  158,603; 2108,122;15,22450
 217,13;  551,223;  216,302; 2311,821;15,98269
 217,73;  569,176;  194,611; 2514,042;16,14900
 218,33;  569,057;  147,770; 2710,446;16,43937
 218,93;  658,703;  176,163; 3006,310;17,04998
 219,53;  700,445;  183,770; 3305,411;16,55141
 220,13;  749,292;  156,541; 3596,351;17,23209
 220,73;  837,328;  191,836; 3941,482;17,21475
 221,32;  932,211;  182,912; 4363,260;17,92432
 221,92;  993,108;  190,848; 4775,100;17,50035
 222,52; 1058,936;  174,227; 5205,811;17,58310
 223,12; 1142,869;  171,612; 5659,397;17,69852
 223,72; 1221,872;  195,843; 6067,054;17,47560
 224,32; 1302,384;  201,998; 6450,584;17,61017
 224,92; 1351,267;  183,767; 6756,102;17,76386
 225,52; 1438,309;  200,684; 7072,450;18,01029
 226,12; 1475,276;  193,225; 7427,116;17,72284
 226,72; 1534,667;  164,840; 7739,306;18,08480
 227,31; 1603,704;  160,994; 8128,208;18,10809
 227,91; 1691,425;  178,452; 8522,116;18,13320
 228,51; 1747,895;  181,909; 8913,420;17,93488
 229,11; 1828,292;  182,301; 9324,768;18,00380
 229,71; 1879,237;  175,219; 9553,884;18,16909
 230,31; 1936,575;  170,000;10006,581;17,95925
 230,91; 1995,436;  162,060;10330,474;18,03011
 231,51; 2061,828;  162,304;10694,483;18,03544
 232,10; 2115,405;  171,616;11055,467;17,85939
 232,70; 2151,404;  189,671;11322,958;17,62043
 233,30; 2235,313;  200,534;11530,911;17,95862
 233,90; 2247,350;  179,764;11686,583;17,96835
 234,50; 2254,193;  181,534;11918,588;17,65910
 235,10; 2278,729;  166,536;11994,333;17,85787
 235,70; 2317,940;  187,221;12088,487;17,90330
 236,29; 2298,107;  187,988;12111,897;17,69653
 236,89; 2264,737;  166,599;12029,823;17,68607
 237,49; 2259,564;  197,687;11971,528;17,51236
 238,09; 2193,409;  176,993;11716,511;17,47401
 238,69; 2197,218;  218,442;11547,115;17,46697
 239,29; 2099,931;  172,223;11220,918;17,44738
 239,89; 2044,316;  193,907;10971,228;17,16947
 240,48; 1957,215;  176,531;10591,259;17,09775
 241,08; 1898,111;  175,145;10224,619;17,14484
 241,68; 1849,359;  196,993; 9925,720;16,98440
 242,28; 1742,477;  168,918; 9604,373;16,67709
 242,88; 1724,539;  214,538; 9311,832;16,59835
 243,48; 1653,099;  207,533; 8999,871;16,44120
 244,07; 1587,308;  190,298; 8722,403;16,37357
 244,67; 1575,814;  200,070; 8626,684;16,32618
 245,27; 1530,059;  198,602; 8464,284;16,10826
 245,87; 1509,753;  202,768; 8392,547;15,95873
 246,47; 1480,407;  190,295; 8414,382;15,68700
 247,06; 1492,449;  179,146; 8363,177;16,04715
 247,66; 1474,537;  176,685; 8450,657;15,68595
 248,26; 1516,866;  217,295; 8599,618;15,50370
 248,86; 1525,876;  200,757; 8748,312;15,50290
 249,46; 1519,056;  157,457; 8985,134;15,42420
 250,05; 1616,362;  203,377; 9328,022;15,48537
 250,65; 1639,427;  168,832; 9752,153;15,34536
 251,25; 1723,509;  174,760;10184,430;15,47253
 251,85; 1822,025;  191,137;10734,774;15,46798
 252,44; 1891,324;  155,835;11399,855;15,43478
 253,04; 2055,405;  197,451;12181,097;15,50408
 253,64; 2144,621;  155,678;12806,281;15,72212
 254,24; 2359,051;  195,146;13819,981;15,88207
 254,84; 2493,056;  170,996;14760,980;15,91544
 255,43; 2690,813;  175,527;15673,602;16,22966
 256,03; 2853,554;  178,063;16632,867;16,25964
 256,63; 3054,159;  183,214;17740,187;16,35216
 257,23; 3199,493;  177,907;18504,473;16,48747
 257,82; 3423,007;  190,672;19507,424;16,73332
 258,42; 3536,290;  145,747;20302,163;16,82116
 259,02; 3765,766;  190,682;21198,699;17,01771
 259,62; 3919,996;  173,669;21930,235;17,21929
 260,21; 4043,806;  179,989;22397,750;17,39067
 260,81; 4148,039;  187,994;22933,955;17,40988
 261,41; 4246,415;  162,594;23400,776;17,57375
 262,01; 4426,788;  205,975;23824,308;17,87092
 262,60; 4506,724;  158,984;24167,088;18,10947
 263,20; 4592,651;  164,756;24460,117;18,22527
 263,80; 4655,534;  201,359;24601,526;18,25469
 264,40; 4724,036;  163,976;24723,670;18,56725
 264,99; 4801,139;  187,974;24932,785;18,64296
 265,59; 4852,445;  179,353;25036,733;18,79961
 266,19; 4901,537;  165,821;25188,490;18,92570
 266,78; 5029,606;  212,895;25312,266;19,19057
 267,38; 4994,201;  186,739;25277,200;19,16052
 267,98; 5064,613;  172,049;25385,041;19,40493
 268,58; 5063,161;  188,354;25331,948;19,38787
 269,17; 5079,320;  171,427;25344,257;19,49679
 269,77; 5100,476;  191,520;25145,525;19,67201
 270,37; 5068,577;  163,205;25022,926;19,73221
 270,96; 5100,141;  215,441;24936,068;19,75961
 271,56; 5034,426;  174,753;24681,858;19,82965
 272,16; 5050,501;  178,979;24415,776;20,09970
 272,75; 5067,682;  177,210;24341,755;20,23821
 273,35; 5045,094;  187,057;24250,780;20,18822
 273,95; 5035,070;  186,287;24241,027;20,15729
 274,54; 5017,723;  175,300;24275,778;20,09265
 275,14; 5215,158;  200,519;24642,891;20,51617
 275,74; 5168,485;  153,825;24701,154;20,42854
 276,33; 5322,339;  213,136;25015,994;20,59925
 276,93; 5365,403;  195,455;25489,552;20,43935
 277,53; 5509,495;  185,065;26006,631;20,62009
 278,12; 5613,681;  172,215;26618,996;20,57515
 278,72; 5818,772;  216,219;27075,304;20,85906
 279,32; 5925,742;  186,064;27665,976;20,88681
 279,91; 6139,063;  164,832;28374,510;21,17795
 280,51; 6266,097;  172,373;28907,973;21,20618
 281,11; 6493,022;  183,525;29638,489;21,42083
 281,70; 6602,009;  165,370;30074,476;21,52067
 282,30; 6790,965;  181,214;30776,550;21,60378
 282,90; 6950,827;  178,752;31071,250;21,92142
 283,49; 7094,328;  191,519;31703,206;21,90555
 284,09; 7310,808;  213,908;32174,372;22,20525
 284,69; 7460,524;  201,602;32551,480;22,43879
 285,28; 7594,035;  201,523;32877,715;22,62354
 285,88; 7742,595;  235,209;33144,707;22,81222
 286,47; 7843,978;  184,368;33220,054;23,18587
 287,07; 7951,431;  209,679;33248,088;23,43258
 287,67; 8133,176;  204,456;33355,794;23,91674
 288,26; 8233,387;  172,448;33241,410;24,37615
 288,86; 8406,330;  179,754;33428,826;24,74227
 289,46; 8606,223;  192,063;33471,747;25,28317
 290,05; 8734,890;  174,837;33601,850;25,60819
 290,65; 8941,118;  180,521;33802,888;26,05586
 291,24; 9183,020;  188,988;33879,003;26,69643
 291,84; 9382,005;  206,368;34112,571;27,06182
 292,44; 9621,728;  191,072;34235,115;27,70134
 293,03; 9859,923;  241,449;34378,031;28,17644
 293,63;10034,018;  179,598;34411,921;28,78689
 294,22;10207,119;  205,832;34641,153;29,04369
 294,82;10371,330;  186,438;34577,243;29,61516
 295,41;10338,855;  169,832;34333,169;29,76590
 296,01;10441,428;  219,286;34338,309;29,96024
 296,61;10422,381;  198,218;34063,374;30,19080
 297,20;10406,073;  189,978;33632,022;30,54866
 297,80;10382,011;  203,223;33573,652;30,50242
 298,39;10293,717;  174,983;33088,159;30,74372
 298,99;10282,335;  220,749;32950,935;30,74100
 299,58;10198,888;  203,609;32750,873;30,71004
 300,18;10176,532;  204,683;32613,290;30,76914
 300,78;10011,699;  186,527;32260,315;30,63303
 301,37;10050,754;  187,512;32215,892;30,79532
 301,97;10037,568;  196,140;32287,880;30,66654
 302,56; 9963,603;  183,983;32152,209;30,59169
 303,16; 9914,750;  173,212;32088,694;30,52292
 303,75; 9874,736;  183,605;32134,495;30,33133
 304,35; 9958,384;  179,766;32333,153;30,41240
 304,94; 9908,093;  186,064;32333,222;30,24227
 305,54; 9893,903;  204,604;32260,260;30,22649
 306,13; 9773,488;  168,074;32186,516;29,99963
 306,73; 9638,744;  162,995;32020,506;29,74416
 307,33; 9626,667;  202,378;31912,690;29,71995
 307,92; 9583,886;  194,757;32025,129;29,49739
 308,52; 9640,492;  158,596;32481,024;29,33535
 309,11; 9738,762;  179,977;32994,471;29,12976
 309,71; 9697,269;  160,590;33237,434;28,83189
 310,30; 9767,167;  174,218;33455,381;28,82396
 310,90; 9809,628;  210,295;33790,920;28,58593
 311,49; 9770,407;  182,833;33948,536;28,39442
 312,09; 9740,650;  159,914;34164,542;28,17480
 312,68; 9832,522;  230,450;34592,532;27,94380
 313,28; 9774,424;  166,988;34646,206;27,86443
 313,87; 9734,698;  156,910;34788,836;27,65595
 314,47; 9744,016;  172,902;35029,917;27,45822
 315,06; 9686,294;  163,065;35299,219;27,10379
 315,66; 9674,957;  164,914;35459,619;26,94467
 316,25; 9501,817;  156,982;35359,386;26,54601
 316,85; 9495,135;  158,914;35417,171;26,47953
 317,44; 9482,886;  178,747;35551,114;26,30341
 318,04; 9309,098;  157,214;35579,271;25,83668
 318,63; 9176,380;  155,072;35726,555;25,36107
 319,22; 9174,325;  181,905;35905,413;25,17228
 319,82; 9053,992;  167,754;35877,499;24,88463
 320,41; 8930,660;  187,829;35789,622;24,55728
 321,01; 8894,348;  194,144;35985,116;24,30838
 321,60; 8820,748;  183,216;36034,226;24,09286
 322,20; 8678,642;  171,834;36012,471;23,73509
 322,79; 8630,545;  204,065;36081,114;23,48710
 323,39; 8510,601;  165,535;36264,448;23,11722
 323,98; 8371,826;  162,373;36174,645;22,79626
 324,58; 8235,974;  169,212;36082,534;22,46175
 325,17; 8180,824;  180,674;35980,084;22,34715
 325,76; 7986,270;  196,525;35776,620;21,89355
 326,36; 7828,057;  163,298;35371,970;21,76952
 326,95; 7713,159;  198,754;35069,435;21,54935
 327,55; 7518,333;  161,138;34641,898;21,33710
 328,14; 7373,349;  174,762;34387,672;21,04056
 328,74; 7245,292;  192,213;33867,091;20,94463
 329,33; 7102,475;  190,298;33500,292;20,75106
 329,92; 6870,133;  162,978;33018,813;20,41389
 330,52; 6670,088;  185,147;32312,238;20,18527
 331,11; 6502,229;  168,446;31877,121;19,97492
 331,71; 6331,678;  182,371;31285,125;19,77094
 332,30; 6185,170;  205,371;30798,837;19,54600
 332,89; 6076,178;  233,836;30230,908;19,47637
 333,49; 5866,872;  194,370;29681,099;19,23747
 334,08; 5724,620;  181,061;29290,311;19,04398
 334,68; 5580,065;  180,908;28844,380;18,83637
 335,27; 5506,262;  199,148;28509,180;18,74641
 335,86; 5397,614;  240,446;28279,505;18,39280
 336,46; 5269,403;  197,917;27999,599;18,24165
 337,05; 5181,805;  182,908;27786,484;18,10960
 337,65; 5070,085;  165,677;27644,737;17,84780
 338,24; 5136,227;  223,681;27624,652;17,92837
 338,83; 5019,963;  197,758;27574,945;17,61395
 339,43; 4926,111;  171,674;27464,343;17,42020
 340,02; 4916,713;  179,828;27356,946;17,42968
 340,61; 4873,274;  174,680;27473,017;17,21201
 341,21; 4847,061;  205,367;27452,091;17,03579
 341,80; 4786,888;  178,753;27378,828;16,94162
 342,40; 4770,363;  184,455;27491,454;16,79389
 342,99; 4745,793;  182,451;27617,523;16,63324
 343,58; 4753,168;  183,298;27786,907;16,55533
 344,18; 4761,890;  195,298;27881,312;16,49422
 344,77; 4817,345;  176,058;28227,568;16,54559
 345,36; 4834,928;  168,447;28489,512;16,47707
 345,96; 4881,592;  195,298;28794,851;16,38590
 346,55; 4891,819;  166,843;29047,867;16,36014
 347,14; 4889,192;  165,455;29447,062;16,13210
 347,74; 4964,255;  151,771;29812,017;16,22537
 348,33; 5063,987;  171,462;30503,914;16,12967
 348,92; 5156,758;  191,928;31151,410;16,03654
 349,52; 5189,761;  155,541;31617,050;16,00120
 350,11; 5228,084;  183,519;31846,779;15,93192
 350,70; 5231,675;  180,680;31873,408;15,93739
 351,29; 5143,643;  155,818;31621,476;15,85165
 351,89; 5152,742;  185,362;31699,576;15,76235
 352,48; 5157,384;  158,680;31723,262;15,83643
 353,07; 5147,614;  175,148;31659,396;15,79350
 353,67; 5126,039;  186,851;31579,556;15,73355
 354,26; 5081,981;  189,455;31300,726;15,72590
 354,85; 5064,349;  179,607;31184,856;15,75456
 355,45; 4981,279;  158,753;31068,172;15,60212
 356,04; 5027,875;  171,610;30902,801;15,80240
 356,63; 4982,223;  197,062;30688,623;15,69339
 357,22; 4950,132;  185,820;30543,010;15,69418
 357,82; 4944,902;  191,976;30352,412;15,75881
 358,41; 4943,956;  202,294;30250,845;15,78000
 359,00; 4912,054;  168,982;29995,238;15,90234
 359,60; 4903,130;  188,065;30018,757;15,80609
 360,19; 4902,524;  182,611;29786,862;15,94336
 360,78; 4890,122;  194,523;29616,870;15,95930
 361,37; 4853,049;  178,985;29418,142;15,98563
 361,97; 4865,099;  196,986;29340,258;16,01781
 362,56; 4807,984;  175,365;29036,458;16,05143
 363,15; 4820,711;  220,907;28797,122;16,09662
 363,74; 4794,271;  188,056;28358,776;16,35107
 364,34; 4742,954;  197,905;28033,378;16,32826
 364,93; 4657,144;  172,211;27588,802;16,35846
 365,52; 4592,999;  153,908;27112,428;16,46637
 366,11; 4577,459;  173,982;26848,518;16,50817
 366,71; 4544,095;  170,598;26452,336;16,64082
 367,30; 4524,581;  172,370;26109,029;16,78015
 367,89; 4551,479;  227,607;25897,457;16,84417
 368,48; 4486,970;  186,594;25524,475;16,97212
 369,07; 4419,752;  179,603;25048,562;17,04997
 369,67; 4467,024;  197,980;24801,124;17,35162
 370,26; 4369,605;  178,219;24544,953;17,20126
 370,85; 4376,209;  183,216;24214,610;17,44798
 371,44; 4344,748;  179,601;23966,503;17,51025
 372,03; 4305,436;  168,751;23732,350;17,55540
 372,63; 4266,952;  156,293;23380,987;17,69952
 373,22; 4307,454;  176,834;23073,486;18,04028
 373,81; 4239,651;  157,139;22784,407;18,04244
 374,40; 4258,677;  177,916;22525,182;18,26067
 374,99; 4246,149;  172,445;22297,340;18,41231
 375,59; 4216,493;  164,453;22014,855;18,54446
 376,18; 4240,329;  194,753;21910,702;18,62952
 376,77; 4238,758;  189,140;21655,398;18,86504
 377,36; 4245,611;  198,292;21627,694;18,88675
 377,95; 4214,794;  193,213;21311,650;19,04298
 378,55; 4216,579;  166,683;21149,809;19,30073
 379,14; 4199,052;  196,908;21141,953;19,10783
 379,73; 4285,262;  184,137;20977,656;19,72309
 380,32; 4309,273;  192,832;20964,307;19,81776
 380,91; 4306,575;  164,133;20836,090;20,03895
 381,50; 4300,679;  190,981;20822,730;19,91929
 382,10; 4351,350;  169,601;20675,846;20,39256
 382,69; 4364,684;  156,908;20648,499;20,53416
 383,28; 4426,656;  201,674;20597,764;20,71467
 383,87; 4374,155;  171,981;20438,512;20,73455
 384,46; 4422,467;  168,284;20395,775;21,03169
 385,05; 4484,352;  201,058;20345,605;21,26280
 385,64; 4487,075;  173,290;20372,133;21,35659
 386,24; 4506,614;  160,207;20337,384;21,54121
 386,83; 4573,694;  204,283;20341,147;21,69857
 387,42; 4621,774;  197,982;20443,755;21,85044
 388,01; 4698,636;  187,663;20722,576;21,96733
 388,60; 4823,003;  185,669;20944,242;22,33937
 389,19; 4871,834;  171,195;21150,735;22,40583
 389,78; 4985,250;  177,043;21370,802;22,68690
 390,37; 5153,811;  234,666;21847,997;22,75977
 390,96; 5216,474;  180,052;22023,426;23,05697
 391,56; 5252,887;  184,039;22139,320;23,08715
 392,15; 5370,196;  169,582;22411,555;23,38198
 392,74; 5419,446;  150,800;22583,063;23,48691
 393,33; 5594,619;  174,192;22846,524;23,90767
 393,92; 5765,378;  192,027;23328,953;24,08855
 394,51; 5790,940;  174,577;23483,413;24,09543
 395,10; 5955,183;  210,938;23741,130;24,41223
 395,69; 6004,491;  191,709;23890,302;24,52796
 396,28; 6103,703;  189,164;24005,657;24,83380
 396,87; 6149,031;  197,000;24049,721;24,95326
 397,46; 6219,975;  196,915;24168,127;25,12622
 398,06; 6339,226;  211,983;24401,439;25,33022
 398,65; 6401,821;  191,424;24435,851;25,61577
 399,24; 6494,371;  197,112;24662,782;25,73916
 399,83; 6505,738;  175,619;24707,790;25,80334
 400,42; 6651,411;  214,283;24793,714;26,18908
 401,01; 6651,587;  189,019;24914,542;26,13723
 401,60; 6742,829;  199,975;24900,798;26,48841
 402,19; 6767,262;  220,863;24849,078;26,58089
 402,78; 6813,812;  222,501;24901,088;26,70862
 403,37; 6809,747;  204,834;24741,548;26,91849
 403,96; 6794,115;  203,697;24609,990;27,00294
 404,55; 6834,814;  211,322;24417,879;27,36239
 405,14; 6816,225;  194,415;24293,260;27,47770
 405,73; 6846,163;  207,883;24275,116;27,58223
 406,32; 6830,746;  205,219;24131,352;27,69159
 406,91; 6868,556;  198,856;23904,980;28,13492
 407,50; 6818,188;  207,674;23733,268;28,09925
 408,09; 6769,476;  183,730;23420,189;28,34229
 408,68; 6826,136;  192,793;23255,197;28,76258
 409,27; 6799,082;  185,273;23146,454;28,80431
 409,86; 6810,318;  197,701;22960,388;29,05025
 410,45; 6833,682;  238,122;22919,365;29,07936
 411,04; 6864,718;  238,082;22843,339;29,31458
 411,63; 6829,838;  211,592;22600,535;29,56033
 412,22; 6778,074;  218,021;22288,056;29,72380
 412,81; 6749,494;  223,652;22056,752;29,88967
 413,40; 6689,952;  235,979;21728,740;30,02859
 413,99; 6669,439;  260,589;21397,851;30,32015
 414,58; 6515,273;  202,285;21003,304;30,34942
 415,17; 6455,421;  218,036;20759,640;30,36464
 415,76; 6466,886;  210,789;20711,639;30,51628
 416,35; 6449,993;  191,259;20454,580;30,88701
 416,94; 6488,235;  230,023;20514,156;30,85275
 417,53; 6616,468;  201,576;20800,791;31,14144
 418,12; 6639,225;  201,580;20827,937;31,21077
 418,71; 6833,080;  220,980;21186,040;31,53866
 419,30; 6878,470;  211,736;21228,228;31,72144
 419,89; 6949,371;  194,893;21434,172;31,80182
 420,48; 7083,026;  237,442;21733,900;31,84517
 421,07; 7139,790;  215,368;21822,005;32,04766
 421,66; 7157,773;  188,454;21846,735;32,17854
 422,25; 7194,194;  208,395;21852,910;32,27515
 422,84; 7241,693;  225,783;21737,539;32,61431
 423,43; 7146,477;  215,391;21508,323;32,55111
 424,02; 7122,086;  233,317;21253,813;32,77168
 424,60; 6991,642;  215,646;20826,513;32,87584
 425,19; 6921,357;  213,481;20615,233;32,87892
 425,78; 6943,689;  234,251;20400,833;33,27008
 426,37; 6914,290;  238,797;20253,664;33,35267
 426,96; 6874,140;  222,105;20170,398;33,34639
 427,55; 6843,465;  211,732;20039,514;33,44667
 428,14; 6771,978;  203,353;19811,972;33,49866
 428,73; 6751,945;  204,266;19667,866;33,64064
 429,32; 6771,862;  222,719;19620,862;33,76170
 429,91; 6826,457;  242,190;19615,704;33,98592
 430,50; 6795,181;  231,888;19457,006;34,13916
 431,08; 6739,096;  221,587;19289,596;34,18034
 431,67; 6743,292;  259,438;19255,284;34,13301
 432,26; 6714,923;  261,905;19013,763;34,41269
 432,85; 6596,926;  275,980;18644,633;34,41159
 433,44; 6469,153;  279,142;18309,281;34,33146
 434,03; 6364,785;  303,076;17873,504;34,49949
 434,62; 6243,761;  254,220;17499,553;34,73138
 435,21; 6218,408;  270,981;17245,806;35,03675
 435,79; 6125,777;  249,226;17166,079;34,73785
 436,38; 6150,961;  252,083;16985,729;35,25160
 436,97; 6096,396;  247,930;16873,153;35,17827
 437,56; 6073,308;  255,023;16748,946;35,27533
 438,15; 6036,106;  235,558;16658,115;35,32062
 438,74; 6083,986;  265,790;16633,993;35,54572
 439,33; 6096,461;  241,711;16658,018;35,66423
 439,91; 6119,322;  221,026;16713,130;35,76437
 440,50; 6167,838;  271,565;16805,548;35,66154
 441,09; 6215,065;  262,189;16895,628;35,78860
 441,68; 6184,934;  241,660;16963,225;35,54257
 442,27; 6208,602;  233,887;16851,869;35,95331
 442,86; 6200,676;  203,599;16819,088;36,09329
 443,44; 6255,052;  227,595;16931,893;36,08327
 444,03; 6307,261;  271,446;16995,269;36,09112
 444,62; 6213,318;  226,600;16879,912;35,94911
 445,21; 6234,036;  245,366;16666,519;36,46924
 445,80; 6136,478;  265,147;16604,455;35,93378
 446,39; 6094,688;  268,760;16364,850;36,19468
 446,97; 5990,833;  227,772;16116,035;36,27244
 447,56; 5952,027;  218,705;15890,562;36,58355
 448,15; 5879,425;  228,618;15759,022;36,38544
 448,74; 5804,238;  257,389;15456,208;36,49526
 449,33; 5749,337;  235,088;15347,125;36,48912
 449,91; 5678,160;  238,175;15103,327;36,59555
 450,50; 5602,230;  230,558;14860,535;36,71689
 451,09; 5587,641;  234,097;14801,560;36,75001
 451,68; 5601,138;  259,410;14724,733;36,92782
 452,26; 5516,333;  251,953;14609,451;36,66642
 452,85; 5522,446;  230,104;14421,058;37,29377
 453,44; 5537,247;  243,810;14491,666;37,15252
 454,03; 5518,629;  217,417;14426,473;37,30868
 454,61; 5507,980;  230,811;14415,041;37,20448
 455,20; 5589,523;  245,893;14580,549;37,27770
 455,79; 5573,266;  254,961;14556,496;37,18695
 456,38; 5638,091;  252,439;14684,904;37,31623
 456,97; 5648,830;  237,283;14765,098;37,24956
 457,55; 5639,631;  240,597;14742,400;37,23009
 458,14; 5680,270;  249,512;14730,724;37,50210
 458,73; 5631,902;  247,136;14630,007;37,43874
 459,31; 5705,932;  265,453;14709,332;37,66633
 459,90; 5725,178;  278,294;14787,950;37,53972
 460,49; 5778,217;  316,676;14902,291;37,44471
 461,08; 5795,465;  239,457;14907,869;37,87737
 461,66; 5835,500;  248,298;15049,536;37,74821
 462,25; 5893,182;  251,999;15121,148;37,93884
 462,84; 5920,198;  277,304;15109,398;38,04516
 463,43; 5872,597;  215,394;15085,289;38,04467
 464,01; 5878,224;  248,782;15117,756;37,86032
 464,60; 5920,335;  291,775;15077,974;38,06631
 465,19; 5800,720;  228,247;14843,912;38,12671
 465,77; 5813,992;  248,251;14804,322;38,23656
 466,36; 5762,232;  262,163;14688,107;38,12624
 466,95; 5681,949;  245,856;14414,014;38,36838
 467,53; 5520,566;  250,795;14096,619;38,06036
 468,12; 5452,536;  284,642;13785,386;38,27859
 468,71; 5361,570;  249,478;13594,462;38,30721
 469,29; 5240,523;  227,721;13304,237;38,33439
 469,88; 5169,220;  237,801;13053,236;38,48031
 470,47; 5250,832;  300,502;13186,269;38,41704
 471,06; 5191,899;  263,195;13153,729;38,23506
 471,64; 5222,734;  248,577;13220,818;38,34463
 472,23; 5238,094;  221,439;13272,338;38,43915
 472,81; 5254,663;  220,431;13340,822;38,36953
 473,40; 5324,178;  234,747;13485,729;38,40795
 473,99; 5432,372;  335,209;13697,135;38,14692
 474,57; 5459,188;  245,516;13793,499;38,48301
 475,16; 5504,815;  253,433;13941,336;38,36513
 475,75; 5571,835;  273,676;14125,956;38,24756
 476,33; 5591,741;  271,682;14198,006;38,20146
 476,92; 5644,593;  275,979;14259,027;38,39373
 477,51; 5637,064;  265,064;14328,410;38,19859
 478,09; 5622,067;  257,910;14312,913;38,16546
 478,68; 5652,256;  273,913;14221,761;38,56038
 479,27; 5666,805;  287,599;14305,290;38,37441
 479,85; 5655,747;  257,605;14283,426;38,48717
 480,44; 5700,313;  254,839;14418,392;38,44709
 481,02; 6238,008;  255,537;15815,136;38,44875
 481,61; 7034,398;  283,919;17873,001;38,37880
 482,20; 7483,031;  255,691;19099,150;38,35464
 482,78; 7838,403;  299,453;19992,311;38,28266
 483,37; 8015,154;  278,699;20533,405;38,19584
 483,95; 8120,536;  304,393;20791,766;38,15103
 484,54; 8218,511;  317,687;21021,241;38,16168
 485,13; 8120,070;  274,631;20883,675;38,06795
 485,71; 8090,498;  255,552;20621,442;38,47092
 486,30; 7970,116;  284,013;20314,022;38,37294
 486,88; 7843,753;  322,246;19987,396;38,24790
 487,47; 7589,081;  301,556;19228,616;38,50321
 488,05; 7187,360;  276,713;18322,323;38,29545
 488,64; 6705,074;  297,104;17030,624;38,29422
 489,23; 6024,146;  304,637;15145,886;38,53792
 489,81; 5112,130;  299,947;12970,050;37,98062
 490,40; 4848,044;  248,179;12323,096;38,09438
 490,98; 4733,834;  239,182;12008,747;38,18877
 491,57; 4693,511;  273,023;11980,192;37,75881
 492,15; 4661,704;  253,952;11882,885;37,90332
 492,74; 4613,584;  260,944;11757,133;37,86159
 493,32; 4629,630;  277,412;11662,063;38,22882
 493,91; 4569,869;  263,340;11601,767;37,98171
 494,50; 4527,150;  262,198;11572,590;37,70826
 495,08; 4472,100;  241,813;11485,521;37,62360
 495,67; 4500,521;  272,570;11503,391;37,64596
 496,25; 4421,332;  224,038;11384,741;37,60779
 496,84; 4411,644;  231,646;11343,679;37,61686
 497,42; 4386,092;  221,502;11293,373;37,61415
 498,01; 4368,233;  249,648;11233,564;37,49651
 498,59; 4317,364;  227,811;11193,057;37,29559
 499,18; 4313,307;  225,572;11124,262;37,50667
 499,76; 4278,356;  260,115;11101,294;37,06461
 500,35; 4187,693;  245,432;10862,542;37,13121
 500,93; 4176,256;  241,963;10813,297;37,21662
 501,52; 4164,032;  238,734;10757,351;37,31763
 502,10; 4123,407;  261,129;10747,595;36,83108
 502,69; 4082,031;  242,363;10559,944;37,21480
 503,27; 3996,756;  227,429;10349,820;37,23752
 503,86; 3968,090;  233,977;10292,458;37,12403
 504,44; 3922,403;  224,981;10143,073;37,27957
 505,03; 3824,961;  207,673; 9910,660;37,28015
 505,61; 3782,599;  228,441; 9867,810;36,87128
 506,19; 3724,704;  250,134; 9720,605;36,68845
 506,78; 3637,616;  215,912; 9514,755;36,79709
 507,36; 3570,178;  224,980; 9341,724;36,69290
 507,95; 3540,581;  231,532; 9195,965;36,91309
 508,53; 3470,419;  226,066; 9043,616;36,79427
 509,12; 3411,457;  230,530; 8892,813;36,72157
 509,70; 3338,153;  257,455; 8769,488;36,19227
 510,29; 3321,780;  247,459; 8619,416;36,72164
 510,87; 3204,609;  229,989; 8412,749;36,35229
 511,46; 3143,590;  219,298; 8211,179;36,59078
 512,04; 3067,280;  224,918; 8099,680;36,09458
 512,62; 3027,747;  237,914; 7993,451;35,97215
 513,21; 2947,924;  213,229; 7789,415;36,09593
 513,79; 2908,681;  220,165; 7669,221;36,09203
 514,38; 2812,278;  209,315; 7499,517;35,70495
 514,96; 2791,645;  244,391; 7433,540;35,43194
 515,54; 2735,763;  212,778; 7283,317;35,68307
 516,13; 2683,841;  226,779; 7157,826;35,45008
 516,71; 2648,859;  215,862; 7056,039;35,56922
 517,30; 2612,998;  208,251; 6931,959;35,76519
 517,88; 2584,740;  234,174; 6882,673;35,35484
 518,46; 2510,253;  213,022; 6747,913;35,15331
 519,05; 2498,602;  225,718; 6659,507;35,32730
 519,63; 2472,003;  224,178; 6659,420;34,92992
 520,22; 2445,019;  243,724; 6564,271;34,82760
 520,80; 2428,939;  227,494; 6466,969;35,28253
 521,38; 2438,348;  257,027; 6436,694;35,29836
 521,97; 2373,057;  218,883; 6429,178;34,68715
 522,55; 2375,535;  235,575; 6443,647;34,47061
 523,13; 2377,483;  216,732; 6398,186;34,95538
 523,72; 2374,457;  224,330; 6381,243;34,92216
 524,30; 2417,999;  239,351; 6545,207;34,54960
 524,89; 2376,516;  207,114; 6567,260;34,10930
 525,47; 2439,130;  238,660; 6665,749;34,23743
 526,05; 2434,766;  213,276; 6727,615;34,10154
 526,64; 2512,546;  229,356; 6855,141;34,45916
 527,22; 2531,722;  232,121; 6943,659;34,26340
 527,80; 2606,536;  269,432; 7065,555;34,38878
 528,39; 2596,062;  226,435; 7190,884;34,02461
 528,97; 2652,546;  226,510; 7359,112;34,01334
 529,55; 2722,908;  234,655; 7559,822;33,96854
 530,14; 2792,049;  257,130; 7734,782;33,89994
 530,72; 2818,550;  221,972; 7856,769;34,00978
 531,30; 2846,123;  217,746; 7992,942;33,80465
 531,89; 2866,006;  229,746; 8072,921;33,61216
 532,47; 2913,472;  256,594; 8217,595;33,37366
 533,05; 2931,840;  264,355; 8219,821;33,53022
 533,63; 2940,860;  252,056; 8273,838;33,51878
 534,22; 2922,228;  224,980; 8342,061;33,22929
 534,80; 2951,962;  241,755; 8435,057;33,07833
 535,38; 2978,719;  314,977; 8489,709;32,58506
 535,97; 2909,515;  234,133; 8436,888;32,61566
 536,55; 2933,672;  271,140; 8468,496;32,48037
 537,13; 2935,113;  265,745; 8446,124;32,63134
 537,71; 2970,655;  285,283; 8475,119;32,78908
 538,30; 2967,867;  305,674; 8570,323;32,21182
 538,88; 2982,646;  318,837; 8599,984;32,16716
 539,46; 3065,517;  344,062; 8806,603;32,15885
 540,05; 3106,606;  345,912; 8897,023;32,28462
 540,63; 3160,438;  386,296; 9111,519;31,79451
 541,21; 3217,550;  393,223; 9243,260;31,91317
 541,79; 3236,817;  411,761; 9345,393;31,62271
 542,38; 3298,762;  420,142; 9496,556;31,71540
 542,96; 3317,588;  444,997; 9640,398;31,23944
 543,54; 3376,419;  449,299; 9854,765;31,12148
 544,12; 3383,340;  405,685; 9999,510;31,03720
 544,70; 3405,137;  405,382;10057,138;31,07989
 545,29; 3466,171;  420,603;10257,492;30,96068
 545,87; 3454,817;  410,915;10329,470;30,68897
 546,45; 3420,812;  392,603;10323,885;30,49163
 547,03; 3460,048;  383,760;10485,760;30,45227
 547,62; 3473,062;  363,839;10602,636;30,36707
 548,20; 3550,765;  382,919;10766,056;30,50953
 548,78; 3560,873;  344,546;10952,908;30,31879
 549,36; 3626,926;  347,391;11183,078;30,26606
 549,94; 3634,671;  320,764;11287,724;30,21719
 550,53; 3735,367;  322,697;11513,627;30,49496
 551,11; 3745,670;  294,548;11726,288;30,18894
 551,69; 3836,612;  322,468;12059,610;29,94037
 552,27; 3884,409;  275,540;12330,394;29,93706
 552,85; 3962,743;  287,163;12753,477;29,48410
 553,44; 4117,819;  288,544;13036,442;30,03848
 554,02; 4177,609;  310,085;13449,201;29,43519
 554,60; 4240,954;  248,318;13720,860;29,63536
 555,18; 4383,347;  287,852;14092,826;29,66681
 555,76; 4467,475;  277,008;14460,557;29,54456
 556,34; 4605,718;  292,169;14913,550;29,50165
 556,93; 4688,241;  277,853;15329,007;29,30265
 557,51; 4720,916;  240,707;15647,690;29,07908
 558,09; 4857,257;  284,853;16070,707;28,96520
 558,67; 4971,221;  280,172;16447,067;29,01639
 559,25; 5043,869;  288,786;16734,988;28,91296
 559,83; 5082,262;  273,791;17033,614;28,69047
 560,41; 5134,380;  265,398;17391,253;28,43059
 561,00; 5259,492;  280,634;17766,934;28,47291
 561,58; 5282,179;  274,782;18011,072;28,23249
 562,16; 5363,961;  268,625;18341,204;28,19374
 562,74; 5415,438;  237,393;18731,886;27,99777
 563,32; 5553,490;  245,867;19154,726;28,06950
 563,90; 5619,549;  267,019;19544,270;27,76605
 564,48; 5742,272;  267,550;20046,724;27,67923
 565,06; 5886,418;  267,326;20579,929;27,66309
 565,65; 6065,896;  272,181;21263,904;27,60000
 566,23; 6256,322;  311,788;22040,081;27,35849
 566,81; 6424,251;  279,324;22783,792;27,30536
 567,39; 6599,848;  277,023;23701,381;26,99252
 567,97; 6760,368;  289,940;24310,168;26,93741
 568,55; 6993,483;  293,252;25197,412;26,90406
 569,13; 7131,134;  270,634;25881,528;26,78743
 569,71; 7351,342;  280,933;26851,239;26,61019
 570,29; 7636,909;  308,160;27888,993;26,57189
 570,87; 7806,184;  303,624;28621,612;26,49397
 571,45; 7965,522;  296,018;29325,907;26,41934
 572,03; 7976,758;  249,486;29702,693;26,23576
 572,61; 8132,382;  242,944;30408,629;26,15369
 573,20; 8274,461;  281,092;31069,696;25,96210
 573,78; 8430,971;  260,329;31782,006;25,92071
 574,36; 8475,228;  279,328;32300,505;25,59525
 574,94; 8605,976;  317,256;32642,774;25,64141
 575,52; 8549,764;  265,725;32846,235;25,42637
 576,10; 8735,396;  308,953;33440,563;25,43324
 576,68; 8822,621;  288,870;33975,623;25,33266
 577,26; 8936,214;  309,574;34699,026;25,08513
 577,84; 9042,412;  315,943;35186,679;25,02519
 578,42; 9131,268;  350,873;35502,631;24,97854
 579,00; 9014,761;  290,252;35667,901;24,66108
 579,58; 9070,153;  329,718;35955,711;24,53387
 580,16; 9067,117;  305,028;35934,796;24,59205
 580,74; 9059,706;  303,875;36128,711;24,44067
 581,32; 9028,595;  300,872;36230,094;24,29143
 581,90; 8974,325;  327,182;36174,629;24,12206
 582,48; 8976,061;  327,798;36293,768;24,04568
 583,06; 8965,986;  317,718;36487,822;23,90999
 583,64; 8956,705;  308,871;36568,753;23,84959
 584,22; 8897,390;  320,649;36441,638;23,74448
 584,80; 8807,542;  320,258;36211,539;23,64720
 585,38; 8682,076;  324,553;35778,495;23,57290
 585,96; 8638,303;  299,253;35838,913;23,46407
 586,54; 8608,671;  319,802;35884,305;23,30658
 587,12; 8576,981;  300,568;36082,359;23,13024
 587,70; 8561,276;  326,331;36191,135;22,96108
 588,28; 8589,747;  305,568;36305,241;23,01182
 588,86; 8622,105;  315,031;36369,510;23,04034
 589,44; 8585,747;  297,962;36510,054;22,88679
 590,02; 8623,455;  307,114;36686,583;22,85998
 590,59; 8552,340;  285,802;36964,214;22,53788
 591,17; 8578,773;  298,047;37099,676;22,50098
 591,75; 8622,443;  289,503;37335,237;22,49366
 592,33; 8639,917;  309,655;37533,493;22,37884
 592,91; 8635,213;  272,199;37770,302;22,30250
 593,49; 8592,482;  276,587;38115,931;21,97685
 594,07; 8680,997;  285,510;38350,610;22,05560
 594,65; 8667,705;  301,418;38358,213;21,98369
 595,23; 8679,314;  307,960;38870,395;21,70857
 595,81; 8653,930;  283,500;38835,566;21,71202
 596,39; 8617,864;  271,577;38992,460;21,55500
 596,97; 8617,327;  305,198;39202,896;21,36920
 597,55; 8610,936;  285,497;39101,230;21,44862
 598,12; 8502,098;  272,973;39094,948;21,19708
 598,70; 8483,338;  269,431;39324,222;21,03175
 599,28; 8532,706;  292,662;39457,523;21,03938
 599,86; 8484,906;  276,815;39468,964;20,94320
 600,44; 8392,833;  251,740;39539,023;20,72196
 601,02; 8437,656;  308,287;39632,593;20,67263
 601,60; 8348,774;  285,734;39636,789;20,49002
 602,18; 8279,396;  254,434;39624,823;20,38324
 602,75; 8243,495;  259,269;39722,651;20,23199
 603,33; 8237,900;  276,046;39733,774;20,17819
 603,91; 8197,855;  263,669;39629,278;20,15512
 604,49; 8153,234;  287,354;39768,137;19,92331
 605,07; 8140,671;  289,734;39779,503;19,88094
 605,65; 8119,178;  293,279;39876,357;19,77082
 606,23; 8102,052;  322,032;39961,370;19,62702
 606,80; 8073,148;  339,115;40031,476;19,48494
 607,38; 8042,042;  361,129;40020,091;19,36741
 607,96; 8070,124;  396,345;40120,463;19,31768
 608,54; 8056,984;  436,971;40132,952;19,19593
 609,12; 7997,285;  423,730;40212,084;19,03460
 609,70; 7961,207;  447,584;40164,958;18,91772
 610,27; 7946,763;  446,960;40221,891;18,85560
 610,85; 7927,929;  452,660;40361,469;18,73087
 611,43; 7888,933;  453,661;40190,327;18,71136
 612,01; 7774,346;  428,579;39938,834;18,59205
 612,59; 7764,033;  437,122;40005,832;18,51693
 613,16; 7752,969;  400,803;40000,582;18,56618
 613,74; 7684,191;  391,816;39860,382;18,47641
 614,32; 7648,760;  378,203;39818,573;18,43430
 614,90; 7591,103;  368,735;39740,501;18,34403
 615,48; 7535,956;  336,420;39404,202;18,42832
 616,05; 7412,912;  326,033;39490,968;18,09496
 616,63; 7383,329;  335,569;39351,965;18,06358
 617,21; 7306,435;  332,883;39185,457;17,94875
 617,79; 7280,636;  313,578;39065,963;17,97840
 618,36; 7219,784;  330,580;39125,867;17,75784
 618,94; 7122,913;  261,959;38822,725;17,79258
 619,52; 7022,520;  292,032;38375,453;17,67301
 620,10; 7026,847;  285,269;38330,713;17,71980
 620,67; 6932,159;  295,723;38250,497;17,48511
 621,25; 6909,831;  306,350;38026,894;17,50633
 621,83; 6825,625;  298,651;38062,774;17,28353
 622,41; 6854,347;  328,959;38049,670;17,29922
 622,98; 6747,536;  308,800;37788,029;17,17948
 623,56; 6667,613;  314,030;37795,674;16,95119
 624,14; 6664,855;  289,659;37659,464;17,05975
 624,72; 6608,929;  301,805;37544,194;16,93534
 625,29; 6603,750;  282,799;37675,744;16,90413
 625,87; 6611,523;  326,270;37619,830;16,85345
 626,45; 6480,626;  279,259;37344,439;16,73098
 627,02; 6475,861;  287,732;37357,465;16,69321
 627,60; 6399,810;  271,817;37247,702;16,57294
 628,18; 6361,746;  253,730;37361,161;16,46036
 628,76; 6366,125;  261,724;37356,021;16,45644
 629,33; 6366,875;  296,726;37384,113;16,36715
 629,91; 6294,770;  278,346;37340,329;16,23341
 630,49; 6311,504;  296,956;37449,416;16,18883
 631,06; 6284,426;  287,340;37625,831;16,06141
 631,64; 6266,292;  293,568;37572,200;16,02184
 632,22; 6230,461;  254,949;37478,527;16,05303
 632,79; 6231,137;  288,257;37824,059;15,83256
 633,37; 6229,159;  277,349;37826,435;15,85075
 633,95; 6223,101;  270,644;37963,712;15,79191
 634,52; 6213,906;  272,189;38068,796;15,72024
 635,10; 6219,716;  282,499;38029,680;15,72890
 635,68; 6231,789;  274,949;38237,268;15,69145
 636,25; 6182,410;  266,637;38241,039;15,57832
 636,83; 6211,510;  254,878;38432,405;15,60246
 637,41; 6151,879;  251,487;38505,802;15,42412
 637,98; 6195,869;  285,409;38627,908;15,41490
 638,56; 6218,533;  273,867;38771,280;15,44173
 639,13; 6191,740;  265,800;38871,974;15,34972
 639,71; 6205,681;  311,878;39154,614;15,17350
 640,29; 6117,926;  246,955;38826,648;15,21777
 640,86; 6135,042;  252,032;38988,317;15,18734
 641,44; 6117,159;  253,417;38967,062;15,14645
 642,02; 6140,968;  276,341;38914,962;15,17815
 642,59; 6124,777;  253,879;39161,323;15,08940
 643,17; 6061,510;  263,110;39098,531;14,93070
 643,74; 6063,319;  249,111;39141,738;14,94938
 644,32; 6073,282;  286,649;39185,253;14,87620
 644,89; 6048,552;  280,649;39099,692;14,85844
 645,47; 6060,208;  291,111;39116,437;14,85911
 646,05; 5995,786;  286,111;39135,414;14,69698
 646,62; 5963,365;  264,189;39107,852;14,67209
 647,20; 5985,481;  269,497;39209,444;14,67897
 647,77; 5931,598;  249,804;39035,729;14,64911
 648,35; 5890,715;  245,420;39003,398;14,56550
 648,92; 5863,140;  272,651;39009,682;14,43190
 649,50; 5849,333;  234,882;38843,966;14,54179
 650,08; 5830,066;  246,882;38764,251;14,49524
 650,65; 5796,875;  238,036;39112,535;14,29945
 651,23; 5885,376;  220,421;39827,512;14,30288
 651,80; 6046,493;  233,729;40797,488;14,32994
 652,38; 6093,456;  246,499;41191,465;14,28004
 652,95; 6145,419;  227,268;41534,057;14,32731
 653,53; 6162,690;  255,961;41894,187;14,18583
 654,10; 6199,883;  281,576;41945,318;14,20493
 654,68; 6138,077;  241,577;41909,064;14,15132
 655,25; 6161,656;  238,192;41917,579;14,21197
 655,83; 6118,849;  237,423;42057,709;14,06357
 656,40; 6130,966;  264,500;42034,840;14,04457
 656,98; 6141,391;  239,270;41918,278;14,16090
 657,55; 6050,200;  252,347;41811,332;13,95090
 658,13; 5982,009;  241,116;41390,693;13,95128
 658,70; 5947,280;  266,270;41249,977;13,86163
 659,28; 5837,550;  236,501;40241,339;14,00093
 659,85; 5713,052;  255,040;39406,315;13,94083
 660,43; 5714,630;  261,887;39494,676;13,89843
 661,00; 5729,978;  240,502;39551,730;13,96414
 661,58; 5710,864;  237,810;40107,784;13,72726
 662,15; 5733,058;  226,503;40183,453;13,78122
 662,73; 5854,482;  300,272;40518,660;13,81013
 663,30; 5833,445;  244,042;40675,406;13,82442
 663,88; 5864,331;  254,965;40897,306;13,80178
 664,45; 5864,217;  244,734;41079,282;13,76159
 665,03; 5942,949;  242,658;41416,797;13,84435
 665,60; 6083,451;  323,504;41846,697;13,87164
 666,17; 6063,875;  247,658;41960,520;13,94346
 666,75; 6047,300;  249,735;42413,650;13,75006
 667,32; 6155,186;  268,505;42639,396;13,89322
 667,90; 6135,764;  244,582;42979,604;13,78537
 668,47; 6225,573;  273,274;43192,888;13,86848
 669,05; 6244,536;  237,582;43631,019;13,84300
 669,62; 6256,115;  231,583;43641,611;13,87820
 670,19; 6286,924;  232,198;43783,433;13,90254
 670,77; 6321,964;  248,198;43903,025;13,91316
 671,34; 6290,619;  243,353;43823,310;13,87626
 671,92; 6345,890;  231,737;44287,748;13,87813
 672,49; 6377,084;  258,738;44173,340;13,93237
 673,06; 6384,277;  215,507;44343,470;13,97928
 673,64; 6384,394;  232,661;44171,293;14,00074
 674,21; 6386,973;  220,046;44244,347;14,00801
 674,79; 6432,936;  250,508;44513,323;13,96754
 675,36; 6444,822;  260,585;44484,223;13,98401
 675,93; 6416,246;  219,508;44374,123;14,03418
 676,51; 6462,594;  256,816;44710,176;13,96020
 677,08; 6490,557;  241,124;44763,692;14,03655
 677,65; 6510,597;  250,047;44833,976;14,04217
 678,23; 6537,714;  253,509;45032,876;14,03371
 678,80; 6554,677;  240,971;45153,160;14,05789
 679,38; 6578,101;  240,048;45315,367;14,06103
 679,95; 6640,679;  241,510;45585,344;14,11255
 680,52; 6664,796;  246,664;45759,705;14,10174
 681,10; 6803,144;  255,126;46247,374;14,23722
 681,67; 6811,722;  254,664;46474,505;14,18667
 682,24; 6836,839;  234,126;46637,789;14,22886
 682,82; 6908,417;  238,050;47233,381;14,19368
 683,39; 7066,919;  280,973;47459,127;14,38366
 683,96; 7038,420;  245,665;47797,719;14,28488
 684,54; 7088,845;  227,589;48127,234;14,32423
 685,11; 7206,808;  269,666;48378,288;14,41975
 685,68; 7286,848;  246,358;48929,495;14,46186
 686,25; 7251,811;  229,436;49081,164;14,37488
 686,83; 7297,928;  244,897;49196,602;14,40814
 687,40; 7405,737;  219,205;49533,271;14,57299
 687,97; 7479,931;  269,667;49965,556;14,50877
 688,55; 7478,124;  222,129;49932,071;14,59667
 689,12; 7518,933;  214,206;50320,663;14,57842
 689,69; 7561,896;  222,899;50349,716;14,64086
 690,26; 7577,090;  246,130;50497,462;14,58859
 690,84; 7622,899;  245,361;50658,285;14,63422
 691,41; 7712,016;  248,822;50775,800;14,77071
 691,98; 7756,441;  254,823;51050,469;14,76823
 692,56; 7803,250;  233,284;51139,369;14,87045
 693,13; 7856,059;  283,592;51161,576;14,88358
 693,70; 7876,791;  266,823;51358,245;14,89481
 694,27; 7885,523;  254,285;51426,453;14,91287
 694,84; 7941,717;  234,131;51492,583;15,03671
 695,42; 8027,526;  288,362;51602,791;15,08185
 695,99; 8018,182;  251,132;51901,229;15,03782
 696,56; 8057,298;  233,747;51796,052;15,17300
 697,13; 8149,646;  253,594;52059,182;15,24170
 697,71; 8135,532;  221,517;52124,466;15,24772
 698,28; 8186,803;  241,825;52567,212;15,18379
 698,85; 8188,535;  218,672;52430,573;15,26446
 699,42; 8275,575;  217,903;52602,627;15,38172
 699,99; 8353,923;  269,364;52899,758;15,36101
 700,57; 8365,578;  250,288;52759,427;15,45501
 701,14; 8405,618;  239,903;52950,788;15,49151
 701,71; 8463,042;  251,057;53144,841;15,52543
 702,28; 8488,851;  249,750;53175,587;15,56726
 702,85; 8546,122;  240,212;53278,641;15,66017
 703,43; 8618,777;  267,981;53533,464;15,67769
 704,00; 8717,663;  279,366;53798,363;15,76692
 704,57; 8754,703;  251,674;53675,417;15,91620
 705,14; 8818,589;  272,597;54065,932;15,88671
 705,71; 8883,629;  271,290;54061,216;16,01106
 706,28; 8819,438;  252,367;53901,808;15,96861
 706,86; 8938,709;  276,752;54297,400;16,03453
 707,43; 8954,057;  300,598;54147,300;16,07055
 708,00; 8964,020;  264,060;54117,123;16,15500
 708,57; 8975,598;  243,675;54126,561;16,20537
 709,14; 9033,253;  272,599;54215,230;16,24069
 709,71; 9109,755;  248,830;54312,438;16,38981
 710,28; 9115,256;  264,445;54427,876;16,34093
 710,86; 9194,142;  265,676;54698,083;16,40285
 711,43; 9300,105;  280,061;54701,983;16,57428
 712,00; 9302,761;  256,600;54690,575;16,61859
 712,57; 9363,647;  265,293;54991,705;16,62516
 713,14; 9397,687;  255,216;55000,451;16,70003
 713,71; 9468,650;  266,831;54936,505;16,83167
 714,28; 9431,228;  265,601;54977,558;16,75251
 714,85; 9472,268;  241,524;54659,535;16,96266
 715,42; 9496,539;  249,140;55004,127;16,88869
 716,00; 9617,425;  311,140;55111,181;16,98226
 716,57; 9609,695;  262,602;55229,773;17,00487
 717,14; 9671,889;  249,217;55154,826;17,16158
 717,71; 9702,621;  234,987;55096,957;17,25719
 718,28; 9796,277;  280,449;55273,164;17,30380
 718,85; 9801,932;  247,218;55374,218;17,33219
 719,42; 9940,664;  269,449;55454,810;17,52496
 719,99; 9886,781;  247,219;55223,709;17,53397
 720,56; 9976,898;  264,988;55553,840;17,56576
 721,13;10081,015;  241,296;55688,124;17,74622
 721,70;10090,670;  248,835;55484,255;17,81798
 722,27;10161,787;  273,912;55549,770;17,88823
 722,84;10269,211;  306,374;55677,900;17,99271
 723,41;10291,636;  240,835;55715,569;18,11780
 723,98;10366,599;  266,682;55931,161;18,14428
 724,55;10447,408;  283,144;55921,215;18,26854
 725,12;10396,909;  221,836;55925,192;18,26654
 725,69;10514,795;  253,221;56131,091;18,36429
 726,27;10529,835;  266,606;56193,145;18,35127
 726,84;10700,414;  269,298;56558,891;18,53116
 727,41;10730,761;  274,683;56495,175;18,59834
 727,98;10871,417;  272,376;56762,306;18,76271
 728,55;10942,303;  296,068;56619,205;18,90206
 729,12;10902,112;  239,607;56799,951;18,85156
 729,69;11055,075;  279,376;57065,620;18,97590
 730,26;11124,115;  276,069;57301,443;19,02319
 730,82;11119,309;  272,069;57015,958;19,11614
 731,39;11215,348;  263,608;57200,396;19,23491
 731,96;11313,311;  251,454;57379,758;19,36318
 732,53;11474,044;  265,455;57658,119;19,52965
 733,10;11498,468;  274,609;57655,326;19,56033
 733,67;11626,893;  271,455;57940,841;19,69058
 734,24;11566,856;  251,994;57573,126;19,73943
 734,81;11736,742;  285,456;57668,949;19,95571
 735,38;11682,628;  270,840;57484,925;19,94577
 735,95;11685,360;  271,148;57348,594;19,99776
 736,52;11820,861;  277,610;57559,878;20,15153
 737,09;11789,132;  265,918;57244,547;20,22375
 737,66;11955,711;  307,072;57340,678;20,42417
 738,23;12038,443;  259,534;57458,193;20,59298
 738,80;12112,790;  314,919;57686,631;20,56392
 739,37;12176,446;  294,150;57997,146;20,59216
 739,94;12290,101;  266,765;58021,969;20,81775
 740,51;12418,602;  361,073;58162,869;20,86013
 741,07;12359,642;  257,304;57969,230;20,97026
 741,64;12488,451;  299,458;58260,591;21,02960
 742,21;12537,645;  268,459;58352,491;21,12317
 742,78;12599,916;  238,074;58040,006;21,38655
 743,35;12707,264;  267,921;58393,598;21,40077
 743,92;12761,380;  293,382;58500,806;21,41994
 744,49;12840,728;  272,075;58297,244;21,66069
 745,06;12896,383;  262,537;58309,990;21,76469
 745,63;12939,808;  246,922;58349,813;21,84553
 746,19;12970,232;  260,537;58279,174;21,90623
 746,76;13041,272;  260,614;58369,227;21,99443
 747,33;13066,081;  256,307;58286,589;22,07429
 747,90;13195,352;  280,384;58549,027;22,16453
 748,47;13249,623;  276,615;58454,850;22,29873
 749,04;13315,816;  273,000;58474,596;22,40972
 749,61;13367,395;  287,308;58464,495;22,48319
 750,17;13391,666;  285,693;58499,856;22,51337
 750,74;13433,475;  274,001;58413,910;22,63415
 751,31;13455,207;  257,078;58361,194;22,71462
 751,88;13470,093;  231,463;58242,479;22,82089
 752,45;13560,517;  261,617;58344,071;22,89659
 753,02;13680,480;  282,848;58210,355;23,12827
 753,58;13728,290;  249,232;58226,639;23,24881
 754,15;13761,406;  258,617;58347,616;23,24500
 754,72;13793,600;  247,156;58025,824;23,44541
 755,29;13829,409;  241,156;57871,723;23,57820
 755,86;14002,372;  262,387;58023,931;23,78743
 756,42;14013,105;  267,311;57938,600;23,83473
 756,99;14057,991;  228,388;57931,653;23,96676
 757,56;14134,415;  235,003;57765,245;24,16018
 758,13;14218,609;  200,234;57725,068;24,36926
 758,70;14344,572;  227,773;57822,122;24,51074
 759,26;14447,304;  223,696;57884,329;24,66780
 759,83;14497,882;  234,543;57974,152;24,70287
 760,40;14476,538;  219,928;57712,590;24,79727
 760,97;14595,270;  197,774;57783,567;25,00182
 761,53;14550,002;  193,697;57436,697;25,07958
 762,10;14635,658;  196,544;57388,905;25,24658
 762,67;14715,467;  229,313;57454,112;25,31447
 763,24;14605,814;  189,852;56929,781;25,40709
 763,80;14708,393;  228,314;57080,835;25,46955
 764,37;14718,509;  218,929;57096,119;25,49279
 764,94;14650,165;  215,391;56619,172;25,59185
 765,50;14757,743;  216,314;56701,841;25,74364
 766,07;14827,398;  252,622;56651,433;25,84235
 766,64;14780,515;  230,776;56431,872;25,88871
 767,21;14808,555;  225,777;56265,618;26,02216
 767,77;14876,057;  250,315;56115,825;26,18027
 768,34;14896,789;  239,239;56116,109;26,23187
 768,91;14919,444;  255,162;55937,317;26,33569
 769,47;15004,638;  245,008;55948,909;26,49658
 770,04;15058,370;  262,855;55841,962;26,62064
 770,61;15027,949;  240,086;55658,939;26,68381
 771,18;15104,681;  231,932;55498,454;26,91095
 771,74;15154,336;  246,932;55584,123;26,93921
 772,31;15222,376;  247,317;55284,253;27,20911
 772,88;15172,724;  225,471;55091,615;27,24313
 773,44;15184,687;  228,471;55019,130;27,29702
 774,01;15262,188;  246,010;55033,953;27,40781
 774,58;15269,613;  234,549;54714,775;27,59729
 775,14;15411,268;  230,703;54775,598;27,83132
 775,71;15425,000;  238,395;54690,421;27,88988
 776,27;15489,425;  283,857;54724,475;27,93056
 776,84;15539,695;  308,165;54764,067;27,97039
 777,41;15583,735;  245,165;54464,966;28,28961
 777,97;15481,929;  244,550;54181,635;28,25028
 778,54;15553,584;  259,012;54240,381;28,33306
 779,11;15697,624;  268,551;54182,666;28,61787
 779,67;15800,510;  228,166;54092,642;28,91023
 780,24;15788,935;  251,936;53933,388;28,94296
 780,80;15894,975;  269,013;53984,749;29,09010
 781,37;15916,015;  254,859;53989,264;29,14549
 781,94;15934,593;  246,783;53653,703;29,37412
 782,50;16006,787;  257,091;53683,833;29,47905
 783,07;16159,211;  281,937;53762,964;29,68768
 783,63;16075,328;  240,860;53436,556;29,76645
 784,20;16119,829;  273,399;53488,686;29,77797
 784,77;16144,869;  256,553;53280,586;29,96437
 785,33;16137,217;  229,784;52997,332;30,14624
 785,90;16290,872;  253,015;53002,078;30,40406
 786,46;16272,297;  269,861;52896,439;30,40752
 787,03;16292,567;  242,092;52744,339;30,57103
 787,59;16282,684;  248,631;52615,315;30,61881
 788,16;16338,263;  258,478;52575,292;30,73541
 788,73;16332,918;  265,401;52391,576;30,82428
 789,29;16281,496;  244,786;51910,014;31,03966
 789,86;16400,075;  267,171;51898,222;31,24651
 790,42;16359,807;  257,094;51859,737;31,20521
 790,99;16351,308;  272,479;51447,944;31,41902
 791,55;16396,502;  245,633;51501,152;31,51050
 792,12;16429,004;  265,556;51433,359;31,58910
 792,68;16420,351;  254,556;51144,874;31,76595
 793,25;16383,083;  265,941;50834,543;31,87184
 793,81;16365,662;  309,249;50529,058;31,97227
 794,38;16354,086;  217,557;50328,112;32,20186
 794,94;16396,357;  244,173;50104,243;32,39503
 795,51;16414,935;  257,788;49860,681;32,57299
 796,07;16397,360;  260,789;49633,504;32,68318
 796,64;16487,169;  264,712;49687,480;32,82385
 797,20;16412,363;  258,558;49121,303;33,05955
 797,77;16325,172;  229,328;48871,664;33,09020
 798,33;16384,597;  241,866;48671,641;33,33224
 798,90;16422,944;  274,636;48687,771;33,35522
 799,46;16405,599;  246,251;48125,363;33,75031
 800,03;16349,562;  270,790;48025,109;33,66978
 800,59;16420,756;  272,713;47941,624;33,87542
 801,15;16390,488;  258,175;47589,524;34,08378
 801,72;16269,682;  252,406;47287,732;34,05372
 802,28;16305,261;  285,560;46983,631;34,30484
 802,85;16224,762;  249,330;46889,300;34,25266
 803,41;16172,879;  246,561;46712,892;34,27496
 803,98;16128,226;  249,484;46328,330;34,45994
 804,54;16127,574;  249,946;46006,846;34,69996
 805,11;16074,922;  258,485;45810,130;34,72199
 805,67;16120,269;  272,100;45752,414;34,84622
 806,23;15984,309;  262,408;45267,006;34,93399
 806,80;15973,503;  275,562;45117,444;35,00732
 807,36;16049,312;  282,793;45013,267;35,24782
 807,93;16051,583;  286,024;44813,321;35,40650
 808,49;15972,930;  245,640;44510,144;35,53025
 809,05;15894,586;  234,640;44363,505;35,48685
 809,62;15928,241;  270,410;44212,405;35,63296
 810,18;15977,512;  263,871;44157,151;35,79965
 810,74;15860,475;  232,025;43883,896;35,80247
 811,31;15922,514;  245,872;43546,335;36,20433
 811,87;15882,324;  256,564;43534,004;36,10602
 812,44;15949,902;  283,949;43399,288;36,33499
 813,00;15896,403;  209,719;43112,880;36,56300
 813,56;16009,597;  260,950;43217,010;36,66222
 814,13;16093,099;  259,565;43157,449;36,90982
 814,69;16023,754;  251,719;42808,348;37,06129
 815,25;15913,486;  229,104;42601,479;37,01558
 815,82;16015,141;  275,335;42334,840;37,42271
 816,38;16027,643;  298,182;42184,817;37,55246
 816,94;15923,760;  235,490;41865,486;37,68501
 817,51;15949,107;  226,644;41713,001;37,89791
 818,07;15971,686;  242,105;41376,747;38,23925
 818,63;15856,495;  265,336;41247,262;38,04399
 819,20;15935,842;  249,798;41189,777;38,31473
 819,76;15725,652;  235,414;40615,138;38,36143
 820,32;15807,692;  268,952;40609,961;38,51847
 820,89;15765,808;  270,799;40403,553;38,60938
 821,45;15742,848;  233,338;40010,145;38,99134
 822,01;15704,965;  273,876;39788,660;39,05143
 822,57;15670,543;  267,107;39675,791;39,08640
 823,14;15663,353;  238,415;39514,075;39,27353
 823,70;15548,316;  241,108;39247,282;39,24304
 824,26;15589,125;  235,262;39008,797;39,59882
 824,82;15591,088;  257,570;38887,005;39,69387
 825,39;15570,435;  239,647;38619,828;39,94454
 825,95;15545,168;  261,878;38651,958;39,81052
 826,51;15509,977;  258,340;38153,550;40,24687
 827,08;15522,094;  278,417;38206,065;40,19146
 827,64;15519,057;  257,186;38029,657;40,40474
 828,20;15439,481;  242,956;37724,249;40,54429
 828,76;15488,983;  273,494;37724,072;40,62818
 829,32;15491,176;  275,879;37573,895;40,79385
 829,89;15474,985;  234,187;37475,256;40,92471
 830,45;15540,410;  253,572;37367,925;41,18848
 831,01;15503,681;  241,188;37192,517;41,30431
 831,57;15543,336;  252,188;37083,494;41,51671
 832,14;15574,530;  246,496;37046,163;41,65264
 832,70;15637,570;  233,111;36757,370;42,17596
 833,26;15622,302;  214,189;36663,808;42,27236
 833,82;15652,419;  238,343;36525,016;42,47861
 834,38;15699,843;  233,804;36584,069;42,54725
 834,95;15704,037;  234,882;36441,892;42,72420
 835,51;15708,538;  205,343;36314,946;42,93372
 836,07;15841,040;  243,190;36355,615;43,19247
 836,63;15873,926;  262,882;36381,668;43,22140
 837,19;15851,043;  247,421;36206,645;43,39254
 837,75;15768,621;  215,421;35942,391;43,53350
 838,32;15880,969;  258,268;36010,829;43,69673
 838,88;16000,547;  257,499;36027,575;44,01178
 839,44;15999,741;  251,499;35891,705;44,18673
 840,00;16028,858;  248,961;35852,067;44,32169
 840,56;15905,359;  224,422;35544,428;44,39676
 841,12;15916,553;  231,346;35616,482;44,32711
 841,68;15870,977;  218,654;35367,151;44,53199
 842,25;15951,248;  231,039;35432,358;44,65801
 842,81;15894,826;  224,193;35091,796;44,94325
 843,37;15877,405;  205,270;35087,311;44,92895
 843,93;15894,445;  234,885;35064,749;44,96015
 844,49;16019,869;  240,578;35030,880;45,35543
 845,05;15978,217;  202,040;34888,395;45,48237
 845,61;16136,180;  253,809;34860,756;45,89359
 846,17;16096,143;  233,040;34734,348;45,97826
 846,73;16066,644;  242,810;34729,863;45,88341
 847,29;16073,761;  215,733;34468,763;46,29672
 847,86;16110,109;  221,118;34521,817;46,32264
 848,42;16069,303;  208,580;34236,024;46,61156
 848,98;16073,035;  241,811;34193,924;46,62810
 849,54;16238,998;  228,965;34233,670;47,08182
 850,10;16234,191;  237,734;34080,108;47,26754
 850,66;16249,770;  216,734;33874,469;47,63552
 851,22;16267,733;  212,504;33864,061;47,71021
 851,78;16383,773;  268,043;33891,807;47,92958
 852,34;16314,967;  237,274;33624,938;48,15459
 852,90;16309,083;  226,889;33522,991;48,30053
 853,46;16297,354;  218,120;33292,583;48,61525
 854,02;16433,394;  234,274;33293,791;48,99987
 854,58;16337,742;  221,659;32997,075;49,17125
 855,14;16309,474;  221,736;32969,359;49,12643
 855,70;16264,975;  196,121;32805,721;49,27645
 856,26;16372,323;  242,275;32805,159;49,53507
 856,82;16290,901;  229,429;32524,905;49,73289
 857,38;16320,018;  246,276;32449,035;49,91418
 857,94;16268,904;  240,430;32373,473;49,88159
 858,50;16273,098;  249,661;32173,527;50,19266
 859,06;16229,522;  224,892;32001,965;50,36534
 859,62;16210,485;  242,969;31978,326;50,31459
 860,18;16144,525;  227,738;31700,841;50,57266
 860,74;16152,411;  195,431;31622,280;50,77499
 861,30;16037,605;  207,893;31446,333;50,67382
 861,86;16156,107;  260,124;31459,925;50,94899
 862,42;16100,070;  226,662;31272,133;51,12954
 862,98;16124,648;  253,047;31308,571;51,10717
 863,54;16091,996;  233,971;31118,394;51,34635
 864,10;16076,035;  223,202;31050,293;51,42501
 864,66;16113,460;  208,202;30911,809;51,80257
 865,22;15992,346;  230,510;30695,324;51,73784
 865,78;16054,847;  229,895;30639,608;52,03914
 866,34;15971,041;  226,664;30513,200;51,98474
 866,90;16039,081;  236,895;30375,023;52,43254
 867,45;15975,121;  230,818;30249,076;52,44909
 868,01;15934,699;  235,511;30036,976;52,67925
 868,57;15877,970;  226,434;29866,799;52,80480
 869,13;15841,856;  211,204;29736,391;52,94006
 869,69;15793,742;  215,512;29661,214;52,90494
 870,25;15794,628;  209,512;29513,113;53,18499
 870,81;15905,745;  218,974;29522,167;53,53263
 871,37;15916,247;  225,974;29387,682;53,80437
 871,93;15965,056;  233,436;29172,197;54,36176
 872,49;15855,942;  253,897;29027,866;54,22278
 873,04;15799,366;  212,513;28819,304;54,48655
 873,60;15808,791;  219,667;28684,666;54,76594
 874,16;15765,985;  236,206;28544,181;54,86008
 874,72;15795,754;  222,437;28517,873;55,03826
 875,28;15889,754;  226,052;28424,873;55,54736
 875,84;15830,754;  226,590;28321,873;55,54015
 876,40;15867,908;  220,513;28379,412;55,56821
 876,95;15989,369;  239,129;28235,104;56,25895
 877,51;15989,215;  260,052;28329,873;56,03585
 878,07;16023,062;  269,744;28231,488;56,33882
 878,63;16105,831;  228,283;28280,027;56,60093
 879,19;16104,523;  235,898;28263,258;56,61834
 879,75;16174,062;  226,590;28335,642;56,73429
 880,30;16215,754;  230,821;28199,027;57,15394
 880,86;16438,215;  267,821;28385,488;57,50973
 881,42;16388,677;  216,667;28452,104;57,27558
 881,98;16593,600;  240,898;28461,335;57,94631
 882,54;16686,292;  224,744;28577,719;58,05933
 883,09;16780,138;  238,513;28735,488;58,04695
 883,65;16866,600;  214,283;28770,335;58,31449
 884,21;17075,446;  256,206;28987,565;58,53966
 884,77;17156,292;  221,360;28983,104;58,88006
 885,32;17287,985;  230,975;29187,642;58,90529
 885,88;17477,677;  259,283;29262,335;59,36753
 886,44;17583,985;  237,513;29484,642;59,31000
 887,00;17655,677;  254,360;29404,412;59,69566
 887,56;17807,754;  231,437;29648,488;59,74874
 888,11;17849,215;  236,360;29552,412;60,07922
 888,67;18032,292;  264,206;29822,412;60,11220
 889,23;18081,754;  237,667;29833,873;60,29180
 889,79;18036,600;  214,360;29723,027;60,39663
 890,34;18076,831;  239,360;29613,258;60,72558
 890,90;18231,523;  302,975;29761,181;60,86096
 891,46;18149,908;  225,667;29652,104;60,91203
 892,01;18199,908;  252,975;29674,104;61,00015
 892,57;18273,754;  252,821;29550,335;61,51011
 893,13;18172,292;  233,283;29317,873;61,67874
 893,69;18167,215;  227,129;29388,719;61,51958
 894,24;18166,600;  236,667;29281,335;61,73227
 894,80;18130,677;  231,052;29059,104;62,09100
 895,36;18073,908;  230,129;28942,873;62,14585
 895,91;17999,754;  231,206;28773,719;62,25292
 896,47;17989,138;  258,975;28624,412;62,50622
 897,03;17865,677;  220,667;28386,335;62,64723
 897,58;17775,062;  238,821;28392,488;62,28759
 898,14;17744,215;  239,975;28132,565;62,75588
 898,70;17675,831;  209,667;27967,642;62,92305
 899,25;17752,138;  228,129;27958,719;63,19378
 899,81;17636,369;  250,590;27772,104;63,17159
 900,37;17501,523;  217,437;27573,104;63,18284
 900,92;17624,754;  240,283;27632,719;63,46449
 901,48;17651,677;  224,821;27419,488;64,08189
 902,03;17511,831;  223,513;27255,796;63,95434
 902,59;17480,985;  226,052;27215,412;63,93235
 903,15;17494,831;  256,052;26958,950;64,55771
 903,70;17305,754;  244,052;26687,181;64,52225
 904,26;17250,292;  217,744;26660,335;64,41331
 904,82;17309,600;  236,744;26648,488;64,64115
 905,37;17296,369;  240,052;26469,873;65,02643
 905,93;17241,138;  224,744;26360,104;65,10871
 906,48;17208,677;  239,667;26317,104;65,07162
 907,04;17229,600;  253,898;26173,181;65,49449
 907,60;17147,908;  224,975;25972,873;65,72549
 908,15;17198,523;  218,667;25883,104;66,16103
 908,71;17208,138;  250,513;25858,335;66,22049
 909,26;17188,523;  213,283;25706,950;66,58611
 909,82;17116,369;  257,437;25599,796;66,52472
 910,37;17149,831;  268,052;25525,796;66,83803
 910,93;17040,138;  219,744;25226,335;67,26385
 911,48;16955,985;  208,513;25048,181;67,42228
 912,04;16887,215;  216,590;24939,950;67,42864
 912,60;16939,215;  242,206;25022,488;67,38022
 913,15;16859,523;  235,975;24808,104;67,65205
 913,71;16790,677;  226,360;24581,642;68,01119
 914,26;16803,369;  204,360;24588,950;68,07172
 914,82;16769,138;  234,975;24467,873;68,23024
 915,37;16666,677;  226,898;24384,950;68,05093
 915,93;16720,062;  277,129;24278,258;68,50900
 916,48;16715,292;  216,283;24113,488;69,04158
 917,04;16604,446;  239,590;24033,642;68,77709
 917,59;16572,908;  254,129;23937,412;68,90421
 918,15;16428,677;  206,206;23718,181;68,99663
 918,70;16478,600;  226,283;23675,335;69,30906
 919,26;16477,831;  229,667;23483,565;69,87286
 919,81;16361,985;  212,975;23370,412;69,73574
 920,37;16409,215;  233,283;23301,335;70,12266
 920,92;16389,754;  241,975;23216,796;70,28468
 921,48;16278,754;  209,667;22934,027;70,71304
 922,03;16308,292;  218,437;23038,488;70,50753
 922,59;16218,908;  225,821;22863,565;70,64788
 923,14;16201,138;  223,975;22679,488;71,15029
 923,69;16163,446;  244,283;22620,642;71,14278
 924,25;16213,985;  248,513;22641,181;71,29776
 924,80;16188,138;  225,975;22275,796;72,39135
 925,36;16096,138;  219,744;22273,104;71,99082
 925,91;16007,138;  222,052;22124,873;72,06874
 926,47;16077,677;  209,667;22107,181;72,46489
 927,02;16038,523;  269,744;22038,335;72,43822
 927,57;15935,215;  220,975;21821,565;72,74912
 928,13;15941,600;  217,360;21776,642;72,93490
 928,68;15902,446;  221,283;21722,027;72,93312
 929,24;15733,446;  192,821;21528,642;72,83819
 929,79;15745,446;  216,052;21382,335;73,36855
 930,34;15667,831;  216,513;21190,642;73,66846
 930,90;15618,138;  215,898;21257,642;73,19850
 931,45;15653,062;  233,513;21206,719;73,52023
 932,01;15592,831;  231,360;21068,950;73,72000
 932,56;15513,985;  244,513;20865,642;74,04770
 933,11;15564,677;  256,437;20914,258;74,10385
 933,67;15406,754;  216,360;20690,488;74,19312
 934,22;15387,369;  221,283;20578,796;74,49872
 934,77;15321,138;  251,360;20507,642;74,39558
 935,33;15257,600;  233,975;20403,412;74,48708
 935,88;15293,446;  226,590;20301,335;75,05379
 936,43;15214,908;  218,975;20248,181;74,87033
 936,99;15118,369;  225,206;20154,719;74,72919
 937,54;14982,215;  212,513;19992,719;74,66910
 938,09;15059,600;  235,360;19954,412;75,17725
 938,65;14965,523;  230,437;19810,104;75,25708
 939,20;14933,600;  204,129;19720,104;75,47392
 939,75;14878,831;  217,360;19588,488;75,68723
 940,31;14780,985;  214,590;19526,642;75,42645
 940,86;14875,600;  228,744;19496,873;76,01597
 941,41;14786,215;  300,129;19384,873;75,90401
 941,96;14698,138;  217,590;19234,412;76,14600
 942,52;14620,600;  218,898;19187,027;75,92579
 943,07;14506,831;  200,283;19000,335;76,09845
 943,62;14476,062;  210,513;18923,565;76,23315
 944,18;14454,985;  204,667;18843,796;76,45377
 944,73;14370,292;  220,129;18759,181;76,32625
 945,28;14240,215;  200,898;18568,873;76,43367
 945,83;14219,138;  224,975;18574,873;76,26289
 946,39;14262,754;  214,590;18463,565;76,98056
 946,94;14229,215;  239,052;18505,642;76,58881
 947,49;14104,523;  225,590;18264,719;76,93793
 948,04;14121,908;  248,513;18248,181;77,07584
 948,59;14123,754;  237,129;18177,258;77,40538
 949,15;14082,292;  208,898;18127,104;77,42625
 949,70;14029,677;  211,283;18002,412;77,67014
 950,25;13963,292;  243,590;17877,258;77,80402
 950,80;13930,523;  190,129;17786,719;78,08555
 951,36;13916,292;  188,975;17675,027;78,50438
 951,91;13983,062;  236,129;17672,027;78,84270
 952,46;13835,446;  207,821;17485,873;78,87246
 953,01;13923,677;  238,283;17504,565;79,26080
 953,56;13776,138;  203,975;17356,642;79,12567
 954,11;13729,446;  221,283;17362,796;78,80380
 954,67;13746,677;  214,898;17186,104;79,73375
 955,22;13652,292;  202,129;17152,181;79,35175
 955,77;13681,446;  238,437;17072,488;79,85605
 956,32;13578,215;  267,283;16949,796;79,78973
 956,87;13513,138;  207,821;16783,565;80,26980
 957,42;13396,292;  210,206;16742,488;79,75962
 957,98;13414,138;  209,821;16680,873;80,16681
 958,53;13336,754;  240,437;16656,335;79,77826
 959,08;13268,831;  216,283;16515,642;80,08013
 959,63;13169,523;  214,283;16453,335;79,77831
 960,18;13235,908;  226,206;16438,873;80,24406
 960,73;13136,523;  214,513;16331,412;80,17678
 961,28;13075,754;  206,975;16188,027;80,52523
 961,83;13120,831;  241,667;16189,565;80,75775
 962,39;13021,831;  200,129;16034,719;80,97274
 962,94;13012,831;  231,360;16000,950;81,05138
 963,49;12901,062;  214,744;15862,104;81,07641
 964,04;12896,523;  232,052;15809,027;81,30251
 964,59;12789,677;  199,975;15702,950;81,20830
 965,14;12824,292;  234,206;15642,412;81,71027
 965,69;12732,908;  220,129;15507,950;81,84802
 966,24;12694,138;  213,437;15436,719;81,98430
 966,79;12690,523;  231,667;15336,258;82,48390
 967,34;12588,908;  199,052;15212,719;82,52385
 967,89;12558,754;  209,590;15114,104;82,85519
 968,44;12475,523;  226,206;15046,565;82,65196
 968,99;12471,600;  229,052;14984,565;82,96931
 969,55;12437,908;  227,283;14903,027;83,20277
 970,10;12410,985;  230,821;14821,642;83,47826
 970,65;12396,985;  233,513;14703,335;84,06096
 971,20;12320,677;  210,052;14610,488;84,09901
 971,75;12183,215;  201,206;14497,181;83,81387
 972,30;12174,831;  225,898;14445,873;84,02921
 972,85;12116,292;  206,513;14366,796;84,10693
 973,40;12079,600;  204,513;14167,565;85,04650
 973,95;12072,292;  224,360;14185,412;84,86418
 974,50;12031,292;  248,360;14086,950;85,14547
 975,05;11892,292;  224,206;13905,642;85,28407
 975,60;11872,062;  227,667;13878,950;85,29890
 976,15;11830,985;  216,052;13755,950;85,78301
 976,70;11741,446;  212,744;13693,335;85,52075
 977,25;11765,985;  228,667;13616,258;86,17919
 977,80;11610,062;  212,975;13398,565;86,43592
 978,35;11498,292;  231,590;13314,796;86,11576
 978,89;11425,292;  194,667;13252,873;86,00435
 979,44;11471,831;  216,744;13219,796;86,55727
 979,99;11316,908;  206,129;13049,488;86,50991
 980,54;11318,215;  236,513;12988,104;86,90447
 981,09;11206,215;  238,437;12832,565;87,08644
 981,64;11148,523;  231,360;12723,488;87,39234
 982,19;11124,677;  253,667;12714,719;87,23990
 982,74;10947,369;  233,667;12564,565;86,88501
 983,29;10855,369;  209,052;12400,027;87,32950
 983,84;10852,985;  228,513;12303,488;87,98752
 984,39;10879,677;  277,437;12298,181;88,19953
 984,94;10705,446;  198,129;12154,719;87,87888
 985,49;10643,292;  248,667;12060,335;88,00303
 986,03;10667,138;  239,206;11997,796;88,68353
 986,58;10531,138;  271,360;11828,565;88,77387
 987,13;10449,446;  228,898;11728,796;88,87512
 987,68;10376,831;  239,437;11609,335;89,15994
 988,23;10351,831;  231,821;11558,027;89,35040
 988,78;10232,985;  215,283;11352,104;89,95118
 989,33;10175,600;  235,898;11312,181;89,73861
 989,88;10172,600;  261,975;11214,412;90,48786
 990,42;10039,292;  220,667;11102,181;90,23216
 990,97; 9915,908;  220,283;10949,027;90,37055
 991,52; 9841,446;  248,975;10915,027;89,93460
 992,07; 9816,446;  256,667;10801,412;90,65918
 992,62; 9750,600;  241,052;10718,873;90,75883
 993,17; 9628,523;  244,590;10596,104;90,65276
 993,71; 9564,369;  236,744;10508,565;90,80790
 994,26; 9467,523;  220,667;10335,950;91,41470
 994,81; 9459,446;  246,129;10295,027;91,68485
 995,36; 9287,292;  235,052;10137,719;91,41214
 995,91; 9278,754;  228,821;10097,335;91,70513
 996,45; 9123,062;  232,513; 9939,719;91,58710
 997,00; 9027,292;  214,129; 9861,565;91,35239
 997,55; 8975,677;  235,513; 9794,335;91,43558
 998,10; 8889,908;  261,590; 9676,488;91,64536
 998,65; 8847,215;  223,975; 9595,027;92,01998
 999,19; 8747,831;  251,283; 9456,412;92,30233
 999,74; 8655,523;  278,975; 9402,104;91,81661
1000,29; 8594,523;  251,821; 9298,950;92,21381
1000,84; 8509,985;  231,744; 9158,950;92,73048
1001,38; 8438,292;  234,129; 9078,796;92,75830
1001,93; 8379,985;  242,437; 9040,335;92,49423
1002,48; 8234,446;  218,129; 8857,104;92,79246
1003,03; 8215,677;  236,052; 8843,104;92,71032
1003,57; 8099,754;  242,667; 8662,719;93,31399
1004,12; 8012,215;  267,052; 8632,565;92,58444
1004,67; 7915,446;  233,052; 8498,412;92,94688
1005,22; 7777,831;  223,437; 8366,565;92,77017
1005,76; 7657,600;  216,206; 8234,027;92,81068
1006,31; 7658,138;  247,283; 8191,796;93,28269
1006,86; 7530,754;  226,744; 8071,488;93,10705
1007,40; 7390,908;  218,590; 7946,335;92,81256
1007,95; 7339,985;  238,437; 7855,027;93,23789
1008,50; 7223,908;  234,360; 7722,488;93,34172
1009,04; 7128,292;  231,513; 7619,181;93,35530
1009,59; 7012,138;  247,744; 7518,027;93,04169
1010,14; 6965,138;  221,360; 7391,488;94,05380
1010,68; 6827,138;  234,283; 7255,873;93,89405
1011,23; 6752,446;  215,590; 7127,412;94,57501
1011,78; 6728,677;  240,129; 7102,796;94,54849
1012,32; 6584,831;  239,821; 7005,104;93,78780
1012,87; 6624,138;  259,206; 6943,412;95,22347
1013,42; 6499,677;  210,360; 6846,796;94,76949
1013,96; 6545,908;  261,360; 6832,565;95,63767
1014,51; 6427,985;  198,667; 6706,412;95,72161
1015,06; 6486,292;  190,360; 6751,488;95,95807
1015,60; 6551,600;  268,975; 6764,488;96,72253
1016,15; 6520,369;  215,052; 6756,335;96,39267
1016,69; 6561,754;  231,437; 6763,719;96,90820
1017,24; 6607,292;  196,283; 6787,796;97,26157
1017,79; 6679,985;  245,744; 6832,796;97,68012
1018,33; 6617,138;  220,821; 6814,104;97,01264
1018,88; 6733,985;  237,744; 6866,104;98,00676
1019,42; 6781,600;  221,437; 6870,104;98,66885
1019,97; 6738,446;  215,437; 6884,873;97,80451
1020,51; 6776,985;  248,206; 6918,335;97,88085
1021,06; 6754,292;  204,590; 6930,642;97,37811
1021,61; 6766,292;  187,898; 6853,258;98,69526
1022,15; 6759,831;  193,437; 6810,796;99,22982
1022,70; 6768,062;  225,206; 6826,950;99,10799
1023,24; 6679,062;  213,975; 6803,335;98,11403
1023,79; 6627,985;  222,898; 6735,258;98,35278
1024,33; 6615,062;  221,513; 6661,950;99,27197
1024,88; 6530,138;  233,437; 6588,873;99,07584
1025,42; 6433,446;  224,360; 6499,950;98,94028
1025,97; 6322,446;  212,898; 6359,719;99,39362
1026,51; 6237,831;  180,360; 6257,873;99,67022
1027,06; 6186,446;  212,129; 6224,027;99,37489
1027,60; 6093,215;  227,437; 6133,565;99,31681
1028,15; 6003,754;  232,052; 6013,565;99,83029
1028,69; 5891,292;  191,206; 5878,642;100,22242
1029,24; 5828,600;  211,129; 5852,181;99,58198
1029,78; 5767,446;  207,437; 5700,258;101,22320
1030,33; 5657,523;  193,360; 5620,796;100,67669
1030,87; 5607,292;  217,744; 5544,412;101,18049
1031,42; 5510,677;  199,513; 5511,565;99,98327
1031,96; 5444,831;  219,206; 5417,181;100,53194
1032,51; 5380,677;  208,898; 5315,412;101,27808
1033,05; 5262,831;  224,821; 5261,565;100,02512
1033,60; 5184,600;  180,590; 5120,796;101,29152
1034,14; 5192,831;  219,206; 5065,642;102,62437
1034,69; 5104,523;  212,898; 5014,873;101,86694
1035,23; 5037,369;  221,437; 4951,873;101,80736
1035,77; 4992,292;  215,590; 4875,335;102,50996
1036,32; 4884,985;  191,206; 4794,950;101,95568
1036,86; 4830,446;  214,667; 4770,719;101,31094
1037,41; 4774,677;  224,360; 4664,796;102,47455
1037,95; 4689,369;  185,513; 4588,642;102,28762
1038,50; 4636,908;  200,283; 4514,027;102,84859
1039,04; 4593,138;  232,667; 4480,642;102,64823
1039,58; 4515,677;  198,052; 4391,950;102,95017
1040,13; 4475,908;  209,821; 4376,412;102,38795
1040,67; 4470,523;  246,283; 4344,258;103,08117
1041,21; 4373,985;  239,975; 4268,412;102,62070
1041,76; 4310,600;  202,590; 4130,027;104,59773
1042,30; 4263,446;  205,360; 4121,488;103,62495
1042,85; 4190,985;  207,360; 4036,796;104,02640
1043,39; 4131,062;  202,052; 3977,719;104,06133
1043,93; 4132,062;  230,129; 3965,719;104,45291
1044,48; 4027,831;  225,744; 3904,335;103,35716
1045,02; 3998,754;  209,590; 3804,258;105,41069
1045,56; 3962,523;  238,744; 3770,642;105,43279
1046,11; 3904,908;  230,590; 3755,873;104,22759
1046,65; 3845,677;  220,206; 3681,719;104,73659
1047,19; 3783,215;  204,975; 3618,412;104,82809
1047,74; 3708,062;  194,667; 3528,873;105,37425
1048,28; 3683,215;  223,206; 3535,412;104,46240
1048,82; 3650,446;  244,744; 3506,181;104,42337
1049,37; 3599,138;  223,975; 3444,642;104,79702
1049,91; 3561,908;  217,821; 3417,335;104,51860
1050,45; 3525,831;  227,590; 3377,719;104,70176
1050,99; 3458,908;  216,744; 3306,873;104,92001
1051,54; 3401,985;  210,975; 3262,335;104,57665
1052,08; 3380,985;  234,590; 3226,796;105,15300
1052,62; 3352,138;  239,283; 3178,642;105,90252
1053,16; 3289,523;  217,437; 3109,335;106,23080
1053,71; 3240,831;  225,667; 3088,027;105,33839
1054,25; 3202,292;  234,129; 3042,104;105,70477
1054,79; 3180,062;  223,821; 2991,258;106,82234
1055,33; 3099,369;  194,975; 2892,873;107,65396
1055,88; 3081,831;  228,590; 2926,796;105,74584
1056,42; 3053,138;  236,821; 2891,027;106,10772
1056,96; 2976,138;  236,898; 2825,873;105,80405
1057,50; 2948,292;  228,129; 2797,796;105,85664
1058,05; 2896,138;  220,052; 2745,796;105,95240
1058,59; 2874,600;  232,590; 2715,719;106,39841
1059,13; 2789,292;  206,206; 2624,642;106,80812
1059,67; 2774,369;  222,052; 2633,719;105,83206
1060,21; 2721,062;  227,437; 2581,181;105,94290
1060,76; 2728,138;  236,667; 2548,950;107,74942
1061,30; 2699,369;  250,513; 2537,565;107,07478
1061,84; 2643,754;  233,513; 2464,181;108,05020
1062,38; 2591,985;  214,821; 2407,796;108,39902
1062,92; 2615,600;  259,513; 2438,796;108,11294
1063,46; 2530,215;  238,206; 2377,873;107,11991
1064,01; 2491,138;  223,590; 2308,719;108,74858
1064,55; 2479,523;  229,437; 2278,181;109,82760
1065,09; 2397,369;  196,744; 2234,027;108,01766
1065,63; 2427,369;  258,898; 2275,642;107,52336
1066,17; 2393,831;  254,975; 2250,642;107,17497
1066,71; 2350,677;  246,667; 2217,719;106,74552
1067,25; 2318,677;  230,206; 2156,488;108,41976
1067,80; 2300,446;  243,360; 2149,719;107,90653
1068,34; 2306,600;  260,052; 2148,950;108,34614
1068,88; 2218,138;  225,283; 2081,258;107,37514
1069,42; 2214,754;  254,437; 2088,181;106,90244
1069,96; 2180,985;  238,590; 2014,565;109,37058
1070,50; 2192,754;  254,898; 2044,258;108,29884
1071,04; 2110,523;  217,898; 1960,027;108,63864
1071,58; 2100,215;  223,667; 1952,335;108,55461
1072,12; 2069,677;  229,283; 1930,642;108,17197
1072,66; 2059,754;  229,052; 1914,104;108,64365
1073,21; 2069,446;  240,744; 1917,950;109,03265
1073,75; 2022,215;  245,437; 1871,565;109,26433
1074,29; 1991,062;  234,283; 1851,258;108,64601
1074,83; 1990,369;  257,283; 1843,642;109,24929
1075,37; 1953,062;  249,129; 1828,412;107,89282
1075,91; 1943,292;  242,744; 1790,104;109,89999
1076,45; 1923,138;  235,590; 1773,950;109,69789
1076,99; 1895,600;  249,898; 1745,335;110,04826
1077,53; 1838,677;  220,052; 1713,488;108,38258
1078,07; 1848,908;  228,437; 1713,950;109,08492
1078,61; 1823,600;  234,360; 1670,258;110,67919
1079,15; 1798,677;  238,206; 1639,412;111,36631
1079,69; 1778,292;  225,744; 1633,027;110,32240
1080,23; 1798,523;  254,129; 1633,796;111,93961
1080,77; 1768,831;  267,052; 1646,104;108,89937
1081,31; 1710,446;  225,821; 1581,642;109,50006
1081,85; 1730,523;  249,283; 1560,950;112,92806
1082,39; 1681,831;  227,437; 1537,719;110,99851
1082,93; 1671,908;  246,975; 1544,412;109,82677
1083,47; 1638,908;  230,590; 1494,335;111,44006
1084,01; 1640,908;  247,590; 1503,719;110,92153
1084,55; 1596,138;  227,590; 1449,104;112,03709
1085,09; 1608,292;  252,744; 1463,412;111,96702
1085,63; 1600,062;  239,206; 1461,027;111,37929
1086,17; 1562,369;  228,129; 1410,642;112,83088
1086,71; 1538,908;  225,590; 1403,950;111,45301
1087,24; 1562,215;  251,821; 1425,873;111,61297
1087,78; 1540,523;  247,513; 1391,873;112,98980
1088,32; 1470,908;  229,052; 1347,181;111,06553
1088,86; 1512,677;  251,975; 1361,796;113,59505
1089,40; 1483,523;  245,744; 1326,104;114,57100
1089,94; 1447,908;  219,129; 1296,719;114,03023
1090,48; 1431,831;  254,744; 1307,642;111,79492
1091,02; 1431,985;  249,667; 1296,796;112,91039
1091,56; 1401,831;  248,667; 1270,873;112,81128
1092,10; 1378,754;  225,744; 1243,796;113,25646
1092,63; 1393,677;  262,821; 1270,335;112,24225
1093,17; 1359,215;  257,744; 1241,488;111,96723
1093,71; 1330,138;  228,052; 1212,488;111,95100
1094,25; 1350,677;  260,821; 1198,642;116,21147
1094,79; 1319,446;  236,206; 1177,181;115,11893
1095,33; 1312,215;  235,744; 1167,642;115,51383
1095,87; 1276,292;  229,667; 1172,104;111,05522
1096,40; 1236,369;  218,437; 1133,258;111,27122
1096,94; 1257,523;  242,437; 1127,027;114,75216
1097,48; 1237,754;  245,283; 1121,258;113,29903
1098,02; 1233,446;  233,129; 1089,796;116,76847
1098,56; 1178,754;  203,437; 1066,027;113,06842
1099,10; 1180,754;  219,206; 1061,412;114,17021
1099,63; 1165,831;  203,821; 1055,335;112,97644
1100,17; 1156,446;  247,744; 1059,642;111,92315
1100,71; 1176,908;  261,667; 1069,719;113,26505

