
Integration time [ms]: 120,000
Averaging Nr. [scans]: 13
Smoothing Nr. [pixels]: 0
Data measured with spectrometer [name]: 2009305U1
Wave   ;Sample   ;Dark     ;Reference;Reflectance
[nm]   ;[counts] ;[counts] ;[counts] ;[%]

 175,72;  193,858;  202,673;  202,814; 0,00000
 176,32;  221,626;  225,431;  219,229; 0,00000
 176,92;  246,750;  241,593;  259,926;28,12948
 177,52;  258,062;  251,671;  258,560;92,77397
 178,12;  232,926;  228,123;  221,690; 0,00000
 178,72;  256,874;  262,428;  250,906; 0,00000
 179,32;  253,843;  256,969;  246,180; 0,00000
 179,92;  252,321;  244,743;  247,528;272,11398
 180,52;  237,406;  240,295;  251,040;-26,88136
 181,12;  253,510;  250,513;  250,351; 0,00000
 181,73;  267,074;  264,591;  277,112;19,83064
 182,33;  339,321;  344,982;  351,462;-87,36791
 182,93;  273,393;  260,594;  266,980;200,43977
 183,53;  238,071;  240,272;  226,189; 0,00000
 184,13;  230,988;  234,428;  232,913; 0,00000
 184,73;  269,592;  272,348;  270,276; 0,00000
 185,33;  258,585;  227,895;  345,845;26,01934
 185,93;  271,150;  241,810;  363,162;24,17780
 186,53;  285,230;  245,969;  383,769;28,49175
 187,13;  300,262;  274,977;  418,310;17,64078
 187,73;  269,998;  236,042;  378,887;23,77115
 188,33;  269,096;  240,114;  373,931;21,65748
 188,93;  280,735;  258,330;  373,870;19,39155
 189,53;  290,764;  257,396;  374,368;28,52625
 190,13;  316,834;  277,224;  424,265;26,93808
 190,73;  251,513;  216,698;  365,464;23,40230
 191,34;  301,555;  258,249;  403,767;29,75984
 191,94;  268,612;  218,263;  371,997;32,75069
 192,54;  283,523;  243,523;  387,787;27,72701
 193,14;  300,060;  247,900;  396,592;35,07932
 193,74;  286,156;  257,129;  400,532;20,24167
 194,34;  280,418;  240,671;  386,728;27,21331
 194,94;  253,314;  220,361;  356,781;24,15575
 195,54;  237,487;  204,742;  327,334;26,71102
 196,14;  252,749;  227,827;  378,689;16,51997
 196,74;  244,899;  222,971;  359,044;16,11487
 197,34;  223,483;  197,063;  371,027;15,18682
 197,94;  257,265;  228,132;  384,373;18,64674
 198,54;  271,582;  235,596;  395,794;22,46349
 199,14;  246,866;  219,374;  388,308;16,27377
 199,74;  236,073;  202,220;  401,273;17,00693
 200,34;  232,061;  196,990;  393,795;17,81998
 200,94;  260,953;  228,446;  426,289;16,43067
 201,54;  250,989;  204,218;  443,961;19,50845
 202,14;  283,000;  229,608;  481,986;21,15560
 202,74;  261,696;  219,912;  475,274;16,36255
 203,34;  247,315;  188,920;  492,839;19,21419
 203,94;  228,651;  167,224;  499,348;18,49513
 204,54;  304,569;  245,363;  589,973;17,18050
 205,14;  256,775;  199,220;  600,798;14,33237
 205,74;  304,747;  236,688;  696,371;14,80558
 206,34;  270,318;  209,069;  707,819;12,28048
 206,94;  289,200;  215,837;  774,562;13,13035
 207,54;  264,710;  180,146;  806,666;13,49747
 208,14;  310,916;  214,378;  884,062;14,41546
 208,74;  303,860;  211,373;  951,337;12,49880
 209,34;  307,975;  194,759; 1045,915;13,30146
 209,94;  337,471;  216,528; 1149,937;12,95712
 210,54;  332,586;  213,302; 1239,675;11,62187
 211,14;  364,595;  218,374; 1375,700;12,63441
 211,73;  353,608;  201,448; 1478,977;11,91049
 212,33;  381,438;  217,908; 1586,632;11,94767
 212,93;  393,907;  205,834; 1714,331;12,46756
 213,53;  366,913;  178,220; 1776,071;11,80920
 214,13;  384,133;  200,076; 1832,252;11,27677
 214,73;  378,308;  190,377; 1872,755;11,17053
 215,33;  374,317;  173,143; 1893,014;11,69703
 215,93;  427,845;  201,842; 2020,959;12,42377
 216,53;  396,787;  158,603; 2108,122;12,21758
 217,13;  462,241;  216,302; 2311,821;11,73642
 217,73;  459,951;  194,611; 2514,042;11,43987
 218,33;  454,556;  147,770; 2710,446;11,97133
 218,93;  517,970;  176,163; 3006,310;12,07736
 219,53;  556,071;  183,770; 3305,411;11,92645
 220,13;  586,376;  156,541; 3596,351;12,49588
 220,73;  650,654;  191,836; 3941,482;12,23631
 221,32;  712,014;  182,912; 4363,260;12,65689
 221,92;  759,126;  190,848; 4775,100;12,39630
 222,52;  822,482;  174,227; 5205,811;12,88372
 223,12;  903,027;  171,612; 5659,397;13,32804
 223,72;  962,003;  195,843; 6067,054;13,04943
 224,32; 1020,882;  201,998; 6450,584;13,10511
 224,92; 1059,701;  183,767; 6756,102;13,32760
 225,52; 1151,484;  200,684; 7072,450;13,83633
 226,12; 1221,405;  193,225; 7427,116;14,21338
 226,72; 1242,052;  164,840; 7739,306;14,22162
 227,31; 1307,871;  160,994; 8128,208;14,39497
 227,91; 1386,743;  178,452; 8522,116;14,48154
 228,51; 1469,373;  181,909; 8913,420;14,74504
 229,11; 1560,905;  182,301; 9324,768;15,07913
 229,71; 1614,289;  175,219; 9553,884;15,34408
 230,31; 1697,083;  170,000;10006,581;15,52453
 230,91; 1761,892;  162,060;10330,474;15,73335
 231,51; 1850,617;  162,304;10694,483;16,03005
 232,10; 1931,583;  171,616;11055,467;16,17044
 232,70; 2037,264;  189,671;11322,958;16,59522
 233,30; 2122,531;  200,534;11530,911;16,96323
 233,90; 2172,043;  179,764;11686,583;17,31390
 234,50; 2215,834;  181,534;11918,588;17,33229
 235,10; 2299,547;  166,536;11994,333;18,03388
 235,70; 2338,215;  187,221;12088,487;18,07365
 236,29; 2378,202;  187,988;12111,897;18,36825
 236,89; 2369,169;  166,599;12029,823;18,56637
 237,49; 2427,084;  197,687;11971,528;18,93518
 238,09; 2435,087;  176,993;11716,511;19,56836
 238,69; 2435,648;  218,442;11547,115;19,57163
 239,29; 2390,590;  172,223;11220,918;20,07810
 239,89; 2381,888;  193,907;10971,228;20,30172
 240,48; 2335,292;  176,531;10591,259;20,72796
 241,08; 2260,019;  175,145;10224,619;20,74611
 241,68; 2252,977;  196,993; 9925,720;21,13312
 242,28; 2165,462;  168,918; 9604,373;21,16001
 242,88; 2176,417;  214,538; 9311,832;21,56552
 243,48; 2097,954;  207,533; 8999,871;21,50078
 244,07; 2031,793;  190,298; 8722,403;21,58313
 244,67; 2021,715;  200,070; 8626,684;21,61775
 245,27; 1951,685;  198,602; 8464,284;21,20917
 245,87; 1938,382;  202,768; 8392,547;21,19243
 246,47; 1915,866;  190,295; 8414,382;20,98192
 247,06; 1901,500;  179,146; 8363,177;21,04531
 247,66; 1893,197;  176,685; 8450,657;20,74592
 248,26; 1935,888;  217,295; 8599,618;20,50258
 248,86; 1944,511;  200,757; 8748,312;20,40062
 249,46; 1922,948;  157,457; 8985,134;19,99950
 250,05; 1968,647;  203,377; 9328,022;19,34618
 250,65; 1961,419;  168,832; 9752,153;18,70528
 251,25; 2056,157;  174,760;10184,430;18,79579
 251,85; 2095,617;  191,137;10734,774;18,06284
 252,44; 2146,295;  155,835;11399,855;17,70239
 253,04; 2270,500;  197,451;12181,097;17,29899
 253,64; 2299,370;  155,678;12806,281;16,94538
 254,24; 2431,901;  195,146;13819,981;16,41675
 254,84; 2492,179;  170,996;14760,980;15,90943
 255,43; 2611,107;  175,527;15673,602;15,71537
 256,03; 2712,145;  178,063;16632,867;15,40026
 256,63; 2813,527;  183,214;17740,187;14,98159
 257,23; 2867,647;  177,907;18504,473;14,67673
 257,82; 2938,202;  190,672;19507,424;14,22356
 258,42; 2980,061;  145,747;20302,163;14,06160
 259,02; 3126,357;  190,682;21198,699;13,97407
 259,62; 3147,354;  173,669;21930,235;13,66799
 260,21; 3169,231;  179,989;22397,750;13,45429
 260,81; 3165,068;  187,994;22933,955;13,08836
 261,41; 3172,270;  162,594;23400,776;12,95142
 262,01; 3223,270;  205,975;23824,308;12,77522
 262,60; 3210,108;  158,984;24167,088;12,70873
 263,20; 3233,080;  164,756;24460,117;12,62926
 263,80; 3213,896;  201,359;24601,526;12,34638
 264,40; 3227,767;  163,976;24723,670;12,47488
 264,99; 3220,890;  187,974;24932,785;12,25677
 265,59; 3170,207;  179,353;25036,733;12,03205
 266,19; 3210,641;  165,821;25188,490;12,16825
 266,78; 3269,078;  212,895;25312,266;12,17633
 267,38; 3218,067;  186,739;25277,200;12,08160
 267,98; 3230,107;  172,049;25385,041;12,12890
 268,58; 3219,964;  188,354;25331,948;12,05718
 269,17; 3234,924;  171,427;25344,257;12,16986
 269,77; 3233,844;  191,520;25145,525;12,19172
 270,37; 3179,977;  163,205;25022,926;12,13518
 270,96; 3223,188;  215,441;24936,068;12,16695
 271,56; 3185,193;  174,753;24681,858;12,28395
 272,16; 3198,431;  178,979;24415,776;12,45813
 272,75; 3233,012;  177,210;24341,755;12,64581
 273,35; 3245,131;  187,057;24250,780;12,70823
 273,95; 3259,835;  186,287;24241,027;12,77731
 274,54; 3294,965;  175,300;24275,778;12,94441
 275,14; 3401,993;  200,519;24642,891;13,09805
 275,74; 3404,548;  153,825;24701,154;13,24268
 276,33; 3527,881;  213,136;25015,994;13,36437
 276,93; 3614,441;  195,455;25489,552;13,51693
 277,53; 3713,409;  185,065;26006,631;13,66433
 278,12; 3840,950;  172,215;26618,996;13,87214
 278,72; 4010,928;  216,219;27075,304;14,12821
 279,32; 4106,062;  186,064;27665,976;14,26496
 279,91; 4251,817;  164,832;28374,510;14,48788
 280,51; 4419,425;  172,373;28907,973;14,77976
 281,11; 4609,483;  183,525;29638,489;15,02619
 281,70; 4727,962;  165,370;30074,476;15,25486
 282,30; 4923,731;  181,214;30776,550;15,50078
 282,90; 5073,230;  178,752;31071,250;15,84358
 283,49; 5231,722;  191,519;31703,206;15,99471
 284,09; 5425,829;  213,908;32174,372;16,30740
 284,69; 5591,277;  201,602;32551,480;16,66057
 285,28; 5819,314;  201,523;32877,715;17,19231
 285,88; 5960,391;  235,209;33144,707;17,39675
 286,47; 6066,869;  184,368;33220,054;17,80650
 287,07; 6313,778;  209,679;33248,088;18,47577
 287,67; 6478,570;  204,456;33355,794;18,92567
 288,26; 6687,699;  172,448;33241,410;19,70201
 288,86; 6922,715;  179,754;33428,826;20,28015
 289,46; 7176,693;  192,063;33471,747;20,98767
 290,05; 7456,027;  174,837;33601,850;21,78235
 290,65; 7795,579;  180,521;33802,888;22,64879
 291,24; 8099,426;  188,988;33879,003;23,48007
 291,84; 8464,604;  206,368;34112,571;24,35612
 292,44; 8787,167;  191,072;34235,115;25,24993
 293,03; 9144,413;  241,449;34378,031;26,08042
 293,63; 9429,280;  179,598;34411,921;27,02032
 294,22; 9787,265;  205,832;34641,153;27,82443
 294,82;10064,937;  186,438;34577,243;28,72425
 295,41;10108,500;  169,832;34333,169;29,09162
 296,01;10404,640;  219,286;34338,309;29,85242
 296,61;10525,129;  198,218;34063,374;30,49421
 297,20;10633,197;  189,978;33632,022;31,22781
 297,80;10695,798;  203,223;33573,652;31,44273
 298,39;10788,694;  174,983;33088,159;32,24761
 298,99;10854,677;  220,749;32950,935;32,48966
 299,58;10945,046;  203,609;32750,873;33,00258
 300,18;10930,916;  204,683;32613,290;33,09686
 300,78;10966,287;  186,527;32260,315;33,60925
 301,37;11007,661;  187,512;32215,892;33,78300
 301,97;11094,666;  196,140;32287,880;33,96053
 302,56;11152,953;  183,983;32152,209;34,31210
 303,16;11166,464;  173,212;32088,694;34,44489
 303,75;11182,721;  183,605;32134,495;34,42507
 304,35;11380,806;  179,766;32333,153;34,83627
 304,94;11424,452;  186,064;32333,222;34,95920
 305,54;11510,014;  204,604;32260,260;35,26807
 306,13;11445,003;  168,074;32186,516;35,22011
 306,73;11393,973;  162,995;32020,506;35,25379
 307,33;11422,360;  202,378;31912,690;35,38275
 307,92;11444,209;  194,757;32025,129;35,34188
 308,52;11640,036;  158,596;32481,024;35,52159
 309,11;11851,684;  179,977;32994,471;35,56875
 309,71;11940,129;  160,590;33237,434;35,61265
 310,30;12005,166;  174,218;33455,381;35,54848
 310,90;12223,166;  210,295;33790,920;35,77322
 311,49;12207,712;  182,833;33948,536;35,61270
 312,09;12280,404;  159,914;34164,542;35,64365
 312,68;12470,913;  230,450;34592,532;35,62201
 313,28;12463,517;  166,988;34646,206;35,66360
 313,87;12512,983;  156,910;34788,836;35,67827
 314,47;12588,595;  172,902;35029,917;35,61892
 315,06;12546,122;  163,065;35299,219;35,24306
 315,66;12655,558;  164,914;35459,619;35,38957
 316,25;12581,995;  156,982;35359,386;35,29592
 316,85;12543,009;  158,914;35417,171;35,12396
 317,44;12578,586;  178,747;35551,114;35,05516
 318,04;12518,718;  157,214;35579,271;34,89776
 318,63;12390,448;  155,072;35726,555;34,39659
 319,22;12453,897;  181,905;35905,413;34,35271
 319,82;12375,157;  167,754;35877,499;34,18508
 320,41;12291,171;  187,829;35789,622;33,99644
 321,01;12234,897;  194,144;35985,116;33,64187
 321,60;12149,635;  183,216;36034,226;33,37819
 322,20;12070,687;  171,834;36012,471;33,19933
 322,79;12088,520;  204,065;36081,114;33,12551
 323,39;11964,516;  165,535;36264,448;32,68514
 323,98;11849,475;  162,373;36174,645;32,45311
 324,58;11807,819;  169,212;36082,534;32,40749
 325,17;11597,178;  180,674;35980,084;31,89020
 325,76;11523,903;  196,525;35776,620;31,83628
 326,36;11311,318;  163,298;35371,970;31,66271
 326,95;11163,216;  198,754;35069,435;31,44321
 327,55;10919,308;  161,138;34641,898;31,20050
 328,14;10691,432;  174,762;34387,672;30,73889
 328,74;10579,900;  192,213;33867,091;30,84699
 329,33;10351,546;  190,298;33500,292;30,50510
 329,92;10098,547;  162,978;33018,813;30,23989
 330,52; 9847,873;  185,147;32312,238;30,07657
 331,11; 9598,033;  168,446;31877,121;29,73819
 331,71; 9367,432;  182,371;31285,125;29,53134
 332,30; 9138,221;  205,371;30798,837;29,19855
 332,89; 8955,400;  233,836;30230,908;29,07472
 333,49; 8658,537;  194,370;29681,099;28,70501
 334,08; 8503,679;  181,061;29290,311;28,59097
 334,68; 8255,719;  180,908;28844,380;28,17109
 335,27; 8062,731;  199,148;28509,180;27,77667
 335,86; 7944,264;  240,446;28279,505;27,47531
 336,46; 7776,286;  197,917;27999,599;27,25867
 337,05; 7667,006;  182,908;27786,484;27,11279
 337,65; 7541,117;  165,677;27644,737;26,84022
 338,24; 7557,051;  223,681;27624,652;26,76317
 338,83; 7395,284;  197,758;27574,945;26,29023
 339,43; 7341,395;  171,674;27464,343;26,26977
 340,02; 7264,106;  179,828;27356,946;26,06707
 340,61; 7185,954;  174,680;27473,017;25,68389
 341,21; 7150,746;  205,367;27452,091;25,49069
 341,80; 7078,884;  178,753;27378,828;25,36806
 342,40; 7010,184;  184,455;27491,454;24,99626
 342,99; 7012,477;  182,451;27617,523;24,89523
 343,58; 6954,546;  183,298;27786,907;24,53030
 344,18; 6964,104;  195,298;27881,312;24,44847
 344,77; 6956,219;  176,058;28227,568;24,17040
 345,36; 6986,139;  168,447;28489,512;24,07287
 345,96; 7031,804;  195,298;28794,851;23,90424
 346,55; 7003,610;  166,843;29047,867;23,67218
 347,14; 7024,916;  165,455;29447,062;23,42584
 347,74; 7069,250;  151,771;29812,017;23,32239
 348,33; 7219,663;  171,462;30503,914;23,23650
 348,92; 7296,810;  191,928;31151,410;22,94897
 349,52; 7310,482;  155,541;31617,050;22,74189
 350,11; 7371,200;  183,519;31846,779;22,70038
 350,70; 7325,145;  180,680;31873,408;22,54292
 351,29; 7211,743;  155,818;31621,476;22,42421
 351,89; 7095,209;  185,362;31699,576;21,92613
 352,48; 7118,105;  158,680;31723,262;22,04821
 353,07; 7033,272;  175,148;31659,396;21,78272
 353,67; 7030,766;  186,851;31579,556;21,80097
 354,26; 6877,775;  189,455;31300,726;21,49806
 354,85; 6812,895;  179,607;31184,856;21,39408
 355,45; 6727,145;  158,753;31068,172;21,25046
 356,04; 6682,138;  171,610;30902,801;21,18541
 356,63; 6594,925;  197,062;30688,623;20,98240
 357,22; 6511,168;  185,820;30543,010;20,83641
 357,82; 6395,011;  191,976;30352,412;20,56680
 358,41; 6360,027;  202,294;30250,845;20,49261
 359,00; 6256,255;  168,982;29995,238;20,40911
 359,60; 6256,114;  188,065;30018,757;20,34163
 360,19; 6188,595;  182,611;29786,862;20,28757
 360,78; 6136,398;  194,523;29616,870;20,19511
 361,37; 6051,836;  178,985;29418,142;20,08557
 361,97; 5996,483;  196,986;29340,258;19,89995
 362,56; 5900,288;  175,365;29036,458;19,83612
 363,15; 5857,971;  220,907;28797,122;19,72642
 363,74; 5744,354;  188,056;28358,776;19,72366
 364,34; 5693,727;  197,905;28033,378;19,74395
 364,93; 5585,472;  172,211;27588,802;19,74447
 365,52; 5429,571;  153,908;27112,428;19,56956
 366,11; 5383,191;  173,982;26848,518;19,52877
 366,71; 5308,205;  170,598;26452,336;19,54820
 367,30; 5266,036;  172,370;26109,029;19,63887
 367,89; 5181,444;  227,607;25897,457;19,29827
 368,48; 5127,307;  186,594;25524,475;19,49931
 369,07; 5004,991;  179,603;25048,562;19,40326
 369,67; 4951,316;  197,980;24801,124;19,32003
 370,26; 4916,713;  178,219;24544,953;19,44657
 370,85; 4837,943;  183,216;24214,610;19,36936
 371,44; 4822,249;  179,601;23966,503;19,51766
 372,03; 4734,894;  168,751;23732,350;19,37795
 372,63; 4691,821;  156,293;23380,987;19,52890
 373,22; 4636,922;  176,834;23073,486;19,47922
 373,81; 4550,852;  157,139;22784,407;19,41778
 374,40; 4537,599;  177,916;22525,182;19,50880
 374,99; 4508,827;  172,445;22297,340;19,59956
 375,59; 4444,503;  164,453;22014,855;19,58797
 376,18; 4439,409;  194,753;21910,702;19,54626
 376,77; 4417,639;  189,140;21655,398;19,69835
 377,36; 4464,441;  198,292;21627,694;19,90792
 377,95; 4364,311;  193,213;21311,650;19,75098
 378,55; 4340,512;  166,683;21149,809;19,89136
 379,14; 4362,505;  196,908;21141,953;19,88822
 379,73; 4365,110;  184,137;20977,656;20,10710
 380,32; 4423,188;  192,832;20964,307;20,36618
 380,91; 4365,838;  164,133;20836,090;20,32563
 381,50; 4403,033;  190,981;20822,730;20,41539
 382,10; 4333,034;  169,601;20675,846;20,30324
 382,69; 4370,465;  156,908;20648,499;20,56237
 383,28; 4417,196;  201,674;20597,764;20,66829
 383,87; 4397,323;  171,981;20438,512;20,84886
 384,46; 4366,439;  168,284;20395,775;20,75470
 385,05; 4417,712;  201,058;20345,605;20,93199
 385,64; 4437,653;  173,290;20372,133;21,11192
 386,24; 4412,640;  160,207;20337,384;21,07546
 386,83; 4479,387;  204,283;20341,147;21,23024
 387,42; 4551,990;  197,982;20443,755;21,50576
 388,01; 4625,023;  187,663;20722,576;21,60886
 388,60; 4735,999;  185,669;20944,242;21,92025
 389,19; 4742,013;  171,195;21150,735;21,78703
 389,78; 4878,108;  177,043;21370,802;22,18136
 390,37; 5028,878;  234,666;21847,997;22,18174
 390,96; 5075,854;  180,052;22023,426;22,41321
 391,56; 5119,488;  184,039;22139,320;22,47955
 392,15; 5203,634;  169,582;22411,555;22,63312
 392,74; 5253,260;  150,800;22583,063;22,74608
 393,33; 5400,208;  174,192;22846,524;23,05019
 393,92; 5533,197;  192,027;23328,953;23,08505
 394,51; 5602,115;  174,577;23483,413;23,28533
 395,10; 5704,474;  210,938;23741,130;23,34675
 395,69; 5796,471;  191,709;23890,302;23,65019
 396,28; 5856,444;  189,164;24005,657;23,79561
 396,87; 5919,529;  197,000;24049,721;23,99110
 397,46; 6001,915;  196,915;24168,127;24,21655
 398,06; 6093,535;  211,983;24401,439;24,31453
 398,65; 6118,356;  191,424;24435,851;24,44657
 399,24; 6245,576;  197,112;24662,782;24,72225
 399,83; 6242,752;  175,619;24707,790;24,73133
 400,42; 6348,714;  214,283;24793,714;24,95758
 401,01; 6402,610;  189,019;24914,542;25,13027
 401,60; 6436,648;  199,975;24900,798;25,24885
 402,19; 6476,592;  220,863;24849,078;25,40066
 402,78; 6568,085;  222,501;24901,088;25,71291
 403,37; 6545,650;  204,834;24741,548;25,84216
 403,96; 6559,724;  203,697;24609,990;26,04257
 404,55; 6580,700;  211,322;24417,879;26,31261
 405,14; 6564,009;  194,415;24293,260;26,43112
 405,73; 6596,229;  207,883;24275,116;26,54375
 406,32; 6622,424;  205,219;24131,352;26,82090
 406,91; 6619,478;  198,856;23904,980;27,08423
 407,50; 6594,106;  207,674;23733,268;27,14674
 408,09; 6570,001;  183,730;23420,189;27,48384
 408,68; 6586,520;  192,793;23255,197;27,72359
 409,27; 6557,911;  185,273;23146,454;27,75397
 409,86; 6600,834;  197,701;22960,388;28,12995
 410,45; 6630,086;  238,122;22919,365;28,18172
 411,04; 6630,169;  238,082;22843,339;28,27699
 411,63; 6586,365;  211,592;22600,535;28,47286
 412,22; 6596,517;  218,021;22288,056;28,90116
 412,81; 6557,435;  223,652;22056,752;29,01000
 413,40; 6499,858;  235,979;21728,740;29,14413
 413,99; 6466,911;  260,589;21397,851;29,36200
 414,58; 6354,537;  202,285;21003,304;29,57668
 415,17; 6315,411;  218,036;20759,640;29,68305
 415,76; 6338,600;  210,789;20711,639;29,89052
 416,35; 6284,475;  191,259;20454,580;30,07018
 416,94; 6374,467;  230,023;20514,156;30,29187
 417,53; 6467,697;  201,576;20800,791;30,41922
 418,12; 6530,015;  201,580;20827,937;30,68130
 418,71; 6687,890;  220,980;21186,040;30,84613
 419,30; 6731,149;  211,736;21228,228;31,02047
 419,89; 6816,923;  194,893;21434,172;31,17822
 420,48; 6988,957;  237,442;21733,900;31,40757
 421,07; 7019,306;  215,368;21822,005;31,49004
 421,66; 7032,662;  188,454;21846,735;31,60088
 422,25; 7093,500;  208,395;21852,910;31,80993
 422,84; 7173,775;  225,783;21737,539;32,29858
 423,43; 7096,978;  215,391;21508,323;32,31865
 424,02; 7058,096;  233,317;21253,813;32,46726
 424,60; 6933,992;  215,646;20826,513;32,59614
 425,19; 6908,515;  213,481;20615,233;32,81597
 425,78; 6938,195;  234,251;20400,833;33,24284
 426,37; 6925,761;  238,797;20253,664;33,40999
 426,96; 6896,353;  222,105;20170,398;33,45774
 427,55; 6881,625;  211,732;20039,514;33,63913
 428,14; 6856,650;  203,353;19811,972;33,93047
 428,73; 6791,953;  204,266;19667,866;33,84619
 429,32; 6848,452;  222,719;19620,862;34,15653
 429,91; 6876,678;  242,190;19615,704;34,24515
 430,50; 6859,612;  231,888;19457,006;34,47429
 431,08; 6845,287;  221,587;19289,596;34,73724
 431,67; 6835,382;  259,438;19255,284;34,61780
 432,26; 6805,203;  261,905;19013,763;34,89413
 432,85; 6734,259;  275,980;18644,633;35,15924
 433,44; 6613,139;  279,142;18309,281;35,13005
 434,03; 6553,797;  303,076;17873,504;35,57523
 434,62; 6408,723;  254,220;17499,553;35,68794
 435,21; 6332,963;  270,981;17245,806;35,71160
 435,79; 6291,081;  249,226;17166,079;35,71501
 436,38; 6295,184;  252,083;16985,729;36,11348
 436,97; 6252,677;  247,930;16873,153;36,11829
 437,56; 6226,922;  255,023;16748,946;36,20666
 438,15; 6259,026;  235,558;16658,115;36,67801
 438,74; 6283,635;  265,790;16633,993;36,76546
 439,33; 6314,853;  241,711;16658,018;36,99457
 439,91; 6325,670;  221,026;16713,130;37,01556
 440,50; 6421,064;  271,565;16805,548;37,19309
 441,09; 6470,558;  262,189;16895,628;37,32462
 441,68; 6480,710;  241,660;16963,225;37,31140
 442,27; 6488,418;  233,887;16851,869;37,63713
 442,86; 6478,302;  203,599;16819,088;37,76418
 443,44; 6530,433;  227,595;16931,893;37,73183
 444,03; 6612,282;  271,446;16995,269;37,91499
 444,62; 6526,807;  226,600;16879,912;37,83156
 445,21; 6481,777;  245,366;16666,519;37,97791
 445,80; 6507,616;  265,147;16604,455;38,20522
 446,39; 6425,144;  268,760;16364,850;38,24770
 446,97; 6332,987;  227,772;16116,035;38,42594
 447,56; 6264,253;  218,705;15890,562;38,57582
 448,15; 6201,382;  228,618;15759,022;38,45852
 448,74; 6133,922;  257,389;15456,208;38,66440
 449,33; 6108,386;  235,088;15347,125;38,86503
 449,91; 5993,709;  238,175;15103,327;38,71830
 450,50; 5945,221;  230,558;14860,535;39,06133
 451,09; 5952,955;  234,097;14801,560;39,25775
 451,68; 5952,714;  259,410;14724,733;39,35829
 452,26; 5919,348;  251,953;14609,451;39,47342
 452,85; 5881,711;  230,104;14421,058;39,82542
 453,44; 5898,577;  243,810;14491,666;39,68855
 454,03; 5899,822;  217,417;14426,473;39,99143
 454,61; 5903,833;  230,811;14415,041;39,99527
 455,20; 5974,802;  245,893;14580,549;39,96544
 455,79; 5993,364;  254,961;14556,496;40,12438
 456,38; 6050,679;  252,439;14684,904;40,17498
 456,97; 6076,201;  237,283;14765,098;40,19130
 457,55; 6100,211;  240,597;14742,400;40,40611
 458,14; 6093,422;  249,512;14730,724;40,35511
 458,73; 6071,929;  247,136;14630,007;40,49812
 459,31; 6112,573;  265,453;14709,332;40,48165
 459,90; 6154,080;  278,294;14787,950;40,49569
 460,49; 6211,188;  316,676;14902,291;40,41318
 461,08; 6223,306;  239,457;14907,869;40,79411
 461,66; 6255,363;  248,298;15049,536;40,58488
 462,25; 6336,443;  251,999;15121,148;40,91992
 462,84; 6383,177;  277,304;15109,398;41,16663
 463,43; 6302,317;  215,394;15085,289;40,93454
 464,01; 6373,317;  248,782;15117,756;41,19003
 464,60; 6344,148;  291,775;15077,974;40,93258
 465,19; 6237,848;  228,247;14843,912;41,11753
 465,77; 6250,944;  248,251;14804,322;41,23841
 466,36; 6195,792;  262,163;14688,107;41,13165
 466,95; 6087,703;  245,856;14414,014;41,23222
 467,53; 5994,009;  250,795;14096,619;41,47975
 468,12; 5904,756;  284,642;13785,386;41,62818
 468,71; 5826,592;  249,478;13594,462;41,79183
 469,29; 5677,386;  227,721;13304,237;41,67521
 469,88; 5600,356;  237,801;13053,236;41,84450
 470,47; 5647,775;  300,502;13186,269;41,49751
 471,06; 5617,536;  263,195;13153,729;41,53700
 471,64; 5678,764;  248,577;13220,818;41,86006
 472,23; 5671,718;  221,439;13272,338;41,76171
 472,81; 5741,958;  220,431;13340,822;42,08355
 473,40; 5805,209;  234,747;13485,729;42,03811
 473,99; 5950,774;  335,209;13697,135;42,02662
 474,57; 5986,986;  245,516;13793,499;42,37878
 475,16; 6050,517;  253,433;13941,336;42,35188
 475,75; 6124,842;  273,676;14125,956;42,23973
 476,33; 6169,895;  271,682;14198,006;42,35298
 476,92; 6171,150;  275,979;14259,027;42,15941
 477,51; 6205,783;  265,064;14328,410;42,24257
 478,09; 6227,682;  257,910;14312,913;42,47435
 478,68; 6209,675;  273,913;14221,761;42,55683
 479,27; 6248,590;  287,599;14305,290;42,52477
 479,85; 6231,695;  257,605;14283,426;42,59352
 480,44; 6266,811;  254,839;14418,392;42,44678
 481,02; 6918,494;  255,537;15815,136;42,82216
 481,61; 7827,374;  283,919;17873,001;42,88715
 482,20; 8367,791;  255,691;19099,150;43,04995
 482,78; 8747,488;  299,453;19992,311;42,89898
 483,37; 8952,781;  278,699;20533,405;42,82502
 483,95; 9088,109;  304,393;20791,766;42,87380
 484,54; 9141,195;  317,687;21021,241;42,61833
 485,13; 9101,913;  274,631;20883,675;42,83208
 485,71; 9045,767;  255,552;20621,442;43,16146
 486,30; 8944,743;  284,013;20314,022;43,23877
 486,88; 8760,215;  322,246;19987,396;42,90824
 487,47; 8480,764;  301,556;19228,616;43,21436
 488,05; 8076,508;  276,713;18322,323;43,22268
 488,64; 7505,049;  297,104;17030,624;43,07489
 489,23; 6718,003;  304,637;15145,886;43,21312
 489,81; 5711,348;  299,947;12970,050;42,71000
 490,40; 5430,570;  248,179;12323,096;42,91865
 490,98; 5316,579;  239,182;12008,747;43,14005
 491,57; 5243,989;  273,023;11980,192;42,46087
 492,15; 5228,259;  253,952;11882,885;42,77527
 492,74; 5189,246;  260,944;11757,133;42,86901
 493,32; 5171,008;  277,412;11662,063;42,98415
 493,91; 5122,107;  263,340;11601,767;42,85221
 494,50; 5083,837;  262,198;11572,590;42,63017
 495,08; 5061,420;  241,813;11485,521;42,86493
 495,67; 5059,620;  272,570;11503,391;42,62422
 496,25; 5007,482;  224,038;11384,741;42,85970
 496,84; 4984,832;  231,646;11343,679;42,77512
 497,42; 4979,472;  221,502;11293,373;42,97349
 498,01; 5001,401;  249,648;11233,564;43,26101
 498,59; 4933,651;  227,811;11193,057;42,91596
 499,18; 4913,423;  225,572;11124,262;43,01298
 499,76; 4891,395;  260,115;11101,294;42,71934
 500,35; 4791,194;  245,432;10862,542;42,81543
 500,93; 4812,941;  241,963;10813,297;43,23936
 501,52; 4745,353;  238,734;10757,351;42,84422
 502,10; 4759,738;  261,129;10747,595;42,89919
 502,69; 4683,069;  242,363;10559,944;43,04018
 503,27; 4575,137;  227,429;10349,820;42,95140
 503,86; 4574,035;  233,977;10292,458;43,14824
 504,44; 4506,236;  224,981;10143,073;43,16612
 505,03; 4367,326;  207,673; 9910,660;42,86982
 505,61; 4373,781;  228,441; 9867,810;43,00426
 506,19; 4308,437;  250,134; 9720,605;42,85218
 506,78; 4202,902;  215,912; 9514,755;42,87619
 507,36; 4168,267;  224,980; 9341,724;43,25324
 507,95; 4056,538;  231,532; 9195,965;42,66869
 508,53; 4006,668;  226,066; 9043,616;42,87588
 509,12; 3951,329;  230,530; 8892,813;42,95402
 509,70; 3902,225;  257,455; 8769,488;42,81903
 510,29; 3856,841;  247,459; 8619,416;43,11275
 510,87; 3714,564;  229,989; 8412,749;42,58435
 511,46; 3643,394;  219,298; 8211,179;42,84468
 512,04; 3565,026;  224,918; 8099,680;42,41534
 512,62; 3507,678;  237,914; 7993,451;42,16038
 513,21; 3427,141;  213,229; 7789,415;42,42123
 513,79; 3368,929;  220,165; 7669,221;42,27064
 514,38; 3290,207;  209,315; 7499,517;42,26073
 514,96; 3285,479;  244,391; 7433,540;42,30109
 515,54; 3186,348;  212,778; 7283,317;42,05577
 516,13; 3169,500;  226,779; 7157,826;42,45709
 516,71; 3104,759;  215,862; 7056,039;42,23424
 517,30; 3056,176;  208,251; 6931,959;42,35646
 517,88; 3002,441;  234,174; 6882,673;41,63747
 518,46; 2949,855;  213,022; 6747,913;41,88031
 519,05; 2936,260;  225,718; 6659,507;42,12979
 519,63; 2905,069;  224,178; 6659,420;41,65952
 520,22; 2870,424;  243,724; 6564,271;41,55811
 520,80; 2816,831;  227,494; 6466,969;41,49927
 521,38; 2840,961;  257,027; 6436,694;41,81348
 521,97; 2784,159;  218,883; 6429,178;41,30683
 522,55; 2791,811;  235,575; 6443,647;41,17601
 523,13; 2772,412;  216,732; 6398,186;41,34431
 523,72; 2736,889;  224,330; 6381,243;40,80875
 524,30; 2859,724;  239,351; 6545,207;41,55459
 524,89; 2828,181;  207,114; 6567,260;41,21080
 525,47; 2871,808;  238,660; 6665,749;40,96953
 526,05; 2886,435;  213,276; 6727,615;41,03500
 526,64; 2929,130;  229,356; 6855,141;40,74649
 527,22; 2998,049;  232,121; 6943,659;41,21154
 527,80; 3083,894;  269,432; 7065,555;41,41276
 528,39; 3083,675;  226,435; 7190,884;41,02607
 528,97; 3139,975;  226,510; 7359,112;40,84716
 529,55; 3234,823;  234,655; 7559,822;40,95699
 530,14; 3323,073;  257,130; 7734,782;41,00141
 530,72; 3347,875;  221,972; 7856,769;40,94284
 531,30; 3402,479;  217,746; 7992,942;40,96017
 531,89; 3410,684;  229,746; 8072,921;40,55676
 532,47; 3504,734;  256,594; 8217,595;40,80065
 533,05; 3508,917;  264,355; 8219,821;40,78407
 533,63; 3524,632;  252,056; 8273,838;40,79612
 534,22; 3505,979;  224,980; 8342,061;40,42093
 534,80; 3549,843;  241,755; 8435,057;40,37552
 535,38; 3609,542;  314,977; 8489,709;40,30180
 535,97; 3547,275;  234,133; 8436,888;40,39060
 536,55; 3579,494;  271,140; 8468,496;40,35879
 537,13; 3521,397;  265,745; 8446,124;39,79829
 537,71; 3574,451;  285,283; 8475,119;40,16159
 538,30; 3547,351;  305,674; 8570,323;39,22340
 538,88; 3627,136;  318,837; 8599,984;39,94977
 539,46; 3691,034;  344,062; 8806,603;39,55044
 540,05; 3705,420;  345,912; 8897,023;39,28739
 540,63; 3766,975;  386,296; 9111,519;38,74604
 541,21; 3838,966;  393,223; 9243,260;38,93478
 541,79; 3874,939;  411,761; 9345,393;38,76562
 542,38; 3955,936;  420,142; 9496,556;38,95585
 542,96; 4006,393;  444,997; 9640,398;38,73019
 543,54; 4068,418;  449,299; 9854,765;38,47889
 544,12; 4143,285;  405,685; 9999,510;38,95839
 544,70; 4131,860;  405,382;10057,138;38,60933
 545,29; 4157,080;  420,603;10257,492;37,98433
 545,87; 4207,093;  410,915;10329,470;38,27350
 546,45; 4196,124;  392,603;10323,885;38,29839
 547,03; 4237,327;  383,760;10485,760;38,14657
 547,62; 4286,383;  363,839;10602,636;38,31059
 548,20; 4366,153;  382,919;10766,056;38,36253
 548,78; 4376,870;  344,546;10952,908;38,01081
 549,36; 4423,652;  347,391;11183,078;37,61885
 549,94; 4482,427;  320,764;11287,724;37,94728
 550,53; 4576,564;  322,697;11513,627;38,01174
 551,11; 4619,141;  294,548;11726,288;37,82970
 551,69; 4715,160;  322,468;12059,610;37,42557
 552,27; 4794,110;  275,540;12330,394;37,48341
 552,85; 4931,165;  287,163;12753,477;37,25240
 553,44; 5015,863;  288,544;13036,442;37,08312
 554,02; 5181,720;  310,085;13449,201;37,07734
 554,60; 5262,381;  248,318;13720,860;37,21690
 555,18; 5457,394;  287,852;14092,826;37,44695
 555,76; 5536,810;  277,008;14460,557;37,08382
 556,34; 5685,959;  292,169;14913,550;36,88974
 556,93; 5834,835;  277,853;15329,007;36,92064
 557,51; 5934,116;  240,707;15647,690;36,95343
 558,09; 6068,949;  284,853;16070,707;36,64101
 558,67; 6230,595;  280,172;16447,067;36,80622
 559,25; 6298,826;  288,786;16734,988;36,54364
 559,83; 6370,694;  273,791;17033,614;36,37809
 560,41; 6480,403;  265,398;17391,253;36,29019
 561,00; 6591,468;  280,634;17766,934;36,09016
 561,58; 6636,424;  274,782;18011,072;35,86794
 562,16; 6720,643;  268,625;18341,204;35,70059
 562,74; 6794,221;  237,393;18731,886;35,45287
 563,32; 6945,872;  245,867;19154,726;35,43315
 563,90; 7074,531;  267,019;19544,270;35,31371
 564,48; 7191,539;  267,550;20046,724;35,00646
 565,06; 7399,061;  267,326;20579,929;35,10990
 565,65; 7572,337;  272,181;21263,904;34,77636
 566,23; 7837,892;  311,788;22040,081;34,63735
 566,81; 8013,696;  279,324;22783,792;34,36816
 567,39; 8314,133;  277,023;23701,381;34,31091
 567,97; 8518,644;  289,940;24310,168;34,25739
 568,55; 8781,688;  293,252;25197,412;34,08441
 569,13; 8993,664;  270,634;25881,528;34,05984
 569,71; 9226,205;  280,933;26851,239;33,66642
 570,29; 9580,307;  308,160;27888,993;33,61808
 570,87; 9745,768;  303,624;28621,612;33,34327
 571,45; 9898,027;  296,018;29325,907;33,07628
 572,03; 9971,379;  249,486;29702,693;33,00793
 572,61;10216,622;  242,944;30408,629;33,06299
 573,20;10447,992;  281,092;31069,696;33,02163
 573,78;10530,500;  260,329;31782,006;32,58130
 574,36;10677,392;  279,328;32300,505;32,47246
 574,94;10797,240;  317,256;32642,774;32,42016
 575,52;10757,495;  265,725;32846,235;32,20260
 576,10;10985,845;  308,953;33440,563;32,22570
 576,68;11051,647;  288,870;33975,623;31,94958
 577,26;11260,507;  309,574;34699,026;31,84387
 577,84;11358,258;  315,943;35186,679;31,66642
 578,42;11444,046;  350,873;35502,631;31,55795
 579,00;11426,667;  290,252;35667,901;31,47868
 579,58;11476,152;  329,718;35955,711;31,28737
 580,16;11366,482;  305,028;35934,796;31,04554
 580,74;11433,822;  303,875;36128,711;31,06769
 581,32;11358,368;  300,872;36230,094;30,77577
 581,90;11370,954;  327,182;36174,629;30,80770
 582,48;11378,649;  327,798;36293,768;30,72585
 583,06;11373,553;  317,718;36487,822;30,56622
 583,64;11373,982;  308,871;36568,753;30,51613
 584,22;11252,808;  320,649;36441,638;30,26539
 584,80;11178,357;  320,258;36211,539;30,25275
 585,38;11027,608;  324,553;35778,495;30,18862
 585,96;10981,258;  299,253;35838,913;30,05657
 586,54;10988,151;  319,802;35884,305;29,99718
 587,12;10875,901;  300,568;36082,359;29,55507
 587,70;10964,982;  326,331;36191,135;29,66321
 588,28;10875,001;  305,568;36305,241;29,35980
 588,86;10902,032;  315,031;36369,510;29,36390
 589,44;10834,625;  297,962;36510,054;29,09709
 590,02;10852,665;  307,114;36686,583;28,98765
 590,59;10836,161;  285,802;36964,214;28,76449
 591,17;10855,295;  298,047;37099,676;28,68691
 591,75;10807,290;  289,503;37335,237;28,39136
 592,33;10877,661;  309,655;37533,493;28,39042
 592,91;10857,131;  272,199;37770,302;28,22791
 593,49;10894,945;  276,587;38115,931;28,06169
 594,07;11010,263;  285,510;38350,610;28,17477
 594,65;10955,839;  301,418;38358,213;27,99611
 595,23;10983,111;  307,960;38870,395;27,68277
 595,81;10955,338;  283,500;38835,566;27,68163
 596,39;10961,498;  271,577;38992,460;27,60764
 596,97;10970,720;  305,198;39202,896;27,41942
 597,55;10893,836;  285,497;39101,230;27,33000
 598,12;10923,711;  272,973;39094,948;27,43482
 598,70;10880,955;  269,431;39324,222;27,17086
 599,28;10910,687;  292,662;39457,523;27,11110
 599,86;10845,899;  276,815;39468,964;26,96735
 600,44;10805,872;  251,740;39539,023;26,86399
 601,02;10817,660;  308,287;39632,593;26,72488
 601,60;10738,664;  285,734;39636,789;26,56328
 602,18;10662,166;  254,434;39624,823;26,43543
 602,75;10632,921;  259,269;39722,651;26,28678
 603,33;10623,483;  276,046;39733,774;26,22411
 603,91;10518,953;  263,669;39629,278;26,05138
 604,49;10490,372;  287,354;39768,137;25,84300
 605,07;10505,159;  289,734;39779,503;25,86854
 605,65;10444,306;  293,279;39876,357;25,64486
 606,23;10382,868;  322,032;39961,370;25,38094
 606,80;10348,972;  339,115;40031,476;25,21860
 607,38;10332,875;  361,129;40020,091;25,14374
 607,96;10274,136;  396,345;40120,463;24,86598
 608,54;10246,664;  436,971;40132,952;24,71205
 609,12;10230,012;  423,730;40212,084;24,64611
 609,70;10162,715;  447,584;40164,958;24,46066
 610,27;10181,050;  446,960;40221,891;24,47293
 610,85;10156,890;  452,660;40361,469;24,31601
 611,43;10108,634;  453,661;40190,327;24,29739
 612,01; 9940,432;  428,579;39938,834;24,07439
 612,59; 9951,702;  437,122;40005,832;24,04572
 613,16; 9881,142;  400,803;40000,582;23,94038
 613,74; 9821,138;  391,816;39860,382;23,89072
 614,32; 9773,693;  378,203;39818,573;23,82201
 614,90; 9684,906;  368,735;39740,501;23,66206
 615,48; 9568,234;  336,420;39404,202;23,63025
 616,05; 9448,541;  326,033;39490,968;23,29254
 616,63; 9370,618;  335,569;39351,965;23,15706
 617,21; 9270,191;  332,883;39185,457;23,00313
 617,79; 9174,398;  313,578;39065,963;22,86522
 618,36; 9178,363;  330,580;39125,867;22,80634
 618,94; 9020,998;  261,959;38822,725;22,71490
 619,52; 8905,590;  292,032;38375,453;22,61761
 620,10; 8815,232;  285,269;38330,713;22,42046
 620,67; 8736,427;  295,723;38250,497;22,23885
 621,25; 8691,343;  306,350;38026,894;22,22925
 621,83; 8617,319;  298,651;38062,774;22,02797
 622,41; 8648,878;  328,959;38049,670;22,05664
 622,98; 8497,244;  308,800;37788,029;21,84795
 623,56; 8421,092;  314,030;37795,674;21,62942
 624,14; 8341,945;  289,659;37659,464;21,54757
 624,72; 8300,804;  301,805;37544,194;21,47821
 625,29; 8240,747;  282,799;37675,744;21,28195
 625,87; 8198,193;  326,270;37619,830;21,10800
 626,45; 8138,692;  279,259;37344,439;21,20436
 627,02; 8068,751;  287,732;37357,465;20,99022
 627,60; 7998,113;  271,817;37247,702;20,89550
 628,18; 7963,781;  253,730;37361,161;20,77765
 628,76; 7921,430;  261,724;37356,021;20,64928
 629,33; 7916,028;  296,726;37384,113;20,54419
 629,91; 7846,001;  278,346;37340,329;20,41892
 630,49; 7837,475;  296,956;37449,416;20,29615
 631,06; 7832,322;  287,340;37625,831;20,20698
 631,64; 7822,033;  293,568;37572,200;20,19512
 632,22; 7776,612;  254,949;37478,527;20,20672
 632,79; 7762,114;  288,257;37824,059;19,91128
 633,37; 7713,511;  277,349;37826,435;19,80384
 633,95; 7756,984;  270,644;37963,712;19,86132
 634,52; 7711,353;  272,189;38068,796;19,68209
 635,10; 7664,454;  282,499;38029,680;19,55631
 635,68; 7656,010;  274,949;38237,268;19,44312
 636,25; 7662,740;  266,637;38241,039;19,47655
 636,83; 7613,046;  254,878;38432,405;19,27356
 637,41; 7606,534;  251,487;38505,802;19,22671
 637,98; 7652,374;  285,409;38627,908;19,21358
 638,56; 7609,722;  273,867;38771,280;19,05545
 639,13; 7554,740;  265,800;38871,974;18,88024
 639,71; 7572,774;  311,878;39154,614;18,69306
 640,29; 7419,552;  246,955;38826,648;18,59164
 640,86; 7485,783;  252,032;38988,317;18,67435
 641,44; 7403,015;  253,417;38967,062;18,46790
 642,02; 7393,477;  276,341;38914,962;18,41975
 642,59; 7417,862;  253,879;39161,323;18,41288
 643,17; 7383,170;  263,110;39098,531;18,33393
 643,74; 7320,709;  249,111;39141,738;18,18236
 644,32; 7329,863;  286,649;39185,253;18,10660
 644,89; 7253,479;  280,649;39099,692;17,96240
 645,47; 7259,095;  291,111;39116,437;17,94701
 646,05; 7203,865;  286,111;39135,414;17,80664
 646,62; 7139,173;  264,189;39107,852;17,69911
 647,20; 7137,328;  269,497;39209,444;17,63698
 647,77; 7031,636;  249,804;39035,729;17,48529
 648,35; 6961,560;  245,420;39003,398;17,32841
 648,92; 6968,252;  272,651;39009,682;17,28476
 649,50; 6882,637;  234,882;38843,966;17,21811
 650,08; 6861,176;  246,882;38764,251;17,17224
 650,65; 6848,485;  238,036;39112,535;17,00459
 651,23; 6917,101;  220,421;39827,512;16,90778
 651,80; 7074,332;  233,729;40797,488;16,86383
 652,38; 7126,025;  246,499;41191,465;16,80188
 652,95; 7132,641;  227,268;41534,057;16,71728
 653,53; 7150,641;  255,961;41894,187;16,55854
 654,10; 7175,642;  281,576;41945,318;16,54692
 654,68; 7081,335;  241,577;41909,064;16,41510
 655,25; 7065,104;  238,192;41917,579;16,37959
 655,83; 7040,797;  237,423;42057,709;16,26812
 656,40; 7020,105;  264,500;42034,840;16,17321
 656,98; 6973,260;  239,270;41918,278;16,15679
 657,55; 6931,645;  252,347;41811,332;16,07185
 658,13; 6830,261;  241,116;41390,693;16,01267
 658,70; 6752,108;  266,270;41249,977;15,82540
 659,28; 6603,416;  236,501;40241,339;15,91536
 659,85; 6482,647;  255,040;39406,315;15,90652
 660,43; 6461,494;  261,887;39494,676;15,80211
 661,00; 6430,956;  240,502;39551,730;15,74729
 661,58; 6466,033;  237,810;40107,784;15,62134
 662,15; 6461,111;  226,503;40183,453;15,60331
 662,73; 6533,496;  300,272;40518,660;15,49844
 663,30; 6501,266;  244,042;40675,406;15,47616
 663,88; 6498,805;  254,965;40897,306;15,36289
 664,45; 6517,113;  244,734;41079,282;15,36047
 665,03; 6555,267;  242,658;41416,797;15,33149
 665,60; 6695,191;  323,504;41846,697;15,34489
 666,17; 6627,422;  247,658;41960,520;15,29448
 666,75; 6641,115;  249,735;42413,650;15,15841
 667,32; 6708,885;  268,505;42639,396;15,20001
 667,90; 6694,578;  244,582;42979,604;15,09300
 668,47; 6778,270;  273,274;43192,888;15,15623
 669,05; 6775,194;  237,582;43631,019;15,06590
 669,62; 6734,348;  231,583;43641,611;14,97987
 670,19; 6706,349;  232,198;43783,433;14,86560
 670,77; 6763,426;  248,198;43903,025;14,92442
 671,34; 6677,581;  243,353;43823,310;14,76419
 671,92; 6741,504;  231,737;44287,748;14,77612
 672,49; 6693,582;  258,738;44173,340;14,65309
 673,06; 6673,890;  215,507;44343,470;14,63558
 673,64; 6676,583;  232,661;44171,293;14,66573
 674,21; 6593,276;  220,046;44244,347;14,47662
 674,79; 6633,276;  250,508;44513,323;14,42016
 675,36; 6676,123;  260,585;44484,223;14,50703
 675,93; 6599,047;  219,508;44374,123;14,44818
 676,51; 6627,893;  256,816;44710,176;14,33205
 677,08; 6614,971;  241,124;44763,692;14,31599
 677,65; 6616,510;  250,047;44833,976;14,27972
 678,23; 6634,510;  253,509;45032,876;14,24987
 678,80; 6625,280;  240,971;45153,160;14,21509
 679,38; 6631,973;  240,048;45315,367;14,18054
 679,95; 6652,358;  241,510;45585,344;14,13830
 680,52; 6675,589;  246,664;45759,705;14,12546
 681,10; 6743,513;  255,126;46247,374;14,10757
 681,67; 6713,821;  254,664;46474,505;13,97486
 682,24; 6725,206;  234,126;46637,789;13,98829
 682,82; 6829,438;  238,050;47233,381;14,02562
 683,39; 6890,592;  280,973;47459,127;14,00991
 683,96; 6905,669;  245,665;47797,719;14,00571
 684,54; 6934,901;  227,589;48127,234;14,00284
 685,11; 7005,517;  269,666;48378,288;14,00134
 685,68; 7036,671;  246,358;48929,495;13,94798
 686,25; 7001,979;  229,436;49081,164;13,86347
 686,83; 7054,980;  244,897;49196,602;13,91184
 687,40; 7085,826;  219,205;49533,271;13,92426
 687,97; 7173,904;  269,667;49965,556;13,89297
 688,55; 7120,212;  222,129;49932,071;13,87667
 689,12; 7167,290;  214,206;50320,663;13,87662
 689,69; 7150,982;  222,899;50349,716;13,82111
 690,26; 7180,444;  246,130;50497,462;13,79927
 690,84; 7172,291;  245,361;50658,285;13,74039
 691,41; 7180,215;  248,822;50775,800;13,71820
 691,98; 7257,908;  254,823;51050,469;13,78678
 692,56; 7223,754;  233,284;51139,369;13,73209
 693,13; 7252,755;  283,592;51161,576;13,69780
 693,70; 7257,294;  266,823;51358,245;13,68228
 694,27; 7218,064;  254,285;51426,453;13,60853
 694,84; 7231,987;  234,131;51492,583;13,65210
 695,42; 7290,372;  288,362;51602,791;13,64530
 695,99; 7294,373;  251,132;51901,229;13,63645
 696,56; 7261,220;  233,747;51796,052;13,62909
 697,13; 7330,605;  253,594;52059,182;13,66071
 697,71; 7321,528;  221,517;52124,466;13,67940
 698,28; 7346,760;  241,825;52567,212;13,57837
 698,85; 7365,068;  218,672;52430,573;13,68729
 699,42; 7375,530;  217,903;52602,627;13,66358
 699,99; 7384,992;  269,364;52899,758;13,52000
 700,57; 7396,762;  250,288;52759,427;13,60996
 701,14; 7415,839;  239,903;52950,788;13,61377
 701,71; 7451,994;  251,057;53144,841;13,61396
 702,28; 7428,148;  249,750;53175,587;13,56313
 702,85; 7463,072;  240,212;53278,641;13,61816
 703,43; 7477,149;  267,981;53533,464;13,53441
 704,00; 7514,380;  279,366;53798,363;13,51859
 704,57; 7508,842;  251,674;53675,417;13,58416
 705,14; 7549,074;  272,597;54065,932;13,52673
 705,71; 7596,228;  271,290;54061,216;13,61768
 706,28; 7526,382;  252,367;53901,808;13,55842
 706,86; 7597,998;  276,752;54297,400;13,55268
 707,43; 7614,845;  300,598;54147,300;13,58346
 708,00; 7587,846;  264,060;54117,123;13,59957
 708,57; 7558,538;  243,675;54126,561;13,57548
 709,14; 7602,154;  272,599;54215,230;13,58769
 709,71; 7616,001;  248,830;54312,438;13,62686
 710,28; 7675,002;  264,445;54427,876;13,68184
 710,86; 7679,771;  265,676;54698,083;13,62074
 711,43; 7718,772;  280,061;54701,983;13,66859
 712,00; 7738,388;  256,600;54690,575;13,74470
 712,57; 7731,773;  265,293;54991,705;13,64328
 713,14; 7753,158;  255,216;55000,451;13,69606
 713,71; 7724,466;  266,831;54936,505;13,64126
 714,28; 7741,698;  265,601;54977,558;13,66447
 714,85; 7708,467;  241,524;54659,535;13,72146
 715,42; 7746,083;  249,140;55004,127;13,69180
 716,00; 7879,930;  311,140;55111,181;13,81165
 716,57; 7806,007;  262,602;55229,773;13,72347
 717,14; 7782,546;  249,217;55154,826;13,72051
 717,71; 7834,470;  234,987;55096,957;13,85201
 718,28; 7901,547;  280,449;55273,164;13,85838
 718,85; 7881,779;  247,218;55374,218;13,84904
 719,42; 7913,856;  269,449;55454,810;13,85224
 719,99; 7885,626;  247,219;55223,709;13,89395
 720,56; 7967,319;  264,988;55553,840;13,93107
 721,13; 7986,627;  241,296;55688,124;13,96893
 721,70; 7975,935;  248,835;55484,255;13,98939
 722,27; 8000,859;  273,912;55549,770;13,97888
 722,84; 8064,936;  306,374;55677,900;14,01183
 723,41; 8036,321;  240,835;55715,569;14,05232
 723,98; 8107,399;  266,682;55931,161;14,08567
 724,55; 8091,784;  283,144;55921,215;14,03471
 725,12; 8111,862;  221,836;55925,192;14,16436
 725,69; 8127,554;  253,221;56131,091;14,09204
 726,27; 8187,478;  266,606;56193,145;14,16299
 726,84; 8264,479;  269,298;56558,891;14,20366
 727,41; 8284,248;  274,683;56495,175;14,24670
 727,98; 8307,710;  272,376;56762,306;14,22437
 728,55; 8397,942;  296,068;56619,205;14,38463
 729,12; 8345,481;  239,607;56799,951;14,33137
 729,69; 8384,173;  279,376;57065,620;14,27247
 730,26; 8462,636;  276,069;57301,443;14,35601
 730,82; 8457,867;  272,069;57015,958;14,42587
 731,39; 8469,483;  263,608;57200,396;14,41225
 731,96; 8549,253;  251,454;57379,758;14,52485
 732,53; 8609,407;  265,455;57658,119;14,53836
 733,10; 8657,100;  274,609;57655,326;14,60855
 733,67; 8716,870;  271,455;57940,841;14,64454
 734,24; 8634,178;  251,994;57573,126;14,62320
 734,81; 8737,947;  285,456;57668,949;14,72983
 735,38; 8651,256;  270,840;57484,925;14,64747
 735,95; 8660,179;  271,148;57348,594;14,69763
 736,52; 8688,564;  277,610;57559,878;14,68335
 737,09; 8687,103;  265,918;57244,547;14,77955
 737,66; 8794,796;  307,072;57340,678;14,88197
 738,23; 8754,720;  259,534;57458,193;14,85207
 738,80; 8908,028;  314,919;57686,631;14,97796
 739,37; 8890,106;  294,150;57997,146;14,89690
 739,94; 8963,645;  266,765;58021,969;15,05817
 740,51; 9066,491;  361,073;58162,869;15,06081
 741,07; 8962,569;  257,304;57969,230;15,08400
 741,64; 9043,800;  299,458;58260,591;15,08656
 742,21; 9058,493;  268,459;58352,491;15,13331
 742,78; 9077,109;  238,074;58040,006;15,29194
 743,35; 9121,186;  267,921;58393,598;15,23125
 743,92; 9238,648;  293,382;58500,806;15,36791
 744,49; 9199,726;  272,075;58297,244;15,38582
 745,06; 9208,419;  262,537;58309,990;15,41133
 745,63; 9232,265;  246,922;58349,813;15,46454
 746,19; 9241,420;  260,537;58279,174;15,47931
 746,76; 9309,882;  260,614;58369,227;15,57302
 747,33; 9352,652;  256,307;58286,589;15,67517
 747,90; 9450,883;  280,384;58549,027;15,73831
 748,47; 9448,576;  276,615;58454,850;15,76528
 749,04; 9484,038;  273,000;58474,596;15,82609
 749,61; 9523,807;  287,308;58464,495;15,87650
 750,17; 9550,962;  285,693;58499,856;15,91583
 750,74; 9588,732;  274,001;58413,910;16,02123
 751,31; 9510,809;  257,078;58361,194;15,92612
 751,88; 9544,502;  231,463;58242,479;16,05392
 752,45; 9646,195;  261,617;58344,071;16,15734
 753,02; 9642,118;  282,848;58210,355;16,15687
 753,58; 9635,119;  249,232;58226,639;16,18887
 754,15; 9703,350;  258,617;58347,616;16,25907
 754,72; 9663,428;  247,156;58025,824;16,29714
 755,29; 9654,351;  241,156;57871,723;16,33368
 755,86; 9685,275;  262,387;58023,931;16,31343
 756,42; 9726,275;  267,311;57938,600;16,40151
 756,99; 9723,276;  228,388;57931,653;16,45468
 757,56; 9780,276;  235,003;57765,245;16,59175
 758,13; 9770,277;  200,234;57725,068;16,63637
 758,70; 9907,047;  227,773;57822,122;16,80594
 759,26; 9898,124;  223,696;57884,329;16,77822
 759,83; 9946,663;  234,543;57974,152;16,82055
 760,40; 9987,356;  219,928;57712,590;16,98900
 760,97; 9960,972;  197,774;57783,567;16,95418
 761,53; 9984,357;  193,697;57436,697;17,10368
 762,10; 9977,819;  196,544;57388,905;17,10242
 762,67;10051,820;  229,313;57454,112;17,16477
 763,24; 9984,513;  189,852;56929,781;17,26238
 763,80;10042,282;  228,314;57080,835;17,26215
 764,37;10065,360;  218,929;57096,119;17,31174
 764,94;10005,206;  215,391;56619,172;17,35667
 765,50;10042,515;  216,314;56701,841;17,39596
 766,07;10157,284;  252,622;56651,433;17,56183
 766,64;10114,977;  230,776;56431,872;17,58720
 767,21;10045,209;  225,777;56265,618;17,52223
 767,77;10099,055;  250,315;56115,825;17,62937
 768,34;10119,825;  239,239;56116,109;17,68278
 768,91;10162,826;  255,162;55937,317;17,79325
 769,47;10184,057;  245,008;55948,909;17,84264
 770,04;10203,134;  262,855;55841,962;17,88492
 770,61;10152,212;  240,086;55658,939;17,88584
 771,18;10187,597;  231,932;55498,454;18,01392
 771,74;10320,521;  246,932;55584,123;18,20401
 772,31;10278,675;  247,317;55284,253;18,22659
 772,88;10256,522;  225,471;55091,615;18,28277
 773,44;10295,753;  228,471;55019,130;18,37408
 774,01;10332,830;  246,010;55033,953;18,41066
 774,58;10315,985;  234,549;54714,775;18,50476
 775,14;10379,524;  230,703;54775,598;18,60636
 775,71;10371,986;  238,395;54690,421;18,61013
 776,27;10527,909;  283,857;54724,475;18,81693
 776,84;10590,141;  308,165;54764,067;18,88129
 777,41;10517,526;  245,165;54464,966;18,94577
 777,97;10490,219;  244,550;54181,635;18,99559
 778,54;10522,142;  259,012;54240,381;19,01236
 779,11;10586,220;  268,551;54182,666;19,13723
 779,67;10607,066;  228,166;54092,642;19,26854
 780,24;10612,375;  251,936;53933,388;19,29985
 780,80;10644,298;  269,013;53984,749;19,31517
 781,37;10737,914;  254,859;53989,264;19,50902
 781,94;10642,145;  246,783;53653,703;19,46445
 782,50;10695,608;  257,091;53683,833;19,53800
 783,07;10727,454;  281,937;53762,964;19,53126
 783,63;10726,455;  240,860;53436,556;19,71136
 784,20;10766,686;  273,399;53488,686;19,71856
 784,77;10778,148;  256,553;53280,586;19,84307
 785,33;10758,533;  229,784;52997,332;19,95308
 785,90;10840,303;  253,015;53002,078;20,07104
 786,46;10762,688;  269,861;52896,439;19,93827
 787,03;10737,766;  242,092;52744,339;19,99090
 787,59;10854,920;  248,631;52615,315;20,25389
 788,16;10865,767;  258,478;52575,292;20,27511
 788,73;10839,998;  265,401;52391,576;20,28654
 789,29;10886,614;  244,786;51910,014;20,59766
 789,86;10912,845;  267,171;51898,222;20,61874
 790,42;10884,769;  257,094;51859,737;20,59521
 790,99;10857,154;  272,479;51447,944;20,68310
 791,55;10848,847;  245,633;51501,152;20,68697
 792,12;10963,540;  265,556;51433,359;20,90765
 792,68;10873,925;  254,556;51144,874;20,86717
 793,25;10889,387;  265,941;50834,543;21,00799
 793,81;10930,387;  309,249;50529,058;21,14930
 794,38;10824,619;  217,557;50328,112;21,16732
 794,94;10830,081;  244,173;50104,243;21,23123
 795,51;10865,312;  257,788;49860,681;21,38489
 796,07;10850,620;  260,789;49633,504;21,44875
 796,64;10906,852;  264,712;49687,480;21,53287
 797,20;10800,698;  258,558;49121,303;21,57501
 797,77;10812,930;  229,328;48871,664;21,75800
 798,33;10809,776;  241,866;48671,641;21,82110
 798,90;10846,315;  274,636;48687,771;21,83639
 799,46;10830,624;  246,251;48125,363;22,10645
 800,03;10850,547;  270,790;48025,109;22,15456
 800,59;10826,471;  272,713;47941,624;22,13971
 801,15;10858,471;  258,175;47589,524;22,39593
 801,72;10818,318;  252,406;47287,732;22,46378
 802,28;10812,857;  285,560;46983,631;22,54332
 802,85;10780,781;  249,330;46889,300;22,58031
 803,41;10767,243;  246,561;46712,892;22,64152
 803,98;10757,397;  249,484;46328,330;22,80420
 804,54;10688,398;  249,946;46006,846;22,81285
 805,11;10686,013;  258,485;45810,130;22,89166
 805,67;10751,399;  272,100;45752,414;23,04139
 806,23;10655,322;  262,408;45267,006;23,09300
 806,80;10679,861;  275,562;45117,444;23,20219
 807,36;10623,939;  282,793;45013,267;23,11879
 807,93;10631,631;  286,024;44813,321;23,23430
 808,49;10627,401;  245,640;44510,144;23,45392
 809,05;10534,863;  234,640;44363,505;23,34124
 809,62;10602,479;  270,410;44212,405;23,51297
 810,18;10585,326;  263,871;44157,151;23,51489
 810,74;10550,942;  232,025;43883,896;23,63912
 811,31;10534,942;  245,872;43546,335;23,76203
 811,87;10528,174;  256,564;43534,004;23,73433
 812,44;10626,713;  283,949;43399,288;23,98859
 813,00;10597,713;  209,719;43112,880;24,21266
 813,56;10597,329;  260,950;43217,010;24,06268
 814,13;10580,099;  259,565;43157,449;24,05837
 814,69;10607,869;  251,719;42808,348;24,33498
 815,25;10522,331;  229,104;42601,479;24,29231
 815,82;10562,408;  275,335;42334,840;24,45838
 816,38;10599,486;  298,182;42184,817;24,59330
 816,94;10519,102;  235,490;41865,486;24,70241
 817,51;10532,794;  226,644;41713,001;24,84226
 818,07;10478,718;  242,105;41376,747;24,88563
 818,63;10510,334;  265,336;41247,262;24,99882
 819,20;10561,027;  249,798;41189,777;25,18621
 819,76;10471,027;  235,414;40615,138;25,34840
 820,32;10492,874;  268,952;40609,961;25,34374
 820,89;10457,874;  270,799;40403,553;25,38345
 821,45;10425,029;  233,338;40010,145;25,62220
 822,01;10389,337;  273,876;39788,660;25,59918
 822,57;10417,722;  267,107;39675,791;25,75731
 823,14;10406,107;  238,415;39514,075;25,88802
 823,70;10363,646;  241,108;39247,282;25,95112
 824,26;10322,416;  235,262;39008,797;26,01556
 824,82;10340,186;  257,570;38887,005;26,10086
 825,39;10293,263;  239,647;38619,828;26,19481
 825,95;10366,341;  261,878;38651,958;26,32050
 826,51;10272,034;  258,340;38153,550;26,42470
 827,08;10319,496;  278,417;38206,065;26,47430
 827,64;10285,035;  257,186;38029,657;26,54803
 828,20;10271,958;  242,956;37724,249;26,75735
 828,76;10300,267;  273,494;37724,072;26,77334
 829,32;10262,267;  275,879;37573,895;26,77458
 829,89;10253,191;  234,187;37475,256;26,90310
 830,45;10211,499;  253,572;37367,925;26,83039
 831,01;10263,884;  241,188;37192,517;27,12405
 831,57;10289,731;  252,188;37083,494;27,25275
 832,14;10226,501;  246,496;37046,163;27,11982
 832,70;10234,039;  233,111;36757,370;27,38160
 833,26;10195,348;  214,189;36663,808;27,38344
 833,82;10257,810;  238,343;36525,016;27,61197
 834,38;10321,580;  233,804;36584,069;27,75159
 834,95;10233,349;  234,882;36441,892;27,61473
 835,51;10256,042;  205,343;36314,946;27,83387
 836,07;10326,735;  243,190;36355,615;27,92265
 836,63;10305,812;  262,882;36381,668;27,80528
 837,19;10301,582;  247,421;36206,645;27,95989
 837,75;10238,429;  215,421;35942,391;28,05446
 838,32;10338,199;  258,268;36010,829;28,19359
 838,88;10356,353;  257,499;36027,575;28,23269
 839,44;10387,123;  251,499;35891,705;28,43873
 840,00;10401,046;  248,961;35852,067;28,51461
 840,56;10367,739;  224,422;35544,428;28,71833
 841,12;10389,124;  231,346;35616,482;28,70634
 841,68;10361,510;  218,654;35367,151;28,85715
 842,25;10428,356;  231,039;35432,358;28,96857
 842,81;10360,280;  224,193;35091,796;29,07021
 843,37;10383,050;  205,270;35087,311;29,17771
 843,93;10475,896;  234,885;35064,749;29,40296
 844,49;10525,512;  240,578;35030,880;29,56265
 845,05;10464,744;  202,040;34888,395;29,58715
 845,61;10552,282;  253,809;34860,756;29,75840
 846,17;10551,898;  233,040;34734,348;29,90860
 846,73;10532,976;  242,810;34729,863;29,83777
 847,29;10525,823;  215,733;34468,763;30,09979
 847,86;10585,823;  221,118;34521,817;30,21718
 848,42;10506,824;  208,580;34236,024;30,26452
 848,98;10561,747;  241,811;34193,924;30,39556
 849,54;10580,902;  228,965;34233,670;30,44266
 850,10;10601,594;  237,734;34080,108;30,62392
 850,66;10599,749;  216,734;33874,469;30,84882
 851,22;10552,211;  212,504;33864,061;30,72579
 851,78;10643,750;  268,043;33891,807;30,85826
 852,34;10607,673;  237,274;33624,938;31,06057
 852,90;10601,828;  226,889;33522,991;31,15962
 853,46;10553,136;  218,120;33292,583;31,24772
 854,02;10617,829;  234,274;33293,791;31,40867
 854,58;10538,060;  221,659;32997,075;31,47603
 855,14;10509,907;  221,736;32969,359;31,41654
 855,70;10514,677;  196,121;32805,721;31,64269
 856,26;10476,446;  242,275;32805,159;31,42895
 856,82;10498,678;  229,429;32524,905;31,79779
 857,38;10480,140;  246,276;32449,035;31,77946
 857,94;10493,525;  240,430;32373,473;31,90826
 858,50;10500,679;  249,661;32173,527;32,11083
 859,06;10419,372;  224,892;32001,965;32,08124
 859,62;10454,757;  242,969;31978,326;32,17795
 860,18;10457,066;  227,738;31700,841;32,50181
 860,74;10453,220;  195,431;31622,280;32,64021
 861,30;10403,220;  207,893;31446,333;32,63712
 861,86;10521,529;  260,124;31459,925;32,88933
 862,42;10403,760;  226,662;31272,133;32,78126
 862,98;10460,914;  253,047;31308,571;32,86973
 863,54;10399,223;  233,971;31118,394;32,91385
 864,10;10423,992;  223,202;31050,293;33,09034
 864,66;10374,762;  208,202;30911,809;33,11194
 865,22;10366,378;  230,510;30695,324;33,27074
 865,78;10355,455;  229,895;30639,608;33,29713
 866,34;10409,994;  226,664;30513,200;33,62329
 866,90;10367,841;  236,895;30375,023;33,61505
 867,45;10315,842;  230,818;30249,076;33,59630
 868,01;10299,535;  235,511;30036,976;33,77023
 868,57;10336,074;  226,434;29866,799;34,10768
 869,13;10307,459;  211,204;29736,391;34,19540
 869,69;10239,767;  215,512;29661,214;34,04319
 870,25;10309,767;  209,512;29513,113;34,46763
 870,81;10357,999;  218,974;29522,167;34,60041
 871,37;10288,538;  225,974;29387,682;34,50609
 871,93;10293,846;  233,436;29172,197;34,76448
 872,49;10293,385;  253,897;29027,866;34,89087
 873,04;10188,462;  212,513;28819,304;34,87266
 873,60;10157,155;  219,667;28684,666;34,91125
 874,16;10176,463;  236,206;28544,181;35,11469
 874,72;10154,540;  222,437;28517,873;35,10143
 875,28;10196,463;  226,052;28424,873;35,35755
 875,84;10226,771;  226,590;28321,873;35,59381
 876,40;10227,463;  220,513;28379,412;35,53743
 876,95;10267,387;  239,129;28235,104;35,82036
 877,51;10345,310;  260,052;28329,873;35,92918
 878,07;10312,233;  269,744;28231,488;35,91510
 878,63;10334,156;  228,283;28280,027;36,02583
 879,19;10461,617;  235,898;28263,258;36,48478
 879,75;10403,002;  226,590;28335,642;36,20333
 880,30;10466,617;  230,821;28199,027;36,59797
 880,86;10601,925;  267,821;28385,488;36,75306
 881,42;10645,617;  216,667;28452,104;36,93568
 881,98;10705,310;  240,898;28461,335;37,08097
 882,54;10776,156;  224,744;28577,719;37,21448
 883,09;10829,310;  238,513;28735,488;37,16463
 883,65;10870,771;  214,283;28770,335;37,31779
 884,21;11021,310;  256,206;28987,565;37,46813
 884,77;11024,463;  221,360;28983,104;37,56067
 885,32;11129,617;  230,975;29187,642;37,63776
 885,88;11269,463;  259,283;29262,335;37,96215
 886,44;11333,387;  237,513;29484,642;37,93833
 887,00;11329,540;  254,360;29404,412;37,99369
 887,56;11396,079;  231,437;29648,488;37,95296
 888,11;11456,079;  236,360;29552,412;38,27159
 888,67;11527,002;  264,206;29822,412;38,10379
 889,23;11593,156;  237,667;29833,873;38,36805
 889,79;11542,463;  214,360;29723,027;38,38907
 890,34;11585,310;  239,360;29613,258;38,62596
 890,90;11771,156;  302,975;29761,181;38,93034
 891,46;11679,617;  225,667;29652,104;38,92401
 892,01;11625,156;  252,975;29674,104;38,65311
 892,57;11629,002;  252,821;29550,335;38,82985
 893,13;11585,156;  233,283;29317,873;39,03054
 893,69;11555,617;  227,129;29388,719;38,84729
 894,24;11543,387;  236,667;29281,335;38,92873
 894,80;11500,463;  231,052;29059,104;39,09182
 895,36;11561,310;  230,129;28942,873;39,46394
 895,91;11437,079;  231,206;28773,719;39,26029
 896,47;11532,771;  258,975;28624,412;39,74484
 897,03;11407,848;  220,667;28386,335;39,71921
 897,58;11428,617;  238,821;28392,488;39,74543
 898,14;11382,079;  239,975;28132,565;39,94646
 898,70;11298,079;  209,667;27967,642;39,94676
 899,25;11375,694;  228,129;27958,719;40,19952
 899,81;11283,771;  250,590;27772,104;40,08930
 900,37;11266,310;  217,437;27573,104;40,38970
 900,92;11310,002;  240,283;27632,719;40,41159
 901,48;11294,540;  224,821;27419,488;40,70548
 902,03;11195,079;  223,513;27255,796;40,58690
 902,59;11271,002;  226,052;27215,412;40,92335
 903,15;11163,156;  256,052;26958,950;40,84614
 903,70;11128,310;  244,052;26687,181;41,16101
 904,26;11064,540;  217,744;26660,335;41,02017
 904,82;11111,156;  236,744;26648,488;41,17264
 905,37;11062,233;  240,052;26469,873;41,25907
 905,93;11009,925;  224,744;26360,104;41,26662
 906,48;10978,156;  239,667;26317,104;41,17923
 907,04;11045,079;  253,898;26173,181;41,63379
 907,60;10971,463;  224,975;25972,873;41,73734
 908,15;10961,463;  218,667;25883,104;41,85869
 908,71;10988,694;  250,513;25858,335;41,93321
 909,26;10916,002;  213,283;25706,950;41,98187
 909,82;10918,233;  257,437;25599,796;42,06710
 910,37;10956,463;  268,052;25525,796;42,31736
 910,93;10892,310;  219,744;25226,335;42,67901
 911,48;10812,387;  208,513;25048,181;42,68927
 912,04;10795,617;  216,590;24939,950;42,78960
 912,60;10859,387;  242,206;25022,488;42,84528
 913,15;10850,387;  235,975;24808,104;43,19696
 913,71;10751,156;  226,360;24581,642;43,21361
 914,26;10743,310;  204,360;24588,950;43,21971
 914,82;10820,463;  234,975;24467,873;43,68231
 915,37;10722,233;  226,898;24384,950;43,44446
 915,93;10725,310;  277,129;24278,258;43,53204
 916,48;10661,002;  216,283;24113,488;43,70686
 917,04;10679,617;  239,590;24033,642;43,87662
 917,59;10663,848;  254,129;23937,412;43,95387
 918,15;10516,387;  206,206;23718,181;43,85076
 918,70;10507,694;  226,283;23675,335;43,84575
 919,26;10503,694;  229,667;23483,565;44,18196
 919,81;10442,848;  212,975;23370,412;44,17533
 920,37;10479,387;  233,283;23301,335;44,41686
 920,92;10475,540;  241,975;23216,796;44,54252
 921,48;10363,540;  209,667;22934,027;44,68277
 922,03;10339,925;  218,437;23038,488;44,35349
 922,59;10317,233;  225,821;22863,565;44,57781
 923,14;10306,233;  223,975;22679,488;44,89881
 923,69;10361,310;  244,283;22620,642;45,21302
 924,25;10312,156;  248,513;22641,181;44,94169
 924,80;10229,617;  225,975;22275,796;45,36836
 925,36;10235,156;  219,744;22273,104;45,41445
 925,91;10203,463;  222,052;22124,873;45,57135
 926,47;10148,310;  209,667;22107,181;45,38708
 927,02;10231,387;  269,744;22038,335;45,76154
 927,57;10086,233;  220,975;21821,565;45,67124
 928,13;10115,156;  217,360;21776,642;45,90967
 928,68;10066,156;  221,283;21722,027;45,78852
 929,24; 9977,463;  192,821;21528,642;45,86016
 929,79; 9997,848;  216,052;21382,335;46,21405
 930,34; 9977,002;  216,513;21190,642;46,53585
 930,90; 9955,233;  215,898;21257,642;46,28578
 931,45; 9946,233;  233,513;21206,719;46,31013
 932,01; 9925,310;  231,360;21068,950;46,52145
 932,56; 9817,617;  244,513;20865,642;46,42376
 933,11; 9882,848;  256,437;20914,258;46,59936
 933,67; 9787,848;  216,360;20690,488;46,74919
 934,22; 9797,387;  221,283;20578,796;47,03965
 934,77; 9748,387;  251,360;20507,642;46,88435
 935,33; 9736,617;  233,975;20403,412;47,11407
 935,88; 9663,463;  226,590;20301,335;47,00868
 936,43; 9691,002;  218,975;20248,181;47,29108
 936,99; 9676,079;  225,206;20154,719;47,42149
 937,54; 9648,540;  212,513;19992,719;47,70439
 938,09; 9667,387;  235,360;19954,412;47,83205
 938,65; 9605,540;  230,437;19810,104;47,88183
 939,20; 9613,233;  204,129;19720,104;48,21232
 939,75; 9574,848;  217,360;19588,488;48,30637
 940,31; 9543,694;  214,590;19526,642;48,30716
 940,86; 9570,233;  228,744;19496,873;48,48155
 941,41; 9571,310;  300,129;19384,873;48,57902
 941,96; 9512,925;  217,590;19234,412;48,87954
 942,52; 9446,156;  218,898;19187,027;48,64611
 943,07; 9386,925;  200,283;19000,335;48,86498
 943,62; 9401,079;  210,513;18923,565;49,11313
 944,18; 9382,694;  204,667;18843,796;49,24064
 944,73; 9344,771;  220,129;18759,181;49,21849
 945,28; 9215,617;  200,898;18568,873;49,07846
 945,83; 9261,387;  224,975;18574,873;49,24502
 946,39; 9267,079;  214,590;18463,565;49,60546
 946,94; 9242,233;  239,052;18505,642;49,28769
 947,49; 9176,694;  225,590;18264,719;49,62049
 948,04; 9172,002;  248,513;18248,181;49,57585
 948,59; 9154,540;  237,129;18177,258;49,70651
 949,15; 9096,925;  208,898;18127,104;49,60333
 949,70; 9035,156;  211,283;18002,412;49,59704
 950,25; 9012,156;  243,590;17877,258;49,72627
 950,80; 9025,540;  190,129;17786,719;50,21093
 951,36; 8972,925;  188,975;17675,027;50,23404
 951,91; 8999,540;  236,129;17672,027;50,26074
 952,46; 8921,925;  207,821;17485,873;50,43453
 953,01; 8938,156;  238,283;17504,565;50,38649
 953,56; 8876,540;  203,975;17356,642;50,56103
 954,11; 8893,617;  221,283;17362,796;50,59258
 954,67; 8876,463;  214,898;17186,104;51,03683
 955,22; 8809,233;  202,129;17152,181;50,77922
 955,77; 8840,387;  238,437;17072,488;51,09851
 956,32; 8832,617;  267,283;16949,796;51,34319
 956,87; 8742,694;  207,821;16783,565;51,49013
 957,42; 8745,540;  210,206;16742,488;51,62829
 957,98; 8720,463;  209,821;16680,873;51,67030
 958,53; 8687,156;  240,437;16656,335;51,45451
 959,08; 8679,156;  216,283;16515,642;51,92151
 959,63; 8625,233;  214,283;16453,335;51,79459
 960,18; 8599,156;  226,206;16438,873;51,64449
 960,73; 8601,002;  214,513;16331,412;52,03538
 961,28; 8545,540;  206,975;16188,027;52,17783
 961,83; 8561,694;  241,667;16189,565;52,17005
 962,39; 8482,156;  200,129;16034,719;52,30339
 962,94; 8488,079;  231,360;16000,950;52,35849
 963,49; 8401,540;  214,744;15862,104;52,32062
 964,04; 8408,233;  232,052;15809,027;52,48889
 964,59; 8409,694;  199,975;15702,950;52,95577
 965,14; 8356,079;  234,206;15642,412;52,71135
 965,69; 8316,002;  220,129;15507,950;52,95636
 966,24; 8281,617;  213,437;15436,719;52,99896
 966,79; 8237,002;  231,667;15336,258;52,99935
 967,34; 8187,694;  199,052;15212,719;53,20913
 967,89; 8176,233;  209,590;15114,104;53,45121
 968,44; 8194,079;  226,206;15046,565;53,76302
 968,99; 8126,156;  229,052;14984,565;53,51968
 969,55; 8174,617;  227,283;14903,027;54,15286
 970,10; 8056,233;  230,821;14821,642;53,63243
 970,65; 8073,002;  233,513;14703,335;54,17820
 971,20; 8021,694;  210,052;14610,488;54,24587
 971,75; 7914,233;  201,206;14497,181;53,95244
 972,30; 7937,925;  225,898;14445,873;54,23376
 972,85; 7920,079;  206,513;14366,796;54,47324
 973,40; 7814,540;  204,513;14167,565;54,50117
 973,95; 7876,463;  224,360;14185,412;54,81037
 974,50; 7822,463;  248,360;14086,950;54,73176
 975,05; 7767,233;  224,206;13905,642;55,13330
 975,60; 7715,771;  227,667;13878,950;54,85275
 976,15; 7715,694;  216,052;13755,950;55,38921
 976,70; 7648,925;  212,744;13693,335;55,16213
 977,25; 7643,694;  228,667;13616,258;55,38732
 977,80; 7588,463;  212,975;13398,565;55,93597
 978,35; 7474,463;  231,590;13314,796;55,36008
 978,89; 7468,694;  194,667;13252,873;55,70464
 979,44; 7494,079;  216,744;13219,796;55,96636
 979,99; 7363,002;  206,129;13049,488;55,72431
 980,54; 7370,233;  236,513;12988,104;55,94376
 981,09; 7276,540;  238,437;12832,565;55,88401
 981,64; 7213,079;  231,360;12723,488;55,88895
 982,19; 7275,156;  253,667;12714,719;56,34748
 982,74; 7117,079;  233,667;12564,565;55,82247
 983,29; 7043,617;  209,052;12400,027;56,06250
 983,84; 7053,617;  228,513;12303,488;56,52272
 984,39; 7077,310;  277,437;12298,181;56,56782
 984,94; 6915,079;  198,129;12154,719;56,17780
 985,49; 6939,925;  248,667;12060,335;56,64956
 986,03; 6923,540;  239,206;11997,796;56,84639
 986,58; 6854,617;  271,360;11828,565;56,96236
 987,13; 6776,617;  228,898;11728,796;56,93719
 987,68; 6692,617;  239,437;11609,335;56,75672
 988,23; 6699,771;  231,821;11558,027;57,10606
 988,78; 6621,771;  215,283;11352,104;57,52529
 989,33; 6568,463;  235,898;11312,181;57,17230
 989,88; 6553,771;  261,975;11214,412;57,44654
 990,42; 6490,387;  220,667;11102,181;57,61808
 990,97; 6393,079;  220,283;10949,027;57,53512
 991,52; 6408,156;  248,975;10915,027;57,74565
 992,07; 6366,156;  256,667;10801,412;57,93871
 992,62; 6301,310;  241,052;10718,873;57,83891
 993,17; 6244,694;  244,590;10596,104;57,96354
 993,71; 6180,463;  236,744;10508,565;57,86432
 994,26; 6091,925;  220,667;10335,950;58,04344
 994,81; 6085,848;  246,129;10295,027;58,11303
 995,36; 5966,925;  235,052;10137,719;57,88211
 995,91; 5979,771;  228,821;10097,335;58,27575
 996,45; 5907,079;  232,513; 9939,719;58,45725
 997,00; 5858,617;  214,129; 9861,565;58,50765
 997,55; 5865,002;  235,513; 9794,335;58,89312
 998,10; 5768,925;  261,590; 9676,488;58,49596
 998,65; 5675,771;  223,975; 9595,027;58,17699
 999,19; 5620,310;  251,283; 9456,412;58,32647
 999,74; 5598,540;  278,975; 9402,104;58,30856
1000,29; 5562,156;  251,821; 9298,950;58,69635
1000,84; 5472,771;  231,744; 9158,950;58,70848
1001,38; 5456,848;  234,129; 9078,796;59,04936
1001,93; 5447,771;  242,437; 9040,335;59,16566
1002,48; 5332,540;  218,129; 8857,104;59,20160
1003,03; 5296,079;  236,052; 8843,104;58,78932
1003,57; 5254,925;  242,667; 8662,719;59,52763
1004,12; 5232,156;  267,052; 8632,565;59,35205
1004,67; 5147,233;  233,052; 8498,412;59,45514
1005,22; 5070,463;  223,437; 8366,565;59,52291
1005,76; 4999,310;  216,206; 8234,027;59,65591
1006,31; 5029,156;  247,283; 8191,796;60,19089
1006,86; 4936,771;  226,744; 8071,488;60,04054
1007,40; 4848,233;  218,590; 7946,335;59,90936
1007,95; 4829,310;  238,437; 7855,027;60,27465
1008,50; 4745,771;  234,360; 7722,488;60,24751
1009,04; 4674,694;  231,513; 7619,181;60,14322
1009,59; 4633,002;  247,744; 7518,027;60,31757
1010,14; 4545,002;  221,360; 7391,488;60,30076
1010,68; 4499,694;  234,283; 7255,873;60,74709
1011,23; 4480,002;  215,590; 7127,412;61,69737
1011,78; 4449,694;  240,129; 7102,796;61,34008
1012,32; 4380,310;  239,821; 7005,104;61,20200
1012,87; 4337,771;  259,206; 6943,412;61,01795
1013,42; 4283,310;  210,360; 6846,796;61,37254
1013,96; 4314,617;  261,360; 6832,565;61,68210
1014,51; 4223,694;  198,667; 6706,412;61,84980
1015,06; 4216,694;  190,360; 6751,488;61,36649
1015,60; 4319,387;  268,975; 6764,488;62,35706
1016,15; 4225,540;  215,052; 6756,335;61,31043
1016,69; 4272,925;  231,437; 6763,719;61,86947
1017,24; 4272,233;  196,283; 6787,796;61,83633
1017,79; 4335,848;  245,744; 6832,796;62,09309
1018,33; 4294,617;  220,821; 6814,104;61,78707
1018,88; 4394,387;  237,744; 6866,104;62,70997
1019,42; 4386,848;  221,437; 6870,104;62,65032
1019,97; 4362,694;  215,437; 6884,873;62,18303
1020,51; 4409,233;  248,206; 6918,335;62,38301
1021,06; 4370,233;  204,590; 6930,642;61,93295
1021,61; 4376,694;  187,898; 6853,258;62,84426
1022,15; 4341,310;  193,437; 6810,796;62,68169
1022,70; 4355,233;  225,206; 6826,950;62,55963
1023,24; 4350,617;  213,975; 6803,335;62,77761
1023,79; 4333,079;  222,898; 6735,258;63,11354
1024,33; 4277,617;  221,513; 6661,950;62,97871
1024,88; 4241,079;  233,437; 6588,873;63,05849
1025,42; 4184,310;  224,360; 6499,950;63,10084
1025,97; 4143,156;  212,898; 6359,719;63,93968
1026,51; 4035,233;  180,360; 6257,873;63,42846
1027,06; 4009,156;  212,129; 6224,027;63,15854
1027,60; 4000,233;  227,437; 6133,565;63,87934
1028,15; 3942,233;  232,052; 6013,565;64,17318
1028,69; 3853,079;  191,206; 5878,642;64,38530
1029,24; 3804,310;  211,129; 5852,181;63,69700
1029,78; 3742,694;  207,437; 5700,258;64,36142
1030,33; 3669,156;  193,360; 5620,796;64,04121
1030,87; 3633,925;  217,744; 5544,412;64,13355
1031,42; 3583,233;  199,513; 5511,565;63,69891
1031,96; 3550,925;  219,206; 5417,181;64,09648
1032,51; 3478,771;  208,898; 5315,412;64,03338
1033,05; 3463,002;  224,821; 5261,565;64,29115
1033,60; 3393,002;  180,590; 5120,796;65,02587
1034,14; 3366,617;  219,206; 5065,642;64,94280
1034,69; 3330,463;  212,898; 5014,873;64,92257
1035,23; 3290,310;  221,437; 4951,873;64,87505
1035,77; 3248,310;  215,590; 4875,335;65,08338
1036,32; 3197,540;  191,206; 4794,950;65,30195
1036,86; 3175,925;  214,667; 4770,719;64,99614
1037,41; 3135,310;  224,360; 4664,796;65,55549
1037,95; 3071,617;  185,513; 4588,642;65,54666
1038,50; 3045,925;  200,283; 4514,027;65,96688
1039,04; 3030,310;  232,667; 4480,642;65,85826
1039,58; 2978,694;  198,052; 4391,950;66,30210
1040,13; 2926,463;  209,821; 4376,412;65,20061
1040,67; 2927,079;  246,283; 4344,258;65,41758
1041,21; 2893,848;  239,975; 4268,412;65,87849
1041,76; 2823,002;  202,590; 4130,027;66,72066
1042,30; 2790,771;  205,360; 4121,488;66,01957
1042,85; 2738,925;  207,360; 4036,796;66,10804
1043,39; 2699,540;  202,052; 3977,719;66,14694
1043,93; 2682,617;  230,129; 3965,719;65,65196
1044,48; 2641,694;  225,744; 3904,335;65,67597
1045,02; 2610,771;  209,590; 3804,258;66,79841
1045,56; 2597,387;  238,744; 3770,642;66,78115
1046,11; 2547,463;  230,590; 3755,873;65,72163
1046,65; 2501,540;  220,206; 3681,719;65,90570
1047,19; 2460,310;  204,975; 3618,412;66,07226
1047,74; 2419,002;  194,667; 3528,873;66,71258
1048,28; 2373,771;  223,206; 3535,412;64,92850
1048,82; 2356,771;  244,744; 3506,181;64,75757
1049,37; 2348,310;  223,975; 3444,642;65,95946
1049,91; 2310,156;  217,821; 3417,335;65,39540
1050,45; 2295,463;  227,590; 3377,719;65,64408
1050,99; 2260,463;  216,744; 3306,873;66,13702
1051,54; 2211,002;  210,975; 3262,335;65,54543
1052,08; 2222,156;  234,590; 3226,796;66,42476
1052,62; 2187,310;  239,283; 3178,642;66,27385
1053,16; 2136,310;  217,437; 3109,335;66,35341
1053,71; 2124,002;  225,667; 3088,027;66,32062
1054,25; 2120,079;  234,129; 3042,104;67,16406
1054,79; 2069,002;  223,821; 2991,258;66,67473
1055,33; 2018,463;  194,975; 2892,873;67,58923
1055,88; 2023,771;  228,590; 2926,796;66,53239
1056,42; 2007,771;  236,821; 2891,027;66,72241
1056,96; 1981,617;  236,898; 2825,873;67,39035
1057,50; 1954,233;  228,129; 2797,796;67,17227
1058,05; 1920,925;  220,052; 2745,796;67,34146
1058,59; 1928,694;  232,590; 2715,719;68,30511
1059,13; 1848,848;  206,206; 2624,642;67,92166
1059,67; 1875,156;  222,052; 2633,719;68,54610
1060,21; 1829,233;  227,437; 2581,181;68,05311
1060,76; 1813,925;  236,667; 2548,950;68,21215
1061,30; 1805,233;  250,513; 2537,565;67,97918
1061,84; 1755,848;  233,513; 2464,181;68,24570
1062,38; 1720,156;  214,821; 2407,796;68,64349
1062,92; 1765,771;  259,513; 2438,796;69,11713
1063,46; 1718,925;  238,206; 2377,873;69,20325
1064,01; 1673,848;  223,590; 2308,719;69,55243
1064,55; 1682,156;  229,437; 2278,181;70,90779
1065,09; 1591,848;  196,744; 2234,027;68,47866
1065,63; 1630,848;  258,898; 2275,642;68,02796
1066,17; 1641,463;  254,975; 2250,642;69,47493
1066,71; 1596,463;  246,667; 2217,719;68,48100
1067,25; 1553,310;  230,206; 2156,488;68,68690
1067,80; 1564,387;  243,360; 2149,719;69,29579
1068,34; 1552,848;  260,052; 2148,950;68,44182
1068,88; 1498,925;  225,283; 2081,258;68,62389
1069,42; 1539,310;  254,437; 2088,181;70,06828
1069,96; 1472,771;  238,590; 2014,565;69,49314
1070,50; 1524,848;  254,898; 2044,258;70,97232
1071,04; 1453,925;  217,898; 1960,027;70,94923
1071,58; 1432,002;  223,667; 1952,335;69,89978
1072,12; 1424,925;  229,283; 1930,642;70,27570
1072,66; 1424,387;  229,052; 1914,104;70,93755
1073,21; 1400,002;  240,744; 1917,950;69,11839
1073,75; 1391,925;  245,437; 1871,565;70,50416
1074,29; 1377,694;  234,283; 1851,258;70,71300
1074,83; 1364,002;  257,283; 1843,642;69,76471
1075,37; 1344,540;  249,129; 1828,412;69,36133
1075,91; 1324,233;  242,744; 1790,104;69,89251
1076,45; 1311,079;  235,590; 1773,950;69,91138
1076,99; 1302,233;  249,898; 1745,335;70,36973
1077,53; 1262,463;  220,052; 1713,488;69,79952
1078,07; 1274,310;  228,437; 1713,950;70,40482
1078,61; 1248,540;  234,360; 1670,258;70,63041
1079,15; 1239,156;  238,206; 1639,412;71,43490
1079,69; 1241,156;  225,744; 1633,027;72,15406
1080,23; 1229,848;  254,129; 1633,796;70,72134
1080,77; 1247,540;  267,052; 1646,104;71,09873
1081,31; 1169,771;  225,821; 1581,642;69,62201
1081,85; 1193,540;  249,283; 1560,950;71,98912
1082,39; 1175,694;  227,437; 1537,719;72,37047
1082,93; 1164,387;  246,975; 1544,412;70,70955
1083,47; 1134,540;  230,590; 1494,335;71,52951
1084,01; 1142,156;  247,590; 1503,719;71,21605
1084,55; 1123,463;  227,590; 1449,104;73,34124
1085,09; 1123,771;  252,744; 1463,412;71,94602
1085,63; 1108,463;  239,206; 1461,027;71,14443
1086,17; 1078,771;  228,129; 1410,642;71,93511
1086,71; 1072,079;  225,590; 1403,950;71,83617
1087,24; 1105,156;  251,821; 1425,873;72,68287
1087,78; 1065,540;  247,513; 1391,873;71,48338
1088,32; 1021,925;  229,052; 1347,181;70,91071
1088,86; 1046,233;  251,975; 1361,796;71,56628
1089,40; 1015,540;  245,744; 1326,104;71,25370
1089,94;  982,233;  219,129; 1296,719;70,81576
1090,48;  997,310;  254,744; 1307,642;70,52586
1091,02;  994,310;  249,667; 1296,796;71,11277
1091,56;  976,617;  248,667; 1270,873;71,21365
1092,10;  934,310;  225,744; 1243,796;69,60012
1092,63;  983,233;  262,821; 1270,335;71,50391
1093,17;  954,079;  257,744; 1241,488;70,78411
1093,71;  924,233;  228,052; 1212,488;70,71870
1094,25;  937,310;  260,821; 1198,642;72,13406
1094,79;  918,387;  236,206; 1177,181;72,49723
1095,33;  915,387;  235,744; 1167,642;72,93097
1095,87;  905,771;  229,667; 1172,104;71,73999
1096,40;  882,233;  218,437; 1133,258;72,56021
1096,94;  879,463;  242,437; 1127,027;72,01377
1097,48;  873,463;  245,283; 1121,258;71,71218
1098,02;  855,233;  233,129; 1089,796;72,61907
1098,56;  839,463;  203,437; 1066,027;73,73453
1099,10;  820,463;  219,206; 1061,412;71,39083
1099,63;  821,002;  203,821; 1055,335;72,48045
1100,17;  827,002;  247,744; 1059,642;71,34611
1100,71;  853,310;  261,667; 1069,719;73,21835

