
Integration time [ms]: 120,000
Averaging Nr. [scans]: 13
Smoothing Nr. [pixels]: 0
Data measured with spectrometer [name]: 2009305U1
Wave   ;Sample   ;Dark     ;Reference;Reflectance
[nm]   ;[counts] ;[counts] ;[counts] ;[%]

 175,72;  195,395;  184,295;  197,827;82,03015
 176,32;  207,438;  214,370;  203,218; 0,00000
 176,92;  237,632;  226,679;  235,896;118,83285
 177,52;  241,391;  240,910;  250,332; 5,10507
 178,12;  228,272;  216,986;  204,819; 0,00000
 178,72;  248,561;  243,524;  236,057; 0,00000
 179,32;  242,271;  243,370;  224,940; 0,00000
 179,92;  235,087;  243,217;  229,841; 0,00000
 180,52;  234,496;  225,450;  240,248;61,13083
 181,12;  230,576;  237,140;  229,870; 0,00000
 181,73;  255,206;  257,064;  249,292; 0,00000
 182,33;  307,461;  300,295;  311,285;65,20973
 182,93;  253,493;  244,987;  256,834;71,80180
 183,53;  226,929;  222,678;  218,471; 0,00000
 184,13;  224,061;  224,601;  211,837; 0,00000
 184,73;  251,311;  246,985;  256,064;47,65058
 185,33;  252,083;  213,130;  330,659;33,14354
 185,93;  259,735;  223,206;  353,080;28,12625
 186,53;  279,768;  234,514;  367,087;34,13530
 187,13;  303,554;  264,669;  410,813;26,60739
 187,73;  270,262;  220,052;  354,845;37,24976
 188,33;  263,792;  230,975;  353,340;26,81945
 188,93;  274,662;  230,050;  379,969;29,75770
 189,53;  284,731;  237,740;  379,819;33,07374
 190,13;  307,299;  264,584;  409,056;29,56651
 190,73;  256,387;  205,278;  349,020;35,55588
 191,34;  285,449;  255,280;  379,229;24,34009
 191,94;  261,822;  221,512;  359,021;29,31392
 192,54;  276,438;  246,055;  399,315;19,82482
 193,14;  274,899;  247,054;  378,659;21,15804
 193,74;  262,704;  238,130;  381,571;17,13125
 194,34;  261,851;  232,131;  383,271;19,66414
 194,94;  235,770;  212,361;  353,007;16,64391
 195,54;  218,520;  180,745;  336,212;24,29746
 196,14;  249,162;  205,593;  361,941;27,86713
 196,74;  232,491;  205,207;  347,908;19,11952
 197,34;  218,147;  183,593;  344,264;21,50592
 197,94;  254,093;  212,515;  370,868;26,25646
 198,54;  246,073;  215,285;  382,971;18,36040
 199,14;  248,806;  203,440;  392,451;24,00210
 199,74;  234,473;  199,901;  383,564;18,82360
 200,34;  232,373;  183,594;  400,590;22,47923
 200,94;  258,862;  211,516;  423,952;22,28725
 201,54;  241,560;  200,055;  446,689;16,82861
 202,14;  253,595;  196,210;  478,861;20,30263
 202,74;  252,947;  192,978;  483,579;20,63610
 203,34;  244,102;  187,672;  504,213;17,82725
 203,94;  212,776;  158,056;  517,737;15,21361
 204,54;  277,312;  228,208;  600,447;13,19168
 205,14;  253,024;  184,055;  623,865;15,68158
 205,74;  291,614;  226,825;  716,986;13,21792
 206,34;  257,915;  194,440;  740,392;11,62650
 206,94;  289,810;  202,517;  804,099;14,51064
 207,54;  261,004;  175,979;  831,022;12,98015
 208,14;  294,199;  197,517;  948,616;12,87199
 208,74;  294,498;  194,824; 1013,495;12,17504
 209,34;  297,141;  198,440; 1109,964;10,82812
 209,94;  336,563;  210,594; 1218,612;12,49675
 210,54;  335,240;  204,902; 1334,803;11,53530
 211,14;  356,229;  204,978; 1439,231;12,25446
 211,73;  369,110;  209,363; 1548,033;11,93329
 212,33;  391,119;  203,901; 1686,146;12,63068
 212,93;  380,549;  196,978; 1784,114;11,56614
 213,53;  367,473;  167,440; 1836,377;11,98563
 214,13;  399,659;  181,057; 1934,305;12,46842
 214,73;  387,826;  182,056; 1955,553;11,60251
 215,33;  391,256;  158,825; 1998,304;12,63569
 215,93;  424,716;  184,748; 2108,971;12,47090
 216,53;  393,279;  145,978; 2218,070;11,93482
 217,13;  487,740;  198,825; 2427,407;12,96406
 217,73;  496,666;  183,287; 2687,121;12,51595
 218,33;  508,302;  150,288; 2895,620;13,04084
 218,93;  569,318;  164,366; 3200,675;13,33700
 219,53;  628,815;  179,211; 3492,118;13,57130
 220,13;  642,947;  143,442; 3827,770;13,55756
 220,73;  715,589;  180,286; 4235,916;13,19902
 221,32;  814,036;  171,132; 4657,033;14,33166
 221,92;  860,241;  180,518; 5094,689;13,83188
 222,52;  902,807;  154,672; 5531,414;13,91429
 223,12;  987,039;  167,133; 6014,909;14,02082
 223,72; 1053,552;  186,902; 6441,715;13,85573
 224,32; 1132,656;  178,441; 6839,074;14,32619
 224,92; 1186,476;  172,056; 7167,902;14,50032
 225,52; 1245,477;  184,132; 7617,290;14,27852
 226,12; 1282,829;  186,671; 7956,323;14,10820
 226,72; 1337,713;  156,902; 8313,455;14,47683
 227,31; 1396,302;  145,517; 8745,590;14,54389
 227,91; 1494,130;  180,825; 9216,982;14,53389
 228,51; 1565,351;  171,593; 9563,212;14,84044
 229,11; 1621,109;  163,902;10099,008;14,66726
 229,71; 1688,010;  165,363;10411,443;14,86077
 230,31; 1746,531;  156,980;10827,400;14,89680
 230,91; 1816,590;  149,362;11244,271;15,02696
 231,51; 1848,101;  156,364;11547,641;14,85117
 232,10; 1954,558;  152,980;11871,946;15,37319
 232,70; 2013,159;  166,900;12211,425;15,32862
 233,30; 2081,331;  185,671;12495,092;15,40007
 233,90; 2111,843;  163,825;12632,843;15,62287
 234,50; 2135,088;  171,056;12739,901;15,62619
 235,10; 2178,015;  165,595;12845,055;15,87149
 235,70; 2199,834;  179,209;12911,744;15,86978
 236,29; 2228,305;  187,132;12930,451;16,01759
 236,89; 2194,399;  164,901;12878,370;15,96337
 237,49; 2225,739;  182,133;12774,044;16,22952
 238,09; 2177,838;  166,979;12520,469;16,27766
 238,69; 2213,368;  190,823;12205,593;16,83382
 239,29; 2121,888;  159,671;11880,440;16,74137
 239,89; 2078,655;  180,285;11544,773;16,70440
 240,48; 2013,582;  167,440;11175,374;16,77101
 241,08; 1976,862;  165,902;10767,850;17,08139
 241,68; 1943,647;  191,825;10447,975;17,08070
 242,28; 1835,650;  158,594;10063,107;16,93224
 242,88; 1834,634;  189,826; 9767,110;17,17405
 243,48; 1791,995;  200,517; 9498,623;17,11615
 244,07; 1739,412;  182,594; 9211,194;17,24318
 244,67; 1711,071;  180,440; 9046,766;17,26342
 245,27; 1688,033;  181,901; 8874,879;17,32585
 245,87; 1674,991;  192,057; 8875,004;17,07870
 246,47; 1659,213;  179,517; 8785,359;17,19409
 247,06; 1638,106;  172,133; 8792,469;17,00599
 247,66; 1661,942;  178,363; 8906,597;16,99747
 248,26; 1702,842;  193,978; 9052,033;17,03381
 248,86; 1721,085;  184,670; 9272,355;16,90656
 249,46; 1716,588;  140,441; 9457,066;16,91758
 250,05; 1841,094;  182,748; 9876,916;17,10664
 250,65; 1856,852;  162,516;10290,465;16,72931
 251,25; 1927,925;  169,748;10800,132;16,53917
 251,85; 2036,463;  169,978;11396,861;16,62514
 252,44; 2122,472;  140,363;12093,784;16,58194
 253,04; 2257,205;  186,594;12820,762;16,38898
 253,64; 2362,581;  140,516;13630,311;16,47219
 254,24; 2500,196;  183,671;14600,418;16,06829
 254,84; 2646,588;  166,518;15538,297;16,13392
 255,43; 2819,665;  182,440;16577,597;16,08539
 256,03; 2945,352;  166,747;17554,421;15,98031
 256,63; 3145,450;  177,055;18707,428;16,01908
 257,23; 3270,950;  166,824;19583,703;15,98674
 257,82; 3422,469;  178,208;20535,007;15,93699
 258,42; 3512,427;  143,746;21378,040;15,86434
 259,02; 3715,294;  174,132;22303,139;16,00235
 259,62; 3800,963;  169,746;22953,842;15,93751
 260,21; 3902,023;  170,286;23373,909;16,08256
 260,81; 3980,957;  177,287;23901,634;16,03277
 261,41; 4040,929;  156,516;24311,688;16,08108
 262,01; 4137,511;  203,823;24746,197;16,02815
 262,60; 4134,643;  164,593;24958,319;16,01232
 263,20; 4250,046;  163,286;25316,718;16,24733
 263,80; 4271,985;  193,438;25480,421;16,12904
 264,40; 4278,154;  156,284;25588,227;16,20745
 264,99; 4340,292;  179,592;25805,311;16,23642
 265,59; 4348,743;  171,283;25922,201;16,22257
 266,19; 4364,498;  163,053;25947,534;16,29447
 266,78; 4470,274;  198,284;26206,252;16,42570
 267,38; 4435,976;  168,284;26133,399;16,43625
 267,98; 4462,070;  158,592;26068,556;16,60936
 268,58; 4461,412;  176,130;26086,534;16,53885
 269,17; 4474,801;  171,437;26104,131;16,59436
 269,77; 4481,781;  180,900;25874,579;16,73906
 270,37; 4442,689;  150,438;25739,457;16,77380
 270,96; 4442,610;  201,823;25557,498;16,72520
 271,56; 4428,424;  165,208;25347,487;16,92943
 272,16; 4423,941;  168,439;25178,472;17,01518
 272,75; 4414,749;  168,977;25026,209;17,08063
 273,35; 4416,239;  178,900;25041,886;17,04276
 273,95; 4425,263;  169,054;24932,476;17,18748
 274,54; 4446,030;  154,979;25007,139;17,26631
 275,14; 4552,175;  184,362;25444,989;17,29099
 275,74; 4565,672;  143,362;25424,154;17,49277
 276,33; 4698,819;  180,824;25957,897;17,52718
 276,93; 4770,878;  177,517;26382,491;17,52858
 277,53; 4873,049;  179,286;26841,795;17,60436
 278,12; 5045,631;  162,362;27369,205;17,94868
 278,72; 5192,420;  186,055;27954,253;18,02913
 279,32; 5311,867;  165,593;28613,941;18,08989
 279,91; 5521,788;  157,055;29348,821;18,37756
 280,51; 5677,908;  176,594;29967,436;18,46646
 281,11; 5853,147;  183,132;30763,341;18,54145
 281,70; 5978,095;  153,901;31077,040;18,83442
 282,30; 6197,270;  154,901;31781,102;19,10558
 282,90; 6365,078;  159,901;32184,575;19,37624
 283,49; 6559,752;  186,362;32664,692;19,62352
 284,09; 6708,042;  195,978;33202,256;19,72978
 284,69; 6903,239;  193,286;33508,839;20,14060
 285,28; 7071,914;  190,824;33869,912;20,43134
 285,88; 7226,979;  203,669;34070,714;20,73789
 286,47; 7359,872;  168,208;34116,308;21,18429
 287,07; 7510,970;  205,132;34231,136;21,47134
 287,67; 7742,149;  189,594;34321,469;22,12757
 288,26; 7881,892;  166,440;34320,234;22,59032
 288,86; 8148,312;  162,978;34296,553;23,39437
 289,46; 8356,353;  176,824;34525,048;23,81354
 290,05; 8570,874;  163,055;34572,326;24,43475
 290,65; 8893,358;  172,439;34708,084;25,25194
 291,24; 9176,612;  183,901;34922,725;25,88663
 291,84; 9475,527;  192,901;35024,352;26,65013
 292,44; 9745,894;  166,979;35126,077;27,40035
 293,03;10108,368;  225,517;35254,139;28,21365
 293,63;10313,898;  178,285;35440,711;28,74338
 294,22;10561,929;  197,439;35606,619;29,27063
 294,82;10697,705;  176,900;35589,791;29,70897
 295,41;10882,018;  160,362;35295,810;30,51521
 296,01;11039,234;  214,054;35187,567;30,95251
 296,61;11044,547;  175,286;34875,487;31,32334
 297,20;11069,248;  184,977;34411,187;31,80098
 297,80;11151,632;  186,056;34292,246;32,15128
 298,39;11097,386;  149,747;33772,784;32,55993
 298,99;11081,559;  174,516;33673,670;32,55916
 299,58;11048,327;  185,440;33550,037;32,55812
 300,18;11163,067;  197,902;33349,139;33,07619
 300,78;11005,152;  165,209;32991,923;33,02171
 301,37;11090,457;  195,361;32963,293;33,24926
 301,97;11094,789;  188,363;32983,106;33,25663
 302,56;11127,038;  174,208;32992,322;33,37434
 303,16;11061,561;  160,362;32874,154;33,32295
 303,75;11075,962;  173,825;32935,769;33,27683
 304,35;11178,436;  172,210;33155,594;33,36900
 304,94;11220,187;  178,516;33171,055;33,46717
 305,54;11208,036;  201,363;33102,648;33,45363
 306,13;11187,860;  148,902;33002,099;33,60086
 306,73;11064,394;  169,748;32694,319;33,49666
 307,33;11074,943;  192,517;32634,839;33,54392
 307,92;11080,471;  173,594;32825,158;33,40384
 308,52;11175,215;  167,516;33296,648;33,22664
 309,11;11383,823;  167,592;33765,516;33,38370
 309,71;11432,755;  147,515;33981,399;33,35485
 310,30;11453,508;  156,517;34257,652;33,12791
 310,90;11617,355;  182,824;34515,883;33,30472
 311,49;11590,828;  171,593;34722,128;33,05082
 312,09;11650,323;  147,594;34879,850;33,11829
 312,68;11792,703;  214,055;35222,454;33,07391
 313,28;11730,317;  152,209;35442,388;32,80830
 313,87;11747,559;  140,747;35588,425;32,74350
 314,47;11796,030;  165,362;35807,003;32,63225
 315,06;11753,151;  149,594;36000,703;32,36596
 315,66;11802,400;  158,594;36164,542;32,33856
 316,25;11688,319;  143,977;36048,139;32,15321
 316,85;11642,311;  140,748;36223,780;31,87527
 317,44;11683,029;  163,592;36375,223;31,81143
 318,04;11597,642;  133,131;36306,670;31,69309
 318,63;11494,561;  142,825;36398,751;31,31001
 319,22;11468,755;  175,670;36628,384;30,98009
 319,82;11409,683;  167,132;36698,242;30,77528
 320,41;11304,179;  180,593;36505,044;30,62286
 321,01;11255,591;  164,902;36727,751;30,33322
 321,60;11123,235;  161,824;36660,883;30,03204
 322,20;11070,099;  163,286;36746,491;29,81372
 322,79;11029,394;  190,901;36793,982;29,61088
 323,39;10981,076;  154,287;36744,063;29,58966
 323,98;10789,959;  149,748;36728,802;29,08826
 324,58;10723,304;  161,670;36565,773;29,01221
 325,17;10609,345;  177,285;36335,674;28,85101
 325,76;10505,251;  189,286;36205,908;28,64223
 326,36;10259,629;  160,363;35731,377;28,39184
 326,95;10162,658;  186,286;35447,619;28,29267
 327,55; 9927,836;  151,516;35084,187;27,98618
 328,14; 9765,646;  164,517;34533,095;27,93578
 328,74; 9602,294;  193,131;34246,824;27,63037
 329,33; 9418,783;  177,286;33765,476;27,51413
 329,92; 9175,452;  153,361;33152,311;27,34054
 330,52; 8927,467;  167,056;32528,495;27,07053
 331,11; 8718,094;  166,901;32082,469;26,79317
 331,71; 8531,404;  170,132;31485,282;26,70040
 332,30; 8312,110;  181,824;31033,978;26,35241
 332,89; 8147,333;  197,748;30421,414;26,30252
 333,49; 7948,594;  180,132;29866,897;26,16810
 334,08; 7757,208;  169,439;29472,601;25,89403
 334,68; 7604,093;  171,670;29057,282;25,73054
 335,27; 7474,084;  171,210;28651,099;25,64222
 335,86; 7315,863;  211,439;28407,853;25,19620
 336,46; 7203,021;  189,287;28198,817;25,04053
 337,05; 7101,683;  167,132;27914,989;24,99130
 337,65; 7004,644;  158,209;27835,714;24,73646
 338,24; 7007,613;  211,671;27792,121;24,64043
 338,83; 6899,229;  188,363;27679,637;24,41089
 339,43; 6839,024;  167,977;27600,626;24,31791
 340,02; 6835,203;  171,670;27526,557;24,35957
 340,61; 6751,599;  144,747;27517,117;24,13694
 341,21; 6736,602;  204,977;27578,901;23,86075
 341,80; 6725,721;  173,208;27446,505;24,02538
 342,40; 6695,083;  181,210;27575,088;23,77857
 342,99; 6693,333;  168,132;27764,568;23,64509
 343,58; 6701,706;  173,825;27831,015;23,60284
 344,18; 6675,335;  181,209;27956,557;23,38090
 344,77; 6726,702;  156,362;28303,414;23,34291
 345,36; 6746,735;  151,747;28636,850;23,15241
 345,96; 6820,501;  189,978;28914,802;23,08290
 346,55; 6855,166;  166,056;29104,704;23,11480
 347,14; 6855,122;  146,902;29529,308;22,83074
 347,74; 6956,599;  140,749;29922,693;22,88585
 348,33; 7102,020;  162,057;30594,924;22,80417
 348,92; 7239,822;  173,288;31239,689;22,74655
 349,52; 7303,742;  140,596;31731,766;22,67452
 350,11; 7342,688;  169,054;31934,179;22,58337
 350,70; 7311,407;  168,824;32034,282;22,41481
 351,29; 7221,402;  145,207;31703,695;22,42248
 351,89; 7198,810;  168,823;31755,084;22,25647
 352,48; 7184,983;  133,824;31716,755;22,32585
 353,07; 7193,854;  170,979;31680,616;22,28802
 353,67; 7153,387;  177,827;31566,510;22,22317
 354,26; 7101,673;  164,902;31349,663;22,24411
 354,85; 7005,888;  170,517;31122,539;22,08376
 355,45; 6978,527;  147,439;30946,868;22,17927
 356,04; 6944,868;  168,441;30854,389;22,08316
 356,63; 6938,749;  191,901;30606,183;22,18316
 357,22; 6887,496;  178,976;30532,776;22,10109
 357,82; 6813,628;  176,284;30253,274;22,06785
 358,41; 6819,456;  178,901;30189,604;22,12729
 359,00; 6779,652;  157,285;29990,366;22,19807
 359,60; 6728,600;  173,594;29884,920;22,06232
 360,19; 6726,087;  173,056;29680,967;22,20771
 360,78; 6732,311;  176,978;29623,542;22,26179
 361,37; 6656,285;  174,670;29305,271;22,25019
 361,97; 6653,916;  174,901;29251,571;22,28252
 362,56; 6582,162;  156,362;28891,787;22,36195
 363,15; 6557,425;  186,285;28685,113;22,35580
 363,74; 6468,787;  180,669;28221,549;22,42482
 364,34; 6426,819;  202,977;27871,436;22,49436
 364,93; 6285,661;  151,516;27498,227;22,43102
 365,52; 6239,940;  143,978;27014,777;22,68620
 366,11; 6241,358;  164,285;26756,337;22,85297
 366,71; 6126,217;  162,285;26257,077;22,85487
 367,30; 6107,325;  173,901;25967,293;23,00366
 367,89; 6060,285;  193,132;25702,454;23,00003
 368,48; 6026,429;  173,669;25454,546;23,15094
 369,07; 5948,637;  174,209;25000,898;23,25896
 369,67; 5888,815;  190,362;24715,787;23,23488
 370,26; 5869,587;  171,594;24476,894;23,44342
 370,85; 5785,850;  172,670;24129,037;23,43085
 371,44; 5790,685;  161,824;23912,824;23,69947
 372,03; 5739,986;  144,977;23667,022;23,78623
 372,63; 5722,492;  133,055;23322,396;24,10348
 373,22; 5670,957;  158,824;23081,220;24,04693
 373,81; 5581,452;  151,285;22752,374;24,02613
 374,40; 5565,967;  167,594;22517,835;24,15353
 374,99; 5574,745;  158,670;22259,875;24,50579
 375,59; 5521,030;  150,209;21937,832;24,65079
 376,18; 5520,015;  188,132;21922,073;24,53252
 376,77; 5507,686;  171,209;21540,934;24,97214
 377,36; 5503,427;  193,132;21607,432;24,79789
 377,95; 5492,320;  172,208;21250,304;25,24000
 378,55; 5451,284;  158,286;21130,059;25,23867
 379,14; 5488,875;  177,978;21056,077;25,43765
 379,73; 5525,192;  169,593;20937,146;25,78830
 380,32; 5537,852;  189,055;21018,388;25,67916
 380,91; 5531,955;  159,977;20825,454;25,99494
 381,50; 5561,137;  174,516;20808,286;26,10585
 382,10; 5528,391;  146,670;20658,004;26,23779
 382,69; 5571,683;  143,747;20707,549;26,39558
 383,28; 5637,600;  180,131;20610,989;26,71189
 383,87; 5570,728;  166,516;20470,509;26,61650
 384,46; 5601,898;  147,669;20359,472;26,98537
 385,05; 5686,124;  190,362;20436,930;27,14417
 385,64; 5655,742;  174,131;20410,798;27,08752
 386,24; 5719,487;  146,284;20377,784;27,54716
 386,83; 5767,088;  178,669;20427,340;27,59894
 387,42; 5868,307;  186,901;20495,333;27,97560
 388,01; 5934,464;  178,053;20840,835;27,85884
 388,60; 6056,912;  172,977;20987,300;28,26868
 389,19; 6121,517;  147,514;21203,105;28,37253
 389,78; 6284,520;  167,052;21483,589;28,69822
 390,37; 6477,752;  209,899;21952,014;28,82816
 390,96; 6498,628;  183,669;22077,604;28,84342
 391,56; 6579,475;  176,359;22219,677;29,04788
 392,15; 6696,496;  153,822;22464,999;29,32465
 392,74; 6765,870;  142,358;22689,519;29,37626
 393,33; 6897,281;  151,282;22946,061;29,59449
 393,92; 7098,696;  169,281;23452,229;29,76176
 394,51; 7141,498;  147,590;23615,113;29,80250
 395,10; 7325,866;  190,741;23826,394;30,18797
 395,69; 7370,767;  167,357;23919,584;30,32730
 396,28; 7417,345;  180,740;24011,599;30,36653
 396,87; 7515,158;  178,662;24071,694;30,70559
 397,46; 7653,003;  175,661;24241,631;31,07019
 398,06; 7725,179;  196,121;24465,224;31,02322
 398,65; 7773,063;  180,272;24479,366;31,24722
 399,24; 7927,940;  191,272;24716,729;31,54546
 399,83; 7941,907;  161,268;24731,493;31,66694
 400,42; 8087,624;  198,495;24846,525;32,00714
 401,01; 8106,473;  173,952;24919,751;32,05603
 401,60; 8137,507;  186,023;24898,145;32,17645
 402,19; 8185,891;  204,788;24867,129;32,36150
 402,78; 8220,637;  206,550;24866,973;32,49777
 403,37; 8256,657;  190,467;24672,257;32,94771
 403,96; 8187,584;  195,689;24575,255;32,78112
 404,55; 8230,793;  193,450;24500,227;33,06626
 405,14; 8241,886;  179,288;24271,108;33,46612
 405,73; 8251,920;  198,356;24179,713;33,58261
 406,32; 8247,306;  193,811;24054,210;33,75256
 406,91; 8197,703;  192,804;23818,329;33,88242
 407,50; 8162,702;  190,877;23736,881;33,85638
 408,09; 8139,113;  163,105;23384,733;34,34732
 408,68; 8129,010;  191,103;23312,260;34,33179
 409,27; 8091,518;  170,029;23122,023;34,51330
 409,86; 8116,996;  173,727;22920,391;34,92059
 410,45; 8118,332;  210,424;22866,854;34,90359
 411,04; 8122,414;  213,813;22785,056;35,03839
 411,63; 8058,953;  202,512;22479,516;35,26704
 412,22; 8049,188;  209,902;22259,595;35,55281
 412,81; 7946,101;  216,520;22037,661;35,42244
 413,40; 7844,164;  217,907;21662,955;35,56185
 413,99; 7822,896;  242,829;21353,178;35,90688
 414,58; 7681,326;  196,907;20932,662;36,09427
 415,17; 7650,383;  193,520;20718,005;36,33155
 415,76; 7592,134;  187,979;20643,920;36,19562
 416,35; 7568,073;  181,365;20489,360;36,37340
 416,94; 7668,269;  202,595;20508,474;36,76607
 417,53; 7783,424;  183,212;20824,269;36,82085
 418,12; 7825,393;  177,443;20809,060;37,06908
 418,71; 8016,113;  209,753;21164,698;37,25307
 419,30; 8077,896;  200,213;21246,610;37,43008
 419,89; 8213,403;  189,521;21466,984;37,71071
 420,48; 8319,870;  216,368;21774,013;37,58992
 421,07; 8363,184;  214,677;21823,706;37,70881
 421,66; 8344,445;  170,139;21769,149;37,84574
 422,25; 8382,489;  200,065;21749,560;37,97038
 422,84; 8408,804;  215,834;21735,846;38,07140
 423,43; 8310,085;  187,449;21496,941;38,11745
 424,02; 8302,553;  212,065;21197,095;38,55362
 424,60; 8105,309;  201,067;20720,609;38,52056
 425,19; 7999,712;  202,527;20455,125;38,49968
 425,78; 8044,381;  214,374;20434,843;38,72317
 426,37; 8082,408;  223,067;20259,517;39,22522
 426,96; 8065,306;  215,990;20078,784;39,51768
 427,55; 8008,840;  190,069;19928,459;39,61200
 428,14; 7915,350;  186,223;19699,909;39,60875
 428,73; 7929,062;  203,914;19608,876;39,81017
 429,32; 7954,342;  214,759;19553,521;40,02109
 429,91; 7931,705;  224,760;19577,158;39,82423
 430,50; 7901,806;  215,838;19393,426;40,07786
 431,08; 7863,573;  234,993;19221,291;40,17940
 431,67; 7854,763;  275,917;19138,650;40,17894
 432,26; 7784,837;  281,610;18977,273;40,13352
 432,85; 7716,141;  309,148;18636,042;40,41598
 433,44; 7540,631;  295,995;18198,826;40,46643
 434,03; 7420,407;  317,381;17848,328;40,51707
 434,62; 7226,593;  278,457;17497,617;40,35119
 435,21; 7246,836;  289,840;17252,954;41,01249
 435,79; 7179,579;  281,150;17115,335;40,97869
 436,38; 7181,112;  287,151;17034,350;41,16486
 436,97; 7139,819;  283,228;16888,343;41,29204
 437,56; 7084,746;  276,307;16705,029;41,44229
 438,15; 7100,200;  261,999;16700,325;41,59913
 438,74; 7140,408;  267,999;16648,307;41,95531
 439,33; 7199,879;  244,153;16696,091;42,27907
 439,91; 7212,084;  207,769;16760,981;42,31393
 440,50; 7278,855;  251,538;16775,223;42,52875
 441,09; 7358,487;  252,386;16861,179;42,78517
 441,68; 7400,235;  235,310;16873,180;43,06396
 442,27; 7388,445;  211,617;16813,330;43,22945
 442,86; 7385,354;  202,235;16820,931;43,22312
 443,44; 7426,603;  213,927;16859,015;43,33216
 444,03; 7460,945;  267,928;16906,946;43,22982
 444,62; 7400,162;  223,774;16783,283;43,33697
 445,21; 7349,620;  235,158;16569,272;43,55585
 445,80; 7364,191;  246,621;16480,177;43,84480
 446,39; 7250,123;  256,236;16175,169;43,93440
 446,97; 7157,839;  203,776;16041,588;43,90798
 447,56; 7100,394;  227,624;15799,214;44,13660
 448,15; 7055,082;  211,545;15600,119;44,47155
 448,74; 6932,533;  240,853;15439,423;44,02835
 449,33; 6899,622;  222,085;15224,445;44,50991
 449,91; 6828,142;  224,163;15042,083;44,56751
 450,50; 6704,215;  207,317;14791,434;44,54776
 451,09; 6756,935;  238,394;14693,650;45,09461
 451,68; 6720,725;  254,625;14617,610;45,01919
 452,26; 6644,234;  229,395;14563,259;44,75303
 452,85; 6654,780;  221,010;14423,878;45,29909
 453,44; 6675,268;  240,320;14445,120;45,30122
 454,03; 6660,291;  214,088;14462,032;45,24304
 454,61; 6655,975;  200,627;14358,695;45,59483
 455,20; 6777,048;  239,320;14595,285;45,54015
 455,79; 6804,545;  242,165;14593,882;45,72540
 456,38; 6840,460;  233,552;14710,707;45,63678
 456,97; 6858,853;  222,475;14729,974;45,74446
 457,55; 6865,646;  225,860;14714,395;45,82786
 458,14; 6885,093;  244,475;14698,813;45,94204
 458,73; 6888,122;  236,860;14631,509;46,20649
 459,31; 6937,754;  251,092;14638,795;46,47484
 459,90; 6992,386;  256,322;14756,484;46,45509
 460,49; 7061,906;  289,630;14762,370;46,79333
 461,08; 7067,287;  215,939;14935,813;46,54488
 461,66; 7104,163;  239,554;14978,165;46,57569
 462,25; 7171,692;  239,093;15091,202;46,67754
 462,84; 7267,533;  260,631;15126,850;47,13304
 463,43; 7192,928;  206,633;15070,583;47,00160
 464,01; 7231,269;  223,249;15068,459;47,20728
 464,60; 7258,024;  258,171;14952,986;47,63485
 465,19; 7122,158;  210,711;14738,074;47,57537
 465,77; 7050,205;  222,788;14734,030;47,04916
 466,36; 7057,479;  237,710;14633,092;47,37470
 466,95; 6919,532;  226,095;14286,349;47,60538
 467,53; 6768,984;  230,558;13982,086;47,54691
 468,12; 6639,948;  249,789;13718,657;47,44392
 468,71; 6547,199;  235,788;13488,129;47,62487
 469,29; 6397,489;  219,405;13240,393;47,44712
 469,88; 6313,573;  214,405;13028,273;47,59818
 470,47; 6433,678;  278,176;13160,903;47,78105
 471,06; 6391,435;  229,099;13112,504;47,83158
 471,64; 6462,918;  243,637;13188,973;48,04264
 472,23; 6447,781;  215,562;13259,991;47,77686
 472,81; 6538,562;  216,946;13370,405;48,06048
 473,40; 6603,807;  220,331;13543,757;47,91167
 473,99; 6737,525;  285,639;13706,083;48,07506
 474,57; 6811,742;  218,793;13785,772;48,59556
 475,16; 6879,796;  240,715;13932,020;48,49122
 475,75; 6905,997;  245,640;13994,885;48,44162
 476,33; 6985,060;  254,795;14186,735;48,30817
 476,92; 7015,733;  248,485;14189,010;48,54371
 477,51; 7034,286;  245,256;14263,845;48,42877
 478,09; 7040,645;  255,333;14299,113;48,31543
 478,68; 7008,996;  255,564;14160,805;48,56753
 479,27; 7052,588;  266,794;14300,900;48,35216
 479,85; 7102,636;  243,871;14296,175;48,80883
 480,44; 7142,642;  236,410;14430,812;48,65462
 481,02; 8006,037;  257,949;16322,615;48,23062
 481,61; 8965,943;  266,334;18114,172;48,74321
 482,20; 9509,255;  272,565;19333,007;48,46000
 482,78; 9923,640;  286,641;20043,999;48,77676
 483,37;10145,617;  279,797;20606,688;48,53581
 483,95;10295,928;  307,720;20751,073;48,85797
 484,54;10385,620;  318,334;20964,520;48,76100
 485,13;10310,505;  285,106;20814,300;48,83484
 485,71;10225,308;  273,721;20515,993;49,16241
 486,30;10057,052;  309,336;20288,875;48,78849
 486,88; 9858,428;  334,567;19782,344;48,97146
 487,47; 9462,803;  323,413;19041,583;48,82630
 488,05; 9048,745;  301,029;18078,575;49,20654
 488,64; 8340,757;  300,645;16705,905;49,00935
 489,23; 7344,761;  326,337;14607,392;49,14499
 489,81; 6385,393;  306,414;12768,341;48,78040
 490,40; 6107,062;  257,184;12240,729;48,81592
 490,98; 5989,734;  260,261;12005,524;48,78113
 491,57; 5974,275;  285,568;11892,209;49,01252
 492,15; 5922,326;  262,492;11840,935;48,88251
 492,74; 5861,938;  270,260;11759,520;48,66874
 493,32; 5836,938;  281,492;11654,935;48,84577
 493,91; 5766,062;  260,415;11528,715;48,85961
 494,50; 5762,289;  274,648;11528,411;48,76272
 495,08; 5717,878;  254,340;11442,206;48,83449
 495,67; 5721,817;  270,261;11414,371;48,91872
 496,25; 5642,688;  214,570;11345,056;48,76802
 496,84; 5658,957;  235,031;11293,367;49,04830
 497,42; 5615,808;  220,647;11254,693;48,89558
 498,01; 5625,973;  240,569;11201,206;49,13404
 498,59; 5531,284;  210,340;11126,499;48,74374
 499,18; 5516,064;  207,646;11063,341;48,89984
 499,76; 5514,445;  237,493;10956,525;49,22974
 500,35; 5396,153;  225,879;10782,042;48,97873
 500,93; 5372,204;  207,570;10750,708;48,98574
 501,52; 5349,604;  214,724;10719,184;48,88285
 502,10; 5350,111;  224,495;10611,104;49,34831
 502,69; 5224,016;  216,649;10495,712;48,71423
 503,27; 5154,508;  202,263;10271,935;49,17980
 503,86; 5120,076;  221,187;10225,434;48,96810
 504,44; 4996,468;  201,188;10119,544;48,34753
 505,03; 4885,712;  192,265; 9807,976;48,81019
 505,61; 4843,260;  205,419; 9726,177;48,71294
 506,19; 4778,134;  221,496; 9609,778;48,53538
 506,78; 4596,586;  188,881; 9403,046;47,83618
 507,36; 4558,275;  203,188; 9217,753;48,31167
 507,95; 4518,644;  202,882; 9100,522;48,50457
 508,53; 4412,201;  209,881; 8975,529;47,94078
 509,12; 4371,911;  215,959; 8819,105;48,30736
 509,70; 4272,402;  224,267; 8661,870;47,97731
 510,29; 4179,974;  219,959; 8533,361;47,63411
 510,87; 4067,791;  200,958; 8326,434;47,58900
 511,46; 4007,371;  202,420; 8120,962;48,05116
 512,04; 3935,264;  203,805; 8019,401;47,74375
 512,62; 3876,730;  211,420; 7889,691;47,73614
 513,21; 3778,500;  190,190; 7701,885;47,76965
 513,79; 3686,845;  201,961; 7601,439;47,09635
 514,38; 3609,632;  184,345; 7395,874;47,49737
 514,96; 3583,451;  228,807; 7330,768;47,23546
 515,54; 3484,674;  190,345; 7184,534;47,10094
 516,13; 3476,355;  207,423; 7129,475;47,22490
 516,71; 3401,788;  206,269; 7003,289;47,01353
 517,30; 3353,848;  187,347; 6848,754;47,53503
 517,88; 3330,886;  220,193; 6809,864;47,20559
 518,46; 3225,814;  196,270; 6688,106;46,66698
 519,05; 3168,026;  199,886; 6640,044;46,08800
 519,63; 3180,009;  202,347; 6611,479;46,45968
 520,22; 3119,819;  215,195; 6509,927;46,14374
 520,80; 3080,372;  217,733; 6416,831;46,17831
 521,38; 3077,412;  220,271; 6387,824;46,32536
 521,97; 3052,430;  200,964; 6374,077;46,19170
 522,55; 3028,699;  217,118; 6382,549;45,60234
 523,13; 3067,346;  187,965; 6351,919;46,71321
 523,72; 3011,852;  198,116; 6328,985;45,89456
 524,30; 3088,852;  221,427; 6465,062;45,92557
 524,89; 3079,906;  191,426; 6498,597;45,79676
 525,47; 3150,843;  208,196; 6625,784;45,85284
 526,05; 3140,767;  183,350; 6706,235;45,33910
 526,64; 3194,438;  202,043; 6768,689;45,56962
 527,22; 3243,163;  209,581; 6948,777;45,01400
 527,80; 3370,207;  241,581; 7088,656;45,69288
 528,39; 3349,648;  207,505; 7192,121;44,98663
 528,97; 3422,273;  206,043; 7327,477;45,16268
 529,55; 3511,679;  220,888; 7507,245;45,16374
 530,14; 3612,716;  236,582; 7735,722;45,02029
 530,72; 3630,863;  211,428; 7829,282;44,88712
 531,30; 3665,038;  186,044; 7957,396;44,76691
 531,89; 3721,012;  212,274; 8023,224;44,92076
 532,47; 3793,119;  237,275; 8105,220;45,19406
 533,05; 3761,463;  234,043; 8156,158;44,52624
 533,63; 3791,390;  238,352; 8223,506;44,49555
 534,22; 3800,736;  211,352; 8258,726;44,60318
 534,80; 3785,772;  236,276; 8357,008;43,70907
 535,38; 3844,784;  290,198; 8391,213;43,87828
 535,97; 3763,735;  236,967; 8355,891;43,43886
 536,55; 3809,800;  275,814; 8418,499;43,40074
 537,13; 3744,499;  285,274; 8414,440;42,55325
 537,71; 3780,023;  324,274; 8509,074;42,22155
 538,30; 3785,317;  343,814; 8560,001;41,88687
 538,88; 3835,936;  394,276; 8688,624;41,49404
 539,46; 3906,042;  433,122; 8859,711;41,21382
 540,05; 3958,471;  466,199; 8994,876;40,94740
 540,63; 4066,099;  516,584; 9211,594;40,82244
 541,21; 4088,901;  553,661; 9389,074;40,01216
 541,79; 4115,875;  585,430; 9490,825;39,64389
 542,38; 4204,918;  610,891; 9665,587;39,69241
 542,96; 4240,204;  619,892; 9832,686;39,29657
 543,54; 4299,899;  640,353;10044,525;38,91407
 544,12; 4355,287;  616,738;10099,140;39,42618
 544,70; 4367,589;  585,431;10239,488;39,17688
 545,29; 4413,982;  589,276;10391,748;39,01777
 545,87; 4427,952;  566,661;10396,441;39,28156
 546,45; 4436,186;  511,968;10428,928;39,57078
 547,03; 4472,820;  484,430;10468,019;39,94946
 547,62; 4487,466;  451,046;10650,126;39,57632
 548,20; 4553,818;  454,662;10806,368;39,59885
 548,78; 4573,185;  423,817;10968,016;39,35214
 549,36; 4640,824;  384,355;11162,606;39,49128
 549,94; 4635,033;  348,046;11349,397;38,96782
 550,53; 4743,988;  353,970;11519,060;39,31914
 551,11; 4809,356;  321,740;11744,712;39,28589
 551,69; 4931,490;  322,278;12035,687;39,34988
 552,27; 4981,714;  288,585;12353,906;38,89767
 552,85; 5094,920;  290,740;12700,137;38,71405
 553,44; 5241,887;  293,740;12988,679;38,97732
 554,02; 5379,801;  302,125;13355,225;38,90016
 554,60; 5438,896;  248,202;13685,877;38,62792
 555,18; 5562,799;  274,355;14067,972;38,33979
 555,76; 5686,430;  262,894;14443,504;38,24614
 556,34; 5836,430;  266,664;14855,357;38,17865
 556,93; 5961,774;  246,971;15236,449;38,12543
 557,51; 6084,584;  241,433;15520,028;38,24403
 558,09; 6207,427;  254,971;15945,460;37,93672
 558,67; 6297,642;  254,434;16294,834;37,67492
 559,25; 6402,971;  264,741;16634,511;37,49735
 559,83; 6441,480;  246,742;16903,445;37,19066
 560,41; 6583,658;  245,818;17288,566;37,18790
 561,00; 6699,975;  260,588;17663,237;37,00234
 561,58; 6737,067;  244,971;17852,167;36,87183
 562,16; 6856,395;  238,125;18270,086;36,70300
 562,74; 6930,840;  210,817;18614,291;36,51497
 563,32; 7092,813;  219,742;19016,409;36,56537
 563,90; 7207,347;  249,280;19446,035;36,24606
 564,48; 7365,193;  249,202;19913,082;36,18813
 565,06; 7520,346;  237,434;20473,486;35,98979
 565,65; 7752,298;  242,896;21163,105;35,89544
 566,23; 7995,937;  284,741;21987,149;35,53152
 566,81; 8154,612;  235,895;22738,244;35,19062
 567,39; 8463,983;  248,588;23649,632;35,10696
 567,97; 8621,627;  250,203;24208,511;34,94163
 568,55; 8904,941;  256,049;25142,720;34,75311
 569,13; 9138,630;  238,511;25803,050;34,81431
 569,71; 9372,805;  233,279;26776,896;34,43211
 570,29; 9685,863;  277,201;27750,057;34,24712
 570,87; 9914,611;  277,279;28466,148;34,18843
 571,45;10055,539;  269,203;29155,068;33,87932
 572,03;10066,139;  239,050;29567,445;33,50708
 572,61;10313,261;  232,434;30339,482;33,48328
 573,20;10529,918;  262,972;30979,332;33,42501
 573,78;10657,672;  248,973;31569,687;33,23264
 574,36;10725,349;  246,280;32141,464;32,85471
 574,94;10833,526;  293,588;32449,874;32,77722
 575,52;10790,167;  273,205;32771,570;32,36151
 576,10;10994,931;  312,974;33379,065;32,30487
 576,68;11104,485;  306,588;33874,303;32,16751
 577,26;11244,224;  311,513;34649,651;31,83839
 577,84;11353,517;  314,511;35069,006;31,76282
 578,42;11407,850;  354,435;35383,284;31,55518
 579,00;11357,916;  319,434;35515,966;31,36241
 579,58;11312,975;  338,050;35656,189;31,07447
 580,16;11255,044;  340,204;35768,955;30,80786
 580,74;11289,609;  330,127;35979,468;30,74245
 581,32;11206,259;  329,896;35959,160;30,52649
 581,90;11100,134;  345,358;35949,486;30,20654
 582,48;11125,057;  354,050;36141,772;30,09693
 583,06;11091,988;  347,973;36293,830;29,88944
 583,64;11067,731;  338,819;36302,471;29,83265
 584,22;10894,773;  348,436;36074,776;29,51978
 584,80;10714,620;  360,050;35787,339;29,22767
 585,38;10615,314;  367,972;35386,390;29,26272
 585,96;10585,034;  346,434;35559,021;29,07653
 586,54;10501,206;  366,589;35559,175;28,79759
 587,12;10475,599;  333,743;35809,156;28,58841
 587,70;10531,291;  356,819;35869,995;28,64985
 588,28;10450,855;  349,051;35917,658;28,40090
 588,86;10450,717;  358,743;36089,420;28,24456
 589,44;10384,077;  323,975;36105,574;28,11529
 590,02;10422,522;  336,205;36360,472;27,99867
 590,59;10336,757;  314,512;36532,244;27,67220
 591,17;10403,129;  317,283;36781,036;27,65992
 591,75;10304,172;  311,360;36901,051;27,31046
 592,33;10369,258;  316,513;37167,296;27,27960
 592,91;10355,216;  269,360;37393,336;27,16804
 593,49;10407,607;  287,053;37808,699;26,97257
 594,07;10389,696;  303,899;37951,230;26,79021
 594,65;10335,118;  302,128;37944,292;26,65359
 595,23;10353,124;  295,513;38405,061;26,39132
 595,81;10316,179;  281,821;38476,329;26,27173
 596,39;10294,487;  276,744;38504,285;26,20557
 596,97;10236,113;  268,745;38800,626;25,86785
 597,55;10169,557;  276,128;38623,636;25,79940
 598,12;10080,200;  264,899;38662,890;25,56202
 598,70;10050,564;  256,976;38839,831;25,38327
 599,28;10070,218;  286,899;39036,974;25,24723
 599,86; 9937,205;  263,668;38949,201;25,00557
 600,44; 9860,926;  232,745;39173,505;24,72520
 601,02; 9852,084;  297,900;39158,875;24,58555
 601,60; 9763,313;  264,898;39208,596;24,39012
 602,18; 9716,430;  247,207;39117,011;24,36139
 602,75; 9595,460;  239,359;39293,431;23,95679
 603,33; 9608,398;  272,283;39159,377;24,00826
 603,91; 9538,180;  255,054;39177,970;23,85003
 604,49; 9522,591;  273,976;39339,036;23,67490
 605,07; 9403,890;  281,283;39377,245;23,33389
 605,65; 9407,351;  318,591;39527,967;23,18007
 606,23; 9403,089;  374,051;39609,504;23,01245
 606,80; 9336,588;  413,744;39615,951;22,76107
 607,38; 9268,422;  448,823;39660,512;22,49227
 607,96; 9263,831;  503,282;39724,944;22,33600
 608,54; 9224,940;  571,053;39776,487;22,07318
 609,12; 9139,011;  566,359;39810,325;21,84451
 609,70; 9103,948;  620,514;39910,051;21,59209
 610,27; 9031,599;  625,590;39979,318;21,36013
 610,85; 9023,972;  635,899;39960,190;21,33051
 611,43; 8928,474;  625,668;39947,091;21,11522
 612,01; 8813,401;  608,667;39761,215;20,95581
 612,59; 8747,012;  601,283;39677,311;20,84585
 613,16; 8657,414;  557,051;39608,717;20,74268
 613,74; 8594,360;  527,668;39517,443;20,68925
 614,32; 8523,505;  490,822;39433,252;20,62707
 614,90; 8462,084;  444,514;39371,201;20,59659
 615,48; 8330,647;  390,744;39064,530;20,53045
 616,05; 8277,053;  351,897;39045,362;20,48190
 616,63; 8237,844;  357,743;38848,501;20,47271
 617,21; 8139,201;  367,282;38751,578;20,24765
 617,79; 8062,462;  350,283;38648,860;20,13699
 618,36; 8018,249;  335,591;38569,765;20,09369
 618,94; 7849,020;  288,897;38271,570;19,90413
 619,52; 7779,884;  323,743;37968,270;19,80671
 620,10; 7727,152;  306,436;37982,717;19,69599
 620,67; 7592,191;  313,743;37838,951;19,39616
 621,25; 7539,608;  325,975;37652,010;19,32601
 621,83; 7448,494;  315,436;37614,695;19,12386
 622,41; 7428,673;  335,282;37650,142;19,00956
 622,98; 7334,549;  310,897;37359,647;18,95787
 623,56; 7231,329;  311,127;37389,090;18,66392
 624,14; 7178,343;  293,052;37221,747;18,64483
 624,72; 7116,981;  292,359;37056,428;18,56329
 625,29; 7054,445;  270,204;37210,772;18,36529
 625,87; 7068,949;  311,590;37166,648;18,33496
 626,45; 6932,327;  274,127;36979,893;18,13938
 627,02; 6912,809;  281,590;36826,574;18,14536
 627,60; 6867,169;  280,130;36793,344;18,04015
 628,18; 6766,242;  255,744;37007,017;17,71503
 628,76; 6728,653;  266,512;36927,929;17,62654
 629,33; 6713,683;  282,205;36944,167;17,54265
 629,91; 6677,076;  272,129;36946,794;17,46423
 630,49; 6664,220;  298,282;37049,970;17,32148
 631,06; 6669,154;  288,820;37132,182;17,31746
 631,64; 6600,815;  281,512;37167,021;17,13221
 632,22; 6521,810;  242,896;37035,207;17,06583
 632,79; 6534,079;  269,358;37383,812;16,87947
 633,37; 6511,478;  245,206;37453,040;16,84127
 633,95; 6499,621;  259,820;37436,482;16,78419
 634,52; 6463,994;  243,821;37674,266;16,61795
 635,10; 6428,690;  255,282;37646,937;16,51012
 635,68; 6491,669;  252,665;37901,332;16,57165
 636,25; 6390,366;  234,665;37819,314;16,37823
 636,83; 6391,806;  222,282;38074,698;16,29889
 637,41; 6388,513;  235,511;38088,980;16,25479
 637,98; 6409,512;  259,742;38272,870;16,17802
 638,56; 6406,517;  253,819;38265,599;16,18629
 639,13; 6371,279;  243,358;38480,757;16,02599
 639,71; 6375,910;  274,666;38491,036;15,96500
 640,29; 6265,843;  207,666;38380,223;15,87050
 640,86; 6294,918;  227,359;38517,192;15,84640
 641,44; 6232,762;  232,974;38526,546;15,66787
 642,02; 6218,606;  255,051;38513,592;15,58751
 642,59; 6199,297;  229,513;38672,408;15,52897
 643,17; 6167,679;  230,897;38687,685;15,43754
 643,74; 6130,524;  217,743;38751,039;15,34460
 644,32; 6097,675;  253,282;38577,162;15,25000
 644,89; 6076,827;  240,666;38636,670;15,19992
 645,47; 6093,902;  260,282;38681,639;15,18328
 646,05; 6045,208;  238,051;38619,686;15,13004
 646,62; 5983,899;  239,897;38553,655;14,99201
 647,20; 5967,204;  252,205;38696,778;14,86556
 647,77; 5895,741;  228,128;38491,594;14,81207
 648,35; 5870,431;  213,051;38425,332;14,80514
 648,92; 5889,430;  243,205;38540,456;14,74316
 649,50; 5818,966;  213,205;38420,117;14,67211
 650,08; 5781,503;  214,436;38294,164;14,61950
 650,65; 5822,962;  226,667;38557,210;14,60009
 651,23; 5935,499;  212,821;39523,256;14,55766
 651,80; 5994,035;  216,975;40346,226;14,39613
 652,38; 6070,418;  228,975;40765,964;14,41016
 652,95; 6090,570;  196,821;41077,241;14,41705
 653,53; 6144,184;  235,590;41300,211;14,38853
 654,10; 6172,566;  252,513;41446,872;14,37103
 654,68; 6076,641;  223,898;41371,996;14,22361
 655,25; 6033,563;  206,513;41443,042;14,13079
 655,83; 6075,868;  213,206;41592,319;14,16817
 656,40; 6023,097;  235,667;41462,904;14,03788
 656,98; 6037,941;  208,898;41358,335;14,16555
 657,55; 5982,940;  228,129;41231,458;14,03498
 658,13; 5890,015;  209,359;40807,812;13,99229
 658,70; 5848,397;  227,744;40482,473;13,96272
 659,28; 5641,857;  208,206;39521,827;13,82129
 659,85; 5607,240;  219,052;38957,335;13,90921
 660,43; 5628,853;  237,975;39002,535;13,90672
 661,00; 5564,928;  224,129;39145,505;13,72202
 661,58; 5605,619;  219,667;39440,859;13,73225
 662,15; 5601,771;  202,975;39733,059;13,65743
 662,73; 5682,153;  264,514;39915,644;13,66327
 663,30; 5665,921;  214,898;40116,152;13,66128
 663,88; 5699,457;  226,898;40353,121;13,63836
 664,45; 5671,840;  211,668;40622,475;13,51166
 665,03; 5771,761;  222,668;41017,290;13,60251
 665,60; 5825,913;  272,668;41437,260;13,49034
 666,17; 5788,757;  225,437;41382,768;13,51720
 666,75; 5820,217;  217,129;41839,045;13,46187
 667,32; 5858,677;  238,668;42165,783;13,40423
 667,90; 5894,059;  222,052;42342,291;13,46623
 668,47; 5954,365;  246,283;42721,953;13,43847
 669,05; 5917,594;  227,052;42966,307;13,31456
 669,62; 5941,438;  196,129;43056,507;13,40471
 670,19; 5973,744;  204,514;43181,092;13,42413
 670,77; 5995,819;  219,129;43457,600;13,36007
 671,34; 6033,125;  224,129;43329,569;13,47625
 671,92; 6012,277;  207,053;43659,000;13,36010
 672,49; 6038,659;  227,591;43643,508;13,38465
 673,06; 6008,427;  177,514;43846,477;13,35253
 673,64; 5956,963;  207,360;43640,062;13,23796
 674,21; 5974,808;  207,745;43620,185;13,28436
 674,79; 6042,037;  217,822;43895,462;13,33455
 675,36; 6015,496;  231,514;43961,201;13,22667
 675,93; 6012,340;  192,822;43873,709;13,32280
 676,51; 6041,339;  230,591;44100,909;13,24528
 677,08; 6063,106;  224,591;44177,801;13,28348
 677,65; 6080,412;  228,130;44255,617;13,29234
 678,23; 6113,102;  225,514;44461,971;13,30936
 678,80; 6113,485;  208,438;44629,632;13,29331
 679,38; 6105,406;  207,591;44721,371;13,24941
 679,95; 6173,019;  219,438;45007,648;13,29274
 680,52; 6196,710;  211,899;45327,387;13,26553
 681,10; 6253,785;  218,591;45782,587;13,24553
 681,67; 6271,860;  217,361;46051,556;13,20957
 682,24; 6279,012;  206,745;46019,064;13,25466
 682,82; 6352,164;  207,361;46624,110;13,23833
 683,39; 6443,547;  239,207;46983,157;13,27303
 683,96; 6452,468;  222,361;47219,664;13,25631
 684,54; 6496,774;  206,746;47556,634;13,28415
 685,11; 6552,387;  235,592;47942,911;13,24073
 685,68; 6599,847;  219,592;48337,880;13,25952
 686,25; 6628,537;  198,823;48390,311;13,34201
 686,83; 6646,227;  202,823;48527,742;13,33350
 687,40; 6685,610;  198,976;48840,942;13,33547
 687,97; 6776,454;  230,976;49264,758;13,34892
 688,55; 6760,145;  201,592;49324,035;13,35144
 689,12; 6797,835;  187,284;49642,850;13,36665
 689,69; 6812,372;  203,746;49712,281;13,34846
 690,26; 6854,755;  214,130;49762,328;13,40235
 690,84; 6896,368;  211,746;49857,912;13,46453
 691,41; 6889,520;  211,746;50039,420;13,40174
 691,98; 6944,210;  215,515;50320,236;13,42926
 692,56; 6946,132;  202,284;50382,128;13,43935
 693,13; 7055,053;  254,746;50443,098;13,54957
 693,70; 7048,897;  227,361;50761,759;13,49880
 694,27; 7028,972;  205,977;50697,806;13,51307
 694,84; 7095,432;  212,900;50888,929;13,58143
 695,42; 7141,584;  243,592;51035,206;13,58097
 695,99; 7171,889;  211,285;51261,868;13,63472
 696,56; 7122,195;  196,131;51061,760;13,61639
 697,13; 7236,655;  228,977;51420,729;13,68908
 697,71; 7214,191;  178,285;51443,930;13,72441
 698,28; 7290,959;  208,823;51814,360;13,72360
 698,85; 7283,111;  169,823;51745,637;13,79191
 699,42; 7322,340;  188,823;52025,222;13,76160
 699,99; 7340,184;  227,900;51990,499;13,74020
 700,57; 7420,413;  213,900;52048,469;13,90291
 701,14; 7393,719;  204,669;52352,900;13,78580
 701,71; 7440,409;  233,131;52431,715;13,80742
 702,28; 7484,176;  215,900;52510,838;13,89862
 702,85; 7490,328;  214,439;52524,808;13,90908
 703,43; 7536,019;  233,285;52780,469;13,89748
 704,00; 7572,555;  250,977;53012,362;13,87677
 704,57; 7601,707;  222,516;52989,100;13,98459
 705,14; 7661,628;  249,054;53214,147;13,99521
 705,71; 7683,165;  256,439;53318,347;13,99634
 706,28; 7633,317;  223,747;53126,316;14,00607
 706,86; 7695,084;  257,131;53472,593;13,97705
 707,43; 7712,698;  267,131;53348,870;14,02661
 708,00; 7774,311;  244,901;53469,378;14,14652
 708,57; 7691,540;  223,362;53255,348;14,08240
 709,14; 7767,461;  257,901;53455,471;14,11636
 709,71; 7794,921;  230,362;53512,748;14,19711
 710,28; 7887,611;  222,901;53705,563;14,33121
 710,86; 7859,994;  234,593;53911,302;14,20616
 711,43; 7928,223;  246,132;53852,656;14,33052
 712,00; 7914,913;  233,670;53982,856;14,29090
 712,57; 7969,296;  235,593;54065,979;14,36680
 713,14; 7967,756;  222,901;54212,487;14,34509
 713,71; 8015,754;  232,209;54147,303;14,43667
 714,28; 8026,213;  235,132;54164,503;14,44682
 714,85; 7993,673;  214,670;53909,165;14,48752
 715,42; 8048,748;  231,055;54119,903;14,50707
 716,00; 8134,900;  252,670;54347,950;14,57101
 716,57; 8085,129;  214,978;54415,919;14,52032
 717,14; 8092,512;  198,747;54288,042;14,59395
 717,71; 8154,817;  197,055;54346,781;14,69585
 718,28; 8126,046;  228,286;54398,135;14,57962
 718,85; 8155,275;  195,747;54500,104;14,65725
 719,42; 8236,581;  238,901;54584,227;14,71641
 719,99; 8210,579;  204,747;54380,889;14,77741
 720,56; 8271,962;  224,440;54814,166;14,74183
 721,13; 8316,268;  211,363;54751,212;14,86052
 721,70; 8287,727;  209,132;54765,182;14,80788
 722,27; 8387,033;  242,594;54603,305;14,98222
 722,84; 8447,339;  259,594;54851,351;14,99813
 723,41; 8431,875;  208,132;54885,090;15,04060
 723,98; 8456,412;  227,517;55110,367;14,99356
 724,55; 8482,795;  239,440;55086,644;15,02967
 725,12; 8499,793;  189,978;55009,537;15,15848
 725,69; 8566,560;  211,286;55338,506;15,15635
 726,27; 8651,174;  225,517;55358,168;15,28252
 726,84; 8696,864;  222,671;55766,368;15,25680
 727,41; 8734,093;  227,671;55682,952;15,33925
 727,98; 8804,937;  231,363;56046,999;15,36052
 728,55; 8827,012;  249,902;55844,584;15,42793
 729,12; 8800,933;  198,517;56084,014;15,39293
 729,69; 8904,393;  236,363;56138,445;15,50574
 730,26; 8951,545;  239,979;56380,338;15,51748
 730,82; 8977,389;  222,133;56228,307;15,63266
 731,39; 9006,541;  218,286;56224,584;15,69155
 731,96; 9064,078;  208,056;56617,477;15,69954
 732,53; 9113,999;  223,287;56831,369;15,70573
 733,10; 9148,997;  236,594;56863,262;15,73888
 733,67; 9251,918;  233,287;57139,077;15,84835
 734,24; 9155,916;  215,364;56786,816;15,80400
 734,81; 9256,530;  240,979;56851,631;15,92554
 735,38; 9234,912;  230,441;56672,755;15,95341
 735,95; 9261,757;  214,594;56480,647;16,07926
 736,52; 9275,832;  238,671;56657,924;16,01787
 737,09; 9257,676;  231,748;56370,586;16,07787
 737,66; 9320,059;  270,056;56344,324;16,13931
 738,23; 9313,749;  219,518;56548,448;16,14487
 738,80; 9465,747;  256,441;56825,802;16,27967
 739,37; 9525,745;  245,056;57118,463;16,31815
 739,94; 9503,513;  227,518;57129,433;16,30173
 740,51; 9609,511;  304,825;57112,402;16,37930
 741,07; 9568,894;  220,210;57025,756;16,45734
 741,64; 9635,969;  253,979;57237,495;16,46439
 742,21; 9687,428;  218,287;57288,464;16,59210
 742,78; 9654,272;  202,133;57099,664;16,61256
 743,35; 9707,501;  226,133;57452,941;16,56805
 743,92; 9836,038;  244,749;57613,834;16,71857
 744,49; 9872,959;  230,903;57333,111;16,88561
 745,06; 9874,188;  227,056;57338,542;16,89175
 745,63; 9914,725;  211,287;57391,357;16,96996
 746,19; 9947,569;  216,518;57442,403;17,00463
 746,76; 9960,798;  227,980;57379,604;17,02982
 747,33; 9972,180;  217,980;57379,111;17,06439
 747,90;10087,563;  238,903;57539,927;17,18758
 748,47;10108,023;  230,980;57495,435;17,24812
 749,04;10102,636;  234,211;57479,404;17,23887
 749,61;10102,327;  252,134;57434,297;17,22599
 750,17;10180,709;  242,903;57533,804;17,34622
 750,74;10226,246;  235,980;57432,312;17,46662
 751,31;10152,475;  211,057;57311,436;17,41042
 751,88;10159,242;  216,595;57192,943;17,45048
 752,45;10217,548;  226,518;57360,374;17,48706
 753,02;10222,084;  232,134;57214,574;17,53163
 753,58;10237,390;  216,595;57089,082;17,61976
 754,15;10265,081;  215,595;57228,436;17,62671
 754,72;10264,156;  215,672;56940,559;17,71442
 755,29;10259,846;  209,672;56853,298;17,74282
 755,86;10282,998;  231,442;56911,267;17,73392
 756,42;10402,458;  233,288;56809,314;17,97434
 756,99;10355,687;  202,672;56734,283;17,95989
 757,56;10344,992;  209,442;56711,637;17,93833
 758,13;10349,837;  184,596;56604,914;18,01699
 758,70;10485,219;  197,365;56664,653;18,21914
 759,26;10497,294;  195,288;56709,930;18,22892
 759,83;10515,139;  207,826;56888,438;18,18490
 760,40;10517,906;  189,365;56689,869;18,28044
 760,97;10550,596;  189,211;56785,838;18,30743
 761,53;10483,287;  169,827;56386,730;18,34583
 762,10;10546,439;  175,134;56373,238;18,45490
 762,67;10655,975;  208,904;56383,515;18,59750
 763,24;10579,589;  165,519;55932,177;18,67437
 763,80;10636,202;  198,211;56085,916;18,67672
 764,37;10608,970;  201,442;56039,116;18,63890
 764,94;10546,891;  175,365;55586,931;18,71726
 765,50;10635,581;  188,519;55511,516;18,88376
 766,07;10686,656;  225,442;55673,870;18,86657
 766,64;10626,424;  185,750;55308,686;18,94071
 767,21;10651,191;  201,596;55195,963;19,00121
 767,77;10668,112;  229,904;55054,317;19,03934
 768,34;10737,033;  218,058;55079,055;19,17387
 768,91;10680,262;  221,673;54855,255;19,14315
 769,47;10787,568;  216,750;54909,763;19,32755
 770,04;10755,797;  224,673;54792,040;19,29931
 770,61;10774,949;  200,135;54474,164;19,48411
 771,18;10758,101;  188,289;54490,133;19,46492
 771,74;10818,483;  220,981;54652,333;19,46948
 772,31;10857,559;  222,519;54311,687;19,66205
 772,88;10807,172;  193,904;54008,118;19,72205
 773,44;10824,324;  196,135;53918,934;19,78339
 774,01;10874,630;  212,058;54015,903;19,81749
 774,58;10795,397;  192,750;53621,257;19,84455
 775,14;10838,780;  190,981;53840,303;19,84703
 775,71;10841,163;  204,366;53651,580;19,90150
 776,27;10843,007;  237,904;53588,627;19,87809
 776,84;10972,005;  255,674;53623,673;20,08007
 777,41;10951,003;  217,597;53486,335;20,14954
 777,97;10886,232;  203,443;53160,842;20,17242
 778,54;10890,153;  213,597;53252,889;20,12952
 779,11;11001,459;  220,443;53185,397;20,35500
 779,67;10978,688;  192,212;53044,520;20,40871
 780,24;11003,994;  208,981;53006,797;20,44594
 780,80;11065,222;  227,751;52924,997;20,56554
 781,37;11099,144;  211,674;52925,736;20,65382
 781,94;11075,142;  211,674;52544,782;20,75831
 782,50;11170,217;  217,751;52581,982;20,91593
 783,07;11116,984;  238,366;52571,721;20,78716
 783,63;11105,982;  204,674;52303,921;20,92412
 784,20;11143,903;  230,366;52247,967;20,98047
 784,77;11110,978;  216,136;51989,629;21,04328
 785,33;11054,130;  196,905;51902,060;20,99834
 785,90;11145,128;  213,982;51835,721;21,17547
 786,46;11157,511;  227,751;51803,152;21,19181
 787,03;11139,202;  205,674;51479,737;21,32370
 787,59;11184,738;  212,751;51430,399;21,42228
 788,16;11174,890;  226,213;51400,214;21,39500
 788,73;11140,196;  231,520;51345,568;21,34183
 789,29;11120,040;  216,905;50817,538;21,54743
 789,86;11154,115;  231,136;50807,969;21,59680
 790,42;11153,882;  220,367;50581,399;21,71027
 790,99;11109,957;  240,136;50228,369;21,74476
 791,55;11131,879;  214,136;50316,492;21,79088
 792,12;11109,492;  225,290;50260,154;21,75324
 792,68;11116,798;  218,213;49940,200;21,91905
 793,25;11124,027;  229,982;49683,554;22,02883
 793,81;11114,486;  253,674;49300,370;22,14382
 794,38;11069,869;  196,751;49155,108;22,20891
 794,94;11027,175;  208,982;48975,770;22,18353
 795,51;11058,404;  222,290;48723,970;22,34173
 796,07;11026,864;  224,752;48527,709;22,36325
 796,64;11071,785;  237,752;48653,909;22,37690
 797,20;11001,090;  225,521;48116,878;22,50003
 797,77;10953,627;  201,059;47758,463;22,60966
 798,33;10976,164;  210,598;47591,586;22,72128
 798,90;10974,469;  249,675;47581,479;22,65875
 799,46;10967,391;  220,675;47046,986;22,95017
 800,03;10936,466;  220,982;47011,956;22,90075
 800,59;10947,079;  237,444;46714,310;23,04294
 801,15;10880,154;  237,444;46593,048;22,95884
 801,72;10884,691;  236,675;46283,249;23,12445
 802,28;10867,766;  250,213;45913,987;23,25159
 802,85;10811,533;  220,752;45662,033;23,30652
 803,41;10787,839;  227,752;45525,157;23,31279
 803,98;10746,991;  211,367;45132,664;23,45352
 804,54;10773,066;  223,752;44854,865;23,63668
 805,11;10790,218;  232,444;44689,757;23,74811
 805,67;10749,293;  248,060;44598,650;23,67778
 806,23;10687,291;  229,367;44110,080;23,83262
 806,80;10665,443;  245,521;44053,204;23,78560
 807,36;10689,287;  259,983;44054,788;23,81402
 807,93;10681,208;  252,675;43625,681;24,04383
 808,49;10596,206;  208,829;43364,496;24,06956
 809,05;10556,358;  202,521;43096,620;24,13814
 809,62;10574,203;  237,906;43094,589;24,11828
 810,18;10604,201;  239,291;43010,251;24,23352
 810,74;10558,968;  206,291;42693,143;24,36678
 811,31;10549,889;  220,983;42556,036;24,39800
 811,87;10483,580;  222,599;42406,082;24,32464
 812,44;10564,039;  253,522;42376,667;24,47708
 813,00;10462,730;  185,522;42043,405;24,55262
 813,56;10526,651;  232,368;42023,990;24,63241
 814,13;10516,803;  220,676;41985,652;24,65254
 814,69;10528,416;  233,137;41844,313;24,74162
 815,25;10438,414;  193,676;41439,437;24,83828
 815,82;10502,259;  246,983;41346,329;24,95241
 816,38;10467,795;  254,445;41201,375;24,94290
 816,94;10337,409;  210,599;40847,499;24,92023
 817,51;10389,561;  209,214;40604,314;25,20193
 818,07;10327,097;  208,907;40373,053;25,19210
 818,63;10277,865;  240,445;40231,791;25,09898
 819,20;10302,478;  222,368;40143,684;25,24994
 819,76;10163,476;  204,291;39676,192;25,23108
 820,32;10253,628;  260,445;39560,546;25,42788
 820,89;10240,242;  248,753;39424,823;25,50406
 821,45;10198,624;  212,291;39046,561;25,71526
 822,01;10072,776;  245,291;38839,146;25,46386
 822,57;10136,467;  238,984;38697,039;25,73579
 823,14;10119,773;  213,984;38437,777;25,91524
 823,70;10002,463;  212,368;38137,593;25,81420
 824,26;10028,076;  210,138;38051,485;25,94500
 824,82;10090,613;  236,368;37912,531;26,15512
 825,39; 9985,073;  210,445;37668,962;26,09454
 825,95;10026,148;  232,907;37698,086;26,13958
 826,51; 9959,453;  233,061;37340,209;26,21164
 827,08;10024,298;  258,446;37264,255;26,39005
 827,64; 9983,527;  242,446;37058,301;26,45893
 828,20; 9928,986;  216,061;36853,963;26,51059
 828,76;10021,292;  233,830;36818,009;26,75326
 829,32; 9922,213;  242,984;36664,209;26,57579
 829,89; 9935,365;  217,523;36507,333;26,77843
 830,45; 9983,748;  223,292;36429,456;26,95800
 831,01; 9951,284;  210,830;36210,041;27,05741
 831,57; 9949,821;  221,369;36199,241;27,04010
 832,14; 9925,819;  217,753;36158,518;27,01129
 832,70; 9921,894;  217,754;35823,333;27,25455
 833,26; 9923,815;  192,600;35836,149;27,30148
 833,82; 9964,198;  221,600;35653,811;27,49644
 834,38; 9990,273;  220,138;35700,318;27,53688
 834,95; 9978,963;  205,831;35563,903;27,64046
 835,51; 9961,346;  187,754;35439,796;27,72490
 836,07;10077,498;  223,908;35431,457;27,98715
 836,63;10092,265;  238,446;35502,965;27,94259
 837,19;10092,187;  220,908;35318,165;28,12550
 837,75; 9988,954;  187,215;34972,442;28,17788
 838,32;10132,337;  234,062;34950,258;28,51198
 838,88;10126,719;  231,369;35022,997;28,44176
 839,44;10121,641;  215,138;34942,427;28,52656
 840,00;10100,331;  219,139;34937,166;28,46127
 840,56;10074,714;  197,062;34664,982;28,65752
 841,12;10056,096;  210,523;34566,336;28,65766
 841,68; 9988,171;  191,369;34411,690;28,62861
 842,25;10070,400;  213,216;34540,505;28,71530
 842,81; 9991,014;  209,062;34166,551;28,80646
 843,37;10038,935;  200,677;34108,444;29,01476
 843,93;10004,702;  217,600;33974,029;28,99330
 844,49;10047,624;  217,293;34138,537;28,97987
 845,05; 9965,929;  181,754;33876,583;29,03762
 845,61;10054,158;  227,908;33980,629;29,11247
 846,17; 9990,002;  201,447;33825,752;29,11155
 846,73;10028,078;  214,293;33754,645;29,25964
 847,29; 9981,999;  186,831;33527,076;29,37941
 847,86;10041,612;  205,293;33453,891;29,58416
 848,42; 9962,072;  198,908;33180,707;29,60167
 848,98; 9955,608;  213,293;33252,599;29,48705
 849,54;10026,606;  192,754;33276,646;29,72399
 850,10;10028,066;  214,601;33108,923;29,83331
 850,66;10064,295;  192,447;32969,815;30,11788
 851,22;10011,601;  193,755;32879,323;30,03725
 851,78;10048,445;  235,524;32951,369;29,99440
 852,34;10019,674;  208,524;32657,646;30,23549
 852,90;10025,441;  200,370;32535,000;30,38560
 853,46; 9984,747;  200,524;32310,277;30,47119
 854,02;10028,822;  211,678;32426,708;30,47380
 854,58; 9976,436;  206,062;32093,524;30,64017
 855,14;10005,588;  190,755;32055,724;30,80133
 855,70; 9944,278;  172,755;31881,616;30,81638
 856,26; 9990,815;  223,832;31785,740;30,94548
 856,82; 9977,197;  191,063;31705,555;31,05281
 857,38;10008,272;  225,755;31565,524;31,21439
 857,94; 9949,117;  214,678;31372,878;31,24198
 858,50; 9900,884;  200,524;31268,079;31,22344
 859,06; 9892,113;  209,986;31150,740;31,29247
 859,62; 9908,495;  216,370;31003,094;31,48151
 860,18; 9854,186;  206,986;30951,371;31,37874
 860,74; 9828,953;  180,370;30834,033;31,47612
 861,30; 9806,336;  183,755;30583,464;31,65353
 861,86; 9848,719;  221,217;30656,356;31,63285
 862,42; 9823,794;  210,986;30467,172;31,77138
 862,98; 9862,561;  229,371;30472,911;31,85206
 863,54; 9801,867;  213,986;30165,265;32,01159
 864,10; 9866,096;  222,371;30297,157;32,06581
 864,66; 9788,709;  188,448;29972,511;32,23288
 865,22; 9830,630;  200,371;29838,327;32,49300
 865,78; 9760,090;  213,986;29731,219;32,34078
 866,34; 9756,857;  189,986;29658,419;32,46481
 866,90; 9784,932;  214,986;29544,465;32,62910
 867,45; 9753,315;  218,448;29311,204;32,77403
 868,01; 9738,775;  205,448;29149,712;32,93684
 868,57; 9681,004;  196,755;29037,912;32,88442
 869,13; 9663,386;  190,063;28962,881;32,92456
 869,69; 9657,538;  207,679;28789,235;33,06279
 870,25; 9653,152;  190,294;28689,359;33,20410
 870,81; 9685,688;  200,448;28635,943;33,35704
 871,37; 9646,225;  206,602;28572,759;33,27776
 871,93; 9672,608;  209,756;28351,421;33,62577
 872,49; 9599,529;  212,371;28081,236;33,68332
 873,04; 9557,604;  195,679;27925,513;33,76120
 873,60; 9543,294;  186,525;27833,021;33,84432
 874,16; 9561,908;  221,525;27777,452;33,89609
 874,72; 9533,600;  216,833;27668,529;33,93877
 875,28; 9566,523;  209,217;27578,529;34,18904
 875,84; 9529,600;  199,294;27488,606;34,19033
 876,40; 9546,908;  206,987;27558,144;34,14817
 876,95; 9613,215;  215,448;27464,990;34,48780
 877,51; 9653,215;  230,140;27389,683;34,69526
 878,07; 9702,446;  235,679;27404,067;34,84479
 878,63; 9638,908;  204,063;27450,683;34,62758
 879,19; 9687,985;  230,525;27395,837;34,81447
 879,75; 9720,138;  217,140;27518,144;34,80824
 880,30; 9718,677;  204,140;27504,067;34,85188
 880,86; 9828,062;  246,602;27632,837;34,98641
 881,42; 9897,908;  195,679;27613,990;35,38595
 881,98; 9877,523;  223,525;27740,298;35,08405
 882,54; 9956,908;  201,140;27807,452;35,33890
 883,09;10087,062;  203,217;27904,606;35,67996
 883,65;10114,062;  198,833;28032,606;35,62301
 884,21;10224,215;  243,371;28218,683;35,67733
 884,77;10201,831;  209,371;28177,913;35,72750
 885,32;10301,985;  199,140;28359,067;35,87667
 885,88;10457,908;  237,756;28573,144;36,06851
 886,44;10490,831;  216,448;28568,529;36,23855
 887,00;10534,369;  229,063;28618,067;36,30034
 887,56;10510,600;  201,987;28782,837;36,06825
 888,11;10578,369;  203,833;28804,913;36,27323
 888,67;10691,831;  242,679;28922,760;36,43348
 889,23;10684,908;  221,063;28964,837;36,40386
 889,79;10679,985;  197,217;28793,913;36,65727
 890,34;10683,138;  211,063;28712,298;36,74253
 890,90;10830,831;  263,448;28960,067;36,82449
 891,46;10756,677;  198,448;28711,144;37,02992
 892,01;10791,292;  232,756;28770,144;36,99896
 892,57;10824,754;  239,525;28721,913;37,16412
 893,13;10787,677;  212,140;28498,452;37,38747
 893,69;10722,138;  205,525;28414,990;37,28044
 894,24;10711,062;  213,602;28287,990;37,39159
 894,80;10751,677;  223,063;28159,298;37,68802
 895,36;10681,831;  214,833;28115,144;37,51570
 895,91;10580,908;  215,063;27910,990;37,42732
 896,47;10629,677;  218,910;27818,375;37,72090
 897,03;10572,369;  202,525;27609,375;37,83669
 897,58;10574,446;  222,679;27469,913;37,99199
 898,14;10504,062;  228,910;27214,529;38,07640
 898,70;10483,677;  191,756;27056,683;38,30988
 899,25;10510,908;  219,525;27118,913;38,25880
 899,81;10486,292;  231,525;26918,683;38,42585
 900,37;10421,908;  186,679;26720,760;38,57390
 900,92;10458,908;  213,987;26721,375;38,64930
 901,48;10418,523;  216,217;26582,221;38,69493
 902,03;10390,138;  210,217;26393,837;38,87897
 902,59;10308,292;  211,833;26299,452;38,70211
 903,15;10329,369;  236,294;26182,683;38,89973
 903,70;10205,369;  223,756;25924,990;38,83710
 904,26;10183,446;  195,140;25798,683;39,01142
 904,82;10213,215;  216,756;25776,529;39,11013
 905,37;10242,908;  210,833;25604,913;39,50556
 905,93;10184,446;  199,294;25466,144;39,51878
 906,48;10145,292;  224,910;25284,144;39,58773
 907,04;10173,600;  229,756;25327,221;39,62091
 907,60;10130,831;  197,217;25153,913;39,80340
 908,15;10083,908;  193,833;24999,837;39,86968
 908,71;10122,985;  231,448;25018,375;39,90626
 909,26;10090,138;  205,910;24807,067;40,17790
 909,82;10047,908;  230,140;24689,298;40,13943
 910,37;10065,062;  251,448;24686,375;40,16224
 910,93; 9962,600;  206,525;24474,913;40,20075
 911,48; 9940,062;  197,063;24251,221;40,50442
 912,04; 9874,446;  210,987;24162,067;40,34665
 912,60; 9967,831;  222,217;24160,298;40,71176
 913,15; 9880,831;  213,910;23950,221;40,72630
 913,71; 9860,908;  205,833;23840,067;40,85207
 914,26; 9799,985;  195,294;23721,760;40,82505
 914,82; 9780,215;  212,217;23677,683;40,77481
 915,37; 9736,908;  201,371;23610,067;40,73502
 915,93; 9756,523;  242,063;23501,683;40,90548
 916,48; 9677,369;  201,217;23327,298;40,97604
 917,04; 9650,215;  224,217;23170,529;41,07849
 917,59; 9647,138;  242,217;23080,913;41,17976
 918,15; 9554,754;  181,910;22879,837;41,29383
 918,70; 9555,523;  198,063;22880,298;41,25458
 919,26; 9548,446;  215,294;22711,452;41,48776
 919,81; 9461,985;  199,833;22521,221;41,49452
 920,37; 9438,831;  202,833;22501,144;41,42017
 920,92; 9438,369;  224,217;22416,913;41,51885
 921,48; 9380,292;  196,910;22247,529;41,64682
 922,03; 9327,446;  204,987;22186,760;41,50011
 922,59; 9334,754;  199,448;22080,990;41,74891
 923,14; 9264,985;  193,602;21856,067;41,87604
 923,69; 9326,369;  231,602;21813,837;42,14006
 924,25; 9332,831;  224,833;21808,683;42,19821
 924,80; 9225,138;  209,910;21624,683;42,09818
 925,36; 9198,062;  212,756;21531,375;42,14769
 925,91; 9191,138;  207,371;21426,221;42,33862
 926,47; 9169,292;  192,371;21330,606;42,46770
 927,02; 9202,523;  235,756;21237,990;42,69435
 927,57; 9190,369;  214,679;21092,990;42,99050
 928,13; 9127,523;  198,987;21051,067;42,81844
 928,68; 9128,908;  214,602;21010,298;42,86611
 929,24; 9087,831;  174,756;20707,298;43,40951
 929,79; 9037,138;  201,756;20650,529;43,20740
 930,34; 9040,369;  210,910;20506,144;43,50509
 930,90; 9022,292;  189,294;20477,990;43,53655
 931,45; 9052,138;  218,371;20442,760;43,67879
 932,01; 9030,062;  229,987;20300,990;43,84472
 932,56; 8959,215;  219,294;20153,837;43,84310
 933,11; 9010,908;  227,448;20151,067;44,08566
 933,67; 8939,600;  202,371;19957,298;44,22810
 934,22; 8916,677;  213,448;19845,683;44,33132
 934,77; 8879,062;  235,294;19716,144;44,37059
 935,33; 8905,062;  213,063;19619,067;44,79025
 935,88; 8864,831;  224,679;19557,452;44,69174
 936,43; 8837,831;  211,140;19404,683;44,94580
 936,99; 8844,215;  218,063;19388,837;44,99637
 937,54; 8783,754;  196,910;19159,760;45,28246
 938,09; 8784,369;  213,833;19112,990;45,34878
 938,65; 8725,292;  214,833;18999,683;45,30491
 939,20; 8705,292;  193,371;18904,529;45,49115
 939,75; 8670,369;  192,756;18855,913;45,42433
 940,31; 8640,754;  190,217;18765,606;45,49319
 940,86; 8705,985;  208,910;18741,760;45,84872
 941,41; 8663,985;  261,217;18618,067;45,77456
 941,96; 8595,062;  203,294;18531,683;45,78563
 942,52; 8600,600;  204,371;18390,221;46,16902
 943,07; 8542,062;  185,525;18250,298;46,25874
 943,62; 8487,831;  194,987;18187,067;46,09164
 944,18; 8472,215;  188,679;18077,375;46,30598
 944,73; 8505,292;  204,987;17980,067;46,69630
 945,28; 8400,985;  171,448;17817,298;46,63724
 945,83; 8438,062;  200,448;17900,529;46,53998
 946,39; 8452,292;  200,217;17766,837;46,97589
 946,94; 8396,677;  216,525;17710,990;46,75851
 947,49; 8331,985;  198,140;17559,683;46,84978
 948,04; 8355,138;  209,448;17533,990;47,01821
 948,59; 8351,908;  215,910;17451,837;47,20372
 949,15; 8278,292;  195,063;17338,606;47,15028
 949,70; 8243,908;  198,140;17245,144;47,19754
 950,25; 8228,908;  223,833;17110,067;47,40592
 950,80; 8166,677;  174,525;17025,990;47,42704
 951,36; 8174,369;  183,448;16968,375;47,60772
 951,91; 8209,754;  220,063;16986,375;47,65324
 952,46; 8090,754;  184,987;16705,221;47,85505
 953,01; 8153,215;  214,063;16755,144;47,99657
 953,56; 7987,831;  174,679;16636,990;47,46084
 954,11; 8084,215;  212,525;16604,298;48,02220
 954,67; 8049,600;  202,910;16519,760;48,08949
 955,22; 8009,985;  182,217;16359,067;48,38870
 955,77; 7993,908;  219,448;16325,760;48,26965
 956,32; 7982,138;  241,910;16267,067;48,30048
 956,87; 7925,908;  192,910;16121,683;48,54736
 957,42; 7919,523;  194,371;16073,221;48,65058
 957,98; 7913,908;  201,987;15934,298;49,01963
 958,53; 7877,062;  219,602;15933,760;48,72969
 959,08; 7805,600;  188,371;15792,990;48,81394
 959,63; 7793,369;  188,987;15764,606;48,82235
 960,18; 7786,292;  220,525;15669,529;48,97253
 960,73; 7760,677;  202,371;15648,298;48,93397
 961,28; 7702,523;  174,371;15491,606;49,14824
 961,83; 7743,908;  225,833;15445,375;49,39751
 962,39; 7660,138;  188,448;15338,144;49,31908
 962,94; 7605,215;  222,602;15222,683;49,21716
 963,49; 7595,292;  195,679;15134,221;49,53370
 964,04; 7624,292;  215,371;15090,837;49,80632
 964,59; 7582,292;  182,371;14968,990;50,04471
 965,14; 7584,908;  217,448;14867,913;50,28823
 965,69; 7595,215;  202,679;14836,375;50,51722
 966,24; 7557,831;  199,756;14702,529;50,73564
 966,79; 7509,062;  209,063;14632,990;50,61034
 967,34; 7453,446;  185,448;14482,760;50,83472
 967,89; 7411,600;  194,679;14468,144;50,56180
 968,44; 7430,600;  206,910;14355,837;51,05469
 968,99; 7444,754;  212,910;14314,529;51,28379
 969,55; 7465,369;  208,525;14219,990;51,79219
 970,10; 7385,985;  213,063;14147,452;51,47640
 970,65; 7397,523;  215,063;14005,990;52,08105
 971,20; 7367,062;  202,833;13916,606;52,24112
 971,75; 7313,215;  179,371;13785,913;52,42952
 972,30; 7294,369;  200,217;13733,221;52,42112
 972,85; 7258,062;  190,987;13635,221;52,56584
 973,40; 7200,754;  188,063;13475,221;52,77796
 973,95; 7200,138;  207,833;13460,221;52,76261
 974,50; 7170,600;  228,140;13368,221;52,83422
 975,05; 7125,369;  212,294;13339,913;52,66054
 975,60; 7101,446;  218,217;13244,298;52,84190
 976,15; 7034,369;  205,602;13059,375;53,12656
 976,70; 6986,215;  210,756;13049,298;52,77437
 977,25; 6934,600;  208,756;12956,990;52,75902
 977,80; 6896,677;  199,679;12824,067;53,04810
 978,35; 6832,831;  217,756;12692,221;53,02893
 978,89; 6802,985;  193,063;12586,067;53,33591
 979,44; 6802,292;  210,371;12541,375;53,45811
 979,99; 6702,292;  199,756;12421,529;53,20453
 980,54; 6736,985;  231,448;12338,452;53,73366
 981,09; 6653,369;  221,525;12251,683;53,46434
 981,64; 6638,446;  215,140;12166,529;53,74527
 982,19; 6624,062;  244,063;12148,913;53,59159
 982,74; 6557,908;  224,371;11990,144;53,83018
 983,29; 6484,523;  185,448;11820,067;54,14079
 983,84; 6436,369;  226,371;11734,221;53,96315
 984,39; 6440,908;  237,833;11668,375;54,26755
 984,94; 6351,677;  174,987;11529,298;54,39951
 985,49; 6354,523;  230,910;11452,760;54,56866
 986,03; 6309,369;  225,679;11379,067;54,54567
 986,58; 6237,523;  247,217;11277,990;54,30540
 987,13; 6201,754;  213,525;11125,221;54,87899
 987,68; 6121,985;  218,448;11025,990;54,62423
 988,23; 6087,677;  225,371;10975,529;54,53228
 988,78; 6037,215;  202,987;10827,452;54,91315
 989,33; 5969,369;  216,294;10752,452;54,60316
 989,88; 5959,600;  227,217;10662,913;54,93053
 990,42; 5857,446;  204,756;10464,221;55,09732
 990,97; 5855,985;  207,756;10439,298;55,20408
 991,52; 5823,062;  235,371;10357,221;55,20424
 992,07; 5763,369;  233,448;10245,529;55,23249
 992,62; 5713,446;  220,602;10119,683;55,48843
 993,17; 5652,215;  229,679; 9986,375;55,57759
 993,71; 5643,908;  217,602; 9936,298;55,83368
 994,26; 5561,908;  201,910; 9791,298;55,89510
 994,81; 5568,600;  239,063; 9783,144;55,84128
 995,36; 5497,062;  210,679; 9580,990;56,41630
 995,91; 5487,138;  220,371; 9553,067;56,43350
 996,45; 5416,908;  221,833; 9513,067;55,91372
 997,00; 5334,600;  202,833; 9352,529;56,08675
 997,55; 5312,831;  219,987; 9287,990;56,16279
 998,10; 5324,831;  239,910; 9143,067;57,11368
 998,65; 5268,062;  213,679; 9101,375;56,86944
 999,19; 5199,908;  230,063; 9017,606;56,55557
 999,74; 5157,908;  244,833; 8895,606;56,79348
1000,29; 5177,446;  232,217; 8837,913;57,46460
1000,84; 5055,985;  216,756; 8648,452;57,39330
1001,38; 5043,292;  212,679; 8550,067;57,93917
1001,93; 5028,754;  230,987; 8519,760;57,88272
1002,48; 4942,292;  207,679; 8383,760;57,90811
1003,03; 4942,831;  220,294; 8316,760;58,32837
1003,57; 4941,985;  225,140; 8151,913;59,50523
1004,12; 4855,215;  231,217; 8155,683;58,35092
1004,67; 4835,062;  213,063; 8012,606;59,25986
1005,22; 4757,831;  206,987; 7887,375;59,25279
1005,76; 4654,446;  201,294; 7718,837;59,23681
1006,31; 4681,600;  234,294; 7762,452;59,07562
1006,86; 4622,600;  210,679; 7636,837;59,41055
1007,40; 4522,600;  197,448; 7464,760;59,51516
1007,95; 4509,600;  215,448; 7399,529;59,77316
1008,50; 4415,138;  223,448; 7246,606;59,68384
1009,04; 4371,138;  219,910; 7168,837;59,73914
1009,59; 4309,600;  226,294; 7063,760;59,71958
1010,14; 4254,292;  204,756; 6964,990;59,90231
1010,68; 4173,985;  215,063; 6820,452;59,93472
1011,23; 4162,677;  201,833; 6752,452;60,46519
1011,78; 4081,754;  220,371; 6672,606;59,84566
1012,32; 4043,446;  211,833; 6552,913;60,42524
1012,87; 4040,908;  240,910; 6538,298;60,34244
1013,42; 3946,523;  203,756; 6396,529;60,43766
1013,96; 3962,138;  234,833; 6443,452;60,03438
1014,51; 3910,215;  185,756; 6337,375;60,54438
1015,06; 3901,138;  189,987; 6316,298;60,57726
1015,60; 3956,677;  251,756; 6416,990;60,09376
1016,15; 3919,600;  216,217; 6347,529;60,40115
1016,69; 3935,062;  216,679; 6386,067;60,27150
1017,24; 3902,677;  186,987; 6373,837;60,05787
1017,79; 3944,831;  236,294; 6422,913;59,94448
1018,33; 3950,292;  194,679; 6420,837;60,31992
1018,88; 4022,831;  225,602; 6471,837;60,79229
1019,42; 4018,985;  214,679; 6464,760;60,86811
1019,97; 4025,754;  214,756; 6489,452;60,73598
1020,51; 4062,292;  218,679; 6494,144;61,24826
1021,06; 4018,138;  190,987; 6484,144;60,81449
1021,61; 4006,677;  186,294; 6447,837;61,01345
1022,15; 3999,677;  166,602; 6419,375;61,30200
1022,70; 4018,908;  200,294; 6426,144;61,33481
1023,24; 4001,446;  205,448; 6356,760;61,71039
1023,79; 3983,062;  216,910; 6299,683;61,91505
1024,33; 3927,523;  202,525; 6244,529;61,65170
1024,88; 3918,600;  214,525; 6137,606;62,53629
1025,42; 3822,677;  206,217; 6075,990;61,61157
1025,97; 3818,908;  204,602; 5978,913;62,59284
1026,51; 3716,600;  183,371; 5862,067;62,21902
1027,06; 3732,215;  201,217; 5816,452;62,88247
1027,60; 3684,600;  226,063; 5688,067;63,31992
1028,15; 3615,446;  221,756; 5664,990;62,34694
1028,69; 3527,677;  184,140; 5511,990;62,75583
1029,24; 3493,600;  201,294; 5490,452;62,24632
1029,78; 3483,292;  196,756; 5361,452;63,63465
1030,33; 3369,908;  183,910; 5243,606;62,96817
1030,87; 3357,446;  195,756; 5187,452;63,33900
1031,42; 3306,062;  185,987; 5099,760;63,49652
1031,96; 3267,215;  212,602; 5028,067;63,43340
1032,51; 3220,754;  189,140; 4952,990;63,63789
1033,05; 3219,831;  210,371; 4917,606;63,93265
1033,60; 3138,062;  179,910; 4787,529;64,20131
1034,14; 3121,600;  201,371; 4741,606;64,31890
1034,69; 3096,677;  206,140; 4670,221;64,75099
1035,23; 3044,369;  201,679; 4589,913;64,77982
1035,77; 3016,523;  202,987; 4556,067;64,63323
1036,32; 2956,062;  177,525; 4467,221;64,77234
1036,86; 2948,446;  198,525; 4416,452;65,19604
1037,41; 2901,677;  211,833; 4347,144;65,04575
1037,95; 2867,446;  179,987; 4279,837;65,55019
1038,50; 2821,908;  195,679; 4237,144;64,98209
1039,04; 2806,677;  216,448; 4159,606;65,68920
1039,58; 2754,677;  187,217; 4092,452;65,74406
1040,13; 2730,138;  194,756; 4048,683;65,78699
1040,67; 2711,523;  221,294; 4048,221;65,07124
1041,21; 2676,138;  219,448; 3952,144;65,81544
1041,76; 2595,292;  183,217; 3869,913;65,42647
1042,30; 2585,523;  204,448; 3828,452;65,70288
1042,85; 2546,062;  205,448; 3741,990;66,18367
1043,39; 2514,215;  191,756; 3725,606;65,72038
1043,93; 2502,908;  206,910; 3681,760;66,07474
1044,48; 2483,677;  214,063; 3593,452;67,16048
1045,02; 2426,600;  198,140; 3577,606;65,94119
1045,56; 2418,908;  214,602; 3530,144;66,48402
1046,11; 2377,062;  208,448; 3482,990;66,22646
1046,65; 2335,215;  202,756; 3425,452;66,17005
1047,19; 2332,062;  203,217; 3378,144;67,05176
1047,74; 2256,215;  180,294; 3310,375;66,32165
1048,28; 2259,138;  209,602; 3271,529;66,93617
1048,82; 2241,523;  226,294; 3252,452;66,59365
1049,37; 2217,831;  206,910; 3168,221;67,90644
1049,91; 2156,369;  205,448; 3139,760;66,48650
1050,45; 2138,908;  229,987; 3105,067;66,39539
1050,99; 2116,600;  205,448; 3052,683;67,12309
1051,54; 2086,062;  192,217; 3018,683;67,00398
1052,08; 2082,908;  228,217; 2970,990;67,62099
1052,62; 2063,215;  221,679; 2910,837;68,48005
1053,16; 2026,754;  200,602; 2873,452;68,32227
1053,71; 1996,754;  208,063; 2857,144;67,52117
1054,25; 1959,446;  218,140; 2776,913;68,05237
1054,79; 1927,831;  224,371; 2769,913;66,91932
1055,33; 1878,369;  187,987; 2706,375;67,12160
1055,88; 1900,369;  222,217; 2691,067;67,97302
1056,42; 1866,754;  227,448; 2667,375;67,18667
1056,96; 1843,677;  206,910; 2601,298;68,35847
1057,50; 1809,754;  204,217; 2595,221;67,14906
1058,05; 1769,292;  206,448; 2504,990;67,99284
1058,59; 1766,831;  225,448; 2493,144;67,97131
1059,13; 1694,138;  192,525; 2439,144;66,83881
1059,67; 1718,600;  215,910; 2422,990;68,08497
1060,21; 1682,754;  209,217; 2369,990;68,19488
1060,76; 1665,523;  231,140; 2335,144;68,17396
1061,30; 1652,138;  230,063; 2338,990;67,43121
1061,84; 1618,831;  210,833; 2281,221;68,00647
1062,38; 1580,369;  204,833; 2233,452;67,80654
1062,92; 1615,292;  250,140; 2221,913;69,23474
1063,46; 1571,600;  231,294; 2198,375;68,13679
1064,01; 1544,215;  214,448; 2159,067;68,38189
1064,55; 1539,446;  215,679; 2124,221;69,36012
1065,09; 1475,985;  188,294; 2060,990;68,76131
1065,63; 1511,138;  234,217; 2096,221;68,57779
1066,17; 1489,985;  229,602; 2079,683;68,12582
1066,71; 1482,215;  225,679; 2040,837;69,22465
1067,25; 1467,369;  207,217; 1999,606;70,30574
1067,80; 1447,292;  237,063; 2000,067;68,64584
1068,34; 1463,292;  248,987; 1987,067;69,86475
1068,88; 1420,754;  213,602; 1910,683;71,13108
1069,42; 1424,985;  242,371; 1934,837;69,87519
1069,96; 1365,215;  216,602; 1905,375;68,01467
1070,50; 1377,523;  242,602; 1896,683;68,61341
1071,04; 1342,600;  208,063; 1826,913;70,08287
1071,58; 1326,138;  211,217; 1808,529;69,79986
1072,12; 1317,215;  208,756; 1799,837;69,66709
1072,66; 1311,292;  225,448; 1770,067;70,29851
1073,21; 1316,985;  226,525; 1767,144;70,78061
1073,75; 1278,446;  228,602; 1737,452;69,57910
1074,29; 1275,831;  223,756; 1714,837;70,55788
1074,83; 1265,523;  239,063; 1691,760;70,65893
1075,37; 1246,215;  222,679; 1680,452;70,21234
1075,91; 1243,138;  238,140; 1660,298;70,66713
1076,45; 1223,600;  221,140; 1629,144;71,19722
1076,99; 1206,138;  237,987; 1604,221;70,86279
1077,53; 1172,369;  208,910; 1574,144;70,57099
1078,07; 1178,908;  227,525; 1585,683;70,04950
1078,61; 1151,831;  210,987; 1563,452;69,56512
1079,15; 1138,138;  214,448; 1531,606;70,12755
1079,69; 1137,985;  221,525; 1531,067;69,98320
1080,23; 1136,677;  239,217; 1487,067;71,92047
1080,77; 1140,985;  245,987; 1506,067;71,02704
1081,31; 1093,138;  203,371; 1450,529;71,34361
1081,85; 1097,062;  231,833; 1455,298;70,71952
1082,39; 1079,138;  212,140; 1439,606;70,63320
1082,93; 1080,138;  225,448; 1430,144;70,94655
1083,47; 1048,215;  201,448; 1394,298;70,98691
1084,01; 1070,831;  233,140; 1393,067;72,21924
1084,55; 1013,831;  210,679; 1364,760;69,59235
1085,09; 1047,985;  233,371; 1356,221;72,54873
1085,63; 1027,754;  225,294; 1326,452;72,87418
1086,17; 1002,446;  208,371; 1307,452;72,24901
1086,71;  994,600;  213,987; 1283,298;73,00150
1087,24; 1013,831;  238,602; 1308,144;72,48230
1087,78;  968,600;  222,140; 1284,144;70,28784
1088,32;  934,908;  206,448; 1242,837;70,28828
1088,86;  987,369;  246,756; 1259,990;73,09398
1089,40;  953,600;  222,525; 1237,760;72,01045
1089,94;  911,215;  194,910; 1185,990;72,27522
1090,48;  927,908;  234,140; 1214,529;70,76453
1091,02;  935,523;  226,679; 1201,529;72,71316
1091,56;  922,831;  224,525; 1181,144;72,99725
1092,10;  881,677;  205,371; 1143,683;72,07689
1092,63;  908,292;  242,525; 1178,837;71,10532
1093,17;  893,369;  224,217; 1149,529;72,31639
1093,71;  861,062;  223,756; 1128,298;70,45616
1094,25;  888,677;  243,140; 1128,683;72,89731
1094,79;  861,062;  225,833; 1084,760;73,95610
1095,33;  852,292;  219,217; 1084,606;73,15501
1095,87;  834,062;  223,987; 1073,221;71,83822
1096,40;  816,523;  208,987; 1051,298;72,12730
1096,94;  807,369;  217,525; 1051,683;70,71136
1097,48;  818,677;  233,294; 1051,298;71,56234
1098,02;  801,292;  217,756; 1009,529;73,69997
1098,56;  776,523;  197,602; 1000,837;72,07373
1099,10;  780,138;  206,140;  963,144;75,82499
1099,63;  770,369;  205,217;  974,452;73,46938
1100,17;  777,754;  227,140;  976,990;73,42981
1100,71;  778,985;  233,448;  991,606;71,95555

