
Integration time [ms]: 120,000
Averaging Nr. [scans]: 13
Smoothing Nr. [pixels]: 0
Data measured with spectrometer [name]: 2009305U1
Wave   ;Sample   ;Dark     ;Reference;Reflectance
[nm]   ;[counts] ;[counts] ;[counts] ;[%]

 175,72;  188,396;  202,673;  202,814; 0,00000
 176,32;  229,141;  225,431;  219,229; 0,00000
 176,92;  259,476;  241,593;  259,926;97,54460
 177,52;  255,448;  251,671;  258,560;54,82912
 178,12;  231,504;  228,123;  221,690; 0,00000
 178,72;  271,312;  262,428;  250,906; 0,00000
 179,32;  257,507;  256,969;  246,180; 0,00000
 179,92;  250,537;  244,743;  247,528;208,05084
 180,52;  251,339;  240,295;  251,040;102,78833
 181,12;  251,532;  250,513;  250,351; 0,00000
 181,73;  278,391;  264,591;  277,112;110,21873
 182,33;  345,331;  344,982;  351,462; 5,38728
 182,93;  269,987;  260,594;  266,980;147,10444
 183,53;  240,880;  240,272;  226,189; 0,00000
 184,13;  242,409;  234,428;  232,913; 0,00000
 184,73;  278,659;  272,348;  270,276; 0,00000
 185,33;  276,578;  227,895;  345,845;41,27376
 185,93;  285,437;  241,810;  363,162;35,95032
 186,53;  319,525;  245,969;  383,769;53,37881
 187,13;  333,508;  274,977;  418,310;40,83525
 187,73;  287,064;  236,042;  378,887;35,71836
 188,33;  297,823;  240,114;  373,931;43,12517
 188,93;  305,992;  258,330;  373,870;41,25113
 189,53;  310,966;  257,396;  374,368;45,79692
 190,13;  345,368;  277,224;  424,265;46,34357
 190,73;  291,041;  216,698;  365,464;49,97288
 191,34;  316,134;  258,249;  403,767;39,77831
 191,94;  296,181;  218,263;  371,997;50,68333
 192,54;  308,852;  243,523;  387,787;45,28433
 193,14;  318,263;  247,900;  396,592;47,32152
 193,74;  313,830;  257,129;  400,532;39,53999
 194,34;  303,135;  240,671;  386,728;42,76714
 194,94;  273,726;  220,361;  356,781;39,11785
 195,54;  252,844;  204,742;  327,334;39,23789
 196,14;  281,969;  227,827;  378,689;35,88886
 196,74;  274,665;  222,971;  359,044;37,98968
 197,34;  263,551;  197,063;  371,027;38,21925
 197,94;  285,314;  228,132;  384,373;36,59882
 198,54;  285,104;  235,596;  395,794;30,90451
 199,14;  281,744;  219,374;  388,308;36,91968
 199,74;  260,435;  202,220;  401,273;29,24603
 200,34;  271,813;  196,990;  393,795;38,01857
 200,94;  296,752;  228,446;  426,289;34,52513
 201,54;  291,041;  204,218;  443,961;36,21504
 202,14;  313,163;  229,608;  481,986;33,10719
 202,74;  301,995;  219,912;  475,274;32,14404
 203,34;  289,467;  188,920;  492,839;33,08365
 203,94;  268,389;  167,224;  499,348;30,45998
 204,54;  342,560;  245,363;  589,973;28,20487
 205,14;  322,648;  199,220;  600,798;30,73576
 205,74;  375,238;  236,688;  696,371;30,14035
 206,34;  350,684;  209,069;  707,819;28,39391
 206,94;  379,769;  215,837;  774,562;29,34025
 207,54;  361,090;  180,146;  806,666;28,88089
 208,14;  390,449;  214,378;  884,062;26,29168
 208,74;  409,747;  211,373;  951,337;26,80854
 209,34;  423,779;  194,759; 1045,915;26,90690
 209,94;  444,069;  216,528; 1149,937;24,37748
 210,54;  461,537;  213,302; 1239,675;24,18564
 211,14;  490,379;  218,374; 1375,700;23,50292
 211,73;  517,488;  201,448; 1478,977;24,73836
 212,33;  546,060;  217,908; 1586,632;23,97508
 212,93;  547,056;  205,834; 1714,331;22,62001
 213,53;  548,130;  178,220; 1776,071;23,15051
 214,13;  568,776;  200,076; 1832,252;22,58944
 214,73;  581,933;  190,377; 1872,755;23,27392
 215,33;  567,300;  173,143; 1893,014;22,91783
 215,93;  617,895;  201,842; 2020,959;22,87114
 216,53;  586,809;  158,603; 2108,122;21,96467
 217,13;  669,517;  216,302; 2311,821;21,62780
 217,73;  722,970;  194,611; 2514,042;22,77965
 218,33;  722,423;  147,770; 2710,446;22,42396
 218,93;  820,216;  176,163; 3006,310;22,75686
 219,53;  894,961;  183,770; 3305,411;22,78259
 220,13;  951,988;  156,541; 3596,351;23,12473
 220,73; 1072,990;  191,836; 3941,482;23,49968
 221,32; 1207,439;  182,912; 4363,260;24,50818
 221,92; 1307,202;  190,848; 4775,100;24,35194
 222,52; 1424,948;  174,227; 5205,811;24,85739
 223,12; 1532,022;  171,612; 5659,397;24,78977
 223,72; 1694,713;  195,843; 6067,054;25,52914
 224,32; 1789,209;  201,998; 6450,584;25,40113
 224,92; 1935,248;  183,767; 6756,102;26,64930
 225,52; 2063,306;  200,684; 7072,450;27,10544
 226,12; 2182,653;  193,225; 7427,116;27,50149
 226,72; 2298,676;  164,840; 7739,306;28,17144
 227,31; 2441,638;  160,994; 8128,208;28,62537
 227,91; 2590,138;  178,452; 8522,116;28,90440
 228,51; 2738,054;  181,909; 8913,420;29,27495
 229,11; 2911,852;  182,301; 9324,768;29,85573
 229,71; 3080,866;  175,219; 9553,884;30,98145
 230,31; 3227,429;  170,000;10006,581;31,08224
 230,91; 3400,821;  162,060;10330,474;31,85119
 231,51; 3529,316;  162,304;10694,483;31,96881
 232,10; 3773,769;  171,616;11055,467;33,09631
 232,70; 3906,058;  189,671;11322,958;33,38086
 233,30; 4122,667;  200,534;11530,911;34,61609
 233,90; 4233,090;  179,764;11686,583;35,22543
 234,50; 4351,297;  181,534;11918,588;35,52649
 235,10; 4468,171;  166,536;11994,333;36,36886
 235,70; 4600,736;  187,221;12088,487;37,08441
 236,29; 4696,576;  187,988;12111,897;37,81132
 236,89; 4722,259;  166,599;12029,823;38,40154
 237,49; 4821,326;  197,687;11971,528;39,27044
 238,09; 4751,068;  176,993;11716,511;39,63836
 238,69; 4817,430;  218,442;11547,115;40,59600
 239,29; 4721,073;  172,223;11220,918;41,17093
 239,89; 4616,220;  193,907;10971,228;41,03351
 240,48; 4516,877;  176,531;10591,259;41,67507
 241,08; 4404,808;  175,145;10224,619;42,08840
 241,68; 4314,239;  196,993; 9925,720;42,32050
 242,28; 4139,766;  168,918; 9604,373;42,08433
 242,88; 4030,006;  214,538; 9311,832;41,94068
 243,48; 3955,866;  207,533; 8999,871;42,63181
 244,07; 3784,485;  190,298; 8722,403;42,12544
 244,67; 3667,447;  200,070; 8626,684;41,14793
 245,27; 3544,719;  198,602; 8464,284;40,48204
 245,87; 3477,703;  202,768; 8392,547;39,98807
 246,47; 3399,526;  190,295; 8414,382;39,02234
 247,06; 3347,131;  179,146; 8363,177;38,70936
 247,66; 3308,719;  176,685; 8450,657;37,85405
 248,26; 3283,810;  217,295; 8599,618;36,58311
 248,86; 3248,832;  200,757; 8748,312;35,66020
 249,46; 3164,163;  157,457; 8985,134;34,05999
 250,05; 3252,417;  203,377; 9328,022;33,41544
 250,65; 3233,493;  168,832; 9752,153;31,97911
 251,25; 3289,983;  174,760;10184,430;31,12213
 251,85; 3307,240;  191,137;10734,774;29,55435
 252,44; 3388,786;  155,835;11399,855;28,75263
 253,04; 3459,375;  197,451;12181,097;27,21980
 253,64; 3458,633;  155,678;12806,281;26,10907
 254,24; 3628,033;  195,146;13819,981;25,19581
 254,84; 3724,394;  170,996;14760,980;24,35505
 255,43; 3810,649;  175,527;15673,602;23,45531
 256,03; 3849,091;  178,063;16632,867;22,30977
 256,63; 3970,067;  183,214;17740,187;21,56894
 257,23; 4014,623;  177,907;18504,473;20,93527
 257,82; 4105,705;  190,672;19507,424;20,26755
 258,42; 4087,352;  145,747;20302,163;19,55509
 259,02; 4184,280;  190,682;21198,699;19,00988
 259,62; 4164,706;  173,669;21930,235;18,34406
 260,21; 4177,958;  179,989;22397,750;17,99448
 260,81; 4155,039;  187,994;22933,955;17,44066
 261,41; 4155,901;  162,594;23400,776;17,18425
 262,01; 4177,620;  205,975;23824,308;16,81594
 262,60; 4100,469;  158,984;24167,088;16,41731
 263,20; 4167,778;  164,756;24460,117;16,47649
 263,80; 4123,294;  201,359;24601,526;16,07339
 264,40; 4078,076;  163,976;24723,670;15,93709
 264,99; 4123,835;  187,974;24932,785;15,90580
 265,59; 4123,985;  179,353;25036,733;15,86906
 266,19; 4176,601;  165,821;25188,490;16,02858
 266,78; 4235,370;  212,895;25312,266;16,02620
 267,38; 4237,708;  186,739;25277,200;16,14546
 267,98; 4298,445;  172,049;25385,041;16,36615
 268,58; 4366,209;  188,354;25331,948;16,61598
 269,17; 4406,793;  171,427;25344,257;16,82515
 269,77; 4456,268;  191,520;25145,525;17,09043
 270,37; 4443,202;  163,205;25022,926;17,21659
 270,96; 4586,916;  215,441;24936,068;17,68351
 271,56; 4623,260;  174,753;24681,858;18,15191
 272,16; 4635,077;  178,979;24415,776;18,38567
 272,75; 4758,171;  177,210;24341,755;18,95737
 273,35; 4849,932;  187,057;24250,780;19,37720
 273,95; 4896,709;  186,287;24241,027;19,58209
 274,54; 5012,630;  175,300;24275,778;20,07151
 275,14; 5211,527;  200,519;24642,891;20,50131
 275,74; 5312,596;  153,825;24701,154;21,01561
 276,33; 5536,211;  213,136;25015,994;21,46154
 276,93; 5724,045;  195,455;25489,552;21,85724
 277,53; 5939,575;  185,065;26006,631;22,28567
 278,12; 6189,638;  172,215;26618,996;22,75295
 278,72; 6477,944;  216,219;27075,304;23,31325
 279,32; 6766,312;  186,064;27665,976;23,94567
 279,91; 7106,897;  164,832;28374,510;24,60880
 280,51; 7437,477;  172,373;28907,973;25,28259
 281,11; 7720,859;  183,525;29638,489;25,58935
 281,70; 7998,093;  165,370;30074,476;26,18842
 282,30; 8382,952;  181,214;30776,550;26,80715
 282,90; 8688,126;  178,752;31071,250;27,54511
 283,49; 9061,008;  191,519;31703,206;28,14667
 284,09; 9404,904;  213,908;32174,372;28,75739
 284,69; 9709,948;  201,602;32551,480;29,39222
 285,28;10115,597;  201,523;32877,715;30,34036
 285,88;10399,943;  235,209;33144,707;30,88693
 286,47;10679,435;  184,368;33220,054;31,76888
 287,07;10963,621;  209,679;33248,088;32,54982
 287,67;11335,481;  204,456;33355,794;33,57640
 288,26;11626,507;  172,448;33241,410;34,63689
 288,86;11999,499;  179,754;33428,826;35,54910
 289,46;12452,664;  192,063;33471,747;36,84110
 290,05;12871,291;  174,837;33601,850;37,98262
 290,65;13360,900;  180,521;33802,888;39,20122
 291,24;13908,579;  188,988;33879,003;40,72302
 291,84;14364,990;  206,368;34112,571;41,75821
 292,44;14947,554;  191,072;34235,115;43,34527
 293,03;15387,406;  241,449;34378,031;44,36870
 293,63;15850,242;  179,598;34411,921;45,77733
 294,22;16313,647;  205,832;34641,153;46,77701
 294,82;16722,209;  186,438;34577,243;48,08195
 295,41;16910,939;  169,832;34333,169;49,00314
 296,01;17287,563;  219,286;34338,309;50,02569
 296,61;17473,484;  198,218;34063,374;51,01192
 297,20;17434,194;  189,978;33632,022;51,56448
 297,80;17691,842;  203,223;33573,652;52,40753
 298,39;17707,625;  174,983;33088,159;53,26937
 298,99;17831,647;  220,749;32950,935;53,80629
 299,58;17901,910;  203,609;32750,873;54,37723
 300,18;18078,693;  204,683;32613,290;55,15205
 300,78;18051,994;  186,527;32260,315;55,70114
 301,37;18178,630;  187,512;32215,892;56,17242
 301,97;18272,549;  196,140;32287,880;56,32729
 302,56;18355,534;  183,983;32152,209;56,84254
 303,16;18434,484;  173,212;32088,694;57,21760
 303,75;18503,547;  183,605;32134,495;57,33781
 304,35;18742,234;  179,766;32333,153;57,73099
 304,94;18811,605;  186,064;32333,222;57,93838
 305,54;18843,824;  204,604;32260,260;58,14643
 306,13;18832,251;  168,074;32186,516;58,29196
 306,73;18835,651;  162,995;32020,506;58,61304
 307,33;18920,522;  202,378;31912,690;59,02857
 307,92;18938,829;  194,757;32025,129;58,88738
 308,52;19251,544;  158,596;32481,024;59,07028
 309,11;19567,374;  179,977;32994,471;59,08181
 309,71;19731,100;  160,590;33237,434;59,16680
 310,30;19923,196;  174,218;33455,381;59,33981
 310,90;20171,735;  210,295;33790,920;59,44332
 311,49;20215,603;  182,833;33948,536;59,32875
 312,09;20350,731;  159,914;34164,542;59,37667
 312,68;20640,823;  230,450;34592,532;59,39795
 313,28;20734,752;  166,988;34646,206;59,65264
 313,87;20756,583;  156,910;34788,836;59,48174
 314,47;20848,290;  172,902;35029,917;59,31486
 315,06;20888,231;  163,065;35299,219;58,98530
 315,66;20927,423;  164,914;35459,619;58,82613
 316,25;20781,770;  156,982;35359,386;58,58915
 316,85;20663,903;  158,914;35417,171;58,15656
 317,44;20697,333;  178,747;35551,114;58,00739
 318,04;20601,780;  157,214;35579,271;57,71705
 318,63;20485,131;  155,072;35726,555;57,15269
 319,22;20445,267;  181,905;35905,413;56,72277
 319,82;20307,098;  167,754;35877,499;56,39733
 320,41;20120,284;  187,829;35789,622;55,98722
 321,01;19989,908;  194,144;35985,116;55,30938
 321,60;19904,616;  183,216;36034,226;55,00933
 322,20;19736,038;  171,834;36012,471;54,58665
 322,79;19685,558;  204,065;36081,114;54,30071
 323,39;19527,546;  165,535;36264,448;53,63600
 323,98;19352,670;  162,373;36174,645;53,28821
 324,58;19198,486;  169,212;36082,534;52,98667
 325,17;18892,845;  180,674;35980,084;52,26949
 325,76;18683,469;  196,525;35776,620;51,95867
 326,36;18411,312;  163,298;35371,970;51,82818
 326,95;18130,479;  198,754;35069,435;51,42350
 327,55;17791,523;  161,138;34641,898;51,13108
 328,14;17400,396;  174,762;34387,672;50,34835
 328,74;17035,073;  192,213;33867,091;50,01610
 329,33;16744,506;  190,298;33500,292;49,69742
 329,92;16335,661;  162,978;33018,813;49,22317
 330,52;15794,509;  185,147;32312,238;48,58629
 331,11;15413,712;  168,446;31877,121;48,07916
 331,71;14949,973;  182,371;31285,125;47,48005
 332,30;14632,451;  205,371;30798,837;47,15739
 332,89;14265,836;  233,836;30230,908;46,77790
 333,49;13795,344;  194,370;29681,099;46,12575
 334,08;13398,350;  181,061;29290,311;45,40580
 334,68;13115,869;  180,908;28844,380;45,12698
 335,27;12798,965;  199,148;28509,180;44,50654
 335,86;12575,096;  240,446;28279,505;43,99096
 336,46;12238,790;  197,917;27999,599;43,30987
 337,05;12067,674;  182,908;27786,484;43,05517
 337,65;11810,580;  165,677;27644,737;42,37737
 338,24;11690,305;  223,681;27624,652;41,84751
 338,83;11479,188;  197,758;27574,945;41,20741
 339,43;11340,056;  171,674;27464,343;40,92081
 340,02;11113,060;  179,828;27356,946;40,22955
 340,61;11052,751;  174,680;27473,017;39,84884
 341,21;10960,458;  205,367;27452,091;39,47297
 341,80;10807,697;  178,753;27378,828;39,07689
 342,40;10754,315;  184,455;27491,454;38,70751
 342,99;10626,605;  182,451;27617,523;38,06862
 343,58;10541,891;  183,298;27786,907;37,52623
 344,18;10500,368;  195,298;27881,312;37,22121
 344,77;10409,003;  176,058;28227,568;36,47912
 345,36;10449,402;  168,447;28489,512;36,30144
 345,96;10388,159;  195,298;28794,851;35,63993
 346,55;10364,679;  166,843;29047,867;35,30982
 347,14;10316,372;  165,455;29447,062;34,66653
 347,74;10279,743;  151,771;29812,017;34,14662
 348,33;10406,114;  171,462;30503,914;33,74159
 348,92;10475,475;  191,928;31151,410;33,21615
 349,52;10548,140;  155,541;31617,050;33,03274
 350,11;10446,757;  183,519;31846,779;32,41371
 350,70;10374,694;  180,680;31873,408;32,16515
 351,29;10162,178;  155,818;31621,476;31,80089
 351,89; 9963,278;  185,362;31699,576;31,02700
 352,48; 9815,868;  158,680;31723,262;30,59501
 353,07; 9704,771;  175,148;31659,396;30,26791
 353,67; 9574,587;  186,851;31579,556;29,90420
 354,26; 9328,853;  189,455;31300,726;29,37648
 354,85; 9231,883;  179,607;31184,856;29,19595
 355,45; 9024,181;  158,753;31068,172;28,68196
 356,04; 8886,556;  171,610;30902,801;28,35863
 356,63; 8727,612;  197,062;30688,623;27,97676
 357,22; 8595,914;  185,820;30543,010;27,70380
 357,82; 8387,864;  191,976;30352,412;27,17430
 358,41; 8347,317;  202,294;30250,845;27,10621
 359,00; 8105,845;  168,982;29995,238;26,61032
 359,60; 8007,363;  188,065;30018,757;26,21226
 360,19; 7881,263;  182,611;29786,862;26,00523
 360,78; 7762,080;  194,523;29616,870;25,72044
 361,37; 7596,541;  178,985;29418,142;25,36857
 361,97; 7543,935;  196,986;29340,258;25,20976
 362,56; 7323,739;  175,365;29036,458;24,76820
 363,15; 7248,371;  220,907;28797,122;24,59200
 363,74; 7084,231;  188,056;28358,776;24,47994
 364,34; 6953,211;  197,905;28033,378;24,26870
 364,93; 6737,300;  172,211;27588,802;23,94568
 365,52; 6608,096;  153,908;27112,428;23,94118
 366,11; 6508,710;  173,982;26848,518;23,74822
 366,71; 6292,267;  170,598;26452,336;23,29248
 367,30; 6186,903;  172,370;26109,029;23,18931
 367,89; 6103,711;  227,607;25897,457;22,89107
 368,48; 5996,691;  186,594;25524,475;22,93047
 369,07; 5851,617;  179,603;25048,562;22,80760
 369,67; 5767,417;  197,980;24801,124;22,63710
 370,26; 5658,846;  178,219;24544,953;22,49225
 370,85; 5560,077;  183,216;24214,610;22,37432
 371,44; 5526,206;  179,601;23966,503;22,47710
 372,03; 5426,615;  168,751;23732,350;22,31350
 372,63; 5350,805;  156,293;23380,987;22,36633
 373,22; 5236,639;  176,834;23073,486;22,09845
 373,81; 5186,443;  157,139;22784,407;22,22674
 374,40; 5135,723;  177,916;22525,182;22,18530
 374,99; 5083,045;  172,445;22297,340;22,19491
 375,59; 4993,014;  164,453;22014,855;22,09827
 376,18; 4999,062;  194,753;21910,702;22,12341
 376,77; 4945,588;  189,140;21655,398;22,15779
 377,36; 4928,097;  198,292;21627,694;22,07157
 377,95; 4886,265;  193,213;21311,650;22,22253
 378,55; 4874,446;  166,683;21149,809;22,43595
 379,14; 4879,848;  196,908;21141,953;22,35822
 379,73; 4840,417;  184,137;20977,656;22,39294
 380,32; 4896,262;  192,832;20964,307;22,64370
 380,91; 4835,899;  164,133;20836,090;22,59954
 381,50; 4905,584;  190,981;20822,730;22,85120
 382,10; 4867,339;  169,601;20675,846;22,90882
 382,69; 4903,252;  156,908;20648,499;23,16240
 383,28; 4946,156;  201,674;20597,764;23,26173
 383,87; 4900,118;  171,981;20438,512;23,32978
 384,46; 4957,266;  168,284;20395,775;23,67561
 385,05; 4988,488;  201,058;20345,605;23,76539
 385,64; 5019,864;  173,290;20372,133;23,99431
 386,24; 5045,037;  160,207;20337,384;24,20968
 386,83; 5157,754;  204,283;20341,147;24,59902
 387,42; 5211,323;  197,982;20443,755;24,76241
 388,01; 5337,820;  187,663;20722,576;25,08001
 388,60; 5417,704;  185,669;20944,242;25,20421
 389,19; 5525,185;  171,195;21150,735;25,52005
 389,78; 5640,945;  177,043;21370,802;25,78071
 390,37; 5857,380;  234,666;21847,997;26,01503
 390,96; 5926,135;  180,052;22023,426;26,30584
 391,56; 6044,294;  184,039;22139,320;26,69178
 392,15; 6141,092;  169,582;22411,555;26,84793
 392,74; 6304,536;  150,800;22583,063;27,43252
 393,33; 6456,203;  174,192;22846,524;27,70783
 393,92; 6598,658;  192,027;23328,953;27,69007
 394,51; 6759,378;  174,577;23483,413;28,25024
 395,10; 6899,405;  210,938;23741,130;28,42504
 395,69; 7053,509;  191,709;23890,302;28,95446
 396,28; 7158,126;  189,164;24005,657;29,26107
 396,87; 7230,058;  197,000;24049,721;29,48535
 397,46; 7340,430;  196,915;24168,127;29,80039
 398,06; 7486,236;  211,983;24401,439;30,07200
 398,65; 7625,943;  191,424;24435,851;30,66486
 399,24; 7748,295;  197,112;24662,782;30,86440
 399,83; 7853,299;  175,619;24707,790;31,29638
 400,42; 8011,205;  214,283;24793,714;31,72133
 401,01; 8121,965;  189,019;24914,542;32,08404
 401,60; 8203,872;  199,975;24900,798;32,40336
 402,19; 8338,032;  220,863;24849,078;32,95882
 402,78; 8364,520;  222,501;24901,088;32,99224
 403,37; 8467,011;  204,834;24741,548;33,67271
 403,96; 8505,171;  203,697;24609,990;34,01366
 404,55; 8524,702;  211,322;24417,879;34,34350
 405,14; 8629,462;  194,415;24293,260;35,00187
 405,73; 8700,422;  207,883;24275,116;35,28673
 406,32; 8793,315;  205,219;24131,352;35,89421
 406,91; 8765,332;  198,856;23904,980;36,13613
 407,50; 8813,969;  207,674;23733,268;36,58269
 408,09; 8823,035;  183,730;23420,189;37,17995
 408,68; 8909,547;  192,793;23255,197;37,79638
 409,27; 8900,836;  185,273;23146,454;37,95782
 409,86; 8948,205;  197,701;22960,388;38,44231
 410,45; 9056,807;  238,122;22919,365;38,88096
 411,04; 9117,595;  238,082;22843,339;39,28074
 411,63; 9011,468;  211,592;22600,535;39,30456
 412,22; 9090,658;  218,021;22288,056;40,20219
 412,81; 9068,120;  223,652;22056,752;40,50945
 413,40; 9039,113;  235,979;21728,740;40,95860
 413,99; 8982,151;  260,589;21397,851;41,26155
 414,58; 8886,568;  202,285;21003,304;41,74932
 415,17; 8840,042;  218,036;20759,640;41,97338
 415,76; 8924,898;  210,789;20711,639;42,50609
 416,35; 8900,229;  191,259;20454,580;42,97899
 416,94; 9044,452;  230,023;20514,156;43,45480
 417,53; 9238,207;  201,576;20800,791;43,86881
 418,12; 9376,317;  201,580;20827,937;44,48065
 418,71; 9627,609;  220,980;21186,040;44,86812
 419,30; 9748,596;  211,736;21228,228;45,37798
 419,89; 9876,555;  194,893;21434,172;45,58376
 420,48;10167,396;  237,442;21733,900;46,19345
 421,07;10278,760;  215,368;21822,005;46,57547
 421,66;10354,491;  188,454;21846,735;46,93834
 422,25;10375,520;  208,395;21852,910;46,97322
 422,84;10444,382;  225,783;21737,539;47,50239
 423,43;10367,832;  215,391;21508,323;47,67987
 424,02;10374,811;  233,317;21253,813;48,24574
 424,60;10173,644;  215,646;20826,513;48,31431
 425,19;10153,268;  213,481;20615,233;48,72026
 425,78;10244,800;  234,251;20400,833;49,63929
 426,37;10195,118;  238,797;20253,664;49,74463
 426,96;10234,348;  222,105;20170,398;50,19098
 427,55;10231,429;  211,732;20039,514;50,53363
 428,14;10154,493;  203,353;19811,972;50,74881
 428,73;10137,804;  204,266;19667,866;51,03649
 429,32;10203,260;  222,719;19620,862;51,45101
 429,91;10299,839;  242,190;19615,704;51,91443
 430,50;10280,782;  231,888;19457,006;52,26961
 431,08;10260,764;  221,587;19289,596;52,64932
 431,67;10274,806;  259,438;19255,284;52,72399
 432,26;10209,908;  261,905;19013,763;53,05076
 432,85;10122,111;  275,980;18644,633;53,60290
 433,44;10022,811;  279,142;18309,281;54,04101
 434,03; 9838,686;  303,076;17873,504;54,27079
 434,62; 9730,634;  254,220;17499,553;54,95060
 435,21; 9705,720;  270,981;17245,806;55,58077
 435,79; 9581,942;  249,226;17166,079;55,16816
 436,38; 9630,992;  252,083;16985,729;56,04821
 436,97; 9575,079;  247,930;16873,153;56,10240
 437,56; 9584,096;  255,023;16748,946;56,56067
 438,15; 9563,083;  235,558;16658,115;56,79703
 438,74; 9633,304;  265,790;16633,993;57,22995
 439,33; 9674,221;  241,711;16658,018;57,45817
 439,91; 9745,889;  221,026;16713,130;57,75408
 440,50; 9839,846;  271,565;16805,548;57,87039
 441,09; 9933,906;  262,189;16895,628;58,14622
 441,68; 9947,214;  241,660;16963,225;58,04214
 442,27;10018,988;  233,887;16851,869;58,88261
 442,86;10072,980;  203,599;16819,088;59,39868
 443,44;10137,082;  227,595;16931,893;59,32298
 444,03;10241,324;  271,446;16995,269;59,61482
 444,62;10220,074;  226,600;16879,912;60,00893
 445,21;10151,012;  245,366;16666,519;60,32248
 445,80;10104,771;  265,147;16604,455;60,22057
 446,39;10003,879;  268,760;16364,850;60,48127
 446,97; 9920,457;  227,772;16116,035;61,00531
 447,56; 9758,246;  218,705;15890,562;60,87052
 448,15; 9754,823;  228,618;15759,022;61,33907
 448,74; 9618,143;  257,389;15456,208;61,58869
 449,33; 9549,603;  235,088;15347,125;61,63639
 449,91; 9458,902;  238,175;15103,327;62,02914
 450,50; 9343,415;  230,558;14860,535;62,28894
 451,09; 9312,407;  234,097;14801,560;62,31909
 451,68; 9310,091;  259,410;14724,733;62,56813
 452,26; 9227,158;  251,953;14609,451;62,51232
 452,85; 9216,272;  230,104;14421,058;63,32322
 453,44; 9309,607;  243,810;14491,666;63,62920
 454,03; 9276,216;  217,417;14426,473;63,75370
 454,61; 9276,159;  230,811;14415,041;63,77045
 455,20; 9432,264;  245,893;14580,549;64,08504
 455,79; 9490,239;  254,961;14556,496;64,57543
 456,38; 9601,466;  252,439;14684,904;64,77775
 456,97; 9686,730;  237,283;14765,098;65,04383
 457,55; 9669,904;  240,597;14742,400;65,02162
 458,14; 9760,530;  249,512;14730,724;65,67833
 458,73; 9701,994;  247,136;14630,007;65,73693
 459,31; 9762,094;  265,453;14709,332;65,74855
 459,90; 9850,239;  278,294;14787,950;65,96948
 460,49; 9950,429;  316,676;14902,291;66,04968
 461,08;10010,664;  239,457;14907,869;66,61394
 461,66;10060,289;  248,298;15049,536;66,29169
 462,25;10211,889;  251,999;15121,148;66,98359
 462,84;10234,523;  277,304;15109,398;67,13292
 463,43;10200,426;  215,394;15085,289;67,14931
 464,01;10254,092;  248,782;15117,756;67,28985
 464,60;10304,100;  291,775;15077,974;67,71399
 465,19;10149,057;  228,247;14843,912;67,87793
 465,77;10171,201;  248,251;14804,322;68,17053
 466,36;10094,522;  262,163;14688,107;68,15747
 466,95; 9930,746;  245,856;14414,014;68,35673
 467,53; 9752,399;  250,795;14096,619;68,62433
 468,12; 9585,641;  284,642;13785,386;68,89249
 468,71; 9463,032;  249,478;13594,462;69,04132
 469,29; 9299,057;  227,721;13304,237;69,37120
 469,88; 9115,725;  237,801;13053,236;69,27524
 470,47; 9239,041;  300,502;13186,269;69,36754
 471,06; 9225,173;  263,195;13153,729;69,52371
 471,64; 9286,149;  248,577;13220,818;69,66855
 472,23; 9334,530;  221,439;13272,338;69,82730
 472,81; 9383,846;  220,431;13340,822;69,84102
 473,40; 9496,912;  234,747;13485,729;69,89795
 473,99; 9667,027;  335,209;13697,135;69,83887
 474,57; 9787,780;  245,516;13793,499;70,43310
 475,16; 9896,336;  253,433;13941,336;70,44835
 475,75;10016,647;  273,676;14125,956;70,33478
 476,33;10121,837;  271,682;14198,006;70,73048
 476,92;10151,595;  275,979;14259,027;70,62563
 477,51;10245,086;  265,064;14328,410;70,96478
 478,09;10240,470;  257,910;14312,913;71,02495
 478,68;10247,281;  273,913;14221,761;71,50471
 479,27;10310,452;  287,599;14305,290;71,50145
 479,85;10266,168;  257,605;14283,426;71,35812
 480,44;10390,802;  254,839;14418,392;71,56371
 481,02;11395,653;  255,537;15815,136;71,59642
 481,61;12929,956;  283,919;17873,001;71,89708
 482,20;13865,671;  255,691;19099,150;72,22655
 482,78;14561,387;  299,453;19992,311;72,42186
 483,37;14997,868;  278,699;20533,405;72,67036
 483,95;15247,049;  304,393;20791,766;72,93593
 484,54;15402,174;  317,687;21021,241;72,85941
 485,13;15263,006;  274,631;20883,675;72,72717
 485,71;15182,348;  255,552;20621,442;73,29312
 486,30;15059,809;  284,013;20314,022;73,76829
 486,88;14775,547;  322,246;19987,396;73,49703
 487,47;14255,747;  301,556;19228,616;73,72614
 488,05;13541,554;  276,713;18322,323;73,50730
 488,64;12639,398;  297,104;17030,624;73,75791
 489,23;11273,524;  304,637;15145,886;73,90811
 489,81; 9655,147;  299,947;12970,050;73,83681
 490,40; 9159,100;  248,179;12323,096;73,79695
 490,98; 8917,428;  239,182;12008,747;73,73464
 491,57; 8862,557;  273,023;11980,192;73,36987
 492,15; 8749,037;  253,952;11882,885;73,05128
 492,74; 8742,762;  260,944;11757,133;73,77939
 493,32; 8698,240;  277,412;11662,063;73,96649
 493,91; 8582,420;  263,340;11601,767;73,37068
 494,50; 8644,926;  262,198;11572,590;74,11528
 495,08; 8491,506;  241,813;11485,521;73,37165
 495,67; 8507,715;  272,570;11503,391;73,32630
 496,25; 8463,886;  224,038;11384,741;73,82911
 496,84; 8458,007;  231,646;11343,679;74,03111
 497,42; 8463,430;  221,502;11293,373;74,44024
 498,01; 8456,555;  249,648;11233,564;74,71750
 498,59; 8365,519;  227,811;11193,057;74,21365
 499,18; 8291,839;  225,572;11124,262;74,01135
 499,76; 8307,673;  260,115;11101,294;74,23140
 500,35; 8175,158;  245,432;10862,542;74,68818
 500,93; 8130,144;  241,963;10813,297;74,61859
 501,52; 8123,886;  238,734;10757,351;74,96378
 502,10; 8091,898;  261,129;10747,595;74,67500
 502,69; 7948,335;  242,363;10559,944;74,68778
 503,27; 7848,058;  227,429;10349,820;75,28487
 503,86; 7809,903;  233,977;10292,458;75,31879
 504,44; 7706,956;  224,981;10143,073;75,43765
 505,03; 7527,744;  207,673; 9910,660;75,44142
 505,61; 7454,889;  228,441; 9867,810;74,96806
 506,19; 7347,727;  250,134; 9720,605;74,94446
 506,78; 7168,020;  215,912; 9514,755;74,76315
 507,36; 7046,133;  224,980; 9341,724;74,82005
 507,95; 6966,189;  231,532; 9195,965;75,12642
 508,53; 6852,291;  226,066; 9043,616;75,14814
 509,12; 6791,870;  230,530; 8892,813;75,74608
 509,70; 6654,512;  257,455; 8769,488;75,15310
 510,29; 6537,024;  247,459; 8619,416;75,12658
 510,87; 6372,868;  229,989; 8412,749;75,07100
 511,46; 6271,184;  219,298; 8211,179;75,72543
 512,04; 6130,906;  224,918; 8099,680;74,99894
 512,62; 6029,183;  237,914; 7993,451;74,67270
 513,21; 5915,926;  213,229; 7789,415;75,27133
 513,79; 5796,710;  220,165; 7669,221;74,86243
 514,38; 5673,507;  209,315; 7499,517;74,95255
 514,96; 5618,050;  244,391; 7433,540;74,74681
 515,54; 5507,321;  212,778; 7283,317;74,88175
 516,13; 5455,758;  226,779; 7157,826;75,44284
 516,71; 5296,320;  215,862; 7056,039;74,27379
 517,30; 5256,022;  208,251; 6931,959;75,07421
 517,88; 5200,082;  234,174; 6882,673;74,69216
 518,46; 5083,144;  213,022; 6747,913;74,52491
 519,05; 5043,005;  225,718; 6659,507;74,87480
 519,63; 5015,382;  224,178; 6659,420;74,45259
 520,22; 4960,486;  243,724; 6564,271;74,62586
 520,80; 4917,770;  227,494; 6466,969;75,17101
 521,38; 4915,116;  257,027; 6436,694;75,37766
 521,97; 4837,939;  218,883; 6429,178;74,37740
 522,55; 4843,959;  235,575; 6443,647;74,23213
 523,13; 4819,441;  216,732; 6398,186;74,45996
 523,72; 4828,896;  224,330; 6381,243;74,78693
 524,30; 4919,861;  239,351; 6545,207;74,22482
 524,89; 4971,684;  207,114; 6567,260;74,91290
 525,47; 5019,639;  238,660; 6665,749;74,38794
 526,05; 5059,403;  213,276; 6727,615;74,39169
 526,64; 5159,657;  229,356; 6855,141;74,41083
 527,22; 5277,391;  232,121; 6943,659;75,17308
 527,80; 5355,584;  269,432; 7065,555;74,83902
 528,39; 5424,180;  226,435; 7190,884;74,63253
 528,97; 5526,171;  226,510; 7359,112;74,30193
 529,55; 5702,863;  234,655; 7559,822;74,64960
 530,14; 5828,724;  257,130; 7734,782;74,50994
 530,72; 5918,170;  221,972; 7856,769;74,60838
 531,30; 6009,393;  217,746; 7992,942;74,48876
 531,89; 6095,663;  229,746; 8072,921;74,79008
 532,47; 6171,842;  256,594; 8217,595;74,30282
 533,05; 6196,200;  264,355; 8219,821;74,56314
 533,63; 6242,586;  252,056; 8273,838;74,67829
 534,22; 6254,643;  224,980; 8342,061;74,28363
 534,80; 6284,762;  241,755; 8435,057;73,75545
 535,38; 6374,810;  314,977; 8489,709;74,12883
 535,97; 6280,341;  234,133; 8436,888;73,70948
 536,55; 6356,680;  271,140; 8468,496;74,23784
 537,13; 6316,242;  265,745; 8446,124;73,96352
 537,71; 6332,881;  285,283; 8475,119;73,84273
 538,30; 6415,457;  305,674; 8570,323;73,92671
 538,88; 6457,384;  318,837; 8599,984;74,12678
 539,46; 6632,089;  344,062; 8806,603;74,30425
 540,05; 6671,704;  345,912; 8897,023;73,97626
 540,63; 6804,067;  386,296; 9111,519;73,55424
 541,21; 6924,777;  393,223; 9243,260;73,80256
 541,79; 6988,277;  411,761; 9345,393;73,61526
 542,38; 7107,728;  420,142; 9496,556;73,68093
 542,96; 7194,845;  444,997; 9640,398;73,40461
 543,54; 7306,435;  449,299; 9854,765;72,90586
 544,12; 7385,309;  405,685; 9999,510;72,75121
 544,70; 7436,919;  405,382;10057,138;72,85241
 545,29; 7560,130;  420,603;10257,492;72,57911
 545,87; 7584,816;  410,915;10329,470;72,32808
 546,45; 7552,018;  392,603;10323,885;72,08954
 547,03; 7588,019;  383,760;10485,760;71,31518
 547,62; 7695,735;  363,839;10602,636;71,60895
 548,20; 7858,195;  382,919;10766,056;71,99439
 548,78; 7900,836;  344,546;10952,908;71,22957
 549,36; 8008,304;  347,391;11183,078;70,70076
 549,94; 8131,610;  320,764;11287,724;71,22161
 550,53; 8272,335;  322,697;11513,627;71,03644
 551,11; 8460,880;  294,548;11726,288;71,43560
 551,69; 8646,999;  322,468;12059,610;70,92468
 552,27; 8806,601;  275,540;12330,394;70,76868
 552,85; 9054,881;  287,163;12753,477;70,33128
 553,44; 9298,442;  288,544;13036,442;70,67752
 554,02; 9509,719;  310,085;13449,201;70,01715
 554,60; 9753,683;  248,318;13720,860;70,55361
 555,18;10069,189;  287,852;14092,826;70,85372
 555,76;10286,738;  277,008;14460,557;70,57281
 556,34;10574,099;  292,169;14913,550;70,32119
 556,93;10808,225;  277,853;15329,007;69,96389
 557,51;10993,443;  240,707;15647,690;69,79132
 558,09;11265,938;  284,853;16070,707;69,56282
 558,67;11540,806;  280,172;16447,067;69,65242
 559,25;11683,434;  288,786;16734,988;69,28438
 559,83;11876,923;  273,791;17033,614;69,23183
 560,41;12081,723;  265,398;17391,253;68,99700
 561,00;12313,690;  280,634;17766,934;68,81419
 561,58;12419,149;  274,782;18011,072;68,47186
 562,16;12652,552;  268,625;18341,204;68,52330
 562,74;12859,237;  237,393;18731,886;68,24650
 563,32;13088,847;  245,867;19154,726;67,92044
 563,90;13313,671;  267,019;19544,270;67,67901
 564,48;13488,117;  267,550;20046,724;66,84084
 565,06;13818,560;  267,326;20579,929;66,71343
 565,65;14273,716;  272,181;21263,904;66,70027
 566,23;14736,901;  311,788;22040,081;66,38862
 566,81;15135,666;  279,324;22783,792;66,01508
 567,39;15702,703;  277,023;23701,381;65,85316
 567,97;15969,833;  289,940;24310,168;65,27787
 568,55;16549,387;  293,252;25197,412;65,27478
 569,13;16959,707;  270,634;25881,528;65,16396
 569,71;17526,245;  280,933;26851,239;64,90446
 570,29;18076,746;  308,160;27888,993;64,42367
 570,87;18454,118;  303,624;28621,612;64,09528
 571,45;18817,962;  296,018;29325,907;63,80301
 572,03;19038,350;  249,486;29702,693;63,79225
 572,61;19381,216;  242,944;30408,629;63,44385
 573,20;19737,903;  281,092;31069,696;63,19485
 573,78;20064,866;  260,329;31782,006;62,82831
 574,36;20271,318;  279,328;32300,505;62,43365
 574,94;20456,073;  317,256;32642,774;62,30006
 575,52;20541,662;  265,725;32846,235;62,23333
 576,10;20815,603;  308,953;33440,563;61,89452
 576,68;21060,446;  288,870;33975,623;61,66096
 577,26;21434,720;  309,574;34699,026;61,42914
 577,84;21750,026;  315,943;35186,679;61,46725
 578,42;21772,695;  350,873;35502,631;60,94097
 579,00;21794,423;  290,252;35667,901;60,78463
 579,58;21872,475;  329,718;35955,711;60,46921
 580,16;21822,439;  305,028;35934,796;60,39167
 580,74;21909,704;  303,875;36128,711;60,30964
 581,32;21871,662;  300,872;36230,094;60,03690
 581,90;21744,959;  327,182;36174,629;59,74701
 582,48;21757,996;  327,798;36293,768;59,58465
 583,06;21828,301;  317,718;36487,822;59,47061
 583,64;21785,496;  308,871;36568,753;59,22972
 584,22;21574,788;  320,649;36441,638;58,84152
 584,80;21305,271;  320,258;36211,539;58,46827
 585,38;21024,236;  324,553;35778,495;58,38471
 585,96;21020,244;  299,253;35838,913;58,30385
 586,54;20934,719;  319,802;35884,305;57,96487
 587,12;20795,178;  300,568;36082,359;57,27665
 587,70;20963,817;  326,331;36191,135;57,54245
 588,28;20816,410;  305,568;36305,241;56,97508
 588,86;20794,343;  315,031;36369,510;56,80102
 589,44;20766,469;  297,962;36510,054;56,52395
 590,02;20810,923;  307,114;36686,583;56,36094
 590,59;20852,240;  285,802;36964,214;56,07232
 591,17;20908,979;  298,047;37099,676;56,00549
 591,75;20823,854;  289,503;37335,237;55,42973
 592,33;20929,925;  309,655;37533,493;55,39534
 592,91;20985,087;  272,199;37770,302;55,23716
 593,49;21011,488;  276,587;38115,931;54,79720
 594,07;21063,162;  285,510;38350,610;54,58452
 594,65;20932,504;  301,418;38358,213;54,21131
 595,23;21027,252;  307,960;38870,395;53,72921
 595,81;20973,894;  283,500;38835,566;53,66870
 596,39;20966,660;  271,577;38992,460;53,44683
 596,97;20917,665;  305,198;39202,896;52,99148
 597,55;20722,300;  285,497;39101,230;52,65082
 598,12;20603,284;  272,973;39094,948;52,36805
 598,70;20502,560;  269,431;39324,222;51,80703
 599,28;20491,232;  292,662;39457,523;51,57320
 599,86;20467,754;  276,815;39468,964;51,51782
 600,44;20282,857;  251,740;39539,023;50,98626
 601,02;20297,052;  308,287;39632,593;50,83056
 601,60;20158,718;  285,734;39636,789;50,50178
 602,18;20011,518;  254,434;39624,823;50,18260
 602,75;19943,859;  259,269;39722,651;49,88065
 603,33;19804,885;  276,046;39733,774;49,49307
 603,91;19685,573;  263,669;39629,278;49,33724
 604,49;19607,056;  287,354;39768,137;48,93444
 605,07;19536,855;  289,734;39779,503;48,73951
 605,65;19489,410;  293,279;39876,357;48,49580
 606,23;19393,514;  322,032;39961,370;48,11252
 606,80;19349,667;  339,115;40031,476;47,89474
 607,38;19224,253;  361,129;40020,091;47,56333
 607,96;19200,265;  396,345;40120,463;47,33628
 608,54;19066,833;  436,971;40132,952;46,93136
 609,12;18974,801;  423,730;40212,084;46,62437
 609,70;18804,526;  447,584;40164,958;46,21892
 610,27;18755,769;  446,960;40221,891;46,03103
 610,85;18671,644;  452,660;40361,469;45,65153
 611,43;18506,541;  453,661;40190,327;45,43129
 612,01;18299,091;  428,579;39938,834;45,23006
 612,59;18178,276;  437,122;40005,832;44,83632
 613,16;18007,749;  400,803;40000,582;44,46223
 613,74;17876,788;  391,816;39860,382;44,30101
 614,32;17716,831;  378,203;39818,573;43,96163
 614,90;17535,405;  368,735;39740,501;43,60147
 615,48;17294,319;  336,420;39404,202;43,40635
 616,05;17178,024;  326,033;39490,968;43,02826
 616,63;16965,652;  335,569;39351,965;42,62332
 617,21;16767,981;  332,883;39185,457;42,30118
 617,79;16593,198;  313,578;39065,963;42,00934
 618,36;16451,125;  330,580;39125,867;41,55284
 618,94;16160,180;  261,959;38822,725;41,22901
 619,52;15971,666;  292,032;38375,453;41,17181
 620,10;15875,358;  285,269;38330,713;40,97754
 620,67;15693,940;  295,723;38250,497;40,56991
 621,25;15537,161;  306,350;38026,894;40,37803
 621,83;15413,814;  298,651;38062,774;40,02519
 622,41;15356,855;  328,959;38049,670;39,83991
 622,98;15168,557;  308,800;37788,029;39,64798
 623,56;15018,967;  314,030;37795,674;39,23237
 624,14;14805,437;  289,659;37659,464;38,84360
 624,72;14673,584;  301,805;37544,194;38,58984
 625,29;14610,024;  282,799;37675,744;38,31532
 625,87;14597,697;  326,270;37619,830;38,26781
 626,45;14336,398;  279,259;37344,439;37,92546
 627,02;14142,790;  287,732;37357,465;37,37566
 627,60;13999,609;  271,817;37247,702;37,12634
 628,18;13954,878;  253,730;37361,161;36,92292
 628,76;13806,592;  261,724;37356,021;36,51469
 629,33;13729,114;  296,726;37384,113;36,21821
 629,91;13665,819;  278,346;37340,329;36,12185
 630,49;13601,698;  296,956;37449,416;35,81120
 631,06;13476,954;  287,340;37625,831;35,32444
 631,64;13414,817;  293,568;37572,200;35,19778
 632,22;13270,220;  254,949;37478,527;34,96512
 632,79;13326,815;  288,257;37824,059;34,73632
 633,37;13248,051;  277,349;37826,435;34,54332
 633,95;13168,265;  270,644;37963,712;34,21749
 634,52;13083,566;  272,189;38068,796;33,89558
 635,10;13015,170;  282,499;38029,680;33,73145
 635,68;12939,931;  274,949;38237,268;33,36198
 636,25;12904,131;  266,637;38241,039;33,27898
 636,83;12863,823;  254,878;38432,405;33,02714
 637,41;12757,208;  251,487;38505,802;32,69101
 637,98;12814,057;  285,409;38627,908;32,67562
 638,56;12724,909;  273,867;38771,280;32,34254
 639,13;12618,387;  265,800;38871,974;31,99640
 639,71;12554,280;  311,878;39154,614;31,51787
 640,29;12285,293;  246,955;38826,648;31,20382
 640,86;12325,711;  252,032;38988,317;31,16891
 641,44;12247,206;  253,417;38967,062;30,98078
 642,02;12166,394;  276,341;38914,962;30,77246
 642,59;12040,965;  253,879;39161,323;30,29520
 643,17;11963,999;  263,110;39098,531;30,12942
 643,74;11916,417;  249,111;39141,738;29,99876
 644,32;11745,989;  286,649;39185,253;29,45951
 644,89;11685,715;  280,649;39099,692;29,38008
 645,47;11591,748;  291,111;39116,437;29,10635
 646,05;11508,244;  286,111;39135,414;28,88632
 646,62;11359,354;  264,189;39107,852;28,56364
 647,20;11377,311;  269,497;39209,444;28,52550
 647,77;11203,344;  249,804;39035,729;28,24102
 648,35;11102,916;  245,420;39003,398;28,01358
 648,92;11006,565;  272,651;39009,682;27,70970
 649,50;10927,445;  234,882;38843,966;27,69442
 650,08;10751,401;  246,882;38764,251;27,27216
 650,65;10712,512;  238,036;39112,535;26,94434
 651,23;10831,930;  220,421;39827,512;26,79194
 651,80;11029,040;  233,729;40797,488;26,61319
 652,38;11008,997;  246,499;41191,465;26,28528
 652,95;11028,415;  227,268;41534,057;26,14860
 653,53;11039,679;  255,961;41894,187;25,89860
 654,10;10992,713;  281,576;41945,318;25,70853
 654,68;10932,131;  241,577;41909,064;25,65683
 655,25;10833,318;  238,192;41917,579;25,42054
 655,83;10783,583;  237,423;42057,709;25,21781
 656,40;10731,693;  264,500;42034,840;25,05891
 656,98;10622,034;  239,270;41918,278;24,91126
 657,55;10519,298;  252,347;41811,332;24,70453
 658,13;10324,717;  241,116;41390,693;24,50475
 658,70;10201,289;  266,270;41249,977;24,24138
 659,28; 9964,322;  236,501;40241,339;24,31661
 659,85; 9612,971;  255,040;39406,315;23,90198
 660,43; 9565,697;  261,887;39494,676;23,71437
 661,00; 9548,269;  240,502;39551,730;23,67712
 661,58; 9537,764;  237,810;40107,784;23,32571
 662,15; 9504,105;  226,503;40183,453;23,21900
 662,73; 9582,754;  300,272;40518,660;23,08019
 663,30; 9481,864;  244,042;40675,406;22,84816
 663,88; 9468,359;  254,965;40897,306;22,66945
 664,45; 9415,778;  244,734;41079,282;22,45903
 665,03; 9534,888;  242,658;41416,797;22,56812
 665,60; 9589,768;  323,504;41846,697;22,31587
 666,17; 9486,340;  247,658;41960,520;22,14828
 666,75; 9446,142;  249,735;42413,650;21,81108
 667,32; 9552,868;  268,505;42639,396;21,91213
 667,90; 9519,056;  244,582;42979,604;21,70228
 668,47; 9530,243;  273,274;43192,888;21,56815
 669,05; 9543,815;  237,582;43631,019;21,44618
 669,62; 9427,541;  231,583;43641,611;21,18395
 670,19; 9441,882;  232,198;43783,433;21,14678
 670,77; 9363,454;  248,198;43903,025;20,88029
 671,34; 9303,949;  243,353;43823,310;20,79074
 671,92; 9323,983;  231,737;44287,748;20,63792
 672,49; 9265,478;  258,738;44173,340;20,50967
 673,06; 9213,434;  215,507;44343,470;20,39053
 673,64; 9159,852;  232,661;44171,293;20,31741
 674,21; 9007,117;  220,046;44244,347;19,95959
 674,79; 9055,766;  250,508;44513,323;19,89313
 675,36; 9031,645;  260,585;44484,223;19,83342
 675,93; 8906,756;  219,508;44374,123;19,67461
 676,51; 8901,943;  256,816;44710,176;19,44763
 677,08; 8880,977;  241,124;44763,692;19,40556
 677,65; 8872,318;  250,047;44833,976;19,33941
 678,23; 8854,197;  253,509;45032,876;19,20681
 678,80; 8809,000;  240,971;45153,160;19,07729
 679,38; 8826,111;  240,048;45315,367;19,04826
 679,95; 8879,144;  241,510;45585,344;19,04919
 680,52; 8841,178;  246,664;45759,705;18,88363
 681,10; 8872,519;  255,126;46247,374;18,73662
 681,67; 8851,937;  254,664;46474,505;18,60083
 682,24; 8875,124;  234,126;46637,789;18,62137
 682,82; 8902,542;  238,050;47233,381;18,43692
 683,39; 8934,038;  280,973;47459,127;18,34125
 683,96; 8922,148;  245,665;47797,719;18,24628
 684,54; 8889,643;  227,589;48127,234;18,08375
 685,11; 8952,753;  269,666;48378,288;18,04892
 685,68; 9012,018;  246,358;48929,495;18,00554
 686,25; 8927,282;  229,436;49081,164;17,80458
 686,83; 8896,239;  244,897;49196,602;17,67322
 687,40; 8933,041;  219,205;49533,271;17,67008
 687,97; 8963,690;  269,667;49965,556;17,49445
 688,55; 8980,416;  222,129;49932,071;17,61878
 689,12; 8921,680;  214,206;50320,663;17,37795
 689,69; 8935,406;  222,899;50349,716;17,38093
 690,26; 8902,978;  246,130;50497,462;17,22710
 690,84; 8900,396;  245,361;50658,285;17,16829
 691,41; 8890,430;  248,822;50775,800;17,10296
 691,98; 8911,233;  254,823;51050,469;17,04164
 692,56; 8868,497;  233,284;51139,369;16,96303
 693,13; 8917,530;  283,592;51161,576;16,96989
 693,70; 8898,179;  266,823;51358,245;16,89394
 694,27; 8774,520;  254,285;51426,453;16,65014
 694,84; 8837,016;  234,131;51492,583;16,78335
 695,42; 8883,818;  288,362;51602,791;16,75056
 695,99; 8854,159;  251,132;51901,229;16,65636
 696,56; 8773,962;  233,747;51796,052;16,56290
 697,13; 8839,073;  253,594;52059,182;16,57250
 697,71; 8796,491;  221,517;52124,466;16,52117
 698,28; 8826,063;  241,825;52567,212;16,40549
 698,85; 8765,942;  218,672;52430,573;16,37035
 699,42; 8776,976;  217,903;52602,627;16,33887
 699,99; 8785,086;  269,364;52899,758;16,18024
 700,57; 8790,274;  250,288;52759,427;16,26381
 701,14; 8785,077;  239,903;52950,788;16,21140
 701,71; 8740,264;  251,057;53144,841;16,04954
 702,28; 8715,913;  249,750;53175,587;15,99628
 702,85; 8682,254;  240,212;53278,641;15,91684
 703,43; 8727,749;  267,981;53533,464;15,88227
 704,00; 8794,629;  279,366;53798,363;15,91073
 704,57; 8712,739;  251,674;53675,417;15,83765
 705,14; 8759,465;  272,597;54065,932;15,77680
 705,71; 8752,729;  271,290;54061,216;15,76771
 706,28; 8697,147;  252,367;53901,808;15,74067
 706,86; 8780,950;  276,752;54297,400;15,74250
 707,43; 8739,753;  300,598;54147,300;15,67256
 708,00; 8730,633;  264,060;54117,123;15,72162
 708,57; 8637,358;  243,675;54126,561;15,57764
 709,14; 8682,315;  272,599;54215,230;15,59011
 709,71; 8695,195;  248,830;54312,438;15,62301
 710,28; 8730,844;  264,445;54427,876;15,63121
 710,86; 8687,031;  265,676;54698,083;15,47121
 711,43; 8749,911;  280,061;54701,983;15,56330
 712,00; 8696,098;  256,600;54690,575;15,50410
 712,57; 8767,516;  265,293;54991,705;15,53587
 713,14; 8768,627;  255,216;55000,451;15,55096
 713,71; 8745,891;  266,831;54936,505;15,50962
 714,28; 8727,694;  265,601;54977,558;15,46662
 714,85; 8714,112;  241,524;54659,535;15,56945
 715,42; 8791,453;  249,140;55004,127;15,60098
 716,00; 8881,256;  311,140;55111,181;15,63889
 716,57; 8816,751;  262,602;55229,773;15,56229
 717,14; 8813,246;  249,217;55154,826;15,59773
 717,71; 8792,125;  234,987;55096,957;15,59758
 718,28; 8836,313;  280,449;55273,164;15,55818
 718,85; 8778,885;  247,218;55374,218;15,47638
 719,42; 8827,457;  269,449;55454,810;15,50775
 719,99; 8819,106;  247,219;55223,709;15,59191
 720,56; 8872,139;  264,988;55553,840;15,56761
 721,13; 8885,173;  241,296;55688,124;15,58949
 721,70; 8863,591;  248,835;55484,255;15,59643
 722,27; 8874,317;  273,912;55549,770;15,55906
 722,84; 9004,581;  306,374;55677,900;15,70881
 723,41; 8928,076;  240,835;55715,569;15,65981
 723,98; 8945,110;  266,682;55931,161;15,59060
 724,55; 9057,451;  283,144;55921,215;15,77033
 725,12; 8968,484;  221,836;55925,192;15,70219
 725,69; 9038,518;  253,221;56131,091;15,72232
 726,27; 9046,936;  266,606;56193,145;15,69976
 726,84; 9151,431;  269,298;56558,891;15,77935
 727,41; 9186,849;  274,683;56495,175;15,85217
 727,98; 9265,652;  272,376;56762,306;15,92014
 728,55; 9277,301;  296,068;56619,205;15,94590
 729,12; 9301,565;  239,607;56799,951;16,02175
 729,69; 9323,752;  279,376;57065,620;15,92705
 730,26; 9358,478;  276,069;57301,443;15,92696
 730,82; 9389,896;  272,069;57015,958;16,06839
 731,39; 9419,776;  263,608;57200,396;16,08129
 731,96; 9501,117;  251,454;57379,758;16,19103
 732,53; 9519,151;  265,455;57658,119;16,12348
 733,10; 9573,723;  274,609;57655,326;16,20599
 733,67; 9666,141;  271,455;57940,841;16,29059
 734,24; 9563,636;  251,994;57573,126;16,24469
 734,81; 9639,285;  285,456;57668,949;16,30056
 735,38; 9579,395;  270,840;57484,925;16,26969
 735,95; 9592,583;  271,148;57348,594;16,33120
 736,52; 9632,693;  277,610;57559,878;16,33155
 737,09; 9616,265;  265,918;57244,547;16,41027
 737,66; 9696,375;  307,072;57340,678;16,46276
 738,23; 9729,178;  259,534;57458,193;16,55571
 738,80; 9891,519;  314,919;57686,631;16,69220
 739,37; 9893,707;  294,150;57997,146;16,63615
 739,94; 9928,740;  266,765;58021,969;16,72919
 740,51;10002,158;  361,073;58162,869;16,67956
 741,07; 9997,884;  257,304;57969,230;16,87793
 741,64;10078,841;  299,458;58260,591;16,87231
 742,21;10104,028;  268,459;58352,491;16,93335
 742,78;10098,600;  238,074;58040,006;17,05916
 743,35;10185,095;  267,921;58393,598;17,06161
 743,92;10261,667;  293,382;58500,806;17,12545
 744,49;10321,470;  272,075;58297,244;17,31903
 745,06;10304,965;  262,537;58309,990;17,30038
 745,63;10345,152;  246,922;58349,813;17,37991
 746,19;10354,955;  260,537;58279,174;17,39858
 746,76;10445,604;  260,614;58369,227;17,52750
 747,33;10431,561;  256,307;58286,589;17,53439
 747,90;10535,671;  280,384;58549,027;17,60001
 748,47;10539,935;  276,615;58454,850;17,64117
 749,04;10647,123;  273,000;58474,596;17,82446
 749,61;10633,925;  287,308;58464,495;17,78466
 750,17;10678,651;  285,693;58499,856;17,85297
 750,74;10748,685;  274,001;58413,910;18,01634
 751,31;10724,949;  257,078;58361,194;18,01571
 751,88;10727,136;  231,463;58242,479;18,09255
 752,45;10830,247;  261,617;58344,071;18,19591
 753,02;10838,050;  282,848;58210,355;18,22140
 753,58;10908,160;  249,232;58226,639;18,38462
 754,15;10978,963;  258,617;58347,616;18,45504
 754,72;10962,227;  247,156;58025,824;18,54503
 755,29;10974,722;  241,156;57871,723;18,62478
 755,86;11040,217;  262,387;58023,931;18,65918
 756,42;11079,097;  267,311;57938,600;18,74726
 756,99;11136,592;  228,388;57931,653;18,90396
 757,56;11167,087;  235,003;57765,245;19,00233
 758,13;11224,044;  200,234;57725,068;19,16357
 758,70;11331,693;  227,773;57822,122;19,27953
 759,26;11423,418;  223,696;57884,329;19,42352
 759,83;11441,452;  234,543;57974,152;19,40940
 760,40;11479,870;  219,928;57712,590;19,58501
 760,97;11483,903;  197,774;57783,567;19,59881
 761,53;11435,399;  193,697;57436,697;19,63856
 762,10;11533,432;  196,544;57388,905;19,82238
 762,67;11498,927;  229,313;57454,112;19,69358
 763,24;11515,422;  189,852;56929,781;19,96049
 763,80;11623,302;  228,314;57080,835;20,04307
 764,37;11596,258;  218,929;57096,119;20,00333
 764,94;11544,369;  215,391;56619,172;20,08549
 765,50;11627,402;  216,314;56701,841;20,20179
 766,07;11729,590;  252,622;56651,433;20,34966
 766,64;11664,777;  230,776;56431,872;20,34480
 767,21;11714,041;  225,777;56265,618;20,50017
 767,77;11782,383;  250,315;56115,825;20,64255
 768,34;11778,416;  239,239;56116,109;20,65108
 768,91;11845,834;  255,162;55937,317;20,81578
 769,47;11914,329;  245,008;55948,909;20,94884
 770,04;11969,440;  262,855;55841,962;21,06292
 770,61;11893,781;  240,086;55658,939;21,02839
 771,18;11968,507;  231,932;55498,454;21,23632
 771,74;12049,848;  246,932;55584,123;21,32908
 772,31;12143,035;  247,317;55284,253;21,61406
 772,88;12036,377;  225,471;55091,615;21,52676
 773,44;12050,795;  228,471;55019,130;21,57726
 774,01;12179,751;  246,010;55033,953;21,78169
 774,58;12108,093;  234,549;54714,775;21,79423
 775,14;12236,434;  230,703;54775,598;22,01073
 775,71;12322,775;  238,395;54690,421;22,19271
 776,27;12325,808;  283,857;54724,475;22,11942
 776,84;12475,073;  308,165;54764,067;22,34268
 777,41;12474,029;  245,165;54464,966;22,55424
 777,97;12459,140;  244,550;54181,635;22,64599
 778,54;12532,635;  259,012;54240,381;22,73678
 779,11;12580,591;  268,551;54182,666;22,83640
 779,67;12644,779;  228,166;54092,642;23,05158
 780,24;12662,120;  251,936;53933,388;23,11820
 780,80;12725,384;  269,013;53984,749;23,18943
 781,37;12863,033;  254,859;53989,264;23,46388
 781,94;12868,221;  246,783;53653,703;23,63259
 782,50;12914,793;  257,091;53683,833;23,69170
 783,07;12909,980;  281,937;53762,964;23,61219
 783,63;12923,706;  240,860;53436,556;23,84186
 784,20;12969,893;  273,399;53488,686;23,85873
 784,77;13027,465;  256,553;53280,586;24,08514
 785,33;12997,422;  229,784;52997,332;24,19600
 785,90;13032,609;  253,015;53002,078;24,22715
 786,46;13061,412;  269,861;52896,439;24,30626
 787,03;13098,368;  242,092;52744,339;24,48710
 787,59;13184,248;  248,631;52615,315;24,70200
 788,16;13178,820;  258,478;52575,292;24,69635
 788,73;13215,469;  265,401;52391,576;24,84369
 789,29;13218,349;  244,786;51910,014;25,11082
 789,86;13285,074;  267,171;51898,222;25,21332
 790,42;13316,954;  257,094;51859,737;25,30851
 790,99;13272,526;  272,479;51447,944;25,40289
 791,55;13298,406;  245,633;51501,152;25,46608
 792,12;13405,901;  265,556;51433,359;25,68088
 792,68;13420,165;  254,556;51144,874;25,87056
 793,25;13421,583;  265,941;50834,543;26,01544
 793,81;13469,001;  309,249;50529,058;26,20431
 794,38;13368,804;  217,557;50328,112;26,24446
 794,94;13451,761;  244,173;50104,243;26,48931
 795,51;13486,948;  257,788;49860,681;26,67014
 796,07;13565,905;  260,789;49633,504;26,94832
 796,64;13605,938;  264,712;49687,480;26,99409
 797,20;13584,433;  258,558;49121,303;27,27206
 797,77;13559,544;  229,328;48871,664;27,40456
 798,33;13550,808;  241,866;48671,641;27,48091
 798,90;13606,303;  274,636;48687,771;27,53729
 799,46;13541,721;  246,251;48125,363;27,76883
 800,03;13565,755;  270,790;48025,109;27,84034
 800,59;13573,173;  272,713;47941,624;27,90175
 801,15;13566,052;  258,175;47589,524;28,11641
 801,72;13625,317;  252,406;47287,732;28,43163
 802,28;13592,812;  285,560;46983,631;28,49636
 802,85;13571,230;  249,330;46889,300;28,56327
 803,41;13556,494;  246,561;46712,892;28,64425
 803,98;13530,835;  249,484;46328,330;28,82310
 804,54;13551,638;  249,946;46006,846;29,07035
 805,11;13532,749;  258,485;45810,130;29,14113
 805,67;13566,090;  272,100;45752,414;29,23021
 806,23;13523,046;  262,408;45267,006;29,46507
 806,80;13581,772;  275,562;45117,444;29,67362
 807,36;13638,960;  282,793;45013,267;29,85921
 807,93;13572,224;  286,024;44813,321;29,83833
 808,49;13515,642;  245,640;44510,144;29,97888
 809,05;13539,291;  234,640;44363,505;30,14954
 809,62;13639,171;  270,410;44212,405;30,42366
 810,18;13643,589;  263,871;44157,151;30,48238
 810,74;13549,699;  232,025;43883,896;30,50883
 811,31;13574,194;  245,872;43546,335;30,78102
 811,87;13652,458;  256,564;43534,004;30,95353
 812,44;13712,107;  283,949;43399,288;31,14474
 813,00;13660,141;  209,719;43112,880;31,35066
 813,56;13790,021;  260,950;43217,010;31,49514
 814,13;13768,439;  259,565;43157,449;31,49077
 814,69;13825,857;  251,719;42808,348;31,89665
 815,25;13746,121;  229,104;42601,479;31,90054
 815,82;13818,385;  275,335;42334,840;32,19974
 816,38;13821,342;  298,182;42184,817;32,28514
 816,94;13718,299;  235,490;41865,486;32,38725
 817,51;13724,255;  226,644;41713,001;32,53506
 818,07;13751,519;  242,105;41376,747;32,84194
 818,63;13698,091;  265,336;41247,262;32,77727
 819,20;13783,971;  249,798;41189,777;33,05857
 819,76;13676,697;  235,414;40615,138;33,28721
 820,32;13730,807;  268,952;40609,961;33,37015
 820,89;13756,072;  270,799;40403,553;33,60166
 821,45;13666,951;  233,338;40010,145;33,77248
 822,01;13721,831;  273,876;39788,660;34,03272
 822,57;13708,941;  267,107;39675,791;34,10881
 823,14;13693,821;  238,415;39514,075;34,25889
 823,70;13649,162;  241,108;39247,282;34,37418
 824,26;13599,888;  235,262;39008,797;34,46842
 824,82;13726,922;  257,570;38887,005;34,86810
 825,39;13658,109;  239,647;38619,828;34,96196
 825,95;13720,912;  261,878;38651,958;35,05862
 826,51;13605,330;  258,340;38153,550;35,22078
 827,08;13741,748;  278,417;38206,065;35,49741
 827,64;13691,320;  257,186;38029,657;35,56594
 828,20;13664,661;  242,956;37724,249;35,80908
 828,76;13729,387;  273,494;37724,072;35,92973
 829,32;13783,728;  275,879;37573,895;36,21600
 829,89;13687,377;  234,187;37475,256;36,12461
 830,45;13748,718;  253,572;37367,925;36,36099
 831,01;13807,521;  241,188;37192,517;36,71406
 831,57;13760,324;  252,188;37083,494;36,67569
 832,14;13797,896;  246,496;37046,163;36,82479
 832,70;13797,545;  233,111;36757,370;37,13815
 833,26;13765,809;  214,189;36663,808;37,17904
 833,82;13892,996;  238,343;36525,016;37,62994
 834,38;13976,645;  233,804;36584,069;37,80671
 834,95;13915,679;  234,882;36441,892;37,78494
 835,51;13932,405;  205,343;36314,946;38,01499
 836,07;14054,207;  243,190;36355,615;38,24450
 836,63;14088,395;  262,882;36381,668;38,27790
 837,19;14099,582;  247,421;36206,645;38,52186
 837,75;14051,385;  215,421;35942,391;38,72694
 838,32;14160,803;  258,268;36010,829;38,88542
 838,88;14207,067;  257,499;36027,575;38,99787
 839,44;14247,639;  251,499;35891,705;39,27065
 840,00;14344,519;  248,961;35852,067;39,59081
 840,56;14263,091;  224,422;35544,428;39,74707
 841,12;14324,586;  231,346;35616,482;39,82814
 841,68;14293,158;  218,654;35367,151;40,04298
 842,25;14431,422;  231,039;35432,358;40,34049
 842,81;14395,379;  224,193;35091,796;40,64285
 843,37;14458,566;  205,270;35087,311;40,86142
 843,93;14486,292;  234,885;35064,749;40,91720
 844,49;14568,172;  240,578;35030,880;41,18272
 845,05;14495,282;  202,040;34888,395;41,20710
 845,61;14655,162;  253,809;34860,756;41,61405
 846,17;14583,195;  233,040;34734,348;41,59308
 846,73;14671,460;  242,810;34729,863;41,83787
 847,29;14602,493;  215,733;34468,763;42,00142
 847,86;14674,757;  221,118;34521,817;42,13803
 848,42;14591,022;  208,580;34236,024;42,26718
 848,98;14683,824;  241,811;34193,924;42,53642
 849,54;14717,166;  228,965;34233,670;42,60646
 850,10;14730,353;  237,734;34080,108;42,82388
 850,66;14790,925;  216,734;33874,469;43,30116
 851,22;14793,035;  212,504;33864,061;43,32795
 851,78;14922,992;  268,043;33891,807;43,58509
 852,34;14915,795;  237,274;33624,938;43,96391
 852,90;14910,367;  226,889;33522,991;44,09969
 853,46;14929,400;  218,120;33292,583;44,47927
 854,02;15015,818;  234,274;33293,791;44,71192
 854,58;15025,775;  221,659;32997,075;45,16835
 855,14;15063,424;  221,736;32969,359;45,32142
 855,70;15060,457;  196,121;32805,721;45,58270
 856,26;15034,183;  242,275;32805,159;45,42567
 856,82;14999,909;  229,429;32524,905;45,73545
 857,38;15133,789;  246,276;32449,035;46,23055
 857,94;15093,130;  240,430;32373,473;46,22251
 858,50;15112,317;  249,661;32173,527;46,55657
 859,06;15057,120;  224,892;32001,965;46,67588
 859,62;15111,000;  242,969;31978,326;46,85005
 860,18;15003,187;  227,738;31700,841;46,94627
 860,74;15056,528;  195,431;31622,280;47,28790
 861,30;15073,177;  207,893;31446,333;47,58651
 861,86;15160,518;  260,124;31459,925;47,75798
 862,42;15116,937;  226,662;31272,133;47,96279
 862,98;15183,893;  253,047;31308,571;48,07791
 863,54;15041,696;  233,971;31118,394;47,94561
 864,10;15156,268;  223,202;31050,293;48,44137
 864,66;15074,148;  208,202;30911,809;48,41759
 865,22;15051,181;  230,510;30695,324;48,64849
 865,78;15085,753;  229,895;30639,608;48,85235
 866,34;15098,556;  226,664;30513,200;49,10397
 866,90;15020,974;  236,895;30375,023;49,05440
 867,45;15029,854;  230,818;30249,076;49,30011
 868,01;15016,118;  235,511;30036,976;49,59691
 868,57;14927,074;  226,434;29866,799;49,59669
 869,13;14924,646;  211,204;29736,391;49,83353
 869,69;14960,526;  215,512;29661,214;50,07527
 870,25;14935,175;  209,512;29513,113;50,25206
 870,81;15019,516;  218,974;29522,167;50,50829
 871,37;14957,934;  225,974;29387,682;50,51817
 871,93;14968,583;  233,436;29172,197;50,91838
 872,49;14935,540;  253,897;29027,866;51,02404
 873,04;14935,266;  212,513;28819,304;51,46593
 873,60;14879,376;  219,667;28684,666;51,50082
 874,16;14934,794;  236,206;28544,181;51,92384
 874,72;14967,871;  222,437;28517,873;52,11241
 875,28;14938,333;  226,052;28424,873;52,17339
 875,84;15032,333;  226,590;28321,873;52,69832
 876,40;15104,179;  220,513;28379,412;52,85599
 876,95;15110,948;  239,129;28235,104;53,12128
 877,51;15169,410;  260,052;28329,873;53,11526
 878,07;15207,102;  269,744;28231,488;53,42069
 878,63;15210,179;  228,283;28280,027;53,40807
 879,19;15284,640;  235,898;28263,258;53,69304
 879,75;15375,871;  226,590;28335,642;53,89467
 880,30;15410,563;  230,821;28199,027;54,27500
 880,86;15485,410;  267,821;28385,488;54,12109
 881,42;15556,256;  216,667;28452,104;54,32744
 881,98;15648,948;  240,898;28461,335;54,59891
 882,54;15728,640;  224,744;28577,719;54,68173
 883,09;15859,871;  238,513;28735,488;54,81760
 883,65;15988,256;  214,283;28770,335;55,23863
 884,21;16099,487;  256,206;28987,565;55,14282
 884,77;16140,717;  221,360;28983,104;55,34907
 885,32;16307,871;  230,975;29187,642;55,52053
 885,88;16375,948;  259,283;29262,335;55,56886
 886,44;16532,102;  237,513;29484,642;55,71346
 887,00;16612,640;  254,360;29404,412;56,11750
 887,56;16748,794;  231,437;29648,488;56,14892
 888,11;16794,102;  236,360;29552,412;56,48012
 888,67;17024,717;  264,206;29822,412;56,70341
 889,23;16967,025;  237,667;29833,873;56,52535
 889,79;16982,102;  214,360;29723,027;56,82311
 890,34;17056,717;  239,360;29613,258;57,25273
 890,90;17188,871;  302,975;29761,181;57,32154
 891,46;17178,256;  225,667;29652,104;57,61006
 892,01;17249,025;  252,975;29674,104;57,76818
 892,57;17190,179;  252,821;29550,335;57,81159
 893,13;17147,640;  233,283;29317,873;58,15574
 893,69;17188,640;  227,129;29388,719;58,16388
 894,24;17210,333;  236,667;29281,335;58,43987
 894,80;17259,948;  231,052;29059,104;59,07058
 895,36;17236,333;  230,129;28942,873;59,22877
 895,91;17164,333;  231,206;28773,719;59,32598
 896,47;17254,179;  258,975;28624,412;59,91519
 897,03;17188,948;  220,667;28386,335;60,24455
 897,58;17142,487;  238,821;28392,488;60,04072
 898,14;17146,717;  239,975;28132,565;60,61374
 898,70;17048,563;  209,667;27967,642;60,66327
 899,25;17096,871;  228,129;27958,719;60,83081
 899,81;17061,410;  250,590;27772,104;61,08247
 900,37;16895,794;  217,437;27573,104;60,96856
 900,92;16944,333;  240,283;27632,719;60,98052
 901,48;16920,333;  224,821;27419,488;61,39259
 902,03;16866,102;  223,513;27255,796;61,56561
 902,59;16841,487;  226,052;27215,412;61,56291
 903,15;16805,179;  256,052;26958,950;61,97502
 903,70;16650,717;  244,052;26687,181;62,04510
 904,26;16610,410;  217,744;26660,335;61,99342
 904,82;16623,563;  236,744;26648,488;62,04368
 905,37;16660,102;  240,052;26469,873;62,60069
 905,93;16624,333;  224,744;26360,104;62,74866
 906,48;16573,948;  239,667;26317,104;62,63760
 907,04;16593,179;  253,898;26173,181;63,03909
 907,60;16543,179;  224,975;25972,873;63,37684
 908,15;16486,871;  218,667;25883,104;63,38812
 908,71;16570,948;  250,513;25858,335;63,73223
 909,26;16461,640;  213,283;25706,950;63,73488
 909,82;16504,256;  257,437;25599,796;64,10934
 910,37;16450,333;  268,052;25525,796;64,06859
 910,93;16409,717;  219,744;25226,335;64,74283
 911,48;16331,717;  208,513;25048,181;64,90910
 912,04;16349,563;  216,590;24939,950;65,25397
 912,60;16507,948;  242,206;25022,488;65,63986
 913,15;16364,179;  235,975;24808,104;65,63617
 913,71;16307,640;  226,360;24581,642;66,02790
 914,26;16300,410;  204,360;24588,950;66,00911
 914,82;16247,410;  234,975;24467,873;66,07726
 915,37;16230,179;  226,898;24384,950;66,24409
 915,93;16282,410;  277,129;24278,258;66,68553
 916,48;16171,179;  216,283;24113,488;66,76469
 917,04;16219,717;  239,590;24033,642;67,16018
 917,59;16258,717;  254,129;23937,412;67,57758
 918,15;16075,563;  206,206;23718,181;67,49479
 918,70;16118,025;  226,283;23675,335;67,77136
 919,26;16102,256;  229,667;23483,565;68,25775
 919,81;16057,410;  212,975;23370,412;68,42050
 920,37;16083,333;  233,283;23301,335;68,70996
 920,92;16101,717;  241,975;23216,796;69,03097
 921,48;16011,487;  209,667;22934,027;69,53692
 922,03;16050,717;  218,437;23038,488;69,37881
 922,59;16058,563;  225,821;22863,565;69,93958
 923,14;16051,717;  223,975;22679,488;70,48488
 923,69;16041,871;  244,283;22620,642;70,59946
 924,25;16096,102;  248,513;22641,181;70,77133
 924,80;16040,640;  225,975;22275,796;71,72242
 925,36;16013,948;  219,744;22273,104;71,61813
 925,91;15909,717;  222,052;22124,873;71,62395
 926,47;16005,487;  209,667;22107,181;72,13522
 927,02;15968,563;  269,744;22038,335;72,11684
 927,57;15875,563;  220,975;21821,565;72,47297
 928,13;15915,794;  217,360;21776,642;72,81520
 928,68;15864,487;  221,283;21722,027;72,75657
 929,24;15787,794;  192,821;21528,642;73,09291
 929,79;15656,102;  216,052;21382,335;72,94644
 930,34;15613,717;  216,513;21190,642;73,41046
 930,90;15652,717;  215,898;21257,642;73,36283
 931,45;15652,563;  233,513;21206,719;73,51785
 932,01;15566,256;  231,360;21068,950;73,59246
 932,56;15508,025;  244,513;20865,642;74,01880
 933,11;15523,410;  256,437;20914,258;73,90408
 933,67;15375,871;  216,360;20690,488;74,04228
 934,22;15457,640;  221,283;20578,796;74,84390
 934,77;15352,333;  251,360;20507,642;74,54958
 935,33;15306,179;  233,975;20403,412;74,72794
 935,88;15299,871;  226,590;20301,335;75,08579
 936,43;15286,410;  218,975;20248,181;75,22732
 936,99;15258,256;  225,206;20154,719;75,43109
 937,54;15152,487;  212,513;19992,719;75,52992
 938,09;15180,025;  235,360;19954,412;75,78795
 938,65;15125,717;  230,437;19810,104;76,07525
 939,20;15086,256;  204,129;19720,104;76,25613
 939,75;15141,179;  217,360;19588,488;77,04156
 940,31;15118,717;  214,590;19526,642;77,17526
 940,86;15200,948;  228,744;19496,873;77,70450
 941,41;15189,563;  300,129;19384,873;78,01747
 941,96;15131,794;  217,590;19234,412;78,42638
 942,52;15118,102;  218,898;19187,027;78,54862
 943,07;15013,487;  200,283;19000,335;78,79342
 943,62;15061,487;  210,513;18923,565;79,36158
 944,18;14998,948;  204,667;18843,796;79,37217
 944,73;14914,025;  220,129;18759,181;79,25916
 945,28;14822,794;  200,898;18568,873;79,60538
 945,83;14892,025;  224,975;18574,873;79,92987
 946,39;14900,948;  214,590;18463,565;80,47771
 946,94;14882,871;  239,052;18505,642;80,16723
 947,49;14753,025;  225,590;18264,719;80,53291
 948,04;14776,794;  248,513;18248,181;80,71416
 948,59;14845,256;  237,129;18177,258;81,42710
 949,15;14762,333;  208,898;18127,104;81,22150
 949,70;14734,871;  211,283;18002,412;81,63388
 950,25;14812,948;  243,590;17877,258;82,62239
 950,80;14720,179;  190,129;17786,719;82,57310
 951,36;14609,871;  188,975;17675,027;82,47085
 951,91;14635,563;  236,129;17672,027;82,58499
 952,46;14553,102;  207,821;17485,873;83,02603
 953,01;14574,333;  238,283;17504,565;83,02916
 953,56;14417,256;  203,975;17356,642;82,86339
 954,11;14507,948;  221,283;17362,796;83,34541
 954,67;14548,948;  214,898;17186,104;84,46100
 955,22;14413,871;  202,129;17152,181;83,84483
 955,77;14373,794;  238,437;17072,488;83,96884
 956,32;14415,102;  267,283;16949,796;84,80628
 956,87;14375,256;  207,821;16783,565;85,47088
 957,42;14375,256;  210,206;16742,488;85,68115
 957,98;14263,179;  209,821;16680,873;85,32156
 958,53;14257,179;  240,437;16656,335;85,38517
 959,08;14191,410;  216,283;16515,642;85,74034
 959,63;14177,410;  214,283;16453,335;85,98487
 960,18;14130,871;  226,206;16438,873;85,76421
 960,73;14134,025;  214,513;16331,412;86,36595
 961,28;14080,487;  206,975;16188,027;86,81225
 961,83;14052,640;  241,667;16189,565;86,60059
 962,39;14020,871;  200,129;16034,719;87,28197
 962,94;14009,948;  231,360;16000,950;87,37442
 963,49;13876,333;  214,744;15862,104;87,30923
 964,04;13873,179;  232,052;15809,027;87,57237
 964,59;13835,640;  199,975;15702,950;87,95515
 965,14;13763,794;  234,206;15642,412;87,80768
 965,69;13664,102;  220,129;15507,950;87,93910
 966,24;13630,487;  213,437;15436,719;88,13506
 966,79;13555,333;  231,667;15336,258;88,20938
 967,34;13504,410;  199,052;15212,719;88,62164
 967,89;13514,410;  209,590;15114,104;89,26705
 968,44;13553,179;  226,206;15046,565;89,92341
 968,99;13402,871;  229,052;14984,565;89,28066
 969,55;13432,640;  227,283;14903,027;89,98084
 970,10;13293,256;  230,821;14821,642;89,52501
 970,65;13275,256;  233,513;14703,335;90,13064
 971,20;13245,487;  210,052;14610,488;90,52111
 971,75;13101,102;  201,206;14497,181;90,23446
 972,30;13108,256;  225,898;14445,873;90,59339
 972,85;13082,102;  206,513;14366,796;90,92748
 973,40;13060,871;  204,513;14167,565;92,07412
 973,95;13049,717;  224,360;14185,412;91,86527
 974,50;13037,871;  248,360;14086,950;92,41918
 975,05;12923,410;  224,206;13905,642;92,82069
 975,60;12914,256;  227,667;13878,950;92,93331
 976,15;12848,717;  216,052;13755,950;93,29956
 976,70;12863,025;  212,744;13693,335;93,84070
 977,25;12820,640;  228,667;13616,258;94,05705
 977,80;12775,333;  212,975;13398,565;95,27338
 978,35;12580,025;  231,590;13314,796;94,38386
 978,89;12507,025;  194,667;13252,873;94,28828
 979,44;12594,717;  216,744;13219,796;95,19283
 979,99;12453,410;  206,129;13049,488;95,35886
 980,54;12416,871;  236,513;12988,104;95,52030
 981,09;12295,640;  238,437;12832,565;95,73670
 981,64;12213,410;  231,360;12723,488;95,91680
 982,19;12151,717;  253,667;12714,719;95,48191
 982,74;12011,410;  233,667;12564,565;95,51407
 983,29;11881,102;  209,052;12400,027;95,74337
 983,84;11861,640;  228,513;12303,488;96,34080
 984,39;11836,794;  277,437;12298,181;96,16175
 984,94;11681,794;  198,129;12154,719;96,04465
 985,49;11688,025;  248,667;12060,335;96,84795
 986,03;11588,179;  239,206;11997,796;96,51644
 986,58;11524,333;  271,360;11828,565;97,36759
 987,13;11451,256;  228,898;11728,796;97,58658
 987,68;11320,025;  239,437;11609,335;97,45548
 988,23;11282,487;  231,821;11558,027;97,56723
 988,78;11211,563;  215,283;11352,104;98,73806
 989,33;11064,948;  235,898;11312,181;97,76791
 989,88;11123,333;  261,975;11214,412;99,16841
 990,42;10955,717;  220,667;11102,181;98,65402
 990,97;10894,179;  220,283;10949,027;99,48877
 991,52;10871,025;  248,975;10915,027;99,58746
 992,07;10819,333;  256,667;10801,412;100,16995
 992,62;10620,871;  241,052;10718,873;99,06467
 993,17;10546,410;  244,590;10596,104;99,51993
 993,71;10501,025;  236,744;10508,565;99,92659
 994,26;10404,487;  220,667;10335,950;100,67755
 994,81;10369,563;  246,129;10295,027;100,74174
 995,36;10258,717;  235,052;10137,719;101,22187
 995,91;10191,410;  228,821;10097,335;100,95328
 996,45;10112,563;  232,513; 9939,719;101,78058
 997,00; 9974,025;  214,129; 9861,565;101,16569
 997,55; 9949,102;  235,513; 9794,335;101,61910
 998,10; 9852,871;  261,590; 9676,488;101,87344
 998,65; 9790,025;  223,975; 9595,027;102,08086
 999,19; 9697,487;  251,283; 9456,412;102,61892
 999,74; 9620,102;  278,975; 9402,104;102,38951
1000,29; 9630,717;  251,821; 9298,950;103,66710
1000,84; 9435,948;  231,744; 9158,950;103,10285
1001,38; 9451,179;  234,129; 9078,796;104,21025
1001,93; 9384,333;  242,437; 9040,335;103,91000
1002,48; 9235,948;  218,129; 8857,104;104,38529
1003,03; 9218,717;  236,052; 8843,104;104,36402
1003,57; 9156,717;  242,667; 8662,719;105,86692
1004,12; 9068,794;  267,052; 8632,565;105,21461
1004,67; 8970,794;  233,052; 8498,412;105,71521
1005,22; 8838,871;  223,437; 8366,565;105,80005
1005,76; 8742,256;  216,206; 8234,027;106,33874
1006,31; 8721,410;  247,283; 8191,796;106,66641
1006,86; 8536,487;  226,744; 8071,488;105,92751
1007,40; 8434,563;  218,590; 7946,335;106,31787
1007,95; 8386,102;  238,437; 7855,027;106,97261
1008,50; 8248,640;  234,360; 7722,488;107,02648
1009,04; 8172,948;  231,513; 7619,181;107,49583
1009,59; 8009,948;  247,744; 7518,027;106,76619
1010,14; 7972,102;  221,360; 7391,488;108,09767
1010,68; 7881,948;  234,283; 7255,873;108,91643
1011,23; 7780,025;  215,590; 7127,412;109,44199
1011,78; 7743,948;  240,129; 7102,796;109,34261
1012,32; 7628,025;  239,821; 7005,104;109,20761
1012,87; 7613,794;  259,206; 6943,412;110,02935
1013,42; 7465,640;  210,360; 6846,796;109,32495
1013,96; 7514,333;  261,360; 6832,565;110,37507
1014,51; 7407,179;  198,667; 6706,412;110,76821
1015,06; 7448,410;  190,360; 6751,488;110,62197
1015,60; 7452,640;  268,975; 6764,488;110,59427
1016,15; 7460,948;  215,052; 6756,335;110,77179
1016,69; 7471,256;  231,437; 6763,719;110,83138
1017,24; 7428,410;  196,283; 6787,796;109,71876
1017,79; 7508,333;  245,744; 6832,796;110,25552
1018,33; 7523,948;  220,821; 6814,104;110,76617
1018,88; 7598,948;  237,744; 6866,104;111,05619
1019,42; 7595,025;  221,437; 6870,104;110,90326
1019,97; 7562,025;  215,437; 6884,873;110,15306
1020,51; 7679,333;  248,206; 6918,335;111,40905
1021,06; 7618,948;  204,590; 6930,642;110,23343
1021,61; 7573,640;  187,898; 6853,258;110,80786
1022,15; 7568,025;  193,437; 6810,796;111,44307
1022,70; 7585,563;  225,206; 6826,950;111,49111
1023,24; 7542,640;  213,975; 6803,335;111,21969
1023,79; 7543,640;  222,898; 6735,258;112,41305
1024,33; 7493,871;  221,513; 6661,950;112,91715
1024,88; 7415,256;  233,437; 6588,873;113,00277
1025,42; 7317,794;  224,360; 6499,950;113,03215
1025,97; 7237,179;  212,898; 6359,719;114,27501
1026,51; 7104,410;  180,360; 6257,873;113,92899
1027,06; 7106,717;  212,129; 6224,027;114,68239
1027,60; 6992,102;  227,437; 6133,565;114,53637
1028,15; 6935,256;  232,052; 6013,565;115,94203
1028,69; 6811,871;  191,206; 5878,642;116,40860
1029,24; 6755,871;  211,129; 5852,181;116,01989
1029,78; 6648,563;  207,437; 5700,258;117,26446
1030,33; 6508,640;  193,360; 5620,796;116,35845
1030,87; 6506,640;  217,744; 5544,412;118,06437
1031,42; 6418,794;  199,513; 5511,565;117,07869
1031,96; 6339,102;  219,206; 5417,181;117,73616
1032,51; 6290,640;  208,898; 5315,412;119,09774
1033,05; 6207,256;  224,821; 5261,565;118,77583
1033,60; 6082,487;  180,590; 5120,796;119,46661
1034,14; 6065,410;  219,206; 5065,642;120,62892
1034,69; 6008,871;  212,898; 5014,873;120,69978
1035,23; 5934,179;  221,437; 4951,873;120,76565
1035,77; 5860,333;  215,590; 4875,335;121,13846
1036,32; 5797,179;  191,206; 4794,950;121,76986
1036,86; 5695,640;  214,667; 4770,719;120,30094
1037,41; 5622,410;  224,360; 4664,796;121,56575
1037,95; 5522,794;  185,513; 4588,642;121,21564
1038,50; 5476,640;  200,283; 4514,027;122,31503
1039,04; 5459,025;  232,667; 4480,642;123,03174
1039,58; 5354,256;  198,052; 4391,950;122,94538
1040,13; 5235,717;  209,821; 4376,412;120,62372
1040,67; 5222,333;  246,283; 4344,258;121,42705
1041,21; 5125,717;  239,975; 4268,412;121,28135
1041,76; 5048,179;  202,590; 4130,027;123,37789
1042,30; 4958,102;  205,360; 4121,488;121,36328
1042,85; 4890,717;  207,360; 4036,796;122,29887
1043,39; 4837,563;  202,052; 3977,719;122,77330
1043,93; 4775,487;  230,129; 3965,719;121,67709
1044,48; 4720,871;  225,744; 3904,335;122,19700
1045,02; 4614,410;  209,590; 3804,258;122,53761
1045,56; 4609,179;  238,744; 3770,642;123,74181
1046,11; 4531,333;  230,590; 3755,873;121,99709
1046,65; 4454,025;  220,206; 3681,719;122,31122
1047,19; 4380,871;  204,975; 3618,412;122,33701
1047,74; 4319,640;  194,667; 3528,873;123,71681
1048,28; 4323,333;  223,206; 3535,412;123,78841
1048,82; 4261,256;  244,744; 3506,181;123,15161
1049,37; 4216,333;  223,975; 3444,642;123,96057
1049,91; 4148,487;  217,821; 3417,335;122,85197
1050,45; 4115,410;  227,590; 3377,719;123,41778
1050,99; 4040,717;  216,744; 3306,873;123,74801
1051,54; 3981,563;  210,975; 3262,335;123,57077
1052,08; 3980,410;  234,590; 3226,796;125,18588
1052,62; 3900,948;  239,283; 3178,642;124,57358
1053,16; 3845,871;  217,437; 3109,335;125,46897
1053,71; 3813,487;  225,667; 3088,027;125,34481
1054,25; 3760,794;  234,129; 3042,104;125,59461
1054,79; 3686,794;  223,821; 2991,258;125,13288
1055,33; 3618,871;  194,975; 2892,873;126,90977
1055,88; 3628,871;  228,590; 2926,796;126,02007
1056,42; 3565,179;  236,821; 2891,027;125,39938
1056,96; 3530,948;  236,898; 2825,873;127,23375
1057,50; 3505,179;  228,129; 2797,796;127,52818
1058,05; 3407,025;  220,052; 2745,796;126,17956
1058,59; 3410,487;  232,590; 2715,719;127,97951
1059,13; 3272,717;  206,206; 2624,642;126,79727
1059,67; 3292,102;  222,052; 2633,719;127,29990
1060,21; 3253,563;  227,437; 2581,181;128,56651
1060,76; 3219,410;  236,667; 2548,950;128,99557
1061,30; 3165,563;  250,513; 2537,565;127,45885
1061,84; 3099,871;  233,513; 2464,181;128,49777
1062,38; 3038,256;  214,821; 2407,796;128,74906
1062,92; 3067,410;  259,513; 2438,796;128,84497
1063,46; 2974,102;  238,206; 2377,873;127,86549
1064,01; 2952,025;  223,590; 2308,719;130,85209
1064,55; 2911,256;  229,437; 2278,181;130,90064
1065,09; 2833,025;  196,744; 2234,027;129,40181
1065,63; 2879,333;  258,898; 2275,642;129,93391
1066,17; 2834,717;  254,975; 2250,642;129,26715
1066,71; 2812,102;  246,667; 2217,719;130,15561
1067,25; 2731,487;  230,206; 2156,488;129,85014
1067,80; 2723,256;  243,360; 2149,719;130,08543
1068,34; 2727,102;  260,052; 2148,950;130,60789
1068,88; 2653,717;  225,283; 2081,258;130,84414
1069,42; 2653,948;  254,437; 2088,181;130,85312
1069,96; 2584,410;  238,590; 2014,565;132,08628
1070,50; 2606,871;  254,898; 2044,258;131,44217
1071,04; 2533,333;  217,898; 1960,027;132,90834
1071,58; 2516,717;  223,667; 1952,335;132,64843
1072,12; 2492,410;  229,283; 1930,642;133,01873
1072,66; 2452,179;  229,052; 1914,104;131,93225
1073,21; 2451,410;  240,744; 1917,950;131,80645
1073,75; 2402,717;  245,437; 1871,565;132,66358
1074,29; 2383,102;  234,283; 1851,258;132,89131
1074,83; 2373,333;  257,283; 1843,642;133,39031
1075,37; 2360,640;  249,129; 1828,412;133,70067
1075,91; 2319,871;  242,744; 1790,104;134,23686
1076,45; 2278,717;  235,590; 1773,950;132,81205
1076,99; 2273,333;  249,898; 1745,335;135,30729
1077,53; 2225,256;  220,052; 1713,488;134,26776
1078,07; 2220,794;  228,437; 1713,950;134,11913
1078,61; 2180,563;  234,360; 1670,258;135,53914
1079,15; 2139,948;  238,206; 1639,412;135,72184
1079,69; 2113,256;  225,744; 1633,027;134,12455
1080,23; 2097,410;  254,129; 1633,796;133,60328
1080,77; 2143,410;  267,052; 1646,104;136,06142
1081,31; 2029,871;  225,821; 1581,642;133,05958
1081,85; 2036,487;  249,283; 1560,950;136,25436
1082,39; 2026,640;  227,437; 1537,719;137,31417
1082,93; 1981,948;  246,975; 1544,412;133,72316
1083,47; 1933,333;  230,590; 1494,335;134,73789
1084,01; 1959,333;  247,590; 1503,719;136,27124
1084,55; 1905,717;  227,590; 1449,104;137,38096
1085,09; 1894,487;  252,744; 1463,412;135,60640
1085,63; 1858,102;  239,206; 1461,027;132,49862
1086,17; 1845,025;  228,129; 1410,642;136,73385
1086,71; 1816,640;  225,590; 1403,950;135,02245
1087,24; 1812,025;  251,821; 1425,873;132,89053
1087,78; 1793,487;  247,513; 1391,873;135,09504
1088,32; 1737,025;  229,052; 1347,181;134,86577
1088,86; 1752,025;  251,975; 1361,796;135,16142
1089,40; 1734,256;  245,744; 1326,104;137,77927
1089,94; 1680,487;  219,129; 1296,719;135,61347
1090,48; 1682,102;  254,744; 1307,642;135,56466
1091,02; 1674,025;  249,667; 1296,796;136,02506
1091,56; 1639,948;  248,667; 1270,873;136,10574
1092,10; 1605,563;  225,744; 1243,796;135,53525
1092,63; 1637,102;  262,821; 1270,335;136,40322
1093,17; 1599,794;  257,744; 1241,488;136,42266
1093,71; 1545,487;  228,052; 1212,488;133,82626
1094,25; 1590,563;  260,821; 1198,642;141,79061
1094,79; 1530,487;  236,206; 1177,181;137,54678
1095,33; 1523,871;  235,744; 1167,642;138,22616
1095,87; 1500,794;  229,667; 1172,104;134,87666
1096,40; 1469,871;  218,437; 1133,258;136,79555
1096,94; 1475,717;  242,437; 1127,027;139,41829
1097,48; 1457,794;  245,283; 1121,258;138,41851
1098,02; 1431,871;  233,129; 1089,796;139,93090
1098,56; 1371,487;  203,437; 1066,027;135,41190
1099,10; 1386,794;  219,206; 1061,412;138,63458
1099,63; 1370,563;  203,821; 1055,335;137,01983
1100,17; 1372,948;  247,744; 1059,642;138,58930
1100,71; 1384,410;  261,667; 1069,719;138,94433

