
Integration time [ms]: 120,000
Averaging Nr. [scans]: 13
Smoothing Nr. [pixels]: 0
Data measured with spectrometer [name]: 2009305U1
Wave   ;Sample   ;Dark     ;Reference;Reflectance
[nm]   ;[counts] ;[counts] ;[counts] ;[%]

 175,72;  214,565;  202,673;  202,814; 0,00000
 176,32;  227,781;  225,431;  219,229; 0,00000
 176,92;  251,961;  241,593;  259,926;56,55628
 177,52;  253,653;  251,671;  258,560;28,76615
 178,12;  231,998;  228,123;  221,690; 0,00000
 178,72;  255,438;  262,428;  250,906; 0,00000
 179,32;  252,146;  256,969;  246,180; 0,00000
 179,92;  247,722;  244,743;  247,528;106,98896
 180,52;  242,624;  240,295;  251,040;21,68133
 181,12;  257,887;  250,513;  250,351; 0,00000
 181,73;  273,303;  264,591;  277,112;69,58535
 182,33;  345,984;  344,982;  351,462;15,46395
 182,93;  275,189;  260,594;  266,980;228,56184
 183,53;  233,281;  240,272;  226,189; 0,00000
 184,13;  240,071;  234,428;  232,913; 0,00000
 184,73;  272,724;  272,348;  270,276; 0,00000
 185,33;  273,967;  227,895;  345,845;39,06017
 185,93;  282,360;  241,810;  363,162;33,41490
 186,53;  290,994;  245,969;  383,769;32,67436
 187,13;  327,532;  274,977;  418,310;36,66613
 187,73;  290,625;  236,042;  378,887;38,21117
 188,33;  292,604;  240,114;  373,931;39,22508
 188,93;  298,875;  258,330;  373,870;35,09142
 189,53;  293,633;  257,396;  374,368;30,97916
 190,13;  333,300;  277,224;  424,265;38,13625
 190,73;  289,519;  216,698;  365,464;48,95000
 191,34;  314,166;  258,249;  403,767;38,42622
 191,94;  286,483;  218,263;  371,997;44,37501
 192,54;  299,079;  243,523;  387,787;38,51003
 193,14;  308,040;  247,900;  396,592;40,44650
 193,74;  299,116;  257,129;  400,532;29,27933
 194,34;  295,028;  240,671;  386,728;37,21635
 194,94;  262,884;  220,361;  356,781;31,17101
 195,54;  233,087;  204,742;  327,334;23,12171
 196,14;  275,822;  227,827;  378,689;31,81404
 196,74;  263,869;  222,971;  359,044;30,05609
 197,34;  243,431;  197,063;  371,027;26,65375
 197,94;  273,804;  228,132;  384,373;29,23228
 198,54;  282,648;  235,596;  395,794;29,37151
 199,14;  278,681;  219,374;  388,308;35,10698
 199,74;  254,914;  202,220;  401,273;26,47252
 200,34;  256,544;  196,990;  393,795;30,26038
 200,94;  291,606;  228,446;  426,289;31,92409
 201,54;  273,412;  204,218;  443,961;28,86169
 202,14;  320,556;  229,608;  481,986;36,03621
 202,74;  286,312;  219,912;  475,274;26,00254
 203,34;  283,315;  188,920;  492,839;31,05950
 203,94;  249,181;  167,224;  499,348;24,67665
 204,54;  336,525;  245,363;  589,973;26,45362
 205,14;  301,200;  199,220;  600,798;25,39491
 205,74;  344,234;  236,688;  696,371;23,39568
 206,34;  321,841;  209,069;  707,819;22,61096
 206,94;  345,671;  215,837;  774,562;23,23747
 207,54;  331,547;  180,146;  806,666;24,16545
 208,14;  352,696;  214,378;  884,062;20,65422
 208,74;  379,060;  211,373;  951,337;22,66146
 209,34;  385,266;  194,759; 1045,915;22,38211
 209,94;  412,549;  216,528; 1149,937;21,00061
 210,54;  421,655;  213,302; 1239,675;20,29995
 211,14;  462,776;  218,374; 1375,700;21,11785
 211,73;  479,000;  201,448; 1478,977;21,72564
 212,33;  504,681;  217,908; 1586,632;20,95184
 212,93;  518,671;  205,834; 1714,331;20,73831
 213,53;  504,062;  178,220; 1776,071;20,39253
 214,13;  536,219;  200,076; 1832,252;20,59473
 214,73;  533,786;  190,377; 1872,755;20,41212
 215,33;  528,088;  173,143; 1893,014;20,63787
 215,93;  570,806;  201,842; 2020,959;20,28259
 216,53;  576,263;  158,603; 2108,122;21,42372
 217,13;  655,638;  216,302; 2311,821;20,96546
 217,73;  705,118;  194,611; 2514,042;22,00998
 218,33;  715,347;  147,770; 2710,446;22,14785
 218,93;  811,383;  176,163; 3006,310;22,44476
 219,53;  895,042;  183,770; 3305,411;22,78519
 220,13;  979,566;  156,541; 3596,351;23,92646
 220,73; 1063,784;  191,836; 3941,482;23,25416
 221,32; 1181,906;  182,912; 4363,260;23,89739
 221,92; 1304,463;  190,848; 4775,100;24,29218
 222,52; 1422,797;  174,227; 5205,811;24,81464
 223,12; 1534,187;  171,612; 5659,397;24,82924
 223,72; 1661,728;  195,843; 6067,054;24,96733
 224,32; 1772,004;  201,998; 6450,584;25,12579
 224,92; 1857,580;  183,767; 6756,102;25,46756
 225,52; 1971,904;  200,684; 7072,450;25,77532
 226,12; 2051,539;  193,225; 7427,116;25,68899
 226,72; 2154,550;  164,840; 7739,306;26,26866
 227,31; 2259,665;  160,994; 8128,208;26,34134
 227,91; 2388,951;  178,452; 8522,116;26,49314
 228,51; 2504,693;  181,909; 8913,420;26,60232
 229,11; 2636,102;  182,301; 9324,768;26,83960
 229,71; 2743,476;  175,219; 9553,884;27,38404
 230,31; 2848,566;  170,000;10006,581;27,23066
 230,91; 2972,871;  162,060;10330,474;27,64257
 231,51; 3079,924;  162,304;10694,483;27,70197
 232,10; 3226,310;  171,616;11055,467;28,06630
 232,70; 3303,874;  189,671;11322,958;27,97200
 233,30; 3410,800;  200,534;11530,911;28,33327
 233,90; 3488,760;  179,764;11686,583;28,75683
 234,50; 3537,751;  181,534;11918,588;28,59505
 235,10; 3640,503;  166,536;11994,333;29,37121
 235,70; 3688,006;  187,221;12088,487;29,41523
 236,29; 3676,421;  187,988;12111,897;29,25578
 236,89; 3664,167;  166,599;12029,823;29,48244
 237,49; 3697,288;  197,687;11971,528;29,72353
 238,09; 3603,457;  176,993;11716,511;29,69330
 238,69; 3576,978;  218,442;11547,115;29,64633
 239,29; 3502,062;  172,223;11220,918;30,13785
 239,89; 3392,668;  193,907;10971,228;29,68049
 240,48; 3266,648;  176,531;10591,259;29,67065
 241,08; 3148,708;  175,145;10224,619;29,58925
 241,68; 3070,481;  196,993; 9925,720;29,53611
 242,28; 2924,736;  168,918; 9604,373;29,20705
 242,88; 2859,759;  214,538; 9311,832;29,07701
 243,48; 2731,748;  207,533; 8999,871;28,70926
 244,07; 2595,757;  190,298; 8722,403;28,19303
 244,67; 2540,623;  200,070; 8626,684;27,77572
 245,27; 2431,000;  198,602; 8464,284;27,00802
 245,87; 2398,364;  202,768; 8392,547;26,80898
 246,47; 2314,424;  190,295; 8414,382;25,82814
 247,06; 2287,350;  179,146; 8363,177;25,75997
 247,66; 2254,503;  176,685; 8450,657;25,11269
 248,26; 2281,645;  217,295; 8599,618;24,62742
 248,86; 2266,659;  200,757; 8748,312;24,16951
 249,46; 2210,769;  157,457; 8985,134;23,25993
 250,05; 2291,721;  203,377; 9328,022;22,88685
 250,65; 2285,912;  168,832; 9752,153;22,09130
 251,25; 2344,186;  174,760;10184,430;21,67330
 251,85; 2412,070;  191,137;10734,774;21,06420
 252,44; 2482,790;  155,835;11399,855;20,69504
 253,04; 2608,246;  197,451;12181,097;20,11737
 253,64; 2661,344;  155,678;12806,281;19,80669
 254,24; 2838,411;  195,146;13819,981;19,40035
 254,84; 2954,307;  170,996;14760,980;19,07686
 255,43; 3104,583;  175,527;15673,602;18,89948
 256,03; 3230,427;  178,063;16632,867;18,54999
 256,63; 3401,743;  183,214;17740,187;18,33191
 257,23; 3498,921;  177,907;18504,473;18,12131
 257,82; 3667,851;  190,672;19507,424;18,00085
 258,42; 3775,075;  145,747;20302,163;18,00582
 259,02; 3945,378;  190,682;21198,699;17,87268
 259,62; 4073,098;  173,669;21930,235;17,92300
 260,21; 4161,809;  179,989;22397,750;17,92179
 260,81; 4255,458;  187,994;22933,955;17,88214
 261,41; 4333,419;  162,594;23400,776;17,94815
 262,01; 4460,749;  205,975;23824,308;18,01471
 262,60; 4478,690;  158,984;24167,088;17,99270
 263,20; 4652,209;  164,756;24460,117;18,47041
 263,80; 4712,266;  201,359;24601,526;18,48720
 264,40; 4739,529;  163,976;24723,670;18,63033
 264,99; 4878,644;  187,974;24932,785;18,95618
 265,59; 4895,457;  179,353;25036,733;18,97265
 266,19; 4974,268;  165,821;25188,490;19,21636
 266,78; 5139,670;  212,895;25312,266;19,62908
 267,38; 5181,665;  186,739;25277,200;19,90767
 267,98; 5206,136;  172,049;25385,041;19,96624
 268,58; 5313,780;  188,354;25331,948;20,38462
 269,17; 5329,743;  171,427;25344,257;20,49160
 269,77; 5392,918;  191,520;25145,525;20,84394
 270,37; 5410,776;  163,205;25022,926;21,10873
 270,96; 5516,601;  215,441;24936,068;21,44428
 271,56; 5474,703;  174,753;24681,858;21,62618
 272,16; 5541,586;  178,979;24415,776;22,12589
 272,75; 5553,225;  177,210;24341,755;22,24753
 273,35; 5609,857;  187,057;24250,780;22,53517
 273,95; 5628,381;  186,287;24241,027;22,62379
 274,54; 5761,161;  175,300;24275,778;23,17739
 275,14; 5931,688;  200,519;24642,891;23,44768
 275,74; 5959,645;  153,825;24701,154;23,65154
 276,33; 6198,397;  213,136;25015,994;24,13134
 276,93; 6326,907;  195,455;25489,552;24,24064
 277,53; 6546,038;  185,065;26006,631;24,63434
 278,12; 6752,179;  172,215;26618,996;24,88002
 278,72; 7042,858;  216,219;27075,304;25,41650
 279,32; 7237,448;  186,064;27665,976;25,66014
 279,91; 7516,240;  164,832;28374,510;26,05988
 280,51; 7729,484;  172,373;28907,973;26,29877
 281,11; 8052,431;  183,525;29638,489;26,71504
 281,70; 8273,961;  165,370;30074,476;27,11078
 282,30; 8606,857;  181,214;30776,550;27,53898
 282,90; 8833,413;  178,752;31071,250;28,01541
 283,49; 9122,475;  191,519;31703,206;28,34173
 284,09; 9412,533;  213,908;32174,372;28,78126
 284,69; 9633,925;  201,602;32551,480;29,15721
 285,28; 9890,685;  201,523;32877,715;29,65205
 285,88;10215,758;  235,209;33144,707;30,32726
 286,47;10360,796;  184,368;33220,054;30,80435
 287,07;10577,830;  209,679;33248,088;31,38211
 287,67;10840,363;  204,456;33355,794;32,08289
 288,26;11083,173;  172,448;33241,410;32,99385
 288,86;11342,054;  179,754;33428,826;33,57176
 289,46;11634,167;  192,063;33471,747;34,38165
 290,05;11960,876;  174,837;33601,850;35,25902
 290,65;12276,942;  180,521;33802,888;35,97730
 291,24;12645,799;  188,988;33879,003;36,97479
 291,84;13025,666;  206,368;34112,571;37,80812
 292,44;13344,987;  191,072;34235,115;38,63793
 293,03;13788,164;  241,449;34378,031;39,68386
 293,63;14047,374;  179,598;34411,921;40,51076
 294,22;14322,835;  205,832;34641,153;40,99571
 294,82;14558,052;  186,438;34577,243;41,78912
 295,41;14642,115;  169,832;34333,169;42,36203
 296,01;14890,211;  219,286;34338,309;42,99925
 296,61;14914,085;  198,218;34063,374;43,45430
 297,20;14798,621;  189,978;33632,022;43,68346
 297,80;14854,525;  203,223;33573,652;43,90505
 298,39;14835,378;  174,983;33088,159;44,54263
 298,99;14879,794;  220,749;32950,935;44,78754
 299,58;14892,390;  203,609;32750,873;45,13062
 300,18;14802,284;  204,683;32613,290;45,04236
 300,78;14691,238;  186,527;32260,315;45,22294
 301,37;14728,498;  187,512;32215,892;45,40032
 301,97;14775,204;  196,140;32287,880;45,42934
 302,56;14695,425;  183,983;32152,209;45,39333
 303,16;14701,351;  173,212;32088,694;45,52066
 303,75;14687,268;  183,605;32134,495;45,39361
 304,35;14829,166;  179,766;32333,153;45,56098
 304,94;14872,189;  186,064;32333,222;45,68405
 305,54;14820,983;  204,604;32260,260;45,59688
 306,13;14722,420;  168,074;32186,516;45,45614
 306,73;14607,620;  162,995;32020,506;45,34135
 307,33;14636,243;  202,378;31912,690;45,51789
 307,92;14472,896;  194,757;32025,129;44,85696
 308,52;14684,635;  158,596;32481,024;44,94105
 309,11;14865,704;  179,977;32994,471;44,75378
 309,71;14931,692;  160,590;33237,434;44,65693
 310,30;15033,333;  174,218;33455,381;44,64722
 310,90;15160,718;  210,295;33790,920;44,52098
 311,49;15110,039;  182,833;33948,536;44,20819
 312,09;15084,939;  159,914;34164,542;43,89116
 312,68;15290,447;  230,450;34592,532;43,82737
 313,28;15250,588;  166,988;34646,206;43,74693
 313,87;15181,944;  156,910;34788,836;43,38492
 314,47;15213,718;  172,902;35029,917;43,15004
 315,06;15165,687;  163,065;35299,219;42,69853
 315,66;15233,939;  164,914;35459,619;42,69486
 316,25;15074,030;  156,982;35359,386;42,37508
 316,85;14849,576;  158,914;35417,171;41,66588
 317,44;14864,978;  178,747;35551,114;41,51894
 318,04;14703,453;  157,214;35579,271;41,06548
 318,63;14589,178;  155,072;35726,555;40,57775
 319,22;14579,304;  181,905;35905,413;40,30231
 319,82;14429,335;  167,754;35877,499;39,93751
 320,41;14227,713;  187,829;35789,622;39,43589
 321,01;14154,028;  194,144;35985,116;39,00392
 321,60;14039,012;  183,216;36034,226;38,64827
 322,20;13847,880;  171,834;36012,471;38,15793
 322,79;13788,476;  204,065;36081,114;37,86379
 323,39;13671,542;  165,535;36264,448;37,41389
 323,98;13470,521;  162,373;36174,645;36,95448
 324,58;13288,732;  169,212;36082,534;36,53107
 325,17;13071,188;  180,674;35980,084;36,00761
 325,76;12903,903;  196,525;35776,620;35,71485
 326,36;12653,968;  163,298;35371,970;35,47612
 326,95;12408,574;  198,754;35069,435;35,01457
 327,55;12139,602;  161,138;34641,898;34,73956
 328,14;11826,398;  174,762;34387,672;34,05625
 328,74;11606,807;  192,213;33867,091;33,89647
 329,33;11299,927;  190,298;33500,292;33,35224
 329,92;10957,303;  162,978;33018,813;32,85360
 330,52;10646,595;  185,147;32312,238;32,56270
 331,11;10382,724;  168,446;31877,121;32,21288
 331,71;10101,778;  182,371;31285,125;31,89238
 332,30; 9840,727;  205,371;30798,837;31,49482
 332,89; 9508,556;  233,836;30230,908;30,91875
 333,49; 9224,287;  194,370;29681,099;30,62366
 334,08; 8997,274;  181,061;29290,311;30,28664
 334,68; 8738,872;  180,908;28844,380;29,85669
 335,27; 8532,454;  199,148;28509,180;29,43588
 335,86; 8371,263;  240,446;28279,505;28,99818
 336,46; 8194,746;  197,917;27999,599;28,76383
 337,05; 8026,839;  182,908;27786,484;28,41636
 337,65; 7823,353;  165,677;27644,737;27,86732
 338,24; 7784,308;  223,681;27624,652;27,59255
 338,83; 7617,658;  197,758;27574,945;27,10249
 339,43; 7510,168;  171,674;27464,343;26,88815
 340,02; 7384,929;  179,828;27356,946;26,51165
 340,61; 7348,590;  174,680;27473,017;26,27966
 341,21; 7280,730;  205,367;27452,091;25,96776
 341,80; 7149,158;  178,753;27378,828;25,62642
 342,40; 7094,406;  184,455;27491,454;25,30469
 342,99; 7001,786;  182,451;27617,523;24,85627
 343,58; 6991,927;  183,298;27786,907;24,66572
 344,18; 6900,260;  195,298;27881,312;24,21787
 344,77; 6908,870;  176,058;28227,568;24,00160
 345,36; 6950,267;  168,447;28489,512;23,94620
 345,96; 6935,043;  195,298;28794,851;23,56591
 346,55; 6879,834;  166,843;29047,867;23,24361
 347,14; 6901,619;  165,455;29447,062;23,00476
 347,74; 6914,382;  151,771;29812,017;22,80025
 348,33; 7040,890;  171,462;30503,914;22,64712
 348,92; 7078,092;  191,928;31151,410;22,24250
 349,52; 7128,416;  155,541;31617,050;22,16319
 350,11; 7132,921;  183,519;31846,779;21,94784
 350,70; 7063,915;  180,680;31873,408;21,71866
 351,29; 6901,093;  155,818;31621,476;21,43694
 351,89; 6839,376;  185,362;31699,576;21,11433
 352,48; 6815,702;  158,680;31723,262;21,09016
 353,07; 6728,111;  175,148;31659,396;20,81346
 353,67; 6653,368;  186,851;31579,556;20,59879
 354,26; 6511,254;  189,455;31300,726;20,31996
 354,85; 6472,866;  179,607;31184,856;20,29740
 355,45; 6362,400;  158,753;31068,172;20,07041
 356,04; 6282,675;  171,610;30902,801;19,88555
 356,63; 6219,097;  197,062;30688,623;19,74984
 357,22; 6162,256;  185,820;30543,010;19,68705
 357,82; 6075,856;  191,976;30352,412;19,50861
 358,41; 6019,591;  202,294;30250,845;19,35966
 359,00; 5924,726;  168,982;29995,238;19,29758
 359,60; 5899,596;  188,065;30018,757;19,14649
 360,19; 5821,472;  182,611;29786,862;19,04747
 360,78; 5754,467;  194,523;29616,870;18,89701
 361,37; 5676,623;  178,985;29418,142;18,80232
 361,97; 5669,816;  196,986;29340,258;18,77905
 362,56; 5544,284;  175,365;29036,458;18,60262
 363,15; 5540,367;  220,907;28797,122;18,61499
 363,74; 5430,201;  188,056;28358,776;18,60849
 364,34; 5372,935;  197,905;28033,378;18,59149
 364,93; 5254,833;  172,211;27588,802;18,53849
 365,52; 5133,878;  153,908;27112,428;18,47271
 366,11; 5131,054;  173,982;26848,518;18,58353
 366,71; 5030,766;  170,598;26452,336;18,49257
 367,30; 4968,073;  172,370;26109,029;18,49006
 367,89; 4981,922;  227,607;25897,457;18,52101
 368,48; 4885,744;  186,594;25524,475;18,54595
 369,07; 4816,223;  179,603;25048,562;18,64421
 369,67; 4798,177;  197,980;24801,124;18,69760
 370,26; 4695,150;  178,219;24544,953;18,53729
 370,85; 4693,474;  183,216;24214,610;18,76819
 371,44; 4621,389;  179,601;23966,503;18,67325
 372,03; 4574,724;  168,751;23732,350;18,69822
 372,63; 4579,827;  156,293;23380,987;19,04668
 373,22; 4541,467;  176,834;23073,486;19,06232
 373,81; 4506,454;  157,139;22784,407;19,22157
 374,40; 4471,263;  177,916;22525,182;19,21196
 374,99; 4445,576;  172,445;22297,340;19,31368
 375,59; 4417,161;  164,453;22014,855;19,46283
 376,18; 4467,061;  194,753;21910,702;19,67359
 376,77; 4430,242;  189,140;21655,398;19,75706
 377,36; 4438,568;  198,292;21627,694;19,78719
 377,95; 4407,616;  193,213;21311,650;19,95604
 378,55; 4365,720;  166,683;21149,809;20,01149
 379,14; 4445,318;  196,908;21141,953;20,28360
 379,73; 4440,313;  184,137;20977,656;20,46876
 380,32; 4473,758;  192,832;20964,307;20,60964
 380,91; 4475,115;  164,133;20836,090;20,85425
 381,50; 4523,901;  190,981;20822,730;21,00123
 382,10; 4525,451;  169,601;20675,846;21,24158
 382,69; 4509,489;  156,908;20648,499;21,24082
 383,28; 4608,641;  201,674;20597,764;21,60692
 383,87; 4623,140;  171,981;20438,512;21,96310
 384,46; 4611,803;  168,284;20395,775;21,96773
 385,05; 4704,881;  201,058;20345,605;22,35753
 385,64; 4744,592;  173,290;20372,133;22,63151
 386,24; 4762,876;  160,207;20337,384;22,81127
 386,83; 4856,732;  204,283;20341,147;23,10414
 387,42; 4907,443;  197,982;20443,755;23,26145
 388,01; 5009,865;  187,663;20722,576;23,48294
 388,60; 5122,563;  185,669;20944,242;23,78244
 389,19; 5222,267;  171,195;21150,735;24,07618
 389,78; 5360,440;  177,043;21370,802;24,45719
 390,37; 5594,632;  234,666;21847,997;24,79935
 390,96; 5614,815;  180,052;22023,426;24,88060
 391,56; 5758,029;  184,039;22139,320;25,38793
 392,15; 5837,531;  169,582;22411,555;25,48312
 392,74; 5955,040;  150,800;22583,063;25,87452
 393,33; 6123,076;  174,192;22846,524;26,23852
 393,92; 6301,160;  192,027;23328,953;26,40425
 394,51; 6427,476;  174,577;23483,413;26,82631
 395,10; 6572,909;  210,938;23741,130;27,03748
 395,69; 6649,510;  191,709;23890,302;27,24972
 396,28; 6775,698;  189,164;24005,657;27,65535
 396,87; 6855,499;  197,000;24049,721;27,91505
 397,46; 6932,887;  196,915;24168,127;28,10026
 398,06; 7069,059;  211,983;24401,439;28,34738
 398,65; 7127,981;  191,424;24435,851;28,61093
 399,24; 7277,718;  197,112;24662,782;28,94098
 399,83; 7311,654;  175,619;24707,790;29,08848
 400,42; 7468,175;  214,283;24793,714;29,51204
 401,01; 7573,081;  189,019;24914,542;29,86413
 401,60; 7655,378;  199,975;24900,798;30,18281
 402,19; 7723,869;  220,863;24849,078;30,46508
 402,78; 7891,249;  222,501;24901,088;31,07450
 403,37; 7822,915;  204,834;24741,548;31,04768
 403,96; 7885,930;  203,697;24609,990;31,47644
 404,55; 7947,566;  211,322;24417,879;31,95929
 405,14; 7928,014;  194,415;24293,260;32,09116
 405,73; 7974,847;  207,883;24275,116;32,27195
 406,32; 8098,055;  205,219;24131,352;32,98835
 406,91; 8018,860;  198,856;23904,980;32,98727
 407,50; 8062,341;  207,674;23733,268;33,38775
 408,09; 8083,409;  183,730;23420,189;33,99691
 408,68; 8101,495;  192,793;23255,197;34,29262
 409,27; 8088,367;  185,273;23146,454;34,41937
 409,86; 8142,017;  197,701;22960,388;34,90061
 410,45; 8234,620;  238,122;22919,365;35,25600
 411,04; 8268,965;  238,082;22843,339;35,52662
 411,63; 8220,686;  211,592;22600,535;35,77254
 412,22; 8239,022;  218,021;22288,056;36,34340
 412,81; 8200,546;  223,652;22056,752;36,53579
 413,40; 8150,380;  235,979;21728,740;36,82356
 413,99; 8104,455;  260,589;21397,851;37,10919
 414,58; 7961,871;  202,285;21003,304;37,30388
 415,17; 7967,779;  218,036;20759,640;37,72706
 415,76; 7966,540;  210,789;20711,639;37,83136
 416,35; 7947,113;  191,259;20454,580;38,27534
 416,94; 8057,473;  230,023;20514,156;38,58903
 417,53; 8210,508;  201,576;20800,791;38,87979
 418,12; 8314,155;  201,580;20827,937;39,33111
 418,71; 8505,579;  220,980;21186,040;39,51622
 419,30; 8642,618;  211,736;21228,228;40,11555
 419,89; 8707,182;  194,893;21434,172;40,07805
 420,48; 8944,524;  237,442;21733,900;40,50473
 421,07; 9029,721;  215,368;21822,005;40,79466
 421,66; 9052,398;  188,454;21846,735;40,92635
 422,25; 9115,754;  208,395;21852,910;41,15296
 422,84; 9228,531;  225,783;21737,539;41,85037
 423,43; 9138,377;  215,391;21508,323;41,90586
 424,02; 9065,343;  233,317;21253,813;42,01626
 424,60; 8916,651;  215,646;20826,513;42,21562
 425,19; 8848,762;  213,481;20615,233;42,32617
 425,78; 8958,161;  234,251;20400,833;43,25924
 426,37; 8929,239;  238,797;20253,664;43,41993
 426,96; 8912,549;  222,105;20170,398;43,56485
 427,55; 8938,392;  211,732;20039,514;44,01229
 428,14; 8878,786;  203,353;19811,972;44,24296
 428,73; 8841,756;  204,266;19667,866;44,37766
 429,32; 8935,205;  222,719;19620,862;44,91402
 429,91; 8965,418;  242,190;19615,704;45,02656
 430,50; 8923,707;  231,888;19457,006;45,21074
 431,08; 8880,188;  221,587;19289,596;45,40905
 431,67; 8933,338;  259,438;19255,284;45,66209
 432,26; 8870,464;  261,905;19013,763;45,90776
 432,85; 8794,788;  275,980;18644,633;46,37688
 433,44; 8614,103;  279,142;18309,281;46,22793
 434,03; 8500,877;  303,076;17873,504;46,65681
 434,62; 8367,322;  254,220;17499,553;47,04520
 435,21; 8302,262;  270,981;17245,806;47,31289
 435,79; 8265,133;  249,226;17166,079;47,38415
 436,38; 8247,846;  252,083;16985,729;47,78255
 436,97; 8252,807;  247,930;16873,153;48,14899
 437,56; 8174,973;  255,023;16748,946;48,01738
 438,15; 8217,882;  235,558;16658,115;48,60585
 438,74; 8227,287;  265,790;16633,993;48,64002
 439,33; 8228,548;  241,711;16658,018;48,65185
 439,91; 8302,197;  221,026;16713,130;49,00025
 440,50; 8391,014;  271,565;16805,548;49,10764
 441,09; 8511,245;  262,189;16895,628;49,59321
 441,68; 8489,730;  241,660;16963,225;49,32595
 442,27; 8502,276;  233,887;16851,869;49,75567
 442,86; 8553,955;  203,599;16819,088;50,25646
 443,44; 8578,442;  227,595;16931,893;49,99220
 444,03; 8704,999;  271,446;16995,269;50,42838
 444,62; 8634,518;  226,600;16879,912;50,48796
 445,21; 8575,179;  245,366;16666,519;50,72611
 445,80; 8585,531;  265,147;16604,455;50,92250
 446,39; 8452,064;  268,760;16364,850;50,84032
 446,97; 8386,877;  227,772;16116,035;51,35303
 447,56; 8276,610;  218,705;15890,562;51,41640
 448,15; 8245,778;  228,618;15759,022;51,62235
 448,74; 8132,043;  257,389;15456,208;51,81096
 449,33; 8063,473;  235,088;15347,125;51,80232
 449,91; 7989,208;  238,175;15103,327;52,14230
 450,50; 7885,988;  230,558;14860,535;52,32701
 451,09; 7845,081;  234,097;14801,560;52,24646
 451,68; 7796,695;  259,410;14724,733;52,10589
 452,26; 7813,544;  251,953;14609,451;52,66650
 452,85; 7713,219;  230,104;14421,058;52,73159
 453,44; 7763,903;  243,810;14491,666;52,78052
 454,03; 7773,199;  217,417;14426,473;53,17582
 454,61; 7751,243;  230,811;14415,041;53,01967
 455,20; 7921,131;  245,893;14580,549;53,54323
 455,79; 7862,406;  254,961;14556,496;53,19320
 456,38; 7970,174;  252,439;14684,904;53,47482
 456,97; 8014,316;  237,283;14765,098;53,53202
 457,55; 8021,991;  240,597;14742,400;53,65811
 458,14; 8068,696;  249,512;14730,724;53,99537
 458,73; 8002,946;  247,136;14630,007;53,92393
 459,31; 8126,981;  265,453;14709,332;54,42809
 459,90; 8154,958;  278,294;14787,950;54,28567
 460,49; 8212,943;  316,676;14902,291;54,13736
 461,08; 8236,094;  239,457;14907,869;54,51604
 461,66; 8372,399;  248,298;15049,536;54,88798
 462,25; 8437,010;  251,999;15121,148;55,04694
 462,84; 8445,819;  277,304;15109,398;55,07324
 463,43; 8422,422;  215,394;15085,289;55,19224
 464,01; 8450,707;  248,782;15117,756;55,16133
 464,60; 8447,726;  291,775;15077,974;55,15921
 465,19; 8281,643;  228,247;14843,912;55,10113
 465,77; 8254,570;  248,251;14804,322;55,00329
 466,36; 8242,596;  262,163;14688,107;55,32000
 466,95; 8057,533;  245,856;14414,014;55,13545
 467,53; 7939,100;  250,795;14096,619;55,52797
 468,12; 7773,751;  284,642;13785,386;55,47182
 468,71; 7645,715;  249,478;13594,462;55,42335
 469,29; 7500,728;  227,721;13304,237;55,61885
 469,88; 7365,317;  237,801;13053,236;55,61665
 470,47; 7482,939;  300,502;13186,269;55,73931
 471,06; 7450,002;  263,195;13153,729;55,75260
 471,64; 7528,319;  248,577;13220,818;56,11784
 472,23; 7503,469;  221,439;13272,338;55,79715
 472,81; 7639,409;  220,431;13340,822;56,54540
 473,40; 7677,704;  234,747;13485,729;56,16909
 473,99; 7873,051;  335,209;13697,135;56,41284
 474,57; 7926,486;  245,516;13793,499;56,69457
 475,16; 7968,392;  253,433;13941,336;56,36334
 475,75; 8087,853;  273,676;14125,956;56,41077
 476,33; 8134,244;  271,682;14198,006;56,45827
 476,92; 8192,722;  275,979;14259,027;56,61672
 477,51; 8255,745;  265,064;14328,410;56,81920
 478,09; 8257,901;  257,910;14312,913;56,91917
 478,68; 8230,453;  273,913;14221,761;57,04493
 479,27; 8254,820;  287,599;14305,290;56,83690
 479,85; 8247,025;  257,605;14283,426;56,96222
 480,44; 8349,565;  254,839;14418,392;57,15180
 481,02; 9144,829;  255,537;15815,136;57,13060
 481,61;10359,163;  283,919;17873,001;57,28124
 482,20;11134,082;  255,691;19099,150;57,73033
 482,78;11556,588;  299,453;19992,311;57,16354
 483,37;11900,596;  278,699;20533,405;57,37875
 483,95;12050,887;  304,393;20791,766;57,33529
 484,54;12171,900;  317,687;21021,241;57,25690
 485,13;12116,824;  274,631;20883,675;57,46115
 485,71;11988,580;  255,552;20621,442;57,61117
 486,30;11835,274;  284,013;20314,022;57,66978
 486,88;11642,895;  322,246;19987,396;57,56706
 487,47;11241,977;  301,556;19228,616;57,80307
 488,05;10738,383;  276,713;18322,323;57,97349
 488,64; 9963,429;  297,104;17030,624;57,76624
 489,23; 8881,233;  304,637;15145,886;57,78891
 489,81; 7579,739;  299,947;12970,050;57,45646
 490,40; 7166,795;  248,179;12323,096;57,29742
 490,98; 6990,100;  239,182;12008,747;57,35911
 491,57; 6950,821;  273,023;11980,192;57,04025
 492,15; 6913,961;  253,952;11882,885;57,27102
 492,74; 6881,449;  260,944;11757,133;57,58869
 493,32; 6828,439;  277,412;11662,063;57,54263
 493,91; 6747,715;  263,340;11601,767;57,18937
 494,50; 6711,671;  262,198;11572,590;57,02254
 495,08; 6700,163;  241,813;11485,521;57,43969
 495,67; 6710,606;  272,570;11503,391;57,32471
 496,25; 6601,594;  224,038;11384,741;57,14296
 496,84; 6646,733;  231,646;11343,679;57,73100
 497,42; 6613,258;  221,502;11293,373;57,72968
 498,01; 6599,003;  249,648;11233,564;57,80593
 498,59; 6517,675;  227,811;11193,057;57,36182
 499,18; 6512,455;  225,572;11124,262;57,68476
 499,76; 6472,077;  260,115;11101,294;57,29969
 500,35; 6323,651;  245,432;10862,542;57,24928
 500,93; 6337,195;  241,963;10813,297;57,65811
 501,52; 6279,115;  238,734;10757,351;57,42562
 502,10; 6296,096;  261,129;10747,595;57,55005
 502,69; 6184,609;  242,363;10559,944;57,59340
 503,27; 6054,580;  227,429;10349,820;57,56695
 503,86; 6020,529;  233,977;10292,458;57,52908
 504,44; 5971,425;  224,981;10143,073;57,93901
 505,03; 5822,906;  207,673; 9910,660;57,87118
 505,61; 5754,712;  228,441; 9867,810;57,33021
 506,19; 5647,575;  250,134; 9720,605;56,99231
 506,78; 5542,801;  215,912; 9514,755;57,28550
 507,36; 5429,436;  224,980; 9341,724;57,08679
 507,95; 5396,273;  231,532; 9195,965;57,61370
 508,53; 5283,144;  226,066; 9043,616;57,35242
 509,12; 5219,006;  230,530; 8892,813;57,58846
 509,70; 5121,224;  257,455; 8769,488;57,13992
 510,29; 5057,816;  247,459; 8619,416;57,45798
 510,87; 4918,797;  229,989; 8412,749;57,30106
 511,46; 4812,916;  219,298; 8211,179;57,47856
 512,04; 4714,416;  224,918; 8099,680;57,01122
 512,62; 4649,534;  237,914; 7993,451;56,88348
 513,21; 4505,726;  213,229; 7789,415;56,65775
 513,79; 4478,991;  220,165; 7669,221;57,17269
 514,38; 4357,548;  209,315; 7499,517;56,90148
 514,96; 4332,922;  244,391; 7433,540;56,87087
 515,54; 4178,478;  212,778; 7283,317;56,08766
 516,13; 4165,394;  226,779; 7157,826;56,82569
 516,71; 4080,291;  215,862; 7056,039;56,49604
 517,30; 4006,160;  208,251; 6931,959;56,48533
 517,88; 3977,674;  234,174; 6882,673;56,30595
 518,46; 3880,629;  213,022; 6747,913;56,12345
 519,05; 3885,100;  225,718; 6659,507;56,87756
 519,63; 3839,056;  224,178; 6659,420;56,17315
 520,22; 3805,544;  243,724; 6564,271;56,35303
 520,80; 3752,612;  227,494; 6466,969;56,49702
 521,38; 3755,456;  257,027; 6436,694;56,61193
 521,97; 3737,391;  218,883; 6429,178;56,65606
 522,55; 3722,563;  235,575; 6443,647;56,16861
 523,13; 3698,640;  216,732; 6398,186;56,32829
 523,72; 3704,682;  224,330; 6381,243;56,52755
 524,30; 3804,589;  239,351; 6545,207;56,53852
 524,89; 3778,151;  207,114; 6567,260;56,14709
 525,47; 3880,321;  238,660; 6665,749;56,66113
 526,05; 3878,257;  213,276; 6727,615;56,26021
 526,64; 3978,018;  229,356; 6855,141;56,57687
 527,22; 4051,223;  232,121; 6943,659;56,90352
 527,80; 4137,319;  269,432; 7065,555;56,91314
 528,39; 4187,512;  226,435; 7190,884;56,87567
 528,97; 4303,780;  226,510; 7359,112;57,16385
 529,55; 4407,987;  234,655; 7559,822;56,97251
 530,14; 4533,636;  257,130; 7734,782;57,19049
 530,72; 4565,243;  221,972; 7856,769;56,88785
 531,30; 4659,396;  217,746; 7992,942;57,12590
 531,89; 4710,895;  229,746; 8072,921;57,13438
 532,47; 4814,652;  256,594; 8217,595;57,25483
 533,05; 4789,009;  264,355; 8219,821;56,87479
 533,63; 4798,031;  252,056; 8273,838;56,67039
 534,22; 4843,167;  224,980; 8342,061;56,89468
 534,80; 4855,394;  241,755; 8435,057;56,30988
 535,38; 4960,523;  314,977; 8489,709;56,82811
 535,97; 4877,001;  234,133; 8436,888;56,60132
 536,55; 4930,096;  271,140; 8468,496;56,83487
 537,13; 4886,082;  265,745; 8446,124;56,48072
 537,71; 4923,091;  285,283; 8475,119;56,62883
 538,30; 4906,636;  305,674; 8570,323;55,67039
 538,88; 4966,959;  318,837; 8599,984;56,12897
 539,46; 5076,565;  344,062; 8806,603;55,92296
 540,05; 5161,396;  345,912; 8897,023;56,31413
 540,63; 5271,457;  386,296; 9111,519;55,98895
 541,21; 5347,694;  393,223; 9243,260;55,98249
 541,79; 5381,501;  411,761; 9345,393;55,62955
 542,38; 5482,405;  420,142; 9496,556;55,77383
 542,96; 5540,772;  444,997; 9640,398;55,41656
 543,54; 5674,954;  449,299; 9854,765;55,55977
 544,12; 5730,091;  405,685; 9999,510;55,49826
 544,70; 5755,316;  405,382;10057,138;55,42965
 545,29; 5868,888;  420,603;10257,492;55,38626
 545,87; 5880,039;  410,915;10329,470;55,14033
 546,45; 5921,612;  392,603;10323,885;55,67266
 547,03; 5924,592;  383,760;10485,760;54,84886
 547,62; 6022,970;  363,839;10602,636;55,27145
 548,20; 6145,647;  382,919;10766,056;55,50083
 548,78; 6169,276;  344,546;10952,908;54,90697
 549,36; 6255,338;  347,391;11183,078;54,52305
 549,94; 6356,721;  320,764;11287,724;55,03765
 550,53; 6483,717;  322,697;11513,627;55,05370
 551,11; 6561,823;  294,548;11726,288;54,82346
 551,69; 6734,257;  322,468;12059,610;54,62820
 552,27; 6880,242;  275,540;12330,394;54,78874
 552,85; 7051,744;  287,163;12753,477;54,26288
 553,44; 7230,081;  288,544;13036,442;54,45240
 554,02; 7448,009;  310,085;13449,201;54,32576
 554,60; 7611,640;  248,318;13720,860;54,65429
 555,18; 7838,914;  287,852;14092,826;54,69812
 555,76; 8053,337;  277,008;14460,557;54,82640
 556,34; 8219,215;  292,169;14913,550;54,21544
 556,93; 8454,650;  277,853;15329,007;54,32671
 557,51; 8627,257;  240,707;15647,690;54,43343
 558,09; 8871,129;  284,853;16070,707;54,39222
 558,67; 9016,072;  280,172;16447,067;54,03573
 559,25; 9199,275;  288,786;16734,988;54,17962
 559,83; 9266,781;  273,791;17033,614;53,65803
 560,41; 9519,504;  265,398;17391,253;54,03588
 561,00; 9702,496;  280,634;17766,934;53,88139
 561,58; 9818,922;  274,782;18011,072;53,81137
 562,16; 9957,806;  268,625;18341,204;53,61261
 562,74;10089,684;  237,393;18731,886;53,27149
 563,32;10313,010;  245,867;19154,726;53,24035
 563,90;10509,861;  267,019;19544,270;53,13435
 564,48;10710,409;  267,550;20046,724;52,79724
 565,06;10977,505;  267,326;20579,929;52,72677
 565,65;11297,371;  272,181;21263,904;52,52161
 566,23;11672,247;  311,788;22040,081;52,28418
 566,81;11989,119;  279,324;22783,792;52,03320
 567,39;12443,279;  277,023;23701,381;51,93848
 567,97;12745,459;  289,940;24310,168;51,85429
 568,55;13148,083;  293,252;25197,412;51,61720
 569,13;13502,673;  270,634;25881,528;51,66567
 569,71;13959,881;  280,933;26851,239;51,48209
 570,29;14455,628;  308,160;27888,993;51,29456
 570,87;14779,732;  303,624;28621,612;51,11983
 571,45;15072,606;  296,018;29325,907;50,90129
 572,03;15213,256;  249,486;29702,693;50,80523
 572,61;15590,292;  242,944;30408,629;50,87684
 573,20;15897,876;  281,092;31069,696;50,72261
 573,78;16179,261;  260,329;31782,006;50,50154
 574,36;16361,761;  279,328;32300,505;50,22436
 574,94;16550,387;  317,256;32642,774;50,21770
 575,52;16543,500;  265,725;32846,235;49,96170
 576,10;16845,309;  308,953;33440,563;49,91112
 576,68;17110,889;  288,870;33975,623;49,93660
 577,26;17377,771;  309,574;34699,026;49,63207
 577,84;17587,710;  315,943;35186,679;49,53083
 578,42;17642,201;  350,873;35502,631;49,19051
 579,00;17570,511;  290,252;35667,901;48,84513
 579,58;17663,332;  329,718;35955,711;48,65440
 580,16;17565,196;  305,028;35934,796;48,44311
 580,74;17615,780;  303,875;36128,711;48,32375
 581,32;17671,921;  300,872;36230,094;48,34797
 581,90;17612,866;  327,182;36174,629;48,22013
 582,48;17532,216;  327,798;36293,768;47,83527
 583,06;17588,317;  317,718;36487,822;47,74827
 583,64;17597,425;  308,871;36568,753;47,67956
 584,22;17441,346;  320,649;36441,638;47,39819
 584,80;17304,858;  320,258;36211,539;47,32236
 585,38;17112,345;  324,553;35778,495;47,35099
 585,96;17054,506;  299,253;35838,913;47,14523
 586,54;17003,944;  319,802;35884,305;46,91235
 587,12;17013,891;  300,568;36082,359;46,70902
 587,70;17063,167;  326,331;36191,135;46,66646
 588,28;16981,120;  305,568;36305,241;46,32140
 588,86;16996,466;  315,031;36369,510;46,26730
 589,44;16977,814;  297,962;36510,054;46,06155
 590,02;17037,077;  307,114;36686,583;45,98738
 590,59;17139,615;  285,802;36964,214;45,95022
 591,17;17108,855;  298,047;37099,676;45,67952
 591,75;17140,102;  289,503;37335,237;45,48594
 592,33;17220,055;  309,655;37533,493;45,42895
 592,91;17237,926;  272,199;37770,302;45,24423
 593,49;17324,704;  276,587;38115,931;45,05394
 594,07;17373,143;  285,510;38350,610;44,89055
 594,65;17326,742;  301,418;38358,213;44,73662
 595,23;17376,554;  307,960;38870,395;44,26223
 595,81;17438,078;  283,500;38835,566;44,49717
 596,39;17349,315;  271,577;38992,460;44,10472
 596,97;17435,656;  305,198;39202,896;44,03977
 597,55;17382,804;  285,497;39101,230;44,04736
 598,12;17254,458;  272,973;39094,948;43,74194
 598,70;17239,963;  269,431;39324,222;43,45314
 599,28;17281,022;  292,662;39457,523;43,37654
 599,86;17110,150;  276,815;39468,964;42,95078
 600,44;17049,599;  251,740;39539,023;42,75648
 601,02;17059,194;  308,287;39632,593;42,59683
 601,60;16954,278;  285,734;39636,789;42,35857
 602,18;16827,991;  254,434;39624,823;42,09650
 602,75;16849,417;  259,269;39722,651;42,03935
 603,33;16769,446;  276,046;39733,774;41,80018
 603,91;16646,190;  263,669;39629,278;41,61633
 604,49;16614,855;  287,354;39768,137;41,35556
 605,07;16563,638;  289,734;39779,503;41,21043
 605,65;16433,783;  293,279;39876,357;40,77627
 606,23;16457,719;  322,032;39961,370;40,70625
 606,80;16349,762;  339,115;40031,476;40,33685
 607,38;16284,233;  361,129;40020,091;40,15008
 607,96;16253,894;  396,345;40120,463;39,91920
 608,54;16217,512;  436,971;40132,952;39,75350
 609,12;16071,514;  423,730;40212,084;39,32755
 609,70;16029,761;  447,584;40164,958;39,23265
 610,27;15971,000;  446,960;40221,891;39,02971
 610,85;15954,487;  452,660;40361,469;38,84312
 611,43;15833,097;  453,661;40190,327;38,70339
 612,01;15639,551;  428,579;39938,834;38,49879
 612,59;15580,895;  437,122;40005,832;38,27209
 613,16;15457,693;  400,803;40000,582;38,02266
 613,74;15383,967;  391,816;39860,382;37,98504
 614,32;15210,055;  378,203;39818,573;37,60576
 614,90;15151,136;  368,735;39740,501;37,54569
 615,48;14923,362;  336,420;39404,202;37,33752
 616,05;14873,566;  326,033;39490,968;37,14428
 616,63;14650,462;  335,569;39351,965;36,68943
 617,21;14580,750;  332,883;39185,457;36,67162
 617,79;14433,317;  313,578;39065,963;36,43579
 618,36;14345,445;  330,580;39125,867;36,12517
 618,94;14127,544;  261,959;38822,725;35,95775
 619,52;13955,492;  292,032;38375,453;35,87771
 620,10;13862,382;  285,269;38330,713;35,68657
 620,67;13730,137;  295,723;38250,497;35,39585
 621,25;13694,335;  306,350;38026,894;35,49256
 621,83;13587,948;  298,651;38062,774;35,19027
 622,41;13518,674;  328,959;38049,670;34,96677
 622,98;13324,825;  308,800;37788,029;34,72864
 623,56;13236,755;  314,030;37795,674;34,47748
 624,14;13133,727;  289,659;37659,464;34,37018
 624,72;13032,792;  301,805;37544,194;34,18413
 625,29;13012,968;  282,799;37675,744;34,04431
 625,87;12879,588;  326,270;37619,830;33,66082
 626,45;12723,701;  279,259;37344,439;33,57448
 627,02;12674,075;  287,732;37357,465;33,41363
 627,60;12609,346;  271,817;37247,702;33,36642
 628,18;12617,052;  253,730;37361,161;33,31764
 628,76;12524,255;  261,724;37356,021;33,05773
 629,33;12502,290;  296,726;37384,113;32,91028
 629,91;12392,074;  278,346;37340,329;32,68505
 630,49;12419,698;  296,956;37449,416;32,62972
 631,06;12386,398;  287,340;37625,831;32,40371
 631,64;12287,670;  293,568;37572,200;32,17420
 632,22;12208,094;  254,949;37478,527;32,11176
 632,79;12227,153;  288,257;37824,059;31,80669
 633,37;12201,900;  277,349;37826,435;31,75724
 633,95;12203,948;  270,644;37963,712;31,65915
 634,52;12174,617;  272,189;38068,796;31,49073
 635,10;12110,796;  282,499;38029,680;31,33558
 635,68;12084,960;  274,949;38237,268;31,10982
 636,25;12034,616;  266,637;38241,039;30,98924
 636,83;12074,101;  254,878;38432,405;30,95859
 637,41;11956,060;  251,487;38505,802;30,59674
 637,98;11937,977;  285,409;38627,908;30,39074
 638,56;11863,444;  273,867;38771,280;30,10482
 639,13;11903,647;  265,800;38871,974;30,14504
 639,71;11900,573;  311,878;39154,614;29,83491
 640,29;11697,125;  246,955;38826,648;29,67927
 640,86;11711,317;  252,032;38988,317;29,58282
 641,44;11668,509;  253,417;38967,062;29,48596
 642,02;11631,778;  276,341;38914,962;29,38883
 642,59;11583,970;  253,879;39161,323;29,12062
 643,17;11552,777;  263,110;39098,531;29,07054
 643,74;11473,353;  249,111;39141,738;28,85956
 644,32;11420,776;  286,649;39185,253;28,62346
 644,89;11398,968;  280,649;39099,692;28,64140
 645,47;11361,698;  291,111;39116,437;28,51383
 646,05;11259,351;  286,111;39135,414;28,24566
 646,62;11182,543;  264,189;39107,852;28,10846
 647,20;11161,735;  269,497;39209,444;27,97189
 647,77;11130,927;  249,804;39035,729;28,05431
 648,35;11026,350;  245,420;39003,398;27,81603
 648,92;11006,464;  272,651;39009,682;27,70944
 649,50;10899,195;  234,882;38843,966;27,62125
 650,08;10838,079;  246,882;38764,251;27,49720
 650,65;10815,348;  238,036;39112,535;27,20887
 651,23;10980,001;  220,421;39827,512;27,16579
 651,80;11202,193;  233,729;40797,488;27,04006
 652,38;11197,000;  246,499;41191,465;26,74444
 652,95;11236,807;  227,268;41534,057;26,65310
 653,53;11266,538;  255,961;41894,187;26,44343
 654,10;11250,576;  281,576;41945,318;26,32745
 654,68;11138,075;  241,577;41909,064;26,15108
 655,25;11124,652;  238,192;41917,579;26,11953
 655,83;11049,613;  237,423;42057,709;25,85393
 656,40;11026,266;  264,500;42034,840;25,76413
 656,98;10918,227;  239,270;41918,278;25,62191
 657,55;10825,573;  252,347;41811,332;25,44149
 658,13;10702,149;  241,116;41390,693;25,42197
 658,70;10576,649;  266,270;41249,977;25,15726
 659,28;10313,148;  236,501;40241,339;25,18857
 659,85;10075,263;  255,040;39406,315;25,08277
 660,43;10027,224;  261,887;39494,676;24,89075
 661,00; 9997,724;  240,502;39551,730;24,82044
 661,58;10014,300;  237,810;40107,784;24,52093
 662,15;10042,415;  226,503;40183,453;24,56622
 662,73;10174,761;  300,272;40518,660;24,55217
 663,30;10063,106;  244,042;40675,406;24,28576
 663,88;10060,991;  254,965;40897,306;24,12761
 664,45;10062,413;  244,734;41079,282;24,04258
 665,03;10129,297;  242,658;41416,797;24,01177
 665,60;10261,489;  323,504;41846,697;23,93358
 666,17;10168,989;  247,658;41960,520;23,78482
 666,75;10210,180;  249,735;42413,650;23,62315
 667,32;10303,218;  268,505;42639,396;23,68304
 667,90;10266,026;  244,582;42979,604;23,45019
 668,47;10306,294;  273,274;43192,888;23,37631
 669,05;10355,563;  237,582;43631,019;23,31685
 669,62;10309,370;  231,583;43641,611;23,21535
 670,19;10318,793;  232,198;43783,433;23,16030
 670,77;10274,216;  248,198;43903,025;22,96657
 671,34;10192,869;  243,353;43823,310;22,83049
 671,92;10276,445;  231,737;44287,748;22,79986
 672,49;10250,406;  258,738;44173,340;22,75250
 673,06;10198,137;  215,507;44343,470;22,62200
 673,64;10151,636;  232,661;44171,293;22,57461
 674,21;10125,905;  220,046;44244,347;22,50089
 674,79;10143,712;  250,508;44513,323;22,35105
 675,36;10120,443;  260,585;44484,223;22,29545
 675,93;10012,788;  219,508;44374,123;22,17952
 676,51;10025,903;  256,816;44710,176;21,97604
 677,08;10007,403;  241,124;44763,692;21,93557
 677,65; 9990,056;  250,047;44833,976;21,84646
 678,23; 9984,786;  253,509;45032,876;21,73161
 678,80; 9944,978;  240,971;45153,160;21,60662
 679,38; 9927,093;  240,048;45315,367;21,49080
 679,95; 9986,516;  241,510;45585,344;21,49136
 680,52; 9983,169;  246,664;45759,705;21,39278
 681,10;10122,515;  255,126;46247,374;21,45446
 681,67;10113,783;  254,664;46474,505;21,33092
 682,24;10096,129;  234,126;46637,789;21,25264
 682,82;10185,398;  238,050;47233,381;21,16667
 683,39;10329,820;  280,973;47459,127;21,29979
 683,96;10328,474;  245,665;47797,719;21,20373
 684,54;10330,743;  227,589;48127,234;21,09234
 685,11;10476,781;  269,666;48378,288;21,21681
 685,68;10488,280;  246,358;48929,495;21,03792
 686,25;10492,010;  229,436;49081,164;21,00760
 686,83;10503,202;  244,897;49196,602;20,95597
 687,40;10591,702;  219,205;49533,271;21,03355
 687,97;10650,124;  269,667;49965,556;20,88796
 688,55;10599,855;  222,129;49932,071;20,87656
 689,12;10606,354;  214,206;50320,663;20,74014
 689,69;10611,084;  222,899;50349,716;20,72381
 690,26;10636,430;  246,130;50497,462;20,67667
 690,84;10570,468;  245,361;50658,285;20,48107
 691,41;10604,968;  248,822;50775,800;20,49627
 691,98;10692,390;  254,823;51050,469;20,54815
 692,56;10641,044;  233,284;51139,369;20,44502
 693,13;10661,005;  283,592;51161,576;20,39667
 693,70;10625,427;  266,823;51358,245;20,27464
 694,27;10614,927;  254,285;51426,453;20,24663
 694,84;10631,196;  234,131;51492,583;20,28361
 695,42;10655,080;  288,362;51602,791;20,20234
 695,99;10648,810;  251,132;51901,229;20,13099
 696,56;10625,848;  233,747;51796,052;20,15445
 697,13;10711,578;  253,594;52059,182;20,18698
 697,71;10691,001;  221,517;52124,466;20,17127
 698,28;10685,039;  241,825;52567,212;19,95822
 698,85;10679,231;  218,672;52430,573;20,03482
 699,42;10639,884;  217,903;52602,627;19,89508
 699,99;10737,614;  269,364;52899,758;19,89012
 700,57;10729,191;  250,288;52759,427;19,95634
 701,14;10658,152;  239,903;52950,788;19,76489
 701,71;10743,497;  251,057;53144,841;19,83681
 702,28;10774,535;  249,750;53175,587;19,88591
 702,85;10767,958;  240,212;53278,641;19,84928
 703,43;10805,304;  267,981;53533,464;19,78265
 704,00;10819,342;  279,366;53798,363;19,69390
 704,57;10849,841;  251,674;53675,417;19,83793
 705,14;10845,648;  272,597;54065,932;19,65495
 705,71;10855,071;  271,290;54061,216;19,67614
 706,28;10819,724;  252,367;53901,808;19,69705
 706,86;10917,916;  276,752;54297,400;19,69833
 707,43;10842,185;  300,598;54147,300;19,57703
 708,00;10856,531;  264,060;54117,123;19,66921
 708,57;10822,261;  243,675;54126,561;19,63255
 709,14;10843,453;  272,599;54215,230;19,59647
 709,71;10883,722;  248,830;54312,438;19,67107
 710,28;10883,067;  264,445;54427,876;19,60478
 710,86;10859,105;  265,676;54698,083;19,46162
 711,43;10976,143;  280,061;54701,983;19,65400
 712,00;10934,412;  256,600;54690,575;19,61608
 712,57;10909,296;  265,293;54991,705;19,44948
 713,14;10939,257;  255,216;55000,451;19,51593
 713,71;10926,141;  266,831;54936,505;19,49767
 714,28;10985,410;  265,601;54977,558;19,59317
 714,85;10916,217;  241,524;54659,535;19,61610
 715,42;10908,332;  249,140;55004,127;19,46707
 716,00;11072,139;  311,140;55111,181;19,63685
 716,57;11010,024;  262,602;55229,773;19,55244
 717,14;10933,831;  249,217;55154,826;19,45997
 717,71;10966,561;  234,987;55096,957;19,56104
 718,28;11124,676;  280,449;55273,164;19,71939
 718,85;10993,099;  247,218;55374,218;19,49295
 719,42;11087,906;  269,449;55454,810;19,60385
 719,99;11063,790;  247,219;55223,709;19,67490
 720,56;11126,520;  264,988;55553,840;19,64507
 721,13;11097,712;  241,296;55688,124;19,57987
 721,70;11164,288;  248,835;55484,255;19,76169
 722,27;11148,019;  273,912;55549,770;19,67243
 722,84;11219,595;  306,374;55677,900;19,70909
 723,41;11158,556;  240,835;55715,569;19,68053
 723,98;11267,748;  266,682;55931,161;19,76317
 724,55;11322,632;  283,144;55921,215;19,84161
 725,12;11306,516;  221,836;55925,192;19,89948
 725,69;11439,093;  253,221;56131,091;20,01843
 726,27;11424,592;  266,606;56193,145;19,95115
 726,84;11556,476;  269,298;56558,891;20,05198
 727,41;11565,745;  274,683;56495,175;20,08353
 727,98;11633,091;  272,376;56762,306;20,11104
 728,55;11684,360;  296,068;56619,205;20,21956
 729,12;11647,090;  239,607;56799,951;20,16869
 729,69;11756,589;  279,376;57065,620;20,21126
 730,26;11813,012;  276,069;57301,443;20,23124
 730,82;11840,281;  272,069;57015,958;20,38671
 731,39;11862,857;  263,608;57200,396;20,37215
 731,96;11998,126;  251,454;57379,758;20,56191
 732,53;11999,856;  265,455;57658,119;20,44582
 733,10;12068,433;  274,609;57655,326;20,55364
 733,67;12190,317;  271,455;57940,841;20,66757
 734,24;12114,047;  251,994;57573,126;20,69403
 734,81;12144,547;  285,456;57668,949;20,66638
 735,38;12131,662;  270,840;57484,925;20,73060
 735,95;12152,777;  271,148;57348,594;20,81668
 736,52;12234,353;  277,610;57559,878;20,87338
 737,09;12142,853;  265,918;57244,547;20,84454
 737,66;12325,429;  307,072;57340,678;21,07241
 738,23;12307,390;  259,534;57458,193;21,06318
 738,80;12462,120;  314,919;57686,631;21,17281
 739,37;12507,004;  294,150;57997,146;21,16503
 739,94;12543,042;  266,765;58021,969;21,25571
 740,51;12642,388;  361,073;58162,869;21,24729
 741,07;12571,426;  257,304;57969,230;21,33722
 741,64;12661,926;  299,458;58260,591;21,32889
 742,21;12699,425;  268,459;58352,491;21,40169
 742,78;12679,771;  238,074;58040,006;21,52471
 743,35;12751,501;  267,921;58393,598;21,47688
 743,92;12870,385;  293,382;58500,806;21,60721
 744,49;12890,116;  272,075;58297,244;21,74581
 745,06;12867,923;  262,537;58309,990;21,71566
 745,63;12900,038;  246,922;58349,813;21,77709
 746,19;12958,922;  260,537;58279,174;21,88673
 746,76;12940,421;  260,614;58369,227;21,82087
 747,33;12944,305;  256,307;58286,589;21,86444
 747,90;13115,036;  280,384;58549,027;22,02669
 748,47;13073,920;  276,615;58454,850;21,99672
 749,04;13189,266;  273,000;58474,596;22,19229
 749,61;13209,688;  287,308;58464,495;22,21211
 750,17;13254,649;  285,693;58499,856;22,27801
 750,74;13323,456;  274,001;58413,910;22,44492
 751,31;13273,187;  257,078;58361,194;22,40135
 751,88;13258,532;  231,463;58242,479;22,45620
 752,45;13397,186;  261,617;58344,071;22,61538
 753,02;13407,455;  282,848;58210,355;22,65695
 753,58;13424,800;  249,232;58226,639;22,72535
 754,15;13535,223;  258,617;58347,616;22,85563
 754,72;13487,953;  247,156;58025,824;22,91641
 755,29;13543,991;  241,156;57871,723;23,08295
 755,86;13663,337;  262,387;58023,931;23,20047
 756,42;13663,452;  267,311;57938,600;23,22844
 756,99;13694,797;  228,388;57931,653;23,33734
 757,56;13674,220;  235,003;57765,245;23,36026
 758,13;13711,566;  200,234;57725,068;23,48782
 758,70;13814,373;  227,773;57822,122;23,59016
 759,26;13858,334;  223,696;57884,329;23,64635
 759,83;13919,757;  234,543;57974,152;23,70160
 760,40;13957,871;  219,928;57712,590;23,89513
 760,97;13996,140;  197,774;57783,567;23,96141
 761,53;13900,024;  193,697;57436,697;23,94411
 762,10;13905,524;  196,544;57388,905;23,96995
 762,67;14038,639;  229,313;57454,112;24,13172
 763,24;13963,754;  189,852;56929,781;24,27550
 763,80;14059,484;  228,314;57080,835;24,32816
 764,37;14079,522;  218,929;57096,119;24,36933
 764,94;13979,791;  215,391;56619,172;24,40333
 765,50;14097,367;  216,314;56701,841;24,57453
 766,07;14213,790;  252,622;56651,433;24,75436
 766,64;14094,751;  230,776;56431,872;24,66851
 767,21;14150,558;  225,777;56265,618;24,84800
 767,77;14200,596;  250,315;56115,825;24,97119
 768,34;14252,403;  239,239;56116,109;25,07865
 768,91;14202,518;  255,162;55937,317;25,04816
 769,47;14294,095;  245,008;55948,909;25,22101
 770,04;14307,056;  262,855;55841,962;25,26885
 770,61;14353,786;  240,086;55658,939;25,46733
 771,18;14344,439;  231,932;55498,454;25,53536
 771,74;14453,246;  246,932;55584,123;25,67227
 772,31;14445,284;  247,317;55284,253;25,79716
 772,88;14438,092;  225,471;55091,615;25,90417
 773,44;14383,591;  228,471;55019,130;25,83491
 774,01;14490,475;  246,010;55033,953;25,99927
 774,58;14510,590;  234,549;54714,775;26,20408
 775,14;14560,167;  230,703;54775,598;26,27095
 775,71;14626,128;  238,395;54690,421;26,42277
 776,27;14729,704;  283,857;54724,475;26,53505
 776,84;14866,434;  308,165;54764,067;26,73405
 777,41;14772,165;  245,165;54464,966;26,79279
 777,97;14696,280;  244,550;54181,635;26,79368
 778,54;14807,702;  259,012;54240,381;26,95132
 779,11;14882,663;  268,551;54182,666;27,10628
 779,67;14920,701;  228,166;54092,642;27,27685
 780,24;14912,124;  251,936;53933,388;27,30960
 780,80;14965,854;  269,013;53984,749;27,36040
 781,37;15024,277;  254,859;53989,264;27,48596
 781,94;14973,007;  246,783;53653,703;27,57363
 782,50;15039,353;  257,091;53683,833;27,66828
 783,07;15168,083;  281,937;53762,964;27,83444
 783,63;15073,890;  240,860;53436,556;27,88389
 784,20;15144,774;  273,399;53488,686;27,94568
 784,77;15202,812;  256,553;53280,586;28,18771
 785,33;15163,543;  229,784;52997,332;28,30103
 785,90;15273,427;  253,015;53002,078;28,47522
 786,46;15326,080;  269,861;52896,439;28,60953
 787,03;15315,657;  242,092;52744,339;28,71032
 787,59;15336,310;  248,631;52615,315;28,81160
 788,16;15427,656;  258,478;52575,292;28,99484
 788,73;15450,924;  265,401;52391,576;29,13224
 789,29;15382,501;  244,786;51910,014;29,29962
 789,86;15432,077;  267,171;51898,222;29,37168
 790,42;15398,423;  257,094;51859,737;29,34216
 790,99;15468,615;  272,479;51447,944;29,69418
 791,55;15556,114;  245,633;51501,152;29,87089
 792,12;15562,922;  265,556;51433,359;29,89647
 792,68;15561,652;  254,556;51144,874;30,07860
 793,25;15516,536;  265,941;50834,543;30,15823
 793,81;15461,959;  309,249;50529,058;30,17277
 794,38;15409,535;  217,557;50328,112;30,31692
 794,94;15436,265;  244,173;50104,243;30,46946
 795,51;15369,457;  257,788;49860,681;30,46530
 796,07;15368,957;  260,789;49633,504;30,60024
 796,64;15498,841;  264,712;49687,480;30,82411
 797,20;15361,033;  258,558;49121,303;30,90795
 797,77;15411,609;  229,328;48871,664;31,21207
 798,33;15334,570;  241,866;48671,641;31,16410
 798,90;15431,916;  274,636;48687,771;31,30820
 799,46;15343,646;  246,251;48125,363;31,53232
 800,03;15334,992;  270,790;48025,109;31,54521
 800,59;15364,876;  272,713;47941,624;31,66039
 801,15;15314,376;  258,175;47589,524;31,81021
 801,72;15317,260;  252,406;47287,732;32,02881
 802,28;15279,144;  285,560;46983,631;32,10750
 802,85;15313,566;  249,330;46889,300;32,29898
 803,41;15308,912;  246,561;46712,892;32,41562
 803,98;15186,181;  249,484;46328,330;32,41552
 804,54;15165,219;  249,946;46006,846;32,59677
 805,11;15167,564;  258,485;45810,130;32,73006
 805,67;15211,372;  272,100;45752,414;32,84778
 806,23;15069,640;  262,408;45267,006;32,90160
 806,80;15121,678;  275,562;45117,444;33,10770
 807,36;15100,101;  282,793;45013,267;33,12576
 807,93;15168,447;  286,024;44813,321;33,42314
 808,49;15076,639;  245,640;44510,144;33,50540
 809,05;14986,369;  234,640;44363,505;33,42875
 809,62;15027,330;  270,410;44212,405;33,58273
 810,18;15053,599;  263,871;44157,151;33,69474
 810,74;14996,175;  232,025;43883,896;33,82249
 811,31;15009,598;  245,872;43546,335;34,09600
 811,87;15029,482;  256,564;43534,004;34,13538
 812,44;15043,981;  283,949;43399,288;34,23383
 813,00;15037,404;  209,719;43112,880;34,56082
 813,56;15078,365;  260,950;43217,010;34,49435
 814,13;15125,249;  259,565;43157,449;34,65365
 814,69;15116,441;  251,719;42808,348;34,92927
 815,25;14977,325;  229,104;42601,479;34,80622
 815,82;15068,363;  275,335;42334,840;35,17166
 816,38;15129,709;  298,182;42184,817;35,40873
 816,94;14998,131;  235,490;41865,486;35,46155
 817,51;14972,785;  226,644;41713,001;35,54456
 818,07;14968,823;  242,105;41376,747;35,80125
 818,63;14962,784;  265,336;41247,262;35,86324
 819,20;15012,899;  249,798;41189,777;36,06035
 819,76;14930,244;  235,414;40615,138;36,39161
 820,32;15007,205;  268,952;40609,961;36,53417
 820,89;14915,628;  270,799;40403,553;36,49096
 821,45;14878,743;  233,338;40010,145;36,81896
 822,01;14848,242;  273,876;39788,660;36,88333
 822,57;14823,665;  267,107;39675,791;36,93744
 823,14;14832,780;  238,415;39514,075;37,15880
 823,70;14713,203;  241,108;39247,282;37,10206
 824,26;14769,702;  235,262;39008,797;37,48547
 824,82;14742,971;  257,570;38887,005;37,49835
 825,39;14652,932;  239,647;38619,828;37,55398
 825,95;14707,047;  261,878;38651,958;37,62735
 826,51;14631,392;  258,340;38153,550;37,92842
 827,08;14709,277;  278,417;38206,065;38,04839
 827,64;14703,622;  257,186;38029,657;38,24594
 828,20;14602,814;  242,956;37724,249;38,31207
 828,76;14652,775;  273,494;37724,072;38,39535
 829,32;14658,736;  275,879;37573,895;38,56199
 829,89;14625,851;  234,187;37475,256;38,64460
 830,45;14668,812;  253,572;37367,925;38,84007
 831,01;14644,312;  241,188;37192,517;38,97864
 831,57;14630,196;  252,188;37083,494;39,03746
 832,14;14677,157;  246,496;37046,163;39,21411
 832,70;14650,272;  233,111;36757,370;39,47283
 833,26;14586,848;  214,189;36663,808;39,43158
 833,82;14690,732;  238,343;36525,016;39,82837
 834,38;14663,078;  233,804;36584,069;39,69510
 834,95;14604,501;  234,882;36441,892;39,68739
 835,51;14614,308;  205,343;36314,946;39,90341
 836,07;14753,192;  243,190;36355,615;40,18008
 836,63;14812,076;  262,882;36381,668;40,28151
 837,19;14811,730;  247,421;36206,645;40,50229
 837,75;14717,691;  215,421;35942,391;40,59194
 838,32;14897,267;  258,268;36010,829;40,94532
 838,88;15006,459;  257,499;36027,575;41,23268
 839,44;14987,112;  251,499;35891,705;41,34548
 840,00;15035,458;  248,961;35852,067;41,53148
 840,56;14942,573;  224,422;35544,428;41,67086
 841,12;15019,688;  231,346;35616,482;41,79253
 841,68;14984,957;  218,654;35367,151;42,01119
 842,25;15030,379;  231,039;35432,358;42,04201
 842,81;15034,263;  224,193;35091,796;42,47516
 843,37;15112,686;  205,270;35087,311;42,73665
 843,93;15120,647;  234,885;35064,749;42,73850
 844,49;15186,300;  240,578;35030,880;42,95945
 845,05;15146,338;  202,040;34888,395;43,08408
 845,61;15284,069;  253,809;34860,756;43,43134
 846,17;15193,107;  233,040;34734,348;43,36087
 846,73;15297,991;  242,810;34729,863;43,65459
 847,29;15270,798;  215,733;34468,763;43,95251
 847,86;15194,990;  221,118;34521,817;43,65471
 848,42;15227,335;  208,580;34236,024;44,13718
 848,98;15249,220;  241,811;34193,924;44,20169
 849,54;15243,027;  228,965;34233,670;44,15290
 850,10;15273,296;  237,734;34080,108;44,42821
 850,66;15261,949;  216,734;33874,469;44,70062
 851,22;15272,987;  212,504;33864,061;44,75419
 851,78;15405,794;  268,043;33891,807;45,02099
 852,34;15350,063;  237,274;33624,938;45,26459
 852,90;15341,793;  226,889;33522,991;45,39542
 853,46;15272,985;  218,120;33292,583;45,51809
 854,02;15367,869;  234,274;33293,791;45,77682
 854,58;15293,369;  221,659;32997,075;45,98480
 855,14;15393,637;  221,736;32969,359;46,32978
 855,70;15339,983;  196,121;32805,721;46,43989
 856,26;15401,098;  242,275;32805,159;46,55246
 856,82;15364,059;  229,429;32524,905;46,86300
 857,38;15424,559;  246,276;32449,035;47,13349
 857,94;15408,289;  240,430;32373,473;47,20331
 858,50;15414,250;  249,661;32173,527;47,50236
 859,06;15326,596;  224,892;32001,965;47,52390
 859,62;15373,634;  242,969;31978,326;47,67762
 860,18;15353,979;  227,738;31700,841;48,06085
 860,74;15301,863;  195,431;31622,280;48,06856
 861,30;15257,363;  207,893;31446,333;48,17613
 861,86;15320,016;  260,124;31459,925;48,26919
 862,42;15267,131;  226,662;31272,133;48,44658
 862,98;15327,861;  253,047;31308,571;48,54149
 863,54;15229,515;  233,971;31118,394;48,55375
 864,10;15352,630;  223,202;31050,293;49,07835
 864,66;15250,668;  208,202;30911,809;48,99250
 865,22;15240,090;  230,510;30695,324;49,26858
 865,78;15215,821;  229,895;30639,608;49,28006
 866,34;15230,859;  226,664;30513,200;49,54081
 866,90;15232,743;  236,895;30375,023;49,75706
 867,45;15138,550;  230,818;30249,076;49,66221
 868,01;15078,896;  235,511;30036,976;49,80757
 868,57;15131,549;  226,434;29866,799;50,28654
 869,13;15076,510;  211,204;29736,391;50,34788
 869,69;15131,548;  215,512;29661,214;50,65607
 870,25;15039,048;  209,512;29513,113;50,60653
 870,81;15041,855;  218,974;29522,167;50,58452
 871,37;15056,124;  225,974;29387,682;50,85487
 871,93;15028,623;  233,436;29172,197;51,12585
 872,49;14969,430;  253,897;29027,866;51,14183
 873,04;14848,161;  212,513;28819,304;51,16144
 873,60;14854,737;  219,667;28684,666;51,41427
 874,16;14902,237;  236,206;28544,181;51,80883
 874,72;14920,852;  222,437;28517,873;51,94624
 875,28;14928,698;  226,052;28424,873;52,13922
 875,84;14912,775;  226,590;28321,873;52,27278
 876,40;14907,698;  220,513;28379,412;52,15824
 876,95;14967,929;  239,129;28235,104;52,61042
 877,51;15043,390;  260,052;28329,873;52,66631
 878,07;15037,083;  269,744;28231,488;52,81265
 878,63;15126,237;  228,283;28280,027;53,10883
 879,19;15241,006;  235,898;28263,258;53,53736
 879,75;15243,698;  226,590;28335,642;53,42445
 880,30;15296,390;  230,821;28199,027;53,86677
 880,86;15493,775;  267,821;28385,488;54,15084
 881,42;15478,929;  216,667;28452,104;54,05357
 881,98;15569,006;  240,898;28461,335;54,31563
 882,54;15777,852;  224,744;28577,719;54,85529
 883,09;15900,621;  238,513;28735,488;54,96060
 883,65;15930,160;  214,283;28770,335;55,03519
 884,21;16154,698;  256,206;28987,565;55,33498
 884,77;16287,775;  221,360;28983,104;55,86037
 885,32;16394,237;  230,975;29187,642;55,81879
 885,88;16500,775;  259,283;29262,335;55,99925
 886,44;16606,237;  237,513;29484,642;55,96694
 887,00;16717,929;  254,360;29404,412;56,47870
 887,56;16838,237;  231,437;29648,488;56,45297
 888,11;16808,160;  236,360;29552,412;56,52808
 888,67;17005,852;  264,206;29822,412;56,63959
 889,23;17072,852;  237,667;29833,873;56,88292
 889,79;17063,621;  214,360;29723,027;57,09936
 890,34;17014,237;  239,360;29613,258;57,10811
 890,90;17269,467;  302,975;29761,181;57,59513
 891,46;17149,390;  225,667;29652,104;57,51197
 892,01;17232,544;  252,975;29674,104;57,71216
 892,57;17260,390;  252,821;29550,335;58,05124
 893,13;17145,929;  233,283;29317,873;58,14985
 893,69;17193,929;  227,129;29388,719;58,18201
 894,24;17214,237;  236,667;29281,335;58,45331
 894,80;17212,929;  231,052;29059,104;58,90747
 895,36;17217,621;  230,129;28942,873;59,16360
 895,91;17082,929;  231,206;28773,719;59,04078
 896,47;17053,237;  258,975;28624,412;59,20678
 897,03;16935,083;  220,667;28386,335;59,34323
 897,58;16952,467;  238,821;28392,488;59,36579
 898,14;16812,160;  239,975;28132,565;59,41429
 898,70;16755,929;  209,667;27967,642;59,60904
 899,25;16917,775;  228,129;27958,719;60,18497
 899,81;16869,698;  250,590;27772,104;60,38588
 900,37;16756,313;  217,437;27573,104;60,45869
 900,92;16706,775;  240,283;27632,719;60,11328
 901,48;16723,313;  224,821;27419,488;60,66812
 902,03;16729,083;  223,513;27255,796;61,05873
 902,59;16633,544;  226,052;27215,412;60,79245
 903,15;16631,775;  256,052;26958,950;61,32564
 903,70;16551,083;  244,052;26687,181;61,66831
 904,26;16519,775;  217,744;26660,335;61,65066
 904,82;16494,852;  236,744;26648,488;61,55636
 905,37;16457,544;  240,052;26469,873;61,82845
 905,93;16387,929;  224,744;26360,104;61,84413
 906,48;16470,390;  239,667;26317,104;62,24049
 907,04;16544,006;  253,898;26173,181;62,84938
 907,60;16440,544;  224,975;25972,873;62,97823
 908,15;16438,160;  218,667;25883,104;63,19832
 908,71;16417,006;  250,513;25858,335;63,13107
 909,26;16494,313;  213,283;25706,950;63,86304
 909,82;16404,237;  257,437;25599,796;63,71467
 910,37;16422,698;  268,052;25525,796;63,95918
 910,93;16312,929;  219,744;25226,335;64,35577
 911,48;16259,237;  208,513;25048,181;64,61730
 912,04;16224,083;  216,590;24939,950;64,74643
 912,60;16390,775;  242,206;25022,488;65,16701
 913,15;16209,544;  235,975;24808,104;65,00686
 913,71;16162,006;  226,360;24581,642;65,42994
 914,26;16157,621;  204,360;24588,950;65,42354
 914,82;16220,390;  234,975;24467,873;65,96576
 915,37;16128,852;  226,898;24384,950;65,82465
 915,93;16175,775;  277,129;24278,258;66,24124
 916,48;16116,467;  216,283;24113,488;66,53575
 917,04;16065,313;  239,590;24033,642;66,51126
 917,59;16019,313;  254,129;23937,412;66,56672
 918,15;15866,544;  206,206;23718,181;66,60580
 918,70;15938,852;  226,283;23675,335;67,00727
 919,26;15871,006;  229,667;23483,565;67,26330
 919,81;15820,698;  212,975;23370,412;67,39832
 920,37;15846,621;  233,283;23301,335;67,68382
 920,92;15816,775;  241,975;23216,796;67,79073
 921,48;15746,467;  209,667;22934,027;68,37068
 922,03;15714,160;  218,437;23038,488;67,90398
 922,59;15683,775;  225,821;22863,565;68,28398
 923,14;15567,775;  223,975;22679,488;68,32977
 923,69;15585,083;  244,283;22620,642;68,55807
 924,25;15580,544;  248,513;22641,181;68,46898
 924,80;15492,390;  225,975;22275,796;69,23601
 925,36;15483,006;  219,744;22273,104;69,21060
 925,91;15373,698;  222,052;22124,873;69,17669
 926,47;15374,929;  209,667;22107,181;69,25563
 927,02;15337,544;  269,744;22038,335;69,21808
 927,57;15252,160;  220,975;21821,565;69,58692
 928,13;15291,621;  217,360;21776,642;69,92005
 928,68;15218,467;  221,283;21722,027;69,75193
 929,24;15062,544;  192,821;21528,642;69,69370
 929,79;15083,006;  216,052;21382,335;70,23885
 930,34;15004,775;  216,513;21190,642;70,50716
 930,90;15014,544;  215,898;21257,642;70,32994
 931,45;14980,544;  233,513;21206,719;70,31367
 932,01;14951,929;  231,360;21068,950;70,64430
 932,56;14856,467;  244,513;20865,642;70,85914
 933,11;14879,544;  256,437;20914,258;70,78727
 933,67;14847,852;  216,360;20690,488;71,46332
 934,22;14852,544;  221,283;20578,796;71,87156
 934,77;14833,390;  251,360;20507,642;71,98769
 935,33;14750,006;  233,975;20403,412;71,97043
 935,88;14779,160;  226,590;20301,335;72,49193
 936,43;14740,698;  218,975;20248,181;72,50274
 936,99;14754,544;  225,206;20154,719;72,90363
 937,54;14643,237;  212,513;19992,719;72,95537
 938,09;14638,467;  235,360;19954,412;73,04158
 938,65;14602,929;  230,437;19810,104;73,40519
 939,20;14491,852;  204,129;19720,104;73,21040
 939,75;14494,544;  217,360;19588,488;73,70342
 940,31;14517,390;  214,590;19526,642;74,06152
 940,86;14517,467;  228,744;19496,873;74,15729
 941,41;14460,467;  300,129;19384,873;74,19716
 941,96;14340,237;  217,590;19234,412;74,26397
 942,52;14314,544;  218,898;19187,027;74,31226
 943,07;14295,929;  200,283;19000,335;74,97663
 943,62;14250,852;  210,513;18923,565;75,02966
 944,18;14152,621;  204,667;18843,796;74,83158
 944,73;14163,390;  220,129;18759,181;75,21022
 945,28;14000,467;  200,898;18568,873;75,12842
 945,83;14027,390;  224,975;18574,873;75,21794
 946,39;14078,467;  214,590;18463,565;75,97072
 946,94;14059,467;  239,052;18505,642;75,65952
 947,49;14001,775;  225,590;18264,719;76,36835
 948,04;14013,621;  248,513;18248,181;76,47423
 948,59;14030,775;  237,129;18177,258;76,88711
 949,15;14047,390;  208,898;18127,104;77,23146
 949,70;13983,544;  211,283;18002,412;77,41084
 950,25;13943,390;  243,590;17877,258;77,69116
 950,80;13825,544;  190,129;17786,719;77,48896
 951,36;13869,775;  188,975;17675,027;78,23836
 951,91;13890,006;  236,129;17672,027;78,30900
 952,46;13764,237;  207,821;17485,873;78,46032
 953,01;13868,929;  238,283;17504,565;78,94372
 953,56;13705,698;  203,975;17356,642;78,71501
 954,11;13688,160;  221,283;17362,796;78,56294
 954,67;13661,006;  214,898;17186,104;79,22895
 955,22;13549,698;  202,129;17152,181;78,74648
 955,77;13606,544;  238,437;17072,488;79,41111
 956,32;13587,083;  267,283;16949,796;79,84288
 956,87;13510,775;  207,821;16783,565;80,25554
 957,42;13541,852;  210,206;16742,488;80,64008
 957,98;13483,929;  209,821;16680,873;80,59053
 958,53;13448,698;  240,437;16656,335;80,46018
 959,08;13432,313;  216,283;16515,642;81,08313
 959,63;13352,467;  214,283;16453,335;80,90487
 960,18;13292,621;  226,206;16438,873;80,59387
 960,73;13295,237;  214,513;16331,412;81,16154
 961,28;13205,390;  206,975;16188,027;81,33642
 961,83;13225,544;  241,667;16189,565;81,41435
 962,39;13099,160;  200,129;16034,719;81,46110
 962,94;13091,006;  231,360;16000,950;81,54712
 963,49;13004,160;  214,744;15862,104;81,73529
 964,04;12992,083;  232,052;15809,027;81,91597
 964,59;12843,544;  199,975;15702,950;81,55576
 965,14;12823,390;  234,206;15642,412;81,70442
 965,69;12757,160;  220,129;15507,950;82,00666
 966,24;12720,621;  213,437;15436,719;82,15826
 966,79;12686,313;  231,667;15336,258;82,45603
 967,34;12645,467;  199,052;15212,719;82,90057
 967,89;12686,775;  209,590;15114,104;83,71414
 968,44;12671,390;  226,206;15046,565;83,97357
 968,99;12617,160;  229,052;14984,565;83,95579
 969,55;12637,083;  227,283;14903,027;84,55994
 970,10;12549,544;  230,821;14821,642;84,42789
 970,65;12476,621;  233,513;14703,335;84,61133
 971,20;12429,775;  210,052;14610,488;84,85662
 971,75;12311,544;  201,206;14497,181;84,71153
 972,30;12332,313;  225,898;14445,873;85,13669
 972,85;12245,160;  206,513;14366,796;85,01699
 973,40;12157,006;  204,513;14167,565;85,60086
 973,95;12154,083;  224,360;14185,412;85,45003
 974,50;12084,160;  248,360;14086,950;85,52750
 975,05;12064,006;  224,206;13905,642;86,53916
 975,60;12046,083;  227,667;13878,950;86,57366
 976,15;11967,621;  216,052;13755,950;86,79215
 976,70;11882,929;  212,744;13693,335;86,57028
 977,25;11890,083;  228,667;13616,258;87,10616
 977,80;11755,313;  212,975;13398,565;87,53752
 978,35;11667,006;  231,590;13314,796;87,40530
 978,89;11571,929;  194,667;13252,873;87,12730
 979,44;11632,390;  216,744;13219,796;87,79205
 979,99;11440,237;  206,129;13049,488;87,47016
 980,54;11403,929;  236,513;12988,104;87,57665
 981,09;11301,621;  238,437;12832,565;87,84398
 981,64;11297,160;  231,360;12723,488;88,58218
 982,19;11255,621;  253,667;12714,719;88,29073
 982,74;11119,390;  233,667;12564,565;88,28005
 983,29;11021,698;  209,052;12400,027;88,69386
 983,84;10955,160;  228,513;12303,488;88,83369
 984,39;10988,544;  277,437;12298,181;89,10520
 984,94;10800,544;  198,129;12154,719;88,67424
 985,49;10784,160;  248,667;12060,335;89,19564
 986,03;10744,621;  239,206;11997,796;89,34247
 986,58;10679,237;  271,360;11828,565;90,05531
 987,13;10589,237;  228,898;11728,796;90,09070
 987,68;10445,160;  239,437;11609,335;89,76090
 988,23;10422,313;  231,821;11558,027;89,97269
 988,78;10309,621;  215,283;11352,104;90,63932
 989,33;10239,621;  235,898;11312,181;90,31661
 989,88;10171,006;  261,975;11214,412;90,47330
 990,42;10073,852;  220,667;11102,181;90,54976
 990,97; 9987,775;  220,283;10949,027;91,04041
 991,52; 9967,160;  248,975;10915,027;91,11323
 992,07; 9865,621;  256,667;10801,412;91,12553
 992,62; 9794,852;  241,052;10718,873;91,18117
 993,17; 9671,313;  244,590;10596,104;91,06613
 993,71; 9590,544;  236,744;10508,565;91,06272
 994,26; 9535,006;  220,667;10335,950;92,08184
 994,81; 9466,775;  246,129;10295,027;91,75778
 995,36; 9360,775;  235,052;10137,719;92,15419
 995,91; 9260,698;  228,821;10097,335;91,52216
 996,45; 9220,467;  232,513; 9939,719;92,59054
 997,00; 9073,083;  214,129; 9861,565;91,82702
 997,55; 9065,544;  235,513; 9794,335;92,37573
 998,10; 9013,083;  261,590; 9676,488;92,95366
 998,65; 8882,160;  223,975; 9595,027;92,39288
 999,19; 8815,929;  251,283; 9456,412;93,04211
 999,74; 8702,467;  278,975; 9402,104;92,33118
1000,29; 8675,621;  251,821; 9298,950;93,11020
1000,84; 8586,775;  231,744; 9158,950;93,59066
1001,38; 8519,621;  234,129; 9078,796;93,67783
1001,93; 8419,852;  242,437; 9040,335;92,94738
1002,48; 8354,621;  218,129; 8857,104;94,18354
1003,03; 8348,698;  236,052; 8843,104;94,25581
1003,57; 8216,083;  242,667; 8662,719;94,69556
1004,12; 8160,006;  267,052; 8632,565;94,35110
1004,67; 8087,313;  233,052; 8498,412;95,02625
1005,22; 7965,160;  223,437; 8366,565;95,07062
1005,76; 7832,544;  216,206; 8234,027;94,99262
1006,31; 7847,467;  247,283; 8191,796;95,66583
1006,86; 7732,929;  226,744; 8071,488;95,68425
1007,40; 7638,160;  218,590; 7946,335;96,01210
1007,95; 7650,390;  238,437; 7855,027;97,31328
1008,50; 7506,852;  234,360; 7722,488;97,12029
1009,04; 7431,621;  231,513; 7619,181;97,46118
1009,59; 7272,929;  247,744; 7518,027;96,62877
1010,14; 7239,775;  221,360; 7391,488;97,88409
1010,68; 7139,929;  234,283; 7255,873;98,34875
1011,23; 7012,006;  215,590; 7127,412;98,33031
1011,78; 7024,698;  240,129; 7102,796;98,86199
1012,32; 6896,775;  239,821; 7005,104;98,39875
1012,87; 6876,006;  259,206; 6943,412;98,99157
1013,42; 6761,544;  210,360; 6846,796;98,71540
1013,96; 6777,083;  261,360; 6832,565;99,15567
1014,51; 6658,852;  198,667; 6706,412;99,26918
1015,06; 6673,467;  190,360; 6751,488;98,81086
1015,60; 6758,621;  268,975; 6764,488;99,90967
1016,15; 6707,313;  215,052; 6756,335;99,25059
1016,69; 6744,237;  231,437; 6763,719;99,70175
1017,24; 6738,698;  196,283; 6787,796;99,25513
1017,79; 6840,006;  245,744; 6832,796;100,10945
1018,33; 6802,698;  220,821; 6814,104;99,82701
1018,88; 6913,852;  237,744; 6866,104;100,72036
1019,42; 6925,237;  221,437; 6870,104;100,82923
1019,97; 6881,775;  215,437; 6884,873;99,95355
1020,51; 6976,160;  248,206; 6918,335;100,86692
1021,06; 6963,390;  204,590; 6930,642;100,48688
1021,61; 6977,083;  187,898; 6853,258;101,85774
1022,15; 6944,083;  193,437; 6810,796;102,01420
1022,70; 6963,775;  225,206; 6826,950;102,07256
1023,24; 6932,083;  213,975; 6803,335;101,95388
1023,79; 6858,852;  222,898; 6735,258;101,89784
1024,33; 6833,237;  221,513; 6661,950;102,65955
1024,88; 6762,083;  233,437; 6588,873;102,72538
1025,42; 6669,083;  224,360; 6499,950;102,69509
1025,97; 6655,006;  212,898; 6359,719;104,80389
1026,51; 6476,006;  180,360; 6257,873;103,58918
1027,06; 6431,390;  212,129; 6224,027;103,44922
1027,60; 6327,929;  227,437; 6133,565;103,29088
1028,15; 6301,160;  232,052; 6013,565;104,97438
1028,69; 6084,237;  191,206; 5878,642;103,61488
1029,24; 6044,621;  211,129; 5852,181;103,41143
1029,78; 5923,237;  207,437; 5700,258;104,05946
1030,33; 5853,006;  193,360; 5620,796;104,27844
1030,87; 5791,083;  217,744; 5544,412;104,63087
1031,42; 5691,929;  199,513; 5511,565;103,39536
1031,96; 5654,083;  219,206; 5417,181;104,55758
1032,51; 5508,852;  208,898; 5315,412;103,78811
1033,05; 5500,544;  224,821; 5261,565;104,74471
1033,60; 5366,621;  180,590; 5120,796;104,97601
1034,14; 5301,698;  219,206; 5065,642;104,87071
1034,69; 5261,698;  212,898; 5014,873;105,14007
1035,23; 5198,467;  221,437; 4951,873;105,21293
1035,77; 5160,390;  215,590; 4875,335;106,11741
1036,32; 5053,390;  191,206; 4794,950;105,61370
1036,86; 4973,929;  214,667; 4770,719;104,46021
1037,41; 4913,852;  224,360; 4664,796;105,60881
1037,95; 4840,621;  185,513; 4588,642;105,72272
1038,50; 4807,237;  200,283; 4514,027;106,79710
1039,04; 4763,929;  232,667; 4480,642;106,66874
1039,58; 4677,929;  198,052; 4391,950;106,81893
1040,13; 4636,621;  209,821; 4376,412;106,24515
1040,67; 4617,544;  246,283; 4344,258;106,66882
1041,21; 4504,775;  239,975; 4268,412;105,86737
1041,76; 4399,237;  202,590; 4130,027;106,85459
1042,30; 4369,313;  205,360; 4121,488;106,32832
1042,85; 4326,852;  207,360; 4036,796;107,57437
1043,39; 4268,313;  202,052; 3977,719;107,69650
1043,93; 4223,467;  230,129; 3965,719;106,89979
1044,48; 4145,698;  225,744; 3904,335;106,56130
1045,02; 4107,006;  209,590; 3804,258;108,42214
1045,56; 4082,160;  238,744; 3770,642;108,82011
1046,11; 4012,775;  230,590; 3755,873;107,28741
1046,65; 3954,006;  220,206; 3681,719;107,86611
1047,19; 3884,852;  204,975; 3618,412;107,80563
1047,74; 3853,544;  194,667; 3528,873;109,73759
1048,28; 3814,083;  223,206; 3535,412;108,41346
1048,82; 3756,775;  244,744; 3506,181;107,68355
1049,37; 3738,775;  223,975; 3444,642;109,13266
1049,91; 3669,467;  217,821; 3417,335;107,88034
1050,45; 3643,852;  227,590; 3377,719;108,44831
1050,99; 3557,544;  216,744; 3306,873;108,11200
1051,54; 3515,852;  210,975; 3262,335;108,30834
1052,08; 3528,390;  234,590; 3226,796;110,07933
1052,62; 3460,621;  239,283; 3178,642;109,59321
1053,16; 3392,467;  217,437; 3109,335;109,79055
1053,71; 3360,083;  225,667; 3088,027;109,50460
1054,25; 3323,237;  234,129; 3042,104;110,01194
1054,79; 3289,852;  223,821; 2991,258;110,78956
1055,33; 3195,621;  194,975; 2892,873;111,22163
1055,88; 3213,467;  228,590; 2926,796;110,62451
1056,42; 3157,083;  236,821; 2891,027;110,02393
1056,96; 3137,390;  236,898; 2825,873;112,03246
1057,50; 3093,083;  228,129; 2797,796;111,49124
1058,05; 3049,775;  220,052; 2745,796;112,03522
1058,59; 2992,160;  232,590; 2715,719;111,13274
1059,13; 2888,006;  206,206; 2624,642;110,88982
1059,67; 2921,775;  222,052; 2633,719;111,94426
1060,21; 2836,313;  227,437; 2581,181;110,83944
1060,76; 2826,006;  236,667; 2548,950;111,98192
1061,30; 2789,006;  250,513; 2537,565;110,99408
1061,84; 2728,390;  233,513; 2464,181;111,84442
1062,38; 2683,313;  214,821; 2407,796;112,56363
1062,92; 2684,237;  259,513; 2438,796;111,26244
1063,46; 2614,313;  238,206; 2377,873;111,05033
1064,01; 2606,621;  223,590; 2308,719;114,28698
1064,55; 2564,390;  229,437; 2278,181;113,97000
1065,09; 2516,544;  196,744; 2234,027;113,86736
1065,63; 2511,467;  258,898; 2275,642;111,69335
1066,17; 2502,544;  254,975; 2250,642;112,62244
1066,71; 2456,390;  246,667; 2217,719;112,10882
1067,25; 2408,544;  230,206; 2156,488;113,08509
1067,80; 2398,467;  243,360; 2149,719;113,04833
1068,34; 2385,006;  260,052; 2148,950;112,49701
1068,88; 2310,006;  225,283; 2081,258;112,32495
1069,42; 2323,852;  254,437; 2088,181;112,85191
1069,96; 2256,775;  238,590; 2014,565;113,63812
1070,50; 2283,621;  254,898; 2044,258;113,37705
1071,04; 2218,852;  217,898; 1960,027;114,85682
1071,58; 2218,698;  223,667; 1952,335;115,40860
1072,12; 2163,929;  229,283; 1930,642;113,71177
1072,66; 2158,390;  229,052; 1914,104;114,49727
1073,21; 2167,467;  240,744; 1917,950;114,87696
1073,75; 2107,390;  245,437; 1871,565;114,50223
1074,29; 2099,852;  234,283; 1851,258;115,37403
1074,83; 2084,852;  257,283; 1843,642;115,20523
1075,37; 2052,621;  249,129; 1828,412;114,19693
1075,91; 2018,160;  242,744; 1790,104;114,73838
1076,45; 2020,083;  235,590; 1773,950;115,99968
1076,99; 1976,929;  249,898; 1745,335;115,48673
1077,53; 1933,083;  220,052; 1713,488;114,70395
1078,07; 1935,160;  228,437; 1713,950;114,89112
1078,61; 1899,929;  234,360; 1670,258;115,99495
1079,15; 1886,083;  238,206; 1639,412;117,60421
1079,69; 1839,544;  225,744; 1633,027;114,67490
1080,23; 1848,698;  254,129; 1633,796;115,57636
1080,77; 1868,006;  267,052; 1646,104;116,09090
1081,31; 1788,237;  225,821; 1581,642;115,23757
1081,85; 1783,852;  249,283; 1560,950;116,99379
1082,39; 1770,467;  227,437; 1537,719;117,76320
1082,93; 1720,929;  246,975; 1544,412;113,60508
1083,47; 1701,083;  230,590; 1494,335;116,35996
1084,01; 1725,929;  247,590; 1503,719;117,69003
1084,55; 1684,237;  227,590; 1449,104;119,24929
1085,09; 1672,544;  252,744; 1463,412;117,27417
1085,63; 1651,544;  239,206; 1461,027;115,59290
1086,17; 1599,544;  228,129; 1410,642;115,97461
1086,71; 1594,852;  225,590; 1403,950;116,20065
1087,24; 1621,621;  251,821; 1425,873;116,67286
1087,78; 1571,467;  247,513; 1391,873;115,69386
1088,32; 1531,775;  229,052; 1347,181;116,50921
1088,86; 1549,775;  251,975; 1361,796;116,93776
1089,40; 1512,237;  245,744; 1326,104;117,22877
1089,94; 1477,467;  219,129; 1296,719;116,77336
1090,48; 1500,467;  254,744; 1307,642;118,31374
1091,02; 1481,544;  249,667; 1296,796;117,64330
1091,56; 1433,698;  248,667; 1270,873;115,92879
1092,10; 1412,237;  225,744; 1243,796;116,54536
1092,63; 1437,237;  262,821; 1270,335;116,56573
1093,17; 1403,852;  257,744; 1241,488;116,50464
1093,71; 1379,852;  228,052; 1212,488;117,00094
1094,25; 1387,006;  260,821; 1198,642;120,08522
1094,79; 1337,698;  236,206; 1177,181;117,05862
1095,33; 1323,929;  235,744; 1167,642;116,77078
1095,87; 1326,929;  229,667; 1172,104;116,42816
1096,40; 1292,467;  218,437; 1133,258;117,40336
1096,94; 1280,160;  242,437; 1127,027;117,31114
1097,48; 1290,313;  245,283; 1121,258;119,29915
1098,02; 1253,237;  233,129; 1089,796;119,07863
1098,56; 1237,160;  203,437; 1066,027;119,83939
1099,10; 1211,852;  219,206; 1061,412;117,86266
1099,63; 1213,083;  203,821; 1055,335;118,52561
1100,17; 1217,160;  247,744; 1059,642;119,40112
1100,71; 1218,237;  261,667; 1069,719;118,37967

