
Integration time [ms]: 120,000
Averaging Nr. [scans]: 13
Smoothing Nr. [pixels]: 0
Data measured with spectrometer [name]: 2009305U1
Wave   ;Sample   ;Dark     ;Reference;Reflectance
[nm]   ;[counts] ;[counts] ;[counts] ;[%]

 175,72;  191,253;  184,295;  197,827;51,42266
 176,32;  220,939;  214,370;  203,218; 0,00000
 176,92;  238,150;  226,679;  235,896;124,44744
 177,52;  249,798;  240,910;  250,332;94,33063
 178,12;  217,094;  216,986;  204,819; 0,00000
 178,72;  255,593;  243,524;  236,057; 0,00000
 179,32;  239,540;  243,370;  224,940; 0,00000
 179,92;  231,647;  243,217;  229,841; 0,00000
 180,52;  235,156;  225,450;  240,248;65,59250
 181,12;  245,776;  237,140;  229,870; 0,00000
 181,73;  263,668;  257,064;  249,292; 0,00000
 182,33;  325,125;  300,295;  311,285;225,93837
 182,93;  257,972;  244,987;  256,834;109,60788
 183,53;  236,139;  222,678;  218,471; 0,00000
 184,13;  226,474;  224,601;  211,837; 0,00000
 184,73;  264,938;  246,985;  256,064;197,74183
 185,33;  255,709;  213,130;  330,659;36,22815
 185,93;  273,413;  223,206;  353,080;38,65831
 186,53;  273,198;  234,514;  367,087;29,17935
 187,13;  298,181;  264,669;  410,813;22,93099
 187,73;  271,130;  220,052;  354,845;37,89378
 188,33;  268,135;  230,975;  353,340;30,36832
 188,93;  272,473;  230,050;  379,969;28,29749
 189,53;  284,425;  237,740;  379,819;32,85862
 190,13;  300,198;  264,584;  409,056;24,65122
 190,73;  267,439;  205,278;  349,020;43,24493
 191,34;  292,360;  255,280;  379,229;29,91546
 191,94;  252,551;  221,512;  359,021;22,57182
 192,54;  268,960;  246,055;  399,315;14,94565
 193,14;  283,346;  247,054;  378,659;27,57676
 193,74;  272,333;  238,130;  381,571;23,84479
 194,34;  283,745;  232,131;  383,271;34,14991
 194,94;  249,674;  212,361;  353,007;26,52973
 195,54;  213,619;  180,745;  336,212;21,14515
 196,14;  250,808;  205,593;  361,941;28,91953
 196,74;  242,374;  205,207;  347,908;26,04558
 197,34;  231,576;  183,593;  344,264;29,86395
 197,94;  252,266;  212,515;  370,868;25,10274
 198,54;  268,486;  215,285;  382,971;31,72673
 199,14;  234,482;  203,440;  392,451;16,42338
 199,74;  234,615;  199,901;  383,564;18,90086
 200,34;  232,011;  183,594;  400,590;22,31242
 200,94;  259,865;  211,516;  423,952;22,75904
 201,54;  246,959;  200,055;  446,689;19,01765
 202,14;  264,460;  196,210;  478,861;24,14652
 202,74;  264,383;  192,978;  483,579;24,57140
 203,34;  246,082;  187,672;  504,213;18,45268
 203,94;  234,204;  158,056;  517,737;21,17111
 204,54;  303,660;  228,208;  600,447;20,26991
 205,14;  265,775;  184,055;  623,865;18,58081
 205,74;  305,892;  226,825;  716,986;16,13076
 206,34;  282,466;  194,440;  740,392;16,12340
 206,94;  303,860;  202,517;  804,099;16,84612
 207,54;  287,080;  175,979;  831,022;16,96092
 208,14;  320,846;  197,517;  948,616;16,41981
 208,74;  333,543;  194,824; 1013,495;16,94438
 209,34;  334,680;  198,440; 1109,964;14,94637
 209,94;  370,245;  210,594; 1218,612;15,83811
 210,54;  377,620;  204,902; 1334,803;15,28614
 211,14;  400,670;  204,978; 1439,231;15,85509
 211,73;  400,950;  209,363; 1548,033;14,31173
 212,33;  438,808;  203,901; 1686,146;15,84807
 212,93;  433,815;  196,978; 1784,114;14,92225
 213,53;  414,215;  167,440; 1836,377;14,78636
 214,13;  419,883;  181,057; 1934,305;13,62193
 214,73;  439,537;  182,056; 1955,553;14,51827
 215,33;  412,399;  158,825; 1998,304;13,78510
 215,93;  455,366;  184,748; 2108,971;14,06374
 216,53;  424,611;  145,978; 2218,070;13,44691
 217,13;  484,432;  198,825; 2427,407;12,81563
 217,73;  500,402;  183,287; 2687,121;12,66518
 218,33;  455,019;  150,288; 2895,620;11,10000
 218,93;  526,687;  164,366; 3200,675;11,93296
 219,53;  585,999;  179,211; 3492,118;12,27889
 220,13;  578,726;  143,442; 3827,770;11,81448
 220,73;  635,204;  180,286; 4235,916;11,21695
 221,32;  691,005;  171,132; 4657,033;11,58903
 221,92;  738,773;  180,518; 5094,689;11,36010
 222,52;  790,404;  154,672; 5531,414;11,82374
 223,12;  844,112;  167,133; 6014,909;11,57669
 223,72;  893,091;  186,902; 6441,715;11,29033
 224,32;  933,058;  178,441; 6839,074;11,32952
 224,92;  973,876;  172,056; 7167,902;11,46137
 225,52; 1052,071;  184,132; 7617,290;11,67658
 226,12; 1078,131;  186,671; 7956,323;11,47361
 226,72; 1120,534;  156,902; 8313,455;11,81421
 227,31; 1164,506;  145,517; 8745,590;11,84860
 227,91; 1264,005;  180,825; 9216,982;11,98718
 228,51; 1340,070;  171,593; 9563,212;12,44170
 229,11; 1410,225;  163,902;10099,008;12,54463
 229,71; 1458,499;  165,363;10411,443;12,62079
 230,31; 1562,680;  156,980;10827,400;13,17381
 230,91; 1636,229;  149,362;11244,271;13,40134
 231,51; 1727,451;  156,364;11547,641;13,79202
 232,10; 1825,586;  152,980;11871,946;14,27264
 232,70; 1917,360;  166,900;12211,425;14,53325
 233,30; 2059,889;  185,671;12495,092;15,22588
 233,90; 2125,937;  163,825;12632,843;15,73590
 234,50; 2205,591;  171,056;12739,901;16,18712
 235,10; 2313,646;  165,595;12845,055;16,94118
 235,70; 2404,703;  179,209;12911,744;17,47880
 236,29; 2475,800;  187,132;12930,451;17,95975
 236,89; 2551,518;  164,901;12878,370;18,77235
 237,49; 2623,270;  182,133;12774,044;19,38655
 238,09; 2662,697;  166,979;12520,469;20,20254
 238,69; 2740,634;  190,823;12205,593;21,22230
 239,29; 2753,261;  159,671;11880,440;22,12815
 239,89; 2737,546;  180,285;11544,773;22,50221
 240,48; 2738,746;  167,440;11175,374;23,35866
 241,08; 2714,524;  165,902;10767,850;24,03919
 241,68; 2708,670;  191,825;10447,975;24,53987
 242,28; 2662,118;  158,594;10063,107;25,27660
 242,88; 2718,862;  189,826; 9767,110;26,40661
 243,48; 2664,829;  200,517; 9498,623;26,50337
 244,07; 2669,976;  182,594; 9211,194;27,55003
 244,67; 2653,805;  180,440; 9046,766;27,89617
 245,27; 2623,719;  181,901; 8874,879;28,08954
 245,87; 2629,195;  192,057; 8875,004;28,06810
 246,47; 2620,209;  179,517; 8785,359;28,36087
 247,06; 2636,939;  172,133; 8792,469;28,59292
 247,66; 2637,972;  178,363; 8906,597;28,17991
 248,26; 2701,323;  193,978; 9052,033;28,30582
 248,86; 2752,091;  184,670; 9272,355;28,25164
 249,46; 2767,702;  140,441; 9457,066;28,19971
 250,05; 2847,248;  182,748; 9876,916;27,48560
 250,65; 2882,513;  162,516;10290,465;26,85634
 251,25; 3033,041;  169,748;10800,132;26,93499
 251,85; 3100,657;  169,978;11396,861;26,10413
 252,44; 3193,592;  140,363;12093,784;25,54272
 253,04; 3368,589;  186,594;12820,762;25,18563
 253,64; 3406,755;  140,516;13630,311;24,21266
 254,24; 3575,961;  183,671;14600,418;23,53020
 254,84; 3689,087;  166,518;15538,297;22,91582
 255,43; 3844,873;  182,440;16577,597;22,33850
 256,03; 3940,924;  166,747;17554,421;21,70605
 256,63; 4082,259;  177,055;18707,428;21,07461
 257,23; 4109,463;  166,824;19583,703;20,30521
 257,82; 4189,015;  178,208;20535,007;19,70254
 258,42; 4186,371;  143,746;21378,040;19,03819
 259,02; 4257,441;  174,132;22303,139;18,45229
 259,62; 4216,870;  169,746;22953,842;17,76294
 260,21; 4222,990;  170,286;23373,909;17,46583
 260,81; 4139,864;  177,287;23901,634;16,70258
 261,41; 4041,299;  156,516;24311,688;16,08262
 262,01; 4016,445;  203,823;24746,197;15,53485
 262,60; 3883,155;  164,593;24958,319;14,99800
 263,20; 3808,571;  163,286;25316,718;14,49220
 263,80; 3666,374;  193,438;25480,421;13,73409
 264,40; 3541,112;  156,284;25588,227;13,30936
 264,99; 3457,974;  179,592;25805,311;12,79333
 265,59; 3306,408;  171,283;25922,201;12,17481
 266,19; 3256,046;  163,053;25947,534;11,99556
 266,78; 3191,804;  198,284;26206,252;11,51001
 267,38; 3097,294;  168,284;26133,399;11,28056
 267,98; 3003,225;  158,592;26068,556;10,97892
 268,58; 2911,881;  176,130;26086,534;10,55851
 269,17; 2825,446;  171,437;26104,131;10,23422
 269,77; 2752,240;  180,900;25874,579;10,00767
 270,37; 2674,596;  150,438;25739,457; 9,86422
 270,96; 2685,309;  201,823;25557,498; 9,79459
 271,56; 2574,307;  165,208;25347,487; 9,56664
 272,16; 2536,605;  168,439;25178,472; 9,46887
 272,75; 2503,117;  168,977;25026,209; 9,39019
 273,35; 2485,108;  178,900;25041,886; 9,27567
 273,95; 2432,789;  169,054;24932,476; 9,14145
 274,54; 2409,254;  154,979;25007,139; 9,07074
 275,14; 2489,207;  184,362;25444,989; 9,12426
 275,74; 2469,109;  143,362;25424,154; 9,19966
 276,33; 2576,351;  180,824;25957,897; 9,29325
 276,93; 2622,601;  177,517;26382,491; 9,33061
 277,53; 2671,703;  179,286;26841,795; 9,34802
 278,12; 2743,011;  162,362;27369,205; 9,48529
 278,72; 2877,212;  186,055;27954,253; 9,69151
 279,32; 2982,413;  165,593;28613,941; 9,90152
 279,91; 3091,450;  157,055;29348,821;10,05213
 280,51; 3215,494;  176,594;29967,436;10,20079
 281,11; 3359,499;  183,132;30763,341;10,38700
 281,70; 3434,965;  153,901;31077,040;10,61039
 282,30; 3610,692;  154,901;31781,102;10,92699
 282,90; 3732,803;  159,901;32184,575;11,15672
 283,49; 3916,164;  186,362;32664,692;11,48397
 284,09; 4065,208;  195,978;33202,256;11,72271
 284,69; 4192,698;  193,286;33508,839;12,00464
 285,28; 4379,767;  190,824;33869,912;12,43782
 285,88; 4581,717;  203,669;34070,714;12,92716
 286,47; 4683,055;  168,208;34116,308;13,29926
 287,07; 4882,818;  205,132;34231,136;13,74739
 287,67; 5065,675;  189,594;34321,469;14,28600
 288,26; 5227,194;  166,440;34320,234;14,81755
 288,86; 5477,482;  162,978;34296,553;15,56972
 289,46; 5726,563;  176,824;34525,048;16,15728
 290,05; 6035,369;  163,055;34572,326;17,06608
 290,65; 6305,444;  172,439;34708,084;17,75848
 291,24; 6627,862;  183,901;34922,725;18,54974
 291,84; 6968,105;  192,901;35024,352;19,45140
 292,44; 7254,286;  166,979;35126,077;20,27314
 293,03; 7595,155;  225,517;35254,139;21,03890
 293,63; 7890,467;  178,285;35440,711;21,87082
 294,22; 8225,359;  197,439;35606,619;22,67186
 294,82; 8478,673;  176,900;35589,791;23,44280
 295,41; 8666,965;  160,362;35295,810;24,21089
 296,01; 8972,491;  214,054;35187,567;25,04306
 296,61; 9083,868;  175,286;34875,487;25,67300
 297,20; 9219,982;  184,977;34411,187;26,39791
 297,80; 9403,009;  186,056;34292,246;27,02428
 298,39; 9508,196;  149,747;33772,784;27,83344
 298,99; 9657,491;  174,516;33673,670;28,30810
 299,58; 9785,672;  185,440;33550,037;28,77371
 300,18; 9950,419;  197,902;33349,139;29,41826
 300,78; 9967,593;  165,209;32991,923;29,86100
 301,37;10158,726;  195,361;32963,293;30,40584
 301,97;10321,766;  188,363;32983,106;30,89947
 302,56;10430,514;  174,208;32992,322;31,25197
 303,16;10521,461;  160,362;32874,154;31,67196
 303,75;10676,659;  173,825;32935,769;32,05803
 304,35;10895,195;  172,210;33155,594;32,51026
 304,94;10990,865;  178,516;33171,055;32,77210
 305,54;11068,543;  201,363;33102,648;33,02965
 306,13;11167,168;  148,902;33002,099;33,53788
 306,73;11192,090;  169,748;32694,319;33,88928
 307,33;11285,919;  192,517;32634,839;34,19423
 307,92;11374,953;  173,594;32825,158;34,30574
 308,52;11732,026;  167,516;33296,648;34,90737
 309,11;12028,600;  167,592;33765,516;35,30280
 309,71;12128,151;  147,515;33981,399;35,41017
 310,30;12303,287;  156,517;34257,652;35,61984
 310,90;12514,826;  182,824;34515,883;35,91874
 311,49;12667,285;  171,593;34722,128;36,16642
 312,09;12841,678;  147,594;34879,850;36,54840
 312,68;12987,830;  214,055;35222,454;36,48774
 313,28;13047,799;  152,209;35442,388;36,54158
 313,87;13242,789;  140,747;35588,425;36,96164
 314,47;13328,765;  165,362;35807,003;36,93265
 315,06;13417,485;  149,594;36000,703;37,00831
 315,66;13549,217;  158,594;36164,542;37,19003
 316,25;13504,232;  143,977;36048,139;37,21088
 316,85;13535,210;  140,748;36223,780;37,12122
 317,44;13612,434;  163,592;36375,223;37,13956
 318,04;13598,524;  133,131;36306,670;37,22443
 318,63;13574,565;  142,825;36398,751;37,04702
 319,22;13674,604;  175,670;36628,384;37,03135
 319,82;13641,529;  167,132;36698,242;36,88472
 320,41;13591,039;  180,593;36505,044;36,91851
 321,01;13606,005;  164,902;36727,751;36,76164
 321,60;13575,705;  161,824;36660,883;36,75131
 322,20;13550,821;  163,286;36746,491;36,59476
 322,79;13563,114;  190,901;36793,982;36,53303
 323,39;13489,892;  154,287;36744,063;36,44626
 323,98;13418,774;  149,748;36728,802;36,27493
 324,58;13353,579;  161,670;36565,773;36,23742
 325,17;13285,653;  177,285;36335,674;36,25263
 325,76;13142,012;  189,286;36205,908;35,96319
 326,36;12958,193;  160,363;35731,377;35,97825
 326,95;12811,447;  186,286;35447,619;35,80455
 327,55;12572,367;  151,516;35084,187;35,55655
 328,14;12399,501;  164,517;34533,095;35,59933
 328,74;12224,150;  193,131;34246,824;35,32956
 329,33;11997,724;  177,286;33765,476;35,19224
 329,92;11706,469;  153,361;33152,311;35,01053
 330,52;11433,950;  167,056;32528,495;34,81580
 331,11;11255,642;  166,901;32082,469;34,74399
 331,71;10970,296;  170,132;31485,282;34,48862
 332,30;10749,557;  181,824;31033,978;34,25282
 332,89;10487,799;  197,748;30421,414;34,04634
 333,49;10236,769;  180,132;29866,897;33,87583
 334,08;10017,045;  169,439;29472,601;33,60595
 334,68; 9793,472;  171,670;29057,282;33,31002
 335,27; 9613,904;  171,210;28651,099;33,15566
 335,86; 9492,026;  211,439;28407,853;32,91407
 336,46; 9340,234;  189,287;28198,817;32,67083
 337,05; 9186,998;  167,132;27914,989;32,50653
 337,65; 9080,794;  158,209;27835,714;32,23768
 338,24; 9073,808;  211,671;27792,121;32,13195
 338,83; 8959,047;  188,363;27679,637;31,90352
 339,43; 8876,638;  167,977;27600,626;31,74561
 340,02; 8773,489;  171,670;27526,557;31,44528
 340,61; 8742,163;  144,747;27517,117;31,40910
 341,21; 8686,073;  204,977;27578,901;30,98239
 341,80; 8576,555;  173,208;27446,505;30,81163
 342,40; 8614,189;  181,210;27575,088;30,78417
 342,99; 8546,953;  168,132;27764,568;30,36197
 343,58; 8555,878;  173,825;27831,015;30,30696
 344,18; 8501,984;  181,209;27956,557;29,95741
 344,77; 8523,755;  156,362;28303,414;29,72742
 345,36; 8538,678;  151,747;28636,850;29,44322
 345,96; 8612,829;  189,978;28914,802;29,32255
 346,55; 8600,376;  166,056;29104,704;29,14552
 347,14; 8608,616;  146,902;29529,308;28,79857
 347,74; 8657,121;  140,749;29922,693;28,59576
 348,33; 8816,363;  162,057;30594,924;28,43737
 348,92; 8885,202;  173,288;31239,689;28,04288
 349,52; 8910,608;  140,596;31731,766;27,76096
 350,11; 8936,802;  169,054;31934,179;27,60180
 350,70; 8887,351;  168,824;32034,282;27,36043
 351,29; 8702,930;  145,207;31703,695;27,11702
 351,89; 8620,202;  168,823;31755,084;26,75650
 352,48; 8561,848;  133,824;31716,755;26,68537
 353,07; 8466,912;  170,979;31680,616;26,32824
 353,67; 8338,938;  177,827;31566,510;26,00017
 354,26; 8250,707;  164,902;31349,663;25,92870
 354,85; 8114,253;  170,517;31122,539;25,66467
 355,45; 7941,036;  147,439;30946,868;25,30435
 356,04; 7862,942;  168,441;30854,389;25,07500
 356,63; 7732,084;  191,901;30606,183;24,79159
 357,22; 7618,630;  178,976;30532,776;24,50979
 357,82; 7458,588;  176,284;30253,274;24,21221
 358,41; 7358,361;  178,901;30189,604;23,92300
 359,00; 7253,114;  157,285;29990,366;23,78510
 359,60; 7157,179;  173,594;29884,920;23,50479
 360,19; 7050,336;  173,056;29680,967;23,30656
 360,78; 6914,150;  176,978;29623,542;22,87932
 361,37; 6804,515;  174,670;29305,271;22,75904
 361,97; 6706,884;  174,901;29251,571;22,46469
 362,56; 6552,962;  156,362;28891,787;22,26033
 363,15; 6466,408;  186,285;28685,113;22,03642
 363,74; 6305,375;  180,669;28221,549;21,84206
 364,34; 6145,890;  202,977;27871,436;21,47901
 364,93; 5963,981;  151,516;27498,227;21,25471
 365,52; 5805,488;  143,978;27014,777;21,06938
 366,11; 5728,897;  164,285;26756,337;20,92585
 366,71; 5538,065;  162,285;26257,077;20,60097
 367,30; 5439,342;  173,901;25967,293;20,41391
 367,89; 5379,721;  193,132;25702,454;20,33213
 368,48; 5200,795;  173,669;25454,546;19,88509
 369,07; 5067,428;  174,209;25000,898;19,70951
 369,67; 4963,203;  190,362;24715,787;19,46079
 370,26; 4851,695;  171,594;24476,894;19,25548
 370,85; 4761,166;  172,670;24129,037;19,15356
 371,44; 4643,645;  161,824;23912,824;18,87003
 372,03; 4541,365;  144,977;23667,022;18,69050
 372,63; 4431,441;  133,055;23322,396;18,53604
 373,22; 4399,042;  158,824;23081,220;18,49814
 373,81; 4283,306;  151,285;22752,374;18,28240
 374,40; 4180,438;  167,594;22517,835;17,95437
 374,99; 4091,260;  158,670;22259,875;17,79356
 375,59; 3987,408;  150,209;21937,832;17,61183
 376,18; 3972,618;  188,132;21922,073;17,41279
 376,77; 3899,891;  171,209;21540,934;17,44844
 377,36; 3860,739;  193,132;21607,432;17,12691
 377,95; 3799,563;  172,208;21250,304;17,20912
 378,55; 3689,928;  158,286;21130,059;16,83998
 379,14; 3661,494;  177,978;21056,077;16,68503
 379,73; 3644,138;  169,593;20937,146;16,73064
 380,32; 3638,513;  189,055;21018,388;16,56058
 380,91; 3561,874;  159,977;20825,454;16,46174
 381,50; 3558,249;  174,516;20808,286;16,39901
 382,10; 3532,359;  146,670;20658,004;16,50643
 382,69; 3470,067;  143,747;20707,549;16,17561
 383,28; 3498,811;  180,131;20610,989;16,24347
 383,87; 3424,014;  166,516;20470,509;16,04363
 384,46; 3403,253;  147,669;20359,472;16,10734
 385,05; 3449,927;  190,362;20436,930;16,09935
 385,64; 3407,128;  174,131;20410,798;15,97594
 386,24; 3372,294;  146,284;20377,784;15,94548
 386,83; 3396,718;  178,669;20427,340;15,89264
 387,42; 3407,395;  186,901;20495,333;15,85792
 388,01; 3421,184;  178,053;20840,835;15,69552
 388,60; 3470,214;  172,977;20987,300;15,84119
 389,19; 3484,820;  147,514;21203,105;15,84997
 389,78; 3552,328;  167,052;21483,589;15,88099
 390,37; 3612,712;  209,899;21952,014;15,65079
 390,96; 3649,042;  183,669;22077,604;15,82800
 391,56; 3649,714;  176,359;22219,677;15,75695
 392,15; 3703,878;  153,822;22464,999;15,91156
 392,74; 3709,552;  142,358;22689,519;15,82103
 393,33; 3801,956;  151,282;22946,061;16,01539
 393,92; 3883,404;  169,281;23452,229;15,95212
 394,51; 3931,934;  147,590;23615,113;16,12588
 395,10; 3973,746;  190,741;23826,394;16,00550
 395,69; 3993,088;  167,357;23919,584;16,10683
 396,28; 4040,009;  180,740;24011,599;16,19442
 396,87; 4097,334;  178,662;24071,694;16,40090
 397,46; 4103,497;  175,661;24241,631;16,32112
 398,06; 4166,471;  196,121;24465,224;16,35969
 398,65; 4166,402;  180,272;24479,366;16,40444
 399,24; 4260,234;  191,272;24716,729;16,59077
 399,83; 4257,763;  161,268;24731,493;16,67260
 400,42; 4339,997;  198,495;24846,525;16,80257
 401,01; 4331,767;  173,952;24919,751;16,80210
 401,60; 4393,448;  186,023;24898,145;17,02575
 402,19; 4407,601;  204,788;24867,129;17,04142
 402,78; 4409,917;  206,550;24866,973;17,04499
 403,37; 4415,053;  190,467;24672,257;17,25604
 403,96; 4426,369;  195,689;24575,255;17,35338
 404,55; 4450,519;  193,450;24500,227;17,51392
 405,14; 4415,209;  179,288;24271,108;17,58240
 405,73; 4430,211;  198,356;24179,713;17,64644
 406,32; 4450,199;  193,811;24054,210;17,83871
 406,91; 4398,279;  192,804;23818,329;17,80056
 407,50; 4391,870;  190,877;23736,881;17,84164
 408,09; 4385,664;  163,105;23384,733;18,18373
 408,68; 4466,970;  191,103;23312,260;18,49331
 409,27; 4433,658;  170,029;23122,023;18,57629
 409,86; 4403,687;  173,727;22920,391;18,59596
 410,45; 4492,448;  210,424;22866,854;18,89982
 411,04; 4505,750;  213,813;22785,056;19,01506
 411,63; 4512,624;  202,512;22479,516;19,34781
 412,22; 4500,747;  209,902;22259,595;19,45989
 412,81; 4497,900;  216,520;22037,661;19,62033
 413,40; 4453,573;  217,907;21662,955;19,75126
 413,99; 4466,041;  242,829;21353,178;20,00541
 414,58; 4375,747;  196,907;20932,662;20,15283
 415,17; 4338,341;  193,520;20718,005;20,19452
 415,76; 4357,336;  187,979;20643,920;20,38213
 416,35; 4364,388;  181,365;20489,360;20,59791
 416,94; 4449,664;  202,595;20508,474;20,91547
 417,53; 4513,038;  183,212;20824,269;20,97677
 418,12; 4568,822;  177,443;20809,060;21,28470
 418,71; 4703,079;  209,753;21164,698;21,44279
 419,30; 4752,912;  200,213;21246,610;21,63173
 419,89; 4832,910;  189,521;21466,984;21,82304
 420,48; 4961,534;  216,368;21774,013;22,01152
 421,07; 5014,106;  214,677;21823,706;22,21029
 421,66; 5017,034;  170,139;21769,149;22,44036
 422,25; 5099,606;  200,065;21749,560;22,73622
 422,84; 5090,494;  215,834;21735,846;22,65175
 423,43; 5075,082;  187,449;21496,941;22,93641
 424,02; 5037,653;  212,065;21197,095;22,99539
 424,60; 5036,204;  201,067;20720,609;23,56357
 425,19; 4989,431;  202,527;20455,125;23,63600
 425,78; 5047,981;  214,374;20434,843;23,90452
 426,37; 5049,623;  223,067;20259,517;24,08888
 426,96; 5051,141;  215,990;20078,784;24,34275
 427,55; 5043,344;  190,069;19928,459;24,58800
 428,14; 5016,321;  186,223;19699,909;24,75236
 428,73; 5015,118;  203,914;19608,876;24,79368
 429,32; 5061,675;  214,759;19553,521;25,06322
 429,91; 5069,701;  224,760;19577,158;25,03535
 430,50; 5098,604;  215,838;19393,426;25,46079
 431,08; 5057,401;  234,993;19221,291;25,39942
 431,67; 5141,534;  275,917;19138,650;25,79487
 432,26; 5107,385;  281,610;18977,273;25,81227
 432,85; 5057,022;  309,148;18636,042;25,90659
 433,44; 4983,142;  295,995;18198,826;26,18104
 434,03; 4942,097;  317,381;17848,328;26,38030
 434,62; 4865,584;  278,457;17497,617;26,63967
 435,21; 4827,130;  289,840;17252,954;26,74798
 435,79; 4815,915;  281,150;17115,335;26,93783
 436,38; 4835,925;  287,151;17034,350;27,16140
 436,97; 4827,140;  283,228;16888,343;27,36453
 437,56; 4817,553;  276,307;16705,029;27,64212
 438,15; 4853,727;  261,999;16700,325;27,93307
 438,74; 4878,754;  267,999;16648,307;28,14816
 439,33; 4872,082;  244,153;16696,091;28,13000
 439,91; 4932,122;  207,769;16760,981;28,54040
 440,50; 4989,838;  251,538;16775,223;28,67580
 441,09; 5048,206;  252,386;16861,179;28,87519
 441,68; 5110,393;  235,310;16873,180;29,30112
 442,27; 5145,868;  211,617;16813,330;29,72134
 442,86; 5149,618;  202,235;16820,931;29,76998
 443,44; 5193,051;  213,927;16859,015;29,91348
 444,03; 5262,375;  267,928;16906,946;30,01648
 444,62; 5212,130;  223,774;16783,283;30,12382
 445,21; 5232,205;  235,158;16569,272;30,59271
 445,80; 5231,727;  246,621;16480,177;30,70865
 446,39; 5176,525;  256,236;16175,169;30,90841
 446,97; 5121,233;  203,776;16041,588;31,04884
 447,56; 5066,686;  227,624;15799,214;31,07622
 448,15; 5040,316;  211,545;15600,119;31,37894
 448,74; 5014,726;  240,853;15439,423;31,41002
 449,33; 4958,862;  222,085;15224,445;31,57354
 449,91; 4903,404;  224,163;15042,083;31,57826
 450,50; 4842,333;  207,317;14791,434;31,78126
 451,09; 4843,016;  238,394;14693,650;31,85431
 451,68; 4901,402;  254,625;14617,610;32,35245
 452,26; 4864,594;  229,395;14563,259;32,33740
 452,85; 4859,976;  221,010;14423,878;32,66218
 453,44; 4919,978;  240,320;14445,120;32,94420
 454,03; 4928,514;  214,088;14462,032;33,08847
 454,61; 4935,485;  200,627;14358,695;33,44282
 455,20; 5084,090;  239,320;14595,285;33,74743
 455,79; 5059,863;  242,165;14593,882;33,56879
 456,38; 5097,509;  233,552;14710,707;33,59747
 456,97; 5149,291;  222,475;14729,974;33,96048
 457,55; 5154,886;  225,860;14714,395;34,02018
 458,14; 5214,473;  244,475;14698,813;34,38413
 458,73; 5194,009;  236,860;14631,509;34,43744
 459,31; 5278,753;  251,092;14638,795;34,94415
 459,90; 5321,932;  256,322;14756,484;34,93485
 460,49; 5381,370;  289,630;14762,370;35,18159
 461,08; 5384,189;  215,939;14935,813;35,11069
 461,66; 5454,920;  239,554;14978,165;35,38574
 462,25; 5525,405;  239,093;15091,202;35,59301
 462,84; 5576,234;  260,631;15126,850;35,75625
 463,43; 5524,629;  206,633;15070,583;35,77781
 464,01; 5609,098;  223,249;15068,459;36,28005
 464,60; 5619,778;  258,171;14952,986;36,48638
 465,19; 5533,450;  210,711;14738,074;36,63940
 465,77; 5556,796;  222,788;14734,030;36,75776
 466,36; 5501,105;  237,710;14633,092;36,56308
 466,95; 5436,654;  226,095;14286,349;37,05878
 467,53; 5312,815;  230,558;13982,086;36,95776
 468,12; 5253,051;  249,789;13718,657;37,14686
 468,71; 5163,216;  235,788;13488,129;37,18157
 469,29; 5109,475;  219,405;13240,393;37,55529
 469,88; 5026,985;  214,405;13028,273;37,55759
 470,47; 5158,951;  278,176;13160,903;37,88620
 471,06; 5085,568;  229,099;13112,504;37,69554
 471,64; 5165,902;  243,637;13188,973;38,02347
 472,23; 5195,338;  215,562;13259,991;38,17550
 472,81; 5226,038;  216,946;13370,405;38,08194
 473,40; 5350,528;  220,331;13543,757;38,50509
 473,99; 5437,402;  285,639;13706,083;38,38743
 474,57; 5462,757;  218,793;13785,772;38,65241
 475,16; 5586,708;  240,715;13932,020;39,04663
 475,75; 5646,968;  245,640;13994,885;39,28454
 476,33; 5709,152;  254,795;14186,735;39,15002
 476,92; 5699,883;  248,485;14189,010;39,10468
 477,51; 5754,519;  245,256;14263,845;39,29970
 478,09; 5770,883;  255,333;14299,113;39,27397
 478,68; 5818,158;  255,564;14160,805;40,00358
 479,27; 5841,724;  266,794;14300,900;39,72416
 479,85; 5905,863;  243,871;14296,175;40,29227
 480,44; 5915,657;  236,410;14430,812;40,01047
 481,02; 6693,223;  257,949;16322,615;40,05856
 481,61; 7518,822;  266,334;18114,172;40,63511
 482,20; 7982,678;  272,565;19333,007;40,45086
 482,78; 8332,464;  286,641;20043,999;40,72317
 483,37; 8524,996;  279,797;20606,688;40,56301
 483,95; 8648,589;  307,720;20751,073;40,79991
 484,54; 8743,931;  318,334;20964,520;40,80946
 485,13; 8666,384;  285,106;20814,300;40,82614
 485,71; 8605,801;  273,721;20515,993;41,16179
 486,30; 8495,473;  309,336;20288,875;40,97260
 486,88; 8339,061;  334,567;19782,344;41,15891
 487,47; 8045,725;  323,413;19041,583;41,25570
 488,05; 7685,764;  301,029;18078,575;41,53968
 488,64; 7125,592;  300,645;16705,905;41,60218
 489,23; 6297,064;  326,337;14607,392;41,80872
 489,81; 5474,680;  306,414;12768,341;41,47244
 490,40; 5247,006;  257,184;12240,729;41,63895
 490,98; 5128,380;  260,261;12005,524;41,44751
 491,57; 5107,683;  285,568;11892,209;41,54617
 492,15; 5128,853;  262,492;11840,935;42,02949
 492,74; 5096,745;  270,260;11759,520;42,00867
 493,32; 5061,567;  281,492;11654,935;42,02839
 493,91; 5014,382;  260,415;11528,715;42,18885
 494,50; 5018,808;  274,648;11528,411;42,15621
 495,08; 5021,918;  254,340;11442,206;42,61383
 495,67; 5042,952;  270,261;11414,371;42,82702
 496,25; 4978,178;  214,570;11345,056;42,79784
 496,84; 4966,845;  235,031;11293,367;42,78957
 497,42; 4988,291;  220,647;11254,693;43,20848
 498,01; 4970,137;  240,569;11201,206;43,15048
 498,59; 4950,721;  210,340;11126,499;43,42536
 499,18; 4944,328;  207,646;11063,341;43,63315
 499,76; 4925,941;  237,493;10956,525;43,73947
 500,35; 4858,378;  225,879;10782,042;43,88431
 500,93; 4857,828;  207,570;10750,708;44,10696
 501,52; 4826,728;  214,724;10719,184;43,90519
 502,10; 4823,863;  224,495;10611,104;44,28171
 502,69; 4773,276;  216,649;10495,712;44,32921
 503,27; 4672,733;  202,263;10271,935;44,39538
 503,86; 4667,284;  221,187;10225,434;44,44210
 504,44; 4631,795;  201,188;10119,544;44,67078
 505,03; 4487,501;  192,265; 9807,976;44,66894
 505,61; 4469,229;  205,419; 9726,177;44,78436
 506,19; 4422,374;  221,496; 9609,778;44,74597
 506,78; 4338,167;  188,881; 9403,046;45,03160
 507,36; 4236,736;  203,188; 9217,753;44,74480
 507,95; 4179,418;  202,882; 9100,522;44,69204
 508,53; 4156,775;  209,881; 8975,529;45,02683
 509,12; 4123,798;  215,959; 8819,105;45,42338
 509,70; 4045,889;  224,267; 8661,870;45,29275
 510,29; 3983,205;  219,959; 8533,361;45,26722
 510,87; 3854,977;  200,958; 8326,434;44,96991
 511,46; 3825,305;  202,420; 8120,962;45,75193
 512,04; 3728,720;  203,805; 8019,401;45,10103
 512,62; 3690,746;  211,420; 7889,691;45,31393
 513,21; 3600,514;  190,190; 7701,885;45,40020
 513,79; 3552,415;  201,961; 7601,439;45,27960
 514,38; 3468,524;  184,345; 7395,874;45,54068
 514,96; 3435,703;  228,807; 7330,768;45,15508
 515,54; 3386,476;  190,345; 7184,534;45,69694
 516,13; 3351,878;  207,423; 7129,475;45,42663
 516,71; 3281,093;  206,269; 7003,289;45,23783
 517,30; 3232,684;  187,347; 6848,754;45,71612
 517,88; 3219,787;  220,193; 6809,864;45,51964
 518,46; 3160,174;  196,270; 6688,106;45,65586
 519,05; 3151,348;  199,886; 6640,044;45,82903
 519,63; 3124,194;  202,347; 6611,479;45,58881
 520,22; 3097,636;  215,195; 6509,927;45,79132
 520,80; 3064,673;  217,733; 6416,831;45,92507
 521,38; 3079,449;  220,271; 6387,824;46,35838
 521,97; 3045,925;  200,964; 6374,077;46,08632
 522,55; 3037,190;  217,118; 6382,549;45,74006
 523,13; 3035,005;  187,965; 6351,919;46,18853
 523,72; 3054,123;  198,116; 6328,985;46,58405
 524,30; 3099,696;  221,427; 6465,062;46,09925
 524,89; 3091,886;  191,426; 6498,597;45,98670
 525,47; 3190,737;  208,196; 6625,784;46,47448
 526,05; 3201,922;  183,350; 6706,235;46,27664
 526,64; 3262,203;  202,043; 6768,689;46,60157
 527,22; 3353,897;  209,581; 6948,777;46,65714
 527,80; 3404,803;  241,581; 7088,656;46,19815
 528,39; 3436,185;  207,505; 7192,121;46,22558
 528,97; 3502,221;  206,043; 7327,477;46,28531
 529,55; 3611,110;  220,888; 7507,245;46,52835
 530,14; 3740,472;  236,582; 7735,722;46,72389
 530,72; 3752,123;  211,428; 7829,282;46,47891
 531,30; 3814,202;  186,044; 7957,396;46,68632
 531,89; 3882,097;  212,274; 8023,224;46,98305
 532,47; 3913,111;  237,275; 8105,220;46,71914
 533,05; 3949,977;  234,043; 8156,158;46,90584
 533,63; 3962,570;  238,352; 8223,506;46,63927
 534,22; 3962,304;  211,352; 8258,726;46,61089
 534,80; 4005,744;  236,276; 8357,008;46,41784
 535,38; 4083,667;  290,198; 8391,213;46,82708
 535,97; 3999,042;  236,967; 8355,891;46,33712
 536,55; 4052,565;  275,814; 8418,499;46,38214
 537,13; 4059,263;  285,274; 8414,440;46,42529
 537,71; 4059,149;  324,274; 8509,074;45,63184
 538,30; 4107,948;  343,814; 8560,001;45,81364
 538,88; 4122,448;  394,276; 8688,624;44,94834
 539,46; 4202,086;  433,122; 8859,711;44,72705
 540,05; 4282,616;  466,199; 8994,876;44,74805
 540,63; 4386,022;  516,584; 9211,594;44,50183
 541,21; 4412,391;  553,661; 9389,074;43,67346
 541,79; 4496,055;  585,430; 9490,825;43,91299
 542,38; 4548,039;  610,891; 9665,587;43,48184
 542,96; 4611,680;  619,892; 9832,686;43,32875
 543,54; 4731,060;  640,353;10044,525;43,49885
 544,12; 4755,269;  616,738;10099,140;43,64433
 544,70; 4788,004;  585,431;10239,488;43,53167
 545,29; 4904,264;  589,276;10391,748;44,01939
 545,87; 4874,594;  566,661;10396,441;43,82532
 546,45; 4887,143;  511,968;10428,928;44,11811
 547,03; 4909,405;  484,430;10468,019;44,32249
 547,62; 4993,128;  451,046;10650,126;44,53423
 548,20; 5067,734;  454,662;10806,368;44,56340
 548,78; 5148,069;  423,817;10968,016;44,80427
 549,36; 5226,827;  384,355;11162,606;44,92818
 549,94; 5314,742;  348,046;11349,397;45,14623
 550,53; 5428,009;  353,970;11519,060;45,44557
 551,11; 5504,538;  321,740;11744,712;45,37171
 551,69; 5696,175;  322,278;12035,687;45,87817
 552,27; 5764,042;  288,585;12353,906;45,38177
 552,85; 5949,866;  290,740;12700,137;45,60355
 553,44; 6113,182;  293,740;12988,679;45,84064
 554,02; 6282,000;  302,125;13355,225;45,81191
 554,60; 6382,639;  248,202;13685,877;45,65103
 555,18; 6621,568;  274,355;14067,972;46,01558
 555,76; 6736,783;  262,894;14443,504;45,65311
 556,34; 6918,459;  266,664;14855,357;45,59555
 556,93; 7111,248;  246,971;15236,449;45,79397
 557,51; 7229,005;  241,433;15520,028;45,73439
 558,09; 7409,128;  254,971;15945,460;45,59551
 558,67; 7568,710;  254,434;16294,834;45,59909
 559,25; 7700,898;  264,741;16634,511;45,42615
 559,83; 7844,482;  246,742;16903,445;45,61371
 560,41; 8029,488;  245,818;17288,566;45,67145
 561,00; 8144,277;  260,588;17663,237;45,30166
 561,58; 8239,809;  244,971;17852,167;45,40665
 562,16; 8426,427;  238,125;18270,086;45,40994
 562,74; 8567,965;  210,817;18614,291;45,41071
 563,32; 8737,426;  219,742;19016,409;45,31486
 563,90; 8919,263;  249,280;19446,035;45,16379
 564,48; 9124,287;  249,202;19913,082;45,13395
 565,06; 9386,470;  237,434;20473,486;45,21157
 565,65; 9691,006;  242,896;21163,105;45,16260
 566,23; 9990,165;  284,741;21987,149;44,72049
 566,81;10301,534;  235,895;22738,244;44,73150
 567,39;10661,410;  248,588;23649,632;44,49725
 567,97;10918,964;  250,203;24208,511;44,53053
 568,55;11300,159;  256,049;25142,720;44,37761
 569,13;11598,404;  238,511;25803,050;44,43614
 569,71;11964,216;  233,279;26776,896;44,19495
 570,29;12441,100;  277,201;27750,057;44,27606
 570,87;12691,989;  277,279;28466,148;44,04118
 571,45;12953,289;  269,203;29155,068;43,91105
 572,03;13104,911;  239,050;29567,445;43,86828
 572,61;13437,011;  232,434;30339,482;43,85876
 573,20;13642,964;  262,972;30979,332;43,55982
 573,78;13919,825;  248,973;31569,687;43,64796
 574,36;14013,917;  246,280;32141,464;43,16525
 574,94;14251,643;  293,588;32449,874;43,40692
 575,52;14289,508;  273,205;32771,570;43,12926
 576,10;14548,337;  312,974;33379,065;43,05124
 576,68;14695,561;  306,588;33874,303;42,86551
 577,26;14988,967;  311,513;34649,651;42,74388
 577,84;15164,639;  314,511;35069,006;42,72866
 578,42;15328,258;  354,435;35383,284;42,74712
 579,00;15284,070;  319,434;35515,966;42,51736
 579,58;15292,252;  338,050;35656,189;42,34142
 580,16;15296,871;  340,204;35768,955;42,21618
 580,74;15367,761;  330,127;35979,468;42,18208
 581,32;15314,870;  329,896;35959,160;42,05805
 581,90;15362,954;  345,358;35949,486;42,17937
 582,48;15353,423;  354,050;36141,772;41,91206
 583,06;15408,889;  347,973;36293,830;41,89889
 583,64;15334,999;  338,819;36302,471;41,69816
 584,22;15292,003;  348,436;36074,776;41,82787
 584,80;15153,958;  360,050;35787,339;41,75851
 585,38;14961,562;  367,972;35386,390;41,67404
 585,96;14906,451;  346,434;35559,021;41,34890
 586,54;14946,243;  366,589;35559,175;41,42820
 587,12;14927,017;  333,743;35809,156;41,13630
 587,70;14957,341;  356,819;35869,995;41,11297
 588,28;14948,729;  349,051;35917,658;41,04653
 588,86;14925,252;  358,743;36089,420;40,76752
 589,44;14879,000;  323,975;36105,574;40,67740
 590,02;15007,692;  336,205;36360,472;40,72668
 590,59;15030,788;  314,512;36532,244;40,63279
 591,17;15147,594;  317,283;36781,036;40,67138
 591,75;15074,185;  311,360;36901,051;40,34695
 592,33;15166,590;  316,513;37167,296;40,29786
 592,91;15218,853;  269,360;37393,336;40,26910
 593,49;15326,201;  287,053;37808,699;40,08126
 594,07;15309,362;  303,899;37951,230;39,85797
 594,65;15290,791;  302,128;37944,292;39,81881
 595,23;15405,055;  295,513;38405,061;39,64765
 595,81;15391,474;  281,821;38476,329;39,55975
 596,39;15399,413;  276,744;38504,285;39,55962
 596,97;15442,748;  268,745;38800,626;39,38038
 597,55;15378,210;  276,128;38623,636;39,38217
 598,12;15299,467;  264,899;38662,890;39,15457
 598,70;15241,088;  256,976;38839,831;38,83619
 599,28;15283,284;  286,899;39036,974;38,70028
 599,86;15249,101;  263,668;38949,201;38,73653
 600,44;15220,961;  232,745;39173,505;38,48979
 601,02;15236,853;  297,900;39158,875;38,44204
 601,60;15162,718;  264,898;39208,596;38,25476
 602,18;15111,836;  247,207;39117,011;38,24210
 602,75;15045,815;  239,359;39293,431;37,91271
 603,33;14992,467;  272,283;39159,377;37,85365
 603,91;14976,464;  255,054;39177,970;37,82196
 604,49;14934,517;  273,976;39339,036;37,52853
 605,07;14875,437;  281,283;39377,245;37,32906
 605,65;14793,104;  318,591;39527,967;36,91595
 606,23;14807,323;  374,051;39609,504;36,78630
 606,80;14786,709;  413,744;39615,951;36,66366
 607,38;14707,439;  448,823;39660,512;36,36318
 607,96;14712,639;  503,282;39724,944;36,22834
 608,54;14639,537;  571,053;39776,487;35,88402
 609,12;14573,521;  566,359;39810,325;35,69252
 609,70;14553,449;  620,514;39910,051;35,46220
 610,27;14509,231;  625,590;39979,318;35,27910
 610,85;14489,923;  635,899;39960,190;35,23020
 611,43;14469,843;  625,668;39947,091;35,20772
 612,01;14285,923;  608,667;39761,215;34,93325
 612,59;14147,127;  601,283;39677,311;34,66536
 613,16;14141,416;  557,051;39608,717;34,78562
 613,74;14011,740;  527,668;39517,443;34,58361
 614,32;13957,497;  490,822;39433,252;34,58098
 614,90;13881,749;  444,514;39371,201;34,51934
 615,48;13717,378;  390,744;39064,530;34,45909
 616,05;13637,951;  351,897;39045,362;34,33669
 616,63;13541,062;  357,743;38848,501;34,25061
 617,21;13451,909;  367,282;38751,578;34,08849
 617,79;13323,239;  350,283;38648,860;33,87321
 618,36;13331,716;  335,591;38569,765;33,99086
 618,94;13139,464;  288,897;38271,570;33,83271
 619,52;12964,744;  323,743;37968,270;33,57992
 620,10;12860,823;  306,436;37982,717;33,32172
 620,67;12836,412;  313,743;37838,951;33,37135
 621,25;12675,473;  325,975;37652,010;33,08548
 621,83;12618,863;  315,436;37614,695;32,98571
 622,41;12531,106;  335,282;37650,142;32,68356
 622,98;12382,530;  310,897;37359,647;32,58311
 623,56;12330,513;  311,127;37389,090;32,41652
 624,14;12223,963;  293,052;37221,747;32,30797
 624,72;12157,422;  292,359;37056,428;32,27353
 625,29;12143,632;  270,204;37210,772;32,14197
 625,87;12108,651;  311,590;37166,648;32,00934
 626,45;11949,858;  274,127;36979,893;31,80898
 627,02;11892,527;  281,590;36826,574;31,77163
 627,60;11809,352;  280,130;36793,344;31,57548
 628,18;11789,983;  255,744;37007,017;31,38460
 628,76;11711,574;  266,512;36927,929;31,21827
 629,33;11696,304;  282,205;36944,167;31,13336
 629,91;11606,899;  272,129;36946,794;30,90627
 630,49;11603,342;  298,282;37049,970;30,76066
 631,06;11565,863;  288,820;37132,182;30,60807
 631,64;11481,594;  281,512;37167,021;30,36445
 632,22;11432,731;  242,896;37035,207;30,41351
 632,79;11435,312;  269,358;37383,812;30,08519
 633,37;11355,854;  245,206;37453,040;29,86105
 633,95;11385,144;  259,820;37436,482;29,92556
 634,52;11346,428;  243,821;37674,266;29,66197
 635,10;11283,107;  255,282;37646,937;29,49274
 635,68;11282,437;  252,665;37901,332;29,29658
 636,25;11227,694;  234,665;37819,314;29,24872
 636,83;11249,189;  222,282;38074,698;29,13132
 637,41;11184,783;  235,511;38088,980;28,92541
 637,98;11213,613;  259,742;38272,870;28,81602
 638,56;11214,109;  253,819;38265,599;28,83393
 639,13;11162,095;  243,358;38480,757;28,55512
 639,71;11149,395;  274,666;38491,036;28,45568
 640,29;10961,790;  207,666;38380,223;28,17240
 640,86;10997,333;  227,359;38517,192;28,12751
 641,44;10887,339;  232,974;38526,546;27,82285
 642,02;10838,882;  255,051;38513,592;27,66397
 642,59;10843,888;  229,513;38672,408;27,61076
 643,17;10743,739;  230,897;38687,685;27,33677
 643,74;10664,898;  217,743;38751,039;27,11202
 644,32;10622,827;  253,282;38577,162;27,05766
 644,89;10558,447;  240,666;38636,670;26,87202
 645,47;10543,914;  260,282;38681,639;26,76541
 646,05;10413,304;  238,051;38619,686;26,51073
 646,62;10384,848;  239,897;38553,655;26,47861
 647,20;10343,161;  252,205;38696,778;26,24806
 647,77;10208,935;  228,128;38491,594;26,08443
 648,35;10165,248;  213,051;38425,332;26,04450
 648,92;10137,946;  243,205;38540,456;25,83669
 649,50;10031,336;  213,205;38420,117;25,69726
 650,08; 9962,572;  214,436;38294,164;25,59928
 650,65; 9988,731;  226,667;38557,210;25,46811
 651,23;10158,967;  212,821;39523,256;25,30154
 651,80;10281,203;  216,975;40346,226;25,07953
 652,38;10334,670;  228,975;40765,964;24,92957
 652,95;10339,983;  196,821;41077,241;24,81179
 653,53;10371,296;  235,590;41300,211;24,68233
 654,10;10336,917;  252,513;41446,872;24,48006
 654,68;10255,922;  223,898;41371,996;24,38029
 655,25;10212,389;  206,513;41443,042;24,26459
 655,83;10158,933;  213,206;41592,319;24,03562
 656,40;10152,169;  235,667;41462,904;24,05328
 656,98;10033,328;  208,898;41358,335;23,87500
 657,55; 9972,256;  228,129;41231,458;23,76424
 658,13; 9812,646;  209,359;40807,812;23,65432
 658,70; 9681,882;  227,744;40482,473;23,48578
 659,28; 9453,734;  208,206;39521,827;23,51736
 659,85; 9185,124;  219,052;38957,335;23,14525
 660,43; 9216,052;  237,975;39002,535;23,16053
 661,00; 9180,134;  224,129;39145,505;23,01051
 661,58; 9170,601;  219,667;39440,859;22,82168
 662,15; 9200,760;  202,975;39733,059;22,76187
 662,73; 9245,765;  264,514;39915,644;22,65068
 663,30; 9173,617;  214,898;40116,152;22,45222
 663,88; 9215,468;  226,898;40353,121;22,40074
 664,45; 9214,858;  211,668;40622,475;22,27917
 665,03; 9266,710;  222,668;41017,290;22,16969
 665,60; 9339,407;  272,668;41437,260;22,02558
 666,17; 9280,720;  225,437;41382,768;22,00163
 666,75; 9273,879;  217,129;41839,045;21,75957
 667,32; 9328,423;  238,668;42165,783;21,67990
 667,90; 9294,890;  222,052;42342,291;21,54033
 668,47; 9298,357;  246,283;42721,953;21,31120
 669,05; 9282,054;  227,052;42966,307;21,18662
 669,62; 9234,675;  196,129;43056,507;21,08835
 670,19; 9226,065;  204,514;43181,092;20,99179
 670,77; 9237,455;  219,129;43457,600;20,85718
 671,34; 9186,999;  224,129;43329,569;20,79290
 671,92; 9235,081;  207,053;43659,000;20,77704
 672,49; 9209,240;  227,591;43643,508;20,68746
 673,06; 9138,399;  177,514;43846,477;20,52003
 673,64; 9049,635;  207,360;43640,062;20,35857
 674,21; 9016,641;  207,745;43620,185;20,29118
 674,79; 9068,723;  217,822;43895,462;20,26415
 675,36; 9036,651;  231,514;43961,201;20,13538
 675,93; 8948,887;  192,822;43873,709;20,04553
 676,51; 8967,739;  230,591;44100,909;19,91585
 677,08; 8963,590;  224,591;44177,801;19,88250
 677,65; 8925,211;  228,130;44255,617;19,75375
 678,23; 8934,754;  225,514;44461,971;19,68792
 678,80; 8971,837;  208,438;44629,632;19,72797
 679,38; 8903,842;  207,591;44721,371;19,53609
 679,95; 8919,309;  219,438;45007,648;19,42447
 680,52; 8950,699;  211,899;45327,387;19,36984
 681,10; 9009,243;  218,591;45782,587;19,29298
 681,67; 9048,479;  217,361;46051,556;19,26753
 682,24; 8986,253;  206,745;46019,064;19,16408
 682,82; 9072,566;  207,361;46624,110;19,09915
 683,39; 9165,879;  239,207;46983,157;19,09696
 683,96; 9187,500;  222,361;47219,664;19,07586
 684,54; 9219,351;  206,746;47556,634;19,03406
 685,11; 9271,280;  235,592;47942,911;18,93984
 685,68; 9265,746;  219,592;48337,880;18,79983
 686,25; 9216,829;  198,823;48390,311;18,71286
 686,83; 9264,680;  202,823;48527,742;18,75193
 687,40; 9323,839;  198,976;48840,942;18,75924
 687,97; 9308,614;  230,976;49264,758;18,51303
 688,55; 9275,619;  201,592;49324,035;18,47226
 689,12; 9261,394;  187,284;49642,850;18,34800
 689,69; 9276,322;  203,746;49712,281;18,32528
 690,26; 9267,481;  214,130;49762,328;18,27181
 690,84; 9213,333;  211,746;49857,912;18,13148
 691,41; 9155,261;  211,746;50039,420;17,94889
 691,98; 9159,420;  215,515;50320,236;17,85042
 692,56; 9105,425;  202,284;50382,128;17,74246
 693,13; 9159,200;  254,746;50443,098;17,74207
 693,70; 9140,436;  227,361;50761,759;17,63764
 694,27; 9117,518;  205,977;50697,806;17,64947
 694,84; 9160,908;  212,900;50888,929;17,65728
 695,42; 9161,375;  243,592;51035,206;17,55759
 695,99; 9155,996;  211,285;51261,868;17,52127
 696,56; 9102,078;  196,131;51061,760;17,50877
 697,13; 9155,852;  228,977;51420,729;17,43811
 697,71; 9123,935;  178,285;51443,930;17,44960
 698,28; 9141,171;  208,823;51814,360;17,30889
 698,85; 9130,637;  169,823;51745,637;17,37406
 699,42; 9112,027;  188,823;52025,222;17,21417
 699,99; 9092,648;  227,900;51990,499;17,12578
 700,57; 9055,653;  213,900;52048,469;17,05764
 701,14; 9092,428;  204,669;52352,900;17,04326
 701,71; 9095,895;  233,131;52431,715;16,97893
 702,28; 9087,823;  215,900;52510,838;16,96517
 702,85; 9035,136;  214,439;52524,808;16,86223
 703,43; 9075,757;  233,285;52780,469;16,82768
 704,00; 9106,685;  250,977;53012,362;16,78445
 704,57; 9048,690;  222,516;52989,100;16,72683
 705,14; 9090,926;  249,054;53214,147;16,69377
 705,71; 9067,470;  256,439;53318,347;16,60519
 706,28; 8991,091;  223,747;53126,316;16,57262
 706,86; 9064,250;  257,131;53472,593;16,54992
 707,43; 9022,563;  267,131;53348,870;16,49424
 708,00; 8938,645;  244,901;53469,378;16,33411
 708,57; 8945,343;  223,362;53255,348;16,44664
 709,14; 8952,117;  257,901;53455,471;16,34326
 709,71; 8976,738;  230,362;53512,748;16,41514
 710,28; 8954,897;  222,901;53705,563;16,32678
 710,86; 9002,749;  234,593;53911,302;16,33512
 711,43; 8996,062;  246,132;53852,656;16,32251
 712,00; 8980,990;  233,670;53982,856;16,27433
 712,57; 8967,226;  235,593;54065,979;16,22064
 713,14; 8957,462;  222,901;54212,487;16,17823
 713,71; 8961,698;  232,209;54147,303;16,19118
 714,28; 8917,550;  235,132;54164,503;16,09961
 714,85; 8796,401;  214,670;53909,165;15,98252
 715,42; 8853,022;  231,055;54119,903;15,99954
 716,00; 8899,489;  252,670;54347,950;15,98442
 716,57; 8830,109;  214,978;54415,919;15,89480
 717,14; 8831,807;  198,747;54288,042;15,96075
 717,71; 8813,658;  197,055;54346,781;15,91255
 718,28; 8794,279;  228,286;54398,135;15,81321
 718,85; 8785,515;  195,747;54500,104;15,81782
 719,42; 8796,520;  238,901;54584,227;15,74674
 719,99; 8710,833;  204,747;54380,889;15,70080
 720,56; 8774,300;  224,440;54814,166;15,66203
 721,13; 8728,536;  211,363;54751,212;15,61642
 721,70; 8685,695;  209,132;54765,182;15,53735
 722,27; 8705,239;  242,594;54603,305;15,56758
 722,84; 8735,706;  259,594;54851,351;15,52636
 723,41; 8707,327;  208,132;54885,090;15,54438
 723,98; 8714,563;  227,517;55110,367;15,46393
 724,55; 8716,953;  239,440;55086,644;15,45660
 725,12; 8663,727;  189,978;55009,537;15,45753
 725,69; 8718,579;  211,286;55338,506;15,43211
 726,27; 8714,892;  225,517;55358,168;15,39809
 726,84; 8783,666;  222,671;55766,368;15,41308
 727,41; 8809,748;  227,671;55682,952;15,47567
 727,98; 8817,600;  231,363;56046,999;15,38321
 728,55; 8806,297;  249,902;55844,584;15,39067
 729,12; 8773,533;  198,517;56084,014;15,34390
 729,69; 8827,616;  236,363;56138,445;15,36839
 730,26; 8853,698;  239,979;56380,338;15,34318
 730,82; 8851,165;  222,133;56228,307;15,40729
 731,39; 8850,632;  218,286;56224,584;15,41317
 731,96; 8886,329;  208,056;56617,477;15,38444
 732,53; 8913,334;  223,287;56831,369;15,35125
 733,10; 8936,109;  236,594;56863,262;15,36293
 733,67; 8960,191;  233,287;57139,077;15,33571
 734,24; 8929,273;  215,364;56786,816;15,40337
 734,81; 8923,433;  240,979;56851,631;15,33714
 735,38; 8849,438;  230,441;56672,755;15,27045
 735,95; 8839,674;  214,594;56480,647;15,32910
 736,52; 8884,833;  238,671;56657,924;15,32484
 737,09; 8814,069;  231,748;56370,586;15,28767
 737,66; 8877,921;  270,056;56344,324;15,35083
 738,23; 8882,541;  219,518;56548,448;15,37935
 738,80; 8932,854;  256,441;56825,802;15,33766
 739,37; 8975,244;  245,056;57118,463;15,35021
 739,94; 9027,326;  227,518;57129,433;15,46487
 740,51; 9066,332;  304,825;57112,402;15,42313
 741,07; 8982,491;  220,210;57025,756;15,42504
 741,64; 9058,804;  253,979;57237,495;15,45153
 742,21; 9113,886;  218,287;57288,464;15,58712
 742,78; 9039,814;  202,133;57099,664;15,53263
 743,35; 9091,820;  226,133;57452,941;15,49219
 743,92; 9137,748;  244,749;57613,834;15,50138
 744,49; 9174,215;  230,903;57333,111;15,66194
 745,06; 9144,143;  227,056;57338,542;15,61347
 745,63; 9127,225;  211,287;57391,357;15,59274
 746,19; 9176,154;  216,518;57442,403;15,65661
 746,76; 9198,313;  227,980;57379,604;15,69568
 747,33; 9229,934;  217,980;57379,111;15,76588
 747,90; 9238,400;  238,903;57539,927;15,70565
 748,47; 9259,021;  230,980;57495,435;15,76552
 749,04; 9249,950;  234,211;57479,404;15,74934
 749,61; 9303,724;  252,134;57434,297;15,82939
 750,17; 9324,499;  242,903;57533,804;15,85172
 750,74; 9335,427;  235,980;57432,312;15,90914
 751,31; 9307,817;  211,057;57311,436;15,93117
 751,88; 9282,899;  216,595;57192,943;15,91240
 752,45; 9375,520;  226,518;57360,374;16,01327
 753,02; 9326,602;  232,134;57214,574;15,96012
 753,58; 9354,300;  216,595;57089,082;16,06700
 754,15; 9383,228;  215,595;57228,436;16,07994
 754,72; 9390,156;  215,672;56940,559;16,17365
 755,29; 9367,085;  209,672;56853,298;16,16671
 755,86; 9420,705;  231,442;56911,267;16,21258
 756,42; 9473,172;  233,288;56809,314;16,33180
 756,99; 9425,947;  202,672;56734,283;16,31525
 757,56; 9392,721;  209,442;56711,637;16,25296
 758,13; 9418,573;  184,596;56604,914;16,36640
 758,70; 9542,655;  197,365;56664,653;16,54992
 759,26; 9511,737;  195,288;56709,930;16,48502
 759,83; 9582,512;  207,826;56888,438;16,53949
 760,40; 9543,825;  189,365;56689,869;16,55642
 760,97; 9600,984;  189,211;56785,838;16,62956
 761,53; 9566,220;  169,827;56386,730;16,71453
 762,10; 9581,917;  175,134;56373,238;16,73861
 762,67; 9655,384;  208,904;56383,515;16,81628
 763,24; 9609,620;  165,519;55932,177;16,93503
 763,80; 9661,703;  198,211;56085,916;16,93305
 764,37; 9662,246;  201,442;56039,116;16,94341
 764,94; 9574,021;  175,365;55586,931;16,96154
 765,50; 9686,334;  188,519;55511,516;17,16793
 766,07; 9721,339;  225,442;55673,870;17,12564
 766,64; 9598,652;  185,750;55308,686;17,07620
 767,21; 9639,965;  201,596;55195,963;17,16243
 767,77; 9697,740;  229,904;55054,317;17,26938
 768,34; 9683,130;  218,058;55079,055;17,25282
 768,91; 9713,519;  221,673;54855,255;17,37365
 769,47; 9755,909;  216,750;54909,763;17,44128
 770,04; 9747,453;  224,673;54792,040;17,45142
 770,61; 9717,997;  200,135;54474,164;17,53668
 771,18; 9692,310;  188,289;54490,133;17,50221
 771,74; 9854,854;  220,981;54652,333;17,69912
 772,31; 9830,782;  222,519;54311,687;17,76375
 772,88; 9822,557;  193,904;54008,118;17,89240
 773,44; 9791,946;  196,135;53918,934;17,86171
 774,01; 9890,798;  212,058;54015,903;17,98894
 774,58; 9864,034;  192,750;53621,257;18,10135
 775,14; 9920,270;  190,981;53840,303;18,13497
 775,71; 9970,121;  204,366;53651,580;18,27178
 776,27; 9986,896;  237,904;53588,627;18,27340
 776,84;10065,901;  255,674;53623,673;18,38223
 777,41;10049,368;  217,597;53486,335;18,45693
 777,97;10034,758;  203,443;53160,842;18,56457
 778,54;10045,302;  213,597;53252,889;18,53664
 779,11;10161,999;  220,443;53185,397;18,77007
 779,67;10098,005;  192,212;53044,520;18,74240
 780,24;10115,472;  208,981;53006,797;18,76307
 780,80;10180,708;  227,751;52924,997;18,88705
 781,37;10188,482;  211,674;52925,736;18,92628
 781,94;10221,795;  211,674;52544,782;19,12770
 782,50;10239,723;  217,751;52581,982;19,13897
 783,07;10288,113;  238,366;52571,721;19,20333
 783,63;10225,965;  204,674;52303,921;19,23500
 784,20;10307,662;  230,366;52247,967;19,37286
 784,77;10336,514;  216,136;51989,629;19,54741
 785,33;10298,365;  196,905;51902,060;19,53666
 785,90;10357,755;  213,982;51835,721;19,65020
 786,46;10393,068;  227,751;51803,152;19,70962
 787,03;10358,458;  205,674;51479,737;19,80101
 787,59;10433,540;  212,751;51430,399;19,95560
 788,16;10415,699;  226,213;51400,214;19,91145
 788,73;10442,397;  231,520;51345,568;19,97665
 789,29;10375,710;  216,905;50817,538;20,07644
 789,86;10425,562;  231,136;50807,969;20,15632
 790,42;10467,951;  220,367;50581,399;20,34824
 790,99;10407,418;  240,136;50228,369;20,33935
 791,55;10427,347;  214,136;50316,492;20,38469
 792,12;10488,813;  225,290;50260,154;20,51274
 792,68;10459,357;  218,213;49940,200;20,59681
 793,25;10437,824;  229,982;49683,554;20,64126
 793,81;10503,676;  253,674;49300,370;20,89845
 794,38;10458,527;  196,751;49155,108;20,96021
 794,94;10468,378;  208,982;48975,770;21,03767
 795,51;10415,999;  222,290;48723,970;21,01723
 796,07;10464,466;  224,752;48527,709;21,19894
 796,64;10521,087;  237,752;48653,909;21,23947
 797,20;10505,477;  225,521;48116,878;21,46516
 797,77;10469,559;  201,059;47758,463;21,59180
 798,33;10480,564;  210,598;47591,586;21,67529
 798,90;10552,646;  249,675;47581,479;21,76754
 799,46;10484,882;  220,675;47046,986;21,91974
 800,03;10497,580;  220,982;47011,956;21,96278
 800,59;10528,508;  237,444;46714,310;22,14234
 801,15;10507,283;  237,444;46593,048;22,15447
 801,72;10458,519;  236,675;46283,249;22,19892
 802,28;10446,909;  250,213;45913,987;22,32994
 802,85;10469,145;  220,752;45662,033;22,55305
 803,41;10467,227;  227,752;45525,157;22,60499
 803,98;10461,694;  211,367;45132,664;22,81841
 804,54;10444,392;  223,752;44854,865;22,90026
 805,11;10453,243;  232,444;44689,757;22,99014
 805,67;10490,479;  248,060;44598,650;23,09421
 806,23;10422,946;  229,367;44110,080;23,23020
 806,80;10420,720;  245,521;44053,204;23,22697
 807,36;10533,726;  259,983;44054,788;23,45882
 807,93;10488,500;  252,675;43625,681;23,59953
 808,49;10433,890;  208,829;43364,496;23,69344
 809,05;10477,818;  202,521;43096,620;23,95504
 809,62;10430,824;  237,906;43094,589;23,78373
 810,18;10479,598;  239,291;43010,251;23,94220
 810,74;10452,834;  206,291;42693,143;24,11698
 811,31;10438,763;  220,983;42556,036;24,13551
 811,87;10489,153;  222,599;42406,082;24,33785
 812,44;10521,850;  253,522;42376,667;24,37693
 813,00;10486,471;  185,522;42043,405;24,60934
 813,56;10521,399;  232,368;42023,990;24,61984
 814,13;10485,866;  220,676;41985,652;24,57847
 814,69;10488,641;  233,137;41844,313;24,64603
 815,25;10431,107;  193,676;41439,437;24,82057
 815,82;10477,267;  246,983;41346,329;24,89160
 816,38;10500,964;  254,445;41201,375;25,02390
 816,94;10397,354;  210,599;40847,499;25,06775
 817,51;10391,129;  209,214;40604,314;25,20582
 818,07;10377,519;  208,907;40373,053;25,31764
 818,63;10329,524;  240,445;40231,791;25,22816
 819,20;10392,991;  222,368;40143,684;25,47667
 819,76;10276,534;  204,291;39676,192;25,51750
 820,32;10346,924;  260,445;39560,546;25,66528
 820,89;10300,468;  248,753;39424,823;25,65779
 821,45;10204,243;  212,291;39046,561;25,72973
 822,01;10220,709;  245,291;38839,146;25,84717
 822,57;10225,869;  238,984;38697,039;25,96825
 823,14;10188,797;  213,984;38437,777;26,09582
 823,70;10143,495;  212,368;38137,593;26,18607
 824,26;10133,038;  210,138;38051,485;26,22238
 824,82;10205,351;  236,368;37912,531;26,45966
 825,39;10140,280;  210,445;37668,962;26,50888
 825,95;10209,516;  232,907;37698,086;26,62902
 826,51;10159,829;  233,061;37340,209;26,75163
 827,08;10220,680;  258,446;37264,255;26,92073
 827,64;10220,455;  242,446;37058,301;27,10248
 828,20;10145,768;  216,061;36853,963;27,10228
 828,76;10239,850;  233,830;36818,009;27,35067
 829,32;10220,317;  242,984;36664,209;27,39428
 829,89;10234,630;  217,523;36507,333;27,60309
 830,45;10273,097;  223,292;36429,456;27,75717
 831,01;10267,256;  210,830;36210,041;27,93513
 831,57;10232,261;  221,369;36199,241;27,82514
 832,14;10307,805;  217,753;36158,518;28,07411
 832,70;10314,425;  217,754;35823,333;28,35699
 833,26;10282,431;  192,600;35836,149;28,30759
 833,82;10295,359;  221,600;35653,811;28,43108
 834,38;10384,749;  220,138;35700,318;28,64870
 834,95;10338,908;  205,831;35563,903;28,65846
 835,51;10352,760;  187,754;35439,796;28,83523
 836,07;10405,996;  223,908;35431,457;28,92018
 836,63;10442,463;  238,446;35502,965;28,93565
 837,19;10421,160;  220,908;35318,165;29,06282
 837,75;10394,089;  187,215;34972,442;29,34255
 838,32;10504,786;  234,062;34950,258;29,58482
 838,88;10519,330;  231,369;35022,997;29,57022
 839,44;10536,412;  215,138;34942,427;29,72093
 840,00;10543,956;  219,139;34937,166;29,73907
 840,56;10513,653;  197,062;34664,982;29,93100
 841,12;10508,813;  210,523;34566,336;29,97539
 841,68;10455,895;  191,369;34411,690;29,99541
 842,25;10525,131;  213,216;34540,505;30,03999
 842,81;10488,521;  209,062;34166,551;30,27155
 843,37;10503,526;  200,677;34108,444;30,38492
 843,93;10585,993;  217,600;33974,029;30,71531
 844,49;10618,075;  217,293;34138,537;30,66156
 845,05;10613,080;  181,754;33876,583;30,95824
 845,61;10643,701;  227,908;33980,629;30,85912
 846,17;10658,860;  201,447;33825,752;31,10076
 846,73;10598,173;  214,293;33754,645;30,95937
 847,29;10630,717;  186,831;33527,076;31,32516
 847,86;10638,184;  205,293;33453,891;31,37844
 848,42;10621,805;  198,908;33180,707;31,60196
 848,98;10639,733;  213,293;33252,599;31,55768
 849,54;10705,738;  192,754;33276,646;31,77675
 850,10;10657,667;  214,601;33108,923;31,74732
 850,66;10659,364;  192,447;32969,815;31,93337
 851,22;10698,677;  193,755;32879,323;32,13933
 851,78;10782,144;  235,524;32951,369;32,23704
 852,34;10672,765;  208,524;32657,646;32,24815
 852,90;10681,539;  200,370;32535,000;32,41469
 853,46;10706,160;  200,524;32310,277;32,71790
 854,02;10704,242;  211,678;32426,708;32,57040
 854,58;10662,478;  206,062;32093,524;32,79162
 855,14;10649,560;  190,755;32055,724;32,82227
 855,70;10690,643;  172,755;31881,616;33,17018
 856,26;10679,340;  223,832;31785,740;33,12698
 856,82;10651,192;  191,063;31705,555;33,19149
 857,38;10674,197;  225,755;31565,524;33,33924
 857,94;10663,510;  214,678;31372,878;33,53477
 858,50;10688,823;  200,524;31268,079;33,75965
 859,06;10688,136;  209,986;31150,740;33,86521
 859,62;10673,987;  216,370;31003,094;33,96794
 860,18;10636,685;  206,986;30951,371;33,92391
 860,74;10588,459;  180,370;30834,033;33,95382
 861,30;10630,849;  183,755;30583,464;34,36577
 861,86;10644,855;  221,217;30656,356;34,24869
 862,42;10670,014;  210,986;30467,172;34,56823
 862,98;10743,711;  229,371;30472,911;34,76558
 863,54;10681,255;  213,986;30165,265;34,94765
 864,10;10731,337;  222,371;30297,157;34,94278
 864,66;10675,881;  188,448;29972,511;35,21156
 865,22;10653,271;  200,371;29838,327;35,26863
 865,78;10664,507;  213,986;29731,219;35,40481
 866,34;10659,589;  189,986;29658,419;35,52820
 866,90;10684,210;  214,986;29544,465;35,69523
 867,45;10617,061;  218,448;29311,204;35,74297
 868,01;10576,144;  205,448;29149,712;35,82988
 868,57;10588,380;  196,755;29037,912;36,03054
 869,13;10520,923;  190,063;28962,881;35,90493
 869,69;10588,467;  207,679;28789,235;36,31989
 870,25;10486,396;  190,294;28689,359;36,12786
 870,81;10617,632;  200,448;28635,943;36,63444
 871,37;10568,175;  206,602;28572,759;36,52794
 871,93;10525,873;  209,756;28351,421;36,65781
 872,49;10473,186;  212,371;28081,236;36,81820
 873,04;10432,961;  195,679;27925,513;36,91793
 873,60;10384,197;  186,525;27833,021;36,88595
 874,16;10450,817;  221,525;27777,452;37,12193
 874,72;10437,894;  216,833;27668,529;37,23290
 875,28;10442,433;  209,217;27578,529;37,38938
 875,84;10455,663;  199,294;27488,606;37,58383
 876,40;10513,663;  206,987;27558,144;37,68278
 876,95;10510,202;  215,448;27464,990;37,77955
 877,51;10547,125;  230,140;27389,683;37,98659
 878,07;10619,817;  235,679;27404,067;38,22140
 878,63;10649,433;  204,063;27450,683;38,33639
 879,19;10661,894;  230,525;27395,837;38,39959
 879,75;10806,894;  217,140;27518,144;38,78888
 880,30;10772,587;  204,140;27504,067;38,71236
 880,86;10923,433;  246,602;27632,837;38,98612
 881,42;10914,048;  195,679;27613,990;39,09201
 881,98;11024,663;  223,525;27740,298;39,25293
 882,54;11044,202;  201,140;27807,452;39,27747
 883,09;11146,587;  203,217;27904,606;39,50477
 883,65;11228,356;  198,833;28032,606;39,62640
 884,21;11359,202;  243,371;28218,683;39,73443
 884,77;11432,971;  209,371;28177,913;40,12937
 885,32;11532,971;  199,140;28359,067;40,24808
 885,88;11657,587;  237,756;28573,144;40,30236
 886,44;11700,125;  216,448;28568,529;40,50382
 887,00;11723,817;  229,063;28618,067;40,49016
 887,56;11799,048;  201,987;28782,837;40,57634
 888,11;11833,279;  203,833;28804,913;40,66086
 888,67;11961,125;  242,679;28922,760;40,85918
 889,23;11984,971;  221,063;28964,837;40,92680
 889,79;11958,510;  197,217;28793,913;41,12815
 890,34;11999,510;  211,063;28712,298;41,36118
 890,90;12088,587;  263,448;28960,067;41,20743
 891,46;12068,894;  198,448;28711,144;41,63214
 892,01;12085,817;  232,756;28770,144;41,53520
 892,57;12086,817;  239,525;28721,913;41,59515
 893,13;12084,587;  212,140;28498,452;41,97241
 893,69;12077,894;  205,525;28414,990;42,08647
 894,24;12055,279;  213,602;28287,990;42,17964
 894,80;12022,279;  223,063;28159,298;42,23624
 895,36;12025,894;  214,833;28115,144;42,33308
 895,91;11931,971;  215,063;27910,990;42,30553
 896,47;11930,510;  218,910;27818,375;42,43416
 897,03;11866,356;  202,525;27609,375;42,55809
 897,58;11882,125;  222,679;27469,913;42,79130
 898,14;11852,202;  228,910;27214,529;43,07217
 898,70;11803,740;  191,756;27056,683;43,22359
 899,25;11850,663;  219,525;27118,913;43,23942
 899,81;11831,433;  231,525;26918,683;43,46625
 900,37;11753,894;  186,679;26720,760;43,59380
 900,92;11797,279;  213,987;26721,375;43,69835
 901,48;11783,125;  216,217;26582,221;43,87054
 902,03;11705,663;  210,217;26393,837;43,90320
 902,59;11693,279;  211,833;26299,452;44,01109
 903,15;11726,971;  236,294;26182,683;44,28623
 903,70;11644,510;  223,756;25924,990;44,43660
 904,26;11602,279;  195,140;25798,683;44,55297
 904,82;11649,587;  216,756;25776,529;44,72978
 905,37;11611,048;  210,833;25604,913;44,89320
 905,93;11566,663;  199,294;25466,144;44,98926
 906,48;11567,510;  224,910;25284,144;45,26315
 907,04;11619,817;  229,756;25327,221;45,38331
 907,60;11542,279;  197,217;25153,913;45,45899
 908,15;11543,740;  193,833;24999,837;45,75468
 908,71;11519,740;  231,448;25018,375;45,54131
 909,26;11517,048;  205,910;24807,067;45,97807
 909,82;11542,125;  230,140;24689,298;46,24846
 910,37;11527,202;  251,448;24686,375;46,14605
 910,93;11441,202;  206,525;24474,913;46,29346
 911,48;11446,048;  197,063;24251,221;46,76524
 912,04;11451,356;  210,987;24162,067;46,93053
 912,60;11506,894;  222,217;24160,298;47,14111
 913,15;11445,048;  213,910;23950,221;47,31628
 913,71;11413,510;  205,833;23840,067;47,42137
 914,26;11329,125;  195,294;23721,760;47,32471
 914,82;11351,510;  212,217;23677,683;47,47101
 915,37;11378,894;  201,371;23610,067;47,74945
 915,93;11386,971;  242,063;23501,683;47,91526
 916,48;11290,356;  201,217;23327,298;47,95079
 917,04;11316,894;  224,217;23170,529;48,34187
 917,59;11354,510;  242,217;23080,913;48,65555
 918,15;11264,510;  181,910;22879,837;48,82649
 918,70;11238,663;  198,063;22880,298;48,67510
 919,26;11266,740;  215,294;22711,452;49,12593
 919,81;11170,663;  199,833;22521,221;49,14941
 920,37;11251,740;  202,833;22501,144;49,55042
 920,92;11233,279;  224,217;22416,913;49,60669
 921,48;11101,356;  196,910;22247,529;49,45188
 922,03;11183,279;  204,987;22186,760;49,94271
 922,59;11113,433;  199,448;22080,990;49,87758
 923,14;11083,048;  193,602;21856,067;50,26873
 923,69;11134,817;  231,602;21813,837;50,51940
 924,25;11102,894;  224,833;21808,683;50,39908
 924,80;11061,356;  209,910;21624,683;50,67271
 925,36;11070,048;  212,756;21531,375;50,92868
 925,91;10985,510;  207,371;21426,221;50,79511
 926,47;10997,279;  192,371;21330,606;51,11547
 927,02;11050,279;  235,756;21237,990;51,49225
 927,57;10986,587;  214,679;21092,990;51,59377
 928,13;10914,894;  198,987;21051,067;51,39011
 928,68;10957,125;  214,602;21010,298;51,65743
 929,24;10849,971;  174,756;20707,298;51,99169
 929,79;10866,894;  201,756;20650,529;52,15540
 930,34;10862,894;  210,910;20506,144;52,48515
 930,90;10840,510;  189,294;20477,990;52,49827
 931,45;10818,356;  218,371;20442,760;52,41189
 932,01;10832,894;  229,987;20300,990;52,82699
 932,56;10800,894;  219,294;20153,837;53,08173
 933,11;10796,817;  227,448;20151,067;53,04944
 933,67;10737,433;  202,371;19957,298;53,32878
 934,22;10731,971;  213,448;19845,683;53,57782
 934,77;10754,587;  235,294;19716,144;53,99812
 935,33;10631,971;  213,063;19619,067;53,68909
 935,88;10678,894;  224,679;19557,452;54,07509
 936,43;10666,356;  211,140;19404,683;54,47257
 936,99;10683,048;  218,063;19388,837;54,58822
 937,54;10596,894;  196,910;19159,760;54,84400
 938,09;10643,048;  213,833;19112,990;55,18349
 938,65;10542,356;  214,833;18999,683;54,97794
 939,20;10519,433;  193,371;18904,529;55,18665
 939,75;10569,663;  192,756;18855,913;55,60103
 940,31;10498,510;  190,217;18765,606;55,49436
 940,86;10529,587;  208,910;18741,760;55,68856
 941,41;10539,356;  261,217;18618,067;55,99075
 941,96;10430,433;  203,294;18531,683;55,79944
 942,52;10427,433;  204,371;18390,221;56,21437
 943,07;10395,587;  185,525;18250,298;56,51918
 943,62;10384,817;  194,987;18187,067;56,63509
 944,18;10367,510;  188,679;18077,375;56,90091
 944,73;10360,510;  204,987;17980,067;57,13348
 945,28;10312,740;  171,448;17817,298;57,47126
 945,83;10354,356;  200,448;17900,529;57,36645
 946,39;10270,894;  200,217;17766,837;57,32849
 946,94;10293,279;  216,525;17710,990;57,59967
 947,49;10267,587;  198,140;17559,683;57,99857
 948,04;10307,048;  209,448;17533,990;58,28495
 948,59;10285,894;  215,910;17451,837;58,42439
 949,15;10242,125;  195,063;17338,606;58,60552
 949,70;10161,202;  198,140;17245,144;58,44465
 950,25;10167,894;  223,833;17110,067;58,88857
 950,80;10168,048;  174,525;17025,990;59,30358
 951,36;10109,740;  183,448;16968,375;59,13813
 951,91;10198,894;  220,063;16986,375;59,51715
 952,46;10022,587;  184,987;16705,221;59,54879
 953,01;10135,510;  214,063;16755,144;59,98064
 953,56;10080,433;  174,679;16636,990;60,17231
 954,11;10021,587;  212,525;16604,298;59,84137
 954,67;10037,510;  202,910;16519,760;60,27266
 955,22; 9930,510;  182,217;16359,067;60,26076
 955,77; 9975,433;  219,448;16325,760;60,57243
 956,32; 9959,433;  241,910;16267,067;60,63917
 956,87; 9833,048;  192,910;16121,683;60,52028
 957,42; 9832,971;  194,371;16073,221;60,70087
 957,98; 9778,971;  201,987;15934,298;60,87462
 958,53; 9791,125;  219,602;15933,760;60,91019
 959,08; 9695,433;  188,371;15792,990;60,92466
 959,63; 9667,356;  188,987;15764,606;60,85388
 960,18; 9714,740;  220,525;15669,529;61,45519
 960,73; 9636,125;  202,371;15648,298;61,07600
 961,28; 9597,740;  174,371;15491,606;61,52135
 961,83; 9680,125;  225,833;15445,375;62,11943
 962,39; 9592,894;  188,448;15338,144;62,07680
 962,94; 9577,433;  222,602;15222,683;62,36520
 963,49; 9473,587;  195,679;15134,221;62,10718
 964,04; 9501,433;  215,371;15090,837;62,42535
 964,59; 9478,817;  182,371;14968,990;62,87067
 965,14; 9428,356;  217,448;14867,913;62,87109
 965,69; 9386,279;  202,679;14836,375;62,75653
 966,24; 9348,048;  199,756;14702,529;63,07961
 966,79; 9332,433;  209,063;14632,990;63,25163
 967,34; 9260,817;  185,448;14482,760;63,47605
 967,89; 9242,279;  194,679;14468,144;63,38755
 968,44; 9205,894;  206,910;14355,837;63,60189
 968,99; 9190,356;  212,910;14314,529;63,66252
 969,55; 9199,510;  208,525;14219,990;64,16877
 970,10; 9141,048;  213,063;14147,452;64,07159
 970,65; 9136,510;  215,063;14005,990;64,69069
 971,20; 9040,740;  202,833;13916,606;64,44549
 971,75; 8966,663;  179,371;13785,913;64,58138
 972,30; 8957,279;  200,217;13733,221;64,70893
 972,85; 8939,279;  190,987;13635,221;65,07096
 973,40; 8870,510;  188,063;13475,221;65,34465
 973,95; 8829,048;  207,833;13460,221;65,05405
 974,50; 8824,279;  228,140;13368,221;65,41922
 975,05; 8803,971;  212,294;13339,913;65,44733
 975,60; 8749,125;  218,217;13244,298;65,49098
 976,15; 8739,587;  205,602;13059,375;66,39284
 976,70; 8704,740;  210,756;13049,298;66,16004
 977,25; 8697,202;  208,756;12956,990;66,58527
 977,80; 8618,356;  199,679;12824,067;66,68582
 978,35; 8531,971;  217,756;12692,221;66,64987
 978,89; 8537,587;  193,063;12586,067;67,33253
 979,44; 8525,894;  210,371;12541,375;67,43590
 979,99; 8423,433;  199,756;12421,529;67,28710
 980,54; 8445,433;  231,448;12338,452;67,84490
 981,09; 8369,510;  221,525;12251,683;67,72966
 981,64; 8316,279;  215,140;12166,529;67,78408
 982,19; 8378,510;  244,063;12148,913;68,32884
 982,74; 8291,971;  224,371;11990,144;68,56838
 983,29; 8166,894;  185,448;11820,067;68,60084
 983,84; 8155,740;  226,371;11734,221;68,90400
 984,39; 8160,125;  237,833;11668,375;69,30811
 984,94; 8040,817;  174,987;11529,298;69,27616
 985,49; 8047,971;  230,910;11452,760;69,65929
 986,03; 8021,587;  225,679;11379,067;69,89721
 986,58; 7885,587;  247,217;11277,990;69,24600
 987,13; 7828,971;  213,525;11125,221;69,79159
 987,68; 7821,894;  218,448;11025,990;70,35315
 988,23; 7711,433;  225,371;10975,529;69,63676
 988,78; 7682,433;  202,987;10827,452;70,39833
 989,33; 7607,587;  216,294;10752,452;70,15169
 989,88; 7616,279;  227,217;10662,913;70,80564
 990,42; 7538,125;  204,756;10464,221;71,47906
 990,97; 7482,048;  207,756;10439,298;71,09673
 991,52; 7459,663;  235,371;10357,221;71,37324
 992,07; 7390,048;  233,448;10245,529;71,47965
 992,62; 7335,048;  220,602;10119,683;71,86977
 993,17; 7285,125;  229,679; 9986,375;72,31389
 993,71; 7286,048;  217,602; 9936,298;72,73040
 994,26; 7179,202;  201,910; 9791,298;72,76056
 994,81; 7186,894;  239,063; 9783,144;72,79728
 995,36; 7084,125;  210,679; 9580,990;73,35344
 995,91; 7066,125;  220,371; 9553,067;73,35237
 996,45; 7021,817;  221,833; 9513,067;73,18709
 997,00; 6931,587;  202,833; 9352,529;73,54074
 997,55; 6928,971;  219,987; 9287,990;73,98524
 998,10; 6887,740;  239,910; 9143,067;74,66824
 998,65; 6833,202;  213,679; 9101,375;74,47963
 999,19; 6779,740;  230,063; 9017,606;74,53366
 999,74; 6738,740;  244,833; 8895,606;75,06737
1000,29; 6694,894;  232,217; 8837,913;75,09767
1000,84; 6590,356;  216,756; 8648,452;75,59096
1001,38; 6568,125;  212,679; 8550,067;76,22826
1001,93; 6522,817;  230,987; 8519,760;75,90787
1002,48; 6407,817;  207,679; 8383,760;75,83265
1003,03; 6352,740;  220,294; 8316,760;75,74226
1003,57; 6321,663;  225,140; 8151,913;76,91053
1004,12; 6233,740;  231,217; 8155,683;75,74673
1004,67; 6167,125;  213,063; 8012,606;76,33860
1005,22; 6070,202;  206,987; 7887,375;76,34009
1005,76; 5965,817;  201,294; 7718,837;76,68095
1006,31; 5969,202;  234,294; 7762,452;76,17943
1006,86; 5891,740;  210,679; 7636,837;76,50069
1007,40; 5770,510;  197,448; 7464,760;76,68670
1007,95; 5720,125;  215,448; 7399,529;76,62326
1008,50; 5679,356;  223,448; 7246,606;77,68454
1009,04; 5599,894;  219,910; 7168,837;77,42180
1009,59; 5537,433;  226,294; 7063,760;77,67701
1010,14; 5468,971;  204,756; 6964,990;77,87031
1010,68; 5410,510;  215,063; 6820,452;78,65466
1011,23; 5307,510;  201,833; 6752,452;77,94190
1011,78; 5292,510;  220,371; 6672,606;78,61057
1012,32; 5205,971;  211,833; 6552,913;78,75847
1012,87; 5218,279;  240,910; 6538,298;79,03862
1013,42; 5123,356;  203,756; 6396,529;79,44099
1013,96; 5148,663;  234,833; 6443,452;79,14531
1014,51; 5056,048;  185,756; 6337,375;79,17090
1015,06; 5127,663;  189,987; 6316,298;80,59788
1015,60; 5170,663;  251,756; 6416,990;79,78460
1016,15; 5093,279;  216,217; 6347,529;79,54353
1016,69; 5168,663;  216,679; 6386,067;80,26703
1017,24; 5175,894;  186,987; 6373,837;80,63728
1017,79; 5231,587;  236,294; 6422,913;80,74349
1018,33; 5199,587;  194,679; 6420,837;80,38517
1018,88; 5288,279;  225,602; 6471,837;81,05166
1019,42; 5290,971;  214,679; 6464,760;81,21963
1019,97; 5311,202;  214,756; 6489,452;81,22220
1020,51; 5300,817;  218,679; 6494,144;80,98425
1021,06; 5332,125;  190,987; 6484,144;81,69410
1021,61; 5305,125;  186,294; 6447,837;81,75032
1022,15; 5264,817;  166,602; 6419,375;81,53527
1022,70; 5261,510;  200,294; 6426,144;81,29356
1023,24; 5251,587;  205,448; 6356,760;82,03354
1023,79; 5219,971;  216,910; 6299,683;82,24968
1024,33; 5194,817;  202,525; 6244,529;82,62643
1024,88; 5096,433;  214,525; 6137,606;82,42176
1025,42; 5046,971;  206,217; 6075,990;82,46918
1025,97; 5007,125;  204,602; 5978,913;83,17049
1026,51; 4883,125;  183,371; 5862,067;82,76114
1027,06; 4881,971;  201,217; 5816,452;83,35812
1027,60; 4771,817;  226,063; 5688,067;83,22502
1028,15; 4700,433;  221,756; 5664,990;82,27970
1028,69; 4625,894;  184,140; 5511,990;83,36860
1029,24; 4596,125;  201,294; 5490,452;83,09132
1029,78; 4495,048;  196,756; 5361,452;83,22450
1030,33; 4421,971;  183,910; 5243,606;83,76119
1030,87; 4391,279;  195,756; 5187,452;84,05005
1031,42; 4287,202;  185,987; 5099,760;83,46367
1031,96; 4225,433;  212,602; 5028,067;83,33215
1032,51; 4170,663;  189,140; 4952,990;83,57784
1033,05; 4179,433;  210,371; 4917,606;84,31833
1033,60; 4032,048;  179,910; 4787,529;83,60366
1034,14; 4034,740;  201,371; 4741,606;84,43108
1034,69; 3998,587;  206,140; 4670,221;84,95469
1035,23; 3923,817;  201,679; 4589,913;84,82086
1035,77; 3872,202;  202,987; 4556,067;84,29008
1036,32; 3801,279;  177,525; 4467,221;84,47577
1036,86; 3815,125;  198,525; 4416,452;85,74354
1037,41; 3725,894;  211,833; 4347,144;84,97695
1037,95; 3675,048;  179,987; 4279,837;85,24852
1038,50; 3663,125;  195,679; 4237,144;85,79675
1039,04; 3628,202;  216,448; 4159,606;86,52339
1039,58; 3542,510;  187,217; 4092,452;85,91782
1040,13; 3504,817;  194,756; 4048,683;85,88802
1040,67; 3507,894;  221,294; 4048,221;85,88092
1041,21; 3439,510;  219,448; 3952,144;86,26637
1041,76; 3357,510;  183,217; 3869,913;86,10127
1042,30; 3341,125;  204,448; 3828,452;86,55280
1042,85; 3295,740;  205,448; 3741,990;87,38174
1043,39; 3246,894;  191,756; 3725,606;86,45354
1043,93; 3211,125;  206,910; 3681,760;86,45597
1044,48; 3159,971;  214,063; 3593,452;87,17280
1045,02; 3102,510;  198,140; 3577,606;85,94168
1045,56; 3086,894;  214,602; 3530,144;86,63115
1046,11; 3044,817;  208,448; 3482,990;86,61880
1046,65; 3021,740;  202,756; 3425,452;87,47286
1047,19; 2943,740;  203,217; 3378,144;86,31767
1047,74; 2893,433;  180,294; 3310,375;86,67950
1048,28; 2863,587;  209,602; 3271,529;86,67694
1048,82; 2886,356;  226,294; 3252,452;87,90228
1049,37; 2803,202;  206,910; 3168,221;87,67373
1049,91; 2778,510;  205,448; 3139,760;87,68876
1050,45; 2746,433;  229,987; 3105,067;87,52610
1050,99; 2694,740;  205,448; 3052,683;87,42842
1051,54; 2658,663;  192,217; 3018,683;87,26256
1052,08; 2661,202;  228,217; 2970,990;88,70528
1052,62; 2605,510;  221,679; 2910,837;88,64600
1053,16; 2531,125;  200,602; 2873,452;87,19244
1053,71; 2524,971;  208,063; 2857,144;87,46082
1054,25; 2487,817;  218,140; 2776,913;88,70177
1054,79; 2460,971;  224,371; 2769,913;87,86340
1055,33; 2400,125;  187,987; 2706,375;87,83945
1055,88; 2413,817;  222,217; 2691,067;88,77008
1056,42; 2386,356;  227,448; 2667,375;88,48247
1056,96; 2329,433;  206,910; 2601,298;88,64573
1057,50; 2321,433;  204,217; 2595,221;88,54923
1058,05; 2276,663;  206,448; 2504,990;90,06645
1058,59; 2238,894;  225,448; 2493,144;88,78818
1059,13; 2209,740;  192,525; 2439,144;89,78893
1059,67; 2172,125;  215,910; 2422,990;88,63361
1060,21; 2113,048;  209,217; 2369,990;88,10878
1060,76; 2142,433;  231,140; 2335,144;90,84072
1061,30; 2124,202;  230,063; 2338,990;89,81527
1061,84; 2059,356;  210,833; 2281,221;89,28388
1062,38; 2018,356;  204,833; 2233,452;89,39692
1062,92; 2035,663;  250,140; 2221,913;90,55419
1063,46; 1976,125;  231,294; 2198,375;88,70153
1064,01; 1961,971;  214,448; 2159,067;89,86454
1064,55; 1932,894;  215,679; 2124,221;89,97523
1065,09; 1890,587;  188,294; 2060,990;90,90061
1065,63; 1916,202;  234,217; 2096,221;90,33196
1066,17; 1881,663;  229,602; 2079,683;89,29673
1066,71; 1863,356;  225,679; 2040,837;90,22229
1067,25; 1834,663;  207,217; 1999,606;90,79762
1067,80; 1823,202;  237,063; 2000,067;89,96795
1068,34; 1807,048;  248,987; 1987,067;89,64264
1068,88; 1762,510;  213,602; 1910,683;91,26894
1069,42; 1803,433;  242,371; 1934,837;92,23595
1069,96; 1740,125;  216,602; 1905,375;90,21479
1070,50; 1735,125;  242,602; 1896,683;90,23278
1071,04; 1674,740;  208,063; 1826,913;90,59993
1071,58; 1683,894;  211,217; 1808,529;92,19723
1072,12; 1656,587;  208,756; 1799,837;90,99669
1072,66; 1661,740;  225,448; 1770,067;92,98682
1073,21; 1628,971;  226,525; 1767,144;91,03133
1073,75; 1629,356;  228,602; 1737,452;92,83586
1074,29; 1593,433;  223,756; 1714,837;91,85800
1074,83; 1569,740;  239,063; 1691,760;91,60050
1075,37; 1551,048;  222,679; 1680,452;91,12318
1075,91; 1542,356;  238,140; 1660,298;91,70681
1076,45; 1515,817;  221,140; 1629,144;91,95123
1076,99; 1488,433;  237,987; 1604,221;91,52499
1077,53; 1472,817;  208,910; 1574,144;92,57806
1078,07; 1458,279;  227,525; 1585,683;90,61936
1078,61; 1454,587;  210,987; 1563,452;91,95060
1079,15; 1424,279;  214,448; 1531,606;91,85163
1079,69; 1422,125;  221,525; 1531,067;91,68089
1080,23; 1408,125;  239,217; 1487,067;93,67373
1080,77; 1395,971;  245,987; 1506,067;91,26277
1081,31; 1351,279;  203,371; 1450,529;92,04190
1081,85; 1353,356;  231,833; 1455,298;91,66774
1082,39; 1349,356;  212,140; 1439,606;92,64745
1082,93; 1328,510;  225,448; 1430,144;91,56346
1083,47; 1278,356;  201,448; 1394,298;90,28023
1084,01; 1301,894;  233,140; 1393,067;92,13976
1084,55; 1245,279;  210,679; 1364,760;89,64711
1085,09; 1276,433;  233,371; 1356,221;92,89411
1085,63; 1243,510;  225,294; 1326,452;92,46772
1086,17; 1220,587;  208,371; 1307,452;92,09654
1086,71; 1203,817;  213,987; 1283,298;92,56711
1087,24; 1236,740;  238,602; 1308,144;93,32389
1087,78; 1214,587;  222,140; 1284,144;93,45034
1088,32; 1166,971;  206,448; 1242,837;92,67983
1088,86; 1172,587;  246,756; 1259,990;91,37378
1089,40; 1165,356;  222,525; 1237,760;92,86826
1089,94; 1127,817;  194,910; 1185,990;94,13034
1090,48; 1131,817;  234,140; 1214,529;91,56339
1091,02; 1127,587;  226,679; 1201,529;92,41501
1091,56; 1129,356;  224,525; 1181,144;94,58630
1092,10; 1088,894;  205,371; 1143,683;94,16095
1092,63; 1120,433;  242,525; 1178,837;93,76235
1093,17; 1094,971;  224,217; 1149,529;94,10386
1093,71; 1082,125;  223,756; 1128,298;94,89542
1094,25; 1070,125;  243,140; 1128,683;93,38736
1094,79; 1049,510;  225,833; 1084,760;95,89604
1095,33; 1030,048;  219,217; 1084,606;93,69558
1095,87; 1029,279;  223,987; 1073,221;94,82566
1096,40; 1006,279;  208,987; 1051,298;94,65528
1096,94; 1024,663;  217,525; 1051,683;96,76090
1097,48; 1010,202;  233,294; 1051,298;94,97604
1098,02;  981,433;  217,756; 1009,529;96,45149
1098,56;  944,894;  197,602; 1000,837;93,03537
1099,10;  950,894;  206,140;  963,144;98,38178
1099,63;  943,048;  205,217;  974,452;95,91752
1100,17;  947,894;  227,140;  976,990;96,11974
1100,71;  955,817;  233,448;  991,606;95,27955

