
Integration time [ms]: 120,000
Averaging Nr. [scans]: 13
Smoothing Nr. [pixels]: 0
Data measured with spectrometer [name]: 2009305U1
Wave   ;Sample   ;Dark     ;Reference;Reflectance
[nm]   ;[counts] ;[counts] ;[counts] ;[%]

 175,72;  208,305;  202,673;  202,814; 0,00000
 176,32;  226,915;  225,431;  219,229; 0,00000
 176,92;  246,071;  241,593;  259,926;24,42787
 177,52;  259,831;  251,671;  258,560;118,45951
 178,12;  237,028;  228,123;  221,690; 0,00000
 178,72;  264,352;  262,428;  250,906; 0,00000
 179,32;  257,205;  256,969;  246,180; 0,00000
 179,92;  255,512;  244,743;  247,528;386,70907
 180,52;  237,997;  240,295;  251,040;-21,37876
 181,12;  254,551;  250,513;  250,351; 0,00000
 181,73;  272,522;  264,591;  277,112;63,34785
 182,33;  344,807;  344,982;  351,462;-2,69551
 182,93;  269,762;  260,594;  266,980;143,57324
 183,53;  238,069;  240,272;  226,189; 0,00000
 184,13;  237,377;  234,428;  232,913; 0,00000
 184,73;  282,445;  272,348;  270,276; 0,00000
 185,33;  267,080;  227,895;  345,845;33,22117
 185,93;  269,358;  241,810;  363,162;22,70037
 186,53;  291,417;  245,969;  383,769;32,98128
 187,13;  301,801;  274,977;  418,310;18,71390
 187,73;  267,937;  236,042;  378,887;22,32816
 188,33;  285,347;  240,114;  373,931;33,80165
 188,93;  285,126;  258,330;  373,870;23,19196
 189,53;  289,490;  257,396;  374,368;27,43706
 190,13;  330,112;  277,224;  424,265;35,96845
 190,73;  268,038;  216,698;  365,464;34,51049
 191,34;  299,367;  258,249;  403,767;28,25635
 191,94;  278,601;  218,263;  371,997;39,24802
 192,54;  298,872;  243,523;  387,787;38,36686
 193,14;  303,898;  247,900;  396,592;37,66088
 193,74;  304,838;  257,129;  400,532;33,26943
 194,34;  292,918;  240,671;  386,728;35,77202
 194,94;  258,368;  220,361;  356,781;27,85998
 195,54;  223,022;  204,742;  327,334;14,91137
 196,14;  264,750;  227,827;  378,689;24,47472
 196,74;  257,541;  222,971;  359,044;25,40535
 197,34;  237,413;  197,063;  371,027;23,19452
 197,94;  268,981;  228,132;  384,373;26,14543
 198,54;  280,348;  235,596;  395,794;27,93542
 199,14;  245,097;  219,374;  388,308;15,22676
 199,74;  246,474;  202,220;  401,273;22,23224
 200,34;  243,113;  196,990;  393,795;23,43561
 200,94;  280,209;  228,446;  426,289;26,16354
 201,54;  262,533;  204,218;  443,961;24,32379
 202,14;  289,442;  229,608;  481,986;23,70820
 202,74;  275,130;  219,912;  475,274;21,62330
 203,34;  264,361;  188,920;  492,839;24,82286
 203,94;  251,327;  167,224;  499,348;25,32278
 204,54;  310,276;  245,363;  589,973;18,83665
 205,14;  285,003;  199,220;  600,798;21,36145
 205,74;  341,607;  236,688;  696,371;22,82414
 206,34;  306,971;  209,069;  707,819;19,62945
 206,94;  330,878;  215,837;  774,562;20,58992
 207,54;  302,934;  180,146;  806,666;19,59851
 208,14;  335,710;  214,378;  884,062;18,11780
 208,74;  348,658;  211,373;  951,337;18,55295
 209,34;  350,186;  194,759; 1045,915;18,26065
 209,94;  389,260;  216,528; 1149,937;18,50557
 210,54;  397,512;  213,302; 1239,675;17,94768
 211,14;  416,814;  218,374; 1375,700;17,14647
 211,73;  430,623;  201,448; 1478,977;17,93891
 212,33;  464,909;  217,908; 1586,632;18,04609
 212,93;  461,135;  205,834; 1714,331;16,92418
 213,53;  458,574;  178,220; 1776,071;17,54570
 214,13;  473,625;  200,076; 1832,252;16,75978
 214,73;  484,058;  190,377; 1872,755;17,45627
 215,33;  480,337;  173,143; 1893,014;17,86147
 215,93;  534,972;  201,842; 2020,959;18,31275
 216,53;  521,672;  158,603; 2108,122;18,62348
 217,13;  605,641;  216,302; 2311,821;18,57959
 217,73;  641,880;  194,611; 2514,042;19,28355
 218,33;  639,999;  147,770; 2710,446;19,20762
 218,93;  748,894;  176,163; 3006,310;20,23680
 219,53;  815,607;  183,770; 3305,411;20,24053
 220,13;  842,250;  156,541; 3596,351;19,93449
 220,73;  969,476;  191,836; 3941,482;20,73903
 221,32; 1035,812;  182,912; 4363,260;20,40262
 221,92; 1168,178;  190,848; 4775,100;21,31929
 222,52; 1214,917;  174,227; 5205,811;20,68314
 223,12; 1319,586;  171,612; 5659,397;20,91871
 223,72; 1454,886;  195,843; 6067,054;21,44435
 224,32; 1522,206;  201,998; 6450,584;21,12810
 224,92; 1575,325;  183,767; 6756,102;21,17296
 225,52; 1676,255;  200,684; 7072,450;21,47296
 226,12; 1738,939;  193,225; 7427,116;21,36767
 226,72; 1831,525;  164,840; 7739,306;22,00400
 227,31; 1910,491;  160,994; 8128,208;21,95871
 227,91; 2004,430;  178,452; 8522,116;21,88461
 228,51; 2086,171;  181,909; 8913,420;21,80908
 229,11; 2160,489;  182,301; 9324,768;21,63735
 229,71; 2237,262;  175,219; 9553,884;21,98653
 230,31; 2332,429;  170,000;10006,581;21,98355
 230,91; 2410,583;  162,060;10330,474;22,11282
 231,51; 2482,230;  162,304;10694,483;22,02703
 232,10; 2558,880;  171,616;11055,467;21,93400
 232,70; 2616,688;  189,671;11322,958;21,79964
 233,30; 2681,149;  200,534;11530,911;21,89349
 233,90; 2703,191;  179,764;11686,583;21,92984
 234,50; 2742,674;  181,534;11918,588;21,82098
 235,10; 2778,325;  166,536;11994,333;22,08179
 235,70; 2798,882;  187,221;12088,487;21,94439
 236,29; 2808,887;  187,988;12111,897;21,98020
 236,89; 2772,382;  166,599;12029,823;21,96522
 237,49; 2752,768;  197,687;11971,528;21,70134
 238,09; 2712,817;  176,993;11716,511;21,97514
 238,69; 2685,511;  218,442;11547,115;21,77721
 239,29; 2554,240;  172,223;11220,918;21,55927
 239,89; 2523,647;  193,907;10971,228;21,61706
 240,48; 2365,783;  176,531;10591,259;21,02073
 241,08; 2296,382;  175,145;10224,619;21,10794
 241,68; 2222,819;  196,993; 9925,720;20,82314
 242,28; 2110,497;  168,918; 9604,373;20,57748
 242,88; 2058,618;  214,538; 9311,832;20,27064
 243,48; 1970,160;  207,533; 8999,871;20,04731
 244,07; 1894,319;  190,298; 8722,403;19,97186
 244,67; 1829,310;  200,070; 8626,684;19,33445
 245,27; 1768,623;  198,602; 8464,284;18,99445
 245,87; 1769,194;  202,768; 8392,547;19,12660
 246,47; 1688,658;  190,295; 8414,382;18,21920
 247,06; 1663,146;  179,146; 8363,177;18,13288
 247,66; 1638,444;  176,685; 8450,657;17,66696
 248,26; 1672,833;  217,295; 8599,618;17,36437
 248,86; 1682,566;  200,757; 8748,312;17,33606
 249,46; 1643,853;  157,457; 8985,134;16,83790
 250,05; 1728,260;  203,377; 9328,022;16,71169
 250,65; 1727,200;  168,832; 9752,153;16,26125
 251,25; 1799,953;  174,760;10184,430;16,23623
 251,85; 1901,903;  191,137;10734,774;16,22557
 252,44; 1994,239;  155,835;11399,855;16,35006
 253,04; 2110,476;  197,451;12181,097;15,96363
 253,64; 2178,836;  155,678;12806,281;15,99258
 254,24; 2377,652;  195,146;13819,981;16,01859
 254,84; 2485,622;  170,996;14760,980;15,86449
 255,43; 2627,780;  175,527;15673,602;15,82295
 256,03; 2825,659;  178,063;16632,867;16,09011
 256,63; 2988,962;  183,214;17740,187;15,98082
 257,23; 3126,657;  177,907;18504,473;16,09003
 257,82; 3333,976;  190,672;19507,424;16,27243
 258,42; 3455,555;  145,747;20302,163;16,42062
 259,02; 3701,774;  190,682;21198,699;16,71311
 259,62; 3805,881;  173,669;21930,235;16,69479
 260,21; 3959,333;  179,989;22397,750;17,01047
 260,81; 4054,647;  187,994;22933,955;16,99929
 261,41; 4210,357;  162,594;23400,776;17,41859
 262,01; 4381,556;  205,975;23824,308;17,67940
 262,60; 4426,734;  158,984;24167,088;17,77629
 263,20; 4566,536;  164,756;24460,117;18,11778
 263,80; 4655,930;  201,359;24601,526;18,25631
 264,40; 4757,133;  163,976;24723,670;18,70201
 264,99; 4849,953;  187,974;24932,785;18,84023
 265,59; 4950,486;  179,353;25036,733;19,19403
 266,19; 5036,846;  165,821;25188,490;19,46645
 266,78; 5163,974;  212,895;25312,266;19,72591
 267,38; 5172,929;  186,739;25277,200;19,87285
 267,98; 5251,035;  172,049;25385,041;20,14432
 268,58; 5326,356;  188,354;25331,948;20,43463
 269,17; 5373,810;  171,427;25344,257;20,66666
 269,77; 5406,912;  191,520;25145,525;20,90002
 270,37; 5430,328;  163,205;25022,926;21,18738
 270,96; 5476,113;  215,441;24936,068;21,28049
 271,56; 5435,774;  174,753;24681,858;21,46733
 272,16; 5497,936;  178,979;24415,776;21,94579
 272,75; 5490,399;  177,210;24341,755;21,98754
 273,35; 5533,107;  187,057;24250,780;22,21622
 273,95; 5556,776;  186,287;24241,027;22,32612
 274,54; 5629,404;  175,300;24275,778;22,63069
 275,14; 5771,075;  200,519;24642,891;22,79057
 275,74; 5832,449;  153,825;24701,154;23,13337
 276,33; 6017,860;  213,136;25015,994;23,40345
 276,93; 6120,846;  195,455;25489,552;23,42599
 277,53; 6258,341;  185,065;26006,631;23,52017
 278,12; 6478,643;  172,215;26618,996;23,84573
 278,72; 6677,577;  216,219;27075,304;24,05651
 279,32; 6859,506;  186,064;27665,976;24,28480
 279,91; 7087,525;  164,832;28374,510;24,54013
 280,51; 7346,847;  172,373;28907,973;24,96720
 281,11; 7548,259;  183,525;29638,489;25,00337
 281,70; 7714,290;  165,370;30074,476;25,23954
 282,30; 7986,158;  181,214;30776,550;25,51024
 282,90; 8139,106;  178,752;31071,250;25,76792
 283,49; 8386,946;  191,519;31703,206;26,00758
 284,09; 8649,501;  213,908;32174,372;26,39384
 284,69; 8856,385;  201,602;32551,480;26,75368
 285,28; 9044,586;  201,523;32877,715;27,06271
 285,88; 9322,884;  235,209;33144,707;27,61414
 286,47; 9326,960;  184,368;33220,054;27,67490
 287,07; 9542,898;  209,679;33248,088;28,24960
 287,67; 9772,468;  204,456;33355,794;28,86162
 288,26; 9894,179;  172,448;33241,410;29,39835
 288,86;10108,630;  179,754;33428,826;29,86211
 289,46;10293,663;  192,063;33471,747;30,35365
 290,05;10580,807;  174,837;33601,850;31,13042
 290,65;10854,298;  180,521;33802,888;31,74606
 291,24;11148,833;  188,988;33879,003;32,53143
 291,84;11415,962;  206,368;34112,571;33,06060
 292,44;11625,514;  191,072;34235,115;33,58721
 293,03;11931,893;  241,449;34378,031;34,24609
 293,63;12124,072;  179,598;34411,921;34,89238
 294,22;12398,969;  205,832;34641,153;35,40881
 294,82;12563,639;  186,438;34577,243;35,98985
 295,41;12541,905;  169,832;34333,169;36,21448
 296,01;12709,299;  219,286;34338,309;36,60718
 296,61;12727,669;  198,218;34063,374;36,99806
 297,20;12570,216;  189,978;33632,022;37,01998
 297,80;12675,617;  203,223;33573,652;37,37559
 298,39;12527,980;  174,983;33088,159;37,53207
 298,99;12566,378;  220,749;32950,935;37,71940
 299,58;12538,164;  203,609;32750,873;37,89736
 300,18;12453,271;  204,683;32613,290;37,79424
 300,78;12238,045;  186,527;32260,315;37,57435
 301,37;12295,247;  187,512;32215,892;37,80315
 301,97;12275,475;  196,140;32287,880;37,64001
 302,56;12209,924;  183,983;32152,209;37,61842
 303,16;12171,540;  173,212;32088,694;37,59407
 303,75;12182,101;  183,605;32134,495;37,55293
 304,35;12188,115;  179,766;32333,153;37,34707
 304,94;12155,596;  186,064;32333,222;37,23356
 305,54;12144,274;  204,604;32260,260;37,24669
 306,13;12036,117;  168,074;32186,516;37,06627
 306,73;11931,924;  162,995;32020,506;36,94240
 307,33;11865,141;  202,378;31912,690;36,77908
 307,92;11841,620;  194,757;32025,129;36,59041
 308,52;11951,846;  158,596;32481,024;36,48628
 309,11;12045,133;  179,977;32994,471;36,15828
 309,71;12070,727;  160,590;33237,434;36,00748
 310,30;12141,541;  174,218;33455,381;35,95825
 310,90;12247,925;  210,295;33790,920;35,84695
 311,49;12196,273;  182,833;33948,536;35,57882
 312,09;12188,613;  159,914;34164,542;35,37371
 312,68;12276,728;  230,450;34592,532;35,05689
 313,28;12175,620;  166,988;34646,206;34,82861
 313,87;12122,171;  156,910;34788,836;34,54980
 314,47;12084,849;  172,902;35029,917;34,17375
 315,06;12099,322;  163,065;35299,219;33,97144
 315,66;12019,690;  164,914;35459,619;33,58797
 316,25;11850,500;  156,982;35359,386;33,21795
 316,85;11805,084;  158,914;35417,171;33,03104
 317,44;11681,383;  178,747;35551,114;32,51871
 318,04;11539,910;  157,214;35579,271;32,13449
 318,63;11449,326;  155,072;35726,555;31,75087
 319,22;11367,520;  181,905;35905,413;31,31164
 319,82;11247,097;  167,754;35877,499;31,02611
 320,41;11068,291;  187,829;35789,622;30,56156
 321,01;10940,507;  194,144;35985,116;30,02534
 321,60;10819,142;  183,216;36034,226;29,66702
 322,20;10659,741;  171,834;36012,471;29,26261
 322,79;10594,800;  204,065;36081,114;28,96207
 323,39;10464,915;  165,535;36264,448;28,53100
 323,98;10226,889;  162,373;36174,645;27,94746
 324,58;10101,863;  169,212;36082,534;27,65729
 325,17; 9915,716;  180,674;35980,084;27,19330
 325,76; 9745,913;  196,525;35776,620;26,83913
 326,36; 9491,301;  163,298;35371,970;26,49348
 326,95; 9313,374;  198,754;35069,435;26,13835
 327,55; 9065,609;  161,138;34641,898;25,82446
 328,14; 8806,765;  174,762;34387,672;25,23025
 328,74; 8655,854;  192,213;33867,091;25,13340
 329,33; 8452,274;  190,298;33500,292;24,80330
 329,92; 8174,331;  162,978;33018,813;24,38335
 330,52; 7900,631;  185,147;32312,238;24,01551
 331,11; 7697,313;  168,446;31877,121;23,74387
 331,71; 7419,063;  182,371;31285,125;23,26705
 332,30; 7245,058;  205,371;30798,837;23,01042
 332,89; 7041,391;  233,836;30230,908;22,69407
 333,49; 6798,315;  194,370;29681,099;22,39633
 334,08; 6612,438;  181,061;29290,311;22,09393
 334,68; 6396,413;  180,908;28844,380;21,68441
 335,27; 6247,893;  199,148;28509,180;21,36608
 335,86; 6152,544;  240,446;28279,505;21,08522
 336,46; 5957,706;  197,917;27999,599;20,71741
 337,05; 5836,970;  182,908;27786,484;20,48308
 337,65; 5695,045;  165,677;27644,737;20,12212
 338,24; 5696,299;  223,681;27624,652;19,97235
 338,83; 5579,941;  197,758;27574,945;19,65937
 339,43; 5425,621;  171,674;27464,343;19,25040
 340,02; 5358,729;  179,828;27356,946;19,05611
 340,61; 5283,073;  174,680;27473,017;18,71320
 341,21; 5253,470;  205,367;27452,091;18,52737
 341,80; 5183,788;  178,753;27378,828;18,40081
 342,40; 5144,504;  184,455;27491,454;18,16402
 342,99; 5086,084;  182,451;27617,523;17,87359
 343,58; 5036,967;  183,298;27786,907;17,58346
 344,18; 5072,961;  195,298;27881,312;17,61779
 344,77; 5005,754;  176,058;28227,568;17,21724
 345,36; 5016,374;  168,447;28489,512;17,11775
 345,96; 5079,463;  195,298;28794,851;17,07777
 346,55; 5058,651;  166,843;29047,867;16,93780
 347,14; 5067,248;  165,455;29447,062;16,74018
 347,74; 5101,347;  151,771;29812,017;16,68758
 348,33; 5195,907;  171,462;30503,914;16,56458
 348,92; 5233,885;  191,928;31151,410;16,28566
 349,52; 5276,619;  155,541;31617,050;16,27728
 350,11; 5313,067;  183,519;31846,779;16,20032
 350,70; 5304,483;  180,680;31873,408;16,16712
 351,29; 5174,785;  155,818;31621,476;15,95062
 351,89; 5162,116;  185,362;31699,576;15,79209
 352,48; 5180,123;  158,680;31723,262;15,90847
 353,07; 5125,458;  175,148;31659,396;15,72313
 353,67; 5109,897;  186,851;31579,556;15,68213
 354,26; 5025,650;  189,455;31300,726;15,54483
 354,85; 5021,521;  179,607;31184,856;15,61643
 355,45; 4927,528;  158,753;31068,172;15,42823
 356,04; 4941,991;  171,610;30902,801;15,52293
 356,63; 4900,957;  197,062;30688,623;15,42687
 357,22; 4868,661;  185,820;30543,010;15,42581
 357,82; 4824,996;  191,976;30352,412;15,36125
 358,41; 4822,775;  202,294;30250,845;15,37672
 359,00; 4780,023;  168,982;29995,238;15,45967
 359,60; 4780,281;  188,065;30018,757;15,39427
 360,19; 4780,901;  182,611;29786,862;15,53253
 360,78; 4753,165;  194,523;29616,870;15,49381
 361,37; 4732,388;  178,985;29418,142;15,57296
 361,97; 4715,105;  196,986;29340,258;15,50313
 362,56; 4657,134;  175,365;29036,458;15,52876
 363,15; 4711,470;  220,907;28797,122;15,71434
 363,74; 4629,166;  188,056;28358,776;15,76499
 364,34; 4618,014;  197,905;28033,378;15,87941
 364,93; 4537,105;  172,211;27588,802;15,92063
 365,52; 4449,774;  153,908;27112,428;15,93510
 366,11; 4449,656;  173,982;26848,518;16,02905
 366,71; 4381,058;  170,598;26452,336;16,02048
 367,30; 4391,032;  172,370;26109,029;16,26525
 367,89; 4415,357;  227,607;25897,457;16,31389
 368,48; 4351,613;  186,594;25524,475;16,43791
 369,07; 4307,406;  179,603;25048,562;16,59821
 369,67; 4300,924;  197,980;24801,124;16,67651
 370,26; 4237,545;  178,219;24544,953;16,65929
 370,85; 4289,449;  183,216;24214,610;17,08696
 371,44; 4237,232;  179,601;23966,503;17,05826
 372,03; 4199,262;  168,751;23732,350;17,10482
 372,63; 4220,153;  156,293;23380,987;17,49801
 373,22; 4219,523;  176,834;23073,486;17,65625
 373,81; 4180,047;  157,139;22784,407;17,77903
 374,40; 4185,860;  177,916;22525,182;17,93483
 374,99; 4151,614;  172,445;22297,340;17,98503
 375,59; 4154,865;  164,453;22014,855;18,26242
 376,18; 4191,693;  194,753;21910,702;18,40555
 376,77; 4164,363;  189,140;21655,398;18,51847
 377,36; 4219,859;  198,292;21627,694;18,76658
 377,95; 4220,581;  193,213;21311,650;19,07039
 378,55; 4213,969;  166,683;21149,809;19,28829
 379,14; 4236,919;  196,908;21141,953;19,28862
 379,73; 4280,797;  184,137;20977,656;19,70162
 380,32; 4318,046;  192,832;20964,307;19,85999
 380,91; 4338,572;  164,133;20836,090;20,19373
 381,50; 4374,973;  190,981;20822,730;20,27939
 382,10; 4357,969;  169,601;20675,846;20,42484
 382,69; 4410,482;  156,908;20648,499;20,75766
 383,28; 4497,977;  201,674;20597,764;21,06435
 383,87; 4490,481;  171,981;20438,512;21,30853
 384,46; 4540,460;  168,284;20395,775;21,61502
 385,05; 4592,802;  201,058;20345,605;21,80116
 385,64; 4605,041;  173,290;20372,133;21,94062
 386,24; 4622,552;  160,207;20337,384;22,11581
 386,83; 4736,915;  204,283;20341,147;22,50913
 387,42; 4795,872;  197,982;20443,755;22,71037
 388,01; 4883,017;  187,663;20722,576;22,86523
 388,60; 5015,174;  185,669;20944,242;23,26511
 389,19; 5110,171;  171,195;21150,735;23,54187
 389,78; 5246,025;  177,043;21370,802;23,91734
 390,37; 5427,922;  234,666;21847,997;24,02803
 390,96; 5487,815;  180,052;22023,426;24,29919
 391,56; 5597,826;  184,039;22139,320;24,65825
 392,15; 5699,126;  169,582;22411,555;24,86085
 392,74; 5765,250;  150,800;22583,063;25,02846
 393,33; 5943,386;  174,192;22846,524;25,44596
 393,92; 6112,543;  192,027;23328,953;25,58904
 394,51; 6217,110;  174,577;23483,413;25,92379
 395,10; 6377,091;  210,938;23741,130;26,20528
 395,69; 6471,811;  191,709;23890,302;26,49989
 396,28; 6566,843;  189,164;24005,657;26,77841
 396,87; 6621,226;  197,000;24049,721;26,93289
 397,46; 6692,895;  196,915;24168,127;27,09909
 398,06; 6842,074;  211,983;24401,439;27,40901
 398,65; 6918,571;  191,424;24435,851;27,74719
 399,24; 7050,548;  197,112;24662,782;28,01246
 399,83; 7071,480;  175,619;24707,790;28,10946
 400,42; 7263,013;  214,283;24793,714;28,67735
 401,01; 7302,119;  189,019;24914,542;28,76825
 401,60; 7416,921;  199,975;24900,798;29,21743
 402,19; 7454,295;  220,863;24849,078;29,37051
 402,78; 7556,092;  222,501;24901,088;29,71641
 403,37; 7499,007;  204,834;24741,548;29,72759
 403,96; 7559,104;  203,697;24609,990;30,13734
 404,55; 7589,939;  211,322;24417,879;30,48189
 405,14; 7548,280;  194,415;24293,260;30,51542
 405,73; 7638,638;  207,883;24275,116;30,87499
 406,32; 7646,512;  205,219;24131,352;31,10111
 406,91; 7603,429;  198,856;23904,980;31,23485
 407,50; 7627,081;  207,674;23733,268;31,53760
 408,09; 7596,438;  183,730;23420,189;31,90119
 408,68; 7591,691;  192,793;23255,197;32,08207
 409,27; 7615,453;  185,273;23146,454;32,35975
 409,86; 7590,046;  197,701;22960,388;32,47571
 410,45; 7692,072;  238,122;22919,365;32,86394
 411,04; 7703,710;  238,082;22843,339;33,02607
 411,63; 7661,967;  211,592;22600,535;33,27703
 412,22; 7681,805;  218,021;22288,056;33,81863
 412,81; 7617,789;  223,652;22056,752;33,86664
 413,40; 7548,961;  235,979;21728,740;34,02533
 413,99; 7505,175;  260,589;21397,851;34,27400
 414,58; 7368,505;  202,285;21003,304;34,45129
 415,17; 7351,858;  218,036;20759,640;34,72865
 415,76; 7354,112;  210,789;20711,639;34,84403
 416,35; 7306,777;  191,259;20454,580;35,11526
 416,94; 7399,663;  230,023;20514,156;35,34605
 417,53; 7520,738;  201,576;20800,791;35,53126
 418,12; 7562,529;  201,580;20827,937;35,68710
 418,71; 7789,281;  220,980;21186,040;36,09959
 419,30; 7877,436;  211,736;21228,228;36,47469
 419,89; 7973,404;  194,893;21434,172;36,62324
 420,48; 8114,906;  237,442;21733,900;36,64541
 421,07; 8176,130;  215,368;21822,005;36,84406
 421,66; 8204,097;  188,454;21846,735;37,00960
 422,25; 8260,262;  208,395;21852,910;37,20050
 422,84; 8324,513;  225,783;21737,539;37,64793
 423,43; 8238,736;  215,391;21508,323;37,68079
 424,02; 8175,960;  233,317;21253,813;37,78523
 424,60; 8038,702;  215,646;20826,513;37,95598
 425,19; 7972,615;  213,481;20615,233;38,03171
 425,78; 7983,024;  234,251;20400,833;38,42383
 426,37; 8027,340;  238,797;20253,664;38,91379
 426,96; 7972,101;  222,105;20170,398;38,85042
 427,55; 7915,697;  211,732;20039,514;38,85440
 428,14; 7891,932;  203,353;19811,972;39,21020
 428,73; 7845,107;  204,266;19667,866;39,25708
 429,32; 7861,068;  222,719;19620,862;39,37670
 429,91; 7906,273;  242,190;19615,704;39,55959
 430,50; 7876,504;  231,888;19457,006;39,76369
 431,08; 7826,546;  221,587;19289,596;39,88334
 431,67; 7825,356;  259,438;19255,284;39,82933
 432,26; 7802,010;  261,905;19013,763;40,20991
 432,85; 7670,590;  275,980;18644,633;40,25668
 433,44; 7567,960;  279,142;18309,281;40,42574
 434,03; 7454,927;  303,076;17873,504;40,70391
 434,62; 7307,451;  254,220;17499,553;40,89936
 435,21; 7227,159;  270,981;17245,806;40,97938
 435,79; 7197,733;  249,226;17166,079;41,07447
 436,38; 7137,426;  252,083;16985,729;41,14670
 436,97; 7129,836;  247,930;16873,153;41,39437
 437,56; 7037,583;  255,023;16748,946;41,12157
 438,15; 7041,201;  235,558;16658,115;41,44083
 438,74; 7067,279;  265,790;16633,993;41,55306
 439,33; 7104,899;  241,711;16658,018;41,80714
 439,91; 7100,273;  221,026;16713,130;41,71237
 440,50; 7145,815;  271,565;16805,548;41,57649
 441,09; 7259,507;  262,189;16895,628;42,06777
 441,68; 7225,739;  241,660;16963,225;41,76690
 442,27; 7316,059;  233,887;16851,869;42,61752
 442,86; 7293,308;  203,599;16819,088;42,66927
 443,44; 7350,268;  227,595;16931,893;42,63976
 444,03; 7463,250;  271,446;16995,269;43,00335
 444,62; 7346,156;  226,600;16879,912;42,75159
 445,21; 7268,809;  245,366;16666,519;42,77071
 445,80; 7291,811;  265,147;16604,455;43,00466
 446,39; 7230,689;  268,760;16364,850;43,25230
 446,97; 7112,682;  227,772;16116,035;43,33330
 447,56; 7040,246;  218,705;15890,562;43,52733
 448,15; 6959,441;  228,618;15759,022;43,33965
 448,74; 6883,020;  257,389;15456,208;43,59307
 449,33; 6830,980;  235,088;15347,125;43,64661
 449,91; 6723,451;  238,175;15103,327;43,62738
 450,50; 6588,978;  230,558;14860,535;43,46159
 451,09; 6608,993;  234,097;14801,560;43,76120
 451,68; 6586,035;  259,410;14724,733;43,73650
 452,26; 6550,908;  251,953;14609,451;43,87224
 452,85; 6513,217;  230,104;14421,058;44,27548
 453,44; 6498,887;  243,810;14491,666;43,90188
 454,03; 6482,609;  217,417;14426,473;44,09295
 454,61; 6497,474;  230,811;14415,041;44,18049
 455,20; 6585,227;  245,893;14580,549;44,22383
 455,79; 6607,324;  254,961;14556,496;44,41735
 456,38; 6618,032;  252,439;14684,904;44,10607
 456,97; 6671,010;  237,283;14765,098;44,28558
 457,55; 6710,010;  240,597;14742,400;44,61109
 458,14; 6725,273;  249,512;14730,724;44,71836
 458,73; 6637,751;  247,136;14630,007;44,43212
 459,31; 6686,262;  265,453;14709,332;44,45349
 459,90; 6768,756;  278,294;14787,950;44,73202
 460,49; 6807,057;  316,676;14902,291;44,49851
 461,08; 6786,730;  239,457;14907,869;44,63519
 461,66; 6817,242;  248,298;15049,536;44,38105
 462,25; 6898,026;  251,999;15121,148;44,69675
 462,84; 6928,471;  277,304;15109,398;44,84307
 463,43; 6863,704;  215,394;15085,289;44,70987
 464,01; 6895,044;  248,782;15117,756;44,69886
 464,60; 6920,361;  291,775;15077,974;44,82955
 465,19; 6747,674;  228,247;14843,912;44,60575
 465,77; 6785,624;  248,251;14804,322;44,91165
 466,36; 6759,106;  262,163;14688,107;45,03652
 466,95; 6632,360;  245,856;14414,014;45,07646
 467,53; 6459,756;  250,795;14096,619;44,84356
 468,12; 6326,174;  284,642;13785,386;44,74962
 468,71; 6236,218;  249,478;13594,462;44,86135
 469,29; 6125,540;  227,721;13304,237;45,10237
 469,88; 5983,818;  237,801;13053,236;44,83669
 470,47; 6110,342;  300,502;13186,269;45,08727
 471,06; 6045,532;  263,195;13153,729;44,85724
 471,64; 6059,912;  248,577;13220,818;44,79824
 472,23; 6061,858;  221,439;13272,338;44,75109
 472,81; 6112,259;  220,431;13340,822;44,90589
 473,40; 6176,843;  234,747;13485,729;44,84268
 473,99; 6332,570;  335,209;13697,135;44,88396
 474,57; 6343,268;  245,516;13793,499;45,00856
 475,16; 6427,449;  253,433;13941,336;45,10563
 475,75; 6446,730;  273,676;14125,956;44,56345
 476,33; 6514,039;  271,682;14198,006;44,82416
 476,92; 6554,082;  275,979;14259,027;44,89796
 477,51; 6580,100;  265,064;14328,410;44,90422
 478,09; 6541,785;  257,910;14312,913;44,70916
 478,68; 6560,645;  273,913;14221,761;45,07313
 479,27; 6585,518;  287,599;14305,290;44,92836
 479,85; 6531,164;  257,605;14283,426;44,72864
 480,44; 6616,669;  254,839;14418,392;44,91691
 481,02; 7213,136;  255,537;15815,136;44,71580
 481,61; 8130,234;  283,919;17873,001;44,60901
 482,20; 8644,608;  255,691;19099,150;44,51899
 482,78; 9017,919;  299,453;19992,311;44,27222
 483,37; 9265,528;  278,699;20533,405;44,36909
 483,95; 9361,332;  304,393;20791,766;44,20742
 484,54; 9442,724;  317,687;21021,241;44,07474
 485,13; 9408,458;  274,631;20883,675;44,31951
 485,71; 9271,444;  255,552;20621,442;44,26957
 486,30; 9182,051;  284,013;20314,022;44,42354
 486,88; 9043,865;  322,246;19987,396;44,35064
 487,47; 8722,833;  301,556;19228,616;44,49332
 488,05; 8316,971;  276,713;18322,323;44,55520
 488,64; 7673,931;  297,104;17030,624;44,08413
 489,23; 6909,793;  304,637;15145,886;44,50539
 489,81; 5889,488;  299,947;12970,050;44,11599
 490,40; 5592,769;  248,179;12323,096;44,26192
 490,98; 5433,212;  239,182;12008,747;44,13103
 491,57; 5346,097;  273,023;11980,192;43,33306
 492,15; 5330,159;  253,952;11882,885;43,65152
 492,74; 5307,000;  260,944;11757,133;43,89330
 493,32; 5247,354;  277,412;11662,063;43,65476
 493,91; 5148,485;  263,340;11601,767;43,08485
 494,50; 5147,208;  262,198;11572,590;43,19046
 495,08; 5095,581;  241,813;11485,521;43,16875
 495,67; 5092,359;  272,570;11503,391;42,91574
 496,25; 4991,798;  224,038;11384,741;42,71917
 496,84; 4971,519;  231,646;11343,679;42,65532
 497,42; 4920,786;  221,502;11293,373;42,44344
 498,01; 4937,929;  249,648;11233,564;42,68315
 498,59; 4846,757;  227,811;11193,057;42,12351
 499,18; 4846,412;  225,572;11124,262;42,39813
 499,76; 4840,885;  260,115;11101,294;42,25343
 500,35; 4717,780;  245,432;10862,542;42,12397
 500,93; 4697,441;  241,963;10813,297;42,14679
 501,52; 4653,747;  238,734;10757,351;41,97333
 502,10; 4640,328;  261,129;10747,595;41,76048
 502,69; 4534,445;  242,363;10559,944;41,59969
 503,27; 4451,398;  227,429;10349,820;41,72897
 503,86; 4409,700;  233,977;10292,458;41,51445
 504,44; 4363,363;  224,981;10143,073;41,72558
 505,03; 4226,918;  207,673; 9910,660;41,42276
 505,61; 4173,593;  228,441; 9867,810;40,92749
 506,19; 4156,301;  250,134; 9720,605;41,24575
 506,78; 4024,316;  215,912; 9514,755;40,95567
 507,36; 3949,795;  224,980; 9341,724;40,85685
 507,95; 3884,098;  231,532; 9195,965;40,74509
 508,53; 3828,827;  226,066; 9043,616;40,85898
 509,12; 3736,834;  230,530; 8892,813;40,47782
 509,70; 3679,854;  257,455; 8769,488;40,20659
 510,29; 3612,963;  247,459; 8619,416;40,19972
 510,87; 3505,177;  229,989; 8412,749;40,02547
 511,46; 3424,495;  219,298; 8211,179;40,10566
 512,04; 3371,571;  224,918; 8099,680;39,95871
 512,62; 3303,949;  237,914; 7993,451;39,53349
 513,21; 3230,846;  213,229; 7789,415;39,83028
 513,79; 3135,244;  220,165; 7669,221;39,13353
 514,38; 3063,381;  209,315; 7499,517;39,14935
 514,96; 3053,804;  244,391; 7433,540;39,07852
 515,54; 2991,341;  212,778; 7283,317;39,29776
 516,13; 2923,586;  226,779; 7157,826;38,90909
 516,71; 2867,155;  215,862; 7056,039;38,76060
 517,30; 2781,738;  208,251; 6931,959;38,27481
 517,88; 2797,197;  234,174; 6882,673;38,55040
 518,46; 2702,929;  213,022; 6747,913;38,10173
 519,05; 2684,095;  225,718; 6659,507;38,21041
 519,63; 2663,708;  224,178; 6659,420;37,90891
 520,22; 2621,249;  243,724; 6564,271;37,61581
 520,80; 2595,809;  227,494; 6466,969;37,95696
 521,38; 2611,792;  257,027; 6436,694;38,10504
 521,97; 2546,361;  218,883; 6429,178;37,47773
 522,55; 2539,462;  235,575; 6443,647;37,11116
 523,13; 2526,821;  216,732; 6398,186;37,37129
 523,72; 2509,234;  224,330; 6381,243;37,11121
 524,30; 2579,790;  239,351; 6545,207;37,11532
 524,89; 2529,228;  207,114; 6567,260;36,51038
 525,47; 2557,115;  238,660; 6665,749;36,07317
 526,05; 2585,608;  213,276; 6727,615;36,41708
 526,64; 2621,459;  229,356; 6855,141;36,10293
 527,22; 2694,721;  232,121; 6943,659;36,69203
 527,80; 2728,635;  269,432; 7065,555;36,18539
 528,39; 2719,336;  226,435; 7190,884;35,79467
 528,97; 2760,088;  226,510; 7359,112;35,52109
 529,55; 2865,779;  234,655; 7559,822;35,91896
 530,14; 2906,562;  257,130; 7734,782;35,43134
 530,72; 2917,542;  221,972; 7856,769;35,30637
 531,30; 2943,045;  217,746; 7992,942;35,05120
 531,89; 2982,164;  229,746; 8072,921;35,09317
 532,47; 3041,107;  256,594; 8217,595;34,97693
 533,05; 3026,874;  264,355; 8219,821;34,72479
 533,63; 3040,113;  252,056; 8273,838;34,75608
 534,22; 3017,550;  224,980; 8342,061;34,40363
 534,80; 3036,821;  241,755; 8435,057;34,11404
 535,38; 3111,580;  314,977; 8489,709;34,21033
 535,97; 3034,057;  234,133; 8436,888;34,13395
 536,55; 3050,168;  271,140; 8468,496;33,90151
 537,13; 3007,530;  265,745; 8446,124;33,51659
 537,71; 3030,047;  285,283; 8475,119;33,51427
 538,30; 3053,126;  305,674; 8570,323;33,24342
 538,88; 3051,927;  318,837; 8599,984;33,00376
 539,46; 3096,077;  344,062; 8806,603;32,51996
 540,05; 3110,711;  345,912; 8897,023;32,33263
 540,63; 3165,370;  386,296; 9111,519;31,85104
 541,21; 3208,322;  393,223; 9243,260;31,80889
 541,79; 3222,672;  411,761; 9345,393;31,46436
 542,38; 3301,689;  420,142; 9496,556;31,74765
 542,96; 3324,279;  444,997; 9640,398;31,31220
 543,54; 3389,394;  449,299; 9854,765;31,25943
 544,12; 3390,814;  405,685; 9999,510;31,11511
 544,70; 3384,564;  405,382;10057,138;30,86673
 545,29; 3499,622;  420,603;10257,492;31,30074
 545,87; 3450,441;  410,915;10329,470;30,64484
 546,45; 3418,072;  392,603;10323,885;30,46403
 547,03; 3419,259;  383,760;10485,760;30,04850
 547,62; 3449,949;  363,839;10602,636;30,14133
 548,20; 3519,890;  382,919;10766,056;30,21217
 548,78; 3511,058;  344,546;10952,908;29,84921
 549,36; 3554,957;  347,391;11183,078;29,60187
 549,94; 3570,530;  320,764;11287,724;29,63234
 550,53; 3629,528;  322,697;11513,627;29,54921
 551,11; 3666,857;  294,548;11726,288;29,49952
 551,69; 3766,511;  322,468;12059,610;29,34312
 552,27; 3786,283;  275,540;12330,394;29,12306
 552,85; 3878,787;  287,163;12753,477;28,81063
 553,44; 3986,040;  288,544;13036,442;29,00475
 554,02; 4084,085;  310,085;13449,201;28,72339
 554,60; 4109,014;  248,318;13720,860;28,65604
 555,18; 4229,461;  287,852;14092,826;28,55209
 555,76; 4303,640;  277,008;14460,557;28,38946
 556,34; 4421,022;  292,169;14913,550;28,23846
 556,93; 4493,019;  277,853;15329,007;28,00560
 557,51; 4557,433;  240,707;15647,690;28,01798
 558,09; 4667,813;  284,853;16070,707;27,76511
 558,67; 4750,804;  280,172;16447,067;27,65300
 559,25; 4830,057;  288,786;16734,988;27,61289
 559,83; 4894,880;  273,791;17033,614;27,57242
 560,41; 4955,860;  265,398;17391,253;27,38819
 561,00; 5022,531;  280,634;17766,934;27,11778
 561,58; 5039,763;  274,782;18011,072;26,86572
 562,16; 5093,062;  268,625;18341,204;26,69479
 562,74; 5180,444;  237,393;18731,886;26,72715
 563,32; 5266,272;  245,867;19154,726;26,55054
 563,90; 5308,898;  267,019;19544,270;26,15456
 564,48; 5363,851;  267,550;20046,724;25,76600
 565,06; 5484,894;  267,326;20579,929;25,68636
 565,65; 5639,372;  272,181;21263,904;25,56813
 566,23; 5860,429;  311,788;22040,081;25,53648
 566,81; 5978,295;  279,324;22783,792;25,32373
 567,39; 6087,144;  277,023;23701,381;24,80376
 567,97; 6241,728;  289,940;24310,168;24,77823
 568,55; 6453,133;  293,252;25197,412;24,73435
 569,13; 6541,379;  270,634;25881,528;24,48468
 569,71; 6711,070;  280,933;26851,239;24,20046
 570,29; 6959,317;  308,160;27888,993;24,11514
 570,87; 7073,064;  303,624;28621,612;23,90509
 571,45; 7176,358;  296,018;29325,907;23,70088
 572,03; 7215,202;  249,486;29702,693;23,65011
 572,61; 7358,355;  242,944;30408,629;23,58776
 573,20; 7480,957;  281,092;31069,696;23,38484
 573,78; 7608,828;  260,329;31782,006;23,31252
 574,36; 7661,033;  279,328;32300,505;23,05257
 574,94; 7747,491;  317,256;32642,774;22,98566
 575,52; 7708,318;  265,725;32846,235;22,84370
 576,10; 7835,609;  308,953;33440,563;22,71745
 576,68; 7935,534;  288,870;33975,623;22,69932
 577,26; 8009,711;  309,574;34699,026;22,39099
 577,84; 8061,412;  315,943;35186,679;22,21195
 578,42; 8112,109;  350,873;35502,631;22,07922
 579,00; 8048,614;  290,252;35667,901;21,93012
 579,58; 8111,731;  329,718;35955,711;21,84364
 580,16; 8039,961;  305,028;35934,796;21,70919
 580,74; 8061,665;  303,875;36128,711;21,65478
 581,32; 8072,728;  300,872;36230,094;21,63101
 581,90; 7968,336;  327,182;36174,629;21,31576
 582,48; 7987,978;  327,798;36293,768;21,29841
 583,06; 7983,391;  317,718;36487,822;21,19339
 583,64; 7941,994;  308,871;36568,753;21,05115
 584,22; 7841,540;  320,649;36441,638;20,82139
 584,80; 7774,136;  320,258;36211,539;20,76793
 585,38; 7641,020;  324,553;35778,495;20,63654
 585,96; 7583,005;  299,253;35838,913;20,49471
 586,54; 7560,755;  319,802;35884,305;20,36006
 587,12; 7522,860;  300,568;36082,359;20,18426
 587,70; 7565,248;  326,331;36191,135;20,18390
 588,28; 7483,175;  305,568;36305,241;19,93798
 588,86; 7471,970;  315,031;36369,510;19,85034
 589,44; 7441,013;  297,962;36510,054;19,72559
 590,02; 7447,164;  307,114;36686,583;19,62659
 590,59; 7403,976;  285,802;36964,214;19,40699
 591,17; 7409,902;  298,047;37099,676;19,32484
 591,75; 7361,431;  289,503;37335,237;19,08972
 592,33; 7416,128;  309,655;37533,493;19,09119
 592,91; 7372,857;  272,199;37770,302;18,93605
 593,49; 7404,108;  276,587;38115,931;18,83627
 594,07; 7380,945;  285,510;38350,610;18,64026
 594,65; 7382,434;  301,418;38358,213;18,60644
 595,23; 7418,273;  307,960;38870,395;18,43845
 595,81; 7355,916;  283,500;38835,566;18,34510
 596,39; 7328,432;  271,577;38992,460;18,22493
 596,97; 7376,899;  305,198;39202,896;18,18026
 597,55; 7302,923;  285,497;39101,230;18,07882
 598,12; 7235,597;  272,973;39094,948;17,93475
 598,70; 7169,352;  269,431;39324,222;17,66728
 599,28; 7231,557;  292,662;39457,523;17,71715
 599,86; 7158,717;  276,815;39468,964;17,55939
 600,44; 7118,275;  251,740;39539,023;17,47776
 601,02; 7184,026;  308,287;39632,593;17,48471
 601,60; 7079,364;  285,734;39636,789;17,26416
 602,18; 7050,697;  254,434;39624,823;17,26237
 602,75; 6963,520;  259,269;39722,651;16,98854
 603,33; 6999,977;  276,046;39733,774;17,04085
 603,91; 6914,144;  263,669;39629,278;16,89413
 604,49; 6907,825;  287,354;39768,137;16,76884
 605,07; 6847,823;  289,734;39779,503;16,60706
 605,65; 6864,254;  293,279;39876,357;16,60047
 606,23; 6857,749;  322,032;39961,370;16,48796
 606,80; 6798,101;  339,115;40031,476;16,27262
 607,38; 6745,873;  361,129;40020,091;16,09912
 607,96; 6705,476;  396,345;40120,463;15,88237
 608,54; 6725,066;  436,971;40132,952;15,84063
 609,12; 6639,845;  423,730;40212,084;15,62295
 609,70; 6657,886;  447,584;40164,958;15,63624
 610,27; 6597,087;  446,960;40221,891;15,46232
 610,85; 6590,405;  452,660;40361,469;15,37942
 611,43; 6548,642;  453,661;40190,327;15,33843
 612,01; 6414,861;  428,579;39938,834;15,15121
 612,59; 6410,330;  437,122;40005,832;15,09579
 613,16; 6359,882;  400,803;40000,582;15,04826
 613,74; 6340,798;  391,816;39860,382;15,07271
 614,32; 6309,974;  378,203;39818,573;15,03985
 614,90; 6242,164;  368,735;39740,501;14,91787
 615,48; 6204,402;  336,420;39404,202;15,02000
 616,05; 6139,347;  326,033;39490,968;14,84316
 616,63; 6075,370;  335,569;39351,965;14,71125
 617,21; 6005,070;  332,883;39185,457;14,59926
 617,79; 5989,040;  313,578;39065,963;14,64545
 618,36; 5914,019;  330,580;39125,867;14,39206
 618,94; 5811,465;  261,959;38822,725;14,39159
 619,52; 5794,041;  292,032;38375,453;14,44726
 620,10; 5731,547;  285,269;38330,713;14,31519
 620,67; 5695,037;  295,723;38250,497;14,22565
 621,25; 5655,269;  306,350;38026,894;14,18039
 621,83; 5632,021;  298,651;38062,774;14,12285
 622,41; 5598,694;  328,959;38049,670;13,97040
 622,98; 5553,052;  308,800;37788,029;13,99242
 623,56; 5479,346;  314,030;37795,674;13,78092
 624,14; 5444,153;  289,659;37659,464;13,79320
 624,72; 5395,875;  301,805;37544,194;13,67815
 625,29; 5342,475;  282,799;37675,744;13,53110
 625,87; 5374,920;  326,270;37619,830;13,53759
 626,45; 5286,365;  279,259;37344,439;13,50892
 627,02; 5240,453;  287,732;37357,465;13,36055
 627,60; 5165,342;  271,817;37247,702;13,23437
 628,18; 5147,307;  253,730;37361,161;13,18759
 628,76; 5146,910;  261,724;37356,021;13,16964
 629,33; 5146,857;  296,726;37384,113;13,07757
 629,91; 5147,855;  278,346;37340,329;13,13882
 630,49; 5164,414;  296,956;37449,416;13,10131
 631,06; 5179,939;  287,340;37625,831;13,10337
 631,64; 5113,069;  293,568;37572,200;12,92832
 632,22; 5018,668;  254,949;37478,527;12,79758
 632,79; 5084,181;  288,257;37824,059;12,77693
 633,37; 5144,504;  277,349;37826,435;12,96211
 633,95; 5064,090;  270,644;37963,712;12,71705
 634,52; 5076,558;  272,189;38068,796;12,71111
 635,10; 5063,697;  282,499;38029,680;12,66637
 635,68; 5107,762;  274,949;38237,268;12,73055
 636,25; 5053,063;  266,637;38241,039;12,60435
 636,83; 5038,449;  254,878;38432,405;12,52981
 637,41; 5044,858;  251,487;38505,802;12,53028
 637,98; 5064,112;  285,409;38627,908;12,46320
 638,56; 5041,670;  273,867;38771,280;12,38474
 639,13; 5017,819;  265,800;38871,974;12,30896
 639,71; 5066,641;  311,878;39154,614;12,24106
 640,29; 4952,115;  246,955;38826,648;12,19595
 640,86; 4986,062;  252,032;38988,317;12,22118
 641,44; 4993,162;  253,417;38967,062;12,24309
 642,02; 4986,725;  276,341;38914,962;12,19087
 642,59; 4997,287;  253,879;39161,323;12,19152
 643,17; 4977,926;  263,110;39098,531;12,14050
 643,74; 4981,181;  249,111;39141,738;12,16701
 644,32; 4947,436;  286,649;39185,253;11,98189
 644,89; 4951,536;  280,649;39099,692;12,03246
 645,47; 4935,791;  291,111;39116,437;11,96302
 646,05; 4894,353;  286,111;39135,414;11,86184
 646,62; 4892,685;  264,189;39107,852;11,91570
 647,20; 4925,016;  269,497;39209,444;11,95564
 647,77; 4869,733;  249,804;39035,729;11,91135
 648,35; 4832,526;  245,420;39003,398;11,83526
 648,92; 4835,319;  272,651;39009,682;11,77857
 649,50; 4818,343;  234,882;38843,966;11,87146
 650,08; 4782,828;  246,882;38764,251;11,77636
 650,65; 4819,236;  238,036;39112,535;11,78459
 651,23; 4873,876;  220,421;39827,512;11,74904
 651,80; 4956,207;  233,729;40797,488;11,64211
 652,38; 4995,077;  246,499;41191,465;11,59747
 652,95; 5034,870;  227,268;41534,057;11,63877
 653,53; 5101,971;  255,961;41894,187;11,63837
 654,10; 5104,380;  281,576;41945,318;11,57554
 654,68; 5077,096;  241,577;41909,064;11,60502
 655,25; 5069,350;  238,192;41917,579;11,59124
 655,83; 5063,297;  237,423;42057,709;11,53955
 656,40; 5071,860;  264,500;42034,840;11,50903
 656,98; 5045,191;  239,270;41918,278;11,53080
 657,55; 5061,523;  252,347;41811,332;11,57193
 658,13; 4950,316;  241,116;41390,693;11,44410
 658,70; 4970,878;  266,270;41249,977;11,47921
 659,28; 4834,133;  236,501;40241,339;11,49269
 659,85; 4728,926;  255,040;39406,315;11,42718
 660,43; 4765,488;  261,887;39494,676;11,47918
 661,00; 4720,820;  240,502;39551,730;11,39704
 661,58; 4764,305;  237,810;40107,784;11,35314
 662,15; 4762,714;  226,503;40183,453;11,35275
 662,73; 4868,968;  300,272;40518,660;11,35972
 663,30; 4847,146;  244,042;40675,406;11,38498
 663,88; 4889,016;  254,965;40897,306;11,40203
 664,45; 4876,348;  244,734;41079,282;11,34239
 665,03; 4907,218;  242,658;41416,797;11,32886
 665,60; 5005,703;  323,504;41846,697;11,27611
 666,17; 4977,188;  247,658;41960,520;11,33830
 666,75; 5027,135;  249,735;42413,650;11,33054
 667,32; 5085,698;  268,505;42639,396;11,36911
 667,90; 5086,952;  244,582;42979,604;11,33115
 668,47; 5132,899;  273,274;43192,888;11,32262
 669,05; 5171,308;  237,582;43631,019;11,36975
 669,62; 5118,178;  231,583;43641,611;11,25683
 670,19; 5147,586;  232,198;43783,433;11,28645
 670,77; 5213,918;  248,198;43903,025;11,37496
 671,34; 5203,403;  243,353;43823,310;11,38149
 671,92; 5241,042;  231,737;44287,748;11,37031
 672,49; 5234,220;  258,738;44173,340;11,32990
 673,06; 5218,475;  215,507;44343,470;11,33741
 673,64; 5256,652;  232,661;44171,293;11,43411
 674,21; 5238,830;  220,046;44244,347;11,40003
 674,79; 5288,315;  250,508;44513,323;11,38158
 675,36; 5303,955;  260,585;44484,223;11,40424
 675,93; 5269,979;  219,508;44374,123;11,43815
 676,51; 5328,002;  256,816;44710,176;11,40788
 677,08; 5315,334;  241,124;44763,692;11,39694
 677,65; 5347,050;  250,047;44833,976;11,43238
 678,23; 5378,843;  253,509;45032,876;11,44575
 678,80; 5349,406;  240,971;45153,160;11,37427
 679,38; 5386,891;  240,048;45315,367;11,41832
 679,95; 5436,761;  241,510;45585,344;11,45746
 680,52; 5453,400;  246,664;45759,705;11,44010
 681,10; 5560,270;  255,126;46247,374;11,53487
 681,67; 5550,679;  254,664;46474,505;11,45831
 682,24; 5605,472;  234,126;46637,789;11,57526
 682,82; 5633,342;  238,050;47233,381;11,48049
 683,39; 5780,596;  280,973;47459,127;11,65714
 683,96; 5759,159;  245,665;47797,719;11,59465
 684,54; 5802,875;  227,589;48127,234;11,63951
 685,11; 5861,053;  269,666;48378,288;11,62242
 685,68; 5899,000;  246,358;48929,495;11,61109
 686,25; 5909,793;  229,436;49081,164;11,62775
 686,83; 5951,816;  244,897;49196,602;11,65826
 687,40; 5993,763;  219,205;49533,271;11,70976
 687,97; 6081,480;  269,667;49965,556;11,69476
 688,55; 6071,427;  222,129;49932,071;11,76686
 689,12; 6100,066;  214,206;50320,663;11,74671
 689,69; 6142,474;  222,899;50349,716;11,80920
 690,26; 6173,037;  246,130;50497,462;11,79453
 690,84; 6204,291;  245,361;50658,285;11,82024
 691,41; 6227,777;  248,822;50775,800;11,83319
 691,98; 6233,185;  254,823;51050,469;11,76944
 692,56; 6292,901;  233,284;51139,369;11,90352
 693,13; 6322,925;  283,592;51161,576;11,87023
 693,70; 6342,257;  266,823;51358,245;11,89130
 694,27; 6344,896;  254,285;51426,453;11,90219
 694,84; 6353,766;  234,131;51492,583;11,93878
 695,42; 6480,559;  288,362;51602,791;12,06716
 695,99; 6445,814;  251,132;51901,229;11,99355
 696,56; 6426,299;  233,747;51796,052;12,00984
 697,13; 6568,554;  253,594;52059,182;12,18973
 697,71; 6528,654;  221,517;52124,466;12,15179
 698,28; 6607,063;  241,825;52567,212;12,16472
 698,85; 6613,779;  218,672;52430,573;12,24837
 699,42; 6670,341;  217,903;52602,627;12,31741
 699,99; 6749,981;  269,364;52899,758;12,31345
 700,57; 6773,466;  250,288;52759,427;12,42294
 701,14; 6782,413;  239,903;52950,788;12,41207
 701,71; 6868,129;  251,057;53144,841;12,51011
 702,28; 6935,230;  249,750;53175,587;12,63179
 702,85; 6920,715;  240,212;53278,641;12,59559
 703,43; 6966,662;  267,981;53533,464;12,57603
 704,00; 7028,301;  279,366;53798,363;12,61035
 704,57; 7046,787;  251,674;53675,417;12,71928
 705,14; 7112,426;  272,597;54065,932;12,71501
 705,71; 7132,604;  271,290;54061,216;12,75576
 706,28; 7158,781;  252,367;53901,808;12,87323
 706,86; 7204,882;  276,752;54297,400;12,82497
 707,43; 7235,368;  300,598;54147,300;12,87873
 708,00; 7218,007;  264,060;54117,123;12,91282
 708,57; 7246,415;  243,675;54126,561;12,99622
 709,14; 7298,132;  272,599;54215,230;13,02408
 709,71; 7318,155;  248,830;54312,438;13,07594
 710,28; 7320,948;  264,445;54427,876;13,02817
 710,86; 7386,511;  265,676;54698,083;13,08198
 711,43; 7428,919;  280,061;54701,983;13,13599
 712,00; 7462,405;  256,600;54690,575;13,23770
 712,57; 7505,121;  265,293;54991,705;13,22913
 713,14; 7521,991;  255,216;55000,451;13,27380
 713,71; 7548,630;  266,831;54936,505;13,31963
 714,28; 7565,115;  265,601;54977,558;13,34172
 714,85; 7574,986;  241,524;54659,535;13,47617
 715,42; 7634,394;  249,140;55004,127;13,48782
 716,00; 7683,341;  311,140;55111,181;13,45291
 716,57; 7718,442;  262,602;55229,773;13,56417
 717,14; 7692,466;  249,217;55154,826;13,55644
 717,71; 7764,259;  234,987;55096,957;13,72403
 718,28; 7869,206;  280,449;55273,164;13,79957
 718,85; 7862,999;  247,218;55374,218;13,81497
 719,42; 7942,638;  269,449;55454,810;13,90439
 719,99; 7909,354;  247,219;55223,709;13,93711
 720,56; 7990,378;  264,988;55553,840;13,97278
 721,13; 8075,556;  241,296;55688,124;14,12932
 721,70; 8036,426;  248,835;55484,255;14,09891
 722,27; 8141,450;  273,912;55549,770;14,23323
 722,84; 8205,781;  306,374;55677,900;14,26619
 723,41; 8250,959;  240,835;55715,569;14,43923
 723,98; 8314,675;  266,682;55931,161;14,45804
 724,55; 8373,160;  283,144;55921,215;14,54043
 725,12; 8306,261;  221,836;55925,192;14,51335
 725,69; 8443,131;  253,221;56131,091;14,65680
 726,27; 8520,386;  266,606;56193,145;14,75825
 726,84; 8633,179;  269,298;56558,891;14,85866
 727,41; 8629,818;  274,683;56495,175;14,86137
 727,98; 8747,919;  272,376;56762,306;15,00364
 728,55; 8825,558;  296,068;56619,205;15,14385
 729,12; 8822,428;  239,607;56799,951;15,17463
 729,69; 8875,606;  279,376;57065,620;15,13787
 730,26; 8898,553;  276,069;57301,443;15,12043
 730,82; 8967,730;  272,069;57015,958;15,32440
 731,39; 9008,370;  263,608;57200,396;15,35872
 731,96; 9103,701;  251,454;57379,758;15,49538
 732,53; 9194,340;  265,455;57658,119;15,55754
 733,10; 9255,672;  274,609;57655,326;15,65171
 733,67; 9325,927;  271,455;57940,841;15,70066
 734,24; 9280,335;  251,994;57573,126;15,75046
 734,81; 9348,897;  285,456;57668,949;15,79451
 735,38; 9316,767;  270,840;57484,925;15,81066
 735,95; 9398,099;  271,148;57348,594;15,99047
 736,52; 9414,431;  277,610;57559,878;15,95052
 737,09; 9395,454;  265,918;57244,547;16,02274
 737,66; 9501,940;  307,072;57340,678;16,12184
 738,23; 9567,656;  259,534;57458,193;16,27332
 738,80; 9702,064;  314,919;57686,631;16,36198
 739,37; 9721,704;  294,150;57997,146;16,33807
 739,94; 9781,881;  266,765;58021,969;16,47491
 740,51; 9921,751;  361,073;58162,869;16,54045
 741,07; 9882,237;  257,304;57969,230;16,67755
 741,64; 9989,491;  299,458;58260,591;16,71816
 742,21;10049,131;  268,459;58352,491;16,83883
 742,78;10065,924;  238,074;58040,006;17,00263
 743,35;10127,409;  267,921;58393,598;16,96236
 743,92;10277,895;  293,382;58500,806;17,15333
 744,49;10290,534;  272,075;58297,244;17,26571
 745,06;10303,019;  262,537;58309,990;17,29703
 745,63;10374,582;  246,922;58349,813;17,43056
 746,19;10443,913;  260,537;58279,174;17,55190
 746,76;10413,475;  260,614;58369,227;17,47221
 747,33;10570,653;  256,307;58286,589;17,77408
 747,90;10654,831;  280,384;58549,027;17,80451
 748,47;10645,547;  276,615;58454,850;17,82270
 749,04;10706,648;  273,000;58474,596;17,92674
 749,61;10768,672;  287,308;58464,495;18,01628
 750,17;10831,311;  285,693;58499,856;18,11521
 750,74;10884,027;  274,001;58413,910;18,24913
 751,31;10885,051;  257,078;58361,194;18,29126
 751,88;10907,229;  231,463;58242,479;18,40300
 752,45;10991,329;  261,617;58344,071;18,47324
 753,02;11039,199;  282,848;58210,355;18,56864
 753,58;11044,300;  249,232;58226,639;18,61944
 754,15;11153,786;  258,617;58347,616;18,75599
 754,72;11111,040;  247,156;58025,824;18,80259
 755,29;11129,910;  241,156;57871,723;18,89406
 755,86;11195,011;  262,387;58023,931;18,92717
 756,42;11254,419;  267,311;57938,600;19,05126
 756,99;11228,366;  228,388;57931,653;19,06301
 757,56;11317,313;  235,003;57765,245;19,26345
 758,13;11301,568;  200,234;57725,068;19,29833
 758,70;11394,207;  227,773;57822,122;19,38807
 759,26;11474,616;  223,696;57884,329;19,51231
 759,83;11563,716;  234,543;57974,152;19,62115
 760,40;11609,740;  219,928;57712,590;19,81090
 760,97;11643,149;  197,774;57783,567;19,87534
 761,53;11614,711;  193,697;57436,697;19,95181
 762,10;11680,966;  196,544;57388,905;20,08034
 762,67;11776,990;  229,313;57454,112;20,17950
 763,24;11727,783;  189,852;56929,781;20,33476
 763,80;11862,114;  228,314;57080,835;20,46312
 764,37;11853,753;  218,929;57096,119;20,45605
 764,94;11783,393;  215,391;56619,172;20,50927
 765,50;11891,417;  216,314;56701,841;20,66919
 766,07;11979,056;  252,622;56651,433;20,79199
 766,64;11958,080;  230,776;56431,872;20,86668
 767,21;12012,950;  225,777;56265,618;21,03356
 767,77;12111,435;  250,315;56115,825;21,23156
 768,34;12088,228;  239,239;56116,109;21,20554
 768,91;12145,867;  255,162;55937,317;21,35461
 769,47;12209,968;  245,008;55948,909;21,47957
 770,04;12256,684;  262,855;55841,962;21,57974
 770,61;12280,247;  240,086;55658,939;21,72575
 771,18;12325,963;  231,932;55498,454;21,88310
 771,74;12433,371;  246,932;55584,123;22,02215
 772,31;12400,934;  247,317;55284,253;22,08265
 772,88;12420,573;  225,471;55091,615;22,22701
 773,44;12436,289;  228,471;55019,130;22,28084
 774,01;12536,544;  246,010;55033,953;22,43292
 774,58;12507,952;  234,549;54714,775;22,52818
 775,14;12569,591;  230,703;54775,598;22,62153
 775,71;12622,769;  238,395;54690,421;22,74364
 776,27;12689,716;  283,857;54724,475;22,78787
 776,84;12815,740;  308,165;54764,067;22,96826
 777,41;12800,687;  245,165;54464,966;23,15671
 777,97;12725,403;  244,550;54181,635;23,13965
 778,54;12813,504;  259,012;54240,381;23,25708
 779,11;12882,681;  268,551;54182,666;23,39671
 779,67;12887,321;  228,166;54092,642;23,50186
 780,24;12900,114;  251,936;53933,388;23,56154
 780,80;13040,599;  269,013;53984,749;23,77625
 781,37;13056,238;  254,859;53989,264;23,82343
 781,94;13077,185;  246,783;53653,703;24,02386
 782,50;13083,055;  257,091;53683,833;24,00664
 783,07;13186,002;  281,937;53762,964;24,12831
 783,63;13202,795;  240,860;53436,556;24,36651
 784,20;13271,127;  273,399;53488,686;24,42480
 784,77;13298,151;  256,553;53280,586;24,59564
 785,33;13301,559;  229,784;52997,332;24,77238
 785,90;13355,199;  253,015;53002,078;24,83870
 786,46;13406,453;  269,861;52896,439;24,96190
 787,03;13446,323;  242,092;52744,339;25,14984
 787,59;13510,039;  248,631;52615,315;25,32413
 788,16;13476,602;  258,478;52575,292;25,26554
 788,73;13541,318;  265,401;52391,576;25,46881
 789,29;13436,726;  244,786;51910,014;25,53350
 789,86;13565,519;  267,171;51898,222;25,75649
 790,42;13533,697;  257,094;51859,737;25,72853
 790,99;13504,182;  272,479;51447,944;25,85556
 791,55;13534,206;  245,633;51501,152;25,92613
 792,12;13549,153;  265,556;51433,359;25,96085
 792,68;13524,716;  254,556;51144,874;26,07600
 793,25;13575,663;  265,941;50834,543;26,32013
 793,81;13602,917;  309,249;50529,058;26,47096
 794,38;13560,403;  217,557;50328,112;26,62682
 794,94;13516,196;  244,173;50104,243;26,61854
 795,51;13593,296;  257,788;49860,681;26,88454
 796,07;13478,320;  260,789;49633,504;26,77092
 796,64;13608,729;  264,712;49687,480;26,99974
 797,20;13535,368;  258,558;49121,303;27,17164
 797,77;13448,084;  229,328;48871,664;27,17541
 798,33;13502,723;  241,866;48671,641;27,38162
 798,90;13570,132;  274,636;48687,771;27,46258
 799,46;13442,848;  246,251;48125,363;27,56233
 800,03;13497,487;  270,790;48025,109;27,69738
 800,59;13596,588;  272,713;47941,624;27,95087
 801,15;13572,612;  258,175;47589,524;28,13027
 801,72;13551,636;  252,406;47287,732;28,27498
 802,28;13514,737;  285,560;46983,631;28,32917
 802,85;13489,683;  249,330;46889,300;28,38843
 803,41;13519,169;  246,561;46712,892;28,56393
 803,98;13453,270;  249,484;46328,330;28,65477
 804,54;13411,832;  249,946;46006,846;28,76481
 805,11;13412,240;  258,485;45810,130;28,87658
 805,67;13482,649;  272,100;45752,414;29,04674
 806,23;13385,827;  262,408;45267,006;29,16017
 806,80;13409,235;  275,562;45117,444;29,28885
 807,36;13435,721;  282,793;45013,267;29,40485
 807,93;13446,591;  286,024;44813,321;29,55618
 808,49;13287,461;  245,640;44510,144;29,46338
 809,05;13297,561;  234,640;44363,505;29,60176
 809,62;13380,585;  270,410;44212,405;29,83519
 810,18;13369,455;  263,871;44157,151;29,85784
 810,74;13299,787;  232,025;43883,896;29,93631
 811,31;13301,888;  245,872;43546,335;30,15214
 811,87;13339,834;  256,564;43534,004;30,23116
 812,44;13383,012;  283,949;43399,288;30,38145
 813,00;13282,651;  209,719;43112,880;30,47079
 813,56;13440,521;  260,950;43217,010;30,68152
 814,13;13468,853;  259,565;43157,449;30,79240
 814,69;13514,338;  251,719;42808,348;31,16464
 815,25;13383,362;  229,104;42601,479;31,04442
 815,82;13504,232;  275,335;42334,840;31,45281
 816,38;13523,487;  298,182;42184,817;31,57405
 816,94;13429,049;  235,490;41865,486;31,69244
 817,51;13404,535;  226,644;41713,001;31,76440
 818,07;13365,097;  242,105;41376,747;31,90253
 818,63;13367,813;  265,336;41247,262;31,97135
 819,20;13361,068;  249,798;41189,777;32,02559
 819,76;13277,707;  235,414;40615,138;32,29911
 820,32;13235,500;  268,952;40609,961;32,14235
 820,89;13306,447;  270,799;40403,553;32,48132
 821,45;13170,163;  233,338;40010,145;32,52354
 822,01;13170,110;  273,876;39788,660;32,63648
 822,57;13187,134;  267,107;39675,791;32,78472
 823,14;13145,312;  238,415;39514,075;32,86233
 823,70;13124,643;  241,108;39247,282;33,02948
 824,26;13107,359;  235,262;39008,797;33,19815
 824,82;13114,460;  257,570;38887,005;33,28263
 825,39;13105,792;  239,647;38619,828;33,52289
 825,95;13201,969;  261,878;38651,958;33,70686
 826,51;13098,916;  258,340;38153,550;33,88443
 827,08;13139,940;  278,417;38206,065;33,91068
 827,64;13144,579;  257,186;38029,657;34,11848
 828,20;13092,142;  242,956;37724,249;34,28160
 828,76;13184,166;  273,494;37724,072;34,47389
 829,32;13236,651;  275,879;37573,895;34,74923
 829,89;13211,059;  234,187;37475,256;34,84560
 830,45;13226,314;  253,572;37367,925;34,95344
 831,01;13270,799;  241,188;37192,517;35,26155
 831,57;13233,131;  252,188;37083,494;35,24432
 832,14;13270,386;  246,496;37046,163;35,39133
 832,70;13287,871;  233,111;36757,370;35,74271
 833,26;13239,049;  214,189;36663,808;35,73387
 833,82;13284,073;  238,343;36525,016;35,95185
 834,38;13362,789;  233,804;36584,069;36,11799
 834,95;13360,966;  234,882;36441,892;36,25288
 835,51;13344,452;  205,343;36314,946;36,38674
 836,07;13370,553;  243,190;36355,615;36,35137
 836,63;13487,115;  262,882;36381,668;36,61317
 837,19;13439,216;  247,421;36206,645;36,68543
 837,75;13333,163;  215,421;35942,391;36,71664
 838,32;13532,263;  258,268;36010,829;37,12740
 838,88;13552,210;  257,499;36027,575;37,16713
 839,44;13580,003;  251,499;35891,705;37,39738
 840,00;13617,643;  248,961;35852,067;37,54920
 840,56;13530,205;  224,422;35544,428;37,67209
 841,12;13613,306;  231,346;35616,482;37,81803
 841,68;13541,560;  218,654;35367,151;37,90463
 842,25;13629,738;  231,039;35432,358;38,06306
 842,81;13587,839;  224,193;35091,796;38,32683
 843,37;13724,863;  205,270;35087,311;38,75803
 843,93;13677,810;  234,885;35064,749;38,59597
 844,49;13770,987;  240,578;35030,880;38,89133
 845,05;13696,550;  202,040;34888,395;38,90438
 845,61;13852,727;  253,809;34860,756;39,29534
 846,17;13802,444;  233,040;34734,348;39,33011
 846,73;13832,544;  242,810;34729,863;39,40532
 847,29;13798,722;  215,733;34468,763;39,65485
 847,86;13856,361;  221,118;34521,817;39,75209
 848,42;13799,847;  208,580;34236,024;39,94207
 848,98;13803,101;  241,811;34193,924;39,94241
 849,54;13866,125;  228,965;34233,670;40,10375
 850,10;13866,380;  237,734;34080,108;40,27095
 850,66;13878,865;  216,734;33874,469;40,59136
 851,22;13881,889;  212,504;33864,061;40,62036
 851,78;13959,990;  268,043;33891,807;40,72104
 852,34;13894,937;  237,274;33624,938;40,90632
 852,90;13903,653;  226,889;33522,991;41,07617
 853,46;13829,061;  218,120;33292,583;41,15242
 854,02;13849,008;  234,274;33293,791;41,18250
 854,58;13809,955;  221,659;32997,075;41,45881
 855,14;13805,672;  221,736;32969,359;41,48068
 855,70;13722,695;  196,121;32805,721;41,48034
 856,26;13753,258;  242,275;32805,159;41,49197
 856,82;13709,512;  229,429;32524,905;41,73985
 857,38;13758,305;  246,276;32449,035;41,95923
 857,94;13695,791;  240,430;32373,473;41,87391
 858,50;13629,045;  249,661;32173,527;41,91029
 859,06;13642,454;  224,892;32001,965;42,22403
 859,62;13651,170;  242,969;31978,326;42,25004
 860,18;13544,271;  227,738;31700,841;42,31083
 860,74;13572,064;  195,431;31622,280;42,56435
 861,30;13632,626;  207,893;31446,333;42,97504
 861,86;13625,650;  260,124;31459,925;42,83850
 862,42;13557,443;  226,662;31272,133;42,93954
 862,98;13662,467;  253,047;31308,571;43,17886
 863,54;13581,952;  233,971;31118,394;43,21914
 864,10;13648,361;  223,202;31050,293;43,54987
 864,66;13566,923;  208,202;30911,809;43,50864
 865,22;13652,870;  230,510;30695,324;44,05857
 865,78;13586,894;  229,895;30639,608;43,92346
 866,34;13640,149;  226,664;30513,200;44,28861
 866,90;13649,557;  236,895;30375,023;44,50397
 867,45;13660,427;  230,818;30249,076;44,73814
 868,01;13620,836;  235,511;30036,976;44,91499
 868,57;13655,167;  226,434;29866,799;45,30556
 869,13;13657,345;  211,204;29736,391;45,54126
 869,69;13689,369;  215,512;29661,214;45,75832
 870,25;13605,162;  209,512;29513,113;45,71332
 870,81;13701,186;  218,974;29522,167;46,00936
 871,37;13683,133;  225,974;29387,682;46,14668
 871,93;13637,080;  233,436;29172,197;46,31727
 872,49;13570,719;  253,897;29027,866;46,28079
 873,04;13538,897;  212,513;28819,304;46,58468
 873,60;13548,843;  219,667;28684,666;46,82655
 874,16;13514,252;  236,206;28544,181;46,90567
 874,72;13482,713;  222,437;28517,873;46,86366
 875,28;13437,637;  226,052;28424,873;46,85155
 875,84;13508,098;  226,590;28321,873;47,27309
 876,40;13416,252;  220,513;28379,412;46,86170
 876,95;13569,175;  239,129;28235,104;47,61415
 877,51;13506,713;  260,052;28329,873;47,19183
 878,07;13514,175;  269,744;28231,488;47,36625
 878,63;13559,329;  228,283;28280,027;47,52306
 879,19;13612,329;  235,898;28263,258;47,72633
 879,75;13628,098;  226,590;28335,642;47,67684
 880,30;13675,867;  230,821;28199,027;48,07261
 880,86;13887,713;  267,821;28385,488;48,43891
 881,42;13878,098;  216,667;28452,104;48,38399
 881,98;13935,252;  240,898;28461,335;48,52637
 882,54;13999,483;  224,744;28577,719;48,58304
 883,09;14188,252;  238,513;28735,488;48,95165
 883,65;14266,329;  214,283;28770,335;49,20864
 884,21;14462,175;  256,206;28987,565;49,44412
 884,77;14511,175;  221,360;28983,104;49,68341
 885,32;14658,483;  230,975;29187,642;49,82448
 885,88;14793,560;  259,283;29262,335;50,11292
 886,44;14954,252;  237,513;29484,642;50,31857
 887,00;15059,867;  254,360;29404,412;50,79067
 887,56;15183,406;  231,437;29648,488;50,82756
 888,11;15224,867;  236,360;29552,412;51,12731
 888,67;15363,175;  264,206;29822,412;51,08216
 889,23;15439,790;  237,667;29833,873;51,36511
 889,79;15407,483;  214,360;29723,027;51,48698
 890,34;15424,021;  239,360;29613,258;51,69440
 890,90;15587,637;  302,975;29761,181;51,88592
 891,46;15573,560;  225,667;29652,104;52,15682
 892,01;15679,867;  252,975;29674,104;52,43474
 892,57;15665,406;  252,821;29550,335;52,60714
 893,13;15542,560;  233,283;29317,873;52,63707
 893,69;15611,329;  227,129;29388,719;52,75501
 894,24;15631,790;  236,667;29281,335;53,00499
 894,80;15607,713;  231,052;29059,104;53,33923
 895,36;15515,329;  230,129;28942,873;53,23490
 895,91;15425,175;  231,206;28773,719;53,23277
 896,47;15527,560;  258,975;28624,412;53,82813
 897,03;15386,713;  220,667;28386,335;53,84586
 897,58;15465,790;  238,821;28392,488;54,08521
 898,14;15435,021;  239,975;28132,565;54,47700
 898,70;15319,021;  209,667;27967,642;54,43248
 899,25;15397,483;  228,129;27958,719;54,70260
 899,81;15364,713;  250,590;27772,104;54,91749
 900,37;15257,790;  217,437;27573,104;54,98076
 900,92;15413,252;  240,283;27632,719;55,39109
 901,48;15333,867;  224,821;27419,488;55,55886
 902,03;15288,560;  223,513;27255,796;55,72983
 902,59;15309,098;  226,052;27215,412;55,88516
 903,15;15326,713;  256,052;26958,950;56,43830
 903,70;15278,175;  244,052;26687,181;56,85455
 904,26;15229,175;  217,744;26660,335;56,76989
 904,82;15252,944;  236,744;26648,488;56,85425
 905,37;15237,252;  240,052;26469,873;57,17614
 905,93;15144,637;  224,744;26360,104;57,08700
 906,48;15141,867;  239,667;26317,104;57,14595
 907,04;15192,483;  253,898;26173,181;57,63502
 907,60;15069,021;  224,975;25972,873;57,65149
 908,15;15037,021;  218,667;25883,104;57,73886
 908,71;15061,021;  250,513;25858,335;57,83588
 909,26;15063,021;  213,283;25706,950;58,24873
 909,82;15015,021;  257,437;25599,796;58,23288
 910,37;15014,790;  268,052;25525,796;58,38502
 910,93;14986,406;  219,744;25226,335;59,05108
 911,48;14911,021;  208,513;25048,181;59,18963
 912,04;14853,329;  216,590;24939,950;59,20206
 912,60;14936,406;  242,206;25022,488;59,29795
 913,15;14837,867;  235,975;24808,104;59,42461
 913,71;14714,637;  226,360;24581,642;59,48720
 914,26;14690,406;  204,360;24588,950;59,40656
 914,82;14735,175;  234,975;24467,873;59,83684
 915,37;14653,406;  226,898;24384,950;59,71718
 915,93;14692,790;  277,129;24278,258;60,06243
 916,48;14583,560;  216,283;24113,488;60,12116
 917,04;14524,021;  239,590;24033,642;60,03362
 917,59;14541,944;  254,129;23937,412;60,32870
 918,15;14416,790;  206,206;23718,181;60,43977
 918,70;14425,944;  226,283;23675,335;60,55538
 919,26;14432,867;  229,667;23483,565;61,07879
 919,81;14373,098;  212,975;23370,412;61,14720
 920,37;14432,790;  233,283;23301,335;61,55486
 920,92;14396,021;  241,975;23216,796;61,60677
 921,48;14283,483;  209,667;22934,027;61,93273
 922,03;14330,098;  218,437;23038,488;61,83887
 922,59;14307,252;  225,821;22863,565;62,20333
 923,14;14277,483;  223,975;22679,488;62,58377
 923,69;14306,252;  244,283;22620,642;62,84297
 924,25;14320,483;  248,513;22641,181;62,84186
 924,80;14199,637;  225,975;22275,796;63,37313
 925,36;14202,790;  219,744;22273,104;63,40551
 925,91;14236,329;  222,052;22124,873;63,98389
 926,47;14185,944;  209,667;22107,181;63,82586
 927,02;14222,637;  269,744;22038,335;64,09644
 927,57;14113,637;  220,975;21821,565;64,31612
 928,13;14062,329;  217,360;21776,642;64,21813
 928,68;14088,944;  221,283;21722,027;64,49852
 929,24;14009,944;  192,821;21528,642;64,76021
 929,79;13977,252;  216,052;21382,335;65,01472
 930,34;13890,867;  216,513;21190,642;65,19629
 930,90;13944,790;  215,898;21257,642;65,24598
 931,45;13949,944;  233,513;21206,719;65,39978
 932,01;13871,637;  231,360;21068,950;65,45995
 932,56;13860,944;  244,513;20865,642;66,03145
 933,11;13832,790;  256,437;20914,258;65,72016
 933,67;13736,175;  216,360;20690,488;66,03365
 934,22;13696,329;  221,283;20578,796;66,19200
 934,77;13663,175;  251,360;20507,642;66,21064
 935,33;13596,252;  233,975;20403,412;66,25013
 935,88;13551,483;  226,590;20301,335;66,37640
 936,43;13500,867;  218,975;20248,181;66,31263
 936,99;13477,790;  225,206;20154,719;66,49728
 937,54;13437,252;  212,513;19992,719;66,85845
 938,09;13363,483;  235,360;19954,412;66,57583
 938,65;13303,329;  230,437;19810,104;66,76769
 939,20;13282,406;  204,129;19720,104;67,01319
 939,75;13224,175;  217,360;19588,488;67,14537
 940,31;13234,790;  214,590;19526,642;67,42008
 940,86;13283,329;  228,744;19496,873;67,75222
 941,41;13316,406;  300,129;19384,873;68,20252
 941,96;13242,252;  217,590;19234,412;68,49021
 942,52;13185,560;  218,898;19187,027;68,36026
 943,07;13150,483;  200,283;19000,335;68,88385
 943,62;13150,483;  210,513;18923,565;69,14943
 944,18;13115,637;  204,667;18843,796;69,26809
 944,73;13101,790;  220,129;18759,181;69,48393
 945,28;13027,560;  200,898;18568,873;69,83166
 945,83;13032,021;  224,975;18574,873;69,79355
 946,39;13031,329;  214,590;18463,565;70,23265
 946,94;13038,790;  239,052;18505,642;70,07185
 947,49;12970,637;  225,590;18264,719;70,65223
 948,04;12932,021;  248,513;18248,181;70,46523
 948,59;12933,329;  237,129;18177,258;70,76984
 949,15;12865,637;  208,898;18127,104;70,63619
 949,70;12792,021;  211,283;18002,412;70,71355
 950,25;12828,252;  243,590;17877,258;71,36724
 950,80;12771,483;  190,129;17786,719;71,49882
 951,36;12738,021;  188,975;17675,027;71,76604
 951,91;12780,329;  236,129;17672,027;71,94467
 952,46;12594,329;  207,821;17485,873;71,68926
 953,01;12656,406;  238,283;17504,565;71,92123
 953,56;12555,713;  203,975;17356,642;72,01060
 954,11;12587,713;  221,283;17362,796;72,14317
 954,67;12533,406;  214,898;17186,104;72,58475
 955,22;12416,944;  202,129;17152,181;72,06359
 955,77;12468,944;  238,437;17072,488;72,65338
 956,32;12454,329;  267,283;16949,796;73,05282
 956,87;12360,175;  207,821;16783,565;73,31408
 957,42;12354,560;  210,206;16742,488;73,45842
 957,98;12338,175;  209,821;16680,873;73,63436
 958,53;12377,790;  240,437;16656,335;73,93658
 959,08;12279,637;  216,283;16515,642;74,01121
 959,63;12215,175;  214,283;16453,335;73,90143
 960,18;12249,098;  226,206;16438,873;74,15740
 960,73;12278,944;  214,513;16331,412;74,85579
 961,28;12211,406;  206,975;16188,027;75,11665
 961,83;12197,483;  241,667;16189,565;74,96797
 962,39;12137,790;  200,129;16034,719;75,38977
 962,94;12109,021;  231,360;16000,950;75,32004
 963,49;12026,252;  214,744;15862,104;75,48563
 964,04;12036,021;  232,052;15809,027;75,77832
 964,59;12037,713;  199,975;15702,950;76,35785
 965,14;11979,252;  234,206;15642,412;76,22592
 965,69;11943,790;  220,129;15507,950;76,68628
 966,24;11949,637;  213,437;15436,719;77,09375
 966,79;11884,021;  231,667;15336,258;77,14445
 967,34;11833,175;  199,052;15212,719;77,49022
 967,89;11794,406;  209,590;15114,104;77,72689
 968,44;11748,713;  226,206;15046,565;77,74783
 968,99;11721,944;  229,052;14984,565;77,88880
 969,55;11650,175;  227,283;14903,027;77,83518
 970,10;11600,713;  230,821;14821,642;77,92497
 970,65;11549,713;  233,513;14703,335;78,20553
 971,20;11490,560;  210,052;14610,488;78,33448
 971,75;11442,483;  201,206;14497,181;78,63246
 972,30;11369,560;  225,898;14445,873;78,36625
 972,85;11371,406;  206,513;14366,796;78,84654
 973,40;11258,175;  204,513;14167,565;79,16365
 973,95;11212,329;  224,360;14185,412;78,70445
 974,50;11216,021;  248,360;14086,950;79,25418
 975,05;11138,790;  224,206;13905,642;79,77660
 975,60;11081,790;  227,667;13878,950;79,50991
 976,15;11067,252;  216,052;13755,950;80,14241
 976,70;11019,713;  212,744;13693,335;80,16688
 977,25;10981,406;  228,667;13616,258;80,31870
 977,80;10917,406;  212,975;13398,565;81,18279
 978,35;10768,944;  231,590;13314,796;80,54107
 978,89;10733,637;  194,667;13252,873;80,70764
 979,44;10732,252;  216,744;13219,796;80,86954
 979,99;10630,560;  206,129;13049,488;81,16592
 980,54;10618,175;  236,513;12988,104;81,41464
 981,09;10554,560;  238,437;12832,565;81,91216
 981,64;10408,329;  231,360;12723,488;81,46705
 982,19;10435,329;  253,667;12714,719;81,70788
 982,74;10296,483;  233,667;12564,565;81,60651
 983,29;10213,252;  209,052;12400,027;82,06235
 983,84;10142,483;  228,513;12303,488;82,10343
 984,39;10112,867;  277,437;12298,181;81,82048
 984,94; 9951,098;  198,129;12154,719;81,56982
 985,49; 9967,175;  248,667;12060,335;82,27888
 986,03; 9856,406;  239,206;11997,796;81,78872
 986,58; 9808,713;  271,360;11828,565;82,52301
 987,13; 9731,329;  228,898;11728,796;82,63057
 987,68; 9656,483;  239,437;11609,335;82,82437
 988,23; 9620,406;  231,821;11558,027;82,89258
 988,78; 9437,175;  215,283;11352,104;82,80543
 989,33; 9390,790;  235,898;11312,181;82,65311
 989,88; 9381,790;  261,975;11214,412;83,26746
 990,42; 9248,713;  220,667;11102,181;82,96682
 990,97; 9192,021;  220,283;10949,027;83,62338
 991,52; 9135,560;  248,975;10915,027;83,31653
 992,07; 9115,867;  256,667;10801,412;84,01531
 992,62; 8946,944;  241,052;10718,873;83,08877
 993,17; 8894,560;  244,590;10596,104;83,56236
 993,71; 8834,329;  236,744;10508,565;83,70068
 994,26; 8724,637;  220,667;10335,950;84,07050
 994,81; 8747,252;  246,129;10295,027;84,59756
 995,36; 8608,867;  235,052;10137,719;84,56121
 995,91; 8578,944;  228,821;10097,335;84,61379
 996,45; 8546,329;  232,513; 9939,719;85,64581
 997,00; 8402,098;  214,129; 9861,565;84,87197
 997,55; 8376,790;  235,513; 9794,335;85,17030
 998,10; 8324,406;  261,590; 9676,488;85,63890
 998,65; 8267,406;  223,975; 9595,027;85,83274
 999,19; 8199,637;  251,283; 9456,412;86,34701
 999,74; 8164,637;  278,975; 9402,104;86,43593
1000,29; 8088,098;  251,821; 9298,950;86,61617
1000,84; 7977,329;  231,744; 9158,950;86,76382
1001,38; 7952,867;  234,129; 9078,796;87,26997
1001,93; 7918,098;  242,437; 9040,335;87,24427
1002,48; 7787,790;  218,129; 8857,104;87,62222
1003,03; 7735,175;  236,052; 8843,104;87,12766
1003,57; 7625,098;  242,667; 8662,719;87,67678
1004,12; 7649,867;  267,052; 8632,565;88,25299
1004,67; 7535,175;  233,052; 8498,412;88,34610
1005,22; 7423,560;  223,437; 8366,565;88,41961
1005,76; 7315,944;  216,206; 8234,027;88,54947
1006,31; 7306,867;  247,283; 8191,796;88,86113
1006,86; 7189,560;  226,744; 8071,488;88,75771
1007,40; 7091,560;  218,590; 7946,335;88,93888
1007,95; 7024,406;  238,437; 7855,027;89,09458
1008,50; 6922,252;  234,360; 7722,488;89,31326
1009,04; 6838,713;  231,513; 7619,181;89,43554
1009,59; 6750,098;  247,744; 7518,027;89,43743
1010,14; 6648,790;  221,360; 7391,488;89,64178
1010,68; 6540,021;  234,283; 7255,873;89,80499
1011,23; 6490,329;  215,590; 7127,412;90,78271
1011,78; 6431,098;  240,129; 7102,796;90,21229
1012,32; 6321,098;  239,821; 7005,104;89,88947
1012,87; 6343,175;  259,206; 6943,412;91,02008
1013,42; 6213,406;  210,360; 6846,796;90,45587
1013,96; 6257,329;  261,360; 6832,565;91,24610
1014,51; 6164,713;  198,667; 6706,412;91,67610
1015,06; 6148,406;  190,360; 6751,488;90,80825
1015,60; 6241,252;  268,975; 6764,488;91,94465
1016,15; 6172,790;  215,052; 6756,335;91,07906
1016,69; 6238,560;  231,437; 6763,719;91,96055
1017,24; 6248,406;  196,283; 6787,796;91,81690
1017,79; 6341,098;  245,744; 6832,796;92,53538
1018,33; 6320,867;  220,821; 6814,104;92,51911
1018,88; 6397,637;  237,744; 6866,104;92,93238
1019,42; 6401,098;  221,437; 6870,104;92,94587
1019,97; 6407,483;  215,437; 6884,873;92,84212
1020,51; 6497,867;  248,206; 6918,335;93,69626
1021,06; 6466,483;  204,590; 6930,642;93,09908
1021,61; 6483,944;  187,898; 6853,258;94,45921
1022,15; 6432,944;  193,437; 6810,796;94,28999
1022,70; 6417,252;  225,206; 6826,950;93,79409
1023,24; 6418,175;  213,975; 6803,335;94,15482
1023,79; 6392,713;  222,898; 6735,258;94,74009
1024,33; 6298,560;  221,513; 6661,950;94,35767
1024,88; 6249,560;  233,437; 6588,873;94,66105
1025,42; 6169,175;  224,360; 6499,950;94,72918
1025,97; 6059,098;  212,898; 6359,719;95,10932
1026,51; 6003,790;  180,360; 6257,873;95,81930
1027,06; 5933,713;  212,129; 6224,027;95,17102
1027,60; 5847,713;  227,437; 6133,565;95,16008
1028,15; 5800,790;  232,052; 6013,565;96,31974
1028,69; 5687,637;  191,206; 5878,642;96,64162
1029,24; 5636,637;  211,129; 5852,181;96,17901
1029,78; 5546,252;  207,437; 5700,258;97,19624
1030,33; 5447,175;  193,360; 5620,796;96,80105
1030,87; 5339,021;  217,744; 5544,412;96,14411
1031,42; 5279,329;  199,513; 5511,565;95,62812
1031,96; 5234,098;  219,206; 5417,181;96,47781
1032,51; 5123,713;  208,898; 5315,412;96,24601
1033,05; 5119,637;  224,821; 5261,565;97,18213
1033,60; 4963,790;  180,590; 5120,796;96,82188
1034,14; 4929,944;  219,206; 5065,642;97,20004
1034,69; 4899,483;  212,898; 5014,873;97,59702
1035,23; 4824,637;  221,437; 4951,873;97,31026
1035,77; 4780,944;  215,590; 4875,335;97,97434
1036,32; 4677,406;  191,206; 4794,950;97,44677
1036,86; 4657,483;  214,667; 4770,719;97,51459
1037,41; 4579,021;  224,360; 4664,796;98,06832
1037,95; 4522,790;  185,513; 4588,642;98,50443
1038,50; 4489,713;  200,283; 4514,027;99,43637
1039,04; 4433,713;  232,667; 4480,642;98,89527
1039,58; 4391,944;  198,052; 4391,950;99,99986
1040,13; 4344,944;  209,821; 4376,412;99,24477
1040,67; 4310,329;  246,283; 4344,258;99,17206
1041,21; 4241,483;  239,975; 4268,412;99,33153
1041,76; 4150,637;  202,590; 4130,027;100,52476
1042,30; 4117,329;  205,360; 4121,488;99,89378
1042,85; 4067,867;  207,360; 4036,796;100,81138
1043,39; 4015,637;  202,052; 3977,719;101,00425
1043,93; 3983,637;  230,129; 3965,719;100,47964
1044,48; 3928,790;  225,744; 3904,335;100,66481
1045,02; 3882,406;  209,590; 3804,258;102,17400
1045,56; 3873,483;  238,744; 3770,642;102,91176
1046,11; 3824,944;  230,590; 3755,873;101,95931
1046,65; 3754,098;  220,206; 3681,719;102,09096
1047,19; 3691,867;  204,975; 3618,412;102,15196
1047,74; 3657,252;  194,667; 3528,873;103,85036
1048,28; 3614,483;  223,206; 3535,412;102,38727
1048,82; 3637,252;  244,744; 3506,181;104,01882
1049,37; 3547,406;  223,975; 3444,642;103,19075
1049,91; 3522,560;  217,821; 3417,335;103,28878
1050,45; 3506,944;  227,590; 3377,719;104,10221
1050,99; 3430,021;  216,744; 3306,873;103,98521
1051,54; 3385,252;  210,975; 3262,335;104,02828
1052,08; 3372,406;  234,590; 3226,796;104,86630
1052,62; 3321,637;  239,283; 3178,642;104,86481
1053,16; 3257,790;  217,437; 3109,335;105,13351
1053,71; 3246,406;  225,667; 3088,027;105,53316
1054,25; 3219,560;  234,129; 3042,104;106,31971
1054,79; 3155,560;  223,821; 2991,258;105,93697
1055,33; 3079,560;  194,975; 2892,873;106,91970
1055,88; 3072,713;  228,590; 2926,796;105,40794
1056,42; 3050,406;  236,821; 2891,027;106,00477
1056,96; 3000,867;  236,898; 2825,873;106,75921
1057,50; 2970,098;  228,129; 2797,796;106,70522
1058,05; 2902,867;  220,052; 2745,796;106,21881
1058,59; 2885,021;  232,590; 2715,719;106,81809
1059,13; 2809,406;  206,206; 2624,642;107,63979
1059,67; 2805,637;  222,052; 2633,719;107,12857
1060,21; 2759,252;  227,437; 2581,181;107,56544
1060,76; 2734,867;  236,667; 2548,950;108,04042
1061,30; 2716,098;  250,513; 2537,565;107,80624
1061,84; 2644,944;  233,513; 2464,181;108,10356
1062,38; 2591,175;  214,821; 2407,796;108,36210
1062,92; 2625,329;  259,513; 2438,796;108,55936
1063,46; 2576,790;  238,206; 2377,873;109,29665
1064,01; 2524,944;  223,590; 2308,719;110,36986
1064,55; 2483,098;  229,437; 2278,181;110,00209
1065,09; 2455,252;  196,744; 2234,027;110,85883
1065,63; 2458,098;  258,898; 2275,642;109,04705
1066,17; 2434,483;  254,975; 2250,642;109,21198
1066,71; 2414,175;  246,667; 2217,719;109,96705
1067,25; 2360,483;  230,206; 2156,488;110,59005
1067,80; 2384,329;  243,360; 2149,719;112,30668
1068,34; 2353,867;  260,052; 2148,950;110,84851
1068,88; 2281,406;  225,283; 2081,258;110,78399
1069,42; 2277,329;  254,437; 2088,181;110,31486
1069,96; 2239,483;  238,590; 2014,565;112,66444
1070,50; 2237,329;  254,898; 2044,258;110,78996
1071,04; 2176,944;  217,898; 1960,027;112,45128
1071,58; 2141,175;  223,667; 1952,335;110,92404
1072,12; 2132,021;  229,283; 1930,642;111,83635
1072,66; 2109,560;  229,052; 1914,104;111,59939
1073,21; 2132,560;  240,744; 1917,950;112,79566
1073,75; 2087,021;  245,437; 1871,565;113,24961
1074,29; 2050,406;  234,283; 1851,258;112,31609
1074,83; 2040,098;  257,283; 1843,642;112,38406
1075,37; 1984,713;  249,129; 1828,412;109,89702
1075,91; 1999,098;  242,744; 1790,104;113,50651
1076,45; 1973,560;  235,590; 1773,950;112,97548
1076,99; 1963,021;  249,898; 1745,335;114,55672
1077,53; 1899,560;  220,052; 1713,488;112,45926
1078,07; 1901,944;  228,437; 1713,950;112,65517
1078,61; 1875,790;  234,360; 1670,258;114,31388
1079,15; 1882,329;  238,206; 1639,412;117,33631
1079,69; 1840,560;  225,744; 1633,027;114,74705
1080,23; 1836,098;  254,129; 1633,796;114,66309
1080,77; 1852,098;  267,052; 1646,104;114,93738
1081,31; 1768,944;  225,821; 1581,642;113,81465
1081,85; 1787,560;  249,283; 1560,950;117,27646
1082,39; 1744,790;  227,437; 1537,719;115,80355
1082,93; 1720,021;  246,975; 1544,412;113,53512
1083,47; 1689,483;  230,590; 1494,335;115,44205
1084,01; 1715,713;  247,590; 1503,719;116,87679
1084,55; 1661,637;  227,590; 1449,104;117,39913
1085,09; 1670,713;  252,744; 1463,412;117,12295
1085,63; 1642,790;  239,206; 1461,027;114,87644
1086,17; 1619,252;  228,129; 1410,642;117,64120
1086,71; 1593,021;  225,590; 1403,950;116,04528
1087,24; 1608,713;  251,821; 1425,873;115,57345
1087,78; 1590,329;  247,513; 1391,873;117,34208
1088,32; 1534,944;  229,052; 1347,181;116,79265
1088,86; 1558,252;  251,975; 1361,796;117,70157
1089,40; 1519,175;  245,744; 1326,104;117,87101
1089,94; 1485,406;  219,129; 1296,719;117,51004
1090,48; 1490,098;  254,744; 1307,642;117,32891
1091,02; 1467,637;  249,667; 1296,796;116,31513
1091,56; 1445,175;  248,667; 1270,873;117,05155
1092,10; 1402,560;  225,744; 1243,796;115,59483
1092,63; 1457,867;  262,821; 1270,335;118,61342
1093,17; 1419,098;  257,744; 1241,488;118,05445
1093,71; 1397,867;  228,052; 1212,488;118,83096
1094,25; 1382,944;  260,821; 1198,642;119,65214
1094,79; 1347,944;  236,206; 1177,181;118,14750
1095,33; 1364,790;  235,744; 1167,642;121,15554
1095,87; 1337,637;  229,667; 1172,104;117,56433
1096,40; 1312,329;  218,437; 1133,258;119,57444
1096,94; 1323,021;  242,437; 1127,027;122,15650
1097,48; 1318,713;  245,283; 1121,258;122,54126
1098,02; 1278,637;  233,129; 1089,796;122,04361
1098,56; 1234,098;  203,437; 1066,027;119,48447
1099,10; 1251,867;  219,206; 1061,412;122,61392
1099,63; 1231,175;  203,821; 1055,335;120,65034
1100,17; 1251,252;  247,744; 1059,642;123,60021
1100,71; 1256,560;  261,667; 1069,719;123,12232

