
Integration time [ms]: 120,000
Averaging Nr. [scans]: 13
Smoothing Nr. [pixels]: 0
Data measured with spectrometer [name]: 2009305U1
Wave   ;Sample   ;Dark     ;Reference;Reflectance
[nm]   ;[counts] ;[counts] ;[counts] ;[%]

 175,72;  210,132;  202,673;  202,814; 0,00000
 176,32;  226,909;  225,431;  219,229; 0,00000
 176,92;  250,653;  241,593;  259,926;49,42198
 177,52;  259,032;  251,671;  258,560;106,85363
 178,12;  230,457;  228,123;  221,690; 0,00000
 178,72;  249,196;  262,428;  250,906; 0,00000
 179,32;  257,041;  256,969;  246,180; 0,00000
 179,92;  258,461;  244,743;  247,528;492,58721
 180,52;  243,500;  240,295;  251,040;29,83561
 181,12;  251,743;  250,513;  250,351; 0,00000
 181,73;  283,519;  264,591;  277,112;151,17207
 182,33;  345,226;  344,982;  351,462; 3,75938
 182,93;  270,021;  260,594;  266,980;147,63753
 183,53;  235,566;  240,272;  226,189; 0,00000
 184,13;  240,515;  234,428;  232,913; 0,00000
 184,73;  276,474;  272,348;  270,276; 0,00000
 185,33;  277,116;  227,895;  345,845;41,73035
 185,93;  273,549;  241,810;  363,162;26,15408
 186,53;  291,100;  245,969;  383,769;32,75170
 187,13;  321,709;  274,977;  418,310;32,60349
 187,73;  279,950;  236,042;  378,887;30,73818
 188,33;  285,311;  240,114;  373,931;33,77507
 188,93;  307,828;  258,330;  373,870;42,84013
 189,53;  307,779;  257,396;  374,368;43,07282
 190,13;  344,971;  277,224;  424,265;46,07363
 190,73;  289,827;  216,698;  365,464;49,15742
 191,34;  306,363;  258,249;  403,767;33,06409
 191,94;  295,092;  218,263;  371,997;49,97478
 192,54;  290,592;  243,523;  387,787;32,62706
 193,14;  299,559;  247,900;  396,592;34,74241
 193,74;  297,478;  257,129;  400,532;28,13684
 194,34;  285,418;  240,671;  386,728;30,63683
 194,94;  260,472;  220,361;  356,781;29,40236
 195,54;  245,873;  204,742;  327,334;33,55092
 196,14;  266,080;  227,827;  378,689;25,35633
 196,74;  242,706;  222,971;  359,044;14,50323
 197,34;  240,583;  197,063;  371,027;25,01655
 197,94;  259,917;  228,132;  384,373;20,34364
 198,54;  270,212;  235,596;  395,794;21,60824
 199,14;  256,602;  219,374;  388,308;22,03737
 199,74;  242,997;  202,220;  401,273;20,48565
 200,34;  245,300;  196,990;  393,795;24,54697
 200,94;  278,457;  228,446;  426,289;25,27810
 201,54;  262,565;  204,218;  443,961;24,33718
 202,14;  303,201;  229,608;  481,986;29,15997
 202,74;  278,604;  219,912;  475,274;22,98377
 203,34;  254,075;  188,920;  492,839;21,43837
 203,94;  235,407;  167,224;  499,348;20,52919
 204,54;  303,133;  245,363;  589,973;16,76401
 205,14;  277,888;  199,220;  600,798;19,58984
 205,74;  328,285;  236,688;  696,371;19,92607
 206,34;  289,631;  209,069;  707,819;16,15270
 206,94;  310,164;  215,837;  774,562;16,88249
 207,54;  290,007;  180,146;  806,666;17,53505
 208,14;  315,980;  214,378;  884,062;15,17161
 208,74;  330,264;  211,373;  951,337;16,06709
 209,34;  340,984;  194,759; 1045,915;17,17964
 209,94;  376,019;  216,528; 1149,937;17,08697
 210,54;  386,622;  213,302; 1239,675;16,88665
 211,14;  407,614;  218,374; 1375,700;16,35151
 211,73;  427,041;  201,448; 1478,977;17,65849
 212,33;  449,293;  217,908; 1586,632;16,90519
 212,93;  456,859;  205,834; 1714,331;16,64070
 213,53;  442,505;  178,220; 1776,071;16,54005
 214,13;  483,820;  200,076; 1832,252;17,38438
 214,73;  490,586;  190,377; 1872,755;17,84431
 215,33;  476,558;  173,143; 1893,014;17,64170
 215,93;  531,836;  201,842; 2020,959;18,14036
 216,53;  525,739;  158,603; 2108,122;18,83215
 217,13;  595,995;  216,302; 2311,821;18,11928
 217,73;  617,780;  194,611; 2514,042;18,24450
 218,33;  639,694;  147,770; 2710,446;19,19574
 218,93;  722,941;  176,163; 3006,310;19,31979
 219,53;  790,320;  183,770; 3305,411;19,43049
 220,13;  811,246;  156,541; 3596,351;19,03317
 220,73;  904,193;  191,836; 3941,482;18,99800
 221,32;  978,187;  182,912; 4363,260;19,02414
 221,92; 1056,193;  190,848; 4775,100;18,87647
 222,52; 1115,866;  174,227; 5205,811;18,71456
 223,12; 1212,281;  171,612; 5659,397;18,96337
 223,72; 1299,676;  195,843; 6067,054;18,80077
 224,32; 1361,981;  201,998; 6450,584;18,56394
 224,92; 1386,322;  183,767; 6756,102;18,29723
 225,52; 1469,944;  200,684; 7072,450;18,47065
 226,12; 1510,655;  193,225; 7427,116;18,21192
 226,72; 1535,328;  164,840; 7739,306;18,09353
 227,31; 1572,054;  160,994; 8128,208;17,71084
 227,91; 1670,870;  178,452; 8522,116;17,88685
 228,51; 1692,893;  181,909; 8913,420;17,30496
 229,11; 1744,781;  182,301; 9324,768;17,09035
 229,71; 1762,882;  175,219; 9553,884;16,92845
 230,31; 1848,017;  170,000;10006,581;17,05895
 230,91; 1871,015;  162,060;10330,474;16,80650
 231,51; 1891,044;  162,304;10694,483;16,41389
 232,10; 1925,123;  171,616;11055,467;16,11109
 232,70; 1994,264;  189,671;11322,958;16,20899
 233,30; 1990,575;  200,534;11530,911;15,79860
 233,90; 1950,839;  179,764;11686,583;15,39152
 234,50; 1985,022;  181,534;11918,588;15,36576
 235,10; 1951,707;  166,536;11994,333;15,09301
 235,70; 1932,761;  187,221;12088,487;14,66685
 236,29; 1909,529;  187,988;12111,897;14,43772
 236,89; 1844,111;  166,599;12029,823;14,14044
 237,49; 1865,403;  197,687;11971,528;14,16459
 238,09; 1816,939;  176,993;11716,511;14,21156
 238,69; 1763,629;  218,442;11547,115;13,63961
 239,29; 1712,195;  172,223;11220,918;13,93805
 239,89; 1636,231;  193,907;10971,228;13,38296
 240,48; 1575,587;  176,531;10591,259;13,43344
 241,08; 1500,813;  175,145;10224,619;13,19142
 241,68; 1484,442;  196,993; 9925,720;13,23348
 242,28; 1422,027;  168,918; 9604,373;13,28086
 242,88; 1417,984;  214,538; 9311,832;13,22862
 243,48; 1378,008;  207,533; 8999,871;13,31245
 244,07; 1351,442;  190,298; 8722,403;13,60912
 244,67; 1346,693;  200,070; 8626,684;13,60715
 245,27; 1346,733;  198,602; 8464,284;13,89033
 245,87; 1371,548;  202,768; 8392,547;14,27120
 246,47; 1364,007;  190,295; 8414,382;14,27165
 247,06; 1395,096;  179,146; 8363,177;14,85760
 247,66; 1442,936;  176,685; 8450,657;15,30403
 248,26; 1504,960;  217,295; 8599,618;15,36167
 248,86; 1571,259;  200,757; 8748,312;16,03385
 249,46; 1611,265;  157,457; 8985,134;16,46874
 250,05; 1745,721;  203,377; 9328,022;16,90306
 250,65; 1828,374;  168,832; 9752,153;17,31698
 251,25; 1969,276;  174,760;10184,430;17,92782
 251,85; 2122,858;  191,137;10734,774;18,32120
 252,44; 2258,066;  155,835;11399,855;18,69644
 253,04; 2489,347;  197,451;12181,097;19,12520
 253,64; 2637,224;  155,678;12806,281;19,61603
 254,24; 2908,018;  195,146;13819,981;19,91123
 254,84; 3159,572;  170,996;14760,980;20,48375
 255,43; 3409,493;  175,527;15673,602;20,86689
 256,03; 3652,332;  178,063;16632,867;21,11401
 256,63; 3948,221;  183,214;17740,187;21,44451
 257,23; 4189,956;  177,907;18504,473;21,89198
 257,82; 4417,303;  190,672;19507,424;21,88065
 258,42; 4639,499;  145,747;20302,163;22,29440
 259,02; 4974,700;  190,682;21198,699;22,77234
 259,62; 5172,537;  173,669;21930,235;22,97637
 260,21; 5355,011;  179,989;22397,750;23,29228
 260,81; 5501,173;  187,994;22933,955;23,35878
 261,41; 5631,603;  162,594;23400,776;23,53458
 262,01; 5841,336;  205,975;23824,308;23,86011
 262,60; 5893,186;  158,984;24167,088;23,88445
 263,20; 5987,701;  164,756;24460,117;23,96731
 263,80; 6067,227;  201,359;24601,526;24,04028
 264,40; 6103,310;  163,976;24723,670;24,18326
 264,99; 6173,504;  187,974;24932,785;24,18903
 265,59; 6211,957;  179,353;25036,733;24,26886
 266,19; 6225,698;  165,821;25188,490;24,21755
 266,78; 6371,251;  212,895;25312,266;24,53590
 267,38; 6300,303;  186,739;25277,200;24,36609
 267,98; 6324,425;  172,049;25385,041;24,40161
 268,58; 6340,183;  188,354;25331,948;24,46678
 269,17; 6325,542;  171,427;25344,257;24,44745
 269,77; 6269,249;  191,520;25145,525;24,35572
 270,37; 6231,241;  163,205;25022,926;24,40911
 270,96; 6218,050;  215,441;24936,068;24,28178
 271,56; 6074,870;  174,753;24681,858;24,07513
 272,16; 6054,209;  178,979;24415,776;24,24095
 272,75; 5988,790;  177,210;24341,755;24,05003
 273,35; 5984,334;  187,057;24250,780;24,09135
 273,95; 5937,800;  186,287;24241,027;23,91010
 274,54; 5899,381;  175,300;24275,778;23,75090
 275,14; 6001,409;  200,519;24642,891;23,73293
 275,74; 5944,351;  153,825;24701,154;23,58923
 276,33; 6083,338;  213,136;25015,994;23,66744
 276,93; 6120,343;  195,455;25489,552;23,42399
 277,53; 6240,693;  185,065;26006,631;23,45182
 278,12; 6357,403;  172,215;26618,996;23,38730
 278,72; 6528,410;  216,219;27075,304;23,50114
 279,32; 6608,357;  186,064;27665,976;23,37087
 279,91; 6827,934;  164,832;28374,510;23,61992
 280,51; 6966,384;  172,373;28907,973;23,64319
 281,11; 7121,044;  183,525;29638,489;23,55297
 281,70; 7234,926;  165,370;30074,476;23,63680
 282,30; 7448,331;  181,214;30776,550;23,75237
 282,90; 7606,112;  178,752;31071,250;24,04260
 283,49; 7693,344;  191,519;31703,206;23,80648
 284,09; 7870,862;  213,908;32174,372;23,95758
 284,69; 8032,589;  201,602;32551,480;24,20716
 285,28; 8184,160;  201,523;32877,715;24,42952
 285,88; 8266,528;  235,209;33144,707;24,40426
 286,47; 8358,102;  184,368;33220,054;24,74213
 287,07; 8455,962;  209,679;33248,088;24,95969
 287,67; 8624,085;  204,456;33355,794;25,39755
 288,26; 8702,216;  172,448;33241,410;25,79388
 288,86; 8791,697;  179,754;33428,826;25,90130
 289,46; 9008,109;  192,063;33471,747;26,49077
 290,05; 9177,035;  174,837;33601,850;26,93091
 290,65; 9422,907;  180,521;33802,888;27,48880
 291,24; 9577,345;  188,988;33879,003;27,86688
 291,84; 9825,221;  206,368;34112,571;28,36901
 292,44;10033,203;  191,072;34235,115;28,91000
 293,03;10272,092;  241,449;34378,031;29,38385
 293,63;10418,299;  179,598;34411,921;29,90945
 294,22;10594,220;  205,832;34641,153;30,16783
 294,82;10671,232;  186,438;34577,243;30,48720
 295,41;10669,619;  169,832;34333,169;30,73408
 296,01;10759,180;  219,286;34338,309;30,89155
 296,61;10732,851;  198,218;34063,374;31,10759
 297,20;10595,078;  189,978;33632,022;31,11383
 297,80;10643,744;  203,223;33573,652;31,28674
 298,39;10500,474;  174,983;33088,159;31,37191
 298,99;10473,248;  220,749;32950,935;31,32429
 299,58;10412,913;  203,609;32750,873;31,36763
 300,18;10285,615;  204,683;32613,290;31,10572
 300,78;10110,845;  186,527;32260,315;30,94214
 301,37;10028,541;  187,512;32215,892;30,72596
 301,97;10053,526;  196,140;32287,880;30,71627
 302,56; 9922,708;  183,983;32152,209;30,46377
 303,16; 9896,725;  173,212;32088,694;30,46644
 303,75; 9834,764;  183,605;32134,495;30,20623
 304,35; 9820,557;  179,766;32333,153;29,98375
 304,94; 9808,218;  186,064;32333,222;29,93158
 305,54; 9675,264;  204,604;32260,260;29,54443
 306,13; 9587,599;  168,074;32186,516;29,41906
 306,73; 9470,291;  162,995;32020,506;29,21539
 307,33; 9403,098;  202,378;31912,690;29,01491
 307,92; 9361,828;  194,757;32025,129;28,79976
 308,52; 9364,913;  158,596;32481,024;28,48275
 309,11; 9431,644;  179,977;32994,471;28,19384
 309,71; 9399,588;  160,590;33237,434;27,93192
 310,30; 9433,401;  174,218;33455,381;27,82109
 310,90; 9507,478;  210,295;33790,920;27,68615
 311,49; 9397,777;  182,833;33948,536;27,29084
 312,09; 9379,582;  159,914;34164,542;27,11298
 312,68; 9465,120;  230,450;34592,532;26,87459
 313,28; 9378,443;  166,988;34646,206;26,71596
 313,87; 9291,765;  156,910;34788,836;26,37698
 314,47; 9314,869;  172,902;35029,917;26,22705
 315,06; 9246,475;  163,065;35299,219;25,85203
 315,66; 9179,659;  164,914;35459,619;25,54135
 316,25; 9140,195;  156,982;35359,386;25,51875
 316,85; 9019,999;  158,914;35417,171;25,13194
 317,44; 9028,785;  178,747;35551,114;25,01964
 318,04; 8938,694;  157,214;35579,271;24,79099
 318,63; 8804,390;  155,072;35726,555;24,31532
 319,22; 8797,413;  181,905;35905,413;24,11720
 319,82; 8676,952;  167,754;35877,499;23,82878
 320,41; 8617,609;  187,829;35789,622;23,67797
 321,01; 8480,563;  194,144;35985,116;23,15226
 321,60; 8429,797;  183,216;36034,226;23,00237
 322,20; 8339,827;  171,834;36012,471;22,78975
 322,79; 8334,113;  204,065;36081,114;22,66086
 323,39; 8203,747;  165,535;36264,448;22,26719
 323,98; 8155,956;  162,373;36174,645;22,19683
 324,58; 8043,166;  169,212;36082,534;21,92488
 325,17; 7974,677;  180,674;35980,084;21,77132
 325,76; 7856,942;  196,525;35776,620;21,53006
 326,36; 7730,036;  163,298;35371,970;21,49112
 326,95; 7562,455;  198,754;35069,435;21,11717
 327,55; 7417,975;  161,138;34641,898;21,04605
 328,14; 7319,566;  174,762;34387,672;20,88336
 328,74; 7198,544;  192,213;33867,091;20,80581
 329,33; 7077,982;  190,298;33500,292;20,67753
 329,92; 6866,412;  162,978;33018,813;20,40257
 330,52; 6683,168;  185,147;32312,238;20,22599
 331,11; 6579,126;  168,446;31877,121;20,21743
 331,71; 6372,011;  182,371;31285,125;19,90062
 332,30; 6278,602;  205,371;30798,837;19,85140
 332,89; 6180,511;  233,836;30230,908;19,82419
 333,49; 6025,630;  194,370;29681,099;19,77588
 334,08; 5887,415;  181,061;29290,311;19,60323
 334,68; 5744,480;  180,908;28844,380;19,40997
 335,27; 5681,614;  199,148;28509,180;19,36581
 335,86; 5634,665;  240,446;28279,505;19,23823
 336,46; 5539,921;  197,917;27999,599;19,21468
 337,05; 5431,083;  182,908;27786,484;19,01266
 337,65; 5387,117;  165,677;27644,737;19,00153
 338,24; 5452,968;  223,681;27624,652;19,08431
 338,83; 5372,791;  197,758;27574,945;18,90272
 339,43; 5344,579;  171,674;27464,343;18,95346
 340,02; 5300,230;  179,828;27356,946;18,84086
 340,61; 5335,146;  174,680;27473,017;18,90396
 341,21; 5389,313;  205,367;27452,091;19,02594
 341,80; 5332,679;  178,753;27378,828;18,94820
 342,40; 5315,607;  184,455;27491,454;18,79061
 342,99; 5411,358;  182,451;27617,523;19,05920
 343,58; 5403,597;  183,298;27786,907;18,91166
 344,18; 5467,804;  195,298;27881,312;19,04393
 344,77; 5515,395;  176,058;28227,568;19,03404
 345,36; 5612,685;  168,447;28489,512;19,22328
 345,96; 5713,102;  195,298;28794,851;19,29332
 346,55; 5721,284;  166,843;29047,867;19,23215
 347,14; 5801,980;  165,455;29447,062;19,24937
 347,74; 5912,250;  151,771;29812,017;19,42155
 348,33; 6092,330;  171,462;30503,914;19,51991
 348,92; 6275,721;  191,928;31151,410;19,65082
 349,52; 6359,343;  155,541;31617,050;19,71871
 350,11; 6450,573;  183,519;31846,779;19,79283
 350,70; 6493,696;  180,680;31873,408;19,91945
 351,29; 6486,823;  155,818;31621,476;20,12036
 351,89; 6542,468;  185,362;31699,576;20,17219
 352,48; 6515,861;  158,680;31723,262;20,14024
 353,07; 6571,437;  175,148;31659,396;20,31584
 353,67; 6599,256;  186,851;31579,556;20,42642
 354,26; 6584,155;  189,455;31300,726;20,55429
 354,85; 6602,987;  179,607;31184,856;20,71707
 355,45; 6576,736;  158,753;31068,172;20,76384
 356,04; 6640,259;  171,610;30902,801;21,04913
 356,63; 6682,223;  197,062;30688,623;21,26871
 357,22; 6630,021;  185,820;30543,010;21,22792
 357,82; 6630,640;  191,976;30352,412;21,34805
 358,41; 6686,229;  202,294;30250,845;21,57820
 359,00; 6658,677;  168,982;29995,238;21,75833
 359,60; 6708,254;  188,065;30018,757;21,85732
 360,19; 6741,861;  182,611;29786,862;22,15645
 360,78; 6777,997;  194,523;29616,870;22,37576
 361,37; 6752,392;  178,985;29418,142;22,48152
 361,97; 6784,891;  196,986;29340,258;22,60523
 362,56; 6769,849;  175,365;29036,458;22,84904
 363,15; 6790,493;  220,907;28797,122;22,98970
 363,74; 6695,055;  188,056;28358,776;23,09845
 364,34; 6700,107;  197,905;28033,378;23,35941
 364,93; 6642,522;  172,211;27588,802;23,59998
 365,52; 6614,896;  153,908;27112,428;23,96640
 366,11; 6615,545;  173,982;26848,518;24,14874
 366,71; 6514,644;  170,598;26452,336;24,13861
 367,30; 6510,565;  172,370;26109,029;24,43721
 367,89; 6524,109;  227,607;25897,457;24,52878
 368,48; 6509,460;  186,594;25524,475;24,95420
 369,07; 6425,773;  179,603;25048,562;25,11633
 369,67; 6394,468;  197,980;24801,124;25,18576
 370,26; 6368,947;  178,219;24544,953;25,40647
 370,85; 6363,335;  183,216;24214,610;25,71686
 371,44; 6385,067;  179,601;23966,503;26,08774
 372,03; 6352,667;  168,751;23732,350;26,24351
 372,63; 6354,948;  156,293;23380,987;26,68993
 373,22; 6315,071;  176,834;23073,486;26,80845
 373,81; 6262,083;  157,139;22784,407;26,98047
 374,40; 6246,203;  177,916;22525,182;27,15449
 374,99; 6172,845;  172,445;22297,340;27,12058
 375,59; 6201,765;  164,453;22014,855;27,63021
 376,18; 6232,657;  194,753;21910,702;27,80401
 376,77; 6222,944;  189,140;21655,398;28,10832
 377,36; 6247,347;  198,292;21627,694;28,22783
 377,95; 6186,818;  193,213;21311,650;28,38091
 378,55; 6212,640;  166,683;21149,809;28,81342
 379,14; 6238,479;  196,908;21141,953;28,84487
 379,73; 6240,301;  184,137;20977,656;29,12525
 380,32; 6304,835;  192,832;20964,307;29,42498
 380,91; 6308,392;  164,133;20836,090;29,72268
 381,50; 6360,167;  190,981;20822,730;29,90142
 382,10; 6337,374;  169,601;20675,846;30,07753
 382,69; 6416,029;  156,908;20648,499;30,54483
 383,28; 6456,406;  201,674;20597,764;30,66633
 383,87; 6404,208;  171,981;20438,512;30,75132
 384,46; 6461,374;  168,284;20395,775;31,11157
 385,05; 6537,145;  201,058;20345,605;31,45312
 385,64; 6533,545;  173,290;20372,133;31,48822
 386,24; 6565,969;  160,207;20337,384;31,74757
 386,83; 6646,093;  204,283;20341,147;31,99014
 387,42; 6742,950;  197,982;20443,755;32,32758
 388,01; 6843,608;  187,663;20722,576;32,41283
 388,60; 6981,558;  185,669;20944,242;32,73774
 389,19; 7042,778;  171,195;21150,735;32,75374
 389,78; 7232,178;  177,043;21370,802;33,28874
 390,37; 7431,057;  234,666;21847,997;33,29608
 390,96; 7528,970;  180,052;22023,426;33,64369
 391,56; 7625,205;  184,039;22139,320;33,89237
 392,15; 7745,327;  169,582;22411,555;34,06058
 392,74; 7815,802;  150,800;22583,063;34,16954
 393,33; 7976,440;  174,192;22846,524;34,41308
 393,92; 8177,018;  192,027;23328,953;34,51189
 394,51; 8282,979;  174,577;23483,413;34,78682
 395,10; 8440,313;  210,938;23741,130;34,97368
 395,69; 8521,470;  191,709;23890,302;35,14876
 396,28; 8571,333;  189,164;24005,657;35,19481
 396,87; 8695,118;  197,000;24049,721;35,62746
 397,46; 8765,601;  196,915;24168,127;35,74573
 398,06; 8873,619;  211,983;24401,439;35,80749
 398,65; 8951,702;  191,424;24435,851;36,13316
 399,24; 9123,544;  197,112;24662,782;36,48554
 399,83; 9107,246;  175,619;24707,790;36,40781
 400,42; 9240,251;  214,283;24793,714;36,72163
 401,01; 9326,495;  189,019;24914,542;36,95564
 401,60; 9350,702;  199,975;24900,798;37,04625
 402,19; 9374,562;  220,863;24849,078;37,16753
 402,78; 9447,034;  222,501;24901,088;37,37869
 403,37; 9391,471;  204,834;24741,548;37,44037
 403,96; 9408,585;  203,697;24609,990;37,71522
 404,55; 9417,807;  211,322;24417,879;38,03302
 405,14; 9322,319;  194,415;24293,260;37,87693
 405,73; 9392,757;  207,883;24275,116;38,16340
 406,32; 9413,905;  205,219;24131,352;38,48798
 406,91; 9299,350;  198,856;23904,980;38,38879
 407,50; 9282,080;  207,674;23733,268;38,57249
 408,09; 9202,972;  183,730;23420,189;38,81504
 408,68; 9174,179;  192,793;23255,197;38,94384
 409,27; 9101,987;  185,273;23146,454;38,83386
 409,86; 9156,059;  197,701;22960,388;39,35545
 410,45; 9119,974;  238,122;22919,365;39,15946
 411,04; 9166,830;  238,082;22843,339;39,49855
 411,63; 9057,020;  211,592;22600,535;39,50802
 412,22; 9029,055;  218,021;22288,056;39,92306
 412,81; 8934,591;  223,652;22056,752;39,89786
 413,40; 8829,437;  235,979;21728,740;39,98303
 413,99; 8767,739;  260,589;21397,851;40,24717
 414,58; 8615,512;  202,285;21003,304;40,44623
 415,17; 8487,755;  218,036;20759,640;40,25839
 415,76; 8457,106;  210,789;20711,639;40,22427
 416,35; 8437,046;  191,259;20454,580;40,69316
 416,94; 8464,232;  230,023;20514,156;40,59434
 417,53; 8569,628;  201,576;20800,791;40,62316
 418,12; 8641,710;  201,580;20827,937;40,91915
 418,71; 8796,896;  220,980;21186,040;40,90575
 419,30; 8903,252;  211,736;21228,228;41,35570
 419,89; 8949,533;  194,893;21434,172;41,21910
 420,48; 9171,312;  237,442;21733,900;41,55973
 421,07; 9210,528;  215,368;21822,005;41,63147
 421,66; 9188,981;  188,454;21846,735;41,55698
 422,25; 9231,751;  208,395;21852,910;41,68888
 422,84; 9257,944;  225,783;21737,539;41,98709
 423,43; 9103,175;  215,391;21508,323;41,74054
 424,02; 9024,775;  233,317;21253,813;41,82327
 424,60; 8854,144;  215,646;20826,513;41,91235
 425,19; 8766,324;  213,481;20615,233;41,92210
 425,78; 8750,242;  234,251;20400,833;42,22823
 426,37; 8717,703;  238,797;20253,664;42,36304
 426,96; 8673,482;  222,105;20170,398;42,36642
 427,55; 8557,924;  211,732;20039,514;42,09342
 428,14; 8532,736;  203,353;19811,972;42,47817
 428,73; 8456,593;  204,266;19667,866;42,39877
 429,32; 8500,994;  222,719;19620,862;42,67560
 429,91; 8500,745;  242,190;19615,704;42,62807
 430,50; 8401,805;  231,888;19457,006;42,49606
 431,08; 8370,207;  221,587;19289,596;42,73451
 431,67; 8357,874;  259,438;19255,284;42,63267
 432,26; 8320,115;  261,905;19013,763;42,97286
 432,85; 8146,584;  275,980;18644,633;42,84802
 433,44; 7995,383;  279,142;18309,281;42,79635
 434,03; 7852,247;  303,076;17873,504;42,96521
 434,62; 7651,018;  254,220;17499,553;42,89159
 435,21; 7588,184;  270,981;17245,806;43,10620
 435,79; 7491,144;  249,226;17166,079;42,80890
 436,38; 7463,317;  252,083;16985,729;43,09422
 436,97; 7403,200;  247,930;16873,153;43,03864
 437,56; 7342,866;  255,023;16748,946;42,97245
 438,15; 7315,642;  235,558;16658,115;43,11195
 438,74; 7300,514;  265,790;16633,993;42,97799
 439,33; 7327,436;  241,711;16658,018;43,16272
 439,91; 7358,679;  221,026;16713,130;43,27922
 440,50; 7429,379;  271,565;16805,548;43,29153
 441,09; 7447,141;  262,189;16895,628;43,19583
 441,68; 7425,638;  241,660;16963,225;42,96236
 442,27; 7445,524;  233,887;16851,869;43,39659
 442,86; 7406,216;  203,599;16819,088;43,34881
 443,44; 7464,805;  227,595;16931,893;43,32544
 444,03; 7469,972;  271,446;16995,269;43,04354
 444,62; 7439,873;  226,600;16879,912;43,31435
 445,21; 7334,796;  245,366;16666,519;43,17255
 445,80; 7333,858;  265,147;16604,455;43,26200
 446,39; 7226,987;  268,760;16364,850;43,22930
 446,97; 7099,580;  227,772;16116,035;43,25084
 447,56; 7011,935;  218,705;15890,562;43,34668
 448,15; 6935,702;  228,618;15759,022;43,18680
 448,74; 6858,027;  257,389;15456,208;43,42862
 449,33; 6753,096;  235,088;15347,125;43,13124
 449,91; 6622,686;  238,175;15103,327;42,94951
 450,50; 6569,586;  230,558;14860,535;43,32904
 451,09; 6530,206;  234,097;14801,560;43,22035
 451,68; 6484,121;  259,410;14724,733;43,03195
 452,26; 6447,210;  251,953;14609,451;43,14998
 452,85; 6369,739;  230,104;14421,058;43,26443
 453,44; 6396,225;  243,810;14491,666;43,18134
 454,03; 6342,866;  217,417;14426,473;43,10947
 454,61; 6295,847;  230,811;14415,041;42,75900
 455,20; 6399,825;  245,893;14580,549;42,93045
 455,79; 6395,281;  254,961;14556,496;42,93469
 456,38; 6419,263;  252,439;14684,904;42,72883
 456,97; 6421,823;  237,283;14765,098;42,57034
 457,55; 6402,500;  240,597;14742,400;42,49060
 458,14; 6422,722;  249,512;14730,724;42,62910
 458,73; 6365,352;  247,136;14630,007;42,53821
 459,31; 6412,445;  265,453;14709,332;42,55777
 459,90; 6446,181;  278,294;14787,950;42,50884
 460,49; 6498,182;  316,676;14902,291;42,38084
 461,08; 6495,086;  239,457;14907,869;42,64694
 461,66; 6552,612;  248,298;15049,536;42,59315
 462,25; 6564,200;  251,999;15121,148;42,45166
 462,84; 6557,400;  277,304;15109,398;42,34126
 463,43; 6511,487;  215,394;15085,289;42,34121
 464,01; 6487,523;  248,782;15117,756;41,95811
 464,60; 6536,315;  291,775;15077,974;42,23222
 465,19; 6395,743;  228,247;14843,912;42,19785
 465,77; 6396,755;  248,251;14804,322;42,24013
 466,36; 6327,047;  262,163;14688,107;42,04150
 466,95; 6180,273;  245,856;14414,014;41,88559
 467,53; 6025,170;  250,795;14096,619;41,70481
 468,12; 5950,813;  284,642;13785,386;41,96932
 468,71; 5843,254;  249,478;13594,462;41,91669
 469,29; 5710,236;  227,721;13304,237;41,92642
 469,88; 5562,790;  237,801;13053,236;41,55137
 470,47; 5652,128;  300,502;13186,269;41,53130
 471,06; 5554,522;  263,195;13153,729;41,04816
 471,64; 5616,411;  248,577;13220,818;41,37939
 472,23; 5555,230;  221,439;13272,338;40,86914
 472,81; 5620,242;  220,431;13340,822;41,15586
 473,40; 5633,942;  234,747;13485,729;40,74562
 473,99; 5809,371;  335,209;13697,135;40,96836
 474,57; 5761,318;  245,516;13793,499;40,71309
 475,16; 5797,773;  253,433;13941,336;40,50540
 475,75; 5827,687;  273,676;14125,956;40,09456
 476,33; 5894,713;  271,682;14198,006;40,37699
 476,92; 5941,496;  275,979;14259,027;40,51704
 477,51; 5934,066;  265,064;14328,410;40,31048
 478,09; 5907,461;  257,910;14312,913;40,19601
 478,68; 5889,835;  273,913;14221,761;40,26371
 479,27; 5928,751;  287,599;14305,290;40,24308
 479,85; 5829,693;  257,605;14283,426;39,72736
 480,44; 5858,625;  254,839;14418,392;39,56483
 481,02; 6443,171;  255,537;15815,136;39,76731
 481,61; 7315,534;  283,919;17873,001;39,97716
 482,20; 7664,819;  255,691;19099,150;39,31936
 482,78; 8052,124;  299,453;19992,311;39,36794
 483,37; 8249,693;  278,699;20533,405;39,35378
 483,95; 8382,762;  304,393;20791,766;39,43097
 484,54; 8404,527;  317,687;21021,241;39,06016
 485,13; 8365,291;  274,631;20883,675;39,25781
 485,71; 8240,148;  255,552;20621,442;39,20573
 486,30; 8153,235;  284,013;20314,022;39,28716
 486,88; 7983,568;  322,246;19987,396;38,95888
 487,47; 7693,208;  301,556;19228,616;39,05336
 488,05; 7328,084;  276,713;18322,323;39,07527
 488,64; 6836,153;  297,104;17030,624;39,07755
 489,23; 6083,021;  304,637;15145,886;38,93462
 489,81; 5197,166;  299,947;12970,050;38,65177
 490,40; 4845,753;  248,179;12323,096;38,07541
 490,98; 4752,279;  239,182;12008,747;38,34549
 491,57; 4704,039;  273,023;11980,192;37,84874
 492,15; 4692,890;  253,952;11882,885;38,17149
 492,74; 4575,949;  260,944;11757,133;37,53422
 493,32; 4573,051;  277,412;11662,063;37,73184
 493,91; 4505,348;  263,340;11601,767;37,41266
 494,50; 4483,890;  262,198;11572,590;37,32578
 495,08; 4457,123;  241,813;11485,521;37,49039
 495,67; 4449,110;  272,570;11503,391;37,18820
 496,25; 4350,433;  224,038;11384,741;36,97253
 496,84; 4333,365;  231,646;11343,679;36,91241
 497,42; 4331,906;  221,502;11293,373;37,12475
 498,01; 4308,326;  249,648;11233,564;36,95110
 498,59; 4251,682;  227,811;11193,057;36,69659
 499,18; 4202,817;  225,572;11124,262;36,49287
 499,76; 4218,388;  260,115;11101,294;36,51146
 500,35; 4086,096;  245,432;10862,542;36,17429
 500,93; 4045,512;  241,963;10813,297;35,97984
 501,52; 4018,034;  238,734;10757,351;35,92963
 502,10; 3993,163;  261,129;10747,595;35,58906
 502,69; 3950,497;  242,363;10559,944;35,93995
 503,27; 3819,745;  227,429;10349,820;35,48881
 503,86; 3798,098;  233,977;10292,458;35,43399
 504,44; 3756,191;  224,981;10143,073;35,60372
 505,03; 3661,290;  207,673; 9910,660;35,59333
 505,61; 3612,704;  228,441; 9867,810;35,10876
 506,19; 3539,632;  250,134; 9720,605;34,73426
 506,78; 3473,451;  215,912; 9514,755;35,03165
 507,36; 3393,172;  224,980; 9341,724;34,75135
 507,95; 3365,038;  231,532; 9195,965;34,95488
 508,53; 3277,089;  226,066; 9043,616;34,60171
 509,12; 3234,627;  230,530; 8892,813;34,68019
 509,70; 3182,024;  257,455; 8769,488;34,35806
 510,29; 3131,599;  247,459; 8619,416;34,45000
 510,87; 3013,507;  229,989; 8412,749;34,01686
 511,46; 2978,719;  219,298; 8211,179;34,52780
 512,04; 2911,523;  224,918; 8099,680;34,11665
 512,62; 2861,344;  237,914; 7993,451;33,82655
 513,21; 2772,608;  213,229; 7789,415;33,78189
 513,79; 2724,616;  220,165; 7669,221;33,62104
 514,38; 2642,097;  209,315; 7499,517;33,37058
 514,96; 2640,277;  244,391; 7433,540;33,32642
 515,54; 2554,671;  212,778; 7283,317;33,12184
 516,13; 2542,941;  226,779; 7157,826;33,41720
 516,71; 2483,038;  215,862; 7056,039;33,14499
 517,30; 2402,456;  208,251; 6931,959;32,63386
 517,88; 2416,491;  234,174; 6882,673;32,82420
 518,46; 2336,106;  213,022; 6747,913;32,48844
 519,05; 2332,848;  225,718; 6659,507;32,75099
 519,63; 2301,857;  224,178; 6659,420;32,28594
 520,22; 2282,755;  243,724; 6564,271;32,26035
 520,80; 2217,630;  227,494; 6466,969;31,89589
 521,38; 2233,702;  257,027; 6436,694;31,98675
 521,97; 2183,987;  218,883; 6429,178;31,64269
 522,55; 2200,306;  235,575; 6443,647;31,64801
 523,13; 2155,612;  216,732; 6398,186;31,36608
 523,72; 2153,526;  224,330; 6381,243;31,33382
 524,30; 2217,201;  239,351; 6545,207;31,36529
 524,89; 2168,171;  207,114; 6567,260;30,83351
 525,47; 2211,479;  238,660; 6665,749;30,69537
 526,05; 2209,771;  213,276; 6727,615;30,64770
 526,64; 2269,113;  229,356; 6855,141;30,78513
 527,22; 2299,139;  232,121; 6943,659;30,79798
 527,80; 2341,082;  269,432; 7065,555;30,48282
 528,39; 2336,815;  226,435; 7190,884;30,30219
 528,97; 2397,614;  226,510; 7359,112;30,43916
 529,55; 2431,579;  234,655; 7559,822;29,99144
 530,14; 2481,894;  257,130; 7734,782;29,75217
 530,72; 2491,778;  221,972; 7856,769;29,72975
 531,30; 2520,539;  217,746; 7992,942;29,61717
 531,89; 2556,188;  229,746; 8072,921;29,66199
 532,47; 2599,739;  256,594; 8217,595;29,43279
 533,05; 2611,456;  264,355; 8219,821;29,50300
 533,63; 2617,558;  252,056; 8273,838;29,48849
 534,22; 2558,624;  224,980; 8342,061;28,74979
 534,80; 2637,445;  241,755; 8435,057;29,23962
 535,38; 2698,941;  314,977; 8489,709;29,16260
 535,97; 2556,254;  234,133; 8436,888;28,30905
 536,55; 2605,727;  271,140; 8468,496;28,47976
 537,13; 2576,431;  265,745; 8446,124;28,24668
 537,71; 2599,863;  285,283; 8475,119;28,26162
 538,30; 2599,735;  305,674; 8570,323;27,75752
 538,88; 2633,345;  318,837; 8599,984;27,94913
 539,46; 2685,687;  344,062; 8806,603;27,67047
 540,05; 2682,453;  345,912; 8897,023;27,32442
 540,63; 2759,913;  386,296; 9111,519;27,20408
 541,21; 2779,326;  393,223; 9243,260;26,96151
 541,79; 2802,436;  411,761; 9345,393;26,76040
 542,38; 2853,962;  420,142; 9496,556;26,81478
 542,96; 2888,943;  444,997; 9640,398;26,57792
 543,54; 2953,011;  449,299; 9854,765;26,61975
 544,12; 2958,388;  405,685; 9999,510;26,60777
 544,70; 2940,128;  405,382;10057,138;26,26202
 545,29; 3002,455;  420,603;10257,492;26,24663
 545,87; 2993,975;  410,915;10329,470;26,04270
 546,45; 2971,765;  392,603;10323,885;25,97009
 547,03; 2993,588;  383,760;10485,760;25,83476
 547,62; 3002,785;  363,839;10602,636;25,77399
 548,20; 3073,166;  382,919;10766,056;25,90977
 548,78; 3069,917;  344,546;10952,908;25,69079
 549,36; 3108,384;  347,391;11183,078;25,48055
 549,94; 3136,690;  320,764;11287,724;25,67646
 550,53; 3171,129;  322,697;11513,627;25,45304
 551,11; 3207,809;  294,548;11726,288;25,48396
 551,69; 3275,363;  322,468;12059,610;25,15856
 552,27; 3305,986;  275,540;12330,394;25,13880
 552,85; 3416,721;  287,163;12753,477;25,10412
 553,44; 3448,331;  288,544;13036,442;24,78673
 554,02; 3566,510;  310,085;13449,201;24,78420
 554,60; 3596,586;  248,318;13720,860;24,85253
 555,18; 3715,263;  287,852;14092,826;24,82736
 555,76; 3777,839;  277,008;14460,557;24,68234
 556,34; 3882,764;  292,169;14913,550;24,55716
 556,93; 3989,251;  277,853;15329,007;24,65856
 557,51; 4019,818;  240,707;15647,690;24,52856
 558,09; 4126,185;  284,853;16070,707;24,33402
 558,67; 4192,967;  280,172;16447,067;24,20251
 559,25; 4254,680;  288,786;16734,988;24,11435
 559,83; 4311,284;  273,791;17033,614;24,09031
 560,41; 4380,595;  265,398;17391,253;24,02915
 561,00; 4474,165;  280,634;17766,934;23,98181
 561,58; 4518,608;  274,782;18011,072;23,92736
 562,16; 4558,643;  268,625;18341,204;23,73772
 562,74; 4641,960;  237,393;18731,886;23,81556
 563,32; 4684,966;  245,867;19154,726;23,47629
 563,90; 4805,835;  267,019;19544,270;23,54494
 564,48; 4866,887;  267,550;20046,724;23,25343
 565,06; 4961,289;  267,326;20579,929;23,10862
 565,65; 5143,996;  272,181;21263,904;23,20827
 566,23; 5288,615;  311,788;22040,081;22,90482
 566,81; 5393,439;  279,324;22783,792;22,72489
 567,39; 5592,003;  277,023;23701,381;22,68997
 567,97; 5712,214;  289,940;24310,168;22,57378
 568,55; 5916,330;  293,252;25197,412;22,57887
 569,13; 6010,745;  270,634;25881,528;22,41277
 569,71; 6182,864;  280,933;26851,239;22,21251
 570,29; 6450,526;  308,160;27888,993;22,27041
 570,87; 6569,737;  303,624;28621,612;22,12768
 571,45; 6635,331;  296,018;29325,907;21,83719
 572,03; 6693,504;  249,486;29702,693;21,87883
 572,61; 6831,990;  242,944;30408,629;21,84285
 573,20; 6968,146;  281,092;31069,696;21,71925
 573,78; 7096,142;  260,329;31782,006;21,68607
 574,36; 7199,412;  279,328;32300,505;21,61096
 574,94; 7232,465;  317,256;32642,774;21,39242
 575,52; 7270,718;  265,725;32846,235;21,50056
 576,10; 7433,995;  308,953;33440,563;21,50527
 576,68; 7507,361;  288,870;33975,623;21,42828
 577,26; 7637,375;  309,574;34699,026;21,30828
 577,84; 7701,619;  315,943;35186,679;21,18015
 578,42; 7777,303;  350,873;35502,631;21,12677
 579,00; 7726,779;  290,252;35667,901;21,02041
 579,58; 7787,805;  329,718;35955,711;20,93440
 580,16; 7672,276;  305,028;35934,796;20,67723
 580,74; 7698,889;  303,875;36128,711;20,64214
 581,32; 7721,208;  300,872;36230,094;20,65265
 581,90; 7670,551;  327,182;36174,629;20,48506
 582,48; 7634,990;  327,798;36293,768;20,31696
 583,06; 7647,881;  317,718;36487,822;20,26580
 583,64; 7642,345;  308,871;36568,753;20,22476
 584,22; 7573,404;  320,649;36441,638;20,07906
 584,80; 7522,049;  320,258;36211,539;20,06557
 585,38; 7417,953;  324,553;35778,495;20,00737
 585,96; 7370,829;  299,253;35838,913;19,89770
 586,54; 7352,630;  319,802;35884,305;19,77485
 587,12; 7325,367;  300,568;36082,359;19,63233
 587,70; 7362,057;  326,331;36191,135;19,61736
 588,28; 7344,357;  305,568;36305,241;19,55237
 588,86; 7393,317;  315,031;36369,510;19,63220
 589,44; 7323,899;  297,962;36510,054;19,40218
 590,02; 7375,753;  307,114;36686,583;19,43030
 590,59; 7320,444;  285,802;36964,214;19,17924
 591,17; 7396,557;  298,047;37099,676;19,28858
 591,75; 7385,567;  289,503;37335,237;19,15487
 592,33; 7450,027;  309,655;37533,493;19,18226
 592,91; 7394,840;  272,199;37770,302;18,99467
 593,49; 7456,033;  276,587;38115,931;18,97349
 594,07; 7476,462;  285,510;38350,610;18,89120
 594,65; 7459,001;  301,418;38358,213;18,80763
 595,23; 7514,832;  307,960;38870,395;18,68884
 595,81; 7473,527;  283,500;38835,566;18,65017
 596,39; 7516,481;  271,577;38992,460;18,71058
 596,97; 7518,412;  305,198;39202,896;18,54406
 597,55; 7522,542;  285,497;39101,230;18,64462
 598,12; 7464,343;  272,973;39094,948;18,52397
 598,70; 7472,636;  269,431;39324,222;18,44385
 599,28; 7517,471;  292,662;39457,523;18,44717
 599,86; 7471,803;  276,815;39468,964;18,35824
 600,44; 7436,201;  251,740;39539,023;18,28699
 601,02; 7521,326;  308,287;39632,593;18,34244
 601,60; 7448,907;  285,734;39636,789;18,20325
 602,18; 7377,159;  254,434;39624,823;18,09158
 602,75; 7341,760;  259,269;39722,651;17,94700
 603,33; 7371,207;  276,046;39733,774;17,98168
 603,91; 7356,385;  263,669;39629,278;18,01754
 604,49; 7332,788;  287,354;39768,137;17,84522
 605,07; 7312,787;  289,734;39779,503;17,78449
 605,65; 7301,658;  293,279;39876,357;17,70549
 606,23; 7293,118;  322,032;39961,370;17,58628
 606,80; 7279,947;  339,115;40031,476;17,48657
 607,38; 7242,137;  361,129;40020,091;17,35045
 607,96; 7261,454;  396,345;40120,463;17,28197
 608,54; 7287,923;  436,971;40132,952;17,25855
 609,12; 7234,013;  423,730;40212,084;17,11627
 609,70; 7289,782;  447,584;40164,958;17,22722
 610,27; 7196,523;  446,960;40221,891;16,96939
 610,85; 7240,564;  452,660;40361,469;17,00854
 611,43; 7177,384;  453,661;40190,327;16,92070
 612,01; 7154,659;  428,579;39938,834;17,02363
 612,59; 7136,068;  437,122;40005,832;16,92991
 613,16; 7069,371;  400,803;40000,582;16,83991
 613,74; 7050,657;  391,816;39860,382;16,87125
 614,32; 7008,558;  378,203;39818,573;16,81109
 614,90; 7038,507;  368,735;39740,501;16,94049
 615,48; 6887,333;  336,420;39404,202;16,76807
 616,05; 6907,969;  326,033;39490,968;16,80568
 616,63; 6872,681;  335,569;39351,965;16,75478
 617,21; 6863,886;  332,883;39185,457;16,80970
 617,79; 6766,875;  313,578;39065,963;16,65265
 618,36; 6782,359;  330,580;39125,867;16,63032
 618,94; 6668,626;  261,959;38822,725;16,61447
 619,52; 6611,216;  292,032;38375,453;16,59300
 620,10; 6565,352;  285,269;38330,713;16,50679
 620,67; 6588,900;  295,723;38250,497;16,58073
 621,25; 6528,116;  306,350;38026,894;16,49437
 621,83; 6496,264;  298,651;38062,774;16,41138
 622,41; 6525,276;  328,959;38049,670;16,42683
 622,98; 6426,649;  308,800;37788,029;16,32331
 623,56; 6412,994;  314,030;37795,674;16,27187
 624,14; 6403,227;  289,659;37659,464;16,35965
 624,72; 6361,484;  301,805;37544,194;16,27092
 625,29; 6327,367;  282,799;37675,744;16,16500
 625,87; 6368,919;  326,270;37619,830;16,20293
 626,45; 6282,417;  279,259;37344,439;16,19622
 627,02; 6278,895;  287,732;37357,465;16,16187
 627,60; 6232,630;  271,817;37247,702;16,12081
 628,18; 6244,474;  253,730;37361,161;16,14432
 628,76; 6257,570;  261,724;37356,021;16,16379
 629,33; 6253,744;  296,726;37384,113;16,06211
 629,91; 6241,045;  278,346;37340,329;16,08845
 630,49; 6287,552;  296,956;37449,416;16,12436
 631,06; 6319,512;  287,340;37625,831;16,15537
 631,64; 6283,568;  293,568;37572,200;16,06819
 632,22; 6276,383;  254,949;37478,527;16,17640
 632,79; 6277,910;  288,257;37824,059;15,95717
 633,37; 6289,713;  277,349;37826,435;16,01201
 633,95; 6290,110;  270,644;37963,712;15,96969
 634,52; 6312,914;  272,189;38068,796;15,98219
 635,10; 6347,498;  282,499;38029,680;16,06742
 635,68; 6400,713;  274,949;38237,268;16,13643
 636,25; 6345,919;  266,637;38241,039;16,00889
 636,83; 6353,954;  254,878;38432,405;15,97557
 637,41; 6410,982;  251,487;38505,802;16,10144
 637,98; 6441,797;  285,409;38627,908;16,05630
 638,56; 6430,365;  273,867;38771,280;15,99198
 639,13; 6418,607;  265,800;38871,974;15,93737
 639,71; 6503,467;  311,878;39154,614;15,94015
 640,29; 6408,867;  246,955;38826,648;15,97190
 640,86; 6452,378;  252,032;38988,317;16,00656
 641,44; 6473,198;  253,417;38967,062;16,06612
 642,02; 6488,401;  276,341;38914,962;16,07734
 642,59; 6534,220;  253,879;39161,323;16,14175
 643,17; 6524,117;  263,110;39098,531;16,12190
 643,74; 6539,089;  249,111;39141,738;16,17268
 644,32; 6553,062;  286,649;39185,253;16,10961
 644,89; 6553,266;  280,649;39099,692;16,15861
 645,47; 6555,316;  291,111;39116,437;16,13433
 646,05; 6549,443;  286,111;39135,414;16,12212
 646,62; 6529,570;  264,189;39107,852;16,12974
 647,20; 6559,312;  269,497;39209,444;16,15260
 647,77; 6533,285;  249,804;39035,729;16,20041
 648,35; 6478,720;  245,420;39003,398;16,08262
 648,92; 6535,462;  272,651;39009,682;16,16750
 649,50; 6482,589;  234,882;38843,966;16,18196
 650,08; 6520,946;  246,882;38764,251;16,28892
 650,65; 6536,919;  238,036;39112,535;16,20312
 651,23; 6638,046;  220,421;39827,512;16,20322
 651,80; 6829,634;  233,729;40797,488;16,26059
 652,38; 6877,684;  246,499;41191,465;16,19536
 652,95; 6931,196;  227,268;41534,057;16,22960
 653,53; 7026,092;  255,961;41894,187;16,25941
 654,10; 7084,834;  281,576;41945,318;16,32896
 654,68; 7014,807;  241,577;41909,064;16,25543
 655,25; 7039,395;  238,192;41917,579;16,31791
 655,83; 7082,753;  237,423;42057,709;16,36844
 656,40; 7074,034;  264,500;42034,840;16,30232
 656,98; 7043,545;  239,270;41918,278;16,32543
 657,55; 7009,364;  252,347;41811,332;16,25886
 658,13; 6953,183;  241,116;41390,693;16,31139
 658,70; 6937,002;  266,270;41249,977;16,27655
 659,28; 6819,668;  236,501;40241,339;16,45593
 659,85; 6699,795;  255,040;39406,315;16,46116
 660,43; 6723,306;  261,887;39494,676;16,46944
 661,00; 6764,433;  240,502;39551,730;16,59559
 661,58; 6783,406;  237,810;40107,784;16,41736
 662,15; 6841,917;  226,503;40183,453;16,55636
 662,73; 6966,660;  300,272;40518,660;16,57547
 663,30; 7001,863;  244,042;40675,406;16,71431
 663,88; 7004,144;  254,965;40897,306;16,60628
 664,45; 7059,040;  244,734;41079,282;16,68760
 665,03; 7146,936;  242,658;41416,797;16,76848
 665,60; 7286,371;  323,504;41846,697;16,76862
 666,17; 7315,497;  247,658;41960,520;16,94403
 666,75; 7348,624;  249,735;42413,650;16,83641
 667,32; 7433,520;  268,505;42639,396;16,91023
 667,90; 7537,801;  244,582;42979,604;17,06614
 668,47; 7600,389;  273,274;43192,888;17,07172
 669,05; 7618,593;  237,582;43631,019;17,00951
 669,62; 7662,258;  231,583;43641,611;17,11742
 670,19; 7791,770;  232,198;43783,433;17,35788
 670,77; 7751,204;  248,198;43903,025;17,18712
 671,34; 7789,639;  243,353;43823,310;17,31596
 671,92; 7841,535;  231,737;44287,748;17,27301
 672,49; 7849,508;  258,738;44173,340;17,28530
 673,06; 7900,712;  215,507;44343,470;17,41572
 673,64; 7921,915;  232,661;44171,293;17,49999
 674,21; 7905,658;  220,046;44244,347;17,45766
 674,79; 7997,246;  250,508;44513,323;17,50168
 675,36; 8042,681;  260,585;44484,223;17,59714
 675,93; 7981,961;  219,508;44374,123;17,58016
 676,51; 8078,011;  256,816;44710,176;17,59416
 677,08; 8091,984;  241,124;44763,692;17,63344
 677,65; 8132,649;  250,047;44833,976;17,68037
 678,23; 8199,776;  253,509;45032,876;17,74538
 678,80; 8217,365;  240,971;45153,160;17,75998
 679,38; 8254,107;  240,048;45315,367;17,77926
 679,95; 8395,849;  241,510;45585,344;17,98335
 680,52; 8388,514;  246,664;45759,705;17,88905
 681,10; 8561,026;  255,126;46247,374;18,05935
 681,67; 8567,999;  254,664;46474,505;17,98651
 682,24; 8684,741;  234,126;46637,789;18,21109
 682,82; 8769,483;  238,050;47233,381;18,15379
 683,39; 8929,918;  280,973;47459,127;18,33252
 683,96; 8949,737;  245,665;47797,719;18,30430
 684,54; 9097,018;  227,589;48127,234;18,51669
 685,11; 9172,144;  269,666;48378,288;18,50495
 685,68; 9311,194;  246,358;48929,495;18,62007
 686,25; 9314,936;  229,436;49081,164;18,59812
 686,83; 9427,140;  244,897;49196,602;18,75776
 687,40; 9520,575;  219,205;49533,271;18,86149
 687,97; 9671,086;  269,667;49965,556;18,91790
 688,55; 9627,213;  222,129;49932,071;18,91993
 689,12; 9738,878;  214,206;50320,663;19,00887
 689,69; 9799,697;  222,899;50349,716;19,10514
 690,26; 9841,363;  246,130;50497,462;19,09449
 690,84; 9897,182;  245,361;50658,285;19,14553
 691,41; 9988,770;  248,822;50775,800;19,27673
 691,98;10055,743;  254,823;51050,469;19,29480
 692,56;10098,793;  233,284;51139,369;19,37982
 693,13;10205,689;  283,592;51161,576;19,50175
 693,70;10210,508;  266,823;51358,245;19,46253
 694,27;10283,097;  254,285;51426,453;19,59818
 694,84;10295,916;  234,131;51492,583;19,62951
 695,42;10417,197;  288,362;51602,791;19,73876
 695,99;10486,939;  251,132;51901,229;19,81759
 696,56;10472,758;  233,747;51796,052;19,85755
 697,13;10590,962;  253,594;52059,182;19,95416
 697,71;10607,473;  221,517;52124,466;20,01034
 698,28;10701,754;  241,825;52567,212;19,99016
 698,85;10742,188;  218,672;52430,573;20,15540
 699,42;10796,161;  217,903;52602,627;20,19340
 699,99;10925,134;  269,364;52899,758;20,24642
 700,57;10934,800;  250,288;52759,427;20,34791
 701,14;11069,157;  239,903;52950,788;20,54463
 701,71;11131,207;  251,057;53144,841;20,56981
 702,28;11116,719;  249,750;53175,587;20,53245
 702,85;11204,538;  240,212;53278,641;20,67242
 703,43;11263,588;  267,981;53533,464;20,64302
 704,00;11396,484;  279,366;53798,363;20,77228
 704,57;11450,841;  251,674;53675,417;20,96290
 705,14;11537,430;  272,597;54065,932;20,94094
 705,71;11615,787;  271,290;54061,216;21,09038
 706,28;11643,299;  252,367;53901,808;21,23215
 706,86;11761,887;  276,752;54297,400;21,26064
 707,43;11866,398;  300,598;54147,300;21,47912
 708,00;11870,987;  264,060;54117,123;21,55296
 708,57;11825,806;  243,675;54126,561;21,49501
 709,14;11983,548;  272,599;54215,230;21,71001
 709,71;12027,675;  248,830;54312,438;21,78701
 710,28;12115,956;  264,445;54427,876;21,88102
 710,86;12162,083;  265,676;54698,083;21,85537
 711,43;12324,440;  280,061;54701,983;22,13148
 712,00;12368,028;  256,600;54690,575;22,24976
 712,57;12472,386;  265,293;54991,705;22,30567
 713,14;12484,974;  255,216;55000,451;22,33940
 713,71;12546,717;  266,831;54936,505;22,46197
 714,28;12692,228;  265,601;54977,558;22,71282
 714,85;12635,124;  241,524;54659,535;22,77481
 715,42;12744,713;  249,140;55004,127;22,82089
 716,00;12865,993;  311,140;55111,181;22,91030
 716,57;12909,966;  262,602;55229,773;23,00894
 717,14;12866,016;  249,217;55154,826;22,97907
 717,71;13009,835;  234,987;55096,957;23,28543
 718,28;13098,347;  280,449;55273,164;23,30836
 718,85;13128,704;  247,218;55374,218;23,36693
 719,42;13209,447;  269,449;55454,810;23,44824
 719,99;13215,573;  247,219;55223,709;23,58891
 720,56;13315,392;  264,988;55553,840;23,60404
 721,13;13366,673;  241,296;55688,124;23,67201
 721,70;13449,569;  248,835;55484,255;23,89904
 722,27;13484,004;  273,912;55549,770;23,89848
 722,84;13615,438;  306,374;55677,900;24,03594
 723,41;13534,257;  240,835;55715,569;23,96302
 723,98;13678,153;  266,682;55931,161;24,09341
 724,55;13724,511;  283,144;55921,215;24,15858
 725,12;13733,176;  221,836;55925,192;24,25588
 725,69;13886,303;  253,221;56131,091;24,39800
 726,27;14032,430;  266,606;56193,145;24,61412
 726,84;14052,941;  269,298;56558,891;24,48702
 727,41;14171,684;  274,683;56495,175;24,71875
 727,98;14337,811;  272,376;56762,306;24,89901
 728,55;14313,245;  296,068;56619,205;24,88707
 729,12;14429,372;  239,607;56799,951;25,08783
 729,69;14580,576;  279,376;57065,620;25,18427
 730,26;14590,933;  276,069;57301,443;25,10262
 730,82;14609,906;  272,069;57015,958;25,26763
 731,39;14650,495;  263,608;57200,396;25,26817
 731,96;14850,006;  251,454;57379,758;25,55397
 732,53;15024,210;  265,455;57658,119;25,71540
 733,10;15055,798;  274,609;57655,326;25,75985
 733,67;15213,387;  271,455;57940,841;25,90964
 734,24;15112,744;  251,994;57573,126;25,92543
 734,81;15275,640;  285,456;57668,949;26,12282
 735,38;15242,382;  270,840;57484,925;26,16758
 735,95;15319,048;  271,148;57348,594;26,36400
 736,52;15396,790;  277,610;57559,878;26,39417
 737,09;15407,532;  265,918;57244,547;26,57420
 737,66;15491,813;  307,072;57340,678;26,62420
 738,23;15581,940;  259,534;57458,193;26,78805
 738,80;15772,297;  314,919;57686,631;26,94251
 739,37;15749,655;  294,150;57997,146;26,78458
 739,94;15832,166;  266,765;58021,969;26,95065
 740,51;16035,524;  361,073;58162,869;27,11758
 741,07;16005,958;  257,304;57969,230;27,28839
 741,64;16120,393;  299,458;58260,591;27,29576
 742,21;16180,212;  268,459;58352,491;27,39437
 742,78;16106,031;  238,074;58040,006;27,45230
 743,35;16166,850;  267,921;58393,598;27,35268
 743,92;16353,439;  293,382;58500,806;27,59108
 744,49;16441,642;  272,075;58297,244;27,86647
 745,06;16449,923;  262,537;58309,990;27,88647
 745,63;16462,896;  246,922;58349,813;27,90907
 746,19;16636,946;  260,537;58279,174;28,22612
 746,76;16671,919;  260,614;58369,227;28,24246
 747,33;16713,046;  256,307;58286,589;28,35888
 747,90;16923,865;  280,384;58549,027;28,56336
 748,47;16908,223;  276,615;58454,850;28,58734
 749,04;16978,426;  273,000;58474,596;28,70269
 749,61;17028,092;  287,308;58464,495;28,77551
 750,17;17120,603;  285,693;58499,856;28,91893
 750,74;17174,038;  274,001;58413,910;29,06788
 751,31;17091,011;  257,078;58361,194;28,97201
 751,88;17214,676;  231,463;58242,479;29,27584
 752,45;17333,803;  261,617;58344,071;29,39302
 753,02;17315,545;  282,848;58210,355;29,40347
 753,58;17339,056;  249,232;58226,639;29,47670
 754,15;17448,799;  258,617;58347,616;29,59283
 754,72;17432,156;  247,156;58025,824;29,74281
 755,29;17379,360;  241,156;57871,723;29,73804
 755,86;17523,256;  262,387;58023,931;29,88298
 756,42;17553,998;  267,311;57938,600;29,97451
 756,99;17588,048;  228,388;57931,653;30,08436
 757,56;17652,406;  235,003;57765,245;30,27521
 758,13;17682,609;  200,234;57725,068;30,39101
 758,70;17854,736;  227,773;57822,122;30,60537
 759,26;17919,555;  223,696;57884,329;30,68967
 759,83;17988,298;  234,543;57974,152;30,74797
 760,40;18033,348;  219,928;57712,590;30,98381
 760,97;18084,859;  197,774;57783,567;31,06163
 761,53;18076,986;  193,697;57436,697;31,24101
 762,10;18002,574;  196,544;57388,905;31,13358
 762,67;18144,701;  229,313;57454,112;31,30704
 763,24;18140,982;  189,852;56929,781;31,63756
 763,80;18293,339;  228,314;57080,835;31,77524
 764,37;18272,466;  218,929;57096,119;31,74126
 764,94;18170,131;  215,391;56619,172;31,83251
 765,50;18258,104;  216,314;56701,841;31,94055
 766,07;18307,000;  252,622;56651,433;32,01198
 766,64;18271,589;  230,776;56431,872;32,10046
 767,21;18256,254;  225,777;56265,618;32,17439
 767,77;18275,766;  250,315;56115,825;32,26579
 768,34;18397,892;  239,239;56116,109;32,49762
 768,91;18350,635;  255,162;55937,317;32,49780
 769,47;18358,377;  245,008;55948,909;32,51724
 770,04;18376,042;  262,855;55841,962;32,58992
 770,61;18371,938;  240,086;55658,939;32,71784
 771,18;18377,680;  231,932;55498,454;32,83316
 771,74;18517,346;  246,932;55584,123;33,01652
 772,31;18571,703;  247,317;55284,253;33,29471
 772,88;18445,676;  225,471;55091,615;33,20847
 773,44;18503,726;  228,471;55019,130;33,35469
 774,01;18651,545;  246,010;55033,953;33,59413
 774,58;18594,518;  234,549;54714,775;33,70024
 775,14;18679,107;  230,703;54775,598;33,82242
 775,71;18734,772;  238,395;54690,421;33,96821
 776,27;18819,514;  283,857;54724,475;34,04748
 776,84;18891,103;  308,165;54764,067;34,12474
 777,41;18825,383;  245,165;54464,966;34,26833
 777,97;18870,202;  244,550;54181,635;34,53218
 778,54;18965,329;  259,012;54240,381;34,65328
 779,11;19071,764;  268,551;54182,666;34,87623
 779,67;19036,737;  228,166;54092,642;34,91832
 780,24;19037,940;  251,936;53933,388;34,99534
 780,80;19074,683;  269,013;53984,749;35,00961
 781,37;19150,733;  254,859;53989,264;35,16532
 781,94;19103,552;  246,783;53653,703;35,30773
 782,50;19231,832;  257,091;53683,833;35,51544
 783,07;19203,728;  281,937;53762,964;35,38038
 783,63;19170,009;  240,860;53436,556;35,58399
 784,20;19249,982;  273,399;53488,686;35,66002
 784,77;19146,109;  256,553;53280,586;35,62452
 785,33;19320,313;  229,784;52997,332;36,17854
 785,90;19307,132;  253,015;53002,078;36,12219
 786,46;19339,028;  269,861;52896,439;36,23486
 787,03;19259,847;  242,092;52744,339;36,22274
 787,59;19363,435;  248,631;52615,315;36,50184
 788,16;19418,485;  258,478;52575,292;36,62304
 788,73;19417,458;  265,401;52391,576;36,74173
 789,29;19317,662;  244,786;51910,014;36,91627
 789,86;19372,097;  267,171;51898,222;37,00278
 790,42;19439,685;  257,094;51859,737;37,17366
 790,99;19345,196;  272,479;51447,944;37,26926
 791,55;19405,785;  245,633;51501,152;37,38164
 792,12;19414,065;  265,556;51433,359;37,42297
 792,68;19418,269;  254,556;51144,874;37,65689
 793,25;19352,396;  265,941;50834,543;37,74369
 793,81;19319,446;  309,249;50529,058;37,85398
 794,38;19266,727;  217,557;50328,112;38,01429
 794,94;19315,930;  244,173;50104,243;38,25056
 795,51;19198,365;  257,788;49860,681;38,18442
 796,07;19161,646;  260,789;49633,504;38,28199
 796,64;19292,849;  264,712;49687,480;38,50075
 797,20;19157,207;  258,558;49121,303;38,67701
 797,77;19042,026;  229,328;48871,664;38,67556
 798,33;19015,153;  241,866;48671,641;38,76394
 798,90;19033,203;  274,636;48687,771;38,74685
 799,46;18900,407;  246,251;48125,363;38,96095
 800,03;18942,226;  270,790;48025,109;39,09895
 800,59;18948,276;  272,713;47941,624;39,17766
 801,15;18872,249;  258,175;47589,524;39,32716
 801,72;18803,914;  252,406;47287,732;39,44165
 802,28;18844,195;  285,560;46983,631;39,74176
 802,85;18754,629;  249,330;46889,300;39,67691
 803,41;18832,064;  246,561;46712,892;39,99778
 803,98;18708,652;  249,484;46328,330;40,05996
 804,54;18603,779;  249,946;46006,846;40,11162
 805,11;18607,675;  258,485;45810,130;40,28217
 805,67;18603,340;  272,100;45752,414;40,30588
 806,23;18503,005;  262,408;45267,006;40,53052
 806,80;18517,901;  275,562;45117,444;40,68148
 807,36;18539,259;  282,793;45013,267;40,81438
 807,93;18509,694;  286,024;44813,321;40,92696
 808,49;18352,590;  245,640;44510,144;40,90625
 809,05;18346,870;  234,640;44363,505;41,04395
 809,62;18370,613;  270,410;44212,405;41,19113
 810,18;18366,124;  263,871;44157,151;41,24151
 810,74;18395,866;  232,025;43883,896;41,61068
 811,31;18381,532;  245,872;43546,335;41,88329
 811,87;18334,966;  256,564;43534,004;41,77327
 812,44;18401,170;  283,949;43399,288;42,02036
 813,00;18373,450;  209,719;43112,880;42,33658
 813,56;18434,962;  260,950;43217,010;42,30838
 814,13;18423,089;  259,565;43157,449;42,34130
 814,69;18403,600;  251,719;42808,348;42,65347
 815,25;18318,035;  229,104;42601,479;42,69039
 815,82;18355,469;  275,335;42334,840;42,98703
 816,38;18325,442;  298,182;42184,817;43,03822
 816,94;18185,954;  235,490;41865,486;43,11906
 817,51;18169,157;  226,644;41713,001;43,24919
 818,07;18141,130;  242,105;41376,747;43,51326
 818,63;18018,873;  265,336;41247,262;43,32041
 819,20;18026,923;  249,798;41189,777;43,42241
 819,76;17858,126;  235,414;40615,138;43,64248
 820,32;17886,715;  268,952;40609,961;43,67209
 820,89;17833,765;  270,799;40403,553;43,76217
 821,45;17653,738;  233,338;40010,145;43,79537
 822,01;17633,941;  273,876;39788,660;43,93309
 822,57;17580,684;  267,107;39675,791;43,93340
 823,14;17512,118;  238,415;39514,075;43,98068
 823,70;17431,091;  241,108;39247,282;44,06990
 824,26;17356,526;  235,262;39008,797;44,15709
 824,82;17451,422;  257,570;38887,005;44,50972
 825,39;17296,933;  239,647;38619,828;44,44295
 825,95;17415,906;  261,878;38651,958;44,68349
 826,51;17274,725;  258,340;38153,550;44,90379
 827,08;17350,467;  278,417;38206,065;45,01215
 827,64;17352,440;  257,186;38029,657;45,25850
 828,20;17284,183;  242,956;37724,249;45,46595
 828,76;17334,232;  273,494;37724,072;45,55534
 829,32;17307,513;  275,879;37573,895;45,66365
 829,89;17248,332;  234,187;37475,256;45,68651
 830,45;17277,075;  253,572;37367,925;45,86771
 831,01;17241,663;  241,188;37192,517;46,00775
 831,57;17278,328;  252,188;37083,494;46,22736
 832,14;17282,917;  246,496;37046,163;46,29504
 832,70;17224,659;  233,111;36757,370;46,52127
 833,26;17227,016;  214,189;36663,808;46,67491
 833,82;17258,066;  238,343;36525,016;46,90351
 834,38;17281,347;  233,804;36584,069;46,89799
 834,95;17269,935;  234,882;36441,892;47,04905
 835,51;17180,139;  205,343;36314,946;47,00909
 836,07;17263,189;  243,190;36355,615;47,13059
 836,63;17478,777;  262,882;36381,668;47,66466
 837,19;17271,443;  247,421;36206,645;47,34257
 837,75;17203,339;  215,421;35942,391;47,54928
 838,32;17283,158;  258,268;36010,829;47,61866
 838,88;17386,439;  257,499;36027,575;47,88623
 839,44;17428,181;  251,499;35891,705;48,19468
 840,00;17382,231;  248,961;35852,067;48,12296
 840,56;17298,511;  224,422;35544,428;48,34113
 841,12;17291,561;  231,346;35616,482;48,21294
 841,68;17217,150;  218,654;35367,151;48,36194
 842,25;17297,430;  231,039;35432,358;48,48225
 842,81;17259,326;  224,193;35091,796;48,85662
 843,37;17311,376;  205,270;35087,311;49,03987
 843,93;17285,195;  234,885;35064,749;48,95313
 844,49;17351,015;  240,578;35030,880;49,18163
 845,05;17334,911;  202,040;34888,395;49,39369
 845,61;17425,499;  253,809;34860,756;49,61920
 846,17;17365,164;  233,040;34734,348;49,65645
 846,73;17382,060;  242,810;34729,863;49,69764
 847,29;17362,110;  215,733;34468,763;50,05799
 847,86;17313,852;  221,118;34521,817;49,83203
 848,42;17290,364;  208,580;34236,024;50,20002
 848,98;17366,414;  241,811;34193,924;50,43752
 849,54;17364,387;  228,965;34233,670;50,39133
 850,10;17344,129;  237,734;34080,108;50,54727
 850,66;17244,333;  216,734;33874,469;50,59045
 851,22;17258,921;  212,504;33864,061;50,65566
 851,78;17380,279;  268,043;33891,807;50,89328
 852,34;17274,636;  237,274;33624,938;51,02892
 852,90;17227,609;  226,889;33522,991;51,05919
 853,46;17177,352;  218,120;33292,583;51,27591
 854,02;17212,401;  234,274;33293,791;51,35625
 854,58;17108,682;  221,659;32997,075;51,52344
 855,14;17090,117;  221,736;32969,359;51,51024
 855,70;17075,782;  196,121;32805,721;51,76286
 856,26;17109,601;  242,275;32805,159;51,79924
 856,82;17069,497;  229,429;32524,905;52,14374
 857,38;17052,085;  246,276;32449,035;52,18748
 857,94;17000,366;  240,430;32373,473;52,15795
 858,50;17051,108;  249,661;32173,527;52,62974
 859,06;16948,543;  224,892;32001,965;52,62804
 859,62;16923,670;  242,969;31978,326;52,56188
 860,18;16892,181;  227,738;31700,841;52,94820
 860,74;16878,385;  195,431;31622,280;53,08504
 861,30;16870,512;  207,893;31446,333;53,34011
 861,86;17008,715;  260,124;31459,925;53,68173
 862,42;16875,612;  226,662;31272,133;53,62763
 862,98;17014,046;  253,047;31308,571;53,97107
 863,54;16881,558;  233,971;31118,394;53,90286
 864,10;16985,300;  223,202;31050,293;54,37457
 864,66;16912,657;  208,202;30911,809;54,40552
 865,22;16889,169;  230,510;30695,324;54,68164
 865,78;16885,988;  229,895;30639,608;54,77228
 866,34;16841,422;  226,664;30513,200;54,85856
 866,90;16835,011;  236,895;30375,023;55,07348
 867,45;16750,061;  230,818;30249,076;55,03065
 868,01;16710,341;  235,511;30036,976;55,28195
 868,57;16621,237;  226,434;29866,799;55,31242
 869,13;16560,595;  211,204;29736,391;55,37439
 869,69;16575,183;  215,512;29661,214;55,55878
 870,25;16564,233;  209,512;29513,113;55,81130
 870,81;16564,129;  218,974;29522,167;55,77944
 871,37;16532,487;  225,974;29387,682;55,91755
 871,93;16550,845;  233,436;29172,197;56,38600
 872,49;16414,433;  253,897;29027,866;56,16373
 873,04;16344,714;  212,513;28819,304;56,39290
 873,60;16277,225;  219,667;28684,666;56,41159
 874,16;16275,198;  236,206;28544,181;56,65892
 874,72;16268,198;  222,437;28517,873;56,70795
 875,28;16194,813;  226,052;28424,873;56,62918
 875,84;16189,352;  226,590;28321,873;56,81652
 876,40;16212,967;  220,513;28379,412;56,79361
 876,95;16277,737;  239,129;28235,104;57,28898
 877,51;16271,506;  260,052;28329,873;57,04152
 878,07;16348,890;  269,744;28231,488;57,50409
 878,63;16402,967;  228,283;28280,027;57,66017
 879,19;16426,967;  235,898;28263,258;57,76880
 879,75;16445,813;  226,590;28335,642;57,70107
 880,30;16458,660;  230,821;28199,027;58,02245
 880,86;16645,352;  267,821;28385,488;58,24641
 881,42;16609,198;  216,667;28452,104;58,05659
 881,98;16680,737;  240,898;28461,335;58,25508
 882,54;16759,198;  224,744;28577,719;58,31647
 883,09;16903,275;  238,513;28735,488;58,47905
 883,65;16990,429;  214,283;28770,335;58,74813
 884,21;17140,506;  256,206;28987,565;58,76610
 884,77;17256,813;  221,360;28983,104;59,22956
 885,32;17352,890;  230,975;29187,642;59,12944
 885,88;17484,737;  259,283;29262,335;59,39187
 886,44;17597,890;  237,513;29484,642;59,35754
 887,00;17564,121;  254,360;29404,412;59,38158
 887,56;17767,890;  231,437;29648,488;59,61323
 888,11;17796,890;  236,360;29552,412;59,90074
 888,67;17989,813;  264,206;29822,412;59,96848
 889,23;17986,429;  237,667;29833,873;59,96972
 889,79;18011,352;  214,360;29723,027;60,31107
 890,34;17983,583;  239,360;29613,258;60,40813
 890,90;18149,352;  302,975;29761,181;60,58202
 891,46;18118,352;  225,667;29652,104;60,80480
 892,01;18167,967;  252,975;29674,104;60,89159
 892,57;18171,967;  252,821;29550,335;61,16269
 893,13;18053,121;  233,283;29317,873;61,26900
 893,69;18143,813;  227,129;29388,719;61,43933
 894,24;18140,198;  236,667;29281,335;61,64137
 894,80;18069,813;  231,052;29059,104;61,87987
 895,36;18001,429;  230,129;28942,873;61,89342
 895,91;17945,506;  231,206;28773,719;62,06286
 896,47;17928,660;  258,975;28624,412;62,29301
 897,03;17812,429;  220,667;28386,335;62,45817
 897,58;17826,429;  238,821;28392,488;62,47004
 898,14;17786,198;  239,975;28132,565;62,90639
 898,70;17718,121;  209,667;27967,642;63,07540
 899,25;17765,506;  228,129;27958,719;63,24199
 899,81;17628,506;  250,590;27772,104;63,14302
 900,37;17544,813;  217,437;27573,104;63,34109
 900,92;17617,506;  240,283;27632,719;63,43803
 901,48;17506,506;  224,821;27419,488;63,54806
 902,03;17448,583;  223,513;27255,796;63,72037
 902,59;17477,890;  226,052;27215,412;63,92089
 903,15;17412,583;  256,052;26958,950;64,24970
 903,70;17211,275;  244,052;26687,181;64,16496
 904,26;17159,275;  217,744;26660,335;64,06910
 904,82;17235,198;  236,744;26648,488;64,35945
 905,37;17113,813;  240,052;26469,873;64,33045
 905,93;16978,121;  224,744;26360,104;64,10234
 906,48;16980,044;  239,667;26317,104;64,19487
 907,04;16940,967;  253,898;26173,181;64,38091
 907,60;16845,121;  224,975;25972,873;64,54953
 908,15;16759,429;  218,667;25883,104;64,45013
 908,71;16774,352;  250,513;25858,335;64,52653
 909,26;16705,583;  213,283;25706,950;64,69175
 909,82;16586,737;  257,437;25599,796;64,43480
 910,37;16609,660;  268,052;25525,796;64,69939
 910,93;16459,352;  219,744;25226,335;64,94131
 911,48;16452,737;  208,513;25048,181;65,39630
 912,04;16429,506;  216,590;24939,950;65,57731
 912,60;16430,660;  242,206;25022,488;65,32796
 913,15;16336,890;  235,975;24808,104;65,52511
 913,71;16218,890;  226,360;24581,642;65,66350
 914,26;16254,813;  204,360;24588,950;65,82212
 914,82;16234,660;  234,975;24467,873;66,02464
 915,37;16167,121;  226,898;24384,950;65,98306
 915,93;16111,890;  277,129;24278,258;65,97507
 916,48;16082,121;  216,283;24113,488;66,39202
 917,04;16049,198;  239,590;24033,642;66,44353
 917,59;16038,813;  254,129;23937,412;66,64906
 918,15;15944,506;  206,206;23718,181;66,93738
 918,70;15935,121;  226,283;23675,335;66,99136
 919,26;15928,813;  229,667;23483,565;67,51189
 919,81;15827,737;  212,975;23370,412;67,42871
 920,37;15843,044;  233,283;23301,335;67,66831
 920,92;15807,506;  241,975;23216,796;67,75039
 921,48;15736,275;  209,667;22934,027;68,32583
 922,03;15636,352;  218,437;23038,488;67,56302
 922,59;15632,813;  225,821;22863,565;68,05887
 923,14;15617,583;  223,975;22679,488;68,55157
 923,69;15592,890;  244,283;22620,642;68,59296
 924,25;15616,890;  248,513;22641,181;68,63129
 924,80;15511,583;  225,975;22275,796;69,32305
 925,36;15431,506;  219,744;22273,104;68,97707
 925,91;15368,583;  222,052;22124,873;69,15333
 926,47;15362,890;  209,667;22107,181;69,20066
 927,02;15404,506;  269,744;22038,335;69,52568
 927,57;15319,429;  220,975;21821,565;69,89834
 928,13;15294,275;  217,360;21776,642;69,93236
 928,68;15296,967;  221,283;21722,027;70,11704
 929,24;15184,198;  192,821;21528,642;70,26389
 929,79;15144,121;  216,052;21382,335;70,52759
 930,34;15159,121;  216,513;21190,642;71,24304
 930,90;15152,044;  215,898;21257,642;70,98340
 931,45;15185,506;  233,513;21206,719;71,29092
 932,01;15120,890;  231,360;21068,950;71,45515
 932,56;15098,352;  244,513;20865,642;72,03213
 933,11;15087,737;  256,437;20914,258;71,79508
 933,67;14973,121;  216,360;20690,488;72,07516
 934,22;14991,583;  221,283;20578,796;72,55454
 934,77;14911,890;  251,360;20507,642;72,37523
 935,33;14840,660;  233,975;20403,412;72,41989
 935,88;14839,275;  226,590;20301,335;72,79139
 936,43;14804,044;  218,975;20248,181;72,81901
 936,99;14754,890;  225,206;20154,719;72,90537
 937,54;14634,275;  212,513;19992,719;72,91007
 938,09;14646,890;  235,360;19954,412;73,08430
 938,65;14585,275;  230,437;19810,104;73,31503
 939,20;14609,121;  204,129;19720,104;73,81129
 939,75;14529,121;  217,360;19588,488;73,88192
 940,31;14463,660;  214,590;19526,642;73,78330
 940,86;14494,275;  228,744;19496,873;74,03693
 941,41;14469,198;  300,129;19384,873;74,24291
 941,96;14361,660;  217,590;19234,412;74,37662
 942,52;14308,890;  218,898;19187,027;74,28246
 943,07;14239,044;  200,283;19000,335;74,67406
 943,62;14267,044;  210,513;18923,565;75,11619
 944,18;14169,429;  204,667;18843,796;74,92175
 944,73;14143,660;  220,129;18759,181;75,10379
 945,28;13991,583;  200,898;18568,873;75,08005
 945,83;14017,121;  224,975;18574,873;75,16198
 946,39;14044,429;  214,590;18463,565;75,78419
 946,94;13975,506;  239,052;18505,642;75,19988
 947,49;13918,275;  225,590;18264,719;75,90546
 948,04;13871,660;  248,513;18248,181;75,68554
 948,59;13836,890;  237,129;18177,258;75,80638
 949,15;13826,967;  208,898;18127,104;76,00130
 949,70;13720,660;  211,283;18002,412;75,93322
 950,25;13712,660;  243,590;17877,258;76,38269
 950,80;13612,813;  190,129;17786,719;76,28003
 951,36;13544,967;  188,975;17675,027;76,38083
 951,91;13670,044;  236,129;17672,027;77,04745
 952,46;13527,737;  207,821;17485,873;77,09153
 953,01;13528,044;  238,283;17504,565;76,96944
 953,56;13392,506;  203,975;17356,642;76,88910
 954,11;13409,967;  221,283;17362,796;76,94002
 954,67;13388,429;  214,898;17186,104;77,62283
 955,22;13299,198;  202,129;17152,181;77,26861
 955,77;13343,044;  238,437;17072,488;77,84583
 956,32;13324,967;  267,283;16949,796;78,27169
 956,87;13140,583;  207,821;16783,565;78,02221
 957,42;13167,275;  210,206;16742,488;78,37435
 957,98;13125,967;  209,821;16680,873;78,41725
 958,53;13152,121;  240,437;16656,335;78,65354
 959,08;13041,275;  216,283;16515,642;78,68403
 959,63;13056,660;  214,283;16453,335;79,08329
 960,18;13022,429;  226,206;16438,873;78,92732
 960,73;12958,429;  214,513;16331,412;79,07176
 961,28;12903,583;  206,975;16188,027;79,44788
 961,83;12921,583;  241,667;16189,565;79,50838
 962,39;12889,275;  200,129;16034,719;80,13561
 962,94;12763,813;  231,360;16000,950;79,47229
 963,49;12666,890;  214,744;15862,104;79,57986
 964,04;12707,506;  232,052;15809,027;80,08907
 964,59;12593,506;  199,975;15702,950;79,94292
 965,14;12641,352;  234,206;15642,412;80,52298
 965,69;12495,813;  220,129;15507,950;80,29715
 966,24;12446,044;  213,437;15436,719;80,35460
 966,79;12340,506;  231,667;15336,258;80,16661
 967,34;12270,044;  199,052;15212,719;80,40003
 967,89;12280,583;  209,590;15114,104;80,98884
 968,44;12201,121;  226,206;15046,565;80,80044
 968,99;12132,275;  229,052;14984,565;80,66966
 969,55;12112,352;  227,283;14903,027;80,98444
 970,10;12033,429;  230,821;14821,642;80,89063
 970,65;11983,198;  233,513;14703,335;81,20131
 971,20;11926,890;  210,052;14610,488;81,36447
 971,75;11797,737;  201,206;14497,181;81,11745
 972,30;11784,429;  225,898;14445,873;81,28376
 972,85;11682,967;  206,513;14366,796;81,04678
 973,40;11572,737;  204,513;14167,565;81,41646
 973,95;11556,352;  224,360;14185,412;81,16861
 974,50;11531,121;  248,360;14086,950;81,53115
 975,05;11462,813;  224,206;13905,642;82,14494
 975,60;11440,044;  227,667;13878,950;82,13424
 976,15;11336,967;  216,052;13755,950;82,13441
 976,70;11282,890;  212,744;13693,335;82,11915
 977,25;11318,429;  228,667;13616,258;82,83613
 977,80;11184,583;  212,975;13398,565;83,20907
 978,35;11085,583;  231,590;13314,796;82,96126
 978,89;11032,506;  194,667;13252,873;82,99638
 979,44;11042,198;  216,744;13219,796;83,25318
 979,99;10890,813;  206,129;13049,488;83,19229
 980,54;10835,044;  236,513;12988,104;83,11536
 981,09;10774,660;  238,437;12832,565;83,65980
 981,64;10725,737;  231,360;12723,488;84,00791
 982,19;10698,121;  253,667;12714,719;83,81679
 982,74;10555,044;  233,667;12564,565;83,70337
 983,29;10457,275;  209,052;12400,027;84,06402
 983,84;10413,044;  228,513;12303,488;84,34411
 984,39;10410,890;  277,437;12298,181;84,29972
 984,94;10247,583;  198,129;12154,719;84,04950
 985,49;10227,737;  248,667;12060,335;84,48485
 986,03;10192,198;  239,206;11997,796;84,64443
 986,58;10071,967;  271,360;11828,565;84,80084
 987,13; 9923,121;  228,898;11728,796;84,29834
 987,68; 9878,121;  239,437;11609,335;84,77371
 988,23; 9841,813;  231,821;11558,027;84,84741
 988,78; 9726,967;  215,283;11352,104;85,40754
 989,33; 9675,890;  235,898;11312,181;85,22708
 989,88; 9674,967;  261,975;11214,412;85,94428
 990,42; 9583,737;  220,667;11102,181;86,04565
 990,97; 9453,737;  220,283;10949,027;86,06276
 991,52; 9397,275;  248,975;10915,027;85,77026
 992,07; 9365,198;  256,667;10801,412;86,37982
 992,62; 9279,890;  241,052;10718,873;86,26639
 993,17; 9193,352;  244,590;10596,104;86,44882
 993,71; 9189,967;  236,744;10508,565;87,16296
 994,26; 9038,890;  220,667;10335,950;87,17723
 994,81; 9014,506;  246,129;10295,027;87,25710
 995,36; 8893,813;  235,052;10137,719;87,43868
 995,91; 8870,737;  228,821;10097,335;87,57059
 996,45; 8741,813;  232,513; 9939,719;87,65962
 997,00; 8680,429;  214,129; 9861,565;87,75699
 997,55; 8651,583;  235,513; 9794,335;88,04505
 998,10; 8546,967;  261,590; 9676,488;88,00283
 998,65; 8499,121;  223,975; 9595,027;88,30541
 999,19; 8410,737;  251,283; 9456,412;88,64030
 999,74; 8316,352;  278,975; 9402,104;88,09891
1000,29; 8270,275;  251,821; 9298,950;88,62982
1000,84; 8162,737;  231,744; 9158,950;88,84070
1001,38; 8086,198;  234,129; 9078,796;88,77744
1001,93; 8037,583;  242,437; 9040,335;88,60237
1002,48; 7886,121;  218,129; 8857,104;88,76044
1003,03; 7905,506;  236,052; 8843,104;89,10663
1003,57; 7795,506;  242,667; 8662,719;89,70062
1004,12; 7683,429;  267,052; 8632,565;88,65417
1004,67; 7585,044;  233,052; 8498,412;88,94945
1005,22; 7467,737;  223,437; 8366,565;88,96212
1005,76; 7377,352;  216,206; 8234,027;89,31536
1006,31; 7344,660;  247,283; 8191,796;89,33684
1006,86; 7258,352;  226,744; 8071,488;89,63463
1007,40; 7113,660;  218,590; 7946,335;89,22486
1007,95; 7085,967;  238,437; 7855,027;89,90284
1008,50; 6945,275;  234,360; 7722,488;89,62073
1009,04; 6907,660;  231,513; 7619,181;90,36880
1009,59; 6823,583;  247,744; 7518,027;90,44818
1010,14; 6685,275;  221,360; 7391,488;90,15062
1010,68; 6569,121;  234,283; 7255,873;90,21942
1011,23; 6504,660;  215,590; 7127,412;90,99005
1011,78; 6479,352;  240,129; 7102,796;90,91542
1012,32; 6372,044;  239,821; 7005,104;90,64253
1012,87; 6363,198;  259,206; 6943,412;91,31963
1013,42; 6266,890;  210,360; 6846,796;91,26179
1013,96; 6299,583;  261,360; 6832,565;91,88912
1014,51; 6167,813;  198,667; 6706,412;91,72374
1015,06; 6192,352;  190,360; 6751,488;91,47804
1015,60; 6320,352;  268,975; 6764,488;93,16241
1016,15; 6262,044;  215,052; 6756,335;92,44353
1016,69; 6290,429;  231,437; 6763,719;92,75459
1017,24; 6324,352;  196,283; 6787,796;92,96908
1017,79; 6366,506;  245,744; 6832,796;92,92111
1018,33; 6351,890;  220,821; 6814,104;92,98963
1018,88; 6459,044;  237,744; 6866,104;93,85882
1019,42; 6485,813;  221,437; 6870,104;94,22004
1019,97; 6460,352;  215,437; 6884,873;93,63483
1020,51; 6532,890;  248,206; 6918,335;94,22134
1021,06; 6477,044;  204,590; 6930,642;93,25610
1021,61; 6500,660;  187,898; 6853,258;94,70999
1022,15; 6460,275;  193,437; 6810,796;94,70301
1022,70; 6438,044;  225,206; 6826,950;94,10905
1023,24; 6418,737;  213,975; 6803,335;94,16335
1023,79; 6359,121;  222,898; 6735,258;94,22427
1024,33; 6307,044;  221,513; 6661,950;94,48941
1024,88; 6274,506;  233,437; 6588,873;95,05357
1025,42; 6215,660;  224,360; 6499,950;95,46990
1025,97; 6146,275;  212,898; 6359,719;96,52757
1026,51; 6002,275;  180,360; 6257,873;95,79436
1027,06; 5984,352;  212,129; 6224,027;96,01332
1027,60; 5880,275;  227,437; 6133,565;95,71140
1028,15; 5821,121;  232,052; 6013,565;96,67139
1028,69; 5697,890;  191,206; 5878,642;96,82191
1029,24; 5637,506;  211,129; 5852,181;96,19442
1029,78; 5541,044;  207,437; 5700,258;97,10143
1030,33; 5484,813;  193,360; 5620,796;97,49453
1030,87; 5408,660;  217,744; 5544,412;97,45147
1031,42; 5350,044;  199,513; 5511,565;96,95935
1031,96; 5297,198;  219,206; 5417,181;97,69174
1032,51; 5207,660;  208,898; 5315,412;97,88991
1033,05; 5156,275;  224,821; 5261,565;97,90955
1033,60; 5070,737;  180,590; 5120,796;98,98669
1034,14; 5022,737;  219,206; 5065,642;99,11469
1034,69; 4973,737;  212,898; 5014,873;99,14334
1035,23; 4881,737;  221,437; 4951,873;98,51733
1035,77; 4864,813;  215,590; 4875,335;99,77421
1036,32; 4774,967;  191,206; 4794,950;99,56595
1036,86; 4763,737;  214,667; 4770,719;99,84674
1037,41; 4675,429;  224,360; 4664,796;100,23945
1037,95; 4589,506;  185,513; 4588,642;100,01961
1038,50; 4532,044;  200,283; 4514,027;100,41767
1039,04; 4508,352;  232,667; 4480,642;100,65230
1039,58; 4450,275;  198,052; 4391,950;101,39071
1040,13; 4343,429;  209,821; 4376,412;99,20840
1040,67; 4379,813;  246,283; 4344,258;100,86764
1041,21; 4289,506;  239,975; 4268,412;100,52363
1041,76; 4195,429;  202,590; 4130,027;101,66526
1042,30; 4176,890;  205,360; 4121,488;101,41471
1042,85; 4104,352;  207,360; 4036,796;101,76412
1043,39; 4021,583;  202,052; 3977,719;101,16174
1043,93; 3999,121;  230,129; 3965,719;100,89415
1044,48; 3905,121;  225,744; 3904,335;100,02138
1045,02; 3884,044;  209,590; 3804,258;102,21958
1045,56; 3842,121;  238,744; 3770,642;102,02381
1046,11; 3785,352;  230,590; 3755,873;100,83621
1046,65; 3734,198;  220,206; 3681,719;101,51607
1047,19; 3687,890;  204,975; 3618,412;102,03545
1047,74; 3619,429;  194,667; 3528,873;102,71596
1048,28; 3572,737;  223,206; 3535,412;101,12689
1048,82; 3546,737;  244,744; 3506,181;101,24349
1049,37; 3485,044;  223,975; 3444,642;101,25446
1049,91; 3419,737;  217,821; 3417,335;100,07507
1050,45; 3414,121;  227,590; 3377,719;101,15557
1050,99; 3357,660;  216,744; 3306,873;101,64351
1051,54; 3301,044;  210,975; 3262,335;101,26860
1052,08; 3273,660;  234,590; 3226,796;101,56618
1052,62; 3216,660;  239,283; 3178,642;101,29339
1053,16; 3180,583;  217,437; 3109,335;102,46371
1053,71; 3145,967;  225,667; 3088,027;102,02422
1054,25; 3104,121;  234,129; 3042,104;102,20861
1054,79; 3054,352;  223,821; 2991,258;102,27988
1055,33; 2978,121;  194,975; 2892,873;103,15980
1055,88; 3008,506;  228,590; 2926,796;103,02829
1056,42; 2950,429;  236,821; 2891,027;102,23803
1056,96; 2909,967;  236,898; 2825,873;103,24817
1057,50; 2862,660;  228,129; 2797,796;102,52420
1058,05; 2816,967;  220,052; 2745,796;102,81783
1058,59; 2822,121;  232,590; 2715,719;104,28499
1059,13; 2715,890;  206,206; 2624,642;103,77302
1059,67; 2726,044;  222,052; 2633,719;103,82826
1060,21; 2660,044;  227,437; 2581,181;103,35055
1060,76; 2653,275;  236,667; 2548,950;104,51178
1061,30; 2644,967;  250,513; 2537,565;104,69609
1061,84; 2570,967;  233,513; 2464,181;104,78720
1062,38; 2492,890;  214,821; 2407,796;103,88031
1062,92; 2520,121;  259,513; 2438,796;103,73173
1063,46; 2455,583;  238,206; 2377,873;103,63186
1064,01; 2438,429;  223,590; 2308,719;106,22070
1064,55; 2417,890;  229,437; 2278,181;106,81928
1065,09; 2320,275;  196,744; 2234,027;104,23349
1065,63; 2361,044;  258,898; 2275,642;104,23464
1066,17; 2364,660;  254,975; 2250,642;105,71324
1066,71; 2297,275;  246,667; 2217,719;104,03621
1067,25; 2222,583;  230,206; 2156,488;103,43118
1067,80; 2266,660;  243,360; 2149,719;106,13422
1068,34; 2251,737;  260,052; 2148,950;105,44161
1068,88; 2160,429;  225,283; 2081,258;104,26574
1069,42; 2163,352;  254,437; 2088,181;104,09933
1069,96; 2099,429;  238,590; 2014,565;104,77842
1070,50; 2127,660;  254,898; 2044,258;104,66099
1071,04; 2079,352;  217,898; 1960,027;106,84938
1071,58; 2041,352;  223,667; 1952,335;105,14948
1072,12; 2042,352;  229,283; 1930,642;106,56590
1072,66; 2015,506;  229,052; 1914,104;106,01773
1073,21; 2049,506;  240,744; 1917,950;107,84375
1073,75; 1984,121;  245,437; 1871,565;106,92170
1074,29; 1954,352;  234,283; 1851,258;106,37575
1074,83; 1952,660;  257,283; 1843,642;106,87217
1075,37; 1947,198;  249,129; 1828,412;107,52155
1075,91; 1929,967;  242,744; 1790,104;109,03885
1076,45; 1883,121;  235,590; 1773,950;107,09660
1076,99; 1863,429;  249,898; 1745,335;107,89697
1077,53; 1835,967;  220,052; 1713,488;108,20114
1078,07; 1815,506;  228,437; 1713,950;106,83641
1078,61; 1804,660;  234,360; 1670,258;109,36013
1079,15; 1781,506;  238,206; 1639,412;110,14085
1079,69; 1771,967;  225,744; 1633,027;109,87295
1080,23; 1749,506;  254,129; 1633,796;108,38678
1080,77; 1761,660;  267,052; 1646,104;108,37936
1081,31; 1668,506;  225,821; 1581,642;106,40670
1081,85; 1698,429;  249,283; 1560,950;110,48123
1082,39; 1652,737;  227,437; 1537,719;108,77805
1082,93; 1670,121;  246,975; 1544,412;109,68908
1083,47; 1617,275;  230,590; 1494,335;109,72826
1084,01; 1607,121;  247,590; 1503,719;108,23179
1084,55; 1602,890;  227,590; 1449,104;112,58984
1085,09; 1588,275;  252,744; 1463,412;110,31361
1085,63; 1560,813;  239,206; 1461,027;108,16703
1086,17; 1550,044;  228,129; 1410,642;111,78861
1086,71; 1524,506;  225,590; 1403,950;110,23081
1087,24; 1535,813;  251,821; 1425,873;109,36418
1087,78; 1518,198;  247,513; 1391,873;111,03893
1088,32; 1453,506;  229,052; 1347,181;109,50919
1088,86; 1468,813;  251,975; 1361,796;109,64275
1089,40; 1440,121;  245,744; 1326,104;110,55364
1089,94; 1423,429;  219,129; 1296,719;111,75861
1090,48; 1396,121;  254,744; 1307,642;108,40336
1091,02; 1417,198;  249,667; 1296,796;111,49829
1091,56; 1378,890;  248,667; 1270,873;110,56708
1092,10; 1359,583;  225,744; 1243,796;111,37334
1092,63; 1381,506;  262,821; 1270,335;111,03421
1093,17; 1344,660;  257,744; 1241,488;110,48760
1093,71; 1336,121;  228,052; 1212,488;112,55873
1094,25; 1320,583;  260,821; 1198,642;113,00252
1094,79; 1309,583;  236,206; 1177,181;114,07072
1095,33; 1277,275;  235,744; 1167,642;111,76445
1095,87; 1271,275;  229,667; 1172,104;110,52285
1096,40; 1247,044;  218,437; 1133,258;112,43812
1096,94; 1243,121;  242,437; 1127,027;113,12407
1097,48; 1212,121;  245,283; 1121,258;110,37284
1098,02; 1223,429;  233,129; 1089,796;115,59914
1098,56; 1164,198;  203,437; 1066,027;111,38097
1099,10; 1162,044;  219,206; 1061,412;111,94871
1099,63; 1133,352;  203,821; 1055,335;109,16219
1100,17; 1156,813;  247,744; 1059,642;111,96839
1100,71; 1156,198;  261,667; 1069,719;110,70214

