
Integration time [ms]: 160,000
Averaging Nr. [scans]: 13
Smoothing Nr. [pixels]: 0
Data measured with spectrometer [name]: 2009305U1
Wave   ;Sample   ;Dark     ;Reference;Reflectance
[nm]   ;[counts] ;[counts] ;[counts] ;[%]

 175,72;  208,617;  229,418;  218,198; 0,00000
 176,32;  227,600;  247,324;  237,064; 0,00000
 176,92;  278,759;  282,567;  286,893;-88,02813
 177,52;  270,481;  284,646;  274,399; 0,00000
 178,12;  252,091;  254,325;  241,865; 0,00000
 178,72;  289,483;  275,244;  276,001; 0,00000
 179,32;  266,360;  261,786;  258,781; 0,00000
 179,92;  274,737;  278,869;  251,920; 0,00000
 180,52;  256,995;  255,811;  277,718; 5,40290
 181,12;  265,161;  278,332;  268,649; 0,00000
 181,73;  287,325;  290,564;  290,175; 0,00000
 182,33;  405,281;  402,420;  408,394;47,88977
 182,93;  294,904;  294,107;  293,730; 0,00000
 183,53;  259,223;  256,318;  235,234; 0,00000
 184,13;  252,608;  253,474;  234,768; 0,00000
 184,73;  307,107;  299,777;  296,521; 0,00000
 185,33;  285,203;  249,219;  394,412;24,78384
 185,93;  296,987;  257,437;  398,196;28,09744
 186,53;  316,355;  257,444;  408,744;38,93656
 187,13;  329,033;  295,841;  447,866;21,83300
 187,73;  284,266;  263,439;  415,930;13,65810
 188,33;  295,475;  252,817;  387,713;31,62312
 188,93;  303,313;  266,334;  405,484;26,57493
 189,53;  297,605;  260,856;  424,072;22,51524
 190,13;  330,431;  306,061;  440,384;18,14304
 190,73;  278,352;  243,156;  383,350;25,10498
 191,34;  317,138;  274,020;  434,912;26,79888
 191,94;  282,675;  254,656;  418,799;17,06952
 192,54;  314,306;  254,543;  439,983;32,22763
 193,14;  320,523;  280,840;  434,086;25,89490
 193,74;  310,762;  281,145;  439,295;18,72714
 194,34;  306,697;  269,151;  426,370;23,88159
 194,94;  265,869;  235,994;  407,340;17,43560
 195,54;  254,915;  210,604;  369,546;27,87878
 196,14;  271,467;  229,307;  405,012;23,99492
 196,74;  263,741;  235,447;  389,416;18,37624
 197,34;  255,855;  209,854;  390,907;25,40764
 197,94;  275,398;  244,611;  415,716;17,99339
 198,54;  303,996;  264,076;  430,267;24,02041
 199,14;  254,039;  235,166;  427,949; 9,79019
 199,74;  263,155;  219,012;  431,925;20,73282
 200,34;  248,271;  204,475;  426,377;19,73659
 200,94;  285,758;  249,390;  481,453;15,67167
 201,54;  259,683;  224,471;  476,646;13,96319
 202,14;  314,378;  277,325;  536,358;14,30447
 202,74;  268,280;  231,473;  536,970;12,04814
 203,34;  256,736;  205,022;  546,256;15,15489
 203,94;  229,417;  179,018;  534,318;14,18487
 204,54;  311,716;  264,073;  653,213;12,24312
 205,14;  256,876;  208,396;  657,051;10,80557
 205,74;  313,582;  250,253;  756,379;12,51252
 206,34;  279,791;  218,940;  763,868;11,16690
 206,94;  293,945;  223,861;  851,748;11,16180
 207,54;  262,532;  188,631;  867,836;10,88038
 208,14;  294,176;  213,325;  963,005;10,78474
 208,74;  293,462;  217,319; 1048,173; 9,16448
 209,34;  298,559;  216,013; 1146,059; 8,87552
 209,94;  311,088;  227,781; 1279,593; 7,92028
 210,54;  325,033;  219,558; 1358,793; 9,25840
 211,14;  325,011;  228,396; 1514,178; 7,51405
 211,73;  324,596;  235,547; 1640,996; 6,33597
 212,33;  355,412;  237,159; 1758,938; 7,77070
 212,93;  353,077;  229,472; 1894,450; 7,42384
 213,53;  327,193;  192,088; 1929,919; 7,77434
 214,13;  372,901;  213,796; 2031,963; 8,75086
 214,73;  341,916;  200,248; 2041,666; 7,69346
 215,33;  327,088;  189,320; 2081,131; 7,28233
 215,93;  378,178;  215,329; 2230,476; 8,08123
 216,53;  338,914;  184,549; 2297,215; 7,30666
 217,13;  436,139;  238,327; 2533,410; 8,61892
 217,73;  406,793;  212,945; 2767,506; 7,58833
 218,33;  378,305;  167,413; 2966,387; 7,53464
 218,93;  456,926;  202,194; 3334,968; 8,13117
 219,53;  490,806;  198,875; 3666,979; 8,41760
 220,13;  483,095;  166,877; 4026,440; 8,19310
 220,73;  525,549;  200,859; 4398,392; 7,73527
 221,32;  563,308;  205,011; 4901,481; 7,62908
 221,92;  613,201;  204,723; 5372,536; 7,90427
 222,52;  644,361;  184,484; 5861,538; 8,10063
 223,12;  707,707;  198,946; 6366,852; 8,24852
 223,72;  732,823;  201,639; 6820,752; 8,02500
 224,32;  789,419;  205,640; 7315,632; 8,21069
 224,92;  807,323;  191,639; 7653,451; 8,25113
 225,52;  864,675;  216,861; 8058,109; 8,26162
 226,12;  874,244;  202,635; 8394,150; 8,19884
 226,72;  918,331;  178,403; 8818,142; 8,56423
 227,31;  938,234;  161,249; 9288,269; 8,51302
 227,91; 1026,550;  205,091; 9795,790; 8,56516
 228,51; 1066,720;  184,622;10198,182; 8,80904
 229,11; 1107,763;  188,172;10644,726; 8,79440
 229,71; 1141,097;  181,856;11067,447; 8,81202
 230,31; 1187,305;  180,719;11517,374; 8,87904
 230,91; 1214,863;  171,926;11911,197; 8,88417
 231,51; 1295,082;  180,868;12242,326; 9,23780
 232,10; 1338,786;  177,259;12643,414; 9,31745
 232,70; 1418,697;  207,766;12859,370; 9,57136
 233,30; 1472,985;  220,867;13193,393; 9,65208
 233,90; 1484,274;  178,251;13313,674; 9,94275
 234,50; 1530,841;  181,560;13436,659;10,17934
 235,10; 1588,246;  187,870;13455,913;10,55450
 235,70; 1648,963;  210,244;13468,454;10,85153
 236,29; 1672,760;  202,857;13436,168;11,10760
 236,89; 1656,623;  166,004;13193,436;11,44216
 237,49; 1712,158;  205,942;13088,252;11,69212
 238,09; 1697,330;  178,863;12729,099;12,09911
 238,69; 1748,429;  232,000;12505,680;12,35513
 239,29; 1709,599;  194,400;12046,908;12,78378
 239,89; 1715,334;  208,927;11575,386;13,25309
 240,48; 1691,464;  175,940;11134,687;13,82936
 241,08; 1675,233;  197,092;10682,952;14,09652
 241,68; 1678,186;  212,710;10272,873;14,56712
 242,28; 1644,341;  186,174; 9848,284;15,09160
 242,88; 1673,170;  233,873; 9478,401;15,56918
 243,48; 1671,658;  238,558; 9155,891;16,07095
 244,07; 1630,377;  211,321; 8855,609;16,41610
 244,67; 1674,638;  221,018; 8693,035;17,15790
 245,27; 1657,904;  210,547; 8466,303;17,53148
 245,87; 1696,516;  224,333; 8363,749;18,08708
 246,47; 1739,077;  202,009; 8352,176;18,85934
 247,06; 1721,666;  199,016; 8320,626;18,74813
 247,66; 1765,849;  191,171; 8410,748;19,15765
 248,26; 1836,798;  218,702; 8598,777;19,30885
 248,86; 1892,308;  217,702; 8812,360;19,48427
 249,46; 1941,812;  164,406; 9031,811;20,04427
 250,05; 2079,387;  212,478; 9546,119;20,00194
 250,65; 2144,865;  184,931; 9989,959;19,98907
 251,25; 2251,781;  188,322;10490,127;20,03007
 251,85; 2411,075;  203,234;11125,846;20,21348
 252,44; 2532,674;  174,934;11908,685;20,09366
 253,04; 2741,165;  200,089;12810,007;20,15140
 253,64; 2858,970;  157,468;13680,640;19,97684
 254,24; 3136,733;  208,247;14831,835;20,02577
 254,84; 3340,505;  189,791;15996,734;19,93247
 255,43; 3529,299;  186,396;17244,536;19,59711
 256,03; 3798,316;  196,930;18451,646;19,72853
 256,63; 4021,604;  194,927;19808,871;19,50998
 257,23; 4214,229;  178,235;20871,414;19,50398
 257,82; 4486,832;  198,998;22198,232;19,49083
 258,42; 4628,648;  166,765;23334,204;19,25929
 259,02; 4852,963;  212,705;24592,594;19,03314
 259,62; 4994,667;  176,994;25547,111;18,98956
 260,21; 5113,068;  200,011;26211,736;18,88786
 260,81; 5176,321;  196,096;26980,120;18,59401
 261,41; 5248,967;  172,536;27633,684;18,48586
 262,01; 5333,041;  218,838;28229,601;18,25799
 262,60; 5352,306;  167,543;28838,491;18,08368
 263,20; 5397,394;  187,316;29286,737;17,90440
 263,80; 5379,993;  208,914;29662,957;17,55643
 264,40; 5322,234;  174,531;29839,945;17,35254
 264,99; 5362,954;  204,914;30127,181;17,23813
 265,59; 5324,316;  187,367;30316,259;17,04991
 266,19; 5312,262;  183,299;30574,780;16,87632
 266,78; 5320,982;  227,602;30823,865;16,64706
 267,38; 5226,144;  199,753;30828,429;16,41073
 267,98; 5159,751;  192,603;30871,434;16,19080
 268,58; 5148,817;  196,753;30913,172;16,12188
 269,17; 5080,478;  186,516;31023,779;15,87029
 269,77; 4992,968;  201,002;30754,570;15,68382
 270,37; 4892,521;  168,606;30671,922;15,48656
 270,96; 4842,130;  229,614;30454,950;15,26043
 271,56; 4745,123;  193,080;30122,767;15,20912
 272,16; 4606,861;  188,151;29971,268;14,83629
 272,75; 4572,640;  188,920;29859,965;14,77440
 273,35; 4524,179;  179,999;29843,931;14,64465
 273,95; 4499,217;  193,998;29778,711;14,55217
 274,54; 4421,108;  180,016;29810,629;14,31321
 275,14; 4474,400;  226,384;30186,602;14,17886
 275,74; 4396,120;  164,535;30271,039;14,05538
 276,33; 4473,016;  220,463;30851,261;13,88326
 276,93; 4518,705;  202,095;31279,415;13,88991
 277,53; 4554,260;  190,549;31882,683;13,76907
 278,12; 4629,239;  169,159;32492,142;13,79848
 278,72; 4795,750;  255,856;33285,317;13,74498
 279,32; 4837,779;  199,702;33862,874;13,77790
 279,91; 4935,259;  173,008;34771,549;13,76431
 280,51; 5073,097;  192,242;35427,430;13,85222
 281,11; 5193,240;  184,238;36405,369;13,82895
 281,70; 5286,316;  173,006;36799,693;13,96061
 282,30; 5453,354;  186,773;37647,075;14,05910
 282,90; 5581,709;  174,080;38160,150;14,23582
 283,49; 5770,756;  196,923;38818,062;14,43208
 284,09; 5856,451;  230,929;39352,713;14,37951
 284,69; 6029,634;  223,932;39716,819;14,70063
 285,28; 6164,951;  196,621;40272,352;14,89263
 285,88; 6340,755;  278,227;40575,343;15,04457
 286,47; 6403,824;  194,311;40555,943;15,38469
 287,07; 6603,279;  211,547;40682,282;15,79347
 287,67; 6774,888;  225,865;40858,814;16,11752
 288,26; 6907,452;  191,316;40795,817;16,54037
 288,86; 7165,403;  187,468;40802,177;17,18081
 289,46; 7377,951;  220,931;40964,118;17,56618
 290,05; 7653,512;  187,245;40945,997;18,31819
 290,65; 8010,516;  193,541;41352,190;18,99230
 291,24; 8344,029;  203,010;41512,007;19,70762
 291,84; 8625,065;  209,004;41660,409;20,30344
 292,44; 8968,966;  194,866;41800,490;21,08873
 293,03; 9328,789;  279,856;41934,340;21,72379
 293,63; 9580,305;  197,157;42113,662;22,38533
 294,22; 9904,249;  219,315;42371,190;22,97628
 294,82;10090,686;  190,608;42256,231;23,53484
 295,41;10267,393;  180,237;41928,693;24,16175
 296,01;10463,062;  233,996;41937,898;24,52784
 296,61;10554,442;  229,163;41649,594;24,92799
 297,20;10621,033;  200,458;41109,418;25,47260
 297,80;10718,714;  215,554;40879,116;25,82941
 298,39;10712,844;  172,773;40404,615;26,19833
 298,99;10770,688;  235,152;40273,823;26,31340
 299,58;10847,215;  220,556;39970,212;26,73396
 300,18;10807,906;  227,399;39835,925;26,71270
 300,78;10792,318;  203,012;39324,178;27,06797
 301,37;10873,348;  222,835;39327,758;27,23573
 301,97;10876,086;  213,469;39294,553;27,28332
 302,56;10911,488;  195,849;39240,911;27,44429
 303,16;10952,035;  179,616;39095,766;27,68110
 303,75;10961,444;  194,090;39022,882;27,73033
 304,35;11057,582;  187,023;39371,209;27,74221
 304,94;11128,384;  191,470;39363,454;27,92025
 305,54;11156,539;  209,165;39364,788;27,95863
 306,13;11124,977;  164,100;39235,829;28,05322
 306,73;11104,937;  179,251;38959,642;28,17322
 307,33;11077,715;  195,249;38958,373;28,07427
 307,92;11064,654;  215,241;38898,444;28,04683
 308,52;11254,871;  181,231;39535,145;28,13860
 309,11;11484,389;  201,918;40084,403;28,28929
 309,71;11577,589;  187,145;40497,883;28,25660
 310,30;11707,952;  183,009;40684,285;28,45575
 310,90;11882,952;  233,086;41231,208;28,41561
 311,49;11906,692;  207,932;41350,330;28,43480
 312,09;11999,464;  162,246;41476,721;28,65150
 312,68;12205,885;  271,011;41986,611;28,61010
 313,28;12169,346;  165,548;42091,290;28,63109
 313,87;12177,721;  163,547;42363,178;28,46985
 314,47;12338,966;  185,073;42609,624;28,64825
 315,06;12390,395;  173,318;42638,934;28,76934
 315,66;12445,925;  188,861;42994,336;28,63434
 316,25;12439,295;  156,771;42865,028;28,75913
 316,85;12388,435;  150,477;42884,519;28,63749
 317,44;12485,639;  191,765;43146,152;28,62076
 318,04;12434,728;  167,388;43057,638;28,60170
 318,63;12380,100;  161,558;43115,078;28,44596
 319,22;12487,007;  182,310;43434,931;28,44844
 319,82;12488,739;  184,082;43397,964;28,47385
 320,41;12473,709;  197,772;43284,244;28,49140
 321,01;12494,858;  192,399;43511,944;28,39933
 321,60;12449,422;  197,698;43642,096;28,20093
 322,20;12469,414;  178,856;43518,037;28,35900
 322,79;12490,635;  215,010;43654,986;28,25882
 323,39;12405,351;  183,022;43572,225;28,16906
 323,98;12433,539;  172,857;43633,481;28,21101
 324,58;12426,881;  181,077;43447,351;28,30335
 325,17;12361,680;  189,848;43201,366;28,29901
 325,76;12286,048;  208,239;43122,636;28,14395
 326,36;12144,290;  177,937;42593,788;28,21198
 326,95;12032,893;  209,775;42178,563;28,17122
 327,55;11946,989;  171,005;41915,346;28,20977
 328,14;11718,070;  171,786;41348,251;28,04098
 328,74;11663,295;  206,695;40829,011;28,20273
 329,33;11553,925;  194,167;40315,939;28,31320
 329,92;11341,995;  178,380;39660,305;28,27525
 330,52;11114,243;  194,017;38900,769;28,21272
 331,11;11003,431;  186,006;38444,687;28,27443
 331,71;10690,567;  186,777;37666,472;28,02528
 332,30;10622,000;  198,547;37106,531;28,24173
 332,89;10486,896;  264,551;36426,984;28,26786
 333,49;10264,980;  196,237;35823,230;28,26156
 334,08;10051,441;  183,466;35198,217;28,18233
 334,68; 9964,854;  181,313;34737,295;28,31215
 335,27; 9827,013;  206,172;34311,321;28,20935
 335,86; 9776,277;  263,852;33898,764;28,28140
 336,46; 9659,773;  201,942;33572,761;28,34162
 337,05; 9618,489;  184,775;33453,737;28,35590
 337,65; 9562,633;  170,390;33172,347;28,45965
 338,24; 9617,972;  233,626;33140,248;28,51811
 338,83; 9593,260;  211,550;33125,328;28,50390
 339,43; 9581,132;  174,694;32976,622;28,67648
 340,02; 9558,439;  179,001;32831,100;28,72538
 340,61; 9600,308;  190,472;32885,805;28,78037
 341,21; 9629,526;  209,848;32927,934;28,79043
 341,80; 9633,729;  187,697;32862,882;28,90889
 342,40; 9696,609;  183,171;33024,003;28,96832
 342,99; 9779,588;  184,013;33101,753;29,15016
 343,58; 9833,002;  188,706;33248,554;29,17223
 344,18; 9898,665;  214,476;33488,535;29,10432
 344,77;10015,102;  186,847;33746,098;29,28628
 345,36;10171,662;  179,622;34210,255;29,36190
 345,96;10284,867;  218,090;34584,196;29,29275
 346,55;10393,726;  169,792;34774,204;29,54518
 347,14;10522,792;  177,556;35169,313;29,56478
 347,74;10737,585;  155,568;35698,813;29,77223
 348,33;11000,921;  189,490;36480,186;29,79119
 348,92;11219,577;  199,034;37188,955;29,79337
 349,52;11371,095;  162,185;37759,932;29,81272
 350,11;11497,746;  187,231;38005,963;29,90718
 350,70;11544,433;  177,933;38194,188;29,89905
 351,29;11503,655;  169,833;37901,223;30,03818
 351,89;11569,917;  198,918;37840,505;30,20861
 352,48;11574,096;  158,933;37923,879;30,22688
 353,07;11593,763;  200,019;37836,555;30,27310
 353,67;11550,250;  203,573;37818,604;30,16527
 354,26;11500,340;  190,248;37412,595;30,38522
 354,85;11527,464;  196,400;37287,366;30,54939
 355,45;11400,969;  169,773;36975,643;30,51469
 356,04;11412,658;  178,173;36930,767;30,56787
 356,63;11368,653;  218,084;36670,003;30,58980
 357,22;11331,569;  187,605;36525,690;30,66745
 357,82;11272,628;  187,300;36305,305;30,69197
 358,41;11249,048;  211,700;36129,991;30,72904
 359,00;11222,603;  175,463;35840,289;30,97489
 359,60;11204,501;  187,242;35775,735;30,95736
 360,19;11182,822;  216,405;35547,956;31,03859
 360,78;11145,921;  190,697;35462,705;31,05926
 361,37;11093,191;  182,313;35141,143;31,21065
 361,97;11052,547;  193,161;35077,292;31,12987
 362,56;11013,467;  176,923;34711,396;31,37892
 363,15;10921,142;  258,697;34372,239;31,25576
 363,74;10805,553;  198,766;33926,345;31,44841
 364,34;10670,708;  207,078;33405,107;31,51883
 364,93;10477,707;  197,383;32948,157;31,38956
 365,52;10367,124;  165,313;32451,071;31,59848
 366,11;10291,228;  184,771;32152,418;31,61464
 366,71;10150,930;  190,463;31649,470;31,66173
 367,30;10045,335;  186,083;31259,152;31,72925
 367,89; 9962,954;  235,630;30917,492;31,70383
 368,48; 9946,015;  207,767;30607,452;32,03404
 369,07; 9671,664;  190,856;30016,803;31,78711
 369,67; 9624,188;  220,460;29658,538;31,94410
 370,26; 9528,202;  180,010;29287,910;32,11565
 370,85; 9472,345;  197,006;29025,096;32,17466
 371,44; 9395,643;  205,315;28760,135;32,18486
 372,03; 9326,257;  169,848;28417,774;32,41445
 372,63; 9207,941;  165,160;28050,514;32,42842
 373,22; 9131,865;  185,625;27649,618;32,57444
 373,81; 9010,643;  163,544;27247,045;32,66601
 374,40; 8942,387;  176,940;26994,687;32,68525
 374,99; 8886,479;  182,466;26691,749;32,83383
 375,59; 8761,570;  168,708;26274,783;32,91518
 376,18; 8786,412;  210,543;26161,600;33,04632
 376,77; 8728,836;  205,315;25873,834;33,20613
 377,36; 8716,777;  211,236;25865,787;33,15412
 377,95; 8610,084;  211,618;25474,807;33,24389
 378,55; 8609,627;  182,399;25254,559;33,61190
 379,14; 8630,768;  207,390;25162,581;33,75401
 379,73; 8596,699;  198,310;25007,145;33,85241
 380,32; 8671,403;  202,623;25112,805;33,99726
 380,91; 8627,967;  170,075;24888,560;34,21687
 381,50; 8659,198;  203,307;24793,450;34,38732
 382,10; 8606,326;  184,623;24709,574;34,33933
 382,69; 8618,739;  160,236;24621,657;34,57895
 383,28; 8697,833;  215,616;24566,383;34,83347
 383,87; 8601,968;  175,078;24428,279;34,74548
 384,46; 8651,176;  175,762;24306,925;35,12228
 385,05; 8663,189;  210,923;24303,782;35,08204
 385,64; 8733,459;  188,925;24339,572;35,38014
 386,24; 8738,945;  173,993;24220,203;35,61872
 386,83; 8836,762;  213,376;24279,449;35,83213
 387,42; 8890,382;  197,156;24403,679;35,91274
 388,01; 9013,741;  197,447;24638,078;36,07228
 388,60; 9185,821;  193,764;24934,295;36,34545
 389,19; 9367,131;  172,669;25258,789;36,65159
 389,78; 9482,940;  184,055;25516,348;36,70763
 390,37; 9795,877;  255,912;26044,630;36,99278
 390,96; 9853,570;  200,915;26216,686;37,10309
 391,56; 9994,409;  200,281;26377,838;37,41422
 392,15;10142,056;  177,672;26689,722;37,58436
 392,74;10245,231;  158,346;26904,368;37,71359
 393,33;10501,745;  194,357;27212,750;38,14952
 393,92;10720,931;  200,648;27681,721;38,28192
 394,51;10847,524;  182,049;27977,079;38,37188
 395,10;11053,915;  211,631;28227,249;38,70085
 395,69;11176,819;  203,633;28372,249;38,95536
 396,28;11275,604;  201,932;28554,213;39,05743
 396,87;11415,608;  204,993;28611,242;39,46531
 397,46;11554,652;  230,983;28729,041;39,73488
 398,06;11735,099;  224,739;29018,224;39,97557
 398,65;11801,221;  197,247;29080,013;40,17612
 399,24;11991,575;  225,319;29277,343;40,50064
 399,83;12051,192;  201,504;29253,316;40,78812
 400,42;12211,272;  249,694;29454,467;40,95761
 401,01;12344,994;  206,262;29571,044;41,33772
 401,60;12468,979;  222,507;29610,593;41,67155
 402,19;12547,661;  253,918;29605,829;41,88396
 402,78;12596,092;  257,379;29615,856;42,02777
 403,37;12649,957;  232,074;29390,074;42,58825
 403,96;12606,126;  232,065;29203,943;42,71059
 404,55;12662,761;  247,353;29138,663;42,97281
 405,14;12688,073;  229,419;28996,034;43,30942
 405,73;12787,946;  250,240;28785,954;43,93689
 406,32;12793,217;  248,325;28829,577;43,89203
 406,91;12710,407;  229,322;28451,200;44,22486
 407,50;12806,545;  254,897;28207,094;44,90398
 408,09;12658,736;  222,484;27879,689;44,96569
 408,68;12691,555;  237,694;27691,801;45,36247
 409,27;12720,036;  226,489;27477,721;45,84581
 409,86;12692,262;  230,936;27355,978;45,94030
 410,45;12800,504;  287,296;27271,554;46,37225
 411,04;12835,265;  269,734;27202,348;46,65545
 411,63;12698,802;  252,034;26878,885;46,74517
 412,22;12629,558;  268,790;26535,489;47,05870
 412,81;12534,307;  276,966;26290,545;47,11901
 413,40;12419,376;  284,841;25837,152;47,48899
 413,99;12332,141;  330,601;25452,504;47,77321
 414,58;12189,480;  253,761;25010,712;48,21159
 415,17;12109,038;  263,735;24729,214;48,41639
 415,76;12117,403;  251,095;24579,646;48,77523
 416,35;12075,869;  252,954;24283,150;49,20024
 416,94;12228,155;  286,332;24360,672;49,60395
 417,53;12397,586;  249,891;24573,694;49,94160
 418,12;12589,464;  245,897;24618,826;50,64458
 418,71;12839,126;  280,611;25197,185;50,40225
 419,30;12993,839;  254,899;25198,617;51,07074
 419,89;13227,293;  246,443;25463,049;51,47739
 420,48;13508,943;  279,765;25830,983;51,77514
 421,07;13629,830;  280,154;25884,029;52,13928
 421,66;13718,268;  235,860;25955,515;52,42064
 422,25;13777,229;  257,346;25951,341;52,61885
 422,84;13842,866;  279,967;25945,006;52,84582
 423,43;13770,833;  257,033;25663,928;53,18950
 424,02;13650,642;  285,268;25298,897;53,43237
 424,60;13451,327;  261,452;24734,056;53,89649
 425,19;13328,369;  283,052;24393,754;54,10592
 425,78;13333,870;  281,284;24327,975;54,28017
 426,37;13316,211;  282,911;24127,053;54,66039
 426,96;13361,172;  266,603;23974,029;55,23404
 427,55;13333,140;  259,005;23815,088;55,50216
 428,14;13215,538;  258,551;23559,774;55,60647
 428,73;13154,657;  267,075;23287,640;55,98291
 429,32;13250,931;  274,524;23272,549;56,42401
 429,91;13303,100;  299,153;23243,981;56,67485
 430,50;13237,401;  285,469;23069,501;56,84653
 431,08;13167,222;  283,170;22903,070;56,95892
 431,67;13237,341;  334,024;22792,481;57,45415
 432,26;13131,988;  344,647;22547,502;57,59323
 432,85;12942,506;  386,491;22187,710;57,59318
 433,44;12734,347;  379,580;21718,486;57,89785
 434,03;12545,709;  403,364;21306,430;58,08882
 434,62;12379,953;  357,811;20804,187;58,79840
 435,21;12243,583;  383,954;20490,492;58,98395
 435,79;12186,360;  358,666;20361,246;59,13084
 436,38;12158,116;  352,374;20228,135;59,39769
 436,97;12095,242;  352,991;20041,745;59,63938
 437,56;11984,578;  355,168;19805,014;59,79179
 438,15;11989,287;  327,854;19799,419;59,88955
 438,74;12045,596;  357,703;19760,262;60,23893
 439,33;12098,547;  327,469;19699,053;60,76466
 439,91;12158,791;  293,094;19851,305;60,66862
 440,50;12316,272;  332,326;19867,853;61,34437
 441,09;12418,720;  329,031;20012,283;61,42119
 441,68;12389,792;  312,968;20047,796;61,19549
 442,27;12482,626;  298,193;20008,998;61,81601
 442,86;12474,541;  268,683;20081,605;61,60554
 443,44;12560,501;  290,908;20002,114;62,24679
 444,03;12694,253;  369,145;20137,200;62,34861
 444,62;12604,397;  290,914;19968,456;62,57633
 445,21;12552,665;  308,603;19693,269;63,16365
 445,80;12507,508;  342,465;19650,624;63,00468
 446,39;12359,132;  379,924;19356,495;63,12630
 446,97;12214,081;  285,403;19073,511;63,49058
 447,56;12125,279;  284,955;18837,714;63,81975
 448,15;11970,725;  309,711;18571,175;63,85586
 448,74;11875,697;  310,789;18309,447;64,25428
 449,33;11796,105;  291,875;18160,537;64,38216
 449,91;11621,524;  297,891;17911,299;64,28985
 450,50;11547,850;  303,503;17637,654;64,86817
 451,09;11470,004;  314,351;17553,390;64,71157
 451,68;11422,516;  331,896;17358,424;65,13730
 452,26;11374,490;  330,287;17250,566;65,27199
 452,85;11326,498;  319,206;17151,501;65,39389
 453,44;11379,449;  327,842;17136,235;65,75052
 454,03;11399,223;  296,753;17099,659;66,07470
 454,61;11363,920;  304,151;17035,993;66,10013
 455,20;11549,375;  334,620;17301,084;66,09954
 455,79;11539,255;  334,223;17270,018;66,16183
 456,38;11662,774;  335,323;17334,704;66,63449
 456,97;11735,436;  302,935;17474,030;66,57992
 457,55;11771,430;  308,559;17483,395;66,74224
 458,14;11785,444;  356,163;17442,594;66,89098
 458,73;11727,594;  320,407;17325,922;67,07934
 459,31;11820,829;  343,189;17423,811;67,19685
 459,90;11927,769;  366,797;17490,156;67,51579
 460,49;12053,585;  430,486;17571,606;67,80828
 461,08;12084,014;  334,118;17691,511;67,69390
 461,66;12144,041;  326,342;17819,062;67,55781
 462,25;12247,795;  332,047;17869,693;67,94383
 462,84;12344,101;  356,196;17989,499;67,98446
 463,43;12282,330;  307,368;17879,081;68,14908
 464,01;12324,332;  326,836;17915,549;68,21134
 464,60;12373,770;  382,825;17826,061;68,74266
 465,19;12128,785;  311,609;17556,814;68,52442
 465,77;12127,067;  328,154;17580,033;68,39205
 466,36;12077,339;  364,753;17407,748;68,72375
 466,95;11804,378;  329,908;17026,046;68,72530
 467,53;11574,031;  339,469;16753,644;68,44427
 468,12;11356,042;  366,856;16387,586;68,59354
 468,71;11144,969;  340,918;16047,060;68,78870
 469,29;10932,715;  323,242;15741,525;68,81099
 469,88;10738,872;  340,401;15485,809;68,65758
 470,47;10885,251;  401,951;15586,201;69,04062
 471,06;10795,049;  339,414;15519,925;68,87538
 471,64;10945,567;  363,102;15704,611;68,97930
 472,23;10981,124;  330,126;15640,551;69,56697
 472,81;11033,139;  316,422;15786,318;69,27466
 473,40;11183,817;  325,588;15978,350;69,36941
 473,99;11399,836;  446,895;16199,915;69,52915
 474,57;11437,711;  347,664;16243,164;69,76847
 475,16;11623,236;  362,579;16521,341;69,68763
 475,75;11698,705;  373,596;16626,222;69,68172
 476,33;11798,016;  369,451;16768,516;69,69035
 476,92;11815,856;  366,897;16829,755;69,54418
 477,51;11949,476;  372,139;16902,322;70,03756
 478,09;11911,976;  363,601;16982,606;69,48897
 478,68;11862,583;  367,605;16808,872;69,91540
 479,27;12017,570;  402,366;16917,741;70,32965
 479,85;11963,025;  364,912;16913,123;70,08681
 480,44;12077,469;  339,455;17056,628;70,21531
 481,02;13141,338;  380,540;18513,781;70,37241
 481,61;14903,365;  398,690;21025,696;70,31886
 482,20;16004,617;  390,540;22425,425;70,86072
 482,78;16808,949;  413,222;23457,996;71,14727
 483,37;17221,593;  416,091;24077,235;71,02574
 483,95;17529,151;  443,709;24441,950;71,19456
 484,54;17703,201;  438,996;24717,477;71,10908
 485,13;17582,386;  406,796;24580,842;71,04971
 485,71;17374,087;  391,946;24299,731;71,03185
 486,30;17166,125;  423,254;24015,246;70,96845
 486,88;16890,732;  490,333;23631,682;70,87054
 487,47;16236,724;  449,413;22763,964;70,74895
 488,05;15553,793;  431,648;21754,751;70,91906
 488,64;14476,431;  422,427;20199,995;71,06032
 489,23;12935,515;  447,189;18030,057;71,02553
 489,81;11046,526;  441,731;15402,136;70,88575
 490,40;10486,776;  391,656;14590,975;71,09581
 490,98;10240,451;  385,275;14267,450;70,99159
 491,57;10193,881;  412,729;14131,813;71,29595
 492,15;10078,798;  388,431;14086,901;70,74051
 492,74;10025,399;  382,111;13926,221;71,19912
 493,32; 9974,393;  408,659;13829,647;71,27444
 493,91; 9880,501;  376,820;13679,484;71,44194
 494,50; 9840,950;  383,683;13664,540;71,20977
 495,08; 9734,969;  366,220;13605,891;70,76270
 495,67; 9759,107;  394,434;13563,727;71,10991
 496,25; 9587,601;  335,136;13466,176;70,46255
 496,84; 9651,212;  349,664;13420,976;71,16002
 497,42; 9525,458;  341,062;13343,746;70,63462
 498,01; 9504,030;  373,974;13274,048;70,77523
 498,59; 9429,314;  334,140;13162,195;70,90065
 499,18; 9421,060;  333,513;13136,494;70,97993
 499,76; 9329,957;  372,982;13043,589;70,69097
 500,35; 9198,038;  357,225;12773,862;71,20135
 500,93; 9120,967;  334,600;12779,560;70,60181
 501,52; 9091,420;  337,679;12588,629;71,45357
 502,10; 9045,695;  335,078;12636,336;70,81078
 502,69; 8859,043;  326,930;12413,289;70,59292
 503,27; 8704,749;  332,683;12229,110;70,37462
 503,86; 8654,398;  339,235;12150,983;70,39740
 504,44; 8514,400;  312,010;12010,806;70,11312
 505,03; 8286,795;  302,241;11632,165;70,47314
 505,61; 8253,399;  309,239;11502,732;70,97124
 506,19; 8067,477;  328,933;11342,775;70,26198
 506,78; 7930,001;  307,714;11183,407;70,08553
 507,36; 7773,563;  316,855;10923,259;70,30383
 507,95; 7644,753;  320,258;10747,971;70,24067
 508,53; 7551,405;  312,176;10596,711;70,38946
 509,12; 7418,512;  317,872;10401,645;70,41650
 509,70; 7290,148;  342,028;10229,006;70,27546
 510,29; 7169,535;  359,342;10023,243;70,47043
 510,87; 7019,847;  313,714; 9835,838;70,42686
 511,46; 6872,281;  300,563; 9684,786;70,02943
 512,04; 6718,428;  303,492; 9522,309;69,58524
 512,62; 6587,858;  324,178; 9324,609;69,59311
 513,21; 6484,333;  300,420; 9118,737;70,12578
 513,79; 6328,850;  306,592; 8968,660;69,52449
 514,38; 6247,617;  295,586; 8798,316;70,00141
 514,96; 6142,886;  334,431; 8726,279;69,21544
 515,54; 6012,570;  290,589; 8437,575;70,23433
 516,13; 5975,330;  326,206; 8373,229;70,20142
 516,71; 5817,016;  307,829; 8248,457;69,37974
 517,30; 5654,076;  299,066; 8153,958;68,17420
 517,88; 5627,682;  325,220; 8019,184;68,91717
 518,46; 5499,414;  287,839; 7865,909;68,77180
 519,05; 5447,320;  291,382; 7837,551;68,32523
 519,63; 5388,771;  308,072; 7737,088;68,38993
 520,22; 5343,237;  326,853; 7659,763;68,40919
 520,80; 5270,266;  293,469; 7557,517;68,51272
 521,38; 5291,493;  365,230; 7530,946;68,74768
 521,97; 5209,710;  307,013; 7503,851;68,12294
 522,55; 5192,835;  313,321; 7471,465;68,16732
 523,13; 5182,472;  301,171; 7455,608;68,22760
 523,72; 5137,635;  300,915; 7425,904;67,88389
 524,30; 5255,695;  333,176; 7581,887;67,90889
 524,89; 5236,124;  280,937; 7519,759;68,45295
 525,47; 5312,782;  321,563; 7685,089;67,78301
 526,05; 5311,860;  279,718; 7762,102;67,25318
 526,64; 5422,111;  328,952; 7877,186;67,47485
 527,22; 5500,965;  323,717; 8028,138;67,19841
 527,80; 5607,226;  366,490; 8103,564;67,73538
 528,39; 5634,189;  313,418; 8200,041;67,46577
 528,97; 5756,487;  310,954; 8394,916;67,36217
 529,55; 5908,106;  324,633; 8561,096;67,78970
 530,14; 6053,239;  342,190; 8783,866;67,65302
 530,72; 6089,679;  305,492; 8925,662;67,10061
 531,30; 6179,653;  285,883; 9110,697;66,78633
 531,89; 6265,479;  325,576; 9167,824;67,17640
 532,47; 6322,808;  351,809; 9262,492;67,00943
 533,05; 6372,111;  345,028; 9352,202;66,91424
 533,63; 6330,760;  339,657; 9400,892;66,11795
 534,22; 6421,404;  327,042; 9447,509;66,82073
 534,80; 6476,369;  344,819; 9529,227;66,76042
 535,38; 6576,018;  453,885; 9710,376;66,13882
 535,97; 6481,019;  326,887; 9608,265;66,30624
 536,55; 6506,793;  379,359; 9692,187;65,79563
 537,13; 6463,460;  394,498; 9615,767;65,81482
 537,71; 6529,046;  444,574; 9695,551;65,77113
 538,30; 6510,896;  467,275; 9796,845;64,77920
 538,88; 6610,353;  502,903; 9909,605;64,92658
 539,46; 6729,494;  579,896;10099,918;64,59647
 540,05; 6791,198;  580,054;10193,732;64,60736
 540,63; 6960,265;  647,286;10448,326;64,41132
 541,21; 7036,248;  693,137;10683,091;63,49490
 541,79; 7092,613;  711,137;10800,526;63,24939
 542,38; 7233,553;  758,361;10982,670;63,33134
 542,96; 7326,260;  762,066;11143,102;63,23255
 543,54; 7432,228;  804,751;11346,235;62,87044
 544,12; 7536,941;  766,523;11547,335;62,80063
 544,70; 7564,222;  757,298;11663,109;62,41557
 545,29; 7712,447;  741,284;11835,006;62,83881
 545,87; 7704,536;  725,521;11863,603;62,65904
 546,45; 7687,082;  662,437;11875,588;62,64648
 547,03; 7718,478;  655,595;11917,757;62,71338
 547,62; 7794,691;  613,522;12101,509;62,51024
 548,20; 7881,933;  604,604;12279,323;62,33408
 548,78; 7905,218;  563,620;12405,865;61,99498
 549,36; 8035,179;  515,849;12594,645;62,25231
 549,94; 8139,518;  494,832;12759,556;62,33069
 550,53; 8249,649;  496,231;13046,439;61,77920
 551,11; 8341,364;  454,008;13202,562;61,86863
 551,69; 8538,179;  477,387;13521,845;61,79476
 552,27; 8677,196;  436,612;13820,327;61,57172
 552,85; 8892,402;  425,008;14147,047;61,70653
 553,44; 9082,054;  413,849;14551,817;61,31153
 554,02; 9260,199;  449,774;14945,715;60,77857
 554,60; 9456,768;  380,394;15256,803;61,01186
 555,18; 9659,391;  406,388;15642,772;60,72965
 555,76; 9922,824;  398,390;16070,228;60,77420
 556,34;10095,799;  413,708;16493,734;60,21191
 556,93;10352,948;  393,773;16897,367;60,34549
 557,51;10561,934;  369,477;17261,814;60,33775
 558,09;10761,766;  403,080;17660,827;60,02339
 558,67;11000,320;  391,559;18064,453;60,02843
 559,25;11114,127;  402,479;18379,680;59,58462
 559,83;11314,774;  385,486;18741,441;59,54083
 560,41;11527,375;  373,167;19102,714;59,55407
 561,00;11757,417;  388,559;19507,787;59,46295
 561,58;11878,971;  364,397;19840,119;59,12271
 562,16;11987,931;  364,085;20092,333;58,91981
 562,74;12203,151;  337,698;20508,024;58,82628
 563,32;12457,043;  344,871;21016,156;58,59419
 563,90;12688,792;  376,713;21474,043;58,35847
 564,48;12892,259;  381,549;21907,540;58,11909
 565,06;13237,234;  370,174;22562,956;57,97858
 565,65;13603,383;  392,340;23334,054;57,58525
 566,23;14032,446;  434,559;24195,019;57,22905
 566,81;14441,396;  378,940;25032,319;57,04068
 567,39;15027,015;  381,488;26019,305;57,12470
 567,97;15346,791;  400,788;26788,384;56,64026
 568,55;15845,658;  442,255;27659,588;56,59410
 569,13;16236,734;  384,175;28440,792;56,50203
 569,71;16827,200;  374,546;29502,434;56,48420
 570,29;17429,593;  448,080;30731,185;56,07586
 570,87;17765,094;  422,545;31492,880;55,81706
 571,45;18112,782;  409,866;32273,499;55,55837
 572,03;18290,535;  364,490;32821,783;55,22964
 572,61;18729,226;  369,408;33581,636;55,28029
 573,20;19134,473;  407,862;34325,998;55,21120
 573,78;19410,207;  387,871;35037,977;54,89835
 574,36;19639,312;  412,561;35670,059;54,53237
 574,94;19808,517;  481,030;36070,492;54,30677
 575,52;19843,953;  400,194;36282,643;54,18738
 576,10;20159,490;  470,729;36963,834;53,95200
 576,68;20339,275;  444,874;37532,704;53,64132
 577,26;20709,301;  468,891;38402,890;53,35691
 577,84;20930,052;  470,331;38976,887;53,13309
 578,42;21023,758;  542,033;39291,417;52,85691
 579,00;20979,832;  478,025;39393,952;52,68230
 579,58;21019,103;  528,877;39679,751;52,33657
 580,16;20936,172;  476,650;39659,662;52,21529
 580,74;20920,230;  497,881;39791,234;51,97405
 581,32;20804,854;  496,801;39900,661;51,53823
 581,90;20715,508;  523,265;39909,788;51,26689
 582,48;20611,951;  513,573;39897,022;51,03255
 583,06;20659,248;  505,800;40076,268;50,93053
 583,64;20521,190;  501,415;40149,927;50,49313
 584,22;20383,521;  536,043;39925,227;50,38814
 584,80;20127,508;  528,803;39600,651;50,16068
 585,38;19727,789;  544,938;39153,421;49,68559
 585,96;19699,015;  505,642;39216,506;49,58136
 586,54;19584,751;  531,348;39070,183;49,43949
 587,12;19480,894;  497,883;39233,583;49,00650
 587,70;19485,688;  519,412;39368,693;48,82015
 588,28;19426,086;  483,037;39446,530;48,61743
 588,86;19300,597;  508,270;39449,217;48,25853
 589,44;19232,418;  481,973;39444,321;48,12453
 590,02;19277,485;  495,585;39733,089;47,86721
 590,59;19230,242;  458,502;39836,924;47,67012
 591,17;19171,163;  476,368;40021,272;47,27485
 591,75;19157,045;  457,900;40263,182;46,97654
 592,33;19112,457;  478,666;40397,974;46,67864
 592,91;19186,556;  421,827;40687,067;46,60280
 593,49;19162,501;  424,448;41020,424;46,15741
 594,07;19270,606;  442,832;41229,934;46,16110
 594,65;19128,300;  462,426;41226,449;45,79007
 595,23;19217,725;  459,662;41679,496;45,50737
 595,81;19149,937;  441,126;41820,572;45,21281
 596,39;19074,822;  415,819;41948,117;44,92649
 596,97;19100,614;  433,058;42077,886;44,82563
 597,55;19007,974;  426,198;42066,449;44,62455
 598,12;18879,021;  394,758;41993,116;44,43508
 598,70;18790,644;  398,675;42164,393;44,03604
 599,28;18704,288;  422,060;42337,087;43,61736
 599,86;18675,547;  412,906;42309,566;43,58973
 600,44;18561,183;  381,755;42490,235;43,17284
 601,02;18568,774;  435,844;42543,075;43,06370
 601,60;18363,478;  424,208;42515,595;42,61981
 602,18;18249,136;  394,988;42408,879;42,49582
 602,75;18218,956;  390,202;42590,385;42,24805
 603,33;18152,923;  406,829;42588,806;42,07032
 603,91;18005,061;  386,070;42485,132;41,85127
 604,49;17922,471;  421,522;42728,426;41,36665
 605,07;17868,776;  426,285;42636,052;41,32335
 605,65;17786,232;  436,371;42830,708;40,92495
 606,23;17796,722;  506,808;42935,861;40,75018
 606,80;17703,552;  556,895;42912,743;40,48239
 607,38;17570,782;  597,838;42991,091;40,03690
 607,96;17470,274;  667,971;42986,330;39,70452
 608,54;17400,905;  727,371;43156,066;39,29778
 609,12;17249,658;  750,587;43191,052;38,87580
 609,70;17187,393;  784,290;43202,306;38,67013
 610,27;17198,177;  782,585;43276,705;38,63027
 610,85;17099,374;  804,597;43401,480;38,25345
 611,43;16890,711;  801,906;43288,725;37,86776
 612,01;16680,737;  771,053;43065,015;37,61692
 612,59;16661,691;  763,520;43091,254;37,55970
 613,16;16449,079;  724,427;42987,023;37,20702
 613,74;16291,567;  686,830;42923,730;36,94574
 614,32;16214,905;  652,833;42904,712;36,83167
 614,90;16001,325;  591,056;42768,301;36,53693
 615,48;15748,291;  548,968;42346,424;36,36423
 616,05;15689,021;  506,272;42366,190;36,27037
 616,63;15553,597;  525,654;42115,264;36,13389
 617,21;15373,552;  492,508;42047,576;35,81042
 617,79;15166,322;  475,435;41977,402;35,39805
 618,36;15067,218;  485,515;41777,871;35,31332
 618,94;14791,378;  426,969;41495,536;34,97665
 619,52;14664,722;  458,886;41185,045;34,88136
 620,10;14438,553;  422,203;41131,081;34,43070
 620,67;14332,933;  438,500;41037,035;34,22398
 621,25;14178,007;  462,747;40899,928;33,91745
 621,83;14058,234;  433,353;40822,972;33,73362
 622,41;13993,061;  482,583;40782,992;33,52442
 622,98;13723,395;  450,115;40504,620;33,13804
 623,56;13618,788;  449,652;40502,351;32,87952
 624,14;13484,960;  432,365;40371,341;32,68135
 624,72;13345,119;  415,045;40270,150;32,44270
 625,29;13283,125;  419,037;40358,353;32,20908
 625,87;13154,188;  463,896;40282,813;31,87001
 626,45;12999,038;  404,035;40096,950;31,73111
 627,02;12876,236;  406,205;39970,025;31,51877
 627,60;12753,904;  392,139;39961,053;31,24110
 628,18;12728,043;  383,202;39980,206;31,17620
 628,76;12625,530;  379,577;39942,192;30,95334
 629,33;12546,877;  407,966;40010,486;30,65187
 629,91;12437,091;  406,587;39990,235;30,39261
 630,49;12405,588;  427,580;40173,239;30,13665
 631,06;12324,136;  395,194;40285,739;29,90418
 631,64;12254,019;  403,190;40251,522;29,73984
 632,22;12162,633;  375,109;40109,559;29,66575
 632,79;12116,354;  400,647;40497,330;29,21864
 633,37;12060,718;  363,515;40489,172;29,15143
 633,95;12025,355;  366,573;40600,433;28,97754
 634,52;11954,917;  353,276;40657,660;28,78506
 635,10;11832,841;  375,125;40636,225;28,45853
 635,68;11894,873;  370,570;40879,534;28,44877
 636,25;11795,149;  349,179;40865,833;28,25004
 636,83;11741,222;  333,577;41155,346;27,94500
 637,41;11693,661;  354,415;41104,902;27,82604
 637,98;11705,007;  383,491;41412,510;27,59392
 638,56;11623,033;  357,793;41362,044;27,47335
 639,13;11528,308;  344,807;41408,000;27,23486
 639,71;11538,953;  421,425;41663,075;26,95704
 640,29;11390,575;  324,040;41416,880;26,93057
 640,86;11334,862;  342,041;41597,874;26,64550
 641,44;11239,457;  328,733;41674,714;26,38884
 642,02;11185,436;  357,657;41648,400;26,22326
 642,59;11076,953;  338,580;41768,856;25,91915
 643,17;10992,317;  338,888;41708,157;25,75204
 643,74;10976,296;  346,581;41839,074;25,61841
 644,32;10889,968;  362,735;41693,607;25,47063
 644,89;10824,178;  360,427;41793,985;25,25429
 645,47;10735,311;  368,351;41750,364;25,05185
 646,05;10639,674;  362,736;41647,204;24,89299
 646,62;10548,884;  352,967;41632,352;24,69978
 647,20;10528,633;  360,737;41912,576;24,47039
 647,77;10373,304;  320,045;41661,262;24,31776
 648,35;10286,206;  321,814;41558,564;24,16386
 648,92;10204,493;  346,199;41568,558;23,91492
 649,50;10107,088;  314,276;41435,244;23,81464
 650,08; 9989,759;  308,277;41342,700;23,59356
 650,65; 9975,354;  328,739;41655,540;23,34227
 651,23;10105,641;  301,123;42456,149;23,25824
 651,80;10249,466;  308,970;43651,758;22,93460
 652,38;10368,291;  323,432;44067,290;22,96290
 652,95;10385,270;  299,586;44492,438;22,82198
 653,53;10382,173;  313,509;44825,355;22,62019
 654,10;10392,536;  370,971;44913,503;22,49887
 654,68;10293,823;  293,433;44812,497;22,46316
 655,25;10238,187;  306,357;45006,568;22,21876
 655,83;10224,397;  303,511;45010,100;22,19111
 656,40;10138,607;  349,819;45074,863;21,88659
 656,98;10060,201;  323,819;44870,934;21,85637
 657,55; 9950,796;  321,204;44806,620;21,64663
 658,13; 9794,929;  307,435;44368,691;21,53251
 658,70; 9661,216;  323,051;44015,300;21,37259
 659,28; 9329,657;  324,974;42999,756;21,10071
 659,85; 9098,020;  336,821;42135,903;20,96027
 660,43; 9010,846;  354,206;42116,820;20,72820
 661,00; 8981,209;  313,437;42242,045;20,67269
 661,58; 8983,650;  318,514;42595,193;20,49626
 662,15; 8945,168;  316,515;42820,879;20,30063
 662,73; 9053,455;  392,592;43137,796;20,26160
 663,30; 8958,049;  324,823;43324,944;20,07721
 663,88; 8960,259;  322,669;43483,476;20,01258
 664,45; 8947,777;  313,285;43745,778;19,88026
 665,03; 8954,294;  309,593;44151,541;19,71788
 665,60; 9097,196;  428,132;44532,842;19,65564
 666,17; 8962,637;  334,671;44733,375;19,43292
 666,75; 8937,924;  321,825;45084,753;19,24829
 667,32; 9050,134;  344,287;45466,286;19,29402
 667,90; 9021,344;  336,364;45814,818;19,09691
 668,47; 9004,938;  343,595;46034,812;18,95625
 669,05; 9027,918;  319,134;46393,652;18,90152
 669,62; 9007,512;  292,365;46427,800;18,89035
 670,19; 8957,953;  306,288;46592,409;18,69170
 670,77; 8975,932;  314,981;46742,326;18,65485
 671,34; 8835,450;  303,058;46687,474;18,39495
 671,92; 8902,890;  300,982;47078,391;18,38902
 672,49; 8828,869;  335,213;47184,615;18,12970
 673,06; 8773,925;  270,059;47107,994;18,15594
 673,64; 8721,905;  300,444;47107,526;17,99185
 674,21; 8679,422;  284,598;47029,135;17,95894
 674,79; 8711,555;  330,753;47384,514;17,81112
 675,36; 8687,842;  329,291;47427,277;17,74715
 675,93; 8558,052;  295,676;47219,425;17,60809
 676,51; 8562,493;  306,600;47490,726;17,49718
 677,08; 8554,549;  312,062;47441,028;17,48922
 677,65; 8552,220;  317,062;47746,253;17,36306
 678,23; 8503,276;  314,524;47852,708;17,22563
 678,80; 8444,332;  305,063;47992,471;17,06796
 679,38; 8483,619;  310,217;48148,696;17,08541
 679,95; 8494,675;  325,217;48439,228;16,97937
 680,52; 8495,578;  304,141;48748,607;16,90892
 681,10; 8551,172;  334,987;49157,370;16,82873
 681,67; 8541,997;  319,295;49519,441;16,71276
 682,24; 8490,130;  286,603;49480,742;16,67582
 682,82; 8551,340;  307,757;50159,044;16,53635
 683,39; 8641,935;  367,219;50406,269;16,53652
 683,96; 8624,837;  307,912;50721,878;16,49726
 684,54; 8594,662;  283,143;51152,949;16,33881
 685,11; 8653,949;  350,528;51550,635;16,21759
 685,68; 8690,775;  308,221;51875,936;16,25543
 686,25; 8625,061;  302,529;52115,315;16,06270
 686,83; 8572,656;  305,067;52100,847;15,96190
 687,40; 8608,097;  289,606;52541,457;15,91999
 687,97; 8697,230;  338,683;52955,143;15,88580
 688,55; 8666,593;  284,145;53129,521;15,86222
 689,12; 8608,034;  264,607;53432,054;15,69274
 689,69; 8602,936;  280,608;53480,201;15,64359
 690,26; 8573,069;  294,916;53416,503;15,58341
 690,84; 8615,741;  298,839;53664,574;15,58472
 691,41; 8561,105;  307,301;53752,798;15,44340
 691,98; 8596,007;  308,532;54093,331;15,40858
 692,56; 8584,986;  299,302;54188,786;15,37533
 693,13; 8542,427;  350,763;54337,780;15,17339
 693,70; 8587,406;  332,148;54451,851;15,25370
 694,27; 8536,616;  288,687;54675,076;15,16543
 694,84; 8504,518;  291,995;54652,223;15,10759
 695,42; 8571,420;  352,303;54733,140;15,11399
 695,99; 8473,092;  327,150;54942,288;14,91517
 696,56; 8438,532;  313,150;54864,744;14,89486
 697,13; 8495,358;  331,227;55168,276;14,88798
 697,71; 8494,414;  313,612;55269,501;14,88612
 698,28; 8483,316;  304,613;55665,648;14,77339
 698,85; 8450,757;  279,228;55652,873;14,75707
 699,42; 8467,120;  280,383;55837,175;14,73580
 699,99; 8516,407;  318,306;55935,707;14,74017
 700,57; 8478,233;  321,845;56009,085;14,64678
 701,14; 8471,750;  296,460;56150,541;14,63687
 701,71; 8497,037;  338,999;56429,842;14,54433
 702,28; 8477,478;  303,461;56409,529;14,56886
 702,85; 8449,841;  311,538;56510,523;14,48123
 703,43; 8478,205;  326,539;56596,978;14,48659
 704,00; 8498,107;  351,001;56979,357;14,38697
 704,57; 8470,779;  331,616;56899,427;14,38833
 705,14; 8493,143;  347,694;57299,114;14,30245
 705,71; 8476,353;  355,617;57249,569;14,27346
 706,28; 8434,178;  333,310;57169,871;14,25292
 706,86; 8467,542;  356,002;57404,249;14,21874
 707,43; 8474,521;  390,003;57388,089;14,18384
 708,00; 8403,115;  359,849;57321,698;14,12044
 708,57; 8340,095;  327,849;57222,846;14,08251
 709,14; 8396,458;  346,850;57421,071;14,10376
 709,71; 8370,745;  342,466;57612,603;14,01826
 710,28; 8368,494;  345,389;57759,136;13,97419
 710,86; 8357,396;  338,082;57813,745;13,95254
 711,43; 8403,298;  366,620;57849,277;13,98105
 712,00; 8337,123;  339,851;57968,963;13,87714
 712,57; 8387,410;  357,083;58123,650;13,90134
 713,14; 8342,466;  331,544;58235,182;13,83492
 713,71; 8372,907;  352,391;58138,637;13,87963
 714,28; 8337,425;  317,468;58170,324;13,86268
 714,85; 8316,096;  315,776;57925,241;13,88716
 715,42; 8329,306;  324,623;58101,234;13,85454
 716,00; 8443,208;  400,469;58248,382;13,90325
 716,57; 8374,726;  317,085;58306,761;13,89496
 717,14; 8290,782;  297,008;58310,908;13,77907
 717,71; 8306,223;  293,009;58327,210;13,80774
 718,28; 8368,356;  356,471;58485,589;13,78291
 718,85; 8334,796;  282,779;58430,429;13,84754
 719,42; 8344,314;  314,317;58705,422;13,75209
 719,99; 8301,062;  281,164;58397,109;13,79982
 720,56; 8359,426;  329,164;58726,256;13,75113
 721,13; 8319,713;  302,780;58891,173;13,68348
 721,70; 8363,923;  292,088;58717,244;13,81568
 722,27; 8351,210;  326,934;58728,084;13,73993
 722,84; 8425,573;  384,627;58954,847;13,72873
 723,41; 8357,553;  296,166;58861,226;13,76484
 723,98; 8378,301;  307,859;59115,527;13,72345
 724,55; 8415,203;  342,628;59227,291;13,70913
 725,12; 8319,259;  261,782;59275,669;13,65353
 725,69; 8364,623;  295,552;59482,432;13,63321
 726,27; 8373,448;  319,321;59381,580;13,63667
 726,84; 8413,735;  317,014;59790,728;13,61395
 727,41; 8496,176;  337,014;59758,260;13,73105
 727,98; 8462,232;  332,861;60177,562;13,58411
 728,55; 8502,596;  347,938;59999,633;13,67045
 729,12; 8451,498;  301,323;60105,857;13,62802
 729,69; 8476,862;  331,170;60246,159;13,59542
 730,26; 8510,456;  323,170;60551,153;13,59382
 730,82; 8471,897;  320,632;60242,839;13,60308
 731,39; 8428,030;  317,940;60448,448;13,48748
 731,96; 8540,471;  282,402;60680,673;13,67269
 732,53; 8567,296;  323,633;60965,205;13,59408
 733,10; 8642,044;  323,018;61138,430;13,67914
 733,67; 8597,177;  330,018;61312,962;13,55651
 734,24; 8549,618;  314,326;60974,879;13,57602
 734,81; 8589,982;  339,634;61014,565;13,59762
 735,38; 8586,269;  310,635;60774,713;13,68686
 735,95; 8524,863;  320,558;60544,707;13,62295
 736,52; 8584,996;  335,866;60737,239;13,65719
 737,09; 8516,821;  330,328;60437,156;13,61991
 737,66; 8562,493;  378,097;60610,843;13,58795
 738,23; 8569,780;  317,098;60659,913;13,67633
 738,80; 8691,759;  416,252;61133,138;13,62966
 739,37; 8620,200;  349,560;61151,440;13,60261
 739,94; 8649,179;  327,945;61236,049;13,66195
 740,51; 8768,466;  463,714;61342,350;13,64149
 741,07; 8674,445;  314,946;61234,037;13,72230
 741,64; 8715,424;  357,715;61475,954;13,67466
 742,21; 8703,865;  339,715;61487,255;13,67864
 742,78; 8679,151;  300,331;61203,557;13,75760
 743,35; 8765,746;  327,485;61644,551;13,76168
 743,92; 8811,648;  364,793;61799,852;13,74924
 744,49; 8859,166;  371,409;61586,154;13,86554
 745,06; 8798,760;  320,717;61602,532;13,83452
 745,63; 8814,201;  310,948;61548,911;13,88559
 746,19; 8820,180;  318,256;61547,828;13,88532
 746,76; 8841,236;  341,795;61671,976;13,85850
 747,33; 8816,754;  319,718;61610,893;13,86339
 747,90; 8868,579;  335,565;61811,579;13,88023
 748,47; 8883,712;  330,258;61720,880;13,93284
 749,04; 8877,076;  332,412;61735,720;13,91564
 749,61; 8894,671;  354,643;61687,022;13,92417
 750,17; 8919,650;  332,028;61712,247;13,99086
 750,74; 8896,860;  330,951;61661,702;13,96674
 751,31; 8866,454;  319,182;61678,234;13,92993
 751,88; 8899,741;  299,952;61478,690;14,05683
 752,45; 8919,643;  321,952;61681,915;14,01189
 753,02; 8888,545;  344,106;61501,755;13,97117
 753,58; 8907,217;  312,030;61449,902;14,05869
 754,15; 8936,658;  311,030;61555,666;14,08389
 754,72; 8925,560;  316,492;61234,506;14,13222
 755,29; 8842,616;  301,108;61164,653;14,03387
 755,86; 8904,749;  323,185;61458,032;14,03711
 756,42; 8981,036;  336,032;61205,564;14,20251
 756,99; 8903,938;  290,340;61184,327;14,14524
 757,56; 8953,763;  292,801;61123,552;14,23780
 758,13; 8860,742;  242,186;61024,930;14,17928
 758,70; 9010,952;  279,802;61085,078;14,35920
 759,26; 8947,239;  262,187;61143,457;14,26556
 759,83; 9047,680;  278,034;61259,835;14,38076
 760,40; 9038,967;  256,572;60955,598;14,46876
 760,97; 8981,869;  242,342;61145,669;14,34984
 761,53; 8927,002;  235,188;60667,125;14,38281
 762,10; 8936,827;  231,881;60646,965;14,40856
 762,67; 9027,806;  257,343;60721,805;14,50515
 763,24; 8885,093;  234,882;60169,491;14,43275
 763,80; 9000,995;  256,421;60354,408;14,55053
 764,37; 9013,821;  263,190;60257,786;14,58570
 764,94; 8902,569;  253,498;59855,396;14,51140
 765,50; 8918,702;  248,191;59891,774;14,53721
 766,07; 9011,220;  298,730;59820,076;14,63759
 766,64; 8891,276;  272,653;59542,147;14,54141
 767,21; 8927,640;  274,115;59496,371;14,61195
 767,77; 8902,080;  290,654;59327,596;14,58651
 768,34; 8921,136;  296,346;59309,821;14,61495
 768,91; 8892,731;  314,039;59146,353;14,58160
 769,47; 8959,864;  304,655;59197,885;14,69644
 770,04; 8967,920;  300,117;59072,802;14,74801
 770,61; 8878,822;  280,502;58792,181;14,69505
 771,18; 8880,340;  289,040;58710,329;14,70577
 771,74; 8959,934;  288,964;58958,399;14,77937
 772,31; 8931,298;  297,579;58739,701;14,77311
 772,88; 8906,123;  276,811;58311,310;14,86928
 773,44; 8881,410;  274,196;58177,304;14,86486
 774,01; 8955,389;  299,042;58317,606;14,91996
 774,58; 8891,676;  281,042;57905,061;14,94279
 775,14; 8956,425;  270,273;58134,440;15,01128
 775,71; 8911,096;  284,812;57962,664;14,95597
 776,27; 8989,845;  340,582;57820,658;15,04741
 776,84; 9043,131;  396,505;57942,729;15,02553
 777,41; 8950,803;  288,198;57712,800;15,08518
 777,97; 8926,320;  284,737;57490,563;15,10613
 778,54; 8906,069;  294,814;57455,018;15,06512
 779,11; 8997,433;  329,507;57537,012;15,15173
 779,67; 8993,412;  284,738;57381,006;15,25262
 780,24; 8964,314;  310,430;57179,616;15,21718
 780,80; 9019,062;  312,508;57198,686;15,30522
 781,37; 8996,965;  310,123;57157,911;15,28088
 781,94; 8947,251;  302,201;56900,982;15,27427
 782,50; 8979,538;  305,816;56857,360;15,33773
 783,07; 9007,825;  317,894;56928,047;15,35048
 783,63; 8986,574;  286,894;56640,963;15,43754
 784,20; 9013,553;  311,971;56608,727;15,45663
 784,77; 9014,532;  290,356;56367,105;15,55756
 785,33; 8982,203;  268,587;56149,484;15,59319
 785,90; 8968,567;  282,357;56080,016;15,56734
 786,46; 9003,085;  320,742;56036,087;15,58340
 787,03; 8918,910;  282,896;55744,850;15,57106
 787,59; 8976,428;  288,127;55683,152;15,68426
 788,16; 9006,253;  302,281;55596,915;15,74108
 788,73; 8998,924;  305,897;55503,139;15,74902
 789,29; 8967,365;  278,590;55116,133;15,84457
 789,86; 8983,960;  326,821;54994,127;15,83604
 790,42; 8918,170;  295,129;54897,890;15,79232
 790,99; 8912,226;  296,667;54468,269;15,90420
 791,55; 8896,743;  281,668;54523,263;15,88278
 792,12; 8964,645;  322,668;54447,795;15,96666
 792,68; 8801,702;  296,438;54199,635;15,77877
 793,25; 8886,527;  307,361;53951,014;15,99288
 793,81; 8900,352;  392,515;53469,931;16,02911
 794,38; 8721,331;  263,977;53287,771;15,95011
 794,94; 8769,234;  274,593;53089,995;16,08364
 795,51; 8761,520;  299,670;52963,912;16,06754
 796,07; 8710,192;  294,747;52556,214;16,10258
 796,64; 8783,402;  308,517;52788,977;16,14865
 797,20; 8699,227;  294,517;52175,894;16,19986
 797,77; 8635,283;  260,518;51855,349;16,23179
 798,33; 8646,878;  288,903;51727,651;16,24840
 798,90; 8680,780;  305,980;51666,260;16,30599
 799,46; 8608,067;  269,903;51127,408;16,39515
 800,03; 8592,969;  294,750;51086,556;16,33771
 800,59; 8612,025;  304,827;50791,934;16,45410
 801,15; 8587,389;  319,827;50645,082;16,42826
 801,72; 8528,983;  290,674;50239,922;16,49336
 802,28; 8514,270;  309,059;49976,916;16,52016
 802,85; 8456,634;  287,290;49804,602;16,49796
 803,41; 8436,152;  285,367;49520,442;16,55483
 803,98; 8421,669;  287,829;49081,128;16,66999
 804,54; 8398,802;  292,829;48817,584;16,70482
 805,11; 8414,012;  299,830;48568,578;16,81043
 805,67; 8381,914;  317,138;48496,802;16,73896
 806,23; 8295,124;  296,677;48113,642;16,72722
 806,80; 8317,873;  320,369;47901,790;16,80804
 807,36; 8359,006;  315,293;47824,015;16,93102
 807,93; 8331,677;  328,908;47622,701;16,92139
 808,49; 8215,272;  288,986;47175,464;16,90527
 809,05; 8226,635;  292,755;47043,073;16,97075
 809,62; 8278,230;  309,525;46914,375;17,09845
 810,18; 8199,978;  294,140;46860,907;16,97743
 810,74; 8138,265;  256,910;46486,132;17,04843
 811,31; 8135,014;  268,295;46325,049;17,08049
 811,87; 8181,070;  301,757;46123,812;17,19546
 812,44; 8181,049;  322,065;46084,806;17,17332
 813,00; 8061,182;  244,142;45838,492;17,14476
 813,56; 8151,776;  301,219;45856,178;17,23316
 814,13; 8155,756;  282,451;45853,095;17,27714
 814,69; 8097,427;  279,066;45567,474;17,26349
 815,25; 8003,868;  243,682;45001,699;17,33809
 815,82; 8042,462;  304,144;44987,308;17,31820
 816,38; 8114,288;  325,298;44849,609;17,49379
 816,94; 7976,651;  262,068;44529,142;17,42736
 817,51; 7978,092;  246,529;44262,443;17,56538
 818,07; 7884,225;  256,145;43942,591;17,46098
 818,63; 7906,820;  278,684;43801,893;17,52659
 819,20; 7886,260;  276,300;43702,271;17,52398
 819,76; 7832,624;  256,069;43231,188;17,63010
 820,32; 7900,603;  294,147;43110,413;17,76534
 820,89; 7851,505;  287,608;42955,022;17,72757
 821,45; 7774,408;  266,916;42550,862;17,75494
 822,01; 7817,848;  289,455;42356,702;17,89609
 822,57; 7777,904;  283,994;42212,927;17,87289
 823,14; 7684,576;  247,148;41866,998;17,86991
 823,70; 7705,170;  268,379;41616,761;17,98569
 824,26; 7661,226;  251,072;41400,678;18,00784
 824,82; 7687,898;  289,995;41279,672;18,04821
 825,39; 7635,339;  267,765;40941,666;18,11376
 825,95; 7648,856;  282,919;41110,583;18,04153
 826,51; 7588,605;  279,996;40510,961;18,16662
 827,08; 7648,661;  315,612;40593,032;18,20635
 827,64; 7631,024;  291,459;40360,026;18,31752
 828,20; 7604,927;  259,459;40133,635;18,42162
 828,76; 7582,521;  291,844;40193,398;18,27166
 829,32; 7626,500;  298,921;39973,469;18,46922
 829,89; 7524,941;  246,921;39838,232;18,38287
 830,45; 7569,613;  277,845;39738,226;18,47871
 831,01; 7583,284;  275,614;39576,143;18,59433
 831,57; 7494,725;  264,769;39425,522;18,46225
 832,14; 7540,704;  266,307;39358,285;18,60841
 832,70; 7522,298;  245,539;39137,432;18,71022
 833,26; 7534,431;  236,462;39029,811;18,81242
 833,82; 7512,411;  264,924;38898,420;18,75959
 834,38; 7555,159;  256,309;38980,568;18,84826
 834,95; 7510,215;  236,155;38781,562;18,87140
 835,51; 7496,502;  225,079;38626,402;18,93535
 836,07; 7569,096;  274,694;38760,319;18,95358
 836,63; 7596,383;  278,387;38652,005;19,07038
 837,19; 7587,670;  265,849;38504,614;19,14764
 837,75; 7497,649;  224,695;38093,608;19,20560
 838,32; 7578,398;  293,311;38318,448;19,15861
 838,88; 7598,300;  287,773;38316,135;19,22388
 839,44; 7592,356;  273,466;38216,667;19,28907
 840,00; 7590,181;  271,081;38089,507;19,35326
 840,56; 7501,776;  253,082;37756,116;19,32829
 841,12; 7465,063;  248,159;37779,802;19,22885
 841,68; 7447,657;  227,852;37553,950;19,34251
 842,25; 7505,944;  247,237;37652,636;19,40551
 842,81; 7468,462;  242,391;37343,015;19,47695
 843,37; 7470,672;  236,006;37319,624;19,50906
 843,93; 7434,035;  258,084;37173,772;19,43876
 844,49; 7497,707;  267,007;37314,843;19,51720
 845,05; 7421,071;  220,315;37014,375;19,57043
 845,61; 7535,511;  270,392;37150,600;19,69924
 846,17; 7474,183;  266,547;36982,901;19,63059
 846,73; 7441,854;  251,470;36912,203;19,61331
 847,29; 7413,449;  232,855;36677,735;19,70261
 847,86; 7459,812;  243,932;36606,268;19,84438
 848,42; 7433,715;  242,625;36341,108;19,92075
 848,98; 7424,309;  262,318;36353,025;19,84442
 849,54; 7421,673;  246,241;36393,711;19,85044
 850,10; 7446,191;  269,626;36184,012;19,98242
 850,66; 7454,477;  247,319;35997,929;20,15954
 851,22; 7393,610;  231,088;35966,385;20,04327
 851,78; 7497,282;  278,858;35914,994;20,25591
 852,34; 7417,492;  272,166;35736,219;20,14808
 852,90; 7397,086;  239,397;35670,059;20,20196
 853,46; 7385,142;  229,243;35368,130;20,36462
 854,02; 7378,891;  265,782;35407,893;20,24098
 854,58; 7331,947;  246,244;35108,425;20,32490
 855,14; 7313,541;  234,937;35070,804;20,31988
 855,70; 7267,059;  213,168;34870,336;20,35334
 856,26; 7268,961;  258,783;34736,253;20,33263
 856,82; 7296,787;  245,784;34633,093;20,50467
 857,38; 7325,381;  281,169;34582,010;20,53656
 857,94; 7274,668;  260,861;34393,465;20,54870
 858,50; 7244,647;  280,862;34317,767;20,45951
 859,06; 7213,011;  246,170;34104,146;20,57666
 859,62; 7235,298;  272,555;34009,909;20,63808
 860,18; 7203,969;  255,017;33889,672;20,66010
 860,74; 7150,871;  209,094;33764,435;20,68755
 861,30; 7101,928;  235,094;33450,352;20,67373
 861,86; 7196,214;  314,710;33550,961;20,70482
 862,42; 7153,963;  251,403;33349,032;20,85515
 862,98; 7204,480;  273,403;33354,564;20,95174
 863,54; 7099,690;  241,557;33068,020;20,89209
 864,10; 7145,977;  250,865;33158,475;20,95294
 864,66; 7078,879;  220,942;32801,777;21,04899
 865,22; 7079,859;  246,712;32700,694;21,05488
 865,78; 7068,145;  254,635;32483,534;21,14100
 866,34; 7050,663;  238,020;32380,682;21,19502
 866,90; 7042,027;  248,636;32365,983;21,15178
 867,45; 7026,391;  254,713;32121,823;21,24974
 868,01; 6998,216;  254,560;31924,817;21,29334
 868,57; 6952,349;  239,099;31850,042;21,23711
 869,13; 6936,636;  220,022;31633,266;21,38147
 869,69; 6930,230;  237,638;31572,799;21,35809
 870,25; 6930,132;  207,869;31446,023;21,51940
 870,81; 6966,496;  240,408;31277,940;21,67082
 871,37; 6969,398;  257,869;31215,396;21,67980
 871,93; 6927,070;  254,101;31081,851;21,64598
 872,49; 6921,972;  284,716;30774,999;21,76843
 873,04; 6871,797;  227,486;30672,762;21,82378
 873,60; 6842,007;  219,255;30479,371;21,88608
 874,16; 6853,063;  249,179;30434,058;21,87812
 874,72; 6882,217;  241,179;30331,365;22,07045
 875,28; 6849,371;  237,948;30233,750;22,04116
 875,84; 6881,679;  247,871;30124,288;22,20416
 876,40; 6845,140;  239,410;30089,135;22,12996
 876,95; 6837,525;  247,948;30094,596;22,07811
 877,51; 6922,833;  279,871;29995,904;22,35481
 878,07; 6917,910;  291,563;30104,904;22,22611
 878,63; 6877,217;  247,179;30106,135;22,20452
 879,19; 6929,602;  264,025;30152,519;22,30148
 879,75; 6978,294;  235,717;30113,365;22,56729
 880,30; 6942,833;  237,410;30041,827;22,49808
 880,86; 7067,910;  282,717;30242,365;22,64777
 881,42; 7008,140;  224,333;30266,058;22,58129
 881,98; 7022,679;  244,410;30321,673;22,53619
 882,54; 7050,140;  223,025;30386,904;22,63341
 883,09; 7126,987;  248,794;30518,673;22,72289
 883,65; 7158,602;  232,794;30670,750;22,75385
 884,21; 7266,987;  279,102;30906,904;22,81549
 884,77; 7214,448;  230,871;30947,519;22,73548
 885,32; 7257,217;  243,563;31118,288;22,71649
 885,88; 7355,756;  271,410;31227,212;22,88536
 886,44; 7351,140;  247,640;31341,212;22,84556
 887,00; 7406,679;  262,717;31300,596;23,01691
 887,56; 7473,525;  233,410;31517,904;23,14282
 888,11; 7477,602;  243,256;31516,212;23,13291
 888,67; 7542,217;  280,794;31685,904;23,12179
 889,23; 7532,525;  250,871;31733,135;23,12938
 889,79; 7455,217;  233,487;31565,750;23,04886
 890,34; 7560,063;  254,256;31564,365;23,33370
 890,90; 7607,294;  331,640;31753,981;23,15440
 891,46; 7561,756;  246,410;31630,442;23,30913
 892,01; 7627,371;  262,256;31583,519;23,51475
 892,57; 7575,525;  279,563;31485,519;23,38003
 893,13; 7497,756;  246,948;31315,212;23,33831
 893,69; 7535,756;  227,487;31272,673;23,54075
 894,24; 7485,294;  247,410;31211,365;23,37519
 894,80; 7480,448;  247,948;31004,058;23,51565
 895,36; 7447,063;  246,256;30898,288;23,49210
 895,91; 7407,679;  251,256;30537,827;23,62903
 896,47; 7413,525;  262,025;30529,827;23,62742
 897,03; 7390,140;  238,640;30303,904;23,78659
 897,58; 7354,525;  247,794;30312,750;23,63792
 898,14; 7290,525;  253,333;29990,442;23,66468
 898,70; 7305,525;  211,487;29772,596;23,99788
 899,25; 7299,063;  251,410;29750,288;23,89126
 899,81; 7275,987;  254,717;29594,673;23,93074
 900,37; 7188,679;  212,333;29340,827;23,95025
 900,92; 7202,833;  235,871;29260,827;24,00335
 901,48; 7197,063;  232,179;29132,135;24,09998
 902,03; 7156,602;  242,333;29017,981;24,02820
 902,59; 7159,294;  232,487;28905,673;24,15779
 903,15; 7121,910;  252,563;28718,212;24,13206
 903,70; 7059,833;  249,640;28494,519;24,11125
 904,26; 7030,602;  242,102;28338,058;24,16184
 904,82; 7073,987;  235,871;28354,596;24,31872
 905,37; 7036,371;  250,640;28208,288;24,27147
 905,93; 7003,217;  229,333;28030,365;24,36559
 906,48; 7007,371;  255,487;27939,365;24,38923
 907,04; 6970,756;  247,871;27864,827;24,34332
 907,60; 6949,371;  255,179;27555,904;24,52020
 908,15; 6898,602;  215,487;27562,596;24,43811
 908,71; 6938,525;  258,948;27514,058;24,50761
 909,26; 6893,602;  237,410;27271,135;24,62181
 909,82; 6864,294;  246,640;27185,212;24,56572
 910,37; 6924,910;  287,256;27060,750;24,79188
 910,93; 6849,140;  230,179;26855,442;24,85970
 911,48; 6774,910;  233,410;26728,904;24,68910
 912,04; 6740,140;  231,179;26546,981;24,73404
 912,60; 6781,833;  248,025;26595,135;24,79895
 913,15; 6745,833;  234,256;26404,827;24,88129
 913,71; 6730,063;  225,410;26202,827;25,03965
 914,26; 6687,987;  213,333;26087,288;25,02383
 914,82; 6653,602;  234,256;26018,519;24,89637
 915,37; 6681,525;  222,179;25997,904;25,05980
 915,93; 6691,294;  290,640;25806,673;25,08483
 916,48; 6652,602;  223,871;25663,750;25,27029
 917,04; 6619,833;  263,717;25524,673;25,16182
 917,59; 6604,294;  269,871;25455,135;25,15131
 918,15; 6511,602;  211,948;25229,673;25,18076
 918,70; 6526,371;  226,640;25166,904;25,25928
 919,26; 6521,371;  238,871;25054,212;25,31700
 919,81; 6498,217;  216,717;24844,288;25,50597
 920,37; 6487,448;  232,256;24869,212;25,38947
 920,92; 6467,063;  259,640;24722,135;25,37527
 921,48; 6386,756;  216,794;24481,212;25,42802
 922,03; 6397,294;  222,025;24464,288;25,47315
 922,59; 6343,063;  233,794;24275,135;25,41152
 923,14; 6346,371;  243,794;24151,519;25,52554
 923,69; 6340,679;  261,179;24129,827;25,47065
 924,25; 6359,140;  266,025;24016,519;25,65469
 924,80; 6257,217;  232,717;23773,058;25,59224
 925,36; 6270,371;  231,410;23715,750;25,71484
 925,91; 6199,833;  218,333;23554,596;25,63178
 926,47; 6174,679;  199,563;23505,519;25,63772
 927,02; 6261,371;  306,563;23399,212;25,78660
 927,57; 6148,294;  232,871;23133,981;25,83029
 928,13; 6143,525;  223,563;23119,058;25,85645
 928,68; 6141,833;  225,256;23056,904;25,91393
 929,24; 6084,679;  196,410;22802,135;26,04769
 929,79; 6063,679;  221,179;22770,904;25,90941
 930,34; 6067,987;  228,794;22576,365;26,12898
 930,90; 6002,910;  209,487;22459,750;26,03755
 931,45; 6067,140;  240,025;22482,288;26,19839
 932,01; 6042,217;  230,563;22355,827;26,26705
 932,56; 5991,756;  251,563;22221,212;26,12783
 933,11; 6019,294;  251,333;22291,750;26,16993
 933,67; 5932,294;  226,179;21968,750;26,24398
 934,22; 5916,833;  234,794;21936,596;26,18233
 934,77; 5924,987;  261,794;21783,442;26,31393
 935,33; 5879,525;  234,333;21639,212;26,37339
 935,88; 5852,063;  234,179;21579,519;26,31902
 936,43; 5885,525;  229,102;21484,750;26,61139
 936,99; 5871,217;  234,256;21357,212;26,68642
 937,54; 5763,140;  210,948;21167,135;26,49429
 938,09; 5824,294;  234,256;21117,596;26,76793
 938,65; 5780,140;  231,871;20960,904;26,76569
 939,20; 5756,140;  218,794;20899,135;26,77589
 939,75; 5722,833;  205,256;20820,904;26,76402
 940,31; 5643,371;  209,333;20736,135;26,47289
 940,86; 5768,679;  235,256;20640,904;27,11712
 941,41; 5759,987;  340,871;20687,058;26,63455
 941,96; 5637,294;  224,179;20382,596;26,85288
 942,52; 5622,063;  220,717;20334,212;26,85434
 943,07; 5595,833;  198,717;20198,981;26,98522
 943,62; 5566,756;  219,102;20065,365;26,94539
 944,18; 5559,217;  208,487;20067,750;26,94325
 944,73; 5596,448;  241,563;19904,519;27,23337
 945,28; 5496,063;  189,563;19787,288;27,07712
 945,83; 5494,602;  226,487;19727,981;27,01391
 946,39; 5473,140;  214,563;19667,519;27,03228
 946,94; 5530,833;  253,640;19561,519;27,33181
 947,49; 5467,756;  219,333;19444,904;27,29918
 948,04; 5493,756;  280,102;19358,135;27,32805
 948,59; 5445,679;  251,256;19262,673;27,32265
 949,15; 5394,371;  210,948;19211,058;27,28102
 949,70; 5386,525;  226,871;19100,981;27,33720
 950,25; 5387,448;  230,487;19043,904;27,41108
 950,80; 5326,987;  190,025;18873,827;27,49420
 951,36; 5299,525;  189,640;18800,288;27,45678
 951,91; 5345,833;  239,871;18795,442;27,51713
 952,46; 5279,910;  225,256;18571,981;27,55071
 953,01; 5283,525;  234,256;18566,827;27,54261
 953,56; 5191,987;  207,410;18417,058;27,37327
 954,11; 5229,217;  232,487;18398,288;27,50625
 954,67; 5194,833;  224,487;18288,827;27,51468
 955,22; 5160,525;  198,256;18158,981;27,62845
 955,77; 5187,987;  239,794;18057,981;27,77046
 956,32; 5178,602;  289,102;18018,904;27,57786
 956,87; 5091,602;  208,794;17865,519;27,65410
 957,42; 5104,910;  219,487;17850,981;27,70850
 957,98; 5088,063;  206,563;17736,365;27,84686
 958,53; 5113,217;  254,640;17642,212;27,94282
 959,08; 5008,371;  215,410;17533,750;27,67564
 959,63; 5026,910;  219,563;17419,365;27,95001
 960,18; 5014,063;  226,102;17410,288;27,86260
 960,73; 5003,063;  218,794;17321,904;27,97310
 961,28; 4963,448;  206,794;17229,673;27,94271
 961,83; 4989,140;  239,333;17205,596;27,99560
 962,39; 4913,371;  211,179;17013,981;27,98457
 962,94; 4918,063;  234,410;16965,827;27,99317
 963,49; 4922,140;  231,794;16777,750;28,34739
 964,04; 4878,294;  242,410;16730,135;28,11719
 964,59; 4837,448;  189,794;16633,212;28,26453
 965,14; 4857,294;  246,563;16582,827;28,22390
 965,69; 4778,525;  231,179;16489,750;27,96892
 966,24; 4764,602;  213,179;16394,135;28,12827
 966,79; 4791,987;  246,333;16254,904;28,39513
 967,34; 4691,987;  195,563;16132,519;28,21381
 967,89; 4684,679;  213,256;16050,442;28,23370
 968,44; 4669,679;  222,563;16013,750;28,16201
 968,99; 4677,910;  229,563;15961,135;28,27655
 969,55; 4681,602;  222,871;15833,904;28,56141
 970,10; 4651,833;  225,410;15723,904;28,56034
 970,65; 4622,294;  255,640;15646,827;28,37113
 971,20; 4580,140;  213,871;15527,673;28,51199
 971,75; 4552,602;  198,179;15326,981;28,78234
 972,30; 4566,448;  242,640;15239,596;28,83124
 972,85; 4531,987;  207,179;15149,519;28,94331
 973,40; 4489,833;  209,640;15022,288;28,89552
 973,95; 4502,679;  232,256;15008,827;28,89996
 974,50; 4508,679;  259,871;14953,596;28,91580
 975,05; 4436,063;  224,025;14782,596;28,93167
 975,60; 4423,833;  240,102;14703,981;28,92537
 976,15; 4392,063;  216,717;14616,288;28,99632
 976,70; 4347,756;  223,794;14529,981;28,82642
 977,25; 4387,987;  237,179;14485,827;29,13124
 977,80; 4328,448;  221,179;14321,904;29,12807
 978,35; 4299,217;  239,948;14164,904;29,15104
 978,89; 4244,756;  204,640;14069,596;29,13904
 979,44; 4251,987;  232,487;14051,058;29,08767
 979,99; 4199,217;  212,948;13923,981;29,07344
 980,54; 4200,063;  248,794;13784,212;29,19208
 981,09; 4200,602;  245,640;13719,365;29,35314
 981,64; 4147,756;  242,640;13610,365;29,21301
 982,19; 4145,756;  271,102;13503,827;29,28085
 982,74; 4100,140;  241,563;13377,981;29,37313
 983,29; 4015,525;  220,948;13220,519;29,19002
 983,84; 4029,140;  229,179;13114,904;29,48970
 984,39; 4089,756;  325,410;13130,442;29,39740
 984,94; 3933,294;  203,102;12941,673;29,28266
 985,49; 3977,602;  262,948;12824,981;29,57048
 986,03; 3931,063;  244,948;12732,442;29,51846
 986,58; 3895,063;  284,640;12591,904;29,33571
 987,13; 3846,910;  227,563;12498,288;29,49578
 987,68; 3822,602;  245,025;12396,365;29,44183
 988,23; 3795,756;  239,102;12288,981;29,51610
 988,78; 3752,063;  220,487;12097,058;29,73566
 989,33; 3760,217;  253,948;12040,596;29,74781
 989,88; 3756,756;  271,025;12016,519;29,67717
 990,42; 3642,140;  224,256;11778,135;29,58214
 990,97; 3606,525;  223,102;11706,981;29,46237
 991,52; 3628,371;  258,948;11632,058;29,62623
 992,07; 3635,294;  270,025;11520,442;29,91239
 992,62; 3554,756;  238,410;11359,673;29,81987
 993,17; 3527,448;  239,563;11261,827;29,82949
 993,71; 3502,756;  253,794;11131,750;29,86739
 994,26; 3444,525;  222,717;11031,442;29,80747
 994,81; 3475,602;  258,179;10961,058;30,06129
 995,36; 3374,910;  232,717;10804,288;29,72304
 995,91; 3376,833;  241,871;10706,904;29,95654
 996,45; 3332,140;  241,179;10601,673;29,83411
 997,00; 3274,602;  215,487;10453,596;29,87969
 997,55; 3283,140;  250,333;10425,288;29,80659
 998,10; 3254,448;  265,333;10286,750;29,82727
 998,65; 3233,063;  233,794;10223,750;30,02285
 999,19; 3225,833;  248,256;10122,981;30,15352
 999,74; 3190,063;  266,025;10010,827;30,00614
1000,29; 3169,371;  246,256; 9896,442;30,29077
1000,84; 3113,063;  235,025; 9747,519;30,25535
1001,38; 3076,756;  253,948; 9658,519;30,01527
1001,93; 3072,602;  251,717; 9600,596;30,17351
1002,48; 3006,602;  214,179; 9385,365;30,44778
1003,03; 2994,833;  252,333; 9390,519;30,01143
1003,57; 2985,833;  253,717; 9279,673;30,26954
1004,12; 2994,602;  284,487; 9162,288;30,52687
1004,67; 2926,140;  228,948; 9069,904;30,50793
1005,22; 2846,371;  229,948; 8908,212;30,14915
1005,76; 2827,679;  221,717; 8775,904;30,46417
1006,31; 2854,294;  239,794; 8757,135;30,69620
1006,86; 2770,987;  230,256; 8563,212;30,49015
1007,40; 2734,987;  218,102; 8430,827;30,64616
1007,95; 2724,679;  243,410; 8365,596;30,54928
1008,50; 2682,140;  234,179; 8197,827;30,73920
1009,04; 2674,371;  225,025; 8126,058;31,00033
1009,59; 2618,525;  237,487; 7965,288;30,81133
1010,14; 2564,525;  220,102; 7876,442;30,62067
1010,68; 2568,063;  242,102; 7739,827;31,02223
1011,23; 2526,602;  243,256; 7677,981;30,71191
1011,78; 2493,371;  253,871; 7525,596;30,79737
1012,32; 2495,448;  271,948; 7462,827;30,92112
1012,87; 2477,756;  268,563; 7386,673;31,03622
1013,42; 2401,063;  219,256; 7261,058;30,98366
1013,96; 2439,140;  265,410; 7279,212;30,99219
1014,51; 2364,987;  201,410; 7170,750;31,04421
1015,06; 2363,217;  220,025; 7161,981;30,87303
1015,60; 2430,987;  277,794; 7212,442;31,04977
1016,15; 2399,294;  217,333; 7164,596;31,40750
1016,69; 2427,525;  233,025; 7178,750;31,59497
1017,24; 2393,371;  210,794; 7181,904;31,30889
1017,79; 2474,217;  269,333; 7245,288;31,60692
1018,33; 2449,294;  231,102; 7272,135;31,50379
1018,88; 2455,602;  248,563; 7366,673;31,00596
1019,42; 2454,756;  229,410; 7292,904;31,50489
1019,97; 2447,371;  218,640; 7299,519;31,47534
1020,51; 2463,525;  280,640; 7441,981;30,48151
1021,06; 2444,679;  213,487; 7343,365;31,29355
1021,61; 2429,140;  200,333; 7303,827;31,37622
1022,15; 2378,294;  186,487; 7269,673;30,94381
1022,70; 2414,679;  236,102; 7266,212;30,98923
1023,24; 2408,910;  217,563; 7238,519;31,21151
1023,79; 2383,833;  224,333; 7180,365;31,04499
1024,33; 2383,140;  218,102; 7083,750;31,53436
1024,88; 2354,910;  242,640; 7045,442;31,04999
1025,42; 2312,833;  249,794; 6925,135;30,90537
1025,97; 2281,448;  220,333; 6840,365;31,13452
1026,51; 2239,448;  186,333; 6693,288;31,55263
1027,06; 2227,756;  213,179; 6644,135;31,32624
1027,60; 2220,217;  238,794; 6497,827;31,65702
1028,15; 2205,448;  257,410; 6405,519;31,68516
1028,69; 2138,987;  191,871; 6264,904;32,06166
1029,24; 2143,525;  218,179; 6246,212;31,93988
1029,78; 2045,448;  209,025; 6111,288;31,11388
1030,33; 2027,371;  195,256; 6015,673;31,47739
1030,87; 2040,910;  212,333; 5917,365;32,05200
1031,42; 1981,217;  200,487; 5828,365;31,64124
1031,96; 2004,294;  233,794; 5783,365;31,90337
1032,51; 1926,140;  218,794; 5651,442;31,42751
1033,05; 1947,833;  220,025; 5613,519;32,03503
1033,60; 1872,910;  185,025; 5496,442;31,77842
1034,14; 1882,217;  215,333; 5412,596;32,07235
1034,69; 1860,525;  219,333; 5370,827;31,85857
1035,23; 1826,294;  213,179; 5260,212;31,96166
1035,77; 1832,525;  228,256; 5248,365;31,95686
1036,32; 1774,217;  189,179; 5121,981;32,13262
1036,86; 1765,910;  228,563; 5079,058;31,69463
1037,41; 1741,679;  217,410; 5010,442;31,80177
1037,95; 1699,602;  199,256; 4891,673;31,97384
1038,50; 1680,294;  211,794; 4864,904;31,55954
1039,04; 1703,756;  237,333; 4830,519;31,92605
1039,58; 1610,217;  188,102; 4698,519;31,52957
1040,13; 1628,217;  208,256; 4668,519;31,83582
1040,67; 1634,063;  249,717; 4628,750;31,61306
1041,21; 1610,448;  249,179; 4547,750;31,66795
1041,76; 1552,371;  199,256; 4455,442;31,79173
1042,30; 1556,140;  215,333; 4408,596;31,97528
1042,85; 1528,371;  211,179; 4337,596;31,92097
1043,39; 1500,294;  199,102; 4251,827;32,10660
1043,93; 1519,140;  235,871; 4235,827;32,08209
1044,48; 1466,217;  218,563; 4140,673;31,81078
1045,02; 1452,679;  216,871; 4101,596;31,81197
1045,56; 1463,910;  252,871; 4063,519;31,78038
1046,11; 1436,448;  223,410; 3975,750;32,32752
1046,65; 1417,987;  225,256; 3947,135;32,04647
1047,19; 1399,448;  209,948; 3840,365;32,76483
1047,74; 1344,371;  193,179; 3786,058;32,04094
1048,28; 1365,140;  221,794; 3747,288;32,43080
1048,82; 1358,910;  251,948; 3728,519;31,84061
1049,37; 1312,910;  240,640; 3685,596;31,12578
1049,91; 1319,294;  230,179; 3639,519;31,94505
1050,45; 1308,448;  230,410; 3582,442;32,16074
1050,99; 1291,525;  235,102; 3521,442;32,14588
1051,54; 1247,140;  219,256; 3462,827;31,68990
1052,08; 1273,679;  247,333; 3419,904;32,35061
1052,62; 1257,756;  243,871; 3371,904;32,41285
1053,16; 1198,602;  215,179; 3308,904;31,78767
1053,71; 1221,294;  228,025; 3285,519;32,48638
1054,25; 1224,140;  237,410; 3249,058;32,76381
1054,79; 1181,217;  241,025; 3195,981;31,81747
1055,33; 1128,910;  197,640; 3123,442;31,82954
1055,88; 1148,140;  238,179; 3130,750;31,45857
1056,42; 1146,371;  242,717; 3047,519;32,21810
1056,96; 1140,910;  251,256; 3039,596;31,90621
1057,50; 1119,448;  232,487; 2967,827;32,42600
1058,05; 1113,679;  229,871; 2925,365;32,78834
1058,59; 1107,833;  255,563; 2899,365;32,23650
1059,13; 1053,140;  212,256; 2818,365;32,26590
1059,67; 1075,525;  240,487; 2779,673;32,88606
1060,21; 1050,294;  225,871; 2747,981;32,68784
1060,76; 1038,910;  241,333; 2708,442;32,32839
1061,30; 1051,525;  263,871; 2704,288;32,27538
1061,84; 1023,910;  238,333; 2628,981;32,86042
1062,38;  986,833;  220,410; 2586,212;32,39591
1062,92; 1028,679;  269,487; 2601,058;32,56140
1063,46;  983,294;  241,487; 2509,442;32,70821
1064,01;  959,140;  214,102; 2458,519;33,19518
1064,55;  964,910;  254,102; 2459,212;32,23457
1065,09;  937,525;  204,487; 2400,058;33,38714
1065,63;  964,294;  262,948; 2402,827;32,77504
1066,17;  961,217;  278,102; 2389,135;32,35930
1066,71;  958,063;  244,563; 2352,596;33,84672
1067,25;  921,217;  236,179; 2311,135;33,01461
1067,80;  919,910;  243,794; 2286,442;33,09994
1068,34;  919,063;  253,794; 2279,058;32,84853
1068,88;  875,448;  236,487; 2208,596;32,39990
1069,42;  898,294;  251,487; 2208,442;33,05173
1069,96;  847,217;  230,948; 2160,288;31,94197
1070,50;  894,679;  271,179; 2161,442;32,98482
1071,04;  834,217;  222,948; 2100,981;32,54838
1071,58;  830,679;  242,871; 2067,519;32,21485
1072,12;  852,833;  237,179; 2066,442;33,65583
1072,66;  827,217;  231,948; 2023,135;33,23323
1073,21;  844,833;  245,179; 2028,442;33,62677
1073,75;  802,756;  248,717; 1996,365;31,70195
1074,29;  791,525;  238,563; 1960,519;32,11241
1074,83;  821,525;  259,871; 1945,519;33,31976
1075,37;  803,910;  263,717; 1953,212;31,97361
1075,91;  796,679;  243,794; 1911,827;33,14591
1076,45;  781,217;  244,717; 1886,750;32,67292
1076,99;  782,448;  260,640; 1879,212;32,23879
1077,53;  745,987;  240,640; 1820,750;31,98171
1078,07;  757,140;  255,179; 1817,750;32,12408
1078,61;  748,294;  240,948; 1778,058;33,00650
1079,15;  738,833;  241,179; 1754,288;32,88948
1079,69;  747,525;  242,871; 1741,904;33,66530
1080,23;  752,910;  256,102; 1731,827;33,66533
1080,77;  782,140;  298,256; 1769,750;32,88389
1081,31;  699,525;  241,794; 1663,981;32,18500
1081,85;  718,679;  268,948; 1681,212;31,84468
1082,39;  699,756;  225,256; 1628,212;33,82145
1082,93;  718,140;  256,640; 1642,365;33,30387
1083,47;  659,063;  229,102; 1566,904;32,13940
1084,01;  706,679;  252,717; 1585,904;34,05086
1084,55;  665,525;  240,794; 1557,673;32,25284
1085,09;  686,525;  250,410; 1563,981;33,20074
1085,63;  671,217;  240,102; 1546,519;32,99982
1086,17;  668,525;  229,025; 1493,981;34,74430
1086,71;  642,140;  226,948; 1467,365;33,47199
1087,24;  677,679;  266,025; 1506,212;33,19290
1087,78;  681,833;  260,871; 1493,135;34,16165
1088,32;  619,602;  231,410; 1426,442;32,48382
1088,86;  642,602;  257,487; 1442,442;32,50040
1089,40;  632,756;  257,102; 1424,442;32,18032
1089,94;  610,756;  226,102; 1378,212;33,38691
1090,48;  614,063;  243,333; 1378,673;32,65371
1091,02;  629,525;  258,179; 1388,596;32,85036
1091,56;  598,140;  244,563; 1350,904;31,95914
1092,10;  580,987;  223,102; 1296,212;33,35024
1092,63;  629,833;  262,256; 1345,750;33,92514
1093,17;  587,756;  255,794; 1312,365;31,41876
1093,71;  588,910;  231,410; 1282,135;34,02413
1094,25;  603,833;  272,640; 1299,673;32,24749
1094,79;  568,217;  238,640; 1255,135;32,42290
1095,33;  581,833;  239,333; 1272,288;33,15728
1095,87;  570,833;  246,025; 1246,135;32,47721
1096,40;  540,371;  211,487; 1192,981;33,50856
1096,94;  563,371;  244,487; 1190,904;33,69387
1097,48;  574,756;  260,717; 1205,827;33,22773
1098,02;  537,987;  235,410; 1177,365;32,12220
1098,56;  513,987;  215,563; 1127,058;32,73999
1099,10;  513,140;  221,563; 1134,135;31,95114
1099,63;  513,217;  221,794; 1115,135;32,62173
1100,17;  537,217;  246,717; 1133,673;32,75248
1100,71;  572,371;  276,333; 1126,981;34,80152

