
Integration time [ms]: 160,000
Averaging Nr. [scans]: 13
Smoothing Nr. [pixels]: 0
Data measured with spectrometer [name]: 2009305U1
Wave   ;Sample   ;Dark     ;Reference;Reflectance
[nm]   ;[counts] ;[counts] ;[counts] ;[%]

 175,72;  213,293;  199,741;  200,777;1308,02393
 176,32;  234,248;  225,729;  223,979; 0,00000
 176,92;  263,993;  254,352;  256,468;455,60249
 177,52;  270,881;  261,585;  265,454;240,26132
 178,12;  243,705;  246,191;  228,377; 0,00000
 178,72;  267,296;  256,803;  258,493;620,75810
 179,32;  255,143;  250,652;  234,314; 0,00000
 179,92;  258,281;  255,041;  253,110; 0,00000
 180,52;  253,765;  243,055;  255,886;83,46570
 181,12;  272,063;  258,888;  259,497; 0,00000
 181,73;  284,599;  266,427;  278,520;150,26754
 182,33;  381,708;  358,357;  354,615; 0,00000
 182,93;  269,002;  274,431;  274,023; 0,00000
 183,53;  248,726;  246,416;  233,568; 0,00000
 184,13;  232,213;  235,495;  227,035; 0,00000
 184,73;  289,502;  285,799;  287,378;234,51262
 185,33;  279,970;  228,805;  366,277;37,21853
 185,93;  287,752;  235,412;  372,564;38,16184
 186,53;  311,785;  256,186;  398,310;39,11998
 187,13;  338,368;  279,426;  434,595;37,98554
 187,73;  288,475;  244,875;  373,249;33,96300
 188,33;  291,331;  250,255;  386,995;30,03986
 188,93;  294,261;  255,162;  385,621;29,97038
 189,53;  304,590;  257,227;  401,302;32,87389
 190,13;  322,989;  280,670;  423,850;29,55681
 190,73;  267,180;  224,529;  378,443;27,71089
 191,34;  303,339;  264,081;  410,691;26,77688
 191,94;  283,940;  245,019;  377,905;29,28901
 192,54;  306,197;  247,664;  427,510;32,54656
 193,14;  309,712;  261,733;  418,542;30,59702
 193,74;  316,175;  262,654;  401,356;38,58690
 194,34;  305,937;  254,966;  402,972;34,43833
 194,94;  272,678;  221,040;  376,033;33,31629
 195,54;  260,554;  216,190;  352,702;32,49797
 196,14;  271,952;  226,891;  382,071;29,03825
 196,74;  272,714;  220,111;  382,041;32,48463
 197,34;  252,318;  197,127;  382,736;29,73486
 197,94;  279,533;  232,119;  400,126;28,22163
 198,54;  283,463;  246,429;  416,944;21,71897
 199,14;  270,232;  216,900;  396,880;29,63210
 199,74;  263,034;  199,515;  409,619;30,23220
 200,34;  255,730;  201,978;  416,946;25,00438
 200,94;  296,842;  239,588;  444,800;27,89998
 201,54;  279,673;  217,744;  468,718;24,67545
 202,14;  322,126;  243,442;  505,674;30,00535
 202,74;  294,116;  222,361;  498,991;25,93888
 203,34;  289,921;  195,523;  523,337;28,79616
 203,94;  267,985;  170,751;  524,984;27,44916
 204,54;  334,233;  249,427;  608,671;23,60669
 205,14;  307,435;  199,361;  622,984;25,51178
 205,74;  362,008;  246,446;  720,243;24,39061
 206,34;  319,603;  203,288;  737,115;21,78890
 206,94;  346,413;  212,364;  803,280;22,68501
 207,54;  319,300;  194,057;  837,333;19,46955
 208,14;  360,890;  211,443;  913,379;21,29080
 208,74;  369,055;  209,207; 1013,510;19,87409
 209,34;  385,772;  206,516; 1117,044;19,68703
 209,94;  423,985;  216,285; 1207,131;20,96192
 210,54;  425,262;  204,290; 1327,188;19,67872
 211,14;  443,380;  209,977; 1436,345;19,03206
 211,73;  460,051;  215,667; 1572,019;18,01772
 212,33;  492,962;  226,049; 1695,753;18,16102
 212,93;  495,911;  207,822; 1770,108;18,44022
 213,53;  483,550;  182,746; 1835,326;18,20209
 214,13;  533,703;  200,988; 1950,535;19,01721
 214,73;  521,433;  191,288; 1957,212;18,69532
 215,33;  521,600;  172,208; 1999,362;19,12224
 215,93;  563,424;  210,907; 2119,819;18,46694
 216,53;  574,048;  164,822; 2217,580;19,93542
 217,13;  658,114;  227,136; 2448,261;19,40357
 217,73;  713,953;  191,369; 2666,066;21,11709
 218,33;  740,497;  171,989; 2838,762;21,31820
 218,93;  832,991;  196,459; 3204,207;21,16306
 219,53;  926,607;  195,220; 3533,962;21,90607
 220,13;  993,337;  160,837; 3850,961;22,56021
 220,73; 1110,667;  188,208; 4281,994;22,53316
 221,32; 1213,670;  200,899; 4687,125;22,57512
 221,92; 1322,748;  199,298; 5129,848;22,78548
 222,52; 1446,717;  167,215; 5602,925;23,53882
 223,12; 1556,818;  184,523; 6053,373;23,38268
 223,72; 1713,005;  196,293; 6476,650;24,15009
 224,32; 1806,852;  194,370; 6900,583;24,04460
 224,92; 1881,797;  167,678; 7203,560;24,36254
 225,52; 1994,216;  207,748; 7625,096;24,08499
 226,12; 2105,053;  188,598; 7945,856;24,70531
 226,72; 2166,947;  159,674; 8322,566;24,59022
 227,31; 2292,276;  155,674; 8696,466;25,01645
 227,91; 2427,560;  194,671; 9121,351;25,01366
 228,51; 2527,624;  181,896; 9490,110;25,20062
 229,11; 2629,259;  195,135; 9947,630;24,95899
 229,71; 2726,207;  175,668;10228,115;25,37232
 230,31; 2855,296;  165,218;10718,251;25,49104
 230,91; 2900,909;  160,278;11047,928;25,17192
 231,51; 2998,821;  168,061;11349,350;25,31693
 232,10; 3123,013;  167,758;11737,016;25,54404
 232,70; 3190,475;  186,735;11999,664;25,42756
 233,30; 3277,632;  202,829;12239,986;25,54426
 233,90; 3298,731;  173,906;12300,963;25,76738
 234,50; 3280,562;  179,061;12417,146;25,34303
 235,10; 3302,797;  172,909;12458,944;25,47517
 235,70; 3322,422;  198,209;12575,100;25,24231
 236,29; 3294,268;  196,976;12452,520;25,27258
 236,89; 3193,938;  164,048;12281,757;25,00382
 237,49; 3172,718;  194,982;12162,422;24,88198
 238,09; 3061,142;  180,826;11817,192;24,75270
 238,69; 3025,524;  218,045;11505,502;24,87256
 239,29; 2855,590;  182,980;11125,113;24,42495
 239,89; 2772,377;  192,125;10743,781;24,45353
 240,48; 2621,010;  177,596;10312,169;24,10969
 241,08; 2493,896;  167,440; 9918,872;23,85758
 241,68; 2386,159;  195,442; 9593,874;23,30939
 242,28; 2232,790;  163,444; 9193,819;22,91539
 242,88; 2158,428;  214,834; 8861,428;22,47815
 243,48; 2059,377;  210,674; 8590,298;22,06188
 244,07; 1940,966;  180,671; 8300,943;21,67779
 244,67; 1864,265;  194,981; 8093,088;21,13524
 245,27; 1794,512;  194,667; 7997,019;20,50465
 245,87; 1778,262;  199,679; 7911,656;20,46923
 246,47; 1742,567;  196,590; 7831,043;20,25001
 247,06; 1698,024;  177,210; 7850,293;19,82011
 247,66; 1680,143;  186,904; 7992,433;19,13053
 248,26; 1741,476;  218,514; 8116,764;19,28227
 248,86; 1734,788;  202,129; 8336,982;18,84065
 249,46; 1728,633;  152,830; 8599,688;18,65550
 250,05; 1836,250;  204,365; 9042,229;18,46471
 250,65; 1869,422;  167,820; 9488,093;18,25700
 251,25; 1997,857;  178,286;10021,829;18,48492
 251,85; 2105,679;  182,894;10653,323;18,36396
 252,44; 2243,154;  149,515;11376,948;18,64753
 253,04; 2445,821;  198,362;12268,532;18,61995
 253,64; 2586,766;  144,588;13140,502;18,79189
 254,24; 2845,986;  200,287;14187,567;18,91504
 254,84; 3065,018;  176,522;15338,996;19,05029
 255,43; 3335,325;  181,361;16441,168;19,39730
 256,03; 3616,866;  189,358;17674,950;19,60190
 256,63; 3942,344;  192,278;18907,965;20,03702
 257,23; 4195,900;  171,663;19978,647;20,31726
 257,82; 4496,995;  194,582;21230,937;20,45227
 258,42; 4722,511;  155,042;22375,919;20,55486
 259,02; 5133,606;  208,977;23416,897;21,21961
 259,62; 5390,915;  174,348;24318,953;21,60552
 260,21; 5666,104;  184,976;25013,690;22,07576
 260,81; 5894,217;  183,213;25624,225;22,44802
 261,41; 6077,806;  171,889;26292,804;22,60991
 262,01; 6382,477;  211,654;26975,282;23,05675
 262,60; 6567,515;  174,663;27463,031;23,42702
 263,20; 6809,605;  171,974;27904,384;23,93456
 263,80; 6982,031;  201,654;28229,185;24,19185
 264,40; 7127,567;  169,732;28449,208;24,60383
 264,99; 7333,623;  192,961;28660,660;25,08338
 265,59; 7449,895;  179,340;28893,972;25,32004
 266,19; 7591,218;  161,270;29175,386;25,60805
 266,78; 7758,557;  219,651;29399,987;25,83557
 267,38; 7881,107;  190,264;29352,707;26,37242
 267,98; 7969,085;  179,959;29466,465;26,59630
 268,58; 8024,513;  183,957;29493,222;26,75112
 269,17; 8049,563;  177,337;29577,473;26,77616
 269,77; 8134,791;  189,123;29266,106;27,32631
 270,37; 8145,409;  153,346;29253,102;27,46436
 270,96; 8206,044;  224,736;29001,887;27,73488
 271,56; 8132,289;  177,971;28718,942;27,86982
 272,16; 8129,887;  183,427;28531,176;28,03207
 272,75; 8187,982;  179,735;28438,781;28,33870
 273,35; 8193,710;  180,968;28492,693;28,30185
 273,95; 8265,938;  188,813;28468,674;28,56140
 274,54; 8294,266;  176,134;28382,363;28,78135
 275,14; 8475,057;  205,122;28954,428;28,76569
 275,74; 8480,047;  158,504;28965,480;28,88725
 276,33; 8757,478;  207,123;29476,725;29,21240
 276,93; 8901,017;  178,596;29891,483;29,35568
 277,53; 9105,148;  181,053;30469,874;29,46333
 278,12; 9316,984;  160,510;31080,730;29,61322
 278,72; 9638,789;  219,668;31838,915;29,78920
 279,32; 9862,508;  182,590;32489,494;29,96238
 279,91;10227,296;  161,127;33366,067;30,31527
 280,51;10458,033;  184,899;34012,841;30,36878
 281,11;10815,779;  170,358;34876,889;30,67267
 281,70;11046,877;  155,050;35308,164;30,98396
 282,30;11382,212;  166,125;36176,249;31,14704
 282,90;11630,360;  178,201;36604,099;31,43961
 283,49;11994,205;  190,583;37302,355;31,80560
 284,09;12299,062;  212,588;37743,355;32,20418
 284,69;12521,161;  211,128;38090,989;32,49757
 285,28;12787,414;  192,818;38595,308;32,79630
 285,88;13173,958;  248,197;38774,102;33,55083
 286,47;13220,788;  190,509;39004,667;33,57094
 287,07;13504,321;  210,590;38992,293;34,27836
 287,67;13815,530;  196,367;39142,990;34,96879
 288,26;14004,694;  173,974;39033,454;35,59162
 288,86;14326,068;  181,973;39203,121;36,24726
 289,46;14654,978;  208,974;39328,621;36,92775
 290,05;15039,516;  171,440;39402,244;37,89898
 290,65;15411,732;  184,662;39742,250;38,49342
 291,24;15830,168;  189,206;39857,457;39,42942
 291,84;16189,113;  190,586;39984,888;40,20306
 292,44;16545,664;  193,367;40181,331;40,89305
 293,03;16977,679;  262,898;40338,407;41,70822
 293,63;17291,305;  185,047;40528,691;42,40137
 294,22;17658,961;  206,204;40706,632;43,09277
 294,82;17870,914;  185,271;40767,174;43,58012
 295,41;17925,415;  173,511;40305,933;44,23332
 296,01;18061,133;  219,196;40292,531;44,52321
 296,61;18085,569;  206,129;39981,129;44,95145
 297,20;17966,029;  193,504;39570,490;45,13430
 297,80;18004,470;  201,518;39286,775;45,54902
 298,39;17768,910;  173,586;38834,323;45,51213
 298,99;17807,868;  216,967;38727,141;45,67858
 299,58;17762,308;  203,981;38503,349;45,84495
 300,18;17549,072;  206,979;38361,926;45,45176
 300,78;17318,534;  181,823;37955,038;45,36736
 301,37;17313,605;  200,037;37824,584;45,48511
 301,97;17310,615;  195,051;37965,521;45,31467
 302,56;17165,485;  176,124;37860,577;45,08321
 303,16;17116,707;  171,738;37803,792;45,02802
 303,75;17056,728;  179,439;37750,475;44,92101
 304,35;17139,526;  174,062;38078,968;44,75796
 304,94;17033,962;  180,359;38045,641;44,50938
 305,54;16962,363;  205,438;37956,894;44,38749
 306,13;16839,620;  162,139;37817,650;44,28962
 306,73;16626,350;  169,060;37699,181;43,85089
 307,33;16540,947;  199,905;37580,566;43,71523
 307,92;16401,657;  196,668;37708,122;43,20011
 308,52;16562,920;  176,584;38301,649;42,98048
 309,11;16744,131;  177,426;38836,983;42,85281
 309,71;16787,658;  162,654;39062,178;42,73832
 310,30;16809,101;  175,206;39374,979;42,43365
 310,90;16930,871;  219,821;39805,209;42,21520
 311,49;16858,029;  186,205;40051,196;41,82071
 312,09;16842,512;  156,979;40225,718;41,64227
 312,68;16960,550;  238,592;40678,326;41,35032
 313,28;16830,580;  156,745;40746,738;41,07869
 313,87;16777,804;  143,744;40970,885;40,74265
 314,47;16797,365;  181,120;41423,848;40,28891
 315,06;16711,795;  166,822;41394,219;40,13102
 315,66;16700,204;  167,364;41750,334;39,75868
 316,25;16485,010;  144,431;41409,652;39,59891
 316,85;16343,419;  146,979;41637,354;39,03662
 317,44;16272,792;  169,580;41819,484;38,66326
 318,04;16120,184;  157,048;41725,507;38,40204
 318,63;15921,378;  161,060;41782,846;37,86555
 319,22;15904,132;  174,354;42126,384;37,49468
 319,82;15751,248;  175,741;42131,854;37,12333
 320,41;15485,227;  189,816;41995,758;36,58669
 321,01;15396,175;  194,978;42176,428;36,20932
 321,60;15239,826;  184,742;42249,743;35,79005
 322,20;15089,389;  164,283;42279,165;35,43903
 322,79;15007,207;  206,129;42434,961;35,04970
 323,39;14820,392;  178,753;42486,859;34,60717
 323,98;14640,516;  157,592;42432,433;34,25897
 324,58;14466,102;  167,199;42297,084;33,94005
 325,17;14233,231;  170,662;42200,899;33,45822
 325,76;14062,100;  190,897;41944,354;33,22169
 326,36;13724,554;  150,363;41454,047;32,86436
 326,95;13523,382;  195,973;41194,502;32,50704
 327,55;13219,160;  157,741;40819,014;32,12250
 328,14;12920,828;  166,365;40385,196;31,71267
 328,74;12686,067;  196,354;39859,146;31,48975
 329,33;12426,389;  187,286;39413,361;31,20145
 329,92;12057,093;  163,811;38764,795;30,81083
 330,52;11732,412;  188,673;37956,005;30,56541
 331,11;11425,084;  175,665;37483,716;30,15279
 331,71;11111,834;  179,589;36868,297;29,79730
 332,30;10845,193;  196,436;36296,949;29,49752
 332,89;10559,778;  235,285;35572,425;29,21711
 333,49;10304,794;  192,588;34988,783;29,06124
 334,08; 9999,901;  185,510;34527,656;28,57827
 334,68; 9753,446;  175,126;34029,115;28,29303
 335,27; 9552,766;  193,366;33538,670;28,06812
 335,86; 9421,546;  232,972;33293,101;27,79352
 336,46; 9206,805;  193,213;32980,021;27,49152
 337,05; 9041,952;  175,126;32833,770;27,15001
 337,65; 8910,781;  162,433;32586,472;26,98105
 338,24; 8888,280;  204,976;32609,051;26,79695
 338,83; 8781,368;  200,976;32374,352;26,66923
 339,43; 8693,742;  165,277;32404,926;26,45334
 340,02; 8604,839;  179,430;32310,893;26,22168
 340,61; 8536,075;  178,976;32399,554;25,93715
 341,21; 8470,452;  206,277;32414,685;25,65844
 341,80; 8431,231;  180,356;32314,864;25,67606
 342,40; 8452,654;  173,058;32469,075;25,63659
 342,99; 8386,931;  169,747;32633,271;25,31205
 343,58; 8375,619;  175,363;32798,054;25,13667
 344,18; 8422,901;  192,209;32955,244;25,12188
 344,77; 8440,910;  168,969;33314,896;24,95613
 345,36; 8443,843;  161,434;33686,117;24,70541
 345,96; 8583,674;  196,516;34056,000;24,77048
 346,55; 8634,355;  179,446;34413,133;24,69763
 347,14; 8644,583;  157,519;34758,225;24,52858
 347,74; 8747,681;  152,451;35301,062;24,45397
 348,33; 8946,563;  178,912;36095,701;24,41101
 348,92; 9079,869;  176,839;36779,699;24,32332
 349,52; 9235,480;  153,145;37329,362;24,43050
 350,11; 9272,629;  168,660;37571,706;24,34018
 350,70; 9311,531;  172,514;37759,403;24,31437
 351,29; 9228,425;  147,112;37369,117;24,39770
 351,89; 9210,950;  194,426;37340,471;24,27317
 352,48; 9218,525;  155,283;37439,253;24,30868
 353,07; 9195,469;  184,136;37413,970;24,20460
 353,67; 9244,409;  194,147;37241,401;24,42897
 354,26; 9162,456;  178,212;36934,891;24,44248
 354,85; 9126,040;  175,056;36891,581;24,37862
 355,45; 9052,663;  153,894;36537,727;24,45803
 356,04; 9127,289;  183,752;36509,930;24,62009
 356,63; 9052,882;  202,358;36247,314;24,55413
 357,22; 9045,864;  188,807;36150,798;24,62894
 357,82; 9019,056;  181,040;35862,643;24,76911
 358,41; 9052,264;  195,897;35670,414;24,96543
 359,00; 9007,000;  157,816;35416,899;25,09760
 359,60; 9036,868;  179,822;35389,155;25,15539
 360,19; 9017,912;  200,060;35155,398;25,22605
 360,78; 9042,803;  180,356;34966,295;25,47709
 361,37; 9025,605;  184,972;34661,650;25,64236
 361,97; 9063,087;  182,050;34589,889;25,81108
 362,56; 9027,414;  172,660;34176,224;26,04066
 363,15; 9073,170;  223,895;33867,536;26,30296
 363,74; 8994,503;  187,504;33534,714;26,41000
 364,34; 8952,016;  200,585;33058,417;26,63423
 364,93; 8819,923;  170,352;32472,319;26,77723
 365,52; 8758,161;  149,511;31996,178;27,03156
 366,11; 8737,412;  182,200;31660,103;27,17847
 366,71; 8671,209;  175,508;31199,307;27,38446
 367,30; 8661,096;  171,665;30815,094;27,70392
 367,89; 8661,748;  214,748;30544,715;27,85034
 368,48; 8611,646;  193,582;30179,808;28,07310
 369,07; 8557,762;  187,052;29522,711;28,53425
 369,67; 8582,604;  206,198;29218,710;28,87170
 370,26; 8524,367;  177,360;28888,112;29,07276
 370,85; 8524,595;  185,126;28556,666;29,39378
 371,44; 8489,460;  184,896;28357,435;29,47751
 372,03; 8498,121;  154,200;28132,391;29,82295
 372,63; 8471,981;  157,973;27646,214;30,24569
 373,22; 8442,766;  171,206;27237,698;30,56015
 373,81; 8404,798;  153,280;26869,231;30,88611
 374,40; 8397,163;  173,288;26611,169;31,10641
 374,99; 8398,109;  165,664;26272,286;31,53394
 375,59; 8364,959;  165,980;25907,594;31,85107
 376,18; 8443,126;  201,664;25786,737;32,21199
 376,77; 8412,637;  198,205;25584,959;32,35716
 377,36; 8506,512;  204,203;25603,593;32,68704
 377,95; 8491,737;  194,739;25167,785;33,22381
 378,55; 8504,944;  172,440;24949,659;33,62970
 379,14; 8509,562;  193,434;24881,312;33,68507
 379,73; 8619,573;  174,355;24717,955;34,40905
 380,32; 8727,115;  194,589;24783,324;34,70095
 380,91; 8728,180;  174,967;24615,513;34,99600
 381,50; 8829,601;  190,814;24568,194;35,43772
 382,10; 8856,884;  168,589;24405,939;35,84672
 382,69; 8968,556;  152,972;24328,931;36,46426
 383,28; 8975,482;  203,276;24238,789;36,49685
 383,87; 9035,658;  172,661;24083,843;37,06633
 384,46; 9084,073;  175,425;24047,479;37,31832
 385,05; 9193,574;  202,199;24006,759;37,77165
 385,64; 9278,797;  195,123;24065,872;38,05358
 386,24; 9311,545;  159,501;23942,693;38,48114
 386,83; 9492,406;  203,193;24066,663;38,92650
 387,42; 9638,864;  199,431;24173,658;39,37325
 388,01; 9844,493;  184,111;24341,640;39,98912
 388,60;10030,443;  193,118;24709,739;40,12513
 389,19;10221,406;  175,259;24923,684;40,59308
 389,78;10440,245;  175,260;25264,489;40,91391
 390,37;10809,269;  238,806;25707,842;41,50319
 390,96;10982,121;  177,501;25862,265;42,06626
 391,56;11111,000;  179,103;26100,820;42,17274
 392,15;11412,940;  169,184;26383,893;42,89102
 392,74;11590,892;  156,633;26661,230;43,14066
 393,33;11833,498;  173,486;27021,151;43,43026
 393,92;12155,129;  184,859;27416,297;43,95754
 394,51;12390,613;  161,486;27625,647;44,52758
 395,10;12644,786;  204,385;27911,868;44,89907
 395,69;12755,131;  193,156;28069,635;45,06299
 396,28;12996,390;  203,303;28244,714;45,62212
 396,87;13165,225;  201,830;28278,280;46,17177
 397,46;13287,597;  202,977;28389,844;46,42098
 398,06;13559,163;  223,583;28684,409;46,85591
 398,65;13704,308;  186,330;28773,929;47,28616
 399,24;13911,425;  208,403;28930,889;47,70834
 399,83;13932,334;  189,754;28943,818;47,79352
 400,42;14171,824;  234,878;29129,852;48,23311
 401,01;14337,616;  199,152;29283,114;48,61258
 401,60;14527,270;  212,721;29237,521;49,31834
 402,19;14529,100;  226,300;29180,389;49,39820
 402,78;14684,811;  237,243;29238,004;49,81789
 403,37;14677,886;  229,421;29088,693;50,06524
 403,96;14673,005;  220,819;28866,323;50,45185
 404,55;14806,530;  224,826;28737,408;51,14129
 405,14;14751,950;  214,686;28590,262;51,23161
 405,73;14848,865;  223,688;28460,261;51,79516
 406,32;14891,509;  226,561;28439,831;51,97890
 406,91;14825,464;  222,888;28051,176;52,47386
 407,50;14837,206;  233,397;27885,955;52,81178
 408,09;14721,063;  199,914;27519,244;53,15338
 408,68;14765,225;  216,822;27407,573;53,50497
 409,27;14707,749;  203,611;27184,332;53,75741
 409,86;14735,378;  214,194;26963,467;54,28628
 410,45;14819,431;  245,386;26892,896;54,69196
 411,04;14864,474;  254,194;26825,042;54,98613
 411,63;14760,161;  239,245;26454,305;55,39151
 412,22;14693,733;  236,983;26181,055;55,72275
 412,81;14609,469;  248,845;25852,388;56,08842
 413,40;14477,782;  256,482;25492,080;56,35413
 413,99;14317,130;  300,244;25065,382;56,59926
 414,58;14144,090;  230,633;24623,115;57,03994
 415,17;14008,425;  237,999;24339,435;57,13529
 415,76;14034,860;  227,443;24224,896;57,53701
 416,35;13944,739;  228,683;23937,803;57,85139
 416,94;14060,068;  254,678;24051,686;58,01313
 417,53;14326,950;  227,770;24292,628;58,58826
 418,12;14458,757;  232,082;24383,438;58,90632
 418,71;14816,322;  256,790;24860,397;59,17641
 419,30;14944,140;  246,699;24968,470;59,45141
 419,89;15128,231;  223,010;25135,525;59,83026
 420,48;15455,075;  255,252;25478,878;60,26026
 421,07;15577,776;  247,640;25620,321;60,41985
 421,66;15645,936;  216,496;25646,264;60,67472
 422,25;15732,633;  228,590;25592,673;61,12598
 422,84;15735,807;  261,517;25527,800;61,24482
 423,43;15598,343;  236,509;25232,040;61,45832
 424,02;15511,044;  259,282;24872,944;61,96462
 424,60;15190,404;  237,766;24363,300;61,97847
 425,19;15050,273;  245,831;23974,682;62,39005
 425,78;15024,122;  255,679;23951,779;62,32436
 426,37;14948,124;  258,456;23789,385;62,42706
 426,96;15047,388;  245,302;23649,740;63,24478
 427,55;14979,362;  243,545;23412,611;63,60126
 428,14;14822,304;  224,243;23232,847;63,44609
 428,73;14747,450;  231,617;22975,895;63,82191
 429,32;14741,324;  262,608;22932,162;63,86855
 429,91;14819,990;  266,310;22943,828;64,17669
 430,50;14764,692;  261,778;22755,783;64,47457
 431,08;14702,877;  267,477;22570,407;64,72423
 431,67;14721,814;  310,329;22488,042;64,98184
 432,26;14600,503;  331,180;22151,918;65,39340
 432,85;14404,730;  348,563;21789,120;65,55878
 433,44;14170,063;  362,110;21347,251;65,79871
 434,03;13975,942;  365,506;20946,123;66,13230
 434,62;13595,400;  318,957;20417,157;66,05787
 435,21;13502,238;  340,333;20272,631;66,03305
 435,79;13419,723;  322,579;20002,340;66,55134
 436,38;13366,793;  326,897;19925,091;66,53621
 436,97;13276,044;  325,437;19817,408;66,44073
 437,56;13182,216;  314,992;19562,777;66,85041
 438,15;13175,403;  290,680;19476,971;67,15588
 438,74;13239,198;  313,605;19481,053;67,43513
 439,33;13220,583;  287,757;19497,165;67,32548
 439,91;13330,002;  245,303;19573,117;67,69881
 440,50;13402,421;  306,303;19638,558;67,74232
 441,09;13518,773;  288,544;19760,150;67,94627
 441,68;13527,835;  282,322;19706,655;68,19031
 442,27;13551,699;  270,011;19745,945;68,19538
 442,86;13550,397;  245,955;19721,175;68,31472
 443,44;13654,486;  261,104;19793,776;68,56912
 444,03;13775,903;  328,878;19820,061;68,99030
 444,62;13631,568;  264,647;19679,318;68,84959
 445,21;13580,298;  269,568;19445,079;69,41526
 445,80;13507,540;  289,118;19372,359;69,26718
 446,39;13294,090;  337,962;19011,849;69,38099
 446,97;13126,374;  250,821;18840,960;69,26012
 447,56;12998,968;  257,215;18524,084;69,75335
 448,15;12864,620;  260,282;18337,402;69,72537
 448,74;12736,805;  280,514;18026,394;70,19258
 449,33;12615,887;  259,983;17866,055;70,17979
 449,91;12406,787;  251,455;17570,442;70,18501
 450,50;12297,068;  259,991;17297,350;70,65107
 451,09;12171,950;  285,839;17226,339;70,16387
 451,68;12144,648;  300,997;17102,804;70,49034
 452,26;12083,105;  283,772;17030,593;70,45715
 452,85;11996,301;  268,230;16936,648;70,36103
 453,44;12036,985;  290,014;16939,936;70,55271
 454,03;12052,200;  256,390;16846,173;71,10286
 454,61;12020,905;  250,169;16820,266;71,03601
 455,20;12175,109;  277,174;17078,617;70,81496
 455,79;12237,648;  289,165;16986,449;71,55944
 456,38;12315,431;  296,567;17164,678;71,25198
 456,97;12339,804;  266,026;17172,028;71,41711
 457,55;12379,044;  273,725;17172,291;71,63519
 458,14;12367,893;  286,409;17167,825;71,56677
 458,73;12349,734;  283,264;17100,544;71,75042
 459,31;12411,997;  312,042;17137,143;71,91609
 459,90;12410,513;  316,422;17295,920;71,22761
 460,49;12557,050;  364,958;17361,483;71,73285
 461,08;12598,101;  279,970;17441,739;71,77658
 461,66;12713,798;  281,504;17518,719;72,12473
 462,25;12753,699;  282,128;17645,449;71,82711
 462,84;12860,098;  315,740;17659,377;72,32830
 463,43;12770,750;  252,676;17615,201;72,09824
 464,01;12827,464;  279,989;17602,723;72,43358
 464,60;12846,951;  335,211;17568,320;72,60292
 465,19;12577,432;  270,376;17198,651;72,70118
 465,77;12523,350;  283,765;17229,824;72,22673
 466,36;12522,932;  312,984;17093,712;72,76173
 466,95;12248,935;  293,062;16713,962;72,80887
 467,53;11963,375;  288,694;16421,750;72,36497
 468,12;11771,977;  316,849;16087,943;72,63369
 468,71;11549,792;  296,300;15790,389;72,63087
 469,29;11294,573;  272,850;15529,832;72,24052
 469,88;11125,220;  273,316;15166,261;72,86608
 470,47;11245,707;  345,017;15330,777;72,74033
 471,06;11250,165;  297,402;15300,251;73,00455
 471,64;11305,642;  298,169;15390,728;72,93312
 472,23;11269,622;  275,262;15451,756;72,44334
 472,81;11366,460;  270,331;15582,845;72,46445
 473,40;11507,073;  278,186;15703,080;72,79718
 473,99;11741,052;  372,724;15886,104;73,28079
 474,57;11790,924;  285,724;16111,606;72,69864
 475,16;11888,234;  299,487;16293,259;72,45787
 475,75;12023,011;  322,884;16323,869;73,12129
 476,33;12123,499;  314,275;16490,199;73,00495
 476,92;12168,528;  308,033;16548,808;73,02911
 477,51;12227,745;  310,580;16611,204;73,10864
 478,09;12248,624;  306,503;16621,328;73,19797
 478,68;12208,284;  305,352;16593,948;73,07525
 479,27;12245,056;  338,884;16548,293;73,45222
 479,85;12225,932;  318,275;16619,600;73,04717
 480,44;12313,006;  302,355;16731,357;73,10639
 481,02;13488,503;  312,515;18562,738;72,19631
 481,61;15247,513;  343,127;20852,679;72,67046
 482,20;16286,487;  334,207;22219,373;72,89083
 482,78;16995,101;  356,507;23124,545;73,07873
 483,37;17451,437;  342,908;23711,206;73,21256
 483,95;17740,903;  374,295;24099,851;73,19790
 484,54;17911,055;  382,434;24269,195;73,38216
 485,13;17762,909;  355,841;24152,213;73,15009
 485,71;17597,557;  326,223;23848,593;73,42514
 486,30;17288,975;  377,915;23463,717;73,25308
 486,88;16951,117;  413,532;23027,458;73,13009
 487,47;16300,105;  387,919;22239,507;72,81936
 488,05;15542,591;  380,461;21146,391;73,01446
 488,64;14365,135;  369,775;19587,667;72,82464
 489,23;12775,854;  381,232;17362,008;72,99208
 489,81;10899,282;  380,003;14888,772;72,50290
 490,40;10405,527;  335,928;14300,400;72,10870
 490,98;10153,996;  316,777;13995,218;71,91769
 491,57;10051,691;  340,156;13902,419;71,60704
 492,15; 9990,921;  325,624;13829,391;71,57483
 492,74; 9903,543;  326,308;13651,066;71,87549
 493,32; 9775,763;  345,392;13579,669;71,25717
 493,91; 9679,770;  317,089;13407,144;71,52515
 494,50; 9676,425;  330,793;13387,330;71,57819
 495,08; 9639,347;  317,947;13341,859;71,57143
 495,67; 9626,696;  339,780;13260,352;71,87697
 496,25; 9479,883;  278,326;13179,140;71,32540
 496,84; 9434,338;  276,626;13171,008;71,02094
 497,42; 9352,609;  279,866;13083,075;70,86304
 498,01; 9348,204;  311,474;12980,017;71,33204
 498,59; 9233,759;  275,714;12968,559;70,57555
 499,18; 9200,728;  272,474;12887,124;70,77687
 499,76; 9159,406;  299,941;12776,083;71,01125
 500,35; 8946,054;  282,412;12581,990;70,43853
 500,93; 8924,382;  284,943;12532,293;70,54130
 501,52; 8849,545;  276,329;12419,462;70,60135
 502,10; 8817,329;  288,801;12366,037;70,61656
 502,69; 8634,163;  272,729;12183,358;70,20145
 503,27; 8500,652;  249,025;11948,958;70,52713
 503,86; 8410,285;  267,496;11872,356;70,16706
 504,44; 8303,240;  255,346;11743,246;70,05540
 505,03; 8107,729;  234,269;11415,450;70,41707
 505,61; 8007,522;  269,037;11260,394;70,40518
 506,19; 7859,173;  272,423;11047,691;70,40892
 506,78; 7662,689;  240,509;10842,267;70,00896
 507,36; 7547,134;  255,653;10682,725;69,92837
 507,95; 7381,204;  248,820;10513,057;69,48772
 508,53; 7292,601;  257,739;10371,812;69,55518
 509,12; 7147,140;  262,434;10229,633;69,07363
 509,70; 7058,981;  275,129;10006,678;69,70988
 510,29; 6865,233;  275,287; 9834,123;68,94088
 510,87; 6716,161;  250,508; 9618,789;69,01643
 511,46; 6594,633;  243,049; 9467,506;68,85590
 512,04; 6468,539;  245,669; 9264,610;68,99779
 512,62; 6321,358;  260,895; 9084,707;68,68305
 513,21; 6172,152;  236,057; 8856,213;68,86296
 513,79; 6058,344;  240,763; 8741,200;68,43860
 514,38; 5900,948;  234,527; 8571,585;67,96667
 514,96; 5856,165;  272,680; 8452,275;68,26115
 515,54; 5663,662;  231,914; 8307,988;67,25728
 516,13; 5603,988;  260,069; 8148,603;67,74287
 516,71; 5463,480;  242,536; 8028,371;67,05695
 517,30; 5366,041;  239,541; 7918,211;66,76287
 517,88; 5297,793;  264,310; 7867,913;66,19865
 518,46; 5208,909;  238,928; 7656,306;67,00455
 519,05; 5181,655;  246,470; 7638,173;66,76654
 519,63; 5079,611;  262,083; 7514,332;66,42806
 520,22; 5046,587;  262,784; 7445,821;66,59862
 520,80; 4983,880;  247,939; 7367,466;66,52045
 521,38; 4974,382;  286,317; 7353,614;66,33462
 521,97; 4859,934;  257,097; 7281,333;65,52794
 522,55; 4875,851;  259,558; 7301,951;65,55006
 523,13; 4830,353;  243,100; 7235,508;65,60334
 523,72; 4811,584;  239,927; 7222,778;65,46977
 524,30; 4925,137;  277,796; 7389,177;65,35074
 524,89; 4895,227;  238,405; 7373,054;65,27051
 525,47; 4996,113;  272,720; 7507,848;65,28416
 526,05; 4992,006;  212,414; 7542,206;65,20774
 526,64; 5086,297;  250,031; 7702,114;64,89818
 527,22; 5188,437;  264,105; 7826,905;65,11255
 527,80; 5278,582;  299,262; 7936,589;65,19716
 528,39; 5273,754;  236,726; 8079,245;64,22717
 528,97; 5394,778;  255,879; 8216,036;64,55776
 529,55; 5505,024;  264,792; 8398,070;64,42952
 530,14; 5632,062;  275,498; 8635,518;64,07357
 530,72; 5700,811;  244,110; 8740,621;64,22284
 531,30; 5781,970;  226,268; 8917,086;63,92611
 531,89; 5835,992;  253,576; 8952,678;64,17233
 532,47; 5912,832;  292,270; 9083,493;63,93379
 533,05; 5930,702;  280,646; 9093,388;64,11235
 533,63; 5992,500;  275,963; 9189,539;64,13292
 534,22; 5946,275;  262,887; 9244,228;63,27995
 534,80; 5978,058;  287,277; 9288,247;63,22409
 535,38; 6061,731;  364,423; 9440,343;62,77389
 535,97; 5946,690;  270,809; 9341,255;62,57554
 536,55; 6025,225;  311,509; 9435,865;62,62048
 537,13; 5963,562;  333,960; 9437,408;61,84034
 537,71; 5991,577;  379,190; 9454,224;61,84425
 538,30; 6014,912;  408,196; 9552,939;61,31081
 538,88; 6084,686;  442,052; 9663,564;61,18990
 539,46; 6156,822;  505,815; 9877,097;60,30132
 540,05; 6174,747;  521,434;10009,619;59,58266
 540,63; 6337,786;  584,127;10211,816;59,76158
 541,21; 6386,081;  616,131;10360,128;59,21543
 541,79; 6456,872;  666,284;10492,643;58,92913
 542,38; 6554,377;  694,510;10649,590;58,86309
 542,96; 6640,966;  715,597;10826,563;58,60339
 543,54; 6767,046;  723,514;11076,303;58,37588
 544,12; 6807,435;  690,747;11230,716;58,03326
 544,70; 6794,527;  678,597;11332,472;57,40569
 545,29; 6889,592;  691,895;11467,071;57,51829
 545,87; 6930,641;  657,515;11489,259;57,91428
 546,45; 6901,591;  609,972;11481,138;57,87437
 547,03; 6939,373;  562,667;11594,568;57,80242
 547,62; 7014,544;  537,593;11769,522;57,66552
 548,20; 7081,546;  539,442;12006,276;57,05240
 548,78; 7144,097;  483,377;12138,565;57,14811
 549,36; 7241,017;  441,684;12306,161;57,30833
 549,94; 7308,745;  400,210;12432,658;57,41587
 550,53; 7396,183;  414,451;12694,266;56,85535
 551,11; 7549,690;  380,149;12908,400;57,22700
 551,69; 7675,489;  393,683;13245,145;56,66130
 552,27; 7873,830;  344,679;13473,800;57,34696
 552,85; 7992,272;  355,302;13872,891;56,49654
 553,44; 8222,274;  351,529;14212,740;56,78252
 554,02; 8387,493;  353,916;14576,943;56,48289
 554,60; 8536,494;  295,842;14918,302;56,35613
 555,18; 8738,116;  330,914;15274,523;56,25952
 555,76; 8953,136;  312,301;15730,070;56,04465
 556,34; 9148,291;  318,539;16110,744;55,91209
 556,93; 9345,007;  304,453;16524,255;55,73776
 557,51; 9505,226;  287,693;16869,583;55,58795
 558,09; 9692,001;  304,761;17256,566;55,37605
 558,67; 9939,575;  307,158;17648,534;55,54586
 559,25;10053,141;  323,310;18007,696;55,01933
 559,83;10164,225;  302,546;18345,401;54,65698
 560,41;10275,683;  289,229;18728,400;54,15891
 561,00;10436,630;  307,235;19116,480;53,85328
 561,58;10543,484;  290,921;19327,438;53,85735
 562,16;10632,850;  272,303;19675,550;53,39595
 562,74;10812,422;  278,839;20110,555;53,11483
 563,32;11020,269;  265,930;20529,970;53,07105
 563,90;11193,603;  287,004;20949,892;52,78352
 564,48;11323,152;  296,613;21437,903;52,15642
 565,06;11618,260;  306,927;22127,297;51,83841
 565,65;11972,178;  292,628;22876,478;51,71638
 566,23;12287,790;  340,697;23727,092;51,08565
 566,81;12612,877;  287,617;24510,726;50,88224
 567,39;13036,904;  300,932;25535,594;50,47015
 567,97;13352,028;  314,234;26144,826;50,47424
 568,55;13696,587;  336,622;27166,415;49,79526
 569,13;14079,417;  283,697;27917,393;49,92354
 569,71;14395,278;  294,687;29013,811;49,09826
 570,29;14891,023;  334,992;30096,389;48,90910
 570,87;15205,534;  325,225;30941,688;48,60231
 571,45;15401,585;  325,235;31609,363;48,19169
 572,03;15619,501;  293,548;32143,868;48,11868
 572,61;15898,141;  281,699;32967,164;47,77794
 573,20;16176,215;  314,924;33617,830;47,62735
 573,78;16425,065;  289,699;34373,559;47,34020
 574,36;16582,815;  325,698;34919,934;46,99371
 574,94;16723,866;  382,550;35314,064;46,78101
 575,52;16626,780;  316,019;35552,524;46,28939
 576,10;16902,718;  373,554;36194,068;46,14441
 576,68;17088,649;  361,548;36853,640;45,83760
 577,26;17363,106;  385,714;37576,642;45,64928
 577,84;17455,173;  381,083;38161,201;45,19332
 578,42;17552,602;  431,244;38459,829;45,02234
 579,00;17493,170;  385,238;38593,378;44,77562
 579,58;17558,466;  424,627;38834,084;44,60839
 580,16;17407,347;  396,553;38808,644;44,28500
 580,74;17450,194;  389,476;39054,038;44,12495
 581,32;17348,380;  382,781;39009,879;43,92149
 581,90;17258,132;  424,399;38879,547;43,77498
 582,48;17215,989;  422,091;39172,617;43,33850
 583,06;17143,582;  416,473;39180,820;43,15076
 583,64;17043,504;  412,703;39283,271;42,78507
 584,22;16928,899;  430,328;39106,817;42,65788
 584,80;16645,152;  420,167;38681,591;42,40560
 585,38;16402,658;  448,538;38295,908;42,15384
 585,96;16281,530;  404,085;38219,578;41,98661
 586,54;16165,555;  443,942;38282,212;41,54950
 587,12;16124,763;  402,862;38389,415;41,38807
 587,70;16117,300;  422,778;38481,587;41,23756
 588,28;16001,268;  406,401;38511,753;40,92566
 588,86;15973,750;  413,479;38590,685;40,75801
 589,44;15835,576;  386,333;38608,623;40,41946
 590,02;15851,533;  397,946;38838,781;40,20097
 590,59;15788,340;  371,172;38986,654;39,92484
 591,17;15781,865;  375,033;39198,637;39,68419
 591,75;15653,205;  368,105;39290,821;39,27038
 592,33;15770,897;  373,642;39535,318;39,31715
 592,91;15717,800;  331,262;39761,511;39,02217
 593,49;15691,281;  333,420;40143,947;38,57739
 594,07;15739,143;  355,497;40314,081;38,49898
 594,65;15634,332;  365,789;40319,988;38,21511
 595,23;15705,879;  366,100;40693,046;38,03853
 595,81;15568,455;  349,025;40809,044;37,61597
 596,39;15558,093;  342,564;40992,723;37,43043
 596,97;15539,591;  338,801;41258,565;37,14779
 597,55;15311,062;  340,714;41009,756;36,81018
 598,12;15220,011;  317,960;41111,099;36,53078
 598,70;15117,017;  302,033;41148,397;36,27002
 599,28;15193,023;  340,187;41411,393;36,16362
 599,86;15047,126;  309,955;41385,203;35,87847
 600,44;14977,966;  293,727;41535,941;35,60488
 601,02;14899,368;  339,198;41604,867;35,28398
 601,60;14657,343;  325,798;41550,610;34,76437
 602,18;14557,065;  299,806;41552,575;34,56073
 602,75;14497,684;  298,563;41554,189;34,41742
 603,33;14401,155;  306,264;41695,494;34,05449
 603,91;14244,414;  298,656;41529,371;33,82371
 604,49;14244,172;  323,495;41744,637;33,60766
 605,07;14126,094;  343,490;41730,390;33,30185
 605,65;14029,930;  344,189;41855,071;32,96904
 606,23;13998,195;  419,095;41953,782;32,69340
 606,80;13835,398;  477,178;41965,396;32,19762
 607,38;13770,384;  518,193;41963,994;31,97475
 607,96;13742,645;  578,332;42048,453;31,74409
 608,54;13607,259;  655,958;42069,663;31,27298
 609,12;13517,096;  639,640;42163,546;31,01215
 609,70;13487,752;  687,263;42148,033;30,87374
 610,27;13322,841;  696,254;42161,704;30,45086
 610,85;13272,553;  728,109;42298,070;30,17670
 611,43;13166,836;  731,187;42209,423;29,98114
 612,01;12954,620;  677,104;42004,002;29,70829
 612,59;12858,878;  686,724;42054,983;29,42390
 613,16;12750,954;  639,020;42004,917;29,28000
 613,74;12618,007;  607,879;41892,490;29,09105
 614,32;12483,480;  551,343;41874,679;28,87506
 614,90;12381,312;  507,722;41710,583;28,81739
 615,48;12161,551;  443,637;41340,037;28,65268
 616,05;12042,886;  417,327;41362,814;28,39277
 616,63;11911,068;  428,940;41107,745;28,22631
 617,21;11787,890;  418,562;41058,193;27,97596
 617,79;11641,742;  395,333;40977,077;27,71297
 618,36;11578,808;  409,490;40879,443;27,59904
 618,94;11369,327;  349,561;40506,197;27,44196
 619,52;11141,724;  374,864;40246,952;27,00350
 620,10;11044,619;  360,102;40224,335;26,80226
 620,67;10969,227;  363,940;40124,050;26,67318
 621,25;10807,315;  390,106;39896,483;26,36842
 621,83;10716,432;  351,253;39866,016;26,23115
 622,41;10657,464;  400,868;39882,361;25,97824
 622,98;10509,853;  365,325;39627,033;25,83822
 623,56;10419,680;  367,939;39583,188;25,63223
 624,14;10247,721;  348,031;39486,502;25,29401
 624,72;10105,860;  339,561;39336,969;25,04346
 625,29;10035,994;  332,862;39395,800;24,83974
 625,87;10018,105;  374,564;39315,101;24,76479
 626,45; 9815,315;  327,015;39105,145;24,46817
 627,02; 9694,232;  337,642;38977,060;24,21514
 627,60; 9678,444;  323,419;39002,921;24,18600
 628,18; 9508,865;  304,024;39022,700;23,77365
 628,76; 9512,316;  309,941;39026,274;23,76872
 629,33; 9392,114;  335,328;39137,683;23,34081
 629,91; 9279,157;  317,794;39047,566;23,13818
 630,49; 9312,441;  358,096;39197,640;23,05471
 631,06; 9265,729;  336,941;39275,641;22,93037
 631,64; 9167,085;  322,477;39242,001;22,72538
 632,22; 9067,177;  291,628;39338,237;22,47455
 632,79; 9046,875;  318,859;39573,157;22,23455
 633,37; 8991,478;  295,259;39474,226;22,19614
 633,95; 8931,429;  300,707;39608,333;21,95687
 634,52; 8927,260;  280,637;39778,026;21,89163
 635,10; 8870,738;  288,409;39761,510;21,74222
 635,68; 8858,589;  294,858;39941,518;21,60013
 636,25; 8759,716;  281,392;39949,384;21,37321
 636,83; 8786,470;  280,941;40174,351;21,32064
 637,41; 8754,608;  277,088;40236,322;21,21542
 637,98; 8693,739;  302,549;40428,874;20,91193
 638,56; 8671,954;  289,237;40563,656;20,81400
 639,13; 8654,374;  288,324;40587,813;20,75969
 639,71; 8678,329;  323,326;40792,815;20,64519
 640,29; 8453,887;  250,634;40492,388;20,38493
 640,86; 8417,355;  261,557;40670,603;20,18310
 641,44; 8384,977;  275,173;40661,895;20,08037
 642,02; 8382,060;  304,942;40628,879;20,03058
 642,59; 8319,759;  258,019;40850,632;19,86012
 643,17; 8266,381;  266,404;40893,616;19,69118
 643,74; 8221,618;  263,866;40884,446;19,59044
 644,32; 8159,086;  298,789;40771,276;19,42133
 644,89; 8113,939;  293,174;40824,414;19,29565
 645,47; 8078,869;  308,790;40873,860;19,15461
 646,05; 8012,491;  290,252;40709,459;19,10537
 646,62; 7954,959;  281,329;40667,597;19,00059
 647,20; 7961,965;  297,406;40834,043;18,90773
 647,77; 7838,972;  268,022;40700,488;18,72493
 648,35; 7760,209;  262,406;40662,934;18,55868
 648,92; 7713,370;  281,022;40673,072;18,40052
 649,50; 7642,992;  250,330;40562,748;18,33842
 650,08; 7576,845;  252,176;40433,501;18,22904
 650,65; 7601,159;  271,715;40672,485;18,14184
 651,23; 7671,319;  241,792;41625,239;17,95290
 651,80; 7814,480;  249,485;42686,530;17,82639
 652,38; 7878,871;  268,562;43115,284;17,76171
 652,95; 7898,493;  228,255;43540,806;17,70904
 653,53; 7894,576;  268,870;43811,713;17,51311
 654,10; 7999,275;  292,409;44030,774;17,62038
 654,68; 7829,436;  254,717;43932,066;17,34244
 655,25; 7843,673;  237,948;43918,511;17,41215
 655,83; 7805,295;  249,333;44067,880;17,24375
 656,40; 7842,840;  276,256;44095,710;17,26764
 656,98; 7772,616;  250,718;43958,925;17,20935
 657,55; 7730,238;  267,487;43774,294;17,15306
 658,13; 7616,091;  248,411;43248,124;17,13425
 658,70; 7538,866;  270,488;42924,415;17,04035
 659,28; 7332,488;  271,642;41800,015;17,00246
 659,85; 7168,418;  277,950;41111,307;16,87461
 660,43; 7173,655;  284,642;41146,444;16,85930
 661,00; 7165,508;  263,489;41329,352;16,80719
 661,58; 7138,284;  255,566;41576,259;16,65683
 662,15; 7197,214;  242,412;41733,166;16,76229
 662,73; 7248,451;  330,643;42125,765;16,55171
 663,30; 7229,304;  268,336;42366,595;16,53505
 663,88; 7218,156;  270,028;42426,887;16,48161
 664,45; 7222,701;  254,644;42750,025;16,39721
 665,03; 7272,323;  262,952;43118,394;16,35585
 665,60; 7402,715;  335,645;43618,839;16,32751
 666,17; 7314,567;  255,337;43668,285;16,26066
 666,75; 7372,882;  252,107;44082,730;16,24612
 667,32; 7475,273;  278,722;44412,945;16,30605
 667,90; 7450,510;  270,415;44652,775;16,17781
 668,47; 7532,978;  285,338;45028,605;16,19828
 669,05; 7528,831;  254,877;45230,974;16,17293
 669,62; 7541,607;  240,415;45445,266;16,15134
 670,19; 7552,075;  250,262;45426,788;16,16285
 670,77; 7616,389;  258,570;45669,388;16,20279
 671,34; 7622,934;  239,416;45574,449;16,28656
 671,92; 7658,941;  237,186;45965,125;16,23024
 672,49; 7622,717;  268,878;45987,032;16,08516
 673,06; 7639,185;  221,494;46023,093;16,19527
 673,64; 7664,345;  237,340;46026,385;16,22005
 674,21; 7653,967;  227,417;45941,215;16,24575
 674,79; 7766,589;  265,725;46187,584;16,33397
 675,36; 7681,057;  264,649;46322,644;16,10233
 675,93; 7694,218;  233,034;46178,859;16,23909
 676,51; 7702,609;  254,649;46308,997;16,17211
 677,08; 7768,538;  259,496;46503,827;16,23776
 677,65; 7738,391;  256,265;46552,888;16,16128
 678,23; 7838,090;  257,419;46751,334;16,30465
 678,80; 7809,866;  248,650;46858,087;16,22250
 679,38; 7879,949;  247,266;47109,840;16,28738
 679,95; 7932,264;  252,881;47317,747;16,31659
 680,52; 7961,347;  248,112;47656,885;16,26964
 681,10; 8073,200;  275,036;48104,254;16,30418
 681,67; 8149,437;  256,574;48320,699;16,42153
 682,24; 8137,136;  225,190;48404,530;16,42186
 682,82; 8252,835;  235,806;48952,668;16,45637
 683,39; 8421,765;  295,191;49430,421;16,53920
 683,96; 8399,848;  249,114;49508,405;16,54659
 684,54; 8485,701;  222,268;49864,004;16,64614
 685,11; 8623,323;  271,653;50262,527;16,70639
 685,68; 8617,868;  244,499;50754,895;16,57752
 686,25; 8723,644;  233,346;50844,418;16,77557
 686,83; 8787,189;  244,654;51055,017;16,81258
 687,40; 8873,195;  224,500;51346,694;16,91769
 687,97; 8941,894;  275,731;51750,139;16,83587
 688,55; 8977,747;  224,347;51804,892;16,97035
 689,12; 9017,831;  199,347;52041,107;17,01039
 689,69; 9090,991;  225,578;52085,783;17,09483
 690,26; 9164,151;  238,424;52170,768;17,18722
 690,84; 9200,235;  233,348;52441,982;17,17510
 691,41; 9285,472;  252,809;52486,197;17,29289
 691,98; 9334,940;  245,425;52829,643;17,28563
 692,56; 9390,332;  229,271;52997,857;17,36082
 693,13; 9427,492;  287,579;52920,534;17,36538
 693,70; 9514,960;  262,349;53043,979;17,52998
 694,27; 9541,505;  241,503;53282,963;17,53346
 694,84; 9625,050;  231,657;53357,640;17,68135
 695,42; 9734,595;  283,965;53472,855;17,76805
 695,99; 9728,371;  250,734;53747,223;17,71637
 696,56; 9808,301;  241,889;53559,361;17,94236
 697,13; 9944,000;  261,966;53951,114;18,03350
 697,71; 9962,852;  229,043;53976,483;18,11028
 698,28;10101,628;  243,197;54357,159;18,21791
 698,85;10105,404;  208,890;54387,066;18,26661
 699,42;10192,103;  218,505;54574,973;18,34850
 699,99;10330,186;  255,659;54751,188;18,48689
 700,57;10325,116;  251,429;54712,941;18,49689
 701,14;10425,584;  237,660;54894,310;18,63986
 701,71;10520,129;  261,583;55089,140;18,71057
 702,28;10594,136;  249,660;55203,124;18,82406
 702,85;10665,296;  258,968;55134,724;18,96343
 703,43;10739,457;  269,199;55389,092;18,99542
 704,00;10883,848;  276,892;55671,230;19,14809
 704,57;10951,854;  259,892;55673,368;19,29488
 705,14;11084,246;  286,354;55892,198;19,41863
 705,71;11167,868;  296,585;55932,028;19,54021
 706,28;11118,336;  260,123;55763,397;19,56319
 706,86;11289,342;  297,585;56023,227;19,72477
 707,43;11369,118;  316,355;55914,288;19,87981
 708,00;11375,048;  290,509;56106,503;19,85907
 708,57;11401,670;  255,048;55978,949;20,00331
 709,14;11545,292;  285,586;56030,394;20,19866
 709,71;11545,452;  270,279;56060,917;20,20979
 710,28;11685,766;  264,894;56358,516;20,36038
 710,86;11774,773;  265,895;56390,423;20,50597
 711,43;11944,395;  296,126;56437,638;20,74805
 712,00;11926,094;  276,818;56659,237;20,66118
 712,57;12032,947;  282,126;56759,375;20,80629
 713,14;12082,415;  262,973;56867,513;20,88073
 713,71;12194,806;  272,050;56818,343;21,08495
 714,28;12262,966;  257,588;56919,404;21,18777
 714,85;12292,204;  242,050;56565,004;21,39475
 715,42;12385,056;  242,358;56728,757;21,49668
 716,00;12581,755;  316,820;56924,125;21,66670
 716,57;12641,839;  246,282;56951,802;21,85952
 717,14;12627,461;  229,974;56936,170;21,86267
 717,71;12812,929;  230,821;56957,693;22,18016
 718,28;12883,859;  278,898;57090,138;22,18744
 718,85;12997,404;  222,821;57116,123;22,45358
 719,42;13086,333;  257,360;57282,953;22,49687
 719,99;13146,647;  231,745;57033,706;22,73672
 720,56;13307,193;  256,360;57311,613;22,87402
 721,13;13374,507;  232,668;57520,982;22,93982
 721,70;13400,513;  239,822;57310,581;23,06030
 722,27;13543,366;  258,976;57399,027;23,24882
 722,84;13720,603;  299,823;57566,780;23,43547
 723,41;13735,687;  226,131;57493,072;23,59050
 723,98;13876,386;  239,823;57758,517;23,70805
 724,55;14045,623;  264,824;57882,194;23,91779
 725,12;14044,553;  205,285;57881,947;23,99457
 725,69;14247,021;  228,670;57941,777;24,28972
 726,27;14302,951;  246,132;57932,069;24,36784
 726,84;14556,573;  246,978;58437,283;24,59103
 727,41;14628,195;  251,671;58343,037;24,74812
 727,98;14821,432;  259,364;58616,559;24,95334
 728,55;14867,054;  276,748;58480,851;25,06749
 729,12;14997,753;  228,364;58644,450;25,28309
 729,69;15110,990;  273,287;58787,204;25,35756
 730,26;15241,766;  273,365;58986,572;25,49410
 730,82;15356,465;  253,365;58801,325;25,79612
 731,39;15427,779;  237,750;59025,694;25,83868
 731,96;15611,401;  226,058;59327,140;26,03225
 732,53;15778,946;  248,673;59445,739;26,23487
 733,10;15930,107;  270,904;59478,262;26,44807
 733,67;16088,652;  256,674;59837,399;26,57231
 734,24;16048,350;  234,982;59425,922;26,71586
 734,81;16162,203;  279,213;59498,291;26,82073
 735,38;16246,287;  257,136;59310,813;27,07562
 735,95;16280,755;  247,213;59091,028;27,24762
 736,52;16395,223;  265,598;59294,627;27,32490
 737,09;16455,383;  259,906;58937,919;27,60059
 737,66;16680,775;  308,368;59125,672;27,83604
 738,23;16697,473;  241,753;59219,425;27,90161
 738,80;16952,634;  325,753;59585,717;28,05753
 739,37;17085,333;  288,599;59725,470;28,25979
 739,94;17274,801;  264,676;59793,685;28,57451
 740,51;17423,038;  378,138;59844,131;28,66327
 741,07;17440,583;  253,908;59775,346;28,87477
 741,64;17667,513;  295,908;59983,022;29,10445
 742,21;17707,981;  261,600;60014,391;29,19760
 742,78;17813,142;  235,678;59743,298;29,53817
 743,35;17966,994;  248,986;60057,512;29,62455
 743,92;18187,693;  295,524;60245,266;29,84528
 744,49;18292,392;  282,063;60010,250;30,15382
 745,06;18318,014;  247,909;60085,464;30,19860
 745,63;18521,867;  238,217;60007,141;30,59056
 746,19;18623,566;  251,833;59962,356;30,76800
 746,76;18731,880;  256,602;60007,032;30,92074
 747,33;18839,656;  250,141;60026,247;31,09857
 747,90;19039,816;  280,911;60227,462;31,29272
 748,47;19047,823;  259,449;60168,984;31,36124
 749,04;19289,522;  265,296;60147,583;31,76937
 749,61;19353,913;  294,911;60038,337;31,90142
 750,17;19514,842;  285,758;60183,090;32,10341
 750,74;19584,003;  270,912;60067,997;32,29771
 751,31;19555,625;  243,835;60065,443;32,28230
 751,88;19720,016;  241,143;59910,196;32,64485
 752,45;19885,253;  258,143;60081,718;32,80832
 753,02;19852,491;  278,836;59896,625;32,83190
 753,58;19946,267;  233,913;59817,763;33,08338
 754,15;20121,581;  247,990;59950,286;33,28782
 754,72;20133,203;  240,375;59794,270;33,40307
 755,29;20176,671;  234,221;59679,792;33,54741
 755,86;20368,062;  253,222;59764,930;33,79980
 756,42;20504,146;  255,145;59646,837;34,09400
 756,99;20543,998;  217,299;59707,821;34,16796
 757,56;20631,466;  228,145;59525,421;34,40853
 758,13;20682,935;  191,300;59519,174;34,53964
 758,70;20919,941;  218,992;59516,312;34,91043
 759,26;21042,332;  204,069;59594,065;35,08716
 759,83;21138,108;  218,685;59743,126;35,14426
 760,40;21207,192;  204,608;59452,187;35,44885
 760,97;21364,737;  192,224;59546,094;35,67166
 761,53;21272,513;  191,609;59311,001;35,65819
 762,10;21410,442;  187,378;59170,831;35,98139
 762,67;21488,910;  214,148;59106,969;36,12454
 763,24;21365,148;  182,225;58661,107;36,22320
 763,80;21581,154;  201,687;58829,168;36,46663
 764,37;21624,007;  211,225;58747,614;36,58029
 764,94;21547,014;  187,379;58355,444;36,72055
 765,50;21646,020;  197,303;58250,889;36,94641
 766,07;21819,565;  233,226;58263,720;37,19827
 766,64;21801,803;  209,996;57982,396;37,37391
 767,21;21789,886;  222,150;57950,688;37,36061
 767,77;21917,277;  223,535;57757,210;37,70617
 768,34;22012,284;  243,996;57835,963;37,79744
 768,91;22109,213;  241,689;57543,101;38,16228
 769,47;22171,912;  240,920;57486,085;38,31065
 770,04;22287,842;  254,151;57440,992;38,52930
 770,61;22261,541;  231,382;57224,361;38,65416
 771,18;22364,394;  222,151;57047,268;38,96559
 771,74;22552,862;  237,459;57235,406;39,15124
 772,31;22539,330;  244,767;56999,467;39,28232
 772,88;22506,952;  209,152;56754,451;39,43352
 773,44;22510,574;  218,614;56536,589;39,58232
 774,01;22708,734;  239,537;56613,342;39,85751
 774,58;22705,433;  222,153;56296,711;40,09533
 775,14;22785,132;  210,999;56412,464;40,16645
 775,71;22865,600;  218,461;56348,294;40,34778
 776,27;22953,684;  280,615;56213,278;40,53637
 776,84;23137,306;  314,154;56304,493;40,76266
 777,41;23143,312;  242,077;55950,785;41,10890
 777,97;23098,934;  227,770;55718,922;41,21588
 778,54;23211,325;  244,924;55748,830;41,37799
 779,11;23297,947;  259,386;55763,506;41,50784
 779,67;23383,339;  220,540;55671,721;41,77152
 780,24;23417,961;  237,540;55375,551;42,04073
 780,80;23494,275;  255,694;55373,919;42,16134
 781,37;23572,974;  250,002;55541,980;42,18147
 781,94;23638,596;  240,156;55196,888;42,57611
 782,50;23754,295;  249,695;55052,718;42,88924
 783,07;23807,993;  262,003;55063,856;42,96568
 783,63;23828,462;  225,849;54920,070;43,15376
 784,20;23854,391;  263,003;54836,977;43,22828
 784,77;23902,090;  235,850;54660,731;43,48423
 785,33;23924,558;  219,773;54378,176;43,76936
 785,90;23933,565;  240,542;54360,622;43,77862
 786,46;23955,418;  260,466;54292,837;43,85325
 787,03;24058,193;  221,004;54110,744;44,23326
 787,59;24229,815;  240,235;53997,420;44,62581
 788,16;24268,283;  251,697;54021,404;44,66564
 788,73;24269,059;  247,697;53785,311;44,86820
 789,29;24274,066;  240,544;53423,988;45,18986
 789,86;24350,995;  258,544;53351,202;45,37812
 790,42;24292,848;  242,237;53140,956;45,46540
 790,99;24228,547;  254,929;52815,940;45,61103
 791,55;24266,400;  229,160;52792,924;45,72968
 792,12;24405,253;  262,160;52820,523;45,93578
 792,68;24304,105;  239,699;52524,738;46,02542
 793,25;24314,420;  254,469;52215,799;46,30357
 793,81;24392,965;  316,546;51916,398;46,65986
 794,38;24264,125;  210,469;51653,459;46,75789
 794,94;24306,747;  212,315;51481,059;46,99634
 795,51;24323,907;  247,854;51209,504;47,24347
 796,07;24299,529;  236,316;51034,488;47,37023
 796,64;24484,074;  265,162;51104,780;47,63787
 797,20;24257,004;  251,240;50573,379;47,70418
 797,77;24314,395;  217,317;50237,363;48,17484
 798,33;24311,017;  241,240;50048,270;48,32606
 798,90;24307,793;  271,240;49972,254;48,36230
 799,46;24183,800;  233,856;49438,238;48,67441
 800,03;24114,883;  238,318;49475,684;48,49278
 800,59;24199,351;  255,087;49325,899;48,79533
 801,15;24180,281;  262,241;48916,344;49,15935
 801,72;24066,595;  259,857;48572,636;49,27628
 802,28;24071,063;  271,011;48293,851;49,55986
 802,85;23989,070;  240,088;48018,143;49,70688
 803,41;24047,307;  234,242;47993,665;49,86045
 803,98;23874,391;  236,319;47385,880;50,13423
 804,54;23728,936;  234,089;47260,172;49,96131
 805,11;23733,942;  235,243;47031,079;50,21536
 805,67;23787,949;  264,243;47025,755;50,30570
 806,23;23613,956;  254,551;46493,662;50,51871
 806,80;23672,885;  264,474;46325,261;50,82069
 807,36;23719,046;  269,090;46274,245;50,97245
 807,93;23632,283;  264,552;46054,999;51,03189
 808,49;23570,443;  227,244;45652,137;51,38856
 809,05;23564,065;  226,399;45456,659;51,59746
 809,62;23609,380;  258,476;45281,566;51,86429
 810,18;23659,925;  243,476;45264,243;52,01255
 810,74;23564,624;  214,245;44941,150;52,20656
 811,31;23624,784;  224,323;44772,518;52,52842
 811,87;23615,868;  241,938;44580,810;52,71656
 812,44;23734,797;  268,631;44608,871;52,92296
 813,00;23666,342;  180,939;44238,470;53,30622
 813,56;23745,733;  245,477;44277,993;53,37023
 814,13;23779,586;  238,632;44153,900;53,60540
 814,69;23756,670;  240,401;43940,730;53,81257
 815,25;23576,984;  207,401;43580,714;53,88010
 815,82;23567,529;  252,401;43491,775;53,92106
 816,38;23526,612;  288,094;43235,682;54,10902
 816,94;23396,696;  228,940;42973,512;54,20046
 817,51;23442,395;  208,556;42691,958;54,68921
 818,07;23308,555;  203,172;42410,711;54,74231
 818,63;23275,408;  242,787;42231,541;54,85426
 819,20;23242,261;  235,711;42167,756;54,86627
 819,76;23119,960;  224,557;41715,125;55,18219
 820,32;23164,120;  253,557;41683,032;55,30015
 820,89;23123,819;  248,634;41346,401;55,66041
 821,45;23070,826;  227,635;41066,692;55,93467
 822,01;23000,601;  243,481;40818,830;56,08607
 822,57;23110,223;  250,712;40752,814;56,44031
 823,14;22866,384;  204,020;40358,567;56,43785
 823,70;22843,698;  218,790;40197,013;56,59308
 824,26;22742,551;  217,559;40033,074;56,57340
 824,82;22877,096;  250,098;39788,058;57,22854
 825,39;22672,641;  225,098;39508,580;57,14245
 825,95;22820,494;  247,406;39592,411;57,37218
 826,51;22739,731;  247,098;39127,164;57,85132
 827,08;22863,738;  285,176;39188,840;58,03711
 827,64;22797,129;  255,637;39035,286;58,12712
 828,20;22690,443;  220,715;38672,270;58,43646
 828,76;22780,911;  251,099;38728,408;58,55350
 829,32;22754,687;  259,253;38534,853;58,77226
 829,89;22690,463;  212,023;38430,529;58,81559
 830,45;22764,931;  239,408;38338,590;59,12338
 831,01;22734,168;  234,639;38215,421;59,23925
 831,57;22642,406;  229,331;37967,635;59,39078
 832,14;22679,028;  224,178;37938,696;59,53901
 832,70;22707,265;  222,024;37751,296;59,91387
 833,26;22695,656;  194,794;37680,434;60,02529
 833,82;22730,047;  234,025;37455,802;60,43780
 834,38;22722,285;  216,563;37564,786;60,25915
 834,95;22698,060;  222,871;37492,463;60,30436
 835,51;22719,682;  189,025;37183,600;60,90260
 836,07;22797,843;  226,410;37249,431;60,96594
 836,63;22920,311;  250,411;37352,261;61,10181
 837,19;22881,164;  240,257;37063,322;61,48567
 837,75;22686,170;  207,565;36846,460;61,35176
 838,32;22854,715;  251,565;36923,751;61,63568
 838,88;22925,876;  245,027;36891,043;61,89172
 839,44;22947,575;  249,027;36809,258;62,08535
 840,00;22832,504;  230,720;36704,011;61,96804
 840,56;22737,665;  220,874;36469,611;62,11745
 841,12;22804,902;  219,489;36309,287;62,58116
 841,68;22641,909;  197,182;36230,194;62,28934
 842,25;22757,915;  218,875;36164,255;62,70358
 842,81;22576,999;  204,952;35981,393;62,53290
 843,37;22641,082;  214,183;35979,454;62,70580
 843,93;22597,704;  217,798;35781,669;62,92877
 844,49;22740,480;  234,029;35855,729;63,18185
 845,05;22680,717;  182,645;35711,329;63,32369
 845,61;22746,878;  231,799;35821,621;63,26269
 846,17;22711,269;  216,184;35575,143;63,61919
 846,73;22774,968;  225,492;35471,973;63,97653
 847,29;22683,898;  211,492;35325,880;63,99771
 847,86;22627,443;  209,185;35293,941;63,89743
 848,42;22574,449;  202,493;35106,310;64,09602
 848,98;22740,071;  229,724;35013,140;64,71575
 849,54;22730,539;  220,801;35013,663;64,69643
 850,10;22714,469;  229,955;34945,108;64,76859
 850,66;22695,322;  200,417;34694,015;65,21472
 851,22;22669,174;  202,648;34618,692;65,27922
 851,78;22746,489;  255,494;34686,676;65,32159
 852,34;22626,880;  224,725;34413,198;65,52546
 852,90;22680,117;  213,418;34318,567;65,87480
 853,46;22573,816;  198,956;34122,935;65,95588
 854,02;22688,515;  228,495;34106,766;66,29624
 854,58;22554,906;  221,111;33866,134;66,38068
 855,14;22573,528;  203,957;33739,580;66,70391
 855,70;22558,304;  183,188;33581,641;66,99447
 856,26;22522,464;  224,650;33626,086;66,75705
 856,82;22483,394;  209,112;33341,916;67,22728
 857,38;22533,554;  250,497;33316,516;67,38960
 857,94;22505,100;  221,881;33181,808;67,60700
 858,50;22472,260;  225,266;32960,484;67,96043
 859,06;22439,728;  207,805;32807,083;68,19759
 859,62;22567,888;  232,190;32650,837;68,89769
 860,18;22447,664;  221,344;32590,590;68,66493
 860,74;22391,132;  188,575;32362,112;69,00875
 861,30;22319,677;  193,960;32227,481;69,07051
 861,86;22385,223;  267,806;32294,542;69,05923
 862,42;22272,152;  226,268;31965,757;69,45885
 862,98;22393,082;  248,576;32078,125;69,57216
 863,54;22195,242;  220,653;31793,032;69,60068
 864,10;22280,172;  213,269;31937,093;69,55940
 864,66;22166,486;  202,192;31644,693;69,85543
 865,22;22088,647;  224,346;31435,984;70,05176
 865,78;22096,422;  219,192;31266,353;70,46451
 866,34;22104,121;  204,731;31362,106;70,28638
 866,90;22008,051;  220,808;31083,475;70,59417
 867,45;21993,442;  236,578;30929,151;70,88641
 868,01;21912,910;  223,655;30790,597;70,95658
 868,57;21944,071;  215,732;30619,966;71,46485
 869,13;21866,077;  200,732;30401,565;71,73758
 869,69;21866,853;  210,271;30320,241;71,92495
 870,25;21852,398;  186,348;30246,302;72,07612
 870,81;21901,712;  214,810;30184,209;72,36349
 871,37;21890,257;  223,349;30086,809;72,55324
 871,93;21785,187;  236,811;29867,716;72,72264
 872,49;21564,732;  254,580;29613,854;72,58406
 873,04;21552,123;  202,196;29450,145;72,99632
 873,60;21612,822;  195,350;29270,822;73,66165
 874,16;21541,060;  219,119;29224,883;73,50932
 874,72;21587,444;  217,888;29149,498;73,86231
 875,28;21622,906;  225,119;29078,806;74,15963
 875,84;21677,213;  226,581;29020,498;74,49710
 876,40;21659,983;  213,504;28867,960;74,84518
 876,95;21592,906;  227,042;28836,113;74,68213
 877,51;21670,598;  247,273;28855,267;74,88580
 878,07;21780,521;  253,812;28901,729;75,14232
 878,63;21822,829;  223,965;28900,037;75,32016
 879,19;21875,367;  228,812;28924,267;75,43548
 879,75;22065,598;  216,504;28921,729;76,11539
 880,30;22036,752;  207,735;28891,883;76,10133
 880,86;22216,906;  260,042;29039,883;76,29251
 881,42;22241,675;  206,812;29044,113;76,41097
 881,98;22234,521;  232,504;29123,190;76,15609
 882,54;22424,444;  203,119;29288,498;76,40033
 883,09;22652,983;  219,965;29421,113;76,82238
 883,65;22682,752;  202,658;29500,883;76,72852
 884,21;22820,906;  245,427;29732,037;76,56180
 884,77;23009,290;  215,658;29681,806;77,35532
 885,32;23164,598;  216,427;29980,883;77,09925
 885,88;23294,367;  248,119;30130,960;77,12201
 886,44;23441,060;  224,119;30121,344;77,65584
 887,00;23466,829;  246,504;30179,498;77,57435
 887,56;23683,906;  210,119;30411,498;77,72422
 888,11;23831,521;  216,273;30340,498;78,39288
 888,67;24016,983;  240,273;30523,960;78,51326
 889,23;24051,675;  224,273;30494,960;78,71444
 889,79;23938,444;  209,658;30424,113;78,53455
 890,34;24007,290;  232,658;30343,883;78,95605
 890,90;24177,598;  290,965;30495,883;79,08193
 891,46;24098,137;  201,427;30323,883;79,33188
 892,01;24096,444;  243,658;30357,652;79,20831
 892,57;24067,290;  258,273;30260,883;79,35649
 893,13;23995,675;  232,965;30047,883;79,70074
 893,69;23953,290;  207,427;29994,344;79,71910
 894,24;24003,906;  218,196;29892,037;80,15717
 894,80;23848,598;  226,658;29773,037;79,94868
 895,36;23840,675;  220,427;29661,729;80,22827
 895,91;23636,521;  220,965;29475,190;80,04162
 896,47;23601,983;  234,965;29274,113;80,46730
 897,03;23488,906;  227,119;29118,037;80,51592
 897,58;23480,444;  233,196;28943,960;80,97050
 898,14;23269,598;  233,196;28747,498;80,78894
 898,70;23177,752;  196,350;28606,421;80,89174
 899,25;23197,752;  218,427;28578,113;81,02813
 899,81;23117,213;  235,581;28370,960;81,32690
 900,37;22858,906;  186,042;28129,421;81,13859
 900,92;22998,752;  221,965;28086,883;81,74001
 901,48;22902,521;  225,581;27998,344;81,65172
 902,03;22840,290;  217,119;27810,344;81,98814
 902,59;22869,521;  215,196;27764,498;82,23194
 903,15;22673,906;  241,658;27546,113;82,15600
 903,70;22583,675;  215,042;27327,883;82,50199
 904,26;22538,367;  211,658;27219,267;82,66822
 904,82;22580,444;  220,273;27155,883;83,01342
 905,37;22469,675;  227,888;27043,498;82,94343
 905,93;22395,444;  209,504;26857,729;83,25485
 906,48;22367,367;  228,735;26871,113;83,09556
 907,04;22395,829;  232,196;26694,498;83,75550
 907,60;22145,675;  219,350;26502,421;83,42376
 908,15;22067,367;  197,888;26350,190;83,62353
 908,71;22155,213;  238,042;26385,037;83,82291
 909,26;22046,367;  224,427;26125,652;84,25061
 909,82;22050,060;  227,196;26128,729;84,25317
 910,37;22024,983;  266,119;25979,190;84,62180
 910,93;21934,367;  212,812;25777,421;84,96729
 911,48;21834,060;  201,888;25659,806;84,97227
 912,04;21730,060;  220,119;25480,806;85,15184
 912,60;21894,213;  228,812;25513,729;85,68508
 913,15;21654,829;  221,273;25329,498;85,36468
 913,71;21681,137;  204,812;25161,498;86,05439
 914,26;21580,906;  202,658;25003,344;86,20023
 914,82;21513,983;  225,735;24906,652;86,25388
 915,37;21407,521;  199,658;24883,575;85,91774
 915,93;21437,367;  256,735;24693,344;86,67582
 916,48;21325,137;  193,581;24655,344;86,38607
 917,04;21315,598;  227,735;24440,037;87,09566
 917,59;21289,675;  249,658;24525,113;86,67198
 918,15;21034,752;  190,042;24173,960;86,91120
 918,70;21036,137;  205,273;24166,113;86,93712
 919,26;20990,290;  219,427;24042,652;87,18745
 919,81;20864,983;  200,658;23895,575;87,20995
 920,37;20917,213;  204,888;23822,421;87,69894
 920,92;20933,983;  228,504;23654,498;88,38677
 921,48;20842,367;  200,504;23530,729;88,47692
 922,03;20912,675;  205,504;23463,575;89,03219
 922,59;20785,752;  216,119;23292,575;89,13688
 923,14;20764,290;  212,273;23113,729;89,74110
 923,69;20724,444;  223,350;23059,652;89,77414
 924,25;20721,675;  236,504;22986,344;90,04534
 924,80;20560,598;  215,735;22825,960;89,98081
 925,36;20561,675;  203,581;22760,883;90,25057
 925,91;20442,752;  196,119;22596,498;90,38522
 926,47;20388,521;  186,812;22550,806;90,33140
 927,02;20363,444;  273,273;22458,190;90,55779
 927,57;20194,829;  218,273;22275,421;90,56727
 928,13;20117,675;  202,581;22197,037;90,54597
 928,68;20119,137;  207,735;22179,729;90,62173
 929,24;19955,752;  187,812;21897,806;91,05456
 929,79;19872,444;  210,965;21808,960;91,03382
 930,34;19810,521;  212,196;21625,652;91,52341
 930,90;19767,752;  201,119;21634,190;91,29178
 931,45;19754,137;  223,658;21562,267;91,52648
 932,01;19687,137;  224,812;21431,883;91,77281
 932,56;19568,137;  233,658;21278,729;91,87177
 933,11;19669,060;  236,504;21355,190;92,01593
 933,67;19517,367;  211,427;21081,421;92,50573
 934,22;19489,137;  216,504;21017,267;92,65349
 934,77;19366,983;  234,888;20884,960;92,64905
 935,33;19245,290;  223,965;20760,652;92,62120
 935,88;19206,829;  219,273;20625,113;93,04961
 936,43;19193,752;  213,504;20572,190;93,22924
 936,99;19251,060;  212,735;20439,729;94,12335
 937,54;19113,829;  204,273;20285,652;94,16463
 938,09;19142,137;  219,812;20243,806;94,49825
 938,65;18995,598;  215,273;20138,498;94,26348
 939,20;19011,290;  190,196;20034,344;94,84456
 939,75;18956,060;  210,196;19952,883;94,95092
 940,31;18860,060;  188,888;19821,575;95,10248
 940,86;18923,675;  220,042;19795,960;95,54409
 941,41;18850,752;  293,273;19672,652;95,75889
 941,96;18886,290;  196,888;19552,652;96,55730
 942,52;18837,213;  208,042;19358,498;97,27795
 943,07;18707,367;  190,273;19329,883;96,74750
 943,62;18583,983;  194,735;19270,806;96,39956
 944,18;18566,444;  196,658;19146,806;96,93743
 944,73;18475,290;  217,965;19028,960;97,05667
 945,28;18199,829;  182,581;18910,113;96,20727
 945,83;18237,752;  200,350;18902,267;96,44681
 946,39;18343,444;  205,965;18762,037;97,74418
 946,94;18287,752;  240,581;18793,113;97,27605
 947,49;18149,752;  207,504;18619,652;97,44788
 948,04;18118,752;  240,965;18558,113;97,60136
 948,59;18063,367;  237,427;18520,421;97,50011
 949,15;18058,213;  189,273;18325,652;98,52540
 949,70;17915,752;  208,273;18289,575;97,93254
 950,25;17855,598;  216,196;18151,729;98,34892
 950,80;17775,752;  177,196;18029,498;98,57864
 951,36;17765,906;  172,119;17948,037;98,97541
 951,91;17721,444;  217,658;17940,113;98,76615
 952,46;17537,060;  195,350;17714,267;98,98848
 953,01;17583,290;  214,196;17756,190;99,01437
 953,56;17392,213;  190,350;17610,652;98,74607
 954,11;17409,906;  217,888;17566,421;99,09782
 954,67;17340,598;  201,427;17494,652;99,10917
 955,22;17254,598;  181,658;17318,421;99,62757
 955,77;17273,675;  217,888;17317,037;99,74641
 956,32;17188,752;  253,888;17234,267;99,73195
 956,87;17086,213;  200,658;17057,806;100,16852
 957,42;17143,829;  211,273;17000,344;100,85463
 957,98;17044,521;  194,042;16885,729;100,95133
 958,53;17004,290;  233,735;16905,344;100,59350
 959,08;16918,367;  192,504;16733,421;101,11811
 959,63;16931,213;  205,504;16589,498;102,08567
 960,18;16909,752;  216,888;16566,960;102,09658
 960,73;16864,521;  207,658;16534,960;102,01847
 961,28;16790,906;  179,965;16409,806;102,34814
 961,83;16834,521;  228,119;16367,575;102,89320
 962,39;16717,444;  187,273;16232,190;103,02435
 962,94;16670,137;  207,042;16179,344;103,07277
 963,49;16577,213;  208,658;16006,729;103,61110
 964,04;16582,906;  218,119;15901,267;104,34631
 964,59;16559,752;  189,427;15873,652;104,37446
 965,14;16499,521;  222,427;15785,190;104,59000
 965,69;16424,752;  208,581;15683,421;104,79056
 966,24;16315,906;  202,119;15562,267;104,90645
 966,79;16291,137;  217,735;15553,652;104,80887
 967,34;16213,752;  186,427;15374,960;105,52254
 967,89;16237,290;  196,196;15330,575;105,99110
 968,44;16164,137;  205,581;15273,421;105,91137
 968,99;16193,290;  221,196;15182,729;106,75440
 969,55;16112,906;  218,658;15098,344;106,81843
 970,10;16112,521;  219,888;14978,037;107,68717
 970,65;16006,521;  218,812;14927,960;107,33259
 971,20;15940,367;  194,350;14764,267;108,07211
 971,75;15797,444;  181,812;14686,652;107,65808
 972,30;15761,598;  210,427;14581,267;108,21337
 972,85;15723,213;  204,119;14492,267;108,61516
 973,40;15662,444;  195,119;14341,190;109,34008
 973,95;15572,290;  221,119;14313,344;108,93362
 974,50;15506,137;  236,581;14226,729;109,14506
 975,05;15455,521;  214,658;14143,037;109,42310
 975,60;15383,137;  223,350;14038,344;109,73430
 976,15;15332,367;  208,581;13907,960;110,39761
 976,70;15279,444;  221,965;13842,113;110,55297
 977,25;15305,983;  223,042;13793,652;111,14416
 977,80;15124,752;  199,427;13662,421;110,86185
 978,35;14952,290;  219,658;13468,267;111,20135
 978,89;14867,444;  188,888;13409,806;111,02524
 979,44;14969,598;  214,350;13393,960;111,95512
 979,99;14786,444;  193,965;13277,498;111,53317
 980,54;14799,752;  228,658;13134,344;112,90445
 981,09;14740,598;  229,888;13020,960;113,44405
 981,64;14571,137;  223,581;12872,960;113,42498
 982,19;14518,675;  254,350;12828,113;113,44515
 982,74;14433,829;  222,273;12694,883;113,94212
 983,29;14304,829;  200,658;12585,729;113,88042
 983,84;14192,598;  221,658;12477,806;113,99128
 984,39;14160,752;  285,504;12405,113;114,48593
 984,94;14022,829;  183,965;12212,421;115,05104
 985,49;14006,213;  233,042;12224,037;114,86263
 986,03;13948,675;  231,504;12074,037;115,82971
 986,58;13803,213;  261,581;11949,037;115,86468
 987,13;13630,906;  211,119;11819,037;115,60891
 987,68;13567,290;  224,581;11701,575;116,25613
 988,23;13542,213;  221,581;11654,575;116,51045
 988,78;13406,521;  198,735;11528,421;116,57680
 989,33;13284,675;  240,504;11380,652;117,09154
 989,88;13272,060;  255,350;11359,806;117,22060
 990,42;13084,213;  213,273;11216,883;116,97017
 990,97;12969,752;  210,196;11052,883;117,67891
 991,52;12897,906;  231,735;10994,421;117,68596
 992,07;12854,290;  252,504;10966,113;117,62410
 992,62;12647,675;  229,042;10832,960;117,11363
 993,17;12584,829;  230,196;10679,113;118,23840
 993,71;12474,060;  234,119;10622,037;117,82863
 994,26;12339,213;  198,965;10405,267;118,94855
 994,81;12310,752;  239,658;10404,344;118,75520
 995,36;12202,906;  218,812;10233,190;119,66887
 995,91;12179,290;  226,119;10173,652;120,16217
 996,45;12018,906;  225,119;10071,421;119,77884
 997,00;11890,290;  206,427; 9907,883;120,43413
 997,55;11887,906;  238,658; 9872,190;120,92395
 998,10;11747,137;  246,504; 9737,037;121,18005
 998,65;11708,213;  216,273; 9673,960;121,50900
 999,19;11582,983;  247,965; 9548,498;121,87493
 999,74;11430,906;  241,581; 9464,113;121,32595
1000,29;11418,521;  237,273; 9353,498;122,65217
1000,84;11200,060;  212,888; 9203,190;122,21137
1001,38;11065,367;  227,042; 9137,652;121,63393
1001,93;10990,137;  246,888; 9059,806;121,90343
1002,48;10896,598;  211,812; 8881,037;123,24962
1003,03;10802,598;  232,196; 8874,498;122,31003
1003,57;10663,675;  233,042; 8753,344;122,42093
1004,12;10571,444;  262,504; 8678,729;122,48889
1004,67;10465,752;  222,119; 8592,960;122,37281
1005,22;10281,367;  216,658; 8405,729;122,90417
1005,76;10114,521;  201,196; 8318,652;122,12355
1006,31;10089,829;  230,581; 8234,575;123,17910
1006,86; 9932,983;  218,273; 8113,498;123,04538
1007,40; 9838,675;  195,196; 8020,806;123,22975
1007,95; 9725,752;  220,119; 7905,421;123,68587
1008,50; 9605,213;  231,196; 7753,960;124,60869
1009,04; 9528,290;  209,812; 7686,652;124,63124
1009,59; 9362,444;  229,042; 7556,190;124,65153
1010,14; 9216,367;  206,658; 7438,037;124,59186
1010,68; 9065,752;  220,504; 7320,806;124,57566
1011,23; 8977,675;  212,888; 7211,652;125,23336
1011,78; 8879,598;  229,888; 7119,344;125,54997
1012,32; 8765,983;  241,965; 7036,113;125,46116
1012,87; 8671,521;  257,581; 6974,806;125,25917
1013,42; 8536,137;  203,196; 6845,344;125,45550
1013,96; 8569,137;  257,350; 6877,806;125,54704
1014,51; 8468,983;  192,965; 6726,883;126,66241
1015,06; 8430,598;  187,812; 6776,190;125,11100
1015,60; 8458,137;  264,042; 6805,037;125,27292
1016,15; 8404,675;  209,965; 6771,037;124,89896
1016,69; 8490,213;  217,658; 6788,421;125,89946
1017,24; 8447,213;  199,196; 6784,960;125,24011
1017,79; 8496,290;  241,350; 6898,190;124,00688
1018,33; 8577,137;  207,888; 6841,113;126,17163
1018,88; 8627,444;  224,273; 6898,190;125,91063
1019,42; 8634,137;  217,427; 6885,652;126,22114
1019,97; 8569,444;  207,427; 6909,575;124,76623
1020,51; 8629,290;  242,196; 6946,421;125,10162
1021,06; 8562,213;  188,965; 6917,344;124,44674
1021,61; 8566,675;  190,042; 6892,883;124,97139
1022,15; 8505,752;  170,735; 6874,960;124,32484
1022,70; 8474,829;  209,965; 6875,960;123,98546
1023,24; 8439,675;  202,042; 6803,729;124,78073
1023,79; 8415,675;  213,427; 6726,960;125,92626
1024,33; 8346,829;  204,427; 6673,883;125,85915
1024,88; 8241,060;  225,812; 6619,883;125,35438
1025,42; 8068,521;  219,965; 6470,729;125,56155
1025,97; 8036,521;  206,504; 6409,498;126,22964
1026,51; 7830,983;  174,504; 6244,344;126,13971
1027,06; 7861,213;  202,658; 6224,960;127,16991
1027,60; 7697,752;  229,658; 6108,421;127,03512
1028,15; 7660,752;  224,427; 6049,652;127,65730
1028,69; 7450,983;  178,658; 5900,498;127,09766
1029,24; 7487,983;  190,888; 5858,652;128,74733
1029,78; 7349,137;  191,581; 5760,806;128,51978
1030,33; 7226,906;  183,812; 5600,190;130,03326
1030,87; 7104,829;  203,119; 5562,421;128,78001
1031,42; 6983,675;  186,888; 5474,960;128,53054
1031,96; 6935,983;  216,504; 5405,344;129,49866
1032,51; 6839,213;  193,350; 5354,652;128,76332
1033,05; 6725,752;  218,504; 5267,806;128,87421
1033,60; 6651,060;  181,581; 5145,267;130,33617
1034,14; 6564,598;  199,658; 5080,652;130,40254
1034,69; 6498,137;  204,735; 5045,652;130,00433
1035,23; 6410,521;  211,119; 4934,652;131,24503
1035,77; 6321,444;  199,042; 4887,037;130,59747
1036,32; 6224,290;  174,350; 4782,344;131,29227
1036,86; 6194,137;  210,427; 4749,344;131,83121
1037,41; 6148,521;  220,273; 4667,267;133,30910
1037,95; 6005,060;  179,196; 4579,729;132,38996
1038,50; 5980,521;  185,504; 4553,190;132,67933
1039,04; 5913,444;  220,427; 4509,575;132,73072
1039,58; 5789,675;  185,812; 4421,498;132,30118
1040,13; 5710,213;  202,581; 4362,806;132,38786
1040,67; 5713,444;  235,119; 4322,883;134,01766
1041,21; 5609,906;  231,273; 4245,883;133,97648
1041,76; 5480,675;  188,735; 4150,037;133,59094
1042,30; 5462,060;  200,581; 4087,960;135,34773
1042,85; 5422,675;  203,042; 4051,267;135,63741
1043,39; 5295,137;  185,812; 3954,113;135,58693
1043,93; 5279,367;  215,042; 3934,037;136,17459
1044,48; 5197,598;  210,273; 3906,806;134,91900
1045,02; 5136,367;  199,042; 3826,498;136,10986
1045,56; 5105,521;  226,042; 3777,113;137,40865
1046,11; 5052,444;  220,812; 3749,652;136,91843
1046,65; 4972,213;  204,273; 3688,883;136,82854
1047,19; 4901,444;  196,350; 3599,806;138,24461
1047,74; 4795,752;  186,042; 3537,113;137,55929
1048,28; 4772,906;  212,427; 3515,575;138,06462
1048,82; 4735,752;  226,735; 3507,883;137,42194
1049,37; 4678,290;  218,504; 3423,883;139,13446
1049,91; 4628,906;  211,042; 3355,652;140,49004
1050,45; 4595,290;  222,504; 3341,190;140,21244
1050,99; 4517,829;  212,042; 3292,267;139,78805
1051,54; 4428,290;  190,504; 3225,575;139,62725
1052,08; 4414,906;  237,119; 3201,421;140,93661
1052,62; 4352,444;  230,119; 3156,960;140,84557
1053,16; 4267,444;  211,812; 3111,883;139,84597
1053,71; 4225,213;  208,504; 3087,806;139,50290
1054,25; 4141,213;  216,581; 3010,421;140,47448
1054,79; 4132,444;  223,965; 2979,652;141,83322
1055,33; 3995,829;  188,196; 2892,344;140,80711
1055,88; 4019,598;  220,812; 2885,113;142,58093
1056,42; 3961,213;  230,965; 2875,190;141,07151
1056,96; 3926,598;  227,119; 2836,806;141,75951
1057,50; 3862,137;  220,427; 2793,344;141,54010
1058,05; 3776,213;  214,119; 2740,344;141,00463
1058,59; 3774,752;  243,888; 2702,960;143,58525
1059,13; 3623,290;  199,119; 2619,113;141,49501
1059,67; 3649,598;  222,658; 2601,113;144,08258
1060,21; 3605,444;  217,581; 2572,344;143,87277
1060,76; 3546,137;  228,119; 2535,729;143,78590
1061,30; 3517,444;  230,350; 2515,652;143,83632
1061,84; 3473,983;  208,196; 2445,883;145,94477
1062,38; 3393,213;  208,581; 2374,344;147,04434
1062,92; 3404,598;  255,427; 2419,729;145,50517
1063,46; 3365,060;  224,119; 2353,421;147,51033
1064,01; 3293,444;  216,504; 2333,113;145,37118
1064,55; 3260,137;  223,965; 2281,883;147,53611
1065,09; 3174,060;  194,735; 2227,806;146,54308
1065,63; 3177,829;  250,658; 2235,421;147,48212
1066,17; 3126,906;  250,812; 2233,267;145,07735
1066,71; 3076,829;  239,735; 2178,806;146,31202
1067,25; 3052,290;  214,042; 2134,652;147,77850
1067,80; 3004,367;  240,735; 2131,421;146,17086
1068,34; 3004,906;  241,350; 2115,190;147,48085
1068,88; 2895,521;  218,965; 2031,344;147,68191
1069,42; 2920,521;  250,273; 2060,960;147,47158
1069,96; 2862,367;  218,581; 2041,421;145,03665
1070,50; 2873,983;  251,735; 2038,267;146,77862
1071,04; 2784,060;  206,273; 1965,421;146,53607
1071,58; 2749,983;  217,042; 1958,267;145,46887
1072,12; 2748,829;  219,581; 1920,729;148,67889
1072,66; 2700,521;  220,119; 1898,883;147,75172
1073,21; 2704,137;  233,427; 1906,806;147,64795
1073,75; 2655,290;  238,196; 1855,190;149,48070
1074,29; 2599,983;  231,581; 1827,190;148,43242
1074,83; 2598,213;  239,581; 1820,190;149,22298
1075,37; 2572,137;  239,042; 1805,498;148,94096
1075,91; 2550,675;  234,888; 1783,344;149,55458
1076,45; 2521,983;  231,504; 1762,421;149,61480
1076,99; 2474,367;  240,350; 1738,344;149,13391
1077,53; 2435,290;  224,042; 1674,575;152,44386
1078,07; 2416,752;  239,812; 1680,575;151,09631
1078,61; 2376,290;  222,888; 1656,037;150,25676
1079,15; 2348,137;  229,427; 1636,421;150,58410
1079,69; 2316,521;  226,735; 1619,344;150,06262
1080,23; 2298,213;  248,273; 1642,960;146,98216
1080,77; 2311,675;  278,196; 1640,037;149,31844
1081,31; 2244,752;  215,888; 1551,498;151,90542
1081,85; 2251,598;  239,427; 1559,267;152,45564
1082,39; 2198,137;  230,812; 1535,498;150,78909
1082,93; 2177,367;  237,427; 1526,421;150,50032
1083,47; 2116,213;  208,504; 1501,883;147,49813
1084,01; 2142,367;  238,350; 1494,113;151,62229
1084,55; 2086,598;  225,119; 1450,652;151,89141
1085,09; 2081,675;  247,658; 1436,344;154,28940
1085,63; 2047,367;  223,427; 1433,652;150,71085
1086,17; 2012,367;  214,273; 1409,037;150,49793
1086,71; 1987,906;  226,042; 1363,960;154,83229
1087,24; 1996,829;  255,042; 1414,575;150,21453
1087,78; 1966,675;  246,735; 1389,037;150,56793
1088,32; 1896,060;  202,273; 1326,652;150,64198
1088,86; 1907,137;  243,504; 1357,421;149,34975
1089,40; 1896,444;  233,812; 1338,267;150,53864
1089,94; 1837,829;  203,888; 1270,421;153,20115
1090,48; 1824,060;  235,196; 1269,498;153,61699
1091,02; 1835,906;  243,735; 1276,113;154,22354
1091,56; 1805,752;  228,504; 1258,267;153,16606
1092,10; 1758,367;  214,965; 1212,421;154,73387
1092,63; 1777,675;  248,658; 1234,190;155,14628
1093,17; 1746,675;  239,812; 1216,113;154,34400
1093,71; 1701,983;  217,965; 1210,729;149,48347
1094,25; 1712,906;  261,888; 1200,190;154,64290
1094,79; 1685,213;  224,812; 1174,575;153,76480
1095,33; 1651,829;  227,735; 1160,267;152,71253
1095,87; 1639,906;  226,965; 1149,960;153,08226
1096,40; 1595,367;  210,350; 1115,575;153,00255
1096,94; 1600,213;  228,119; 1111,652;155,29637
1097,48; 1603,752;  244,196; 1122,267;154,83435
1098,02; 1564,675;  223,196; 1093,421;154,15310
1098,56; 1507,598;  196,427; 1057,421;152,28571
1099,10; 1487,752;  205,196; 1047,806;152,21233
1099,63; 1488,598;  206,196; 1042,113;153,41253
1100,17; 1486,444;  234,581; 1050,344;153,45912
1100,71; 1491,829;  254,042; 1052,190;155,08232

