
Integration time [ms]: 160,000
Averaging Nr. [scans]: 13
Smoothing Nr. [pixels]: 0
Data measured with spectrometer [name]: 2009305U1
Wave   ;Sample   ;Dark     ;Reference;Reflectance
[nm]   ;[counts] ;[counts] ;[counts] ;[%]

 175,72;  220,639;  199,741;  200,777;2017,03587
 176,32;  246,013;  225,729;  223,979; 0,00000
 176,92;  275,149;  254,352;  256,468;982,79998
 177,52;  277,623;  261,585;  265,454;414,48575
 178,12;  244,975;  246,191;  228,377; 0,00000
 178,72;  274,960;  256,803;  258,493;1074,17991
 179,32;  268,219;  250,652;  234,314; 0,00000
 179,92;  270,018;  255,041;  253,110; 0,00000
 180,52;  255,728;  243,055;  255,886;98,76433
 181,12;  273,432;  258,888;  259,497; 0,00000
 181,73;  287,891;  266,427;  278,520;177,49824
 182,33;  395,812;  358,357;  354,615; 0,00000
 182,93;  279,602;  274,431;  274,023; 0,00000
 183,53;  238,521;  246,416;  233,568; 0,00000
 184,13;  247,041;  235,495;  227,035; 0,00000
 184,73;  300,023;  285,799;  287,378;900,80851
 185,33;  307,385;  228,805;  366,277;57,16045
 185,93;  312,333;  235,412;  372,564;56,08399
 186,53;  332,107;  256,186;  398,310;53,41901
 187,13;  359,398;  279,426;  434,595;51,53895
 187,73;  319,890;  244,875;  373,249;58,43470
 188,33;  325,325;  250,255;  386,995;54,89974
 188,93;  334,761;  255,162;  385,621;61,01410
 189,53;  337,099;  257,227;  401,302;55,43812
 190,13;  359,737;  280,670;  423,850;55,22215
 190,73;  308,288;  224,529;  378,443;54,41923
 191,34;  343,161;  264,081;  410,691;53,93885
 191,94;  317,308;  245,019;  377,905;54,39938
 192,54;  353,344;  247,664;  427,510;58,76144
 193,14;  343,806;  261,733;  418,542;52,33982
 193,74;  343,773;  262,654;  401,356;58,48439
 194,34;  349,494;  254,966;  402,972;63,86801
 194,94;  308,324;  221,040;  376,033;56,31427
 195,54;  275,938;  216,190;  352,702;43,76740
 196,14;  312,364;  226,891;  382,071;55,07994
 196,74;  311,712;  220,111;  382,041;56,56791
 197,34;  290,315;  197,127;  382,736;50,20652
 197,94;  307,853;  232,119;  400,126;45,07804
 198,54;  337,032;  246,429;  416,944;53,13472
 199,14;  301,154;  216,900;  396,880;46,81306
 199,74;  299,945;  199,515;  409,619;47,79978
 200,34;  291,401;  201,978;  416,946;41,59801
 200,94;  340,942;  239,588;  444,800;49,39021
 201,54;  320,016;  217,744;  468,718;40,75000
 202,14;  357,771;  243,442;  505,674;43,59835
 202,74;  333,598;  222,361;  498,991;40,21144
 203,34;  322,359;  195,523;  523,337;38,69164
 203,94;  313,184;  170,751;  524,984;40,20899
 204,54;  384,962;  249,427;  608,671;37,72796
 205,14;  354,976;  199,361;  622,984;36,73423
 205,74;  419,471;  246,446;  720,243;36,51881
 206,34;  398,494;  203,288;  737,115;36,56730
 206,94;  418,786;  212,364;  803,280;34,93264
 207,54;  405,148;  194,057;  837,333;32,81495
 208,14;  463,117;  211,443;  913,379;35,85437
 208,74;  466,014;  209,207; 1013,510;31,92913
 209,34;  486,651;  206,516; 1117,044;30,76628
 209,94;  523,892;  216,285; 1207,131;31,04493
 210,54;  549,465;  204,290; 1327,188;30,73969
 211,14;  581,927;  209,977; 1436,345;30,32939
 211,73;  613,291;  215,667; 1572,019;29,31573
 212,33;  653,614;  226,049; 1695,753;29,09188
 212,93;  668,741;  207,822; 1770,108;29,50282
 213,53;  652,035;  182,746; 1835,326;28,39738
 214,13;  716,611;  200,988; 1950,535;29,47184
 214,73;  710,540;  191,288; 1957,212;29,40397
 215,33;  689,661;  172,208; 1999,362;28,32020
 215,93;  769,149;  210,907; 2119,819;29,24398
 216,53;  779,289;  164,822; 2217,580;29,93374
 217,13;  891,231;  227,136; 2448,261;29,89903
 217,73;  949,806;  191,369; 2666,066;30,64770
 218,33;  993,941;  171,989; 2838,762;30,82200
 218,93; 1151,393;  196,459; 3204,207;31,74913
 219,53; 1296,116;  195,220; 3533,962;32,97339
 220,13; 1398,937;  160,837; 3850,961;33,55172
 220,73; 1537,858;  188,208; 4281,994;32,96825
 221,32; 1745,475;  200,899; 4687,125;34,42930
 221,92; 1939,003;  199,298; 5129,848;35,28420
 222,52; 2090,615;  167,215; 5602,925;35,38451
 223,12; 2343,063;  184,523; 6053,373;36,77960
 223,72; 2507,546;  196,293; 6476,650;36,80129
 224,32; 2727,120;  194,370; 6900,583;37,76721
 224,92; 2886,071;  167,678; 7203,560;38,63613
 225,52; 3103,500;  207,748; 7625,096;39,04025
 226,12; 3255,109;  188,598; 7945,856;39,53086
 226,72; 3440,818;  159,674; 8322,566;40,19585
 227,31; 3607,692;  155,674; 8696,466;40,41801
 227,91; 3885,369;  194,671; 9121,351;41,34458
 228,51; 4091,279;  181,896; 9490,110;41,99928
 229,11; 4286,163;  195,135; 9947,630;41,94853
 229,71; 4475,824;  175,668;10228,115;42,77721
 230,31; 4731,122;  165,218;10718,251;43,26627
 230,91; 4890,685;  160,278;11047,928;43,44745
 231,51; 5130,911;  168,061;11349,350;44,38531
 232,10; 5316,606;  167,758;11737,016;44,50456
 232,70; 5452,725;  186,735;11999,664;44,57819
 233,30; 5674,624;  202,829;12239,986;45,45753
 233,90; 5752,267;  173,906;12300,963;45,99930
 234,50; 5885,041;  179,061;12417,146;46,62477
 235,10; 5933,609;  172,909;12458,944;46,88820
 235,70; 6041,016;  198,209;12575,100;47,20739
 236,29; 5996,716;  196,976;12452,520;47,32340
 236,89; 5921,437;  164,048;12281,757;47,51219
 237,49; 5928,084;  194,982;12162,422;47,90583
 238,09; 5752,417;  180,826;11817,192;47,88085
 238,69; 5672,077;  218,045;11505,502;48,31941
 239,29; 5447,004;  182,980;11125,113;48,10784
 239,89; 5231,102;  192,125;10743,781;47,75532
 240,48; 4990,984;  177,596;10312,169;47,49473
 241,08; 4744,353;  167,440; 9918,872;46,93580
 241,68; 4549,715;  195,442; 9593,874;46,32978
 242,28; 4303,892;  163,444; 9193,819;45,85023
 242,88; 4116,094;  214,834; 8861,428;45,11904
 243,48; 3873,678;  210,674; 8590,298;43,71323
 244,07; 3627,474;  180,671; 8300,943;42,44690
 244,67; 3498,314;  194,981; 8093,088;41,82436
 245,27; 3315,984;  194,667; 7997,019;40,00482
 245,87; 3208,527;  199,679; 7911,656;39,01526
 246,47; 3064,417;  196,590; 7831,043;37,56428
 247,06; 2979,441;  177,210; 7850,293;36,52027
 247,66; 2870,991;  186,904; 7992,433;34,38700
 248,26; 2853,345;  218,514; 8116,764;33,35968
 248,86; 2783,998;  202,129; 8336,982;31,73836
 249,46; 2744,044;  152,830; 8599,688;30,67666
 250,05; 2767,095;  204,365; 9042,229;28,99717
 250,65; 2739,724;  167,820; 9488,093;27,59473
 251,25; 2802,335;  178,286;10021,829;26,65756
 251,85; 2885,490;  182,894;10653,323;25,81170
 252,44; 2941,119;  149,515;11376,948;24,86413
 253,04; 3084,165;  198,362;12268,532;23,90856
 253,64; 3136,517;  144,588;13140,502;23,02207
 254,24; 3389,766;  200,287;14187,567;22,80271
 254,84; 3521,967;  176,522;15338,996;22,06398
 255,43; 3715,185;  181,361;16441,168;21,73349
 256,03; 3914,734;  189,358;17674,950;21,30540
 256,63; 4198,773;  192,278;18907,965;21,40715
 257,23; 4349,609;  171,663;19978,647;21,09330
 257,82; 4658,153;  194,582;21230,937;21,21837
 258,42; 4857,133;  155,042;22375,919;21,16069
 259,02; 5164,043;  208,977;23416,897;21,35075
 259,62; 5381,859;  174,348;24318,953;21,56801
 260,21; 5597,143;  184,976;25013,690;21,79802
 260,81; 5835,759;  183,213;25624,225;22,21824
 261,41; 6037,327;  171,889;26292,804;22,45495
 262,01; 6286,007;  211,654;26975,282;22,69630
 262,60; 6522,763;  174,663;27463,031;23,26302
 263,20; 6793,476;  171,974;27904,384;23,87640
 263,80; 7008,192;  201,654;28229,185;24,28519
 264,40; 7210,728;  169,732;28449,208;24,89790
 264,99; 7478,205;  192,961;28660,660;25,59126
 265,59; 7729,052;  179,340;28893,972;26,29221
 266,19; 8000,136;  161,270;29175,386;27,01742
 266,78; 8242,479;  219,651;29399,987;27,49395
 267,38; 8404,864;  190,264;29352,707;28,16842
 267,98; 8677,675;  179,959;29466,465;29,01581
 268,58; 8838,123;  183,957;29493,222;29,52707
 269,17; 9003,191;  177,337;29577,473;30,01977
 269,77; 9219,324;  189,123;29266,106;31,05618
 270,37; 9355,929;  153,346;29253,102;31,62426
 270,96; 9532,436;  224,736;29001,887;32,34406
 271,56; 9559,339;  177,971;28718,942;32,86983
 272,16; 9738,980;  183,427;28531,176;33,70833
 272,75; 9852,509;  179,735;28438,781;34,22895
 273,35;10059,063;  180,968;28492,693;34,89047
 273,95;10180,222;  188,813;28468,674;35,33048
 274,54;10417,357;  176,134;28382,363;36,30837
 275,14;10708,158;  205,122;28954,428;36,53318
 275,74;10880,285;  158,504;28965,480;37,21939
 276,33;11291,327;  207,123;29476,725;37,86934
 276,93;11625,862;  178,596;29891,483;38,52627
 277,53;12027,660;  181,053;30469,874;39,11214
 278,12;12448,872;  160,510;31080,730;39,74216
 278,72;12963,649;  219,668;31838,915;40,30451
 279,32;13427,946;  182,590;32489,494;40,99853
 279,91;14007,364;  161,127;33366,067;41,69933
 280,51;14460,063;  184,899;34012,841;42,19933
 281,11;15042,007;  170,358;34876,889;42,84971
 281,70;15510,461;  155,050;35308,164;43,68151
 282,30;16088,262;  166,125;36176,249;44,21573
 282,90;16571,573;  178,201;36604,099;45,00472
 283,49;17116,469;  190,583;37302,355;45,60786
 284,09;17645,292;  212,588;37743,355;46,44910
 284,69;18152,774;  211,128;38090,989;47,36460
 285,28;18628,733;  192,818;38595,308;48,00708
 285,88;19268,445;  248,197;38774,102;49,37002
 286,47;19545,552;  190,509;39004,667;49,86594
 287,07;20002,694;  210,590;38992,293;51,03464
 287,67;20447,371;  196,367;39142,990;51,99681
 288,26;20863,162;  173,974;39033,454;53,24103
 288,86;21403,597;  181,973;39203,121;54,38493
 289,46;21977,098;  208,974;39328,621;55,64499
 290,05;22566,314;  171,440;39402,244;57,08492
 290,65;23296,237;  184,662;39742,250;58,42514
 291,24;23926,114;  189,206;39857,457;59,83856
 291,84;24508,004;  190,586;39984,888;61,10779
 292,44;25158,301;  193,367;40181,331;62,43112
 293,03;25832,628;  262,898;40338,407;63,80388
 293,63;26452,294;  185,047;40528,691;65,10876
 294,22;26969,493;  206,204;40706,632;66,08150
 294,82;27370,054;  185,271;40767,174;66,98745
 295,41;27494,307;  173,511;40305,933;68,07662
 296,01;27851,745;  219,196;40292,531;68,95495
 296,61;27896,838;  206,129;39981,129;69,61837
 297,20;27740,141;  193,504;39570,490;69,95618
 297,80;27970,256;  201,518;39286,775;71,04658
 298,39;27707,721;  173,586;38834,323;71,21989
 298,99;27634,716;  216,967;38727,141;71,19612
 299,58;27637,369;  203,981;38503,349;71,62883
 300,18;27512,534;  206,979;38361,926;71,56492
 300,78;27268,696;  181,823;37955,038;71,70921
 301,37;27391,334;  200,037;37824,584;72,27010
 301,97;27329,742;  195,051;37965,521;71,84102
 302,56;27280,975;  176,124;37860,577;71,92582
 303,16;27238,599;  171,738;37803,792;71,92502
 303,75;27126,288;  179,439;37750,475;71,72240
 304,35;27283,402;  174,062;38078,968;71,51934
 304,94;27313,452;  180,359;38045,641;71,65691
 305,54;27212,321;  205,438;37956,894;71,53865
 306,13;27018,238;  162,139;37817,650;71,32050
 306,73;26776,536;  169,060;37699,181;70,89632
 307,33;26757,279;  199,905;37580,566;71,04576
 307,92;26688,369;  196,668;37708,122;70,62297
 308,52;26907,686;  176,584;38301,649;70,11425
 309,11;27167,171;  177,426;38836,983;69,81390
 309,71;27379,032;  162,654;39062,178;69,96584
 310,30;27436,149;  175,206;39374,979;69,54362
 310,90;27637,303;  219,821;39805,209;69,26162
 311,49;27677,340;  186,205;40051,196;68,96060
 312,09;27620,199;  156,979;40225,718;68,54026
 312,68;27813,727;  238,592;40678,326;68,18822
 313,28;27716,292;  156,745;40746,738;67,89740
 313,87;27672,799;  143,744;40970,885;67,42832
 314,47;27768,935;  181,120;41423,848;66,89134
 315,06;27676,646;  166,822;41394,219;66,72705
 315,66;27647,737;  167,364;41750,334;66,08564
 316,25;27343,484;  144,431;41409,652;65,91278
 316,85;27184,321;  146,979;41637,354;65,16534
 317,44;27004,416;  169,580;41819,484;64,42953
 318,04;26809,007;  157,048;41725,507;64,11582
 318,63;26541,637;  161,060;41782,846;63,38166
 319,22;26466,268;  174,354;42126,384;62,67137
 319,82;26191,740;  175,741;42131,854;62,00765
 320,41;25815,950;  189,816;41995,758;61,29783
 321,01;25615,369;  194,978;42176,428;60,55148
 321,60;25403,296;  184,742;42249,743;59,95139
 322,20;25054,541;  164,283;42279,165;59,10086
 322,79;24895,209;  206,129;42434,961;58,46498
 323,39;24649,779;  178,753;42486,859;57,84004
 323,98;24325,860;  157,592;42432,433;57,16939
 324,58;23963,787;  167,199;42297,084;56,48387
 325,17;23647,834;  170,662;42200,899;55,85782
 325,76;23276,421;  190,897;41944,354;55,29009
 326,36;22776,219;  150,363;41454,047;54,77927
 326,95;22297,209;  195,973;41194,502;53,90739
 327,55;21808,439;  157,741;40819,014;53,24648
 328,14;21377,805;  166,365;40385,196;52,74007
 328,74;20793,646;  196,354;39859,146;51,93102
 329,33;20307,687;  187,286;39413,361;51,29343
 329,92;19785,420;  163,811;38764,795;50,83189
 330,52;19086,974;  188,673;37956,005;50,03875
 331,11;18631,320;  175,665;37483,716;49,46829
 331,71;17999,441;  179,589;36868,297;48,57040
 332,30;17602,760;  196,436;36296,949;48,21628
 332,89;17058,033;  235,285;35572,425;47,60642
 333,49;16459,926;  192,588;34988,783;46,75033
 334,08;15998,491;  185,510;34527,656;46,04541
 334,68;15576,872;  175,126;34029,115;45,49463
 335,27;15204,101;  193,366;33538,670;45,01604
 335,86;14909,782;  232,972;33293,101;44,39429
 336,46;14514,811;  193,213;32980,021;43,68098
 337,05;14222,271;  175,126;32833,770;43,01203
 337,65;13875,897;  162,433;32586,472;42,29412
 338,24;13668,556;  204,976;32609,051;41,54903
 338,83;13516,934;  200,976;32374,352;41,38813
 339,43;13287,041;  165,277;32404,926;40,70070
 340,02;13091,263;  179,430;32310,893;40,18439
 340,61;12951,929;  178,976;32399,554;39,64222
 341,21;12732,800;  206,277;32414,685;38,89209
 341,80;12573,826;  180,356;32314,864;38,56748
 342,40;12461,505;  173,058;32469,075;38,04942
 342,99;12332,417;  169,747;32633,271;37,46565
 343,58;12228,610;  175,363;32798,054;36,94744
 344,18;12131,391;  192,209;32955,244;36,44101
 344,77;12044,421;  168,969;33314,896;35,82779
 345,36;12025,824;  161,434;33686,117;35,39001
 345,96;12038,659;  196,516;34056,000;34,97438
 346,55;12044,412;  179,446;34413,133;34,65874
 347,14;11947,656;  157,519;34758,225;34,07484
 347,74;11980,191;  152,451;35301,062;33,65066
 348,33;12072,753;  178,912;36095,701;33,11499
 348,92;12192,163;  176,839;36779,699;32,82619
 349,52;12202,749;  153,145;37329,362;32,41213
 350,11;12215,640;  168,660;37571,706;32,20855
 350,70;12170,086;  172,514;37759,403;31,91957
 351,29;11979,353;  147,112;37369,117;31,78829
 351,89;11855,300;  194,426;37340,471;31,39197
 352,48;11698,705;  155,283;37439,253;30,96082
 353,07;11669,556;  184,136;37413,970;30,85004
 353,67;11537,968;  194,147;37241,401;30,61987
 354,26;11338,988;  178,212;36934,891;30,36394
 354,85;11243,087;  175,056;36891,581;30,14455
 355,45;11096,997;  153,894;36537,727;30,07683
 356,04;10961,874;  183,752;36509,930;29,67040
 356,63;10808,996;  202,358;36247,314;29,42614
 357,22;10728,702;  188,807;36150,798;29,30843
 357,82;10651,061;  181,040;35862,643;29,34291
 358,41;10525,455;  195,897;35670,414;29,11825
 359,00;10443,142;  157,816;35416,899;29,17071
 359,60;10404,070;  179,822;35389,155;29,03846
 360,19;10377,368;  200,060;35155,398;29,11518
 360,78;10335,309;  180,356;34966,295;29,19269
 361,37;10235,100;  184,972;34661,650;29,15051
 361,97;10217,007;  182,050;34589,889;29,16474
 362,56;10088,671;  172,660;34176,224;29,16168
 363,15;10118,012;  223,895;33867,536;29,40858
 363,74; 9961,134;  187,504;33534,714;29,30869
 364,34; 9855,019;  200,585;33058,417;29,38245
 364,93; 9747,304;  170,352;32472,319;29,64820
 365,52; 9633,090;  149,511;31996,178;29,77887
 366,11; 9596,859;  182,200;31660,103;29,90879
 366,71; 9486,806;  175,508;31199,307;30,01340
 367,30; 9442,544;  171,665;30815,094;30,25405
 367,89; 9434,734;  214,748;30544,715;30,39893
 368,48; 9413,330;  193,582;30179,808;30,74661
 369,07; 9271,779;  187,052;29522,711;30,96820
 369,67; 9258,926;  206,198;29218,710;31,20284
 370,26; 9216,590;  177,360;28888,112;31,48378
 370,85; 9192,219;  185,126;28556,666;31,74693
 371,44; 9221,245;  184,896;28357,435;32,07502
 372,03; 9219,582;  154,200;28132,391;32,40160
 372,63; 9214,947;  157,973;27646,214;32,94854
 373,22; 9183,278;  171,206;27237,698;33,29605
 373,81; 9114,502;  153,280;26869,231;33,54259
 374,40; 9198,984;  173,288;26611,169;34,13926
 374,99; 9169,889;  165,664;26272,286;34,49020
 375,59; 9171,742;  165,980;25907,594;34,98523
 376,18; 9249,340;  201,664;25786,737;35,36311
 376,77; 9256,616;  198,205;25584,959;35,68164
 377,36; 9389,684;  204,203;25603,593;36,16418
 377,95; 9393,310;  194,739;25167,785;36,83400
 378,55; 9401,062;  172,440;24949,659;37,24640
 379,14; 9539,352;  193,434;24881,312;37,85630
 379,73; 9571,583;  174,355;24717,955;38,28790
 380,32; 9757,185;  194,589;24783,324;38,89015
 380,91; 9792,139;  174,967;24615,513;39,34925
 381,50; 9916,616;  190,814;24568,194;39,89683
 382,10;10054,878;  168,589;24405,939;40,78948
 382,69;10120,970;  152,972;24328,931;41,23104
 383,28;10276,750;  203,276;24238,789;41,91079
 383,87;10326,931;  172,661;24083,843;42,46662
 384,46;10479,512;  175,425;24047,479;43,16381
 385,05;10605,514;  202,199;24006,759;43,70304
 385,64;10693,090;  195,123;24065,872;43,97837
 386,24;10871,316;  159,501;23942,693;45,03943
 386,83;11048,619;  203,193;24066,663;45,44782
 387,42;11230,670;  199,431;24173,658;46,01291
 388,01;11532,669;  184,111;24341,640;46,97731
 388,60;11818,132;  193,118;24709,739;47,41687
 389,19;12102,504;  175,259;24923,684;48,19396
 389,78;12393,233;  175,260;25264,489;48,69808
 390,37;12923,001;  238,806;25707,842;49,80242
 390,96;13143,683;  177,501;25862,265;50,48200
 391,56;13346,946;  179,103;26100,820;50,79850
 392,15;13662,228;  169,184;26383,893;51,47127
 392,74;13926,222;  156,633;26661,230;51,95170
 393,33;14320,354;  173,486;27021,151;52,69310
 393,92;14753,619;  184,859;27416,297;53,49978
 394,51;15036,874;  161,486;27625,647;54,16291
 395,10;15406,027;  204,385;27911,868;54,86475
 395,69;15678,540;  193,156;28069,635;55,55000
 396,28;15956,818;  203,303;28244,714;56,17947
 396,87;16167,095;  201,830;28278,280;56,86354
 397,46;16480,243;  202,977;28389,844;57,74770
 398,06;16746,879;  223,583;28684,409;58,05628
 398,65;16944,999;  186,330;28773,929;58,62216
 399,24;17337,494;  208,403;28930,889;59,63652
 399,83;17399,272;  189,754;28943,818;59,85073
 400,42;17694,131;  234,878;29129,852;60,42315
 401,01;18019,010;  199,152;29283,114;61,27039
 401,60;18228,692;  212,721;29237,521;62,07096
 402,19;18392,560;  226,300;29180,389;62,74160
 402,78;18587,212;  237,243;29238,004;63,27409
 403,37;18619,326;  229,421;29088,693;63,72269
 403,96;18676,526;  220,819;28866,323;64,42794
 404,55;18847,896;  224,826;28737,408;65,31527
 405,14;18879,372;  214,686;28590,262;65,77729
 405,73;18987,215;  223,688;28460,261;66,45115
 406,32;19166,648;  226,561;28439,831;67,13184
 406,91;19142,798;  222,888;28051,176;67,98805
 407,50;19163,762;  233,397;27885,955;68,45792
 408,09;19122,908;  199,914;27519,244;69,26595
 408,68;19293,072;  216,822;27407,573;70,15713
 409,27;19209,973;  203,611;27184,332;70,44423
 409,86;19268,653;  214,194;26963,467;71,23356
 410,45;19384,339;  245,386;26892,896;71,82267
 411,04;19511,487;  254,194;26825,042;72,47527
 411,63;19400,734;  239,245;26454,305;73,09344
 412,22;19313,978;  236,983;26181,055;73,53123
 412,81;19182,630;  248,845;25852,388;73,94986
 413,40;19014,208;  256,482;25492,080;74,33042
 413,99;18884,480;  300,244;25065,382;75,04192
 414,58;18626,908;  230,633;24623,115;75,41781
 415,17;18644,575;  237,999;24339,435;76,37128
 415,76;18590,843;  227,443;24224,896;76,52229
 416,35;18469,602;  228,683;23937,803;76,93630
 416,94;18622,995;  254,678;24051,686;77,18751
 417,53;19034,845;  227,770;24292,628;78,15162
 418,12;19156,350;  232,082;24383,438;78,35696
 418,71;19703,397;  256,790;24860,397;79,03966
 419,30;19927,999;  246,699;24968,470;79,61121
 419,89;20195,595;  223,010;25135,525;80,17089
 420,48;20600,905;  255,252;25478,878;80,66109
 421,07;20871,196;  247,640;25620,321;81,28253
 421,66;20933,735;  216,496;25646,264;81,46846
 422,25;20997,516;  228,590;25592,673;81,88321
 422,84;21148,031;  261,517;25527,800;82,66556
 423,43;20950,906;  236,509;25232,040;82,87240
 424,02;20872,966;  259,282;24872,944;83,74895
 424,60;20503,363;  237,766;24363,300;84,00062
 425,19;20300,507;  245,831;23974,682;84,51600
 425,78;20330,194;  255,679;23951,779;84,71654
 426,37;20305,165;  258,456;23789,385;85,19302
 426,96;20289,724;  245,302;23649,740;85,64368
 427,55;20192,809;  243,545;23412,611;86,10302
 428,14;20109,357;  224,243;23232,847;86,42469
 428,73;19954,244;  231,617;22975,895;86,71468
 429,32;20041,299;  262,608;22932,162;87,24782
 429,91;20185,279;  266,310;22943,828;87,83576
 430,50;20002,444;  261,778;22755,783;87,75968
 431,08;19892,176;  267,477;22570,407;87,99157
 431,67;19936,071;  310,329;22488,042;88,49308
 432,26;19781,284;  331,180;22151,918;89,13587
 432,85;19535,715;  348,563;21789,120;89,48999
 433,44;19279,827;  362,110;21347,251;90,14815
 434,03;18937,732;  365,506;20946,123;90,24135
 434,62;18531,887;  318,957;20417,157;90,61971
 435,21;18376,458;  340,333;20272,631;90,48693
 435,79;18315,741;  322,579;20002,340;91,42978
 436,38;18252,398;  326,897;19925,091;91,46506
 436,97;18200,305;  325,437;19817,408;91,70375
 437,56;18041,507;  314,992;19562,777;92,09639
 438,15;18045,698;  290,680;19476,971;92,54013
 438,74;18069,063;  313,605;19481,053;92,63340
 439,33;18177,994;  287,757;19497,165;93,13268
 439,91;18268,335;  245,303;19573,117;93,24920
 440,50;18436,623;  306,303;19638,558;93,78275
 441,09;18493,068;  288,544;19760,150;93,49267
 441,68;18617,887;  282,322;19706,655;94,39483
 442,27;18647,354;  270,011;19745,945;94,35924
 442,86;18645,470;  245,955;19721,175;94,47655
 443,44;18718,556;  261,104;19793,776;94,49527
 444,03;18911,100;  328,878;19820,061;95,33656
 444,62;18752,153;  264,647;19679,318;95,22441
 445,21;18558,143;  269,568;19445,079;95,37464
 445,80;18502,943;  289,118;19372,359;95,44409
 446,39;18238,867;  337,962;19011,849;95,86063
 446,97;18064,911;  250,821;18840,960;95,82548
 447,56;17854,503;  257,215;18524,084;96,33445
 448,15;17694,788;  260,282;18337,402;96,44516
 448,74;17428,269;  280,514;18026,394;96,62950
 449,33;17289,627;  259,983;17866,055;96,72597
 449,91;17080,714;  251,455;17570,442;97,17231
 450,50;16903,620;  259,991;17297,350;97,68902
 451,09;16774,251;  285,839;17226,339;97,33132
 451,68;16685,694;  300,997;17102,804;97,51747
 452,26;16596,025;  283,772;17030,593;97,40507
 452,85;16504,053;  268,230;16936,648;97,40470
 453,44;16476,658;  290,014;16939,936;97,21754
 454,03;16563,735;  256,390;16846,173;98,29752
 454,61;16471,963;  250,169;16820,266;97,89800
 455,20;16669,651;  277,174;17078,617;97,56589
 455,79;16725,606;  289,165;16986,449;98,43781
 456,38;16874,385;  296,567;17164,678;98,27904
 456,97;16947,707;  266,026;17172,028;98,67313
 457,55;16982,641;  273,725;17172,291;98,87772
 458,14;16905,400;  286,409;17167,825;98,44548
 458,73;16883,178;  283,264;17100,544;98,70748
 459,31;16954,475;  312,042;17137,143;98,91431
 459,90;17129,427;  316,422;17295,920;99,01945
 460,49;17155,169;  364,958;17361,483;98,78614
 461,08;17243,100;  279,970;17441,739;98,84255
 461,66;17276,922;  281,504;17518,719;98,59724
 462,25;17510,940;  282,128;17645,449;99,22533
 462,84;17538,636;  315,740;17659,377;99,30383
 463,43;17528,648;  252,676;17615,201;99,50150
 464,01;17559,199;  279,989;17602,723;99,74875
 464,60;17566,868;  335,211;17568,320;99,99157
 465,19;17209,590;  270,376;17198,651;100,06462
 465,77;17211,306;  283,765;17229,824;99,89072
 466,36;17133,057;  312,984;17093,712;100,23446
 466,95;16738,590;  293,062;16713,962;100,14998
 467,53;16397,005;  288,694;16421,750;99,84662
 468,12;16097,737;  316,849;16087,943;100,06210
 468,71;15751,406;  296,300;15790,389;99,74840
 469,29;15474,858;  272,850;15529,832;99,63968
 469,88;15169,058;  273,316;15166,261;100,01879
 470,47;15336,170;  345,017;15330,777;100,03599
 471,06;15226,132;  297,402;15300,251;99,50597
 471,64;15311,171;  298,169;15390,728;99,47287
 472,23;15388,698;  275,262;15451,756;99,58450
 472,81;15439,654;  270,331;15582,845;99,06487
 473,40;15599,279;  278,186;15703,080;99,32706
 473,99;15849,175;  372,724;15886,104;99,76195
 474,57;15919,394;  285,724;16111,606;98,78546
 475,16;16104,145;  299,487;16293,259;98,81758
 475,75;16264,098;  322,884;16323,869;99,62645
 476,33;16302,945;  314,275;16490,199;98,84239
 476,92;16386,316;  308,033;16548,808;98,99948
 477,51;16449,487;  310,580;16611,204;99,00791
 478,09;16476,892;  306,503;16621,328;99,11470
 478,68;16388,207;  305,352;16593,948;98,73690
 479,27;16457,881;  338,884;16548,293;99,44223
 479,85;16412,808;  318,275;16619,600;98,73144
 480,44;16504,490;  302,355;16731,357;98,61911
 481,02;17917,875;  312,515;18562,738;96,46655
 481,61;20287,455;  343,127;20852,679;97,24409
 482,20;21765,382;  334,207;22219,373;97,92558
 482,78;22723,370;  356,507;23124,545;98,23799
 483,37;23428,375;  342,908;23711,206;98,78968
 483,95;23661,405;  374,295;24099,851;98,15201
 484,54;23932,612;  382,434;24269,195;98,59092
 485,13;23763,030;  355,841;24152,213;98,36453
 485,71;23465,254;  326,223;23848,593;98,37032
 486,30;23132,429;  377,915;23463,717;98,56497
 486,88;22668,505;  413,532;23027,458;98,41269
 487,47;21882,580;  387,919;22239,507;98,36659
 488,05;20919,441;  380,461;21146,391;98,90711
 488,64;19473,799;  369,775;19587,667;99,40749
 489,23;17221,880;  381,232;17362,008;99,17479
 489,81;14735,851;  380,003;14888,772;98,94601
 490,40;13931,531;  335,928;14300,400;97,35852
 490,98;13634,402;  316,777;13995,218;97,36216
 491,57;13485,112;  340,156;13902,419;96,92303
 492,15;13371,320;  325,624;13829,391;96,60783
 492,74;13312,501;  326,308;13651,066;97,45913
 493,32;13173,059;  345,392;13579,669;96,92759
 493,91;13010,691;  317,089;13407,144;96,97134
 494,50;12947,013;  330,793;13387,330;96,62762
 495,08;12843,977;  317,947;13341,859;96,17718
 495,67;12804,616;  339,780;13260,352;96,47279
 496,25;12692,922;  278,326;13179,140;96,23110
 496,84;12595,220;  276,626;13171,008;95,53458
 497,42;12532,243;  279,866;13083,075;95,69770
 498,01;12478,589;  311,474;12980,017;96,04195
 498,59;12292,087;  275,714;12968,559;94,67044
 499,18;12251,748;  272,474;12887,124;94,96319
 499,76;12151,660;  299,941;12776,083;94,99506
 500,35;11944,111;  282,412;12581,990;94,81382
 500,93;11859,511;  284,943;12532,293;94,50672
 501,52;11760,041;  276,329;12419,462;94,56960
 502,10;11680,802;  288,801;12366,037;94,32623
 502,69;11552,794;  272,729;12183,358;94,70587
 503,27;11275,052;  249,025;11948,958;94,24009
 503,86;11194,200;  267,496;11872,356;94,15628
 504,44;11040,324;  255,346;11743,246;93,88120
 505,03;10785,195;  234,269;11415,450;94,36325
 505,61;10655,651;  269,037;11260,394;94,49801
 506,19;10449,590;  272,423;11047,691;94,44931
 506,78;10216,992;  240,509;10842,267;94,10216
 507,36;10031,187;  255,653;10682,725;93,75148
 507,95; 9796,836;  248,820;10513,057;93,02217
 508,53; 9616,306;  257,739;10371,812;92,53015
 509,12; 9448,180;  262,434;10229,633;92,15976
 509,70; 9275,022;  275,129;10006,678;92,48161
 510,29; 9113,265;  275,287; 9834,123;92,45872
 510,87; 8871,719;  250,508; 9618,789;92,02554
 511,46; 8691,823;  243,049; 9467,506;91,59101
 512,04; 8537,545;  245,669; 9264,610;91,93846
 512,62; 8372,151;  260,895; 9084,707;91,92463
 513,21; 8168,073;  236,057; 8856,213;92,01708
 513,79; 8018,660;  240,763; 8741,200;91,49996
 514,38; 7792,836;  234,527; 8571,585;90,65919
 514,96; 7696,807;  272,680; 8452,275;90,76400
 515,54; 7516,702;  231,914; 8307,988;90,20210
 516,13; 7425,036;  260,069; 8148,603;90,82761
 516,71; 7241,347;  242,536; 8028,371;89,89158
 517,30; 7116,318;  239,541; 7918,211;89,55687
 517,88; 7010,635;  264,310; 7867,913;88,72537
 518,46; 6864,338;  238,928; 7656,306;89,32280
 519,05; 6818,336;  246,470; 7638,173;88,90868
 519,63; 6687,826;  262,083; 7514,332;88,60346
 520,22; 6632,731;  262,784; 7445,821;88,68042
 520,80; 6499,043;  247,939; 7367,466;87,80225
 521,38; 6483,854;  286,317; 7353,614;87,69317
 521,97; 6397,118;  257,097; 7281,333;87,41195
 522,55; 6373,968;  259,558; 7301,951;86,82289
 523,13; 6337,860;  243,100; 7235,508;87,16253
 523,72; 6312,963;  239,927; 7222,778;86,97072
 524,30; 6424,147;  277,796; 7389,177;86,42978
 524,89; 6397,430;  238,405; 7373,054;86,32555
 525,47; 6452,691;  272,720; 7507,848;85,41619
 526,05; 6497,972;  212,414; 7542,206;85,75357
 526,64; 6602,856;  250,031; 7702,114;85,24899
 527,22; 6689,799;  264,105; 7826,905;84,96448
 527,80; 6823,485;  299,262; 7936,589;85,42548
 528,39; 6825,503;  236,726; 8079,245;84,01352
 528,97; 6991,190;  255,879; 8216,036;84,61279
 529,55; 7159,293;  264,792; 8398,070;84,76904
 530,14; 7312,572;  275,498; 8635,518;84,17532
 530,72; 7383,288;  244,110; 8740,621;84,02481
 531,30; 7475,961;  226,268; 8917,086;83,41784
 531,89; 7586,758;  253,576; 8952,678;84,29815
 532,47; 7654,754;  292,270; 9083,493;83,74812
 533,05; 7680,695;  280,646; 9093,388;83,96987
 533,63; 7663,801;  275,963; 9189,539;82,88298
 534,22; 7706,951;  262,887; 9244,228;82,88366
 534,80; 7709,000;  287,277; 9288,247;82,45470
 535,38; 7850,347;  364,423; 9440,343;82,48116
 535,97; 7703,439;  270,809; 9341,255;81,94338
 536,55; 7746,260;  311,509; 9435,865;81,48247
 537,13; 7657,359;  333,960; 9437,408;80,44644
 537,71; 7659,355;  379,190; 9454,224;80,22190
 538,30; 7728,740;  408,196; 9552,939;80,05194
 538,88; 7714,860;  442,052; 9663,564;78,86784
 539,46; 7862,311;  505,815; 9877,097;78,50043
 540,05; 7894,682;  521,434;10009,619;77,70978
 540,63; 8025,854;  584,127;10211,816;77,29505
 541,21; 8141,117;  616,131;10360,128;77,22689
 541,79; 8187,145;  666,284;10492,643;76,53761
 542,38; 8294,678;  694,510;10649,590;76,34462
 542,96; 8377,966;  715,597;10826,563;75,78275
 543,54; 8510,983;  723,514;11076,303;75,22098
 544,12; 8593,321;  690,747;11230,716;74,97720
 544,70; 8651,798;  678,597;11332,472;74,83851
 545,29; 8767,493;  691,895;11467,071;74,94632
 545,87; 8793,068;  657,515;11489,259;75,10843
 546,45; 8791,457;  609,972;11481,138;75,25858
 547,03; 8755,863;  562,667;11594,568;74,26822
 547,62; 8902,076;  537,593;11769,522;74,47058
 548,20; 8991,601;  539,442;12006,276;73,70961
 548,78; 9039,360;  483,377;12138,565;73,40922
 549,36; 9116,520;  441,684;12306,161;73,11604
 549,94; 9272,393;  400,210;12432,658;73,73547
 550,53; 9383,675;  414,451;12694,266;73,04038
 551,11; 9486,017;  380,149;12908,400;72,68268
 551,69; 9743,862;  393,683;13245,145;72,75576
 552,27; 9870,899;  344,679;13473,800;72,55794
 552,85;10121,996;  355,302;13872,891;72,25174
 553,44;10283,585;  351,529;14212,740;71,65360
 554,02;10546,815;  353,916;14576,943;71,66477
 554,60;10733,843;  295,842;14918,302;71,38334
 555,18;10985,932;  330,914;15274,523;71,30151
 555,76;11220,532;  312,301;15730,070;70,75103
 556,34;11465,544;  318,539;16110,744;70,58549
 556,93;11732,485;  304,453;16524,255;70,45729
 557,51;11866,230;  287,693;16869,583;69,82640
 558,09;12130,104;  304,761;17256,566;69,75861
 558,67;12303,542;  307,158;17648,534;69,17781
 559,25;12539,267;  323,310;18007,696;69,07764
 559,83;12726,283;  302,546;18345,401;68,85683
 560,41;12802,892;  289,229;18728,400;67,86456
 561,00;13066,053;  307,235;19116,480;67,83269
 561,58;13107,801;  290,921;19327,438;67,32786
 562,16;13339,706;  272,303;19675,550;67,34647
 562,74;13558,966;  278,839;20110,555;66,96408
 563,32;13778,955;  265,930;20529,970;66,68475
 563,90;13953,874;  287,004;20949,892;66,14211
 564,48;14189,855;  296,613;21437,903;65,71615
 565,06;14500,894;  306,927;22127,297;65,04916
 565,65;14863,825;  292,628;22876,478;64,52043
 566,23;15355,742;  340,697;23727,092;64,20419
 566,81;15734,630;  287,617;24510,726;63,76974
 567,39;16324,554;  300,932;25535,594;63,49846
 567,97;16639,551;  314,234;26144,826;63,20148
 568,55;17155,528;  336,622;27166,415;62,68742
 569,13;17547,120;  283,697;27917,393;62,47236
 569,71;18102,377;  294,687;29013,811;62,00638
 570,29;18683,901;  334,992;30096,389;61,65339
 570,87;19145,869;  325,225;30941,688;61,47230
 571,45;19407,884;  325,235;31609,363;60,99786
 572,03;19645,521;  293,548;32143,868;60,75912
 572,61;19950,559;  281,699;32967,164;60,17617
 573,20;20277,580;  314,924;33617,830;59,94268
 573,78;20603,210;  289,699;34373,559;59,59862
 574,36;20880,456;  325,698;34919,934;59,41671
 574,94;21004,257;  382,550;35314,064;59,03468
 575,52;20918,157;  316,019;35552,524;58,46817
 576,10;21205,622;  373,554;36194,068;58,15681
 576,68;21442,140;  361,548;36853,640;57,76756
 577,26;21744,868;  385,714;37576,642;57,43109
 577,84;21878,544;  381,083;38161,201;56,90152
 578,42;22072,997;  431,244;38459,829;56,90917
 579,00;21889,619;  385,238;38593,378;56,28220
 579,58;22000,764;  424,627;38834,084;56,17402
 580,16;21767,198;  396,553;38808,644;55,63520
 580,74;21867,310;  389,476;39054,038;55,54915
 581,32;21846,842;  382,781;39009,879;55,56737
 581,90;21642,536;  424,399;38879,547;55,17633
 582,48;21591,453;  422,091;39172,617;54,62987
 583,06;21555,397;  416,473;39180,820;54,53187
 583,64;21454,054;  412,703;39283,271;54,13183
 584,22;21179,247;  430,328;39106,817;53,64737
 584,80;20941,221;  420,167;38681,591;53,63380
 585,38;20509,785;  448,538;38295,908;53,00566
 585,96;20445,589;  404,085;38219,578;52,99813
 586,54;20311,462;  443,942;38282,212;52,50642
 587,12;20288,714;  402,862;38389,415;52,34971
 587,70;20221,625;  422,778;38481,587;52,02172
 588,28;20137,231;  406,401;38511,753;51,77968
 588,86;20046,292;  413,479;38590,685;51,42549
 589,44;19875,312;  386,333;38608,623;50,98852
 590,02;19937,495;  397,946;38838,781;50,83019
 590,59;19880,724;  371,172;38986,654;50,52262
 591,17;19797,948;  375,033;39198,637;50,02862
 591,75;19664,718;  368,105;39290,821;49,57674
 592,33;19674,418;  373,642;39535,318;49,28486
 592,91;19632,411;  331,262;39761,511;48,95011
 593,49;19669,003;  333,420;40143,947;48,56902
 594,07;19689,111;  355,497;40314,081;48,38413
 594,65;19503,571;  365,789;40319,988;47,89930
 595,23;19532,631;  366,100;40693,046;47,52785
 595,81;19463,144;  349,025;40809,044;47,24199
 596,39;19362,592;  342,564;40992,723;46,78955
 596,97;19377,977;  338,801;41258,565;46,52807
 597,55;19176,622;  340,714;41009,756;46,31510
 598,12;19019,515;  317,960;41111,099;45,84485
 598,70;18883,605;  302,033;41148,397;45,49137
 599,28;18866,524;  340,187;41411,393;45,10785
 599,86;18754,590;  309,955;41385,203;44,90450
 600,44;18687,739;  293,727;41535,941;44,59996
 601,02;18592,314;  339,198;41604,867;44,23318
 601,60;18409,302;  325,798;41550,610;43,86558
 602,18;18283,760;  299,806;41552,575;43,59454
 602,75;18158,724;  298,563;41554,189;43,29146
 603,33;17967,419;  306,264;41695,494;42,67090
 603,91;17895,918;  298,656;41529,371;42,67998
 604,49;17765,948;  323,495;41744,637;42,11002
 605,07;17644,312;  343,490;41730,390;41,80265
 605,65;17546,331;  344,189;41855,071;41,44008
 606,23;17448,646;  419,095;41953,782;41,00079
 606,80;17338,367;  477,178;41965,396;40,64091
 607,38;17234,514;  518,193;41963,994;40,33297
 607,96;17103,168;  578,332;42048,453;39,84757
 608,54;16961,898;  655,958;42069,663;39,37329
 609,12;16891,594;  639,640;42163,546;39,13879
 609,70;16782,086;  687,263;42148,033;38,81940
 610,27;16666,803;  696,254;42161,704;38,51532
 610,85;16563,610;  728,109;42298,070;38,09362
 611,43;16434,888;  731,187;42209,423;37,86010
 612,01;16166,283;  677,104;42004,002;37,47966
 612,59;16030,292;  686,724;42054,983;37,09020
 613,16;15849,988;  639,020;42004,917;36,77176
 613,74;15633,493;  607,879;41892,490;36,39519
 614,32;15574,171;  551,343;41874,679;36,35434
 614,90;15456,199;  507,722;41710,583;36,28019
 615,48;15162,339;  443,637;41340,037;35,99022
 616,05;14959,602;  417,327;41362,814;35,51619
 616,63;14839,019;  428,940;41107,745;35,42405
 617,21;14670,163;  418,562;41058,193;35,06824
 617,79;14494,844;  395,333;40977,077;34,74348
 618,36;14347,571;  409,490;40879,443;34,44057
 618,94;13998,295;  349,561;40506,197;33,98874
 619,52;13837,765;  374,864;40246,952;33,76523
 620,10;13688,333;  360,102;40224,335;33,43406
 620,67;13539,093;  363,940;40124,050;33,13661
 621,25;13349,201;  390,106;39896,483;32,80254
 621,83;13197,627;  351,253;39866,016;32,51031
 622,41;13124,382;  400,868;39882,361;32,22653
 622,98;12933,820;  365,325;39627,033;32,01209
 623,56;12716,486;  367,939;39583,188;31,48915
 624,14;12628,606;  348,031;39486,502;31,37725
 624,72;12467,759;  339,561;39336,969;31,10001
 625,29;12313,483;  332,862;39395,800;30,67005
 625,87;12232,278;  374,564;39315,101;30,45082
 626,45;11999,366;  327,015;39105,145;30,10035
 627,02;11894,597;  337,642;38977,060;29,90975
 627,60;11777,386;  323,419;39002,921;29,61250
 628,18;11591,671;  304,024;39022,700;29,15298
 628,76;11581,240;  309,941;39026,274;29,11252
 629,33;11457,523;  335,328;39137,683;28,66371
 629,91;11376,794;  317,794;39047,566;28,55426
 630,49;11317,710;  358,096;39197,640;28,21767
 631,06;11265,069;  336,941;39275,641;28,06495
 631,64;11115,171;  322,477;39242,001;27,73080
 632,22;11015,097;  291,628;39338,237;27,46325
 632,79;10961,863;  318,859;39573,157;27,11297
 633,37;10867,200;  295,259;39474,226;26,98372
 633,95;10805,425;  300,707;39608,333;26,72438
 634,52;10728,021;  280,637;39778,026;26,45082
 635,10;10611,737;  288,409;39761,510;26,15282
 635,68;10545,506;  294,858;39941,518;25,85501
 636,25;10468,728;  281,392;39949,384;25,68150
 636,83;10426,086;  280,941;40174,351;25,43063
 637,41;10309,309;  277,088;40236,322;25,10614
 637,98;10298,861;  302,549;40428,874;24,91210
 638,56;10187,461;  289,237;40563,656;24,57695
 639,13;10094,137;  288,324;40587,813;24,33235
 639,71;10091,346;  323,326;40792,815;24,13675
 640,29; 9833,440;  250,634;40492,388;23,81309
 640,86; 9821,890;  261,557;40670,603;23,65889
 641,44; 9692,725;  275,173;40661,895;23,31844
 642,02; 9643,176;  304,942;40628,879;23,15804
 642,59; 9584,857;  258,019;40850,632;22,97669
 643,17; 9456,000;  266,404;40893,616;22,61931
 643,74; 9408,681;  263,866;40884,446;22,51276
 644,32; 9381,362;  298,789;40771,276;22,44135
 644,89; 9211,966;  293,174;40824,414;22,00473
 645,47; 9130,570;  308,790;40873,860;21,74723
 646,05; 8998,867;  290,252;40709,459;21,54573
 646,62; 8944,856;  281,329;40667,597;21,45167
 647,20; 8864,845;  297,406;40834,043;21,13505
 647,77; 8760,987;  268,022;40700,488;21,00531
 648,35; 8710,592;  262,406;40662,934;20,91108
 648,92; 8589,273;  281,022;40673,072;20,56902
 649,50; 8495,492;  250,330;40562,748;20,45316
 650,08; 8386,097;  252,176;40433,501;20,24304
 650,65; 8392,855;  271,715;40672,485;20,10145
 651,23; 8444,228;  241,792;41625,239;19,82057
 651,80; 8566,986;  249,485;42686,530;19,59962
 652,38; 8546,821;  268,562;43115,284;19,32064
 652,95; 8600,887;  228,255;43540,806;19,33073
 653,53; 8579,876;  268,870;43811,713;19,08696
 654,10; 8567,172;  292,409;44030,774;18,91878
 654,68; 8479,546;  254,717;43932,066;18,83088
 655,25; 8352,304;  237,948;43918,511;18,57658
 655,83; 8270,447;  249,333;44067,880;18,30529
 656,40; 8263,589;  276,256;44095,710;18,22782
 656,98; 8154,886;  250,718;43958,925;18,08395
 657,55; 8031,875;  267,487;43774,294;17,84637
 658,13; 7889,017;  248,411;43248,124;17,76897
 658,70; 7813,852;  270,488;42924,415;17,68504
 659,28; 7555,072;  271,642;41800,015;17,53844
 659,85; 7334,292;  277,950;41111,307;17,28083
 660,43; 7258,434;  284,642;41146,444;17,06678
 661,00; 7235,885;  263,489;41329,352;16,97857
 661,58; 7215,335;  255,566;41576,259;16,84330
 662,15; 7171,555;  242,412;41733,166;16,70045
 662,73; 7232,851;  330,643;42125,765;16,51439
 663,30; 7151,533;  268,336;42366,595;16,35031
 663,88; 7150,521;  270,028;42426,887;16,32117
 664,45; 7078,510;  254,644;42750,025;16,05790
 665,03; 7090,961;  262,952;43118,394;15,93265
 665,60; 7191,950;  335,645;43618,839;15,84057
 666,17; 7041,554;  255,337;43668,285;15,63178
 666,75; 7072,696;  252,107;44082,730;15,56124
 667,32; 7096,839;  278,722;44412,945;15,44859
 667,90; 7084,905;  270,415;44652,775;15,35405
 668,47; 7075,586;  285,338;45028,605;15,17602
 669,05; 7065,267;  254,877;45230,974;15,14224
 669,62; 6992,564;  240,415;45445,266;14,93678
 670,19; 6969,399;  250,262;45426,788;14,87307
 670,77; 6962,311;  258,570;45669,388;14,76243
 671,34; 6907,684;  239,416;45574,449;14,70886
 671,92; 6893,288;  237,186;45965,125;14,55588
 672,49; 6871,662;  268,878;45987,032;14,44237
 673,06; 6778,958;  221,494;46023,093;14,31711
 673,64; 6778,101;  237,340;46026,385;14,28455
 674,21; 6729,398;  227,417;45941,215;14,22323
 674,79; 6735,464;  265,725;46187,584;14,08858
 675,36; 6703,452;  264,649;46322,644;13,97977
 675,93; 6626,210;  233,034;46178,859;13,91460
 676,51; 6627,276;  254,649;46308,997;13,83719
 677,08; 6603,342;  259,496;46503,827;13,71811
 677,65; 6564,331;  256,265;46552,888;13,62533
 678,23; 6578,166;  257,419;46751,334;13,59478
 678,80; 6532,078;  248,650;46858,087;13,48102
 679,38; 6513,374;  247,266;47109,840;13,37124
 679,95; 6499,132;  252,881;47317,747;13,27158
 680,52; 6523,891;  248,112;47656,885;13,23759
 681,10; 6562,033;  275,036;48104,254;13,14468
 681,67; 6520,022;  256,574;48320,699;13,03144
 682,24; 6500,011;  225,190;48404,530;13,02388
 682,82; 6564,923;  235,806;48952,668;12,99164
 683,39; 6604,450;  295,191;49430,421;12,84060
 683,96; 6573,439;  249,114;49508,405;12,83885
 684,54; 6611,736;  222,268;49864,004;12,87116
 685,11; 6654,417;  271,653;50262,527;12,76786
 685,68; 6619,098;  244,499;50754,895;12,62037
 686,25; 6572,318;  233,346;50844,418;12,52487
 686,83; 6595,537;  244,654;51055,017;12,49919
 687,40; 6611,218;  224,500;51346,694;12,49304
 687,97; 6718,207;  275,731;51750,139;12,51588
 688,55; 6630,273;  224,347;51804,892;12,41927
 689,12; 6605,569;  199,347;52041,107;12,35726
 689,69; 6653,481;  225,578;52085,783;12,39467
 690,26; 6596,778;  238,424;52170,768;12,24353
 690,84; 6655,536;  233,348;52441,982;12,30101
 691,41; 6619,986;  252,809;52486,197;12,18986
 691,98; 6655,206;  245,425;52829,643;12,18955
 692,56; 6663,272;  229,271;52997,857;12,19286
 693,13; 6666,876;  287,579;52920,534;12,12035
 693,70; 6673,096;  262,349;53043,979;12,14579
 694,27; 6617,315;  241,503;53282,963;12,02043
 694,84; 6631,766;  231,657;53357,640;12,04704
 695,42; 6661,601;  283,965;53472,855;11,99054
 695,99; 6650,974;  250,734;53747,223;11,96385
 696,56; 6627,963;  241,889;53559,361;11,97745
 697,13; 6691,952;  261,966;53951,114;11,97632
 697,71; 6678,633;  229,043;53976,483;11,99981
 698,28; 6689,545;  243,197;54357,159;11,91254
 698,85; 6679,842;  208,890;54387,066;11,94384
 699,42; 6710,369;  218,505;54574,973;11,94313
 699,99; 6769,665;  255,659;54751,188;11,95329
 700,57; 6749,731;  251,429;54712,941;11,93192
 701,14; 6751,028;  237,660;54894,310;11,91688
 701,71; 6824,632;  261,583;55089,140;11,97035
 702,28; 6794,159;  249,660;55203,124;11,90917
 702,85; 6802,456;  258,968;55134,724;11,92419
 703,43; 6838,522;  269,199;55389,092;11,91824
 704,00; 6893,510;  276,892;55671,230;11,94458
 704,57; 6909,884;  259,892;55673,368;12,00068
 705,14; 6958,411;  286,354;55892,198;11,99884
 705,71; 6944,323;  296,585;55932,028;11,94875
 706,28; 6949,620;  260,123;55763,397;12,05244
 706,86; 7035,762;  297,585;56023,227;12,09170
 707,43; 7074,136;  316,355;55914,288;12,15473
 708,00; 7032,971;  290,509;56106,503;12,07980
 708,57; 7047,037;  255,048;55978,949;12,18865
 709,14; 7072,795;  285,586;56030,394;12,17550
 709,71; 7095,707;  270,279;56060,917;12,23400
 710,28; 7132,849;  264,894;56358,516;12,24374
 710,86; 7141,531;  265,895;56390,423;12,25068
 711,43; 7254,443;  296,126;56437,638;12,39425
 712,00; 7204,893;  276,818;56659,237;12,28765
 712,57; 7287,728;  282,126;56759,375;12,40429
 713,14; 7316,563;  262,973;56867,513;12,46117
 713,71; 7331,321;  272,050;56818,343;12,48406
 714,28; 7355,464;  257,588;56919,404;12,52673
 714,85; 7321,683;  242,050;56565,004;12,56971
 715,42; 7380,057;  242,358;56728,757;12,63614
 716,00; 7518,969;  316,820;56924,125;12,72300
 716,57; 7493,342;  246,282;56951,802;12,78017
 717,14; 7538,793;  229,974;56936,170;12,88892
 717,71; 7559,705;  230,821;56957,693;12,91960
 718,28; 7625,540;  278,898;57090,138;12,93167
 718,85; 7616,759;  222,821;57116,123;12,99615
 719,42; 7735,133;  257,360;57282,953;13,11301
 719,99; 7713,737;  231,745;57033,706;13,17207
 720,56; 7812,957;  256,360;57311,613;13,24435
 721,13; 7821,792;  232,668;57520,982;13,24724
 721,70; 7830,550;  239,822;57310,581;13,30055
 722,27; 7889,538;  258,976;57399,027;13,35414
 722,84; 8050,604;  299,823;57566,780;13,53447
 723,41; 7983,978;  226,131;57493,072;13,54682
 723,98; 8076,736;  239,823;57758,517;13,62498
 724,55; 8244,340;  264,824;57882,194;13,84915
 725,12; 8167,713;  205,285;57881,947;13,80529
 725,69; 8273,625;  228,670;57941,777;13,93956
 726,27; 8364,691;  246,132;57932,069;14,07372
 726,84; 8464,142;  246,978;58437,283;14,12119
 727,41; 8539,361;  251,671;58343,037;14,26665
 727,98; 8619,581;  259,364;58616,559;14,32594
 728,55; 8750,339;  276,748;58480,851;14,55841
 729,12; 8746,482;  228,364;58644,450;14,58180
 729,69; 8847,086;  273,287;58787,204;14,65258
 730,26; 8897,998;  273,365;58986,572;14,68943
 730,82; 8893,602;  253,365;58801,325;14,75754
 731,39; 9045,514;  237,750;59025,694;14,98226
 731,96; 9146,349;  226,058;59327,140;15,09328
 732,53; 9252,646;  248,673;59445,739;15,21017
 733,10; 9322,327;  270,904;59478,262;15,28767
 733,67; 9464,931;  256,674;59837,399;15,45509
 734,24; 9399,227;  234,982;59425,922;15,48251
 734,81; 9566,986;  279,213;59498,291;15,68375
 735,38; 9561,974;  257,136;59310,813;15,75658
 735,95; 9602,271;  247,213;59091,028;15,89812
 736,52; 9746,952;  265,598;59294,627;16,06219
 737,09; 9764,095;  259,906;58937,919;16,19719
 737,66; 9911,622;  308,368;59125,672;16,32726
 738,23; 9973,380;  241,753;59219,425;16,50053
 738,80;10139,600;  325,753;59585,717;16,56067
 739,37;10183,819;  288,599;59725,470;16,64829
 739,94;10237,270;  264,676;59793,685;16,75249
 740,51;10482,720;  378,138;59844,131;16,99220
 741,07;10452,171;  253,908;59775,346;17,13376
 741,64;10537,698;  295,908;59983,022;17,15913
 742,21;10644,687;  261,600;60014,391;17,37674
 742,78;10638,368;  235,678;59743,298;17,48127
 743,35;10778,588;  248,986;60057,512;17,60552
 743,92;10952,192;  295,524;60245,266;17,77600
 744,49;11015,027;  282,063;60010,250;17,96968
 745,06;11057,862;  247,909;60085,464;18,06550
 745,63;11096,543;  238,217;60007,141;18,16718
 746,19;11269,070;  251,833;59962,356;18,45108
 746,76;11270,752;  256,602;60007,032;18,43359
 747,33;11388,817;  250,141;60026,247;18,63399
 747,90;11531,498;  280,911;60227,462;18,76770
 748,47;11586,257;  259,449;60168,984;18,90652
 749,04;11675,322;  265,296;60147,583;19,05409
 749,61;11775,003;  294,911;60038,337;19,21566
 750,17;11883,300;  285,758;60183,090;19,36237
 750,74;11939,289;  270,912;60067,997;19,51329
 751,31;11952,662;  243,835;60065,443;19,57291
 751,88;11972,882;  241,143;59910,196;19,66135
 752,45;12148,871;  258,143;60081,718;19,87632
 753,02;12232,244;  278,836;59896,625;20,05007
 753,58;12324,695;  233,913;59817,763;20,29204
 754,15;12418,145;  247,990;59950,286;20,38474
 754,72;12422,903;  240,375;59794,270;20,45631
 755,29;12514,354;  234,221;59679,792;20,65777
 755,86;12604,265;  253,222;59764,930;20,75397
 756,42;12779,024;  255,145;59646,837;21,08692
 756,99;12810,320;  217,299;59707,821;21,16811
 757,56;12879,847;  228,145;59525,421;21,33606
 758,13;12897,221;  191,300;59519,174;21,41644
 758,70;13138,748;  218,992;59516,312;21,78809
 759,26;13216,814;  204,069;59594,065;21,91067
 759,83;13334,341;  218,685;59743,126;22,03407
 760,40;13406,330;  204,608;59452,187;22,28230
 760,97;13516,011;  192,224;59546,094;22,44805
 761,53;13512,539;  191,609;59311,001;22,53225
 762,10;13582,297;  187,378;59170,831;22,70962
 762,67;13699,670;  214,148;59106,969;22,89841
 763,24;13692,121;  182,225;58661,107;23,10218
 763,80;13875,033;  201,687;58829,168;23,32242
 764,37;13981,252;  211,225;58747,614;23,52388
 764,94;13950,164;  187,379;58355,444;23,66038
 765,50;14027,691;  197,303;58250,889;23,82349
 766,07;14235,911;  233,226;58263,720;24,12987
 766,64;14270,900;  209,996;57982,396;24,33845
 767,21;14260,427;  222,150;57950,688;24,31774
 767,77;14329,570;  223,535;57757,210;24,51788
 768,34;14440,790;  243,996;57835,963;24,65065
 768,91;14627,855;  241,689;57543,101;25,10613
 769,47;14732,613;  240,920;57486,085;25,31514
 770,04;14811,602;  254,151;57440,992;25,45595
 770,61;14822,514;  231,382;57224,361;25,60163
 771,18;14875,965;  222,151;57047,268;25,78756
 771,74;14994,646;  237,459;57235,406;25,89073
 772,31;15082,019;  244,767;56999,467;26,14277
 772,88;15092,470;  209,152;56754,451;26,32105
 773,44;15113,305;  218,614;56536,589;26,44749
 774,01;15302,755;  239,537;56613,342;26,72024
 774,58;15298,667;  222,153;56296,711;26,88655
 775,14;15450,040;  210,999;56412,464;27,11502
 775,71;15509,952;  218,461;56348,294;27,24307
 776,27;15635,403;  280,615;56213,278;27,45227
 776,84;15800,545;  314,154;56304,493;27,65904
 777,41;15788,380;  242,077;55950,785;27,90642
 777,97;15812,523;  227,770;55718,922;28,08511
 778,54;15970,204;  244,924;55748,830;28,33184
 779,11;16117,039;  259,386;55763,506;28,57023
 779,67;16114,259;  220,540;55671,721;28,66254
 780,24;16211,325;  237,540;55375,551;28,97055
 780,80;16329,544;  255,694;55373,919;29,16250
 781,37;16437,072;  250,002;55541,980;29,27562
 781,94;16424,676;  240,156;55196,888;29,44957
 782,50;16596,588;  249,695;55052,718;29,82845
 783,07;16682,577;  262,003;55063,856;29,96354
 783,63;16817,104;  225,849;54920,070;30,33457
 784,20;16911,708;  263,003;54836,977;30,50668
 784,77;16954,005;  235,850;54660,731;30,71785
 785,33;17006,994;  219,773;54378,176;30,99652
 785,90;17140,829;  240,542;54360,622;31,22739
 786,46;17255,818;  260,466;54292,837;31,45402
 787,03;17255,729;  221,004;54110,744;31,61033
 787,59;17393,180;  240,235;53997,420;31,90819
 788,16;17521,630;  251,697;54021,404;32,11833
 788,73;17648,081;  247,697;53785,311;32,50123
 789,29;17666,146;  240,544;53423,988;32,76509
 789,86;17805,289;  258,544;53351,202;33,04929
 790,42;17779,970;  242,237;53140,956;33,15342
 790,99;17783,728;  254,929;52815,940;33,34943
 791,55;17951,486;  229,160;52792,924;33,71586
 792,12;17991,168;  262,160;52820,523;33,73204
 792,68;17967,310;  239,699;52524,738;33,90571
 793,25;18069,453;  254,469;52215,799;34,28508
 793,81;18130,826;  316,546;51916,398;34,52390
 794,38;18027,815;  210,469;51653,459;34,63513
 794,94;18134,112;  212,315;51481,059;34,95657
 795,51;18136,101;  247,854;51209,504;35,10139
 796,07;18123,474;  236,316;51034,488;35,21221
 796,64;18329,540;  265,162;51104,780;35,53209
 797,20;18178,606;  251,240;50573,379;35,62521
 797,77;18188,287;  217,317;50237,363;35,92754
 798,33;18267,353;  241,240;50048,270;36,19190
 798,90;18366,803;  271,240;49972,254;36,40884
 799,46;18292,638;  233,856;49438,238;36,70157
 800,03;18351,781;  238,318;49475,684;36,78804
 800,59;18358,616;  255,087;49325,899;36,89266
 801,15;18357,758;  262,241;48916,344;37,19217
 801,72;18391,594;  259,857;48572,636;37,52990
 802,28;18392,736;  271,011;48293,851;37,73564
 802,85;18396,494;  240,088;48018,143;38,00156
 803,41;18391,714;  234,242;47993,665;38,01862
 803,98;18389,241;  236,319;47385,880;38,50072
 804,54;18458,230;  234,089;47260,172;38,75326
 805,11;18412,757;  235,243;47031,079;38,84430
 805,67;18420,669;  264,243;47025,755;38,82771
 806,23;18392,350;  254,551;46493,662;39,22610
 806,80;18460,262;  264,474;46325,261;39,50386
 807,36;18547,021;  269,090;46274,245;39,73018
 807,93;18551,317;  264,552;46054,999;39,93576
 808,49;18451,075;  227,244;45652,137;40,11860
 809,05;18424,064;  226,399;45456,659;40,23339
 809,62;18559,130;  258,476;45281,566;40,64726
 810,18;18608,811;  243,476;45264,243;40,79303
 810,74;18530,107;  214,245;44941,150;40,95044
 811,31;18620,481;  224,323;44772,518;41,29496
 811,87;18609,239;  241,938;44580,810;41,42483
 812,44;18746,843;  268,631;44608,871;41,67369
 813,00;18712,063;  180,939;44238,470;42,06119
 813,56;18853,821;  245,477;44277,993;42,26046
 814,13;18873,579;  238,632;44153,900;42,43387
 814,69;18927,568;  240,401;43940,730;42,76207
 815,25;18773,711;  207,401;43580,714;42,80584
 815,82;18966,930;  252,401;43491,775;43,28122
 816,38;18950,842;  288,094;43235,682;43,45471
 816,94;18916,062;  228,940;42973,512;43,71812
 817,51;18943,358;  208,556;42691,958;44,09911
 818,07;18817,270;  203,172;42410,711;44,10136
 818,63;18917,644;  242,787;42231,541;44,47585
 819,20;18974,556;  235,711;42167,756;44,68860
 819,76;18957,237;  224,557;41715,125;45,14925
 820,32;18956,149;  253,557;41683,032;45,14320
 820,89;18962,753;  248,634;41346,401;45,53561
 821,45;18921,896;  227,635;41066,692;45,77545
 822,01;18853,731;  243,481;40818,830;45,86590
 822,57;18883,489;  250,712;40752,814;46,00447
 823,14;18892,093;  204,020;40358,567;46,54037
 823,70;18994,620;  218,790;40197,013;46,96515
 824,26;18939,378;  217,559;40033,074;47,02142
 824,82;19020,598;  250,098;39788,058;47,47463
 825,39;18904,972;  225,098;39508,580;47,55147
 825,95;18990,422;  247,406;39592,411;47,63760
 826,51;18933,949;  247,098;39127,164;48,06281
 827,08;19201,015;  285,176;39188,840;48,62226
 827,64;19134,619;  255,637;39035,286;48,68271
 828,20;19014,685;  220,715;38672,270;48,87701
 828,76;19102,443;  251,099;38728,408;48,99341
 829,32;19121,817;  259,253;38534,853;49,28091
 829,89;19185,421;  212,023;38430,529;49,64453
 830,45;19262,179;  239,408;38338,590;49,92960
 831,01;19297,475;  234,639;38215,421;50,19074
 831,57;19292,464;  229,331;37967,635;50,51402
 832,14;19354,761;  224,178;37938,696;50,72472
 832,70;19390,673;  222,024;37751,296;51,07653
 833,26;19364,046;  194,794;37680,434;51,13759
 833,82;19462,651;  234,025;37455,802;51,65961
 834,38;19561,101;  216,563;37564,786;51,79507
 834,95;19533,936;  222,871;37492,463;51,81453
 835,51;19610,617;  189,025;37183,600;52,49849
 836,07;19694,375;  226,410;37249,431;52,58341
 836,63;19861,979;  250,411;37352,261;52,85874
 837,19;19906,430;  240,257;37063,322;53,40721
 837,75;19844,265;  207,565;36846,460;53,59523
 838,32;19939,715;  251,565;36923,751;53,68687
 838,88;20107,089;  245,027;36891,043;54,19978
 839,44;20088,693;  249,027;36809,258;54,26570
 840,00;20201,913;  230,720;36704,011;54,75566
 840,56;20135,517;  220,874;36469,611;54,93886
 841,12;20234,813;  219,489;36309,287;55,45978
 841,68;20212,418;  197,182;36230,194;55,54694
 842,25;20325,791;  218,875;36164,255;55,93741
 842,81;20266,780;  204,952;35981,393;56,07553
 843,37;20323,769;  214,183;35979,454;56,22657
 843,93;20404,835;  217,798;35781,669;56,76277
 844,49;20499,900;  234,029;35855,729;56,89193
 845,05;20484,658;  182,645;35711,329;57,14260
 845,61;20585,032;  231,799;35821,621;57,18835
 846,17;20680,867;  216,184;35575,143;57,87694
 846,73;20716,163;  225,492;35471,973;58,13537
 847,29;20682,075;  211,492;35325,880;58,29685
 847,86;20765,680;  209,185;35293,941;58,59096
 848,42;20713,592;  202,493;35106,310;58,76463
 848,98;20819,734;  229,724;35013,140;59,19491
 849,54;20925,031;  220,801;35013,663;59,50712
 850,10;20976,481;  229,955;34945,108;59,76216
 850,66;20891,239;  200,417;34694,015;59,98453
 851,22;20957,536;  202,648;34618,692;60,30585
 851,78;21066,371;  255,494;34686,676;60,44195
 852,34;20982,898;  224,725;34413,198;60,71688
 852,90;21004,656;  213,418;34318,567;60,96217
 853,46;20969,876;  198,956;34122,935;61,22784
 854,02;21150,557;  228,495;34106,766;61,75658
 854,58;21160,777;  221,111;33866,134;62,23704
 855,14;21169,535;  203,957;33739,580;62,51734
 855,70;21032,754;  183,188;33581,641;62,42674
 856,26;21123,666;  224,650;33626,086;62,56921
 856,82;21132,501;  209,112;33341,916;63,15007
 857,38;21281,029;  250,497;33316,516;63,60164
 857,94;21200,633;  221,881;33181,808;63,64927
 858,50;21281,852;  225,266;32960,484;64,32395
 859,06;21111,611;  207,805;32807,083;64,12352
 859,62;21262,830;  232,190;32650,837;64,87205
 860,18;21207,973;  221,344;32590,590;64,83509
 860,74;21143,039;  188,575;32362,112;65,12950
 861,30;21097,720;  193,960;32227,481;65,25589
 861,86;21352,170;  267,806;32294,542;65,83363
 862,42;21272,928;  226,268;31965,757;66,31065
 862,98;21283,533;  248,576;32078,125;66,08625
 863,54;21199,444;  220,653;31793,032;66,44666
 864,10;21306,972;  213,269;31937,093;66,49168
 864,66;21150,422;  202,192;31644,693;66,62393
 865,22;21197,411;  224,346;31435,984;67,19630
 865,78;21215,938;  219,192;31266,353;67,62855
 866,34;21234,081;  204,731;31362,106;67,49397
 866,90;21234,224;  220,808;31083,475;68,08684
 867,45;21099,290;  236,578;30929,151;67,97316
 868,01;21013,509;  223,655;30790,597;68,01418
 868,57;21086,652;  215,732;30619,966;68,64478
 869,13;21065,948;  200,732;30401,565;69,08821
 869,69;21058,937;  210,271;30320,241;69,24174
 870,25;20993,003;  186,348;30246,302;69,21719
 870,81;21127,069;  214,810;30184,209;69,77871
 871,37;21055,211;  223,349;30086,809;69,75703
 871,93;21047,431;  236,811;29867,716;70,23282
 872,49;21025,958;  254,580;29613,854;70,74895
 873,04;20957,101;  202,196;29450,145;70,96192
 873,60;20911,782;  195,350;29270,822;71,25055
 874,16;20977,233;  219,119;29224,883;71,56548
 874,72;21019,694;  217,888;29149,498;71,89993
 875,28;21001,310;  225,119;29078,806;72,00532
 875,84;21026,771;  226,581;29020,498;72,23814
 876,40;21028,156;  213,504;28867,960;72,64019
 876,95;21188,079;  227,042;28836,113;73,26710
 877,51;21272,848;  247,273;28855,267;73,49545
 878,07;21304,002;  253,812;28901,729;73,47896
 878,63;21385,002;  223,965;28900,037;73,79336
 879,19;21518,617;  228,812;28924,267;74,19226
 879,75;21599,617;  216,504;28921,729;74,49206
 880,30;21596,617;  207,735;28891,883;74,56691
 880,86;21758,694;  260,042;29039,883;74,70039
 881,42;21796,002;  206,812;29044,113;74,86550
 881,98;22010,463;  232,504;29123,190;75,38055
 882,54;22121,540;  203,119;29288,498;75,35890
 883,09;22342,002;  219,965;29421,113;75,75742
 883,65;22523,463;  202,658;29500,883;76,18484
 884,21;22834,233;  245,427;29732,037;76,60700
 884,77;22861,310;  215,658;29681,806;76,85311
 885,32;23026,002;  216,427;29980,883;76,63360
 885,88;23236,617;  248,119;30130,960;76,92876
 886,44;23384,617;  224,119;30121,344;77,46705
 887,00;23359,002;  246,504;30179,498;77,21412
 887,56;23544,233;  210,119;30411,498;77,26175
 888,11;23667,310;  216,273;30340,498;77,84777
 888,67;23902,079;  240,273;30523,960;78,13384
 889,23;23978,233;  224,273;30494,960;78,47182
 889,79;23955,079;  209,658;30424,113;78,58960
 890,34;23953,002;  232,658;30343,883;78,77575
 890,90;24309,617;  290,965;30495,883;79,51901
 891,46;24435,233;  201,427;30323,883;80,45096
 892,01;24381,079;  243,658;30357,652;80,15350
 892,57;24405,694;  258,273;30260,883;80,48440
 893,13;24347,694;  232,965;30047,883;80,88142
 893,69;24438,617;  207,427;29994,344;81,34843
 894,24;24318,540;  218,196;29892,037;81,21748
 894,80;24227,387;  226,658;29773,037;81,23069
 895,36;24329,925;  220,427;29661,729;81,89005
 895,91;24209,540;  220,965;29475,190;82,00038
 896,47;24254,617;  234,965;29274,113;82,71473
 897,03;24181,694;  227,119;29118,037;82,91386
 897,58;24085,694;  233,196;28943,960;83,07859
 898,14;23924,002;  233,196;28747,498;83,08394
 898,70;23816,002;  196,350;28606,421;83,13831
 899,25;23911,694;  218,427;28578,113;83,54559
 899,81;23792,925;  235,581;28370,960;83,72855
 900,37;23693,233;  186,042;28129,421;84,12437
 900,92;23798,540;  221,965;28086,883;84,61025
 901,48;23737,156;  225,581;27998,344;84,65695
 902,03;23737,694;  217,119;27810,344;85,24040
 902,59;23720,079;  215,196;27764,498;85,31934
 903,15;23623,617;  241,658;27546,113;85,63423
 903,70;23553,002;  215,042;27327,883;86,07715
 904,26;23506,310;  211,658;27219,267;86,25218
 904,82;23569,694;  220,273;27155,883;86,68607
 905,37;23503,002;  227,888;27043,498;86,79688
 905,93;23371,617;  209,504;26857,729;86,91803
 906,48;23418,310;  228,735;26871,113;87,04018
 907,04;23507,310;  232,196;26694,498;87,95574
 907,60;23329,233;  219,350;26502,421;87,92687
 908,15;23273,387;  197,888;26350,190;88,23506
 908,71;23333,617;  238,042;26385,037;88,32975
 909,26;23235,079;  224,427;26125,652;88,84001
 909,82;23219,771;  227,196;26128,729;88,76917
 910,37;23190,694;  266,119;25979,190;89,15534
 910,93;23052,540;  212,812;25777,421;89,34120
 911,48;23030,694;  201,888;25659,806;89,67272
 912,04;23011,925;  220,119;25480,806;90,22639
 912,60;23091,925;  228,812;25513,729;90,42194
 913,15;23012,617;  221,273;25329,498;90,77242
 913,71;22875,079;  204,812;25161,498;90,83845
 914,26;22917,925;  202,658;25003,344;91,59128
 914,82;22847,463;  225,735;24906,652;91,65676
 915,37;22772,848;  199,658;24883,575;91,44898
 915,93;22787,387;  256,735;24693,344;92,20040
 916,48;22681,233;  193,581;24655,344;91,92981
 917,04;22638,156;  227,735;24440,037;92,55799
 917,59;22768,233;  249,658;24525,113;92,76273
 918,15;22582,310;  190,042;24173,960;93,36368
 918,70;22542,387;  205,273;24166,113;93,22341
 919,26;22545,771;  219,427;24042,652;93,71672
 919,81;22331,233;  200,658;23895,575;93,39798
 920,37;22348,387;  204,888;23822,421;93,75873
 920,92;22259,310;  228,504;23654,498;94,04427
 921,48;22219,463;  200,504;23530,729;94,37954
 922,03;22162,771;  205,504;23463,575;94,40709
 922,59;22169,617;  216,119;23292,575;95,13375
 923,14;22186,156;  212,273;23113,729;95,94972
 923,69;22121,310;  223,350;23059,652;95,89101
 924,25;22225,771;  236,504;22986,344;96,65680
 924,80;22044,848;  215,735;22825,960;96,54532
 925,36;22129,540;  203,581;22760,883;97,20116
 925,91;22065,233;  196,119;22596,498;97,62832
 926,47;22051,617;  186,812;22550,806;97,76789
 927,02;22008,310;  273,273;22458,190;97,97213
 927,57;21863,079;  218,273;22275,421;98,13057
 928,13;21890,156;  202,581;22197,037;98,60474
 928,68;21836,463;  207,735;22179,729;98,43771
 929,24;21698,925;  187,812;21897,806;99,08392
 929,79;21622,617;  210,965;21808,960;99,13722
 930,34;21565,463;  212,196;21625,652;99,71892
 930,90;21591,694;  201,119;21634,190;99,80173
 931,45;21646,694;  223,658;21562,267;100,39565
 932,01;21715,925;  224,812;21431,883;101,33938
 932,56;21566,387;  233,658;21278,729;101,36686
 933,11;21620,233;  236,504;21355,190;101,25501
 933,67;21430,925;  211,427;21081,421;101,67467
 934,22;21457,387;  216,504;21017,267;102,11588
 934,77;21296,387;  234,888;20884,960;101,99238
 935,33;21263,387;  223,965;20760,652;102,44798
 935,88;21294,310;  219,273;20625,113;103,27943
 936,43;21275,617;  213,504;20572,190;103,45517
 936,99;21194,463;  212,735;20439,729;103,73132
 937,54;21065,079;  204,273;20285,652;103,88134
 938,09;21125,387;  219,812;20243,806;104,40262
 938,65;21023,925;  215,273;20138,498;104,44419
 939,20;20916,079;  190,196;20034,344;104,44330
 939,75;20809,463;  210,196;19952,883;104,33872
 940,31;20760,925;  188,888;19821,575;104,78462
 940,86;20846,079;  220,042;19795,960;105,36434
 941,41;20871,771;  293,273;19672,652;106,18760
 941,96;20717,310;  196,888;19552,652;106,01711
 942,52;20649,848;  208,042;19358,498;106,74318
 943,07;20573,925;  190,273;19329,883;106,49983
 943,62;20569,079;  194,735;19270,806;106,80577
 944,18;20539,002;  196,658;19146,806;107,34662
 944,73;20444,156;  217,965;19028,960;107,52324
 945,28;20243,617;  182,581;18910,113;107,12055
 945,83;20320,617;  200,350;18902,267;107,58398
 946,39;20289,848;  205,965;18762,037;108,23349
 946,94;20251,156;  240,581;18793,113;107,85899
 947,49;20090,848;  207,504;18619,652;107,99036
 948,04;20059,771;  240,965;18558,113;108,19810
 948,59;20114,540;  237,427;18520,421;108,71914
 949,15;19908,233;  189,273;18325,652;108,72600
 949,70;19872,387;  208,273;18289,575;108,75386
 950,25;19771,694;  216,196;18151,729;109,03216
 950,80;19717,540;  177,196;18029,498;109,45560
 951,36;19516,310;  172,119;17948,037;108,82246
 951,91;19552,771;  217,658;17940,113;109,09952
 952,46;19431,233;  195,350;17714,267;109,80064
 953,01;19466,540;  214,196;17756,190;109,75003
 953,56;19260,079;  190,350;17610,652;109,46842
 954,11;19300,617;  217,888;17566,421;109,99621
 954,67;19241,848;  201,427;17494,652;110,10336
 955,22;19083,617;  181,658;17318,421;110,30064
 955,77;19212,925;  217,888;17317,037;111,08762
 956,32;19046,771;  253,888;17234,267;110,67411
 956,87;18992,771;  200,658;17057,806;111,47860
 957,42;18988,156;  211,273;17000,344;111,83991
 957,98;18913,079;  194,042;16885,729;112,14587
 958,53;18912,540;  233,735;16905,344;112,03961
 959,08;18831,156;  192,504;16733,421;112,68209
 959,63;18751,694;  205,504;16589,498;113,19700
 960,18;18714,925;  216,888;16566,960;113,13735
 960,73;18667,002;  207,658;16534,960;113,05814
 961,28;18588,079;  179,965;16409,806;113,42141
 961,83;18510,387;  228,119;16367,575;113,27685
 962,39;18429,233;  187,273;16232,190;113,69307
 962,94;18330,310;  207,042;16179,344;113,46685
 963,49;18317,387;  208,658;16006,729;114,62620
 964,04;18353,463;  218,119;15901,267;115,63587
 964,59;18243,002;  189,427;15873,652;115,10658
 965,14;18200,617;  222,427;15785,190;115,52055
 965,69;18061,694;  208,581;15683,421;115,36864
 966,24;18001,771;  202,119;15562,267;115,88203
 966,79;17950,771;  217,735;15553,652;115,63075
 967,34;17859,002;  186,427;15374,960;116,35472
 967,89;17766,848;  196,196;15330,575;116,09761
 968,44;17721,002;  205,581;15273,421;116,24374
 968,99;17728,463;  221,196;15182,729;117,01520
 969,55;17625,310;  218,658;15098,344;116,98265
 970,10;17556,233;  219,888;14978,037;117,46965
 970,65;17367,694;  218,812;14927,960;116,58651
 971,20;17351,233;  194,350;14764,267;117,75553
 971,75;17186,540;  181,812;14686,652;117,23486
 972,30;17101,540;  210,427;14581,267;117,53741
 972,85;17068,387;  204,119;14492,267;118,02976
 973,40;16871,387;  195,119;14341,190;117,88621
 973,95;16825,387;  221,119;14313,344;117,82573
 974,50;16746,002;  236,581;14226,729;118,00748
 975,05;16675,387;  214,658;14143,037;118,18123
 975,60;16638,310;  223,350;14038,344;118,81988
 976,15;16520,617;  208,581;13907,960;119,07136
 976,70;16439,540;  221,965;13842,113;119,07047
 977,25;16407,925;  223,042;13793,652;119,26423
 977,80;16209,694;  199,427;13662,421;118,92055
 978,35;15967,925;  219,658;13468,267;118,86732
 978,89;16022,540;  188,888;13409,806;119,76213
 979,44;15989,848;  214,350;13393,960;119,69625
 979,99;15843,463;  193,965;13277,498;119,61218
 980,54;15708,310;  228,658;13134,344;119,94443
 981,09;15684,002;  229,888;13020,960;120,81954
 981,64;15612,540;  223,581;12872,960;121,65783
 982,19;15529,002;  254,350;12828,113;121,48035
 982,74;15384,540;  222,273;12694,883;121,56451
 983,29;15178,925;  200,658;12585,729;120,93808
 983,84;15145,617;  221,658;12477,806;121,76713
 984,39;15136,694;  285,504;12405,113;122,53852
 984,94;14906,310;  183,965;12212,421;122,39596
 985,49;14816,310;  233,042;12224,037;121,61850
 986,03;14793,925;  231,504;12074,037;122,96712
 986,58;14606,310;  261,581;11949,037;122,73611
 987,13;14440,233;  211,119;11819,037;122,58111
 987,68;14307,002;  224,581;11701,575;122,70130
 988,23;14281,463;  221,581;11654,575;122,97638
 988,78;14099,617;  198,735;11528,421;122,69433
 989,33;13972,310;  240,504;11380,652;123,26412
 989,88;13982,079;  255,350;11359,806;123,61460
 990,42;13815,540;  213,273;11216,883;123,61641
 990,97;13690,079;  210,196;11052,883;124,32235
 991,52;13603,156;  231,735;10994,421;124,23869
 992,07;13448,848;  252,504;10966,113;123,17365
 992,62;13312,463;  229,042;10832,960;123,38290
 993,17;13213,002;  230,196;10679,113;124,25025
 993,71;13089,002;  234,119;10622,037;123,74841
 994,26;12870,156;  198,965;10405,267;124,15065
 994,81;12937,848;  239,658;10404,344;124,92456
 995,36;12722,617;  218,812;10233,190;124,85853
 995,91;12633,617;  226,119;10173,652;124,72940
 996,45;12474,387;  225,119;10071,421;124,40475
 997,00;12370,387;  206,427; 9907,883;125,38283
 997,55;12357,079;  238,658; 9872,190;125,79416
 998,10;12235,310;  246,504; 9737,037;126,32384
 998,65;12123,310;  216,273; 9673,960;125,89798
 999,19;11966,617;  247,965; 9548,498;125,99979
 999,74;11921,925;  241,581; 9464,113;126,65007
1000,29;11801,540;  237,273; 9353,498;126,85368
1000,84;11701,925;  212,888; 9203,190;127,79367
1001,38;11564,002;  227,042; 9137,652;127,22990
1001,93;11505,156;  246,888; 9059,806;127,74734
1002,48;11278,771;  211,812; 8881,037;127,65800
1003,03;11301,694;  232,196; 8874,498;128,08507
1003,57;11109,310;  233,042; 8753,344;127,65120
1004,12;11028,771;  262,504; 8678,729;127,92276
1004,67;10953,540;  222,119; 8592,960;128,20005
1005,22;10807,002;  216,658; 8405,729;129,32290
1005,76;10632,540;  201,196; 8318,652;128,50509
1006,31;10660,540;  230,581; 8234,575;130,30943
1006,86;10438,925;  218,273; 8113,498;129,45359
1007,40;10263,848;  195,196; 8020,806;128,66284
1007,95;10179,233;  220,119; 7905,421;129,58650
1008,50;10005,387;  231,196; 7753,960;129,92819
1009,04; 9925,848;  209,812; 7686,652;129,94843
1009,59; 9793,387;  229,042; 7556,190;130,53297
1010,14; 9637,925;  206,658; 7438,037;130,42142
1010,68; 9499,463;  220,504; 7320,806;130,68401
1011,23; 9359,310;  212,888; 7211,652;130,68624
1011,78; 9322,233;  229,888; 7119,344;131,97478
1012,32; 9212,463;  241,965; 7036,113;132,03271
1012,87; 9143,079;  257,581; 6974,806;132,27930
1013,42; 8982,156;  203,196; 6845,344;132,17049
1013,96; 9019,079;  257,350; 6877,806;132,34329
1014,51; 8877,848;  192,965; 6726,883;132,92000
1015,06; 8838,233;  187,812; 6776,190;131,29817
1015,60; 8949,925;  264,042; 6805,037;132,79147
1016,15; 8931,925;  209,965; 6771,037;132,93500
1016,69; 8961,617;  217,658; 6788,421;133,07372
1017,24; 8947,156;  199,196; 6784,960;132,83137
1017,79; 9054,925;  241,350; 6898,190;132,39877
1018,33; 9064,463;  207,888; 6841,113;133,51839
1018,88; 9117,079;  224,273; 6898,190;133,24717
1019,42; 9133,540;  217,427; 6885,652;133,71045
1019,97; 9148,002;  207,427; 6909,575;133,39865
1020,51; 9263,617;  242,196; 6946,421;134,56322
1021,06; 9183,771;  188,965; 6917,344;133,68459
1021,61; 9088,540;  190,042; 6892,883;132,75712
1022,15; 9045,540;  170,735; 6874,960;132,37631
1022,70; 9139,387;  209,965; 6875,960;133,95483
1023,24; 9049,694;  202,042; 6803,729;134,02108
1023,79; 8986,079;  213,427; 6726,960;134,68347
1024,33; 8987,540;  204,427; 6673,883;135,76279
1024,88; 8911,387;  225,812; 6619,883;135,83795
1025,42; 8757,079;  219,965; 6470,729;136,57713
1025,97; 8639,156;  206,504; 6409,498;135,94486
1026,51; 8442,848;  174,504; 6244,344;136,22013
1027,06; 8396,771;  202,658; 6224,960;136,06281
1027,60; 8223,848;  229,658; 6108,421;135,98422
1028,15; 8126,463;  224,427; 6049,652;135,65204
1028,69; 7936,848;  178,658; 5900,498;135,58907
1029,24; 7940,079;  190,888; 5858,652;136,72396
1029,78; 7768,617;  191,581; 5760,806;136,05190
1030,33; 7602,771;  183,812; 5600,190;136,97269
1030,87; 7513,387;  203,119; 5562,421;136,40335
1031,42; 7458,233;  186,888; 5474,960;137,50466
1031,96; 7424,079;  216,504; 5405,344;138,90531
1032,51; 7265,848;  193,350; 5354,652;137,02934
1033,05; 7179,079;  218,504; 5267,806;137,85222
1033,60; 7002,925;  181,581; 5145,267;137,42496
1034,14; 6952,771;  199,658; 5080,652;138,35528
1034,69; 6869,079;  204,735; 5045,652;137,66697
1035,23; 6817,079;  211,119; 4934,652;139,85210
1035,77; 6715,233;  199,042; 4887,037;138,99741
1036,32; 6617,002;  174,350; 4782,344;139,81467
1036,86; 6557,771;  210,427; 4749,344;139,84269
1037,41; 6454,002;  220,273; 4667,267;140,17848
1037,95; 6394,310;  179,196; 4579,729;141,23548
1038,50; 6287,848;  185,504; 4553,190;139,71571
1039,04; 6267,310;  220,427; 4509,575;140,98097
1039,58; 6152,925;  185,812; 4421,498;140,87713
1040,13; 6068,771;  202,581; 4362,806;141,00657
1040,67; 6051,233;  235,119; 4322,883;142,28107
1041,21; 5967,694;  231,273; 4245,883;142,88864
1041,76; 5825,463;  188,735; 4150,037;142,29486
1042,30; 5787,540;  200,581; 4087,960;143,72048
1042,85; 5657,694;  203,042; 4051,267;141,74462
1043,39; 5605,079;  185,812; 3954,113;143,81192
1043,93; 5516,310;  215,042; 3934,037;142,54573
1044,48; 5436,387;  210,273; 3906,806;141,37880
1045,02; 5369,387;  199,042; 3826,498;142,53363
1045,56; 5331,079;  226,042; 3777,113;143,76047
1046,11; 5239,156;  220,812; 3749,652;142,20944
1046,65; 5200,694;  204,273; 3688,883;143,38539
1047,19; 5130,079;  196,350; 3599,806;144,96233
1047,74; 5005,463;  186,042; 3537,113;143,81733
1048,28; 4960,925;  212,427; 3515,575;143,75674
1048,82; 4893,540;  226,735; 3507,883;142,23088
1049,37; 4815,771;  218,504; 3423,883;143,42352
1049,91; 4771,387;  211,042; 3355,652;145,02100
1050,45; 4707,233;  222,504; 3341,190;143,80185
1050,99; 4665,079;  212,042; 3292,267;144,56855
1051,54; 4553,463;  190,504; 3225,575;143,75148
1052,08; 4561,310;  237,119; 3201,421;145,87550
1052,62; 4484,617;  230,119; 3156,960;145,36147
1053,16; 4424,233;  211,812; 3111,883;145,25234
1053,71; 4376,617;  208,504; 3087,806;144,76125
1054,25; 4294,387;  216,581; 3010,421;145,95701
1054,79; 4226,233;  223,965; 2979,652;145,23667
1055,33; 4118,463;  188,196; 2892,344;145,34216
1055,88; 4102,387;  220,812; 2885,113;145,68826
1056,42; 4041,694;  230,965; 2875,190;144,11515
1056,96; 4003,156;  227,119; 2836,806;144,69311
1057,50; 3963,156;  220,427; 2793,344;145,46635
1058,05; 3850,233;  214,119; 2740,344;143,93466
1058,59; 3827,387;  243,888; 2702,960;145,72568
1059,13; 3741,387;  199,119; 2619,113;146,37503
1059,67; 3735,156;  222,658; 2601,113;147,67977
1060,21; 3648,925;  217,581; 2572,344;145,71927
1060,76; 3618,617;  228,119; 2535,729;146,92685
1061,30; 3575,310;  230,350; 2515,652;146,36839
1061,84; 3547,156;  208,196; 2445,883;149,21481
1062,38; 3425,156;  208,581; 2374,344;148,51922
1062,92; 3447,694;  255,427; 2419,729;147,49639
1063,46; 3370,925;  224,119; 2353,421;147,78579
1064,01; 3322,156;  216,504; 2333,113;146,72767
1064,55; 3258,848;  223,965; 2281,883;147,47350
1065,09; 3211,156;  194,735; 2227,806;148,36771
1065,63; 3233,540;  250,658; 2235,421;150,28908
1066,17; 3198,463;  250,812; 2233,267;148,68689
1066,71; 3133,156;  239,735; 2178,806;149,21686
1067,25; 3066,848;  214,042; 2134,652;148,53647
1067,80; 3013,002;  240,735; 2131,421;146,62755
1068,34; 3003,079;  241,350; 2115,190;147,38336
1068,88; 2955,079;  218,965; 2031,344;150,96808
1069,42; 2947,310;  250,273; 2060,960;148,95105
1069,96; 2874,771;  218,581; 2041,421;145,71711
1070,50; 2896,002;  251,735; 2038,267;148,01113
1071,04; 2809,540;  206,273; 1965,421;147,98455
1071,58; 2786,387;  217,042; 1958,267;147,55958
1072,12; 2739,771;  219,581; 1920,729;148,14644
1072,66; 2723,463;  220,119; 1898,883;149,11834
1073,21; 2710,233;  233,427; 1906,806;148,01226
1073,75; 2675,848;  238,196; 1855,190;150,75205
1074,29; 2609,079;  231,581; 1827,190;149,00249
1074,83; 2610,002;  239,581; 1820,190;149,96879
1075,37; 2593,233;  239,042; 1805,498;150,28770
1075,91; 2552,463;  234,888; 1783,344;149,67008
1076,45; 2497,079;  231,504; 1762,421;147,98807
1076,99; 2460,156;  240,350; 1738,344;148,18520
1077,53; 2431,002;  224,042; 1674,575;152,14822
1078,07; 2398,771;  239,812; 1680,575;149,84830
1078,61; 2371,925;  222,888; 1656,037;149,95216
1079,15; 2344,310;  229,427; 1636,421;150,31211
1079,69; 2327,079;  226,735; 1619,344;150,82075
1080,23; 2317,540;  248,273; 1642,960;148,36791
1080,77; 2325,387;  278,196; 1640,037;150,32528
1081,31; 2246,848;  215,888; 1551,498;152,06237
1081,85; 2251,463;  239,427; 1559,267;152,44544
1082,39; 2181,002;  230,812; 1535,498;149,47578
1082,93; 2171,848;  237,427; 1526,421;150,07213
1083,47; 2116,002;  208,504; 1501,883;147,48177
1084,01; 2122,925;  238,350; 1494,113;150,07404
1084,55; 2082,156;  225,119; 1450,652;151,52893
1085,09; 2096,079;  247,658; 1436,344;155,50114
1085,63; 2053,387;  223,427; 1433,652;151,20821
1086,17; 2010,771;  214,273; 1409,037;150,36433
1086,71; 1993,079;  226,042; 1363,960;155,28690
1087,24; 1986,848;  255,042; 1414,575;149,35377
1087,78; 1975,617;  246,735; 1389,037;151,35076
1088,32; 1891,463;  202,273; 1326,652;150,23321
1088,86; 1927,463;  243,504; 1357,421;151,17456
1089,40; 1875,540;  233,812; 1338,267;148,64596
1089,94; 1855,156;  203,888; 1270,421;154,82576
1090,48; 1813,540;  235,196; 1269,498;152,59995
1091,02; 1822,463;  243,735; 1276,113;152,92146
1091,56; 1787,463;  228,504; 1258,267;151,39007
1092,10; 1745,079;  214,965; 1212,421;153,40164
1092,63; 1785,771;  248,658; 1234,190;155,96778
1093,17; 1753,387;  239,812; 1216,113;155,03145
1093,71; 1709,540;  217,965; 1210,729;150,24475
1094,25; 1709,387;  261,888; 1200,190;154,26784
1094,79; 1668,310;  224,812; 1174,575;151,98501
1095,33; 1645,694;  227,735; 1160,267;152,05468
1095,87; 1630,310;  226,965; 1149,960;152,04258
1096,40; 1577,617;  210,350; 1115,575;151,04171
1096,94; 1597,694;  228,119; 1111,652;155,01124
1097,48; 1558,540;  244,196; 1122,267;149,68539
1098,02; 1528,079;  223,196; 1093,421;149,94774
1098,56; 1484,463;  196,427; 1057,421;149,59874
1099,10; 1480,156;  205,196; 1047,806;151,31083
1099,63; 1457,233;  206,196; 1042,113;149,66032
1100,17; 1482,463;  234,581; 1050,344;152,97114
1100,71; 1490,387;  254,042; 1052,190;154,90161

