
Integration time [ms]: 160,000
Averaging Nr. [scans]: 13
Smoothing Nr. [pixels]: 0
Data measured with spectrometer [name]: 2009305U1
Wave   ;Sample   ;Dark     ;Reference;Reflectance
[nm]   ;[counts] ;[counts] ;[counts] ;[%]

 175,72;  222,972;  211,481;  218,198;171,06533
 176,32;  243,197;  242,342;  237,064; 0,00000
 176,92;  274,311;  274,024;  286,893; 2,23282
 177,52;  282,085;  269,099;  274,399;245,02592
 178,12;  253,824;  242,726;  241,865; 0,00000
 178,72;  285,462;  285,192;  276,001; 0,00000
 179,32;  266,713;  271,804;  258,781; 0,00000
 179,92;  275,321;  271,952;  251,920; 0,00000
 180,52;  263,926;  247,166;  277,718;54,85881
 181,12;  264,379;  273,258;  268,649; 0,00000
 181,73;  291,778;  303,642;  290,175; 0,00000
 182,33;  404,767;  400,787;  408,394;52,31809
 182,93;  298,920;  285,176;  293,730;160,67097
 183,53;  246,665;  256,655;  235,234; 0,00000
 184,13;  248,319;  258,269;  234,768; 0,00000
 184,73;  305,869;  310,349;  296,521; 0,00000
 185,33;  304,599;  248,820;  394,412;38,31204
 185,93;  318,582;  245,368;  398,196;47,90628
 186,53;  333,784;  265,978;  408,744;47,49445
 187,13;  354,462;  290,044;  447,866;40,81689
 187,73;  328,993;  264,675;  415,930;42,52298
 188,33;  331,087;  245,219;  387,713;60,26112
 188,93;  324,796;  270,930;  405,484;40,03318
 189,53;  323,506;  269,175;  424,072;35,07531
 190,13;  370,708;  303,044;  440,384;49,26744
 190,73;  302,508;  239,106;  383,350;43,95474
 191,34;  343,221;  276,781;  434,912;42,01580
 191,94;  330,445;  252,456;  418,799;46,88422
 192,54;  335,396;  270,574;  439,983;38,26383
 193,14;  346,305;  271,430;  434,086;46,03328
 193,74;  348,135;  277,278;  439,295;43,73469
 194,34;  341,488;  276,273;  426,370;43,44862
 194,94;  310,986;  229,891;  407,340;45,70055
 195,54;  283,051;  215,357;  369,546;43,90308
 196,14;  310,088;  234,578;  405,012;44,30444
 196,74;  312,099;  242,129;  389,416;47,50600
 197,34;  285,557;  211,648;  390,907;41,22992
 197,94;  321,056;  241,044;  415,716;45,80735
 198,54;  328,297;  255,194;  430,267;41,75540
 199,14;  298,754;  222,722;  427,949;37,04776
 199,74;  300,688;  211,106;  431,925;40,56812
 200,34;  285,461;  201,105;  426,377;37,44657
 200,94;  332,266;  249,189;  481,453;35,76870
 201,54;  315,397;  222,339;  476,646;36,59279
 202,14;  365,535;  267,948;  536,358;36,35754
 202,74;  341,368;  230,799;  536,970;36,11348
 203,34;  315,515;  198,866;  546,256;33,57861
 203,94;  291,285;  181,101;  534,318;31,19454
 204,54;  376,125;  260,735;  653,213;29,40030
 205,14;  331,962;  215,491;  657,051;26,37727
 205,74;  408,030;  257,251;  756,379;30,20846
 206,34;  368,655;  225,486;  763,868;26,59245
 206,94;  409,178;  234,411;  851,748;28,30989
 207,54;  383,797;  197,564;  867,836;27,78464
 208,14;  400,701;  203,255;  963,005;25,98835
 208,74;  431,873;  220,107; 1048,173;25,57358
 209,34;  441,217;  220,336; 1146,059;23,86036
 209,94;  474,018;  228,106; 1279,593;23,38709
 210,54;  481,739;  212,945; 1358,793;23,45805
 211,14;  512,303;  222,029; 1514,178;22,46439
 211,73;  544,406;  224,494; 1640,996;22,58466
 212,33;  591,332;  246,343; 1758,938;22,80777
 212,93;  581,619;  221,030; 1894,450;21,54801
 213,53;  580,500;  196,107; 1929,919;22,17041
 214,13;  631,590;  220,170; 2031,963;22,70792
 214,73;  621,766;  189,409; 2041,666;23,34216
 215,33;  604,864;  185,183; 2081,131;22,13570
 215,93;  684,347;  212,405; 2230,476;23,38580
 216,53;  676,882;  181,492; 2297,215;23,41467
 217,13;  778,805;  224,715; 2533,410;24,00016
 217,73;  828,140;  212,713; 2767,506;24,08911
 218,33;  861,088;  155,092; 2966,387;25,11286
 218,93; 1011,711;  208,312; 3334,968;25,69516
 219,53; 1149,869;  213,092; 3666,979;27,12241
 220,13; 1204,579;  173,551; 4026,440;26,75986
 220,73; 1346,733;  189,106; 4398,392;27,50176
 221,32; 1533,565;  187,184; 4901,481;28,55954
 221,92; 1672,291;  213,705; 5372,536;28,27358
 222,52; 1844,691;  184,943; 5861,538;29,23844
 223,12; 2048,110;  189,173; 6366,852;30,09118
 223,72; 2210,275;  196,865; 6820,752;30,39620
 224,32; 2397,892;  206,941; 7315,632;30,82074
 224,92; 2564,233;  189,634; 7653,451;31,81481
 225,52; 2756,652;  211,103; 8058,109;32,43974
 226,12; 2888,464;  198,099; 8394,150;32,82513
 226,72; 3004,748;  172,716; 8818,142;32,75757
 227,31; 3212,011;  167,716; 9288,269;33,37841
 227,91; 3441,572;  207,181; 9795,790;33,73159
 228,51; 3593,170;  186,034;10198,182;34,03003
 229,11; 3818,350;  194,408;10644,726;34,67782
 229,71; 3970,717;  187,031;11067,447;34,77520
 230,31; 4228,865;  182,016;11517,374;35,70112
 230,91; 4377,118;  165,576;11911,197;35,85627
 231,51; 4592,172;  185,174;12242,326;36,55091
 232,10; 4776,286;  184,861;12643,414;36,85360
 232,70; 4893,334;  189,504;12859,370;37,12613
 233,30; 5150,544;  218,944;13193,393;38,01009
 233,90; 5218,653;  183,560;13313,674;38,34767
 234,50; 5286,689;  189,174;13436,659;38,47911
 235,10; 5348,540;  185,403;13455,913;38,90685
 235,70; 5451,923;  211,720;13468,454;39,52861
 236,29; 5467,905;  197,415;13436,168;39,81107
 236,89; 5402,295;  171,190;13193,436;40,17053
 237,49; 5398,826;  197,869;13088,252;40,34758
 238,09; 5241,348;  193,871;12729,099;40,26633
 238,69; 5174,330;  243,194;12505,680;40,21319
 239,29; 5031,675;  186,564;12046,908;40,85135
 239,89; 4863,724;  197,421;11575,386;41,01176
 240,48; 4584,226;  184,948;11134,687;40,17701
 241,08; 4384,211;  188,180;10682,952;39,98211
 241,68; 4214,008;  205,640;10272,873;39,81599
 242,28; 3995,531;  171,791; 9848,284;39,51576
 242,88; 3817,525;  233,708; 9478,401;38,76621
 243,48; 3622,969;  238,638; 9155,891;37,95261
 244,07; 3419,297;  198,566; 8855,609;37,20359
 244,67; 3292,571;  214,793; 8693,035;36,30207
 245,27; 3097,329;  209,494; 8466,303;34,97519
 245,87; 2982,006;  211,325; 8363,749;33,98598
 246,47; 2882,988;  203,032; 8352,176;32,88635
 247,06; 2754,114;  188,257; 8320,626;31,55117
 247,66; 2697,273;  188,793; 8410,748;30,50952
 248,26; 2696,255;  208,492; 8598,777;29,65051
 248,86; 2628,935;  217,262; 8812,360;28,05869
 249,46; 2523,622;  154,559; 9031,811;26,68690
 250,05; 2587,357;  213,487; 9546,119;25,43624
 250,65; 2565,348;  176,187; 9989,959;24,34498
 251,25; 2607,287;  188,796;10490,127;23,47746
 251,85; 2624,889;  188,190;11125,846;22,27807
 252,44; 2678,290;  155,645;11908,685;21,46377
 253,04; 2805,272;  203,875;12810,007;20,63597
 253,64; 2811,807;  153,034;13680,640;19,65442
 254,24; 3018,884;  220,718;14831,835;19,15094
 254,84; 3172,084;  188,867;15996,734;18,87172
 255,43; 3321,720;  185,953;17244,536;18,38234
 256,03; 3509,149;  203,726;18451,646;18,11397
 256,63; 3710,790;  201,036;19808,871;17,89975
 257,23; 3828,450;  181,113;20871,414;17,62825
 257,82; 4084,844;  205,733;22198,232;17,63833
 258,42; 4255,870;  151,813;23334,204;17,70334
 259,02; 4527,392;  220,798;24592,594;17,67040
 259,62; 4688,668;  179,814;25547,111;17,77428
 260,21; 4916,774;  196,953;26211,736;18,14284
 260,81; 5121,133;  186,715;26980,120;18,41654
 261,41; 5322,600;  176,580;27633,684;18,74203
 262,01; 5570,838;  227,047;28229,601;19,08323
 262,60; 5747,450;  177,805;28838,491;19,43305
 263,20; 5999,987;  187,494;29286,737;19,97472
 263,80; 6246,574;  201,432;29662,957;20,51877
 264,40; 6472,127;  170,123;29839,945;21,24045
 264,99; 6733,693;  199,048;30127,181;21,83446
 265,59; 6932,411;  189,670;30316,259;22,38136
 266,19; 7209,355;  176,970;30574,780;23,13451
 266,78; 7473,037;  233,205;30823,865;23,66680
 267,38; 7625,536;  208,823;30828,429;24,22210
 267,98; 7862,521;  196,743;30871,434;24,99056
 268,58; 8119,492;  195,438;30913,172;25,79635
 269,17; 8281,356;  177,367;31023,779;26,27207
 269,77; 8440,730;  199,577;30754,570;26,97154
 270,37; 8588,198;  175,971;30671,922;27,58473
 270,96; 8770,899;  228,656;30454,950;28,26096
 271,56; 8859,284;  194,806;30122,767;28,95111
 272,16; 8991,664;  187,735;29971,268;29,55972
 272,75; 9196,401;  186,427;29859,965;30,36367
 273,35; 9423,109;  192,425;29843,931;31,13057
 273,95; 9569,105;  187,196;29778,711;31,70473
 274,54; 9754,401;  167,718;29810,629;32,34056
 275,14;10056,264;  216,886;30186,602;32,83107
 275,74;10260,807;  167,427;30271,039;33,52880
 276,33;10663,125;  224,654;30851,261;34,08302
 276,93;10970,372;  201,793;31279,415;34,65059
 277,53;11379,608;  199,569;31882,683;35,28706
 278,12;11836,749;  183,727;32492,142;36,06807
 278,72;12360,167;  251,954;33285,317;36,65450
 279,32;12817,495;  181,955;33862,874;37,51543
 279,91;13372,909;  168,956;34771,549;38,15885
 280,51;13819,302;  184,107;35427,430;38,68873
 281,11;14429,941;  189,033;36405,369;39,32178
 281,70;14879,357;  173,342;36799,693;40,15146
 282,30;15536,284;  178,575;37647,075;40,98832
 282,90;16032,294;  188,114;38160,150;41,72592
 283,49;16554,121;  202,271;38818,062;42,34498
 284,09;17076,213;  225,496;39352,713;43,06648
 284,69;17609,802;  222,493;39716,819;44,02483
 285,28;18127,816;  212,727;40272,352;44,72106
 285,88;18657,213;  271,043;40575,343;45,61838
 286,47;19013,668;  191,806;40555,943;46,63016
 287,07;19507,945;  223,647;40682,282;47,66423
 287,67;19971,738;  218,254;40858,814;48,60534
 288,26;20417,505;  186,493;40795,817;49,81864
 288,86;20905,125;  184,727;40802,177;51,01354
 289,46;21482,470;  202,494;40964,118;52,20591
 290,05;22117,968;  189,873;40945,997;53,80319
 290,65;22807,544;  188,038;41352,190;54,94953
 291,24;23411,332;  196,646;41512,007;56,18899
 291,84;24086,482;  209,575;41660,409;57,60296
 292,44;24720,246;  200,560;41800,490;58,94165
 293,03;25434,156;  285,723;41934,340;60,38239
 293,63;25876,789;  190,960;42113,662;61,26950
 294,22;26476,887;  227,110;42371,190;62,28580
 294,82;26903,358;  185,815;42256,231;63,50672
 295,41;26991,280;  169,726;41928,693;64,22945
 296,01;27407,321;  224,197;41937,898;65,16594
 296,61;27517,375;  227,570;41649,594;65,88235
 297,20;27259,916;  196,197;41109,418;66,14908
 297,80;27483,071;  214,718;40879,116;67,05707
 298,39;27304,658;  172,344;40404,615;67,43918
 298,99;27352,712;  222,349;40273,823;67,73874
 299,58;27311,944;  207,947;39970,212;68,16512
 300,18;27253,782;  223,719;39835,925;68,23670
 300,78;27047,380;  184,183;39324,178;68,63362
 301,37;27150,261;  202,741;39327,758;68,87542
 301,97;27168,041;  204,802;39294,553;68,97777
 302,56;27091,424;  195,345;39240,911;68,88382
 303,16;27079,200;  176,193;39095,766;69,12462
 303,75;27086,767;  188,105;39022,882;69,26437
 304,35;27273,922;  185,712;39371,209;69,12815
 304,94;27211,196;  184,802;39363,454;68,98245
 305,54;27124,488;  225,799;39364,788;68,72607
 306,13;27011,583;  165,865;39235,829;68,71191
 306,73;26790,795;  175,714;38959,642;68,62399
 307,33;26673,286;  203,792;38958,373;68,30030
 307,92;26647,661;  206,415;38898,444;68,33771
 308,52;26866,001;  177,116;39535,145;67,81052
 309,11;27236,934;  188,506;40084,403;67,79752
 309,71;27370,707;  183,047;40497,883;67,43835
 310,30;27410,616;  171,416;40684,285;67,23592
 310,90;27737,616;  237,031;41231,208;67,08413
 311,49;27747,296;  205,417;41350,330;66,93872
 312,09;27697,596;  162,180;41476,721;66,64824
 312,68;27886,961;  261,414;41986,611;66,20831
 313,28;27735,584;  173,108;42091,290;65,75303
 313,87;27790,285;  158,339;42363,178;65,47104
 314,47;27809,323;  185,889;42609,624;65,11316
 315,06;27686,541;  168,492;42638,934;64,79341
 315,66;27694,519;  179,950;42994,336;64,26477
 316,25;27427,290;  152,577;42865,028;63,85659
 316,85;27270,706;  155,334;42884,519;63,45867
 317,44;27181,078;  176,890;43146,152;62,84536
 318,04;26951,416;  170,806;43057,638;62,44483
 318,63;26723,663;  157,253;43115,078;61,84300
 319,22;26639,357;  187,730;43434,931;61,16379
 319,82;26450,684;  191,112;43397,964;60,77641
 320,41;26095,094;  204,345;43284,244;60,09937
 321,01;25934,803;  200,104;43511,944;59,41724
 321,60;25659,531;  193,881;43642,096;58,61150
 322,20;25446,278;  165,031;43518,037;58,31486
 322,79;25166,256;  206,800;43654,986;57,44649
 323,39;25002,184;  180,790;43572,225;57,20344
 323,98;24658,719;  175,338;43633,481;56,33785
 324,58;24364,947;  167,655;43447,351;55,90911
 325,17;23989,851;  185,269;43201,366;55,33878
 325,76;23646,768;  201,186;43122,636;54,62439
 326,36;23144,582;  169,874;42593,788;54,15509
 326,95;22656,653;  218,649;42178,563;53,47486
 327,55;22193,243;  176,497;41915,346;52,74881
 328,14;21732,204;  172,794;41348,251;52,35986
 328,74;21294,644;  209,038;40829,011;51,90945
 329,33;20798,757;  190,105;40315,939;51,36006
 329,92;20206,628;  166,890;39660,305;50,74197
 330,52;19576,733;  192,178;38900,769;50,07817
 331,11;19067,630;  178,881;38444,687;49,36195
 331,71;18532,370;  186,110;37666,472;48,94899
 332,30;18010,965;  198,878;37106,531;48,26123
 332,89;17515,053;  266,490;36426,984;47,70002
 333,49;17021,290;  198,649;35823,230;47,22200
 334,08;16488,529;  181,497;35198,217;46,56927
 334,68;16050,288;  188,497;34737,295;45,91127
 335,27;15631,495;  194,100;34311,321;45,24810
 335,86;15295,476;  250,573;33898,764;44,71237
 336,46;14976,111;  202,792;33572,761;44,27130
 337,05;14692,432;  181,419;33453,737;43,61287
 337,65;14402,156;  169,650;33172,347;43,12528
 338,24;14243,960;  230,645;33140,248;42,58123
 338,83;13991,093;  221,260;33125,328;41,84842
 339,43;13798,291;  174,269;32976,622;41,53367
 340,02;13557,629;  181,270;32831,100;40,96915
 340,61;13461,211;  191,954;32885,805;40,58640
 341,21;13294,413;  210,653;32927,934;39,99036
 341,80;13100,562;  189,497;32862,882;39,51554
 342,40;13009,866;  195,332;33024,003;39,03458
 342,99;12885,206;  179,490;33101,753;38,59308
 343,58;12763,450;  178,105;33248,554;38,05617
 344,18;12675,276;  214,950;33488,535;37,44810
 344,77;12588,024;  179,885;33746,098;36,96616
 345,36;12570,884;  175,803;34210,255;36,41922
 345,96;12592,186;  212,105;34584,196;36,01783
 346,55;12474,954;  169,789;34774,204;35,55952
 347,14;12525,394;  173,101;35169,313;35,29609
 347,74;12587,191;  156,013;35698,813;34,97523
 348,33;12694,419;  186,707;36480,186;34,46270
 348,92;12823,684;  191,394;37188,955;34,14357
 349,52;12859,294;  153,550;37759,932;33,78614
 350,11;12799,737;  169,963;38005,963;33,38031
 350,70;12765,299;  176,954;38194,188;33,11221
 351,29;12538,608;  171,897;37901,223;32,77745
 351,89;12405,912;  200,659;37840,505;32,42642
 352,48;12306,386;  150,339;37923,879;32,18138
 353,07;12187,473;  197,408;37836,555;31,85531
 353,67;12072,840;  202,394;37818,604;31,55673
 354,26;11846,185;  190,255;37412,595;31,31434
 354,85;11718,850;  189,026;37287,366;31,07908
 355,45;11531,768;  162,959;36975,643;30,88286
 356,04;11437,761;  183,638;36930,767;30,62586
 356,63;11284,731;  217,111;36670,003;30,36143
 357,22;11170,055;  183,048;36525,690;30,23172
 357,82;11027,533;  180,892;36305,305;30,02579
 358,41;10952,899;  217,263;36129,991;29,89368
 359,00;10836,390;  167,500;35840,289;29,90764
 359,60;10766,246;  185,799;35775,735;29,72876
 360,19;10682,445;  208,098;35547,956;29,63890
 360,78;10579,265;  189,189;35462,705;29,45574
 361,37;10511,046;  180,958;35141,143;29,54815
 361,97;10406,711;  185,572;35077,292;29,29388
 362,56;10338,165;  190,040;34711,396;29,39666
 363,15;10261,990;  253,882;34372,239;29,33350
 363,74;10142,741;  191,735;33926,345;29,49791
 364,34;10032,741;  203,115;33405,107;29,60553
 364,93; 9886,449;  183,348;32948,157;29,61440
 365,52; 9726,861;  156,650;32451,071;29,63425
 366,11; 9685,258;  182,961;32152,418;29,72305
 366,71; 9553,280;  178,730;31649,470;29,78815
 367,30; 9440,763;  191,650;31259,152;29,77102
 367,89; 9470,585;  220,873;30917,492;30,13268
 368,48; 9370,072;  204,427;30607,452;30,14715
 369,07; 9237,530;  191,415;30016,803;30,33025
 369,67; 9244,777;  220,118;29658,538;30,65606
 370,26; 9212,168;  172,569;29287,910;31,04755
 370,85; 9109,608;  192,188;29025,096;30,92792
 371,44; 9127,963;  197,110;28760,135;31,26718
 372,03; 9103,917;  166,654;28417,774;31,63507
 372,63; 9074,379;  162,188;28050,514;31,95671
 373,22; 9023,979;  174,724;27649,618;32,20851
 373,81; 8986,201;  178,188;27247,045;32,53929
 374,40; 8934,765;  186,102;26994,687;32,63381
 374,99; 8934,879;  189,651;26691,749;32,99825
 375,59; 8929,170;  158,256;26274,783;33,58377
 376,18; 9025,616;  198,343;26161,600;33,99910
 376,77; 9062,843;  208,187;25873,834;34,50003
 377,36; 9126,695;  212,958;25865,787;34,74758
 377,95; 9079,072;  209,499;25474,807;35,10574
 378,55; 9141,649;  176,643;25254,559;35,74861
 379,14; 9162,135;  206,958;25162,581;35,88440
 379,73; 9288,942;  187,729;25007,145;36,66973
 380,32; 9430,271;  193,495;25112,805;37,06674
 380,91; 9430,546;  168,272;24888,560;37,46831
 381,50; 9549,946;  195,732;24793,450;38,02879
 382,10; 9607,348;  184,725;24709,574;38,42072
 382,69; 9708,991;  160,343;24621,657;39,03572
 383,28; 9849,805;  208,654;24566,383;39,58149
 383,87; 9836,992;  175,424;24428,279;39,83683
 384,46; 9981,656;  173,661;24306,925;40,64098
 385,05;10140,693;  212,886;24303,782;41,20979
 385,64;10277,104;  189,576;24339,572;41,77031
 386,24;10342,786;  167,661;24220,203;42,30374
 386,83;10568,674;  207,432;24279,449;43,04268
 387,42;10737,358;  206,730;24403,679;43,52048
 388,01;11027,076;  193,284;24638,078;44,31943
 388,60;11318,537;  192,737;24934,295;44,96807
 389,19;11541,199;  178,599;25258,789;45,30508
 389,78;11901,072;  182,443;25516,348;46,25670
 390,37;12352,778;  255,049;26044,630;46,90937
 390,96;12560,478;  187,662;26216,686;47,53469
 391,56;12755,609;  191,601;26377,838;47,97943
 392,15;13107,614;  174,826;26689,722;48,77555
 392,74;13312,835;  154,150;26904,368;49,19095
 393,33;13712,684;  193,679;27212,750;50,03505
 393,92;14119,096;  190,155;27681,721;50,66623
 394,51;14399,452;  164,218;27977,079;51,18220
 395,10;14823,221;  202,094;28227,249;52,17144
 395,69;15032,161;  206,168;28372,249;52,63776
 396,28;15281,744;  196,869;28554,213;53,19566
 396,87;15516,367;  205,421;28611,242;53,90073
 397,46;15795,024;  210,353;28729,041;54,64722
 398,06;16109,126;  225,287;29018,224;55,16575
 398,65;16361,814;  196,160;29080,013;55,96779
 399,24;16638,625;  217,088;29277,343;56,50858
 399,83;16854,310;  176,590;29253,316;57,35763
 400,42;17089,172;  224,626;29454,467;57,69633
 401,01;17380,700;  207,128;29571,044;58,48529
 401,60;17605,948;  217,799;29610,593;59,15786
 402,19;17792,381;  236,844;29605,829;59,77577
 402,78;18027,585;  226,835;29615,856;60,56939
 403,37;18077,391;  214,977;29390,074;61,22487
 403,96;18155,191;  227,976;29203,943;61,86926
 404,55;18374,736;  218,445;29138,663;62,78062
 405,14;18295,237;  211,599;28996,034;62,82436
 405,73;18509,735;  223,612;28785,954;64,02179
 406,32;18650,047;  237,134;28829,577;64,39783
 406,91;18641,137;  223,512;28451,200;65,24666
 407,50;18661,570;  238,163;28207,094;65,87097
 408,09;18604,689;  205,880;27879,689;66,48456
 408,68;18797,015;  230,129;27691,801;67,61018
 409,27;18677,198;  210,260;27477,721;67,72518
 409,86;18861,759;  208,898;27355,978;68,71038
 410,45;18981,034;  257,852;27271,554;69,30995
 411,04;19001,181;  244,189;27202,348;69,57816
 411,63;18903,441;  236,436;26878,885;70,06490
 412,22;18913,819;  252,227;26535,489;71,00181
 412,81;18851,859;  274,284;26290,545;71,40755
 413,40;18649,552;  262,336;25837,152;71,89579
 413,99;18565,114;  314,190;25452,504;72,60202
 414,58;18368,226;  235,339;25010,712;73,18916
 415,17;18337,409;  245,745;24729,214;73,89338
 415,76;18355,781;  231,536;24579,646;74,43799
 416,35;18315,557;  226,679;24283,150;75,19340
 416,94;18525,782;  260,762;24360,672;75,78875
 417,53;18911,600;  232,128;24573,694;76,73899
 418,12;19092,097;  243,123;24618,826;77,32690
 418,71;19630,862;  261,027;25197,185;77,67770
 419,30;19845,190;  230,429;25198,617;78,55901
 419,89;20127,730;  217,348;25463,049;78,86642
 420,48;20620,434;  256,643;25830,983;79,62587
 421,07;20751,599;  248,715;25884,029;79,97906
 421,66;20915,124;  215,550;25955,515;80,41804
 422,25;21007,720;  236,297;25951,341;80,77538
 422,84;21156,787;  261,754;25945,006;81,35665
 423,43;21038,729;  248,071;25663,928;81,80192
 424,02;20922,202;  265,221;25298,897;82,51677
 424,60;20589,425;  241,579;24734,056;83,07795
 425,19;20428,137;  256,131;24393,754;83,57080
 425,78;20570,063;  263,515;24327,975;84,38398
 426,37;20481,352;  258,967;24127,053;84,72563
 426,96;20494,441;  246,197;23974,029;85,33541
 427,55;20456,051;  250,336;23815,088;85,74550
 428,14;20328,519;  239,099;23559,774;86,14425
 428,73;20291,992;  238,727;23287,640;87,00308
 429,32;20284,942;  256,122;23272,549;87,01967
 429,91;20387,379;  277,187;23243,981;87,56203
 430,50;20350,256;  260,180;23069,501;88,07836
 431,08;20253,782;  264,480;22903,070;88,29747
 431,67;20256,185;  298,780;22792,481;88,72442
 432,26;20252,851;  316,158;22547,502;89,67831
 432,85;19907,769;  328,391;22187,710;89,56994
 433,44;19589,707;  329,612;21718,486;90,04726
 434,03;19260,040;  359,675;21306,430;90,23052
 434,62;18883,501;  302,227;20804,187;90,63169
 435,21;18773,299;  323,698;20490,492;91,48505
 435,79;18633,598;  317,373;20361,246;91,38067
 436,38;18635,469;  308,205;20228,135;92,00466
 436,97;18630,748;  310,434;20041,745;92,84895
 437,56;18425,384;  301,183;19805,014;92,92636
 438,15;18426,744;  279,881;19799,419;92,96768
 438,74;18529,936;  320,110;19760,262;93,67121
 439,33;18671,687;  281,189;19699,053;94,70917
 439,91;18757,524;  261,719;19851,305;94,41652
 440,50;18980,845;  314,333;19867,853;95,46369
 441,09;19146,062;  314,707;20012,283;95,60239
 441,68;19229,016;  285,387;20047,796;95,85688
 442,27;19203,640;  276,469;20008,998;95,91863
 442,86;19246,564;  251,675;20081,605;95,78899
 443,44;19425,968;  268,757;20002,114;97,08035
 444,03;19602,092;  343,520;20137,200;97,29657
 444,62;19516,378;  260,290;19968,456;97,70614
 445,21;19345,282;  284,677;19693,269;98,20705
 445,80;19296,736;  311,971;19650,624;98,17005
 446,39;19094,389;  367,974;19356,495;98,61966
 446,97;18895,309;  261,881;19073,511;99,05271
 447,56;18692,043;  266,485;18837,714;99,21561
 448,15;18510,276;  279,497;18571,175;99,66707
 448,74;18306,148;  291,880;18309,447;99,98169
 449,33;18239,499;  276,641;18160,537;100,44153
 449,91;17933,096;  276,473;17911,299;100,12360
 450,50;17796,517;  268,015;17637,654;100,91460
 451,09;17621,840;  285,090;17553,390;100,39639
 451,68;17601,327;  307,700;17358,424;101,42459
 452,26;17541,837;  311,232;17250,566;101,71950
 452,85;17513,498;  272,620;17151,501;102,14467
 453,44;17523,326;  288,679;17136,235;102,29761
 454,03;17522,595;  263,228;17099,659;102,51203
 454,61;17515,340;  262,294;17035,993;102,85773
 455,20;17779,818;  297,518;17301,084;102,81549
 455,79;17806,976;  303,298;17270,018;103,16477
 456,38;17978,162;  299,508;17334,704;103,77723
 456,97;18083,781;  281,973;17474,030;103,54670
 457,55;18157,427;  277,350;17483,395;103,91741
 458,14;18203,972;  317,283;17442,594;104,44593
 458,73;18127,749;  295,656;17325,922;104,70825
 459,31;18221,833;  316,722;17423,811;104,66487
 459,90;18345,917;  355,651;17490,156;104,99437
 460,49;18530,820;  402,039;17571,606;105,58671
 461,08;18630,430;  300,101;17691,511;105,39875
 461,66;18738,920;  301,800;17819,062;105,25115
 462,25;18863,729;  299,173;17869,693;105,65741
 462,84;18945,522;  321,254;17989,499;105,41096
 463,43;18972,552;  251,007;17879,081;106,20301
 464,01;19054,775;  296,233;17915,549;106,46578
 464,60;19015,893;  355,627;17826,061;106,81054
 465,19;18703,322;  282,845;17556,814;106,63720
 465,77;18632,986;  302,224;17580,033;106,09425
 466,36;18536,113;  326,315;17407,748;106,60580
 466,95;18180,194;  295,775;17026,046;106,89856
 467,53;17830,367;  314,525;16753,644;106,54976
 468,12;17475,250;  341,215;16387,586;106,77826
 468,71;17160,227;  307,998;16047,060;107,07264
 469,29;16945,452;  292,522;15741,525;107,79291
 469,88;16532,806;  304,978;15485,809;106,89683
 470,47;16735,206;  365,660;15586,201;107,54904
 471,06;16725,834;  324,429;15519,925;107,93596
 471,64;16876,013;  326,201;15704,611;107,61718
 472,23;16890,803;  295,565;15640,551;108,14763
 472,81;17066,832;  286,575;15786,318;108,26152
 473,40;17190,134;  296,719;15978,350;107,72741
 473,99;17595,255;  417,565;16199,915;108,84114
 474,57;17683,198;  316,181;16243,164;109,04147
 475,16;17914,453;  313,035;16521,341;108,59505
 475,75;18069,537;  331,635;16626,222;108,85763
 476,33;18194,767;  343,704;16768,516;108,68352
 476,92;18222,776;  333,871;16829,755;108,44466
 477,51;18354,252;  319,784;16902,322;108,75578
 478,09;18383,802;  327,553;16982,606;108,41304
 478,68;18354,195;  334,627;16808,872;109,38024
 479,27;18368,220;  351,788;16917,741;108,75578
 479,85;18283,820;  322,320;16913,123;108,26179
 480,44;18480,391;  309,393;17056,628;108,50149
 481,02;20080,366;  327,540;18513,781;108,61412
 481,61;22756,171;  360,389;21025,696;108,37382
 482,20;24402,015;  335,847;22425,425;108,94807
 482,78;25551,420;  368,240;23457,996;109,06647
 483,37;26244,879;  345,836;24077,235;109,13408
 483,95;26591,577;  386,219;24441,950;108,93603
 484,54;26887,080;  378,467;24717,477;108,91410
 485,13;26846,084;  335,441;24580,842;109,34297
 485,71;26460,845;  311,521;24299,731;109,00907
 486,30;26205,318;  374,213;24015,246;109,26386
 486,88;25744,588;  425,210;23631,682;109,10481
 487,47;24821,012;  376,670;22763,964;109,18846
 488,05;23698,451;  367,358;21754,751;109,08806
 488,64;22055,033;  368,042;20199,995;109,35378
 489,23;19660,479;  367,509;18030,057;109,23095
 489,81;16708,947;  370,045;15402,136;108,69348
 490,40;15895,006;  328,890;14590,975;109,14334
 490,98;15484,016;  321,809;14267,450;108,72363
 491,57;15363,657;  341,816;14131,813;108,93288
 492,15;15322,404;  324,423;14086,901;108,97733
 492,74;15165,552;  334,434;13926,221;109,11823
 493,32;14996,321;  346,425;13829,647;108,65279
 493,91;14900,887;  322,496;13679,484;109,14430
 494,50;14817,135;  322,943;13664,540;108,63911
 495,08;14681,133;  308,713;13605,891;108,08624
 495,67;14678,104;  342,805;13563,727;108,42889
 496,25;14523,324;  291,874;13466,176;108,02432
 496,84;14493,124;  285,267;13420,976;108,16209
 497,42;14418,353;  286,486;13343,746;108,22996
 498,01;14302,250;  309,265;13274,048;107,93073
 498,59;14196,291;  276,947;13162,195;108,02542
 499,18;14100,132;  288,341;13136,494;107,50020
 499,76;14056,742;  317,720;13043,589;107,96137
 500,35;13708,133;  306,324;12773,862;107,49363
 500,93;13664,648;  288,641;12779,560;107,08585
 501,52;13496,872;  286,178;12588,629;107,38262
 502,10;13514,083;  303,703;12636,336;107,11727
 502,69;13329,679;  279,852;12413,289;107,55260
 503,27;12970,609;  265,866;12229,110;106,19814
 503,86;12902,267;  300,392;12150,983;106,33963
 504,44;12758,620;  269,080;12010,806;106,36886
 505,03;12462,258;  255,156;11632,165;107,29623
 505,61;12230,582;  271,466;11502,732;106,48057
 506,19;12071,059;  282,695;11342,775;106,58479
 506,78;11775,791;  263,069;11183,407;105,42460
 507,36;11574,596;  268,465;10923,259;106,11309
 507,95;11332,485;  270,064;10747,971;105,57853
 508,53;11185,812;  262,839;10596,711;105,70068
 509,12;11039,447;  274,220;10401,645;106,29777
 509,70;10812,399;  290,602;10229,006;105,87008
 510,29;10638,314;  298,520;10023,243;106,32482
 510,87;10397,075;  255,146; 9835,838;105,85800
 511,46;10140,455;  255,144; 9684,786;104,83231
 512,04; 9999,756;  269,292; 9522,309;105,15990
 512,62; 9752,236;  276,836; 9324,609;104,72632
 513,21; 9574,250;  246,981; 9118,737;105,13442
 513,79; 9300,590;  256,657; 8968,660;103,81003
 514,38; 9094,421;  243,124; 8798,316;103,46112
 514,96; 8971,594;  295,586; 8726,279;102,90979
 515,54; 8805,549;  246,813; 8437,575;104,49255
 516,13; 8664,827;  272,966; 8373,229;103,59986
 516,71; 8503,120;  259,805; 8248,457;103,18780
 517,30; 8346,113;  252,953; 8153,958;102,43204
 517,88; 8196,914;  274,415; 8019,184;102,29485
 518,46; 8023,780;  240,028; 7865,909;102,07019
 519,05; 7933,397;  262,869; 7837,551;101,26534
 519,63; 7867,313;  263,795; 7737,088;101,74254
 520,22; 7774,505;  275,631; 7659,763;101,55390
 520,80; 7648,540;  245,706; 7557,517;101,24489
 521,38; 7626,410;  300,253; 7530,946;101,32027
 521,97; 7550,619;  256,394; 7503,851;100,64530
 522,55; 7528,553;  269,779; 7471,465;100,79271
 523,13; 7444,112;  255,390; 7455,608;99,84034
 523,72; 7422,581;  243,720; 7425,904;99,95372
 524,30; 7531,959;  287,924; 7581,887;99,31549
 524,89; 7512,578;  250,008; 7519,759;99,90122
 525,47; 7647,096;  257,230; 7685,089;99,48851
 526,05; 7671,935;  232,306; 7762,102;98,80252
 526,64; 7807,371;  276,611; 7877,186;99,08146
 527,22; 7873,986;  261,846; 8028,138;98,01512
 527,80; 7980,567;  307,842; 8103,564;98,42226
 528,39; 8005,786;  257,838; 8200,041;97,55414
 528,97; 8201,957;  245,532; 8394,916;97,63222
 529,55; 8380,695;  272,083; 8561,096;97,82361
 530,14; 8546,804;  280,143; 8783,866;97,21226
 530,72; 8595,968;  253,917; 8925,662;96,19807
 531,30; 8775,840;  234,373; 9110,697;96,22753
 531,89; 8830,026;  255,604; 9167,824;96,20973
 532,47; 8934,055;  282,601; 9262,492;96,34253
 533,05; 8941,479;  286,073; 9352,202;95,46969
 533,63; 8971,345;  284,215; 9400,892;95,28833
 534,22; 8983,334;  253,215; 9447,509;94,95149
 534,80; 9033,660;  278,746; 9529,227;94,64280
 535,38; 9122,942;  374,064; 9710,376;93,70807
 535,97; 8994,342;  257,139; 9608,265;93,43477
 536,55; 9091,641;  300,053; 9692,187;93,60586
 537,13; 9020,344;  299,373; 9615,767;93,60887
 537,71; 8971,078;  327,067; 9695,551;92,26690
 538,30; 9042,539;  324,443; 9796,845;92,03680
 538,88; 9159,677;  360,355; 9909,605;92,14674
 539,46; 9262,825;  409,054;10099,918;91,36204
 540,05; 9351,385;  397,358;10193,732;91,40144
 540,63; 9494,002;  432,434;10448,326;90,47190
 541,21; 9631,442;  442,738;10683,091;89,73034
 541,79; 9694,859;  456,430;10800,526;89,31113
 542,38; 9846,119;  488,820;10982,670;89,16936
 542,96; 9985,556;  479,655;11143,102;89,14472
 543,54;10116,428;  505,739;11346,235;88,65544
 544,12;10294,511;  471,352;11547,335;88,68882
 544,70;10307,283;  454,654;11663,109;87,90354
 545,29;10429,153;  463,589;11835,006;87,63695
 545,87;10446,936;  469,661;11863,603;87,56649
 546,45;10430,458;  436,744;11875,588;87,36647
 547,03;10453,688;  419,048;11917,757;87,26754
 547,62;10576,597;  386,968;12101,509;86,98274
 548,20;10661,927;  418,579;12279,323;86,36345
 548,78;10741,921;  381,564;12405,865;86,16182
 549,36;10890,533;  363,720;12594,645;86,06719
 549,94;11017,284;  321,581;12759,556;85,99232
 550,53;11178,263;  347,876;13046,439;85,28829
 551,11;11283,522;  310,639;13202,562;85,11440
 551,69;11531,202;  332,489;13521,845;84,90720
 552,27;11734,408;  281,033;13820,327;84,59359
 552,85;11966,357;  294,562;14147,047;84,25777
 553,44;12263,938;  301,105;14551,817;83,94551
 554,02;12572,823;  319,180;14945,715;83,77680
 554,60;12780,689;  251,792;15256,803;83,49809
 555,18;13052,719;  297,412;15642,772;83,12159
 555,76;13358,922;  282,103;16070,228;82,82693
 556,34;13640,902;  288,325;16493,734;82,39580
 556,93;13918,248;  279,258;16897,367;82,07306
 557,51;14155,342;  262,786;17261,814;81,72559
 558,09;14441,028;  297,643;17660,827;81,45617
 558,67;14651,288;  283,935;18064,453;80,80391
 559,25;14946,984;  293,553;18379,680;81,02028
 559,83;15043,089;  289,239;18741,441;79,95712
 560,41;15311,336;  252,173;19102,714;79,88717
 561,00;15559,024;  280,089;19507,787;79,46315
 561,58;15664,423;  272,173;19840,119;78,66053
 562,16;15868,588;  251,638;20092,333;78,71171
 562,74;16129,813;  233,410;20508,024;78,40545
 563,32;16321,154;  238,239;21016,156;77,40388
 563,90;16649,156;  271,012;21474,043;77,24435
 564,48;16894,540;  260,713;21907,540;76,84187
 565,06;17379,450;  266,782;22562,956;76,75159
 565,65;17917,151;  271,386;23334,054;76,51224
 566,23;18379,398;  305,473;24195,019;75,65621
 566,81;18833,511;  257,784;25032,319;74,97911
 567,39;19535,511;  266,084;26019,305;74,82337
 567,97;19942,141;  288,860;26788,384;74,16466
 568,55;20592,285;  315,624;27659,588;74,15406
 569,13;21019,916;  282,012;28440,792;73,64631
 569,71;21731,500;  265,485;29502,434;73,42085
 570,29;22478,753;  316,643;30731,185;72,86682
 570,87;22919,903;  296,025;31492,880;72,51974
 571,45;23235,111;  278,782;32273,499;71,75037
 572,03;23495,020;  244,390;32821,783;71,37044
 572,61;23948,482;  234,779;33581,636;71,11226
 573,20;24263,596;  267,093;34325,998;70,45588
 573,78;24744,022;  249,086;35037,977;70,41022
 574,36;24924,973;  271,011;35670,059;69,64583
 574,94;25154,607;  339,235;36070,492;69,45004
 575,52;25165,070;  250,610;36282,643;69,14531
 576,10;25497,863;  308,152;36963,834;68,71980
 576,68;25735,108;  273,313;37532,704;68,33658
 577,26;26099,828;  290,914;38402,890;67,71865
 577,84;26250,184;  293,087;38976,887;67,10069
 578,42;26443,844;  352,924;39291,417;67,00547
 579,00;26268,737;  270,393;39393,952;66,45189
 579,58;26306,948;  335,696;39679,751;66,01061
 580,16;26062,672;  278,154;39659,662;65,47367
 580,74;26030,981;  273,768;39791,234;65,17931
 581,32;25869,973;  286,387;39900,661;64,58174
 581,90;25721,792;  303,385;39909,788;64,17752
 582,48;25633,309;  283,308;39897,022;63,99299
 583,06;25529,795;  285,080;40076,268;63,44298
 583,64;25426,024;  273,465;40149,927;63,07620
 584,22;25032,229;  270,608;39925,227;62,44322
 584,80;24663,207;  279,693;39600,651;62,01150
 585,38;24194,241;  298,710;39153,421;61,49970
 585,96;24062,026;  258,238;39216,506;61,10074
 586,54;23912,906;  285,841;39070,183;60,91908
 587,12;23792,776;  259,382;39233,583;60,38198
 587,70;23725,413;  297,007;39368,693;59,96262
 588,28;23563,996;  274,844;39446,530;59,45404
 588,86;23441,429;  274,150;39449,217;59,13782
 589,44;23258,685;  261,217;39444,321;58,69231
 590,02;23213,448;  268,681;39733,089;58,14041
 590,59;23162,642;  241,610;39836,924;57,88824
 591,17;23119,018;  256,746;40021,272;57,49414
 591,75;22926,992;  250,752;40263,182;56,67299
 592,33;22974,205;  269,908;40397,974;56,57959
 592,91;22899,748;  226,364;40687,067;56,03804
 593,49;22953,969;  244,975;41020,424;55,69281
 594,07;22938,859;  268,436;41229,934;55,34569
 594,65;22736,513;  271,609;41226,449;54,85287
 595,23;22822,678;  263,451;41679,496;54,46978
 595,81;22681,234;  246,756;41820,572;53,96300
 596,39;22623,499;  243,832;41948,117;53,66275
 596,97;22472,397;  248,287;42077,886;53,13010
 597,55;22345,068;  242,837;42066,449;52,84630
 598,12;22110,140;  230,357;41993,116;52,39066
 598,70;21955,094;  237,978;42164,393;51,79817
 599,28;21917,314;  260,054;42337,087;51,47050
 599,86;21697,257;  233,670;42309,566;51,01160
 600,44;21645,747;  210,052;42490,235;50,69915
 601,02;21580,480;  268,734;42543,075;50,41296
 601,60;21335,102;  244,059;42515,595;49,89420
 602,18;21187,413;  215,511;42408,879;49,70426
 602,75;21030,309;  210,988;42590,385;49,12604
 603,33;20862,358;  237,670;42588,806;48,69926
 603,91;20714,821;  209,276;42485,132;48,50415
 604,49;20588,172;  245,669;42728,426;47,88414
 605,07;20397,750;  242,060;42636,052;47,54374
 605,65;20277,981;  238,436;42830,708;47,04972
 606,23;20208,386;  274,765;42935,861;46,72552
 606,80;19954,803;  285,219;42912,743;46,14292
 607,38;19841,949;  286,662;42991,091;45,79217
 607,96;19732,461;  300,526;42986,330;45,52318
 608,54;19561,475;  363,128;43156,066;44,86335
 609,12;19381,715;  340,295;43191,052;44,43660
 609,70;19259,234;  340,594;43202,306;44,13879
 610,27;19128,833;  345,835;43276,705;43,75173
 610,85;18980,628;  361,825;43401,480;43,25965
 611,43;18796,456;  353,747;43288,725;42,95497
 612,01;18469,077;  316,830;43065,015;42,46320
 612,59;18397,750;  325,517;43091,254;42,25867
 613,16;18205,273;  306,762;42987,023;41,93627
 613,74;17960,194;  306,593;42923,730;41,42371
 614,32;17850,575;  292,743;42904,712;41,20399
 614,90;17608,556;  283,212;42768,301;40,77982
 615,48;17359,706;  261,530;42346,424;40,62782
 616,05;17156,633;  245,840;42366,190;40,14875
 616,63;16947,945;  268,150;42115,264;39,85889
 617,21;16741,657;  265,835;42047,576;39,43307
 617,79;16500,510;  244,602;41977,402;38,95236
 618,36;16389,782;  268,445;41777,871;38,83777
 618,94;16083,620;  213,144;41495,536;38,44369
 619,52;15869,640;  245,995;41185,045;38,16318
 620,10;15698,595;  215,218;41131,081;37,84199
 620,67;15484,934;  230,919;41037,035;37,38169
 621,25;15303,311;  251,675;40899,928;37,02899
 621,83;15100,335;  240,913;40822,972;36,61574
 622,41;15026,806;  289,837;40782,992;36,39373
 622,98;14695,219;  246,766;40504,620;35,88977
 623,56;14597,787;  254,229;40502,351;35,63783
 624,14;14413,593;  241,365;40371,341;35,31581
 624,72;14217,785;  235,990;40270,150;34,92466
 625,29;14123,161;  230,536;40358,353;34,62093
 625,87;14037,170;  265,371;40282,813;34,41449
 626,45;13816,277;  222,461;40096,950;34,09151
 627,02;13636,073;  246,370;39970,025;33,70713
 627,60;13513,483;  222,207;39961,053;33,44656
 628,18;13355,023;  205,449;39980,206;33,06010
 628,76;13297,913;  211,458;39942,192;32,93786
 629,33;13165,417;  250,839;40010,486;32,48162
 629,91;12966,057;  224,834;39990,235;32,04098
 630,49;12947,292;  253,148;40173,239;31,79888
 631,06;12860,706;  242,688;40285,739;31,51113
 631,64;12727,895;  238,460;40251,522;31,21339
 632,22;12562,764;  211,772;40109,559;30,95659
 632,79;12532,677;  253,310;40497,330;30,51228
 633,37;12456,748;  217,061;40489,172;30,39246
 633,95;12373,277;  233,307;40600,433;30,07390
 634,52;12237,674;  223,606;40657,660;29,71275
 635,10;12149,043;  236,219;40636,225;29,48718
 635,68;12163,863;  240,079;40879,534;29,34041
 636,25;12012,959;  214,623;40865,833;29,02333
 636,83;11920,913;  202,227;41155,346;28,61488
 637,41;11847,277;  228,542;41104,902;28,42409
 637,98;11824,935;  258,235;41412,510;28,10571
 638,56;11669,932;  233,010;41362,044;27,80742
 639,13;11632,866;  218,228;41408,000;27,71231
 639,71;11642,047;  290,687;41663,075;27,43704
 640,29;11315,294;  189,687;41416,880;26,98609
 640,86;11343,192;  215,072;41597,874;26,89069
 641,44;11150,320;  223,302;41674,714;26,36103
 642,02;11120,295;  232,994;41648,400;26,28805
 642,59;11037,962;  214,532;41768,856;26,04646
 643,17;10929,860;  212,532;41708,157;25,82761
 643,74;10788,681;  205,762;41839,074;25,41935
 644,32;10713,117;  240,916;41693,607;25,26302
 644,89;10628,169;  233,762;41793,985;25,01047
 645,47;10536,528;  241,454;41750,364;24,80208
 646,05;10395,042;  236,530;41647,204;24,53114
 646,62;10269,786;  230,838;41632,352;24,24778
 647,20;10216,684;  233,145;41912,576;23,95315
 647,77;10021,889;  209,991;41661,262;23,67092
 648,35; 9983,249;  205,606;41558,564;23,64436
 648,92; 9890,223;  210,144;41568,558;23,40534
 649,50; 9762,275;  197,452;41435,244;23,19432
 650,08; 9607,250;  199,913;41342,700;22,86509
 650,65; 9554,302;  201,836;41655,540;22,56123
 651,23; 9634,353;  186,066;42456,149;22,35219
 651,80; 9804,559;  190,066;43651,758;22,12176
 652,38; 9773,918;  205,912;44067,290;21,81420
 652,95; 9821,278;  185,219;44492,438;21,74828
 653,53; 9834,560;  218,450;44825,355;21,55745
 654,10; 9782,535;  252,526;44913,503;21,33856
 654,68; 9653,895;  203,064;44812,497;21,18572
 655,25; 9575,177;  183,833;45006,568;20,95219
 655,83; 9453,767;  185,910;45010,100;20,67602
 656,40; 9432,434;  230,217;45074,863;20,52021
 656,98; 9331,794;  205,371;44870,934;20,43279
 657,55; 9176,307;  208,371;44806,620;20,10827
 658,13; 8995,359;  220,063;44368,691;19,87671
 658,70; 8880,488;  224,293;44015,300;19,76706
 659,28; 8568,462;  203,293;42999,756;19,54640
 659,85; 8273,899;  235,908;42135,903;19,18375
 660,43; 8214,104;  235,985;42116,820;19,04957
 661,00; 8183,156;  201,754;42242,045;18,98513
 661,58; 8148,900;  200,138;42595,193;18,74927
 662,15; 8134,952;  187,368;42820,879;18,64164
 662,73; 8156,850;  268,522;43137,796;18,40089
 663,30; 8080,132;  210,522;43324,944;18,25285
 663,88; 8078,415;  211,137;43483,476;18,18085
 664,45; 8012,543;  205,136;43745,778;17,93131
 665,03; 7999,287;  203,982;44151,541;17,73774
 665,60; 8097,493;  312,597;44532,842;17,60482
 666,17; 8007,314;  199,366;44733,375;17,53255
 666,75; 8004,058;  190,981;45084,753;17,40348
 667,32; 8035,264;  232,827;45466,286;17,24926
 667,90; 7958,161;  212,827;45814,818;16,98464
 668,47; 8015,675;  216,365;46034,812;17,02220
 669,05; 7926,034;  197,057;46393,652;16,73062
 669,62; 7915,317;  181,134;46427,800;16,72376
 670,19; 7885,984;  174,826;46592,409;16,61258
 670,77; 7915,728;  207,441;46742,326;16,56453
 671,34; 7777,318;  190,056;46687,474;16,31760
 671,92; 7806,139;  180,209;47078,391;16,26061
 672,49; 7742,806;  225,594;47184,615;16,00803
 673,06; 7692,935;  176,824;47107,994;16,01518
 673,64; 7610,602;  180,978;47107,526;15,83245
 674,21; 7569,961;  177,516;47029,135;15,77842
 674,79; 7652,090;  215,439;47384,514;15,76595
 675,36; 7562,757;  218,054;47427,277;15,55777
 675,93; 7482,424;  192,746;47219,425;15,50115
 676,51; 7522,784;  217,669;47490,726;15,45302
 677,08; 7505,451;  202,668;47441,028;15,45943
 677,65; 7421,041;  203,976;47746,253;15,18031
 678,23; 7432,631;  203,360;47852,708;15,17182
 678,80; 7431,683;  203,975;47992,471;15,12437
 679,38; 7368,735;  201,206;48148,696;14,94871
 679,95; 7382,479;  214,898;48439,228;14,86300
 680,52; 7370,915;  200,436;48748,607;14,76982
 681,10; 7422,274;  210,512;49157,370;14,73386
 681,67; 7370,941;  220,435;49519,441;14,50436
 682,24; 7336,993;  177,743;49480,742;14,52092
 682,82; 7404,891;  194,512;50159,044;14,43100
 683,39; 7493,327;  251,204;50406,269;14,43947
 683,96; 7453,302;  205,280;50721,878;14,34780
 684,54; 7439,123;  182,049;51152,949;14,23768
 685,11; 7532,021;  251,587;51550,635;14,19214
 685,68; 7509,765;  198,664;51875,936;14,14761
 686,25; 7471,355;  181,433;52115,315;14,03693
 686,83; 7510,330;  202,433;52100,847;14,08116
 687,40; 7535,997;  183,586;52541,457;14,04261
 687,97; 7556,049;  239,432;52955,143;13,87939
 688,55; 7524,639;  189,739;53129,521;13,85518
 689,12; 7522,537;  162,585;53432,054;13,81645
 689,69; 7520,050;  185,277;53480,201;13,76261
 690,26; 7478,564;  199,585;53416,503;13,67794
 690,84; 7510,077;  203,584;53664,574;13,66696
 691,41; 7514,436;  225,507;53752,798;13,61722
 691,98; 7509,565;  206,199;54093,331;13,55308
 692,56; 7468,155;  198,353;54188,786;13,46498
 693,13; 7533,515;  248,506;54337,780;13,46849
 693,70; 7536,413;  220,583;54451,851;13,49006
 694,27; 7518,233;  194,506;54675,076;13,44283
 694,84; 7495,362;  186,275;54652,223;13,41955
 695,42; 7562,183;  249,274;54733,140;13,42215
 695,99; 7557,466;  210,966;54942,288;13,42284
 696,56; 7515,825;  219,581;54864,744;13,35204
 697,13; 7576,184;  224,966;55168,276;13,37964
 697,71; 7580,159;  202,581;55269,501;13,39748
 698,28; 7599,288;  196,965;55665,648;13,34505
 698,85; 7599,801;  164,349;55652,873;13,39998
 699,42; 7627,853;  175,964;55837,175;13,38794
 699,99; 7642,828;  223,733;55935,707;13,31688
 700,57; 7678,495;  216,810;56009,085;13,37405
 701,14; 7679,623;  195,041;56150,541;13,37596
 701,71; 7739,675;  219,656;56429,842;13,37839
 702,28; 7742,035;  202,194;56409,529;13,41434
 702,85; 7705,471;  203,578;56510,523;13,32321
 703,43; 7755,830;  227,809;56596,978;13,35486
 704,00; 7831,421;  227,501;56979,357;13,39854
 704,57; 7819,857;  196,654;56899,427;13,44414
 705,14; 7878,601;  229,423;57299,114;13,40322
 705,71; 7907,114;  231,038;57249,569;13,46242
 706,28; 7890,704;  204,576;57169,871;13,49265
 706,86; 7943,141;  237,114;57404,249;13,47982
 707,43; 7957,346;  272,114;57388,089;13,45549
 708,00; 8002,783;  242,268;57321,698;13,59599
 708,57; 7953,450;  202,037;57222,846;13,59401
 709,14; 8011,271;  223,652;57421,071;13,61533
 709,71; 8022,323;  201,575;57612,603;13,62238
 710,28; 8093,297;  217,651;57759,136;13,68690
 710,86; 8119,118;  209,574;57813,745;13,73085
 711,43; 8154,632;  238,343;57849,277;13,74095
 712,00; 8163,145;  212,496;57968,963;13,76582
 712,57; 8271,427;  245,112;58123,650;13,86752
 713,14; 8254,556;  207,419;58235,182;13,86774
 713,71; 8279,300;  233,111;58138,637;13,89537
 714,28; 8327,275;  221,188;58170,324;13,98828
 714,85; 8292,711;  209,726;57925,241;14,00487
 715,42; 8387,609;  207,649;58101,234;14,12930
 716,00; 8508,045;  311,879;58248,382;14,14681
 716,57; 8475,559;  220,725;58306,761;14,21139
 717,14; 8512,841;  222,340;58310,908;14,27217
 717,71; 8506,585;  204,109;58327,210;14,28430
 718,28; 8615,945;  251,724;58485,589;14,36316
 718,85; 8619,227;  199,647;58430,429;14,45899
 719,42; 8714,587;  238,646;58705,422;14,49702
 719,99; 8644,561;  204,185;58397,109;14,50413
 720,56; 8763,767;  243,723;58726,256;14,56853
 721,13; 8772,280;  204,184;58891,173;14,59965
 721,70; 8827,871;  199,414;58717,244;14,74500
 722,27; 8868,999;  237,030;58728,084;14,75776
 722,84; 9029,282;  287,337;58954,847;14,90083
 723,41; 8961,564;  191,644;58861,226;14,94798
 723,98; 9099,693;  214,490;59115,527;15,08497
 724,55; 9163,514;  247,336;59227,291;15,11730
 725,12; 9169,489;  166,336;59275,669;15,23136
 725,69; 9244,771;  205,720;59482,432;15,24891
 726,27; 9313,592;  217,104;59381,580;15,37491
 726,84; 9450,644;  219,181;59790,728;15,49643
 727,41; 9556,926;  248,950;59758,260;15,64121
 727,98; 9599,824;  237,642;60177,562;15,61928
 728,55; 9676,722;  269,334;59999,633;15,74978
 729,12; 9669,082;  211,488;60105,857;15,79046
 729,69; 9845,287;  233,641;60246,159;16,01607
 730,26; 9885,954;  231,333;60551,153;16,00572
 730,82; 9910,544;  226,717;60242,839;16,13538
 731,39;10041,288;  221,179;60448,448;16,30509
 731,96;10130,263;  202,563;60680,673;16,41536
 732,53;10269,469;  225,255;60965,205;16,53642
 733,10;10347,367;  238,101;61138,430;16,59969
 733,67;10431,726;  233,716;61312,962;16,69636
 734,24;10477,009;  208,946;60974,879;16,89773
 734,81;10548,137;  250,715;61014,565;16,94663
 735,38;10548,651;  223,177;60774,713;17,05237
 735,95;10592,548;  216,253;60544,707;17,19967
 736,52;10717,831;  228,714;60737,239;17,33494
 737,09;10743,344;  239,099;60437,156;17,44948
 737,66;10870,396;  282,868;60610,843;17,54995
 738,23;10975,063;  226,637;60659,913;17,78561
 738,80;11136,192;  312,713;61133,138;17,79580
 739,37;11161,705;  249,636;61151,440;17,91748
 739,94;11244,526;  224,174;61236,049;18,06263
 740,51;11521,039;  378,405;61342,350;18,27742
 741,07;11453,629;  233,404;61234,037;18,39362
 741,64;11532,297;  253,635;61475,954;18,42247
 742,21;11620,502;  243,096;61487,255;18,57713
 742,78;11679,938;  201,865;61203,557;18,81599
 743,35;11775,836;  228,788;61644,551;18,80144
 743,92;11967,427;  267,711;61799,852;19,01399
 744,49;12003,709;  273,095;61586,154;19,13233
 745,06;12064,761;  233,018;61602,532;19,27951
 745,63;12123,428;  211,710;61548,911;19,42005
 746,19;12234,787;  224,556;61547,828;19,58511
 746,76;12378,839;  241,401;61671,976;19,75798
 747,33;12398,968;  224,324;61610,893;19,83275
 747,90;12532,173;  253,939;61811,579;19,94591
 748,47;12561,533;  237,324;61720,880;20,04472
 749,04;12643,354;  236,477;61735,720;20,17403
 749,61;12809,098;  272,862;61687,022;20,41262
 750,17;12832,073;  274,169;61712,247;20,43994
 750,74;12947,740;  242,246;61661,702;20,68643
 751,31;12963,945;  219,014;61678,234;20,73722
 751,88;13031,151;  204,783;61478,690;20,93284
 752,45;13182,049;  225,860;61681,915;21,08204
 753,02;13218,793;  259,091;61501,755;21,16123
 753,58;13298,921;  226,244;61449,902;21,35233
 754,15;13413,512;  227,013;61555,666;21,50137
 754,72;13406,409;  220,090;61234,506;21,61181
 755,29;13498,615;  200,628;61164,653;21,81284
 755,86;13723,974;  235,320;61458,032;22,03211
 756,42;13747,795;  259,089;61205,564;22,13205
 756,99;13835,232;  195,550;61184,327;22,36425
 757,56;13895,130;  210,550;61123,552;22,46578
 758,13;13975,105;  183,396;61024,930;22,66825
 758,70;14128,464;  209,472;61085,078;22,86465
 759,26;14204,670;  206,241;61143,457;22,97189
 759,83;14251,029;  216,010;61259,835;22,99171
 760,40;14379,465;  193,856;60955,598;23,34628
 760,97;14442,286;  196,240;61145,669;23,37355
 761,53;14496,107;  191,855;60667,125;23,65306
 762,10;14584,928;  170,163;60646,965;23,83520
 762,67;14644,518;  212,701;60721,805;23,85065
 763,24;14599,570;  176,854;60169,491;24,04081
 763,80;14722,776;  215,239;60354,408;24,12327
 764,37;14824,827;  202,315;60257,786;24,34834
 764,94;14778,033;  190,084;59855,396;24,44963
 765,50;14870,854;  200,546;59891,774;24,57699
 766,07;15044,983;  221,468;59820,076;24,87225
 766,64;15001,881;  200,853;59542,147;24,94221
 767,21;15009,548;  207,160;59496,371;24,96641
 767,77;15181,138;  225,160;59327,596;25,30518
 768,34;15214,497;  227,390;59309,821;25,36644
 768,91;15335,087;  238,082;59146,353;25,62799
 769,47;15359,370;  230,620;59197,885;25,65618
 770,04;15512,191;  234,159;59072,802;25,96598
 770,61;15421,396;  210,158;58792,181;25,96571
 771,18;15619,448;  218,696;58710,329;26,32984
 771,74;15688,192;  226,312;58958,399;26,32612
 772,31;15710,552;  232,927;58739,701;26,45442
 772,88;15753,911;  192,542;58311,310;26,77512
 773,44;15818,347;  208,618;58177,304;26,92786
 774,01;15920,091;  237,387;58317,606;27,00180
 774,58;15923,989;  210,310;57905,061;27,23589
 775,14;16098,272;  201,079;58134,440;27,44048
 775,71;16181,785;  196,848;57962,664;27,67197
 776,27;16233,683;  281,694;57820,658;27,72380
 776,84;16389,196;  325,770;57942,729;27,87968
 777,41;16389,787;  228,309;57712,800;28,11450
 777,97;16414,607;  219,924;57490,563;28,27746
 778,54;16531,890;  228,077;57455,018;28,48975
 779,11;16585,403;  258,308;57537,012;28,50465
 779,67;16645,763;  220,769;57381,006;28,73500
 780,24;16727,814;  234,307;57179,616;28,96377
 780,80;16836,712;  252,538;57198,686;29,12256
 781,37;16880,687;  246,768;57157,911;29,22788
 781,94;16928,739;  233,922;56900,982;29,46124
 782,50;17070,791;  228,767;56857,360;29,74120
 783,07;17170,919;  256,690;56928,047;29,84617
 783,63;17133,740;  231,151;56640,963;29,96392
 784,20;17213,946;  261,997;56608,727;30,08506
 784,77;17275,998;  238,151;56367,105;30,35483
 785,33;17387,434;  207,228;56149,484;30,71061
 785,90;17436,178;  231,535;56080,016;30,80593
 786,46;17533,537;  257,381;56036,087;30,97267
 787,03;17503,897;  221,457;55744,850;31,12641
 787,59;17682,948;  224,149;55683,152;31,48055
 788,16;17719,769;  245,457;55596,915;31,56974
 788,73;17798,360;  250,303;55503,139;31,75956
 789,29;17803,104;  225,764;55116,133;32,02263
 789,86;17870,002;  276,379;54994,127;32,15341
 790,42;17970,130;  246,686;54897,890;32,43011
 790,99;17883,413;  245,840;54468,269;32,52819
 791,55;18006,772;  231,378;54523,263;32,74043
 792,12;18077,208;  265,762;54447,795;32,87334
 792,68;18087,337;  244,993;54199,635;33,06916
 793,25;18133,774;  260,531;53951,014;33,28941
 793,81;18154,594;  337,223;53469,931;33,53372
 794,38;18010,877;  214,069;53287,771;33,53225
 794,94;18161,083;  226,684;53089,995;33,92598
 795,51;18144,596;  252,068;52963,912;33,94404
 796,07;18036,109;  244,453;52556,214;34,01082
 796,64;18277,007;  270,914;52788,977;34,28552
 797,20;18195,366;  242,375;52175,894;34,56918
 797,77;18163,187;  219,452;51855,349;34,75051
 798,33;18193,085;  250,451;51727,651;34,85550
 798,90;18280,829;  264,143;51666,260;35,05047
 799,46;18119,419;  222,220;51127,408;35,15791
 800,03;18212,933;  239,220;51086,556;35,34839
 800,59;18224,369;  256,527;50791,934;35,55496
 801,15;18260,113;  262,373;50645,082;35,72206
 801,72;18166,088;  239,296;50239,922;35,85314
 802,28;18206,140;  260,757;49976,916;36,09567
 802,85;18158,730;  249,449;49804,602;36,14010
 803,41;18223,243;  226,987;49520,442;36,50841
 803,98;18133,526;  232,987;49081,128;36,64528
 804,54;18138,731;  247,064;48817,584;36,83648
 805,11;18151,552;  265,909;48568,578;37,02827
 805,67;18180,450;  265,294;48496,802;37,14409
 806,23;18097,733;  254,678;48113,642;37,28258
 806,80;18133,554;  270,909;47901,790;37,50223
 807,36;18222,221;  261,062;47824,015;37,76292
 807,93;18226,426;  285,446;47622,701;37,90034
 808,49;18066,401;  229,138;47175,464;37,99501
 809,05;18057,222;  230,830;47043,073;38,08062
 809,62;18078,658;  264,907;46914,375;38,18640
 810,18;18181,402;  251,907;46860,907;38,46788
 810,74;18112,531;  220,445;46486,132;38,67247
 811,31;18182,352;  222,522;46325,049;38,95628
 811,87;18219,096;  258,598;46123,812;39,15930
 812,44;18208,686;  266,290;46084,806;39,15971
 813,00;18149,123;  203,598;45838,492;39,32413
 813,56;18345,021;  257,213;45856,178;39,66714
 814,13;18381,457;  245,905;45853,095;39,76468
 814,69;18324,201;  241,597;45567,474;39,89466
 815,25;18266,406;  216,135;45001,699;40,30377
 815,82;18257,227;  254,904;44987,308;40,24448
 816,38;18402,048;  289,904;44849,609;40,64691
 816,94;18219,408;  234,980;44529,142;40,60225
 817,51;18163,998;  219,672;44262,443;40,74295
 818,07;18163,511;  232,287;43942,591;41,02288
 818,63;18146,025;  239,595;43801,893;41,10534
 819,20;18222,846;  249,441;43702,271;41,36302
 819,76;18126,282;  223,440;43231,188;41,62701
 820,32;18117,641;  275,209;43110,413;41,65366
 820,89;18114,693;  252,824;42955,022;41,82892
 821,45;18027,899;  234,516;42550,862;42,04848
 822,01;18018,181;  255,285;42356,702;42,19073
 822,57;18007,541;  257,208;42212,927;42,30730
 823,14;17939,977;  214,054;41866,998;42,55623
 823,70;17954,490;  240,361;41616,761;42,81216
 824,26;17983,234;  213,438;41400,678;43,14394
 824,82;18017,824;  265,976;41279,672;43,28273
 825,39;17924,415;  232,437;40941,666;43,45938
 825,95;18033,082;  242,129;41110,583;43,53224
 826,51;17911,903;  250,667;40510,961;43,86763
 827,08;18051,262;  286,283;40593,032;44,07445
 827,64;17971,237;  261,359;40360,026;44,16575
 828,20;17945,442;  221,743;40133,635;44,40706
 828,76;17986,571;  269,820;40193,398;44,37666
 829,32;18001,392;  276,358;39973,469;44,65069
 829,89;17993,290;  224,743;39838,232;44,85479
 830,45;17999,649;  247,742;39738,226;44,95237
 831,01;18021,393;  241,204;39576,143;45,20203
 831,57;18012,676;  237,126;39425,522;45,35922
 832,14;18173,497;  230,203;39358,285;45,85784
 832,70;18034,933;  213,433;39137,432;45,78538
 833,26;18042,370;  198,125;39029,811;45,95279
 833,82;18133,344;  243,510;38898,420;46,28089
 834,38;18198,550;  228,048;38980,568;46,37247
 834,95;18212,217;  215,278;38781,562;46,66495
 835,51;18212,653;  191,663;38626,402;46,88725
 836,07;18338,090;  238,124;38760,319;46,98581
 836,63;18457,295;  248,354;38652,005;47,41461
 837,19;18385,732;  252,970;38504,614;47,40388
 837,75;18270,399;  207,277;38093,608;47,67715
 838,32;18415,835;  253,123;38318,448;47,71459
 838,88;18542,502;  251,122;38316,135;48,05300
 839,44;18530,631;  252,122;38216,667;48,14626
 840,00;18662,990;  255,045;38089,507;48,65391
 840,56;18493,734;  223,660;37756,116;48,67807
 841,12;18620,094;  225,967;37779,802;48,98069
 841,68;18578,915;  208,967;37553,950;49,18987
 842,25;18600,890;  228,198;37652,636;49,09277
 842,81;18564,095;  205,120;37343,015;49,43461
 843,37;18606,685;  199,428;37319,624;49,58826
 843,93;18641,891;  227,274;37173,772;49,84131
 844,49;18788,174;  250,889;37314,843;50,01432
 845,05;18753,533;  191,427;37014,375;50,40907
 845,61;18895,200;  244,196;37150,600;50,53596
 846,17;18785,944;  212,965;36982,901;50,51132
 846,73;18841,534;  242,580;36912,203;50,72033
 847,29;18824,201;  225,733;36677,735;51,02180
 847,86;18819,484;  223,810;36606,268;51,11165
 848,42;18790,151;  218,656;36341,108;51,41261
 848,98;18877,510;  240,425;36353,025;51,60826
 849,54;18917,024;  230,040;36393,711;51,67336
 850,10;18888,537;  244,193;36184,012;51,87656
 850,66;18911,050;  222,732;35997,929;52,23820
 851,22;18875,256;  199,654;35966,385;52,21501
 851,78;19017,461;  263,270;35914,994;52,60388
 852,34;18909,129;  243,577;35736,219;52,58992
 852,90;18951,796;  227,730;35670,059;52,82967
 853,46;18833,386;  215,961;35368,130;52,96238
 854,02;18921,361;  240,499;35407,893;53,11984
 854,58;18903,643;  225,114;35108,425;53,54575
 855,14;18921,849;  222,806;35070,804;53,65887
 855,70;18947,747;  196,575;34870,336;54,07885
 856,26;18918,183;  228,113;34736,253;54,16134
 856,82;18916,773;  227,728;34633,093;54,32015
 857,38;18889,056;  282,728;34582,010;54,24699
 857,94;18906,723;  221,036;34393,465;54,68059
 858,50;18889,467;  246,343;34317,767;54,71777
 859,06;18806,442;  217,420;34104,146;54,85635
 859,62;18859,878;  248,727;34009,909;55,12589
 860,18;18789,007;  227,573;33889,672;55,14045
 860,74;18756,058;  201,265;33764,435;55,28320
 861,30;18758,264;  208,803;33450,352;55,80204
 861,86;18925,393;  284,803;33550,961;56,03469
 862,42;18850,675;  227,033;33349,032;56,22741
 862,98;18881,342;  257,956;33354,564;56,26977
 863,54;18766,009;  220,648;33068,020;56,45919
 864,10;18849,753;  224,878;33158,475;56,55281
 864,66;18757,036;  205,263;32801,777;56,91337
 865,22;18757,011;  230,186;32700,694;57,05739
 865,78;18653,755;  228,031;32483,534;57,12428
 866,34;18663,114;  216,416;32380,682;57,35153
 866,90;18673,935;  232,569;32365,983;57,39000
 867,45;18610,525;  233,877;32121,823;57,62882
 868,01;18602,423;  236,030;31924,817;57,95865
 868,57;18504,090;  233,414;31850,042;57,78819
 869,13;18552,296;  213,799;31633,266;58,36667
 869,69;18465,425;  231,491;31572,799;58,17860
 870,25;18487,707;  195,337;31446,023;58,53430
 870,81;18510,451;  225,183;31277,940;58,88452
 871,37;18494,349;  232,028;31215,396;58,94234
 871,93;18502,401;  248,259;31081,851;59,20212
 872,49;18427,683;  278,105;30774,999;59,51287
 873,04;18286,197;  202,720;30672,762;59,34838
 873,60;18365,402;  219,412;30479,371;59,96700
 874,16;18360,454;  231,335;30434,058;60,02478
 874,72;18365,608;  233,565;30331,365;60,24375
 875,28;18302,838;  240,950;30233,750;60,22075
 875,84;18348,377;  239,488;30124,288;60,59565
 876,40;18381,300;  219,642;30089,135;60,80337
 876,95;18347,915;  244,181;30094,596;60,64818
 877,51;18465,992;  262,258;29995,904;61,22268
 878,07;18489,300;  278,796;30104,904;61,05558
 878,63;18571,838;  230,027;30106,135;61,39291
 879,19;18671,608;  242,335;30152,519;61,61538
 879,75;18651,608;  231,796;30113,365;61,64272
 880,30;18799,223;  232,027;30041,827;62,28554
 880,86;18961,454;  272,181;30242,365;62,35955
 881,42;18964,915;  212,488;30266,058;62,39667
 881,98;19119,377;  235,412;30321,673;62,76607
 882,54;19191,531;  228,335;30386,904;62,87830
 883,09;19308,838;  243,796;30518,673;62,97315
 883,65;19390,531;  210,642;30670,750;62,96724
 884,21;19665,223;  253,335;30906,904;63,32668
 884,77;19727,300;  213,335;30947,519;63,49271
 885,32;19930,838;  229,873;31118,288;63,78108
 885,88;20080,300;  259,104;31227,212;64,00519
 886,44;20269,608;  236,565;31341,212;64,40531
 887,00;20357,915;  263,104;31300,596;64,74367
 887,56;20450,992;  225,335;31517,904;64,63406
 888,11;20581,454;  223,950;31516,212;65,05603
 888,67;20743,992;  257,565;31685,904;65,18457
 889,23;20779,992;  227,488;31733,135;65,23435
 889,79;20829,300;  212,719;31565,750;65,75626
 890,34;20843,838;  244,335;31564,365;65,77102
 890,90;21057,608;  319,335;31753,981;65,97266
 891,46;20971,146;  228,796;31630,442;66,05498
 892,01;21064,762;  246,335;31583,519;66,43362
 892,57;20984,454;  271,027;31485,519;66,35837
 893,13;20960,762;  249,488;31315,212;66,66921
 893,69;20964,685;  212,796;31272,673;66,81253
 894,24;20914,762;  237,950;31211,365;66,75664
 894,80;20850,685;  238,565;31004,058;66,99753
 895,36;20855,146;  228,796;30898,288;67,25364
 895,91;20740,838;  237,642;30537,827;67,66690
 896,47;20742,915;  260,027;30529,827;67,66774
 897,03;20709,377;  237,027;30303,904;68,08938
 897,58;20636,146;  241,642;30312,750;67,82093
 898,14;20559,377;  245,258;29990,442;68,29381
 898,70;20496,146;  205,181;29772,596;68,62610
 899,25;20532,915;  237,950;29750,288;68,76773
 899,81;20457,608;  246,950;29594,673;68,86619
 900,37;20387,531;  206,719;29340,827;69,26868
 900,92;20412,838;  221,796;29260,827;69,53070
 901,48;20335,762;  222,258;29132,135;69,57312
 902,03;20236,300;  231,950;29017,981;69,49326
 902,59;20155,531;  227,335;28905,673;69,48867
 903,15;20227,300;  250,873;28718,212;70,17315
 903,70;20026,762;  224,181;28494,519;70,04720
 904,26;19964,762;  230,873;28338,058;70,20941
 904,82;20008,992;  221,335;28354,596;70,33546
 905,37;19935,300;  228,796;28208,288;70,43196
 905,93;19833,454;  213,488;28030,365;70,53260
 906,48;19847,838;  245,796;27939,365;70,78193
 907,04;19890,838;  252,104;27864,827;71,12205
 907,60;19802,608;  245,796;27555,904;71,61016
 908,15;19718,377;  224,104;27562,596;71,30705
 908,71;19817,762;  241,873;27514,058;71,77969
 909,26;19716,223;  232,181;27271,135;72,05916
 909,82;19668,223;  245,950;27185,212;72,09653
 910,37;19645,223;  277,181;27060,750;72,31315
 910,93;19553,531;  225,950;26855,442;72,57961
 911,48;19496,454;  214,104;26728,904;72,72297
 912,04;19501,915;  219,950;26546,981;73,24018
 912,60;19597,531;  238,104;26595,135;73,45071
 913,15;19482,531;  238,873;26404,827;73,54464
 913,71;19430,915;  216,950;26202,827;73,94003
 914,26;19328,300;  200,719;26087,288;73,88998
 914,82;19316,838;  238,565;26018,519;74,00429
 915,37;19320,454;  211,488;25997,904;74,10478
 915,93;19289,685;  273,258;25806,673;74,47663
 916,48;19200,454;  208,412;25663,750;74,60927
 917,04;19128,146;  239,488;25524,673;74,70247
 917,59;19171,146;  256,104;25455,135;75,06258
 918,15;19006,377;  193,950;25229,673;75,14234
 918,70;19034,992;  217,335;25166,904;75,42278
 919,26;18937,685;  230,488;25054,212;75,36015
 919,81;18832,069;  205,335;24844,288;75,59872
 920,37;18800,685;  223,796;24869,212;75,37665
 920,92;18741,069;  240,181;24722,135;75,56949
 921,48;18605,915;  214,950;24481,212;75,78821
 922,03;18639,223;  224,719;24464,288;75,96878
 922,59;18553,454;  233,873;24275,135;76,20058
 923,14;18506,992;  233,565;24151,519;76,40046
 923,69;18443,915;  247,950;24129,827;76,19152
 924,25;18470,838;  257,488;24016,519;76,65864
 924,80;18323,223;  225,796;23773,058;76,85576
 925,36;18294,069;  213,796;23715,750;76,93094
 925,91;18190,992;  220,950;23554,596;77,01343
 926,47;18204,300;  206,565;23505,519;77,24696
 927,02;18235,531;  308,565;23399,212;77,63735
 927,57;18056,454;  224,488;23133,981;77,83658
 928,13;17964,454;  210,642;23119,058;77,49908
 928,68;17954,685;  223,642;23056,904;77,65444
 929,24;17825,223;  198,719;22802,135;77,98160
 929,79;17749,300;  198,335;22770,904;77,75351
 930,34;17695,915;  214,873;22576,365;78,17476
 930,90;17616,838;  205,950;22459,750;78,23782
 931,45;17687,454;  222,642;22482,288;78,45952
 932,01;17620,762;  226,104;22355,827;78,60314
 932,56;17512,762;  236,719;22221,212;78,58286
 933,11;17559,377;  254,719;22291,750;78,52536
 933,67;17372,454;  219,258;21968,750;78,86711
 934,22;17359,146;  234,565;21936,596;78,90773
 934,77;17325,454;  246,719;21783,442;79,30053
 935,33;17199,685;  225,027;21639,212;79,26829
 935,88;17168,531;  237,950;21579,519;79,33147
 936,43;17194,146;  232,335;21484,750;79,81122
 936,99;17124,992;  232,950;21357,212;79,96513
 937,54;17021,838;  213,181;21167,135;80,21712
 938,09;16978,762;  234,488;21117,596;80,18094
 938,65;16854,146;  230,565;20960,904;80,18963
 939,20;16847,454;  191,796;20899,135;80,43360
 939,75;16683,762;  205,642;20820,904;79,93165
 940,31;16668,300;  202,027;20736,135;80,18986
 940,86;16698,685;  224,565;20640,904;80,69086
 941,41;16732,454;  322,488;20687,058;80,58096
 941,96;16553,608;  210,104;20382,596;81,01876
 942,52;16572,300;  224,412;20334,212;81,29314
 943,07;16438,531;  201,796;20198,981;81,19510
 943,62;16397,069;  208,565;20065,365;81,52625
 944,18;16298,992;  207,642;20067,750;81,02348
 944,73;16327,454;  233,027;19904,519;81,81599
 945,28;16187,608;  182,181;19787,288;81,63907
 945,83;16214,300;  202,642;19727,981;82,00451
 946,39;16168,685;  210,412;19667,519;82,01770
 946,94;16137,454;  247,950;19561,519;82,27119
 947,49;16042,608;  216,796;19444,904;82,30561
 948,04;16080,300;  266,565;19358,135;82,83098
 948,59;15978,069;  234,796;19262,673;82,73794
 949,15;15904,838;  201,104;19211,058;82,60796
 949,70;15970,531;  213,027;19100,981;83,42621
 950,25;15877,069;  233,027;19043,904;83,16488
 950,80;15804,223;  188,642;18873,827;83,57199
 951,36;15711,762;  179,335;18800,288;83,41370
 951,91;15755,762;  233,412;18795,442;83,62420
 952,46;15587,838;  207,412;18571,981;83,75055
 953,01;15651,069;  223,950;18566,827;84,10414
 953,56;15556,992;  189,565;18417,058;84,30906
 954,11;15510,992;  224,642;18398,288;84,11273
 954,67;15488,069;  213,796;18288,827;84,50482
 955,22;15324,992;  194,181;18158,981;84,22477
 955,77;15439,608;  236,873;18057,981;85,30746
 956,32;15339,300;  277,950;18018,904;84,89594
 956,87;15262,146;  201,642;17865,519;85,26160
 957,42;15236,838;  216,181;17850,981;85,17623
 957,98;15162,377;  211,719;17736,365;85,31218
 958,53;15140,454;  239,950;17642,212;85,62395
 959,08;15070,300;  209,873;17533,750;85,78003
 959,63;15029,223;  219,335;17419,365;86,10385
 960,18;15017,762;  223,027;17410,288;86,07965
 960,73;14973,377;  222,335;17321,904;86,26558
 961,28;14931,146;  186,719;17229,673;86,51333
 961,83;14898,838;  243,950;17205,596;86,40015
 962,39;14752,377;  200,335;17013,981;86,54900
 962,94;14708,300;  221,950;16965,827;86,51730
 963,49;14594,762;  226,104;16777,750;86,81105
 964,04;14608,223;  232,335;16730,135;87,13822
 964,59;14618,223;  195,181;16633,212;87,74191
 965,14;14576,377;  249,335;16582,827;87,71573
 965,69;14431,838;  217,027;16489,750;87,35361
 966,24;14356,069;  210,412;16394,135;87,40670
 966,79;14345,762;  239,488;16254,904;88,07935
 967,34;14220,454;  185,181;16132,519;88,01013
 967,89;14236,146;  210,335;16050,442;88,54619
 968,44;14183,223;  216,104;16013,750;88,41266
 968,99;14178,377;  236,027;15961,135;88,66299
 969,55;14139,377;  219,412;15833,904;89,14773
 970,10;14035,223;  232,642;15723,904;89,09914
 970,65;13996,454;  241,796;15646,827;89,28679
 971,20;13902,685;  216,258;15527,673;89,38708
 971,75;13823,300;  195,104;15326,981;90,06283
 972,30;13744,223;  220,719;15239,596;90,04338
 972,85;13647,838;  203,796;15149,519;89,95244
 973,40;13561,762;  208,719;15022,288;90,14061
 973,95;13538,608;  221,181;15008,827;90,05779
 974,50;13541,300;  252,412;14953,596;90,39332
 975,05;13454,992;  223,335;14782,596;90,88138
 975,60;13348,531;  241,796;14703,981;90,62763
 976,15;13300,608;  212,873;14616,288;90,86549
 976,70;13262,685;  222,412;14529,981;91,14248
 977,25;13222,838;  243,027;14485,827;91,13244
 977,80;13103,300;  224,181;14321,904;91,35602
 978,35;13003,069;  243,027;14164,904;91,65461
 978,89;12899,992;  196,104;14069,596;91,56951
 979,44;12938,146;  234,258;14051,058;91,94523
 979,99;12831,300;  212,796;13923,981;92,03073
 980,54;12734,531;  238,104;13784,212;92,25105
 981,09;12680,838;  247,104;13719,365;92,29137
 981,64;12465,531;  231,950;13610,365;91,44267
 982,19;12540,454;  266,950;13503,827;92,72205
 982,74;12401,146;  230,950;13377,981;92,56992
 983,29;12293,300;  221,104;13220,519;92,86722
 983,84;12231,300;  218,873;13114,904;93,14825
 984,39;12252,685;  319,642;13130,442;93,14830
 984,94;12062,069;  194,873;12941,673;93,09941
 985,49;11999,992;  243,565;12824,981;93,44280
 986,03;11943,300;  246,719;12732,442;93,67964
 986,58;11824,992;  285,950;12591,904;93,76796
 987,13;11684,300;  229,642;12498,288;93,36530
 987,68;11559,454;  252,104;12396,365;93,10858
 988,23;11575,454;  234,258;12288,981;94,08093
 988,78;11404,915;  210,719;12097,058;94,17699
 989,33;11411,685;  246,412;12040,596;94,66761
 989,88;11301,762;  263,412;12016,519;93,91856
 990,42;11198,992;  214,873;11778,135;94,99153
 990,97;11110,377;  229,950;11706,981;94,80176
 991,52;11042,685;  246,335;11632,058;94,82358
 992,07;10961,146;  275,719;11520,442;95,02615
 992,62;10872,377;  238,719;11359,673;95,61822
 993,17;10714,838;  249,719;11261,827;95,03284
 993,71;10700,685;  243,258;11131,750;96,04109
 994,26;10564,992;  210,796;11031,442;95,68926
 994,81;10558,762;  254,565;10961,058;96,24250
 995,36;10393,300;  218,642;10804,288;96,11749
 995,91;10303,608;  228,027;10706,904;96,15134
 996,45;10267,377;  240,488;10601,673;96,77357
 997,00;10125,223;  219,873;10453,596;96,79126
 997,55;10073,608;  235,873;10425,288;96,54857
 998,10; 9978,300;  258,719;10286,750;96,92412
 998,65; 9903,992;  229,027;10223,750;96,80073
 999,19; 9805,531;  245,412;10122,981;96,78615
 999,74; 9682,454;  275,796;10010,827;96,62689
1000,29; 9630,762;  229,642; 9896,442;97,25162
1000,84; 9531,377;  224,565; 9747,519;97,73030
1001,38; 9447,762;  231,488; 9658,519;97,76433
1001,93; 9385,223;  257,104; 9600,596;97,69494
1002,48; 9284,069;  213,488; 9385,365;98,89558
1003,03; 9294,992;  247,027; 9390,519;98,95525
1003,57; 9129,069;  241,027; 9279,673;98,33378
1004,12; 9117,223;  287,258; 9162,288;99,49222
1004,67; 8992,146;  236,104; 9069,904;99,11977
1005,22; 8799,531;  225,181; 8908,212;98,74835
1005,76; 8704,762;  219,027; 8775,904;99,16859
1006,31; 8670,915;  248,335; 8757,135;98,98671
1006,86; 8526,685;  221,104; 8563,212;99,56214
1007,40; 8392,146;  205,796; 8430,827;99,52972
1007,95; 8356,146;  235,488; 8365,596;99,88377
1008,50; 8188,454;  237,873; 8197,827;99,88225
1009,04; 8119,300;  220,412; 8126,058;99,91452
1009,59; 7962,762;  236,873; 7965,288;99,96730
1010,14; 7914,608;  212,796; 7876,442;100,49801
1010,68; 7800,915;  229,258; 7739,827;100,81337
1011,23; 7728,069;  245,796; 7677,981;100,67394
1011,78; 7651,838;  241,181; 7525,596;101,73305
1012,32; 7523,223;  270,258; 7462,827;100,83970
1012,87; 7538,146;  263,719; 7386,673;102,12655
1013,42; 7389,454;  212,258; 7261,058;101,82153
1013,96; 7415,069;  267,565; 7279,212;101,93760
1014,51; 7317,762;  191,335; 7170,750;102,10636
1015,06; 7306,608;  204,565; 7161,981;102,07874
1015,60; 7347,069;  272,181; 7212,442;101,93980
1016,15; 7314,531;  230,488; 7164,596;102,16228
1016,69; 7372,223;  243,488; 7178,750;102,78970
1017,24; 7348,300;  213,796; 7181,904;102,38797
1017,79; 7447,377;  273,258; 7245,288;102,89856
1018,33; 7442,146;  235,258; 7272,135;102,41601
1018,88; 7498,069;  248,027; 7366,673;101,84580
1019,42; 7480,300;  221,335; 7292,904;102,64999
1019,97; 7467,838;  220,027; 7299,519;102,37756
1020,51; 7596,377;  259,950; 7441,981;102,14976
1021,06; 7518,992;  201,181; 7343,365;102,45901
1021,61; 7521,531;  191,335; 7303,827;103,06087
1022,15; 7460,146;  189,027; 7269,673;102,69005
1022,70; 7489,915;  219,719; 7266,212;103,17468
1023,24; 7415,146;  200,258; 7238,519;102,50952
1023,79; 7345,838;  217,719; 7180,365;102,37658
1024,33; 7295,685;  221,412; 7083,750;103,08837
1024,88; 7219,146;  248,488; 7045,442;102,55561
1025,42; 7126,223;  243,642; 6925,135;103,00963
1025,97; 7054,454;  214,335; 6840,365;103,23102
1026,51; 6954,223;  190,488; 6693,288;104,01265
1027,06; 6921,146;  215,027; 6644,135;104,30871
1027,60; 6757,377;  230,104; 6497,827;104,14106
1028,15; 6680,454;  244,488; 6405,519;104,46248
1028,69; 6540,838;  193,335; 6264,904;104,54470
1029,24; 6479,223;  208,488; 6246,212;103,85926
1029,78; 6377,300;  199,027; 6111,288;104,49932
1030,33; 6269,300;  198,027; 6015,673;104,35961
1030,87; 6221,608;  210,950; 5917,365;105,33158
1031,42; 6109,069;  206,642; 5828,365;104,99320
1031,96; 6070,300;  238,565; 5783,365;105,17484
1032,51; 5971,377;  203,719; 5651,442;105,87281
1033,05; 5902,838;  218,873; 5613,519;105,36308
1033,60; 5776,454;  187,873; 5496,442;105,27471
1034,14; 5720,838;  215,796; 5412,596;105,93139
1034,69; 5671,685;  219,565; 5370,827;105,84047
1035,23; 5632,685;  215,950; 5260,212;107,38410
1035,77; 5512,300;  223,104; 5248,365;105,25216
1036,32; 5478,992;  189,950; 5121,981;107,23863
1036,86; 5469,069;  226,950; 5079,058;108,03798
1037,41; 5337,608;  231,719; 5010,442;106,84629
1037,95; 5272,608;  187,181; 4891,673;108,09725
1038,50; 5208,146;  205,950; 4864,904;107,36737
1039,04; 5153,838;  232,104; 4830,519;107,03110
1039,58; 5038,608;  188,181; 4698,519;107,54020
1040,13; 4974,223;  213,488; 4668,519;106,86199
1040,67; 4983,069;  243,027; 4628,750;108,07892
1041,21; 4881,838;  256,796; 4547,750;107,78588
1041,76; 4778,992;  210,950; 4455,442;107,62282
1042,30; 4760,608;  208,027; 4408,596;108,38009
1042,85; 4670,531;  208,412; 4337,596;108,06296
1043,39; 4606,685;  199,104; 4251,827;108,75603
1043,93; 4553,915;  237,719; 4235,827;107,95598
1044,48; 4529,608;  226,565; 4140,673;109,93674
1045,02; 4460,685;  215,873; 4101,596;109,24123
1045,56; 4431,685;  249,565; 4063,519;109,65312
1046,11; 4319,762;  211,565; 3975,750;109,13907
1046,65; 4277,146;  236,335; 3947,135;108,89327
1047,19; 4196,992;  206,335; 3840,365;109,81354
1047,74; 4124,377;  195,565; 3786,058;109,42264
1048,28; 4088,223;  219,719; 3747,288;109,66486
1048,82; 4077,762;  250,796; 3728,519;110,04227
1049,37; 4004,223;  226,104; 3685,596;109,21022
1049,91; 3996,069;  226,565; 3639,519;110,44696
1050,45; 3908,762;  231,873; 3582,442;109,73922
1050,99; 3843,300;  240,027; 3521,442;109,80850
1051,54; 3754,146;  212,335; 3462,827;108,96231
1052,08; 3793,915;  249,335; 3419,904;111,79635
1052,62; 3722,454;  229,796; 3371,904;111,15652
1053,16; 3659,069;  215,950; 3308,904;111,32139
1053,71; 3622,762;  229,258; 3285,519;111,03447
1054,25; 3569,377;  241,104; 3249,058;110,64907
1054,79; 3515,300;  232,181; 3195,981;110,77398
1055,33; 3425,223;  199,335; 3123,442;110,32044
1055,88; 3422,685;  230,258; 3130,750;110,06500
1056,42; 3363,531;  241,796; 3047,519;111,26311
1056,96; 3359,069;  250,565; 3039,596;111,45463
1057,50; 3300,377;  243,335; 2967,827;112,20594
1058,05; 3218,608;  229,412; 2925,365;110,87713
1058,59; 3197,531;  248,412; 2899,365;111,24748
1059,13; 3079,915;  204,565; 2818,365;110,00650
1059,67; 3090,146;  232,565; 2779,673;112,18924
1060,21; 3047,838;  227,335; 2747,981;111,89606
1060,76; 3015,992;  237,027; 2708,442;112,44429
1061,30; 2982,454;  249,719; 2704,288;111,33255
1061,84; 2935,685;  247,258; 2628,981;112,87739
1062,38; 2838,531;  212,104; 2586,212;110,62796
1062,92; 2875,685;  277,873; 2601,058;111,82114
1063,46; 2798,992;  246,642; 2509,442;112,79609
1064,01; 2757,762;  221,104; 2458,519;113,37446
1064,55; 2716,223;  240,335; 2459,212;111,58296
1065,09; 2685,992;  204,335; 2400,058;113,02234
1065,63; 2701,300;  257,719; 2402,827;113,91413
1066,17; 2633,838;  266,335; 2389,135;111,52741
1066,71; 2618,377;  256,335; 2352,596;112,67880
1067,25; 2558,146;  220,950; 2311,135;111,81769
1067,80; 2522,992;  244,027; 2286,442;111,58188
1068,34; 2519,454;  267,412; 2279,058;111,95022
1068,88; 2461,685;  225,950; 2208,596;112,76519
1069,42; 2457,377;  256,412; 2208,442;112,75260
1069,96; 2417,223;  229,565; 2160,288;113,30769
1070,50; 2423,685;  270,719; 2161,442;113,86995
1071,04; 2327,992;  221,642; 2100,981;112,07933
1071,58; 2316,608;  230,335; 2067,519;113,55816
1072,12; 2291,069;  238,104; 2066,442;112,28585
1072,66; 2277,762;  229,796; 2023,135;114,19849
1073,21; 2283,992;  251,104; 2028,442;114,37824
1073,75; 2208,915;  234,950; 1996,365;112,06700
1074,29; 2197,762;  240,719; 1960,519;113,79476
1074,83; 2185,069;  267,181; 1945,519;114,27304
1075,37; 2172,838;  270,258; 1953,212;113,05009
1075,91; 2123,838;  251,565; 1911,827;112,76977
1076,45; 2126,685;  238,873; 1886,750;114,56023
1076,99; 2093,915;  256,873; 1879,212;113,23422
1077,53; 2033,223;  229,642; 1820,750;113,35378
1078,07; 2038,685;  248,258; 1817,750;114,07682
1078,61; 2008,685;  239,181; 1778,058;114,98670
1079,15; 1981,762;  232,412; 1754,288;114,94688
1079,69; 1966,069;  239,488; 1741,904;114,92033
1080,23; 1971,685;  263,181; 1731,827;116,33189
1080,77; 1961,069;  314,335; 1769,750;113,14534
1081,31; 1888,838;  227,412; 1663,981;115,65241
1081,85; 1888,069;  260,565; 1681,212;114,56082
1082,39; 1823,377;  231,642; 1628,212;113,97463
1082,93; 1844,300;  248,412; 1642,365;114,48646
1083,47; 1778,146;  216,565; 1566,904;115,64366
1084,01; 1788,146;  252,719; 1585,904;115,16987
1084,55; 1748,223;  229,181; 1557,673;114,34333
1085,09; 1756,300;  256,258; 1563,981;114,70642
1085,63; 1712,454;  253,104; 1546,519;112,82918
1086,17; 1702,454;  237,488; 1493,981;116,59167
1086,71; 1665,223;  212,488; 1467,365;115,76710
1087,24; 1700,838;  253,873; 1506,212;115,54108
1087,78; 1668,531;  265,565; 1493,135;114,28809
1088,32; 1608,069;  231,335; 1426,442;115,19754
1088,86; 1629,838;  240,412; 1442,442;115,58996
1089,40; 1608,300;  249,104; 1424,442;115,64296
1089,94; 1574,146;  219,335; 1378,212;116,90728
1090,48; 1571,685;  250,104; 1378,673;117,10232
1091,02; 1530,992;  253,642; 1388,596;112,54643
1091,56; 1516,146;  243,181; 1350,904;114,91729
1092,10; 1499,915;  214,719; 1296,212;118,83544
1092,63; 1525,146;  271,873; 1345,750;116,70547
1093,17; 1478,300;  248,796; 1312,365;115,60168
1093,71; 1452,223;  232,719; 1282,135;116,20793
1094,25; 1476,915;  251,873; 1299,673;116,91566
1094,79; 1426,992;  238,335; 1255,135;116,90182
1095,33; 1407,762;  248,565; 1272,288;113,23337
1095,87; 1407,531;  237,488; 1246,135;116,00127
1096,40; 1342,992;  218,412; 1192,981;115,39260
1096,94; 1362,300;  244,258; 1190,904;118,10562
1097,48; 1365,992;  258,488; 1205,827;116,90688
1098,02; 1325,146;  234,873; 1177,365;115,67979
1098,56; 1290,608;  212,335; 1127,058;117,87973
1099,10; 1286,685;  213,335; 1134,135;116,56712
1099,63; 1265,762;  220,335; 1115,135;116,83359
1100,17; 1276,223;  257,412; 1133,673;116,26797
1100,71; 1293,454;  274,796; 1126,981;119,53486

