
Integration time [ms]: 160,000
Averaging Nr. [scans]: 13
Smoothing Nr. [pixels]: 0
Data measured with spectrometer [name]: 2009305U1
Wave   ;Sample   ;Dark     ;Reference;Reflectance
[nm]   ;[counts] ;[counts] ;[counts] ;[%]

 175,72;  201,382;  199,741;  200,777;158,41027
 176,32;  233,245;  225,729;  223,979; 0,00000
 176,92;  262,552;  254,352;  256,468;387,50473
 177,52;  264,233;  261,585;  265,454;68,44146
 178,12;  238,646;  246,191;  228,377; 0,00000
 178,72;  277,669;  256,803;  258,493;1234,43979
 179,32;  260,082;  250,652;  234,314; 0,00000
 179,92;  261,714;  255,041;  253,110; 0,00000
 180,52;  257,890;  243,055;  255,886;115,61922
 181,12;  261,114;  258,888;  259,497; 0,00000
 181,73;  280,864;  266,427;  278,520;119,38279
 182,33;  362,012;  358,357;  354,615; 0,00000
 182,93;  275,968;  274,431;  274,023; 0,00000
 183,53;  241,229;  246,416;  233,568; 0,00000
 184,13;  249,336;  235,495;  227,035; 0,00000
 184,73;  285,155;  285,799;  287,378;-40,80510
 185,33;  277,387;  228,805;  366,277;35,33912
 185,93;  277,721;  235,412;  372,564;30,84807
 186,53;  290,344;  256,186;  398,310;24,03379
 187,13;  322,760;  279,426;  434,595;27,92725
 187,73;  281,428;  244,875;  373,249;28,47373
 188,33;  272,386;  250,255;  386,995;16,18523
 188,93;  291,273;  255,162;  385,621;27,67988
 189,53;  287,127;  257,227;  401,302;20,75267
 190,13;  324,260;  280,670;  423,850;30,44460
 190,73;  264,045;  224,529;  378,443;25,67431
 191,34;  304,299;  264,081;  410,691;27,43230
 191,94;  278,884;  245,019;  377,905;25,48464
 192,54;  284,532;  247,664;  427,510;20,50017
 193,14;  306,583;  261,733;  418,542;28,60160
 193,74;  302,714;  262,654;  401,356;28,88222
 194,34;  293,160;  254,966;  402,972;25,80560
 194,94;  262,934;  221,040;  376,033;27,02901
 195,54;  239,010;  216,190;  352,702;16,71610
 196,14;  272,873;  226,891;  382,071;29,63176
 196,74;  255,279;  220,111;  382,041;21,71790
 197,34;  245,562;  197,127;  382,736;26,09531
 197,94;  286,350;  232,119;  400,126;32,27889
 198,54;  283,557;  246,429;  416,944;21,77408
 199,14;  261,966;  216,900;  396,880;25,03955
 199,74;  245,385;  199,515;  409,619;21,83168
 200,34;  242,929;  201,978;  416,946;19,04983
 200,94;  283,506;  239,588;  444,800;21,40124
 201,54;  265,269;  217,744;  468,718;18,93593
 202,14;  295,813;  243,442;  505,674;19,97121
 202,74;  265,215;  222,361;  498,991;15,49130
 203,34;  242,523;  195,523;  523,337;14,33737
 203,94;  229,982;  170,751;  524,984;16,72103
 204,54;  306,724;  249,427;  608,671;15,94938
 205,14;  256,035;  199,361;  622,984;13,37825
 205,74;  315,301;  246,446;  720,243;14,53271
 206,34;  277,540;  203,288;  737,115;13,90933
 206,94;  294,115;  212,364;  803,280;13,83473
 207,54;  259,524;  194,057;  837,333;10,17711
 208,14;  282,829;  211,443;  913,379;10,16994
 208,74;  293,788;  209,207; 1013,510;10,51603
 209,34;  313,469;  206,516; 1117,044;11,74631
 209,94;  327,624;  216,285; 1207,131;11,23678
 210,54;  326,647;  204,290; 1327,188;10,89651
 211,14;  343,018;  209,977; 1436,345;10,84838
 211,73;  357,355;  215,667; 1572,019;10,44630
 212,33;  376,241;  226,049; 1695,753;10,21920
 212,93;  360,643;  207,822; 1770,108; 9,78189
 213,53;  332,975;  182,746; 1835,326; 9,09062
 214,13;  376,371;  200,988; 1950,535;10,02451
 214,73;  357,967;  191,288; 1957,212; 9,43860
 215,33;  361,393;  172,208; 1999,362;10,35410
 215,93;  397,678;  210,907; 2119,819; 9,78418
 216,53;  362,105;  164,822; 2217,580; 9,61067
 217,13;  445,826;  227,136; 2448,261; 9,84589
 217,73;  432,592;  191,369; 2666,066; 9,74759
 218,33;  415,360;  171,989; 2838,762; 9,12607
 218,93;  481,034;  196,459; 3204,207; 9,46139
 219,53;  516,163;  195,220; 3533,962; 9,61272
 220,13;  519,553;  160,837; 3850,961; 9,72097
 220,73;  561,845;  188,208; 4281,994; 9,12694
 221,32;  617,711;  200,899; 4687,125; 9,29092
 221,92;  659,596;  199,298; 5129,848; 9,33564
 222,52;  696,839;  167,215; 5602,925; 9,74341
 223,12;  749,633;  184,523; 6053,373; 9,62896
 223,72;  812,897;  196,293; 6476,650; 9,81798
 224,32;  860,170;  194,370; 6900,583; 9,92810
 224,92;  868,384;  167,678; 7203,560; 9,95903
 225,52;  937,149;  207,748; 7625,096; 9,83371
 226,12;  977,091;  188,598; 7945,856;10,16459
 226,72;  993,657;  159,674; 8322,566;10,21676
 227,31; 1043,409;  155,674; 8696,466;10,39406
 227,91; 1124,895;  194,671; 9121,351;10,42072
 228,51; 1164,829;  181,896; 9490,110;10,55984
 229,11; 1226,256;  195,135; 9947,630;10,57289
 229,71; 1264,515;  175,668;10228,115;10,83167
 230,31; 1305,850;  165,218;10718,251;10,80856
 230,91; 1360,509;  160,278;11047,928;11,02379
 231,51; 1404,421;  168,061;11349,350;11,05740
 232,10; 1498,300;  167,758;11737,016;11,50067
 232,70; 1572,929;  186,735;11999,664;11,73455
 233,30; 1635,115;  202,829;12239,986;11,89887
 233,90; 1667,175;  173,906;12300,963;12,31353
 234,50; 1707,874;  179,061;12417,146;12,49226
 235,10; 1755,691;  172,909;12458,944;12,88278
 235,70; 1829,852;  198,209;12575,100;13,18298
 236,29; 1859,250;  196,976;12452,520;13,56345
 236,89; 1851,175;  164,048;12281,757;13,92282
 237,49; 1905,621;  194,982;12162,422;14,29411
 238,09; 1908,924;  180,826;11817,192;14,85084
 238,69; 1953,753;  218,045;11505,502;15,37732
 239,29; 1916,832;  182,980;11125,113;15,84566
 239,89; 1917,576;  192,125;10743,781;16,35242
 240,48; 1868,831;  177,596;10312,169;16,68778
 241,08; 1854,329;  167,440; 9918,872;17,29888
 241,68; 1864,231;  195,442; 9593,874;17,75604
 242,28; 1819,253;  163,444; 9193,819;18,33599
 242,88; 1845,328;  214,834; 8861,428;18,85707
 243,48; 1838,587;  210,674; 8590,298;19,42704
 244,07; 1805,570;  180,671; 8300,943;20,01041
 244,67; 1817,051;  194,981; 8093,088;20,53744
 245,27; 1815,509;  194,667; 7997,019;20,77377
 245,87; 1820,159;  199,679; 7911,656;21,01251
 246,47; 1840,911;  196,590; 7831,043;21,53816
 247,06; 1853,208;  177,210; 7850,293;21,84256
 247,66; 1893,581;  186,904; 7992,433;21,86498
 248,26; 1976,456;  218,514; 8116,764;22,25736
 248,86; 2038,748;  202,129; 8336,982;22,57716
 249,46; 2069,695;  152,830; 8599,688;22,69323
 250,05; 2197,609;  204,365; 9042,229;22,55346
 250,65; 2264,032;  167,820; 9488,093;22,49089
 251,25; 2394,885;  178,286;10021,829;22,51831
 251,85; 2569,243;  182,894;10653,323;22,79132
 252,44; 2695,232;  149,515;11376,948;22,67408
 253,04; 2883,307;  198,362;12268,532;22,24447
 253,64; 3021,086;  144,588;13140,502;22,13386
 254,24; 3289,191;  200,287;14187,567;22,08366
 254,84; 3460,464;  176,522;15338,996;21,65835
 255,43; 3723,155;  181,361;16441,168;21,78251
 256,03; 3949,802;  189,358;17674,950;21,50596
 256,63; 4182,158;  192,278;18907,965;21,31837
 257,23; 4366,465;  171,663;19978,647;21,17840
 257,82; 4590,798;  194,582;21230,937;20,89818
 258,42; 4705,674;  155,042;22375,919;20,47909
 259,02; 4949,726;  208,977;23416,897;20,42729
 259,62; 5058,036;  174,348;24318,953;20,22683
 260,21; 5174,625;  184,976;25013,690;20,09629
 260,81; 5203,716;  183,213;25624,225;19,73390
 261,41; 5245,338;  171,889;26292,804;19,42294
 262,01; 5342,458;  211,654;26975,282;19,17081
 262,60; 5342,773;  174,663;27463,031;18,93887
 263,20; 5381,775;  171,974;27904,384;18,78596
 263,80; 5374,877;  201,654;28229,185;18,45765
 264,40; 5329,474;  169,732;28449,208;18,24553
 264,99; 5282,391;  192,961;28660,660;17,87791
 265,59; 5249,993;  179,340;28893,972;17,65878
 266,19; 5255,757;  161,270;29175,386;17,55865
 266,78; 5280,183;  219,651;29399,987;17,34227
 267,38; 5127,555;  190,264;29352,707;16,93030
 267,98; 5105,251;  179,959;29466,465;16,81761
 268,58; 5038,384;  183,957;29493,222;16,56277
 269,17; 5030,555;  177,337;29577,473;16,50747
 269,77; 4908,716;  189,123;29266,106;16,23137
 270,37; 4834,503;  153,346;29253,102;16,08659
 270,96; 4790,790;  224,736;29001,887;15,86694
 271,56; 4673,679;  177,971;28718,942;15,75177
 272,16; 4580,245;  183,427;28531,176;15,51029
 272,75; 4564,013;  179,735;28438,781;15,51460
 273,35; 4470,592;  180,968;28492,693;15,15141
 273,95; 4432,355;  188,813;28468,674;15,00553
 274,54; 4378,644;  176,134;28382,363;14,89923
 275,14; 4464,959;  205,122;28954,428;14,81718
 275,74; 4378,655;  158,504;28965,480;14,64975
 276,33; 4490,922;  207,123;29476,725;14,63566
 276,93; 4574,744;  178,596;29891,483;14,79542
 277,53; 4657,053;  181,053;30469,874;14,77773
 278,12; 4733,839;  160,510;31080,730;14,79074
 278,72; 4851,405;  219,668;31838,915;14,64847
 279,32; 4932,910;  182,590;32489,494;14,70373
 279,91; 5072,041;  161,127;33366,067;14,78971
 280,51; 5157,112;  184,899;34012,841;14,69854
 281,11; 5333,024;  170,358;34876,889;14,87520
 281,70; 5471,119;  155,050;35308,164;15,12261
 282,30; 5569,679;  166,125;36176,249;15,00565
 282,90; 5698,654;  178,201;36604,099;15,15530
 283,49; 5906,087;  190,583;37302,355;15,40078
 284,09; 6054,266;  212,588;37743,355;15,56504
 284,69; 6145,235;  211,128;38090,989;15,66560
 285,28; 6327,770;  192,818;38595,308;15,97540
 285,88; 6510,912;  248,197;38774,102;16,25586
 286,47; 6606,774;  190,509;39004,667;16,53073
 287,07; 6771,799;  210,590;38992,293;16,91831
 287,67; 6997,972;  196,367;39142,990;17,46392
 288,26; 7092,825;  173,974;39033,454;17,80480
 288,86; 7301,752;  181,973;39203,121;18,24595
 289,46; 7555,878;  208,974;39328,621;18,78060
 290,05; 7824,467;  171,440;39402,244;19,50770
 290,65; 8121,485;  184,662;39742,250;20,06397
 291,24; 8432,610;  189,206;39857,457;20,78086
 291,84; 8710,773;  190,586;39984,888;21,41057
 292,44; 9038,723;  193,367;40181,331;22,12004
 293,03; 9453,755;  262,898;40338,407;22,93385
 293,63; 9617,253;  185,047;40528,691;23,37966
 294,22; 9971,648;  206,204;40706,632;24,11195
 294,82;10128,071;  185,271;40767,174;24,50058
 295,41;10279,735;  173,511;40305,933;25,18219
 296,01;10506,392;  219,196;40292,531;25,67093
 296,61;10583,722;  206,129;39981,129;26,09074
 297,20;10642,348;  193,504;39570,490;26,53541
 297,80;10736,866;  201,518;39286,775;26,95479
 298,39;10706,705;  173,586;38834,323;27,24500
 298,99;10800,576;  216,967;38727,141;27,48263
 299,58;10866,401;  203,981;38503,349;27,83968
 300,18;10935,235;  206,979;38361,926;28,11760
 300,78;10890,248;  181,823;37955,038;28,34926
 301,37;10908,428;  200,037;37824,584;28,46118
 301,97;11078,630;  195,051;37965,521;28,81505
 302,56;11108,373;  176,124;37860,577;29,00997
 303,16;11127,726;  171,738;37803,792;29,11345
 303,75;11124,811;  179,439;37750,475;29,13247
 304,35;11280,898;  174,062;38078,968;29,30184
 304,94;11405,535;  180,359;38045,641;29,64504
 305,54;11434,403;  205,438;37956,894;29,74446
 306,13;11442,282;  162,139;37817,650;29,95615
 306,73;11409,313;  169,060;37699,181;29,94995
 307,33;11456,734;  199,905;37580,566;30,11404
 307,92;11521,772;  196,668;37708,122;30,19106
 308,52;11698,189;  176,584;38301,649;30,22055
 309,11;11961,581;  177,426;38836,983;30,48187
 309,71;12095,236;  162,654;39062,178;30,67539
 310,30;12233,312;  175,206;39374,979;30,76065
 310,90;12454,465;  219,821;39805,209;30,90697
 311,49;12478,988;  186,205;40051,196;30,83603
 312,09;12540,714;  156,979;40225,718;30,90623
 312,68;12862,898;  238,592;40678,326;31,21758
 313,28;12869,619;  156,745;40746,738;31,32022
 313,87;12875,552;  143,744;40970,885;31,18467
 314,47;13055,280;  181,120;41423,848;31,21559
 315,06;13124,045;  166,822;41394,219;31,42867
 315,66;13218,406;  167,364;41750,334;31,38555
 316,25;13148,435;  144,431;41409,652;31,51323
 316,85;13194,602;  146,979;41637,354;31,44735
 317,44;13284,281;  169,580;41819,484;31,48795
 318,04;13289,209;  157,048;41725,507;31,59165
 318,63;13234,937;  161,060;41782,846;31,41114
 319,22;13360,058;  174,354;42126,384;31,43043
 319,82;13336,566;  175,741;42131,854;31,36807
 320,41;13326,365;  189,816;41995,758;31,42268
 321,01;13322,279;  194,978;42176,428;31,26929
 321,60;13297,394;  184,742;42249,743;31,17236
 322,20;13205,832;  164,283;42279,165;30,96660
 322,79;13299,977;  206,129;42434,961;31,00689
 323,39;13287,147;  178,753;42486,859;30,98317
 323,98;13244,711;  157,592;42432,433;30,95723
 324,58;13214,813;  167,199;42297,084;30,96997
 325,17;13143,964;  170,662;42200,899;30,86659
 325,76;13050,193;  190,897;41944,354;30,79816
 326,36;12842,638;  150,363;41454,047;30,72916
 326,95;12772,009;  195,973;41194,502;30,67436
 327,55;12578,053;  157,741;40819,014;30,54580
 328,14;12465,130;  166,365;40385,196;30,57962
 328,74;12297,878;  196,354;39859,146;30,51102
 329,33;12124,126;  187,286;39413,361;30,43088
 329,92;11907,025;  163,811;38764,795;30,42206
 330,52;11682,138;  188,673;37956,005;30,43229
 331,11;11523,941;  175,665;37483,716;30,41777
 331,71;11257,349;  179,589;36868,297;30,19392
 332,30;11097,612;  196,436;36296,949;30,19674
 332,89;10950,802;  235,285;35572,425;30,32367
 333,49;10670,017;  192,588;34988,783;30,11085
 334,08;10519,968;  185,510;34527,656;30,09264
 334,68;10367,686;  175,126;34029,115;30,10741
 335,27;10236,418;  193,366;33538,670;30,11834
 335,86;10136,479;  232,972;33293,101;29,95605
 336,46;10055,246;  193,213;32980,021;30,07927
 337,05; 9964,693;  175,126;32833,770;29,97542
 337,65; 9854,463;  162,433;32586,472;29,89149
 338,24; 9913,070;  204,976;32609,051;29,95948
 338,83; 9864,275;  200,976;32374,352;30,03508
 339,43; 9871,648;  165,277;32404,926;30,10694
 340,02; 9831,205;  179,430;32310,893;30,03839
 340,61; 9871,268;  178,976;32399,554;30,08106
 341,21; 9867,647;  206,277;32414,685;29,99642
 341,80; 9796,412;  180,356;32314,864;29,92439
 342,40; 9857,265;  173,058;32469,075;29,98576
 342,99; 9915,495;  169,747;32633,271;30,02061
 343,58; 9942,665;  175,363;32798,054;29,94021
 344,18;10035,313;  192,209;32955,244;30,04332
 344,77;10088,026;  168,969;33314,896;29,92542
 345,36;10273,855;  161,434;33686,117;30,16410
 345,96;10408,912;  196,516;34056,000;30,16111
 346,55;10443,053;  179,446;34413,133;29,98102
 347,14;10623,291;  157,519;34758,225;30,24728
 347,74;10746,683;  152,451;35301,062;30,14125
 348,33;10990,197;  178,912;36095,701;30,10092
 348,92;11192,283;  176,839;36779,699;30,09449
 349,52;11330,005;  153,145;37329,362;30,06454
 350,11;11448,608;  168,660;37571,706;30,15783
 350,70;11497,550;  172,514;37759,403;30,13028
 351,29;11384,935;  147,112;37369,117;30,19134
 351,89;11390,496;  194,426;37340,471;30,14068
 352,48;11396,679;  155,283;37439,253;30,15075
 353,07;11341,007;  184,136;37413,970;29,96755
 353,67;11344,556;  194,147;37241,401;30,09780
 354,26;11263,607;  178,212;36934,891;30,15886
 354,85;11218,705;  175,056;36891,581;30,07814
 355,45;11079,516;  153,894;36537,727;30,02878
 356,04;11089,347;  183,752;36509,930;30,02131
 356,63;11049,529;  202,358;36247,314;30,09345
 357,22;10955,093;  188,807;36150,798;29,93796
 357,82;10913,405;  181,040;35862,643;30,07815
 358,41;10868,202;  195,897;35670,414;30,08443
 359,00;10786,733;  157,816;35416,899;30,14519
 359,60;10760,062;  179,822;35389,155;30,04953
 360,19;10715,414;  200,060;35155,398;30,08226
 360,78;10667,369;  180,356;34966,295;30,14728
 361,37;10538,557;  184,972;34661,650;30,03069
 361,97;10539,870;  182,050;34589,889;30,10308
 362,56;10456,566;  172,660;34176,224;30,24361
 363,15;10369,755;  223,895;33867,536;30,15684
 363,74;10191,707;  187,504;33534,714;30,00012
 364,34;10043,845;  200,585;33058,417;29,95712
 364,93; 9900,439;  170,352;32472,319;30,12227
 365,52; 9784,941;  149,511;31996,178;30,25569
 366,11; 9662,896;  182,200;31660,103;30,11857
 366,71; 9566,981;  175,508;31199,307;30,27183
 367,30; 9438,376;  171,665;30815,094;30,24045
 367,89; 9359,047;  214,748;30544,715;30,14939
 368,48; 9235,236;  193,582;30179,808;30,15269
 369,07; 9101,704;  187,052;29522,711;30,38845
 369,67; 9002,773;  206,198;29218,710;30,31994
 370,26; 8913,156;  177,360;28888,112;30,42691
 370,85; 8809,625;  185,126;28556,666;30,39842
 371,44; 8766,435;  184,896;28357,435;30,46065
 372,03; 8687,392;  154,200;28132,391;30,49944
 372,63; 8528,205;  157,973;27646,214;30,45023
 373,22; 8450,611;  171,206;27237,698;30,58913
 373,81; 8355,309;  153,280;26869,231;30,70087
 374,40; 8290,369;  173,288;26611,169;30,70246
 374,99; 8208,251;  165,664;26272,286;30,80669
 375,59; 8100,336;  165,980;25907,594;30,82307
 376,18; 8129,404;  201,664;25786,737;30,98580
 376,77; 8054,844;  198,205;25584,959;30,94779
 377,36; 8065,830;  204,203;25603,593;30,95203
 377,95; 7960,664;  194,739;25167,785;31,09723
 378,55; 7913,202;  172,440;24949,659;31,24145
 379,14; 7933,668;  193,434;24881,312;31,35237
 379,73; 7920,655;  174,355;24717,955;31,56138
 380,32; 7995,571;  194,589;24783,324;31,72584
 380,91; 7880,098;  174,967;24615,513;31,52602
 381,50; 7959,215;  190,814;24568,194;31,86725
 382,10; 7950,340;  168,589;24405,939;32,10644
 382,69; 7947,873;  152,972;24328,931;32,24237
 383,28; 8017,829;  203,276;24238,789;32,51253
 383,87; 7982,504;  172,661;24083,843;32,66189
 384,46; 7956,789;  175,425;24047,479;32,59612
 385,05; 8022,283;  202,199;24006,759;32,85120
 385,64; 8034,588;  195,123;24065,872;32,84130
 386,24; 8041,721;  159,501;23942,693;33,14198
 386,83; 8151,022;  203,193;24066,663;33,30542
 387,42; 8224,886;  199,431;24173,658;33,47535
 388,01; 8347,135;  184,111;24341,640;33,79080
 388,60; 8490,257;  193,118;24709,739;33,84292
 389,19; 8664,242;  175,259;24923,684;34,30110
 389,78; 8806,469;  175,260;25264,489;34,40205
 390,37; 9083,573;  238,806;25707,842;34,72753
 390,96; 9191,739;  177,501;25862,265;35,09566
 391,56; 9280,195;  179,103;26100,820;35,10991
 392,15; 9443,245;  169,184;26383,893;35,37732
 392,74; 9572,178;  156,633;26661,230;35,52420
 393,33; 9745,402;  173,486;27021,151;35,65269
 393,92;10033,384;  184,859;27416,297;36,16601
 394,51;10134,573;  161,486;27625,647;36,31310
 395,10;10333,794;  204,385;27911,868;36,55839
 395,69;10501,491;  193,156;28069,635;36,97861
 396,28;10591,154;  203,303;28244,714;37,04468
 396,87;10650,785;  201,830;28278,280;37,21608
 397,46;10776,347;  202,977;28389,844;37,51169
 398,06;10958,982;  223,583;28684,409;37,71992
 398,65;11064,028;  186,330;28773,929;38,05041
 399,24;11181,959;  208,403;28930,889;38,20546
 399,83;11273,891;  189,754;28943,818;38,54807
 400,42;11424,106;  234,878;29129,852;38,72379
 401,01;11540,630;  199,152;29283,114;38,99564
 401,60;11639,366;  212,721;29237,521;39,36856
 402,19;11672,151;  226,300;29180,389;39,53104
 402,78;11765,627;  237,243;29238,004;39,75201
 403,37;11739,687;  229,421;29088,693;39,88412
 403,96;11734,458;  220,819;28866,323;40,19353
 404,55;11825,209;  224,826;28737,408;40,68514
 405,14;11832,375;  214,686;28590,262;40,94257
 405,73;11840,563;  223,688;28460,261;41,14123
 406,32;11894,624;  226,561;28439,831;41,35665
 406,91;11838,974;  222,888;28051,176;41,74201
 407,50;11890,095;  233,397;27885,955;42,15414
 408,09;11770,412;  199,914;27519,244;42,35279
 408,68;11825,725;  216,822;27407,573;42,69431
 409,27;11766,514;  203,611;27184,332;42,85617
 409,86;11747,558;  214,194;26963,467;43,11655
 410,45;11815,275;  245,386;26892,896;43,41827
 411,04;11883,869;  254,194;26825,042;43,76855
 411,63;11750,064;  239,245;26454,305;43,90918
 412,22;11693,763;  236,983;26181,055;44,15953
 412,81;11616,602;  248,845;25852,388;44,39915
 413,40;11483,474;  256,482;25492,080;44,48871
 413,99;11382,188;  300,244;25065,382;44,74816
 414,58;11224,102;  230,633;24623,115;45,06909
 415,17;11218,405;  237,999;24339,435;45,55914
 415,76;11191,040;  227,443;24224,896;45,68650
 416,35;11112,022;  228,683;23937,803;45,90360
 416,94;11222,990;  254,678;24051,686;46,09114
 417,53;11398,684;  227,770;24292,628;46,42003
 418,12;11529,983;  232,082;24383,438;46,77957
 418,71;11793,515;  256,790;24860,397;46,89038
 419,30;11938,775;  246,699;24968,470;47,29465
 419,89;12115,588;  223,010;25135,525;47,73736
 420,48;12338,096;  255,252;25478,878;47,90288
 421,07;12471,960;  247,640;25620,321;48,17907
 421,66;12504,975;  216,496;25646,264;48,32321
 422,25;12534,741;  228,590;25592,673;48,51802
 422,84;12626,195;  261,517;25527,800;48,93746
 423,43;12455,305;  236,509;25232,040;48,88392
 424,02;12383,708;  259,282;24872,944;49,25893
 424,60;12205,167;  237,766;24363,300;49,60471
 425,19;12104,062;  245,831;23974,682;49,97389
 425,78;12068,991;  255,679;23951,779;49,85341
 426,37;12051,266;  258,456;23789,385;50,11621
 426,96;12014,530;  245,302;23649,740;50,28631
 427,55;11980,770;  243,545;23412,611;50,65903
 428,14;11887,477;  224,243;23232,847;50,69075
 428,73;11859,652;  231,617;22975,895;51,12510
 429,32;11875,328;  262,608;22932,162;51,22606
 429,91;11911,847;  266,310;22943,828;51,35279
 430,50;11868,586;  261,778;22755,783;51,59956
 431,08;11773,154;  267,477;22570,407;51,58819
 431,67;11825,492;  310,329;22488,042;51,92223
 432,26;11739,139;  331,180;22151,918;52,28035
 432,85;11545,322;  348,563;21789,120;52,22233
 433,44;11381,929;  362,110;21347,251;52,51248
 434,03;11158,974;  365,506;20946,123;52,44482
 434,62;10938,287;  318,957;20417,157;52,83722
 435,21;10849,987;  340,333;20272,631;52,72675
 435,79;10745,820;  322,579;20002,340;52,96427
 436,38;10721,806;  326,897;19925,091;53,04014
 436,97;10708,734;  325,437;19817,408;53,26961
 437,56;10588,760;  314,992;19562,777;53,37636
 438,15;10557,743;  290,680;19476,971;53,51249
 438,74;10609,082;  313,605;19481,053;53,71334
 439,33;10640,556;  287,757;19497,165;53,89442
 439,91;10668,900;  245,303;19573,117;53,93055
 440,50;10806,591;  306,303;19638,558;54,31486
 441,09;10872,161;  288,544;19760,150;54,35411
 441,68;10860,346;  282,322;19706,655;54,45759
 442,27;10893,679;  270,011;19745,945;54,54767
 442,86;10858,397;  245,955;19721,175;54,49203
 443,44;10967,551;  261,104;19793,776;54,81302
 444,03;11051,866;  328,878;19820,061;55,01456
 444,62;10994,858;  264,647;19679,318;55,26857
 445,21;10837,581;  269,568;19445,079;55,11203
 445,80;10834,489;  289,118;19372,359;55,25985
 446,39;10678,168;  337,962;19011,849;55,37255
 446,97;10549,449;  250,821;18840,960;55,39834
 447,56;10402,609;  257,215;18524,084;55,53986
 448,15;10275,022;  260,282;18337,402;55,40009
 448,74;10213,268;  280,514;18026,394;55,97217
 449,33;10070,023;  259,983;17866,055;55,71964
 449,91; 9973,436;  251,455;17570,442;56,13481
 450,50; 9834,133;  259,991;17297,350;56,19499
 451,09; 9800,019;  285,839;17226,339;56,16233
 451,68; 9737,633;  300,997;17102,804;56,16441
 452,26; 9714,931;  283,772;17030,593;56,31611
 452,85; 9704,099;  268,230;16936,648;56,60926
 453,44; 9655,017;  290,014;16939,936;56,24653
 454,03; 9679,804;  256,390;16846,173;56,80252
 454,61; 9656,382;  250,169;16820,266;56,76619
 455,20; 9788,620;  277,174;17078,617;56,61089
 455,79; 9841,826;  289,165;16986,449;57,21087
 456,38; 9868,253;  296,567;17164,678;56,74427
 456,97; 9918,369;  266,026;17172,028;57,09418
 457,55; 9943,339;  273,725;17172,291;57,22151
 458,14; 9973,202;  286,409;17167,825;57,38140
 458,73; 9881,550;  283,264;17100,544;57,07395
 459,31;10001,070;  312,042;17137,143;57,58674
 459,90;10005,226;  316,422;17295,920;57,06178
 460,49;10125,582;  364,958;17361,483;57,42717
 461,08;10191,437;  279,970;17441,739;57,75318
 461,66;10212,062;  281,504;17518,719;57,61115
 462,25;10300,180;  282,128;17645,449;57,69664
 462,84;10360,033;  315,740;17659,377;57,91342
 463,43;10318,587;  252,676;17615,201;57,97493
 464,01;10303,390;  279,989;17602,723;57,86270
 464,60;10349,355;  335,211;17568,320;58,10991
 465,19;10142,923;  270,376;17198,651;58,31987
 465,77;10145,451;  283,765;17229,824;58,19457
 466,36;10089,057;  312,984;17093,712;58,25774
 466,95; 9854,140;  293,062;16713,962;58,22505
 467,53; 9683,491;  288,694;16421,750;58,23321
 468,12; 9503,539;  316,849;16087,943;58,25018
 468,71; 9332,767;  296,300;15790,389;58,32203
 469,29; 9132,947;  272,850;15529,832;58,07241
 469,88; 8943,451;  273,316;15166,261;58,21639
 470,47; 9057,212;  345,017;15330,777;58,13649
 471,06; 9016,767;  297,402;15300,251;58,11806
 471,64; 9120,122;  298,169;15390,728;58,45234
 472,23; 9131,822;  275,262;15451,756;58,35709
 472,81; 9201,061;  270,331;15582,845;58,32308
 473,40; 9318,121;  278,186;15703,080;58,60614
 473,99; 9463,368;  372,724;15886,104;58,59873
 474,57; 9494,335;  285,724;16111,606;58,18704
 475,16; 9672,955;  299,487;16293,259;58,60699
 475,75; 9717,459;  322,884;16323,869;58,71248
 476,33; 9776,966;  314,275;16490,199;58,49861
 476,92; 9828,810;  308,033;16548,808;58,62267
 477,51; 9877,357;  310,580;16611,204;58,68964
 478,09; 9891,083;  306,503;16621,328;58,74768
 478,68; 9806,770;  305,352;16593,948;58,33172
 479,27; 9887,697;  338,884;16548,293;58,90908
 479,85; 9818,839;  318,275;16619,600;58,28093
 480,44; 9916,807;  302,355;16731,357;58,52122
 481,02;10908,974;  312,515;18562,738;58,06208
 481,61;12284,074;  343,127;20852,679;58,22139
 482,20;13135,709;  334,207;22219,373;58,49397
 482,78;13729,861;  356,507;23124,545;58,73740
 483,37;14022,280;  342,908;23711,206;58,53816
 483,95;14245,251;  374,295;24099,851;58,46420
 484,54;14427,708;  382,434;24269,195;58,79941
 485,13;14289,894;  355,841;24152,213;58,55537
 485,71;14118,438;  326,223;23848,593;58,63446
 486,30;13973,395;  377,915;23463,717;58,89109
 486,88;13722,408;  413,532;23027,458;58,85257
 487,47;13189,036;  387,919;22239,507;58,58209
 488,05;12561,397;  380,461;21146,391;58,65827
 488,64;11612,921;  369,775;19587,667;58,50353
 489,23;10278,991;  381,232;17362,008;58,28803
 489,81; 8813,021;  380,003;14888,772;58,12359
 490,40; 8336,078;  335,928;14300,400;57,28931
 490,98; 8162,516;  316,777;13995,218;57,35844
 491,57; 8149,716;  340,156;13902,419;57,58302
 492,15; 8095,523;  325,624;13829,391;57,53875
 492,74; 7968,062;  326,308;13651,066;57,35004
 493,32; 7945,013;  345,392;13579,669;57,42377
 493,91; 7815,823;  317,089;13407,144;57,28573
 494,50; 7794,012;  330,793;13387,330;57,16078
 495,08; 7732,740;  317,947;13341,859;56,93215
 495,67; 7720,227;  339,780;13260,352;57,12167
 496,25; 7649,606;  278,326;13179,140;57,13810
 496,84; 7629,348;  276,626;13171,008;57,02268
 497,42; 7581,550;  279,866;13083,075;57,03011
 498,01; 7548,199;  311,474;12980,017;57,12358
 498,59; 7447,761;  275,714;12968,559;56,50465
 499,18; 7446,206;  272,474;12887,124;56,86826
 499,76; 7400,110;  299,941;12776,083;56,90997
 500,35; 7250,168;  282,412;12581,990;56,65037
 500,93; 7210,688;  284,943;12532,293;56,54893
 501,52; 7132,796;  276,329;12419,462;56,46374
 502,10; 7093,996;  288,801;12366,037;56,34729
 502,69; 6956,918;  272,729;12183,358;56,11954
 503,27; 6795,951;  249,025;11948,958;55,95696
 503,86; 6768,401;  267,496;11872,356;56,01881
 504,44; 6658,213;  255,346;11743,246;55,73575
 505,03; 6481,606;  234,269;11415,450;55,87368
 505,61; 6392,490;  269,037;11260,394;55,71153
 506,19; 6276,915;  272,423;11047,691;55,72475
 506,78; 6144,802;  240,509;10842,267;55,69164
 507,36; 6077,317;  255,653;10682,725;55,83220
 507,95; 5949,289;  248,820;10513,057;55,53720
 508,53; 5870,674;  257,739;10371,812;55,49629
 509,12; 5749,626;  262,434;10229,633;55,05249
 509,70; 5623,818;  275,129;10006,678;54,96236
 510,29; 5568,005;  275,287; 9834,123;55,36990
 510,87; 5414,427;  250,508; 9618,789;55,12130
 511,46; 5300,653;  243,049; 9467,506;54,82821
 512,04; 5199,054;  245,669; 9264,610;54,92202
 512,62; 5071,610;  260,895; 9084,707;54,51969
 513,21; 4960,637;  236,057; 8856,213;54,80852
 513,79; 4871,848;  240,763; 8741,200;54,48055
 514,38; 4711,439;  234,527; 8571,585;53,69894
 514,96; 4694,962;  272,680; 8452,275;54,06481
 515,54; 4577,793;  231,914; 8307,988;53,81178
 516,13; 4513,834;  260,069; 8148,603;53,92340
 516,71; 4406,130;  242,536; 8028,371;53,47652
 517,30; 4313,744;  239,541; 7918,211;53,05871
 517,88; 4240,283;  264,310; 7867,913;52,29064
 518,46; 4144,945;  238,928; 7656,306;52,66034
 519,05; 4142,432;  246,470; 7638,173;52,70723
 519,63; 4083,633;  262,083; 7514,332;52,69469
 520,22; 4049,248;  262,784; 7445,821;52,71397
 520,80; 3994,409;  247,939; 7367,466;52,62246
 521,38; 3998,969;  286,317; 7353,614;52,53284
 521,97; 3913,204;  257,097; 7281,333;52,04989
 522,55; 3897,332;  259,558; 7301,951;51,65537
 523,13; 3866,574;  243,100; 7235,508;51,82012
 523,72; 3831,868;  239,927; 7222,778;51,43946
 524,30; 3916,541;  277,796; 7389,177;51,16791
 524,89; 3885,519;  238,405; 7373,054;51,11833
 525,47; 3960,349;  272,720; 7507,848;50,96840
 526,05; 3935,860;  212,414; 7542,206;50,79880
 526,64; 4031,043;  250,031; 7702,114;50,73765
 527,22; 4074,614;  264,105; 7826,905;50,38490
 527,80; 4117,326;  299,262; 7936,589;49,99215
 528,39; 4116,815;  236,726; 8079,245;49,47503
 528,97; 4239,160;  255,879; 8216,036;50,04024
 529,55; 4312,514;  264,792; 8398,070;49,76741
 530,14; 4433,648;  275,498; 8635,518;49,73852
 530,72; 4467,502;  244,110; 8740,621;49,70737
 531,30; 4485,424;  226,268; 8917,086;49,00754
 531,89; 4564,561;  253,576; 8952,678;49,55667
 532,47; 4568,599;  292,270; 9083,493;48,64317
 533,05; 4591,292;  280,646; 9093,388;48,91379
 533,63; 4616,597;  275,963; 9189,539;48,69689
 534,22; 4585,622;  262,887; 9244,228;48,13018
 534,80; 4672,115;  287,277; 9288,247;48,71517
 535,38; 4726,687;  364,423; 9440,343;48,06416
 535,97; 4620,343;  270,809; 9341,255;47,95281
 536,55; 4682,130;  311,509; 9435,865;47,90060
 537,13; 4654,092;  333,960; 9437,408;47,45600
 537,71; 4641,008;  379,190; 9454,224;46,96201
 538,30; 4670,977;  408,196; 9552,939;46,61455
 538,88; 4706,950;  442,052; 9663,564;46,24944
 539,46; 4783,166;  505,815; 9877,097;45,64318
 540,05; 4817,774;  521,434;10009,619;45,28095
 540,63; 4919,526;  584,127;10211,816;45,03052
 541,21; 4978,869;  616,131;10360,128;44,77360
 541,79; 5032,314;  666,284;10492,643;44,43181
 542,38; 5093,844;  694,510;10649,590;44,19185
 542,96; 5125,133;  715,597;10826,563;43,61142
 543,54; 5225,486;  723,514;11076,303;43,48559
 544,12; 5271,380;  690,747;11230,716;43,45964
 544,70; 5280,696;  678,597;11332,472;43,19647
 545,29; 5349,271;  691,895;11467,071;43,22320
 545,87; 5340,621;  657,515;11489,259;43,23502
 546,45; 5313,230;  609,972;11481,138;43,26360
 547,03; 5332,617;  562,667;11594,568;43,23779
 547,62; 5384,526;  537,593;11769,522;43,15316
 548,20; 5451,596;  539,442;12006,276;42,83792
 548,78; 5486,853;  483,377;12138,565;42,92917
 549,36; 5562,001;  441,684;12306,161;43,15670
 549,94; 5609,309;  400,210;12432,658;43,29210
 550,53; 5677,911;  414,451;12694,266;42,86269
 551,11; 5709,549;  380,149;12908,400;42,53906
 551,69; 5854,395;  393,683;13245,145;42,49097
 552,27; 5955,609;  344,679;13473,800;42,73652
 552,85; 6078,515;  355,302;13872,891;42,33901
 553,44; 6184,352;  351,529;14212,740;42,08018
 554,02; 6307,596;  353,916;14576,943;41,85944
 554,60; 6383,394;  295,842;14918,302;41,63151
 555,18; 6545,445;  330,914;15274,523;41,58655
 555,76; 6648,374;  312,301;15730,070;41,09591
 556,34; 6796,299;  318,539;16110,744;41,01872
 556,93; 6950,453;  304,453;16524,255;40,97461
 557,51; 7026,811;  287,693;16869,583;40,64144
 558,09; 7154,581;  304,761;17256,566;40,40762
 558,67; 7328,017;  307,158;17648,534;40,48617
 559,25; 7398,423;  323,310;18007,696;40,00769
 559,83; 7511,849;  302,546;18345,401;39,95655
 560,41; 7595,071;  289,229;18728,400;39,62131
 561,00; 7724,342;  307,235;19116,480;39,43330
 561,58; 7805,064;  290,921;19327,438;39,47225
 562,16; 7904,882;  272,303;19675,550;39,33661
 562,74; 8002,083;  278,839;20110,555;38,94390
 563,32; 8124,507;  265,930;20529,970;38,78090
 563,90; 8268,949;  287,004;20949,892;38,62938
 564,48; 8437,459;  296,613;21437,903;38,50686
 565,06; 8630,181;  306,927;22127,297;38,14442
 565,65; 8853,145;  292,628;22876,478;37,90548
 566,23; 9184,136;  340,697;23727,092;37,81446
 566,81; 9391,620;  287,617;24510,726;37,58396
 567,39; 9732,897;  300,932;25535,594;37,37702
 567,97; 9967,909;  314,234;26144,826;37,37303
 568,55;10290,286;  336,622;27166,415;37,09929
 569,13;10509,572;  283,697;27917,393;37,00509
 569,71;10817,002;  294,687;29013,811;36,63870
 570,29;11183,718;  334,992;30096,389;36,45234
 570,87;11447,543;  325,225;30941,688;36,32790
 571,45;11631,873;  325,235;31609,363;36,14177
 572,03;11812,689;  293,548;32143,868;36,16649
 572,61;11983,936;  281,699;32967,164;35,80257
 573,20;12202,187;  314,924;33617,830;35,69437
 573,78;12375,054;  289,699;34373,559;35,45771
 574,36;12490,587;  325,698;34919,934;35,16450
 574,94;12582,482;  382,550;35314,064;34,92529
 575,52;12596,090;  316,019;35552,524;34,85042
 576,10;12695,327;  373,554;36194,068;34,39865
 576,68;12840,510;  361,548;36853,640;34,19635
 577,26;13072,810;  385,714;37576,642;34,11341
 577,84;13198,082;  381,083;38161,201;33,92525
 578,42;13286,511;  431,244;38459,829;33,80422
 579,00;13180,832;  385,238;38593,378;33,48918
 579,58;13141,908;  424,627;38834,084;33,10977
 580,16;13033,663;  396,553;38808,644;32,89878
 580,74;13080,628;  389,476;39054,038;32,82373
 581,32;13032,787;  382,781;39009,879;32,74904
 581,90;12885,544;  424,399;38879,547;32,40436
 582,48;12786,671;  422,091;39172,617;31,90816
 583,06;12729,737;  416,473;39180,820;31,76440
 583,64;12685,003;  412,703;39283,271;31,57222
 584,22;12482,540;  430,328;39106,817;31,16160
 584,80;12357,101;  420,167;38681,591;31,19835
 585,38;12097,530;  448,538;38295,908;30,77887
 585,96;12036,752;  404,085;38219,578;30,76164
 586,54;11990,577;  443,942;38282,212;30,51576
 587,12;11890,565;  402,862;38389,415;30,24150
 587,70;11906,179;  422,778;38481,587;30,17278
 588,28;11803,147;  406,401;38511,753;29,90852
 588,86;11756,229;  413,479;38590,685;29,71079
 589,44;11667,136;  386,333;38608,623;29,51368
 590,02;11670,644;  397,946;38838,781;29,32480
 590,59;11612,304;  371,172;38986,654;29,11043
 591,17;11580,196;  375,033;39198,637;28,86173
 591,75;11550,446;  368,105;39290,821;28,72960
 592,33;11572,689;  373,642;39535,318;28,59696
 592,91;11508,798;  331,262;39761,511;28,34762
 593,49;11573,175;  333,420;40143,947;28,23312
 594,07;11583,595;  355,497;40314,081;28,09934
 594,65;11493,259;  365,789;40319,988;27,85056
 595,23;11572,508;  366,100;40693,046;27,78888
 595,81;11495,513;  349,025;40809,044;27,54939
 596,39;11458,922;  342,564;40992,723;27,34641
 596,97;11472,397;  338,801;41258,565;27,20836
 597,55;11349,802;  340,714;41009,756;27,06995
 598,12;11230,411;  317,960;41111,099;26,75070
 598,70;11210,770;  302,033;41148,397;26,70675
 599,28;11203,949;  340,187;41411,393;26,45104
 599,86;11160,608;  309,955;41385,203;26,41652
 600,44;11066,262;  293,727;41535,941;26,12017
 601,02;11071,670;  339,198;41604,867;26,00824
 601,60;10934,872;  325,798;41550,610;25,73468
 602,18;10853,463;  299,806;41552,575;25,58291
 602,75;10772,625;  298,563;41554,189;25,38820
 603,33;10714,966;  306,264;41695,494;25,14834
 603,91;10688,669;  298,656;41529,371;25,19969
 604,49;10620,581;  323,495;41744,637;24,85949
 605,07;10516,566;  343,490;41730,390;24,58042
 605,65;10440,286;  344,189;41855,071;24,32157
 606,23;10494,041;  419,095;41953,782;24,25670
 606,80;10413,608;  477,178;41965,396;23,95000
 607,38;10349,808;  518,193;41963,994;23,72162
 607,96;10272,181;  578,332;42048,453;23,37550
 608,54;10269,038;  655,958;42069,663;23,21232
 609,12;10173,864;  639,640;42163,546;22,96081
 609,70;10156,079;  687,263;42148,033;22,83801
 610,27;10055,260;  696,254;42161,704;22,57061
 610,85;10039,379;  728,109;42298,070;22,39904
 611,43; 9955,300;  731,187;42209,423;22,23844
 612,01; 9815,704;  677,104;42004,002;22,11296
 612,59; 9735,148;  686,724;42054,983;21,87287
 613,16; 9606,480;  639,020;42004,917;21,67839
 613,74; 9535,915;  607,879;41892,490;21,62558
 614,32; 9463,568;  551,343;41874,679;21,56705
 614,90; 9345,537;  507,722;41710,583;21,44952
 615,48; 9196,887;  443,637;41340,037;21,40347
 616,05; 9110,524;  417,327;41362,814;21,23115
 616,63; 9031,469;  428,940;41107,745;21,14745
 617,21; 8961,943;  418,562;41058,193;21,02229
 617,79; 8871,725;  395,333;40977,077;20,88720
 618,36; 8813,702;  409,490;40879,443;20,76655
 618,94; 8639,877;  349,561;40506,197;20,64495
 619,52; 8526,416;  374,864;40246,952;20,44426
 620,10; 8516,830;  360,102;40224,335;20,46127
 620,67; 8436,494;  363,940;40124,050;20,30315
 621,25; 8313,941;  390,106;39896,483;20,05710
 621,83; 8256,886;  351,253;39866,016;20,00678
 622,41; 8201,032;  400,868;39882,361;19,75651
 622,98; 8089,273;  365,325;39627,033;19,67298
 623,56; 8024,848;  367,939;39583,188;19,52533
 624,14; 7929,295;  348,031;39486,502;19,37036
 624,72; 7851,006;  339,561;39336,969;19,26140
 625,29; 7818,488;  332,862;39395,800;19,16299
 625,87; 7770,588;  374,564;39315,101;18,99312
 626,45; 7677,594;  327,015;39105,145;18,95548
 627,02; 7583,006;  337,642;38977,060;18,75122
 627,60; 7546,681;  323,419;39002,921;18,67465
 628,18; 7469,941;  304,024;39022,700;18,50765
 628,76; 7437,776;  309,941;39026,274;18,41041
 629,33; 7416,582;  335,328;39137,683;18,24955
 629,91; 7370,599;  317,794;39047,566;18,21029
 630,49; 7371,174;  358,096;39197,640;18,05654
 631,06; 7347,211;  336,941;39275,641;18,00335
 631,64; 7280,481;  322,477;39242,001;17,87793
 632,22; 7198,411;  291,628;39338,237;17,68856
 632,79; 7230,205;  318,859;39573,157;17,60660
 633,37; 7182,447;  295,259;39474,226;17,57879
 633,95; 7157,534;  300,707;39608,333;17,44401
 634,52; 7182,810;  280,637;39778,026;17,47501
 635,10; 7132,446;  288,409;39761,510;17,33849
 635,68; 7068,958;  294,858;39941,518;17,08618
 636,25; 7050,206;  281,392;39949,384;17,06367
 636,83; 7047,084;  280,941;40174,351;16,96055
 637,41; 6992,781;  277,088;40236,322;16,80636
 637,98; 7037,910;  302,549;40428,874;16,78539
 638,56; 7005,440;  289,237;40563,656;16,67610
 639,13; 6961,274;  288,324;40587,813;16,55840
 639,71; 6974,637;  323,326;40792,815;16,43537
 640,29; 6845,951;  250,634;40492,388;16,38924
 640,86; 6832,000;  261,557;40670,603;16,25983
 641,44; 6842,819;  275,173;40661,895;16,26189
 642,02; 6809,176;  304,942;40628,879;16,12996
 642,59; 6757,763;  258,019;40850,632;16,01213
 643,17; 6763,659;  266,404;40893,616;15,99237
 643,74; 6731,246;  263,866;40884,446;15,92144
 644,32; 6654,911;  298,789;40771,276;15,70480
 644,89; 6663,345;  293,174;40824,414;15,71669
 645,47; 6608,163;  308,790;40873,860;15,52906
 646,05; 6576,597;  290,252;40709,459;15,55287
 646,62; 6521,723;  281,329;40667,597;15,45177
 647,20; 6532,234;  297,406;40834,043;15,38072
 647,77; 6425,283;  268,022;40700,488;15,22851
 648,35; 6420,102;  262,406;40662,934;15,24162
 648,92; 6396,074;  281,022;40673,072;15,13925
 649,50; 6298,123;  250,330;40562,748;15,00231
 650,08; 6312,942;  252,176;40433,501;15,08354
 650,65; 6285,452;  271,715;40672,485;14,88520
 651,23; 6363,732;  241,792;41625,239;14,79321
 651,80; 6498,705;  249,485;42686,530;14,72586
 652,38; 6527,754;  268,562;43115,284;14,60833
 652,95; 6566,111;  228,255;43540,806;14,63284
 653,53; 6607,006;  268,870;43811,713;14,55609
 654,10; 6648,825;  292,409;44030,774;14,53282
 654,68; 6564,489;  254,717;43932,066;14,44633
 655,25; 6519,539;  237,948;43918,511;14,38075
 655,83; 6510,511;  249,333;44067,880;14,28888
 656,40; 6533,483;  276,256;44095,710;14,27956
 656,98; 6466,763;  250,718;43958,925;14,22169
 657,55; 6428,889;  267,487;43774,294;14,16193
 658,13; 6355,554;  248,411;43248,124;14,20275
 658,70; 6271,911;  270,488;42924,415;14,07004
 659,28; 6080,960;  271,642;41800,015;13,98879
 659,85; 5963,163;  277,950;41111,307;13,92296
 660,43; 6004,135;  284,642;41146,444;13,99716
 661,00; 5906,646;  263,489;41329,352;13,74172
 661,58; 5990,465;  255,566;41576,259;13,87900
 662,15; 5958,129;  242,412;41733,166;13,77588
 662,73; 6061,563;  330,643;42125,765;13,71193
 663,30; 6033,228;  268,336;42366,595;13,69390
 663,88; 6027,354;  270,028;42426,887;13,65691
 664,45; 6011,865;  254,644;42750,025;13,54787
 665,03; 6044,914;  262,952;43118,394;13,49178
 665,60; 6217,348;  335,645;43618,839;13,58888
 666,17; 6150,551;  255,337;43668,285;13,57939
 666,75; 6121,677;  252,107;44082,730;13,39148
 667,32; 6239,188;  278,722;44412,945;13,50531
 667,90; 6234,160;  270,415;44652,775;13,43720
 668,47; 6298,440;  285,338;45028,605;13,43912
 669,05; 6255,797;  254,877;45230,974;13,34246
 669,62; 6203,769;  240,415;45445,266;13,19184
 670,19; 6232,357;  250,262;45426,788;13,24160
 670,77; 6239,637;  258,570;45669,388;13,17102
 671,34; 6221,994;  239,416;45574,449;13,19637
 671,92; 6268,966;  237,186;45965,125;13,19058
 672,49; 6255,323;  268,878;45987,032;13,09424
 673,06; 6220,449;  221,494;46023,093;13,09770
 673,64; 6205,344;  237,340;46026,385;13,03369
 674,21; 6185,317;  227,417;45941,215;13,03304
 674,79; 6198,827;  265,725;46187,584;12,92000
 675,36; 6214,415;  264,649;46322,644;12,91799
 675,93; 6162,003;  233,034;46178,859;12,90426
 676,51; 6189,591;  254,649;46308,997;12,88682
 677,08; 6202,563;  259,496;46503,827;12,85145
 677,65; 6173,689;  256,265;46552,888;12,78155
 678,23; 6180,661;  257,419;46751,334;12,73982
 678,80; 6217,710;  248,650;46858,087;12,80655
 679,38; 6195,529;  247,266;47109,840;12,69299
 679,95; 6264,655;  252,881;47317,747;12,77338
 680,52; 6248,474;  248,112;47656,885;12,65665
 681,10; 6287,523;  275,036;48104,254;12,57074
 681,67; 6304,341;  256,574;48320,699;12,58270
 682,24; 6300,006;  225,190;48404,530;12,60876
 682,82; 6361,594;  235,806;48952,668;12,57427
 683,39; 6385,412;  295,191;49430,421;12,39482
 683,96; 6444,307;  249,114;49508,405;12,57670
 684,54; 6450,126;  222,268;49864,004;12,54561
 685,11; 6498,637;  271,653;50262,527;12,45624
 685,68; 6574,378;  244,499;50754,895;12,53183
 686,25; 6516,043;  233,346;50844,418;12,41368
 686,83; 6584,784;  244,654;51055,017;12,47803
 687,40; 6587,680;  224,500;51346,694;12,44700
 687,97; 6675,652;  275,731;51750,139;12,43321
 688,55; 6630,701;  224,347;51804,892;12,42010
 689,12; 6661,289;  199,347;52041,107;12,46474
 689,69; 6643,800;  225,578;52085,783;12,37601
 690,26; 6693,849;  238,424;52170,768;12,43045
 690,84; 6683,898;  233,348;52441,982;12,35533
 691,41; 6671,716;  252,809;52486,197;12,28890
 691,98; 6781,381;  245,425;52829,643;12,42950
 692,56; 6753,584;  229,271;52997,857;12,36401
 693,13; 6786,556;  287,579;52920,534;12,34773
 693,70; 6780,298;  262,349;53043,979;12,34890
 694,27; 6752,501;  241,503;53282,963;12,27530
 694,84; 6739,781;  231,657;53357,640;12,25036
 695,42; 6797,138;  283,965;53472,855;12,24536
 695,99; 6758,187;  250,734;53747,223;12,16426
 696,56; 6769,159;  241,889;53559,361;12,24227
 697,13; 6825,593;  261,966;53951,114;12,22524
 697,71; 6798,335;  229,043;53976,483;12,22252
 698,28; 6869,846;  243,197;54357,159;12,24573
 698,85; 6781,433;  208,890;54387,066;12,13135
 699,42; 6806,021;  218,505;54574,973;12,11910
 699,99; 6846,301;  255,659;54751,188;12,09391
 700,57; 6838,658;  251,429;54712,941;12,09520
 701,14; 6861,476;  237,660;54894,310;12,11896
 701,71; 6919,526;  261,583;55089,140;12,14342
 702,28; 6899,959;  249,660;55203,124;12,10169
 702,85; 6912,855;  258,968;55134,724;12,12537
 703,43; 6915,442;  269,199;55389,092;12,05779
 704,00; 6955,569;  276,892;55671,230;12,05661
 704,57; 6910,464;  259,892;55673,368;12,00172
 705,14; 6981,282;  286,354;55892,198;12,03997
 705,71; 6994,639;  296,585;55932,028;12,03919
 706,28; 6974,612;  260,123;55763,397;12,09746
 706,86; 7004,045;  297,585;56023,227;12,03478
 707,43; 6998,402;  316,355;55914,288;12,01852
 708,00; 6975,298;  290,509;56106,503;11,97648
 708,57; 6953,885;  255,048;55978,949;12,02148
 709,14; 7008,089;  285,586;56030,394;12,05942
 709,71; 6971,830;  270,279;56060,917;12,01196
 710,28; 7023,572;  264,894;56358,516;12,04892
 710,86; 7049,236;  265,895;56390,423;12,08623
 711,43; 7053,824;  296,126;56437,638;12,03690
 712,00; 7068,642;  276,818;56659,237;12,04600
 712,57; 7112,538;  282,126;56759,375;12,09409
 713,14; 7094,433;  262,973;56867,513;12,06875
 713,71; 7087,175;  272,050;56818,343;12,05229
 714,28; 7103,301;  257,588;56919,404;12,08170
 714,85; 7100,812;  242,050;56565,004;12,17756
 715,42; 7107,553;  242,358;56728,757;12,15371
 716,00; 7205,987;  316,820;56924,125;12,17010
 716,57; 7149,113;  246,282;56951,802;12,17312
 717,14; 7067,931;  229,974;56936,170;12,05857
 717,71; 7091,750;  230,821;56957,693;12,09467
 718,28; 7165,953;  278,898;57090,138;12,12270
 718,85; 7103,848;  222,821;57116,123;12,09462
 719,42; 7156,513;  257,360;57282,953;12,09835
 719,99; 7117,870;  231,745;57033,706;12,12304
 720,56; 7183,304;  256,360;57311,613;12,14076
 721,13; 7240,661;  232,668;57520,982;12,23285
 721,70; 7180,248;  239,822;57310,581;12,16109
 722,27; 7217,605;  258,976;57399,027;12,17820
 722,84; 7254,193;  299,823;57566,780;12,14377
 723,41; 7226,165;  226,131;57493,072;12,22352
 723,98; 7254,907;  239,823;57758,517;12,19618
 724,55; 7268,033;  264,824;57882,194;12,15468
 725,12; 7156,313;  205,285;57881,947;12,05172
 725,69; 7263,362;  228,670;57941,777;12,18907
 726,27; 7313,488;  246,132;57932,069;12,25144
 726,84; 7327,153;  246,978;58437,283;12,16728
 727,41; 7340,510;  251,671;58343,037;12,20291
 727,98; 7387,790;  259,364;58616,559;12,21516
 728,55; 7416,454;  276,748;58480,851;12,26667
 729,12; 7394,119;  228,364;58644,450;12,26675
 729,69; 7464,861;  273,287;58787,204;12,29036
 730,26; 7482,910;  273,365;58986,572;12,27926
 730,82; 7442,036;  253,365;58801,325;12,27826
 731,39; 7533,624;  237,750;59025,694;12,41049
 731,96; 7522,365;  226,058;59327,140;12,34547
 732,53; 7545,876;  248,673;59445,739;12,32697
 733,10; 7516,233;  270,904;59478,262;12,23721
 733,67; 7598,205;  256,674;59837,399;12,32199
 734,24; 7556,793;  234,982;59425,922;12,36982
 734,81; 7610,611;  279,213;59498,291;12,38013
 735,38; 7541,122;  257,136;59310,813;12,33452
 735,95; 7551,248;  247,213;59091,028;12,41258
 736,52; 7556,682;  265,598;59294,627;12,35169
 737,09; 7505,116;  259,906;58937,919;12,34740
 737,66; 7589,473;  308,368;59125,672;12,37919
 738,23; 7548,291;  241,753;59219,425;12,38865
 738,80; 7651,494;  325,753;59585,717;12,36204
 739,37; 7648,774;  288,599;59725,470;12,38318
 739,94; 7632,823;  264,676;59793,685;12,37741
 740,51; 7760,334;  378,138;59844,131;12,41415
 741,07; 7670,460;  253,908;59775,346;12,46031
 741,64; 7751,894;  295,908;59983,022;12,49179
 742,21; 7705,251;  261,600;60014,391;12,45741
 742,78; 7728,685;  235,678;59743,298;12,59168
 743,35; 7756,965;  248,986;60057,512;12,55336
 743,92; 7780,168;  295,524;60245,266;12,48486
 744,49; 7832,140;  282,063;60010,250;12,64073
 745,06; 7770,420;  247,909;60085,464;12,57155
 745,63; 7785,700;  238,217;60007,141;12,62777
 746,19; 7739,134;  251,833;59962,356;12,53933
 746,76; 7803,337;  256,602;60007,032;12,63043
 747,33; 7789,310;  250,141;60026,247;12,61234
 747,90; 7861,897;  280,911;60227,462;12,64624
 748,47; 7853,946;  259,449;60168,984;12,67661
 749,04; 7847,611;  265,296;60147,583;12,66203
 749,61; 7866,814;  294,911;60038,337;12,67404
 750,17; 7880,171;  285,758;60183,090;12,67905
 750,74; 7861,605;  270,912;60067,997;12,69409
 751,31; 7841,500;  243,835;60065,443;12,70054
 751,88; 7847,857;  241,143;59910,196;12,74817
 752,45; 7900,522;  258,143;60081,718;12,77486
 753,02; 7866,725;  278,836;59896,625;12,72756
 753,58; 7893,159;  233,913;59817,763;12,85457
 754,15; 7885,977;  247,990;59950,286;12,79346
 754,72; 7845,257;  240,375;59794,270;12,76975
 755,29; 7859,383;  234,221;59679,792;12,82713
 755,86; 7926,586;  253,222;59764,930;12,89387
 756,42; 7943,866;  255,145;59646,837;12,94579
 756,99; 7844,454;  217,299;59707,821;12,82079
 757,56; 7864,349;  228,145;59525,421;12,87783
 758,13; 7832,322;  191,300;59519,174;12,87931
 758,70; 7895,063;  218,992;59516,312;12,94506
 759,26; 7903,189;  204,069;59594,065;12,96366
 759,83; 7914,392;  218,685;59743,126;12,92865
 760,40; 7907,749;  204,608;59452,187;13,00161
 760,97; 7905,183;  192,224;59546,094;12,99487
 761,53; 7851,079;  191,609;59311,001;12,95593
 762,10; 7856,512;  187,378;59170,831;13,00218
 762,67; 7888,792;  214,148;59106,969;13,03155
 763,24; 7832,919;  182,225;58661,107;13,08283
 763,80; 7893,352;  201,687;58829,168;13,11956
 764,37; 7874,709;  211,225;58747,614;13,09183
 764,94; 7799,528;  187,379;58355,444;13,08647
 765,50; 7797,731;  197,303;58250,889;13,09209
 766,07; 7894,472;  233,226;58263,720;13,20210
 766,64; 7861,291;  209,996;57982,396;13,24386
 767,21; 7807,648;  222,150;57950,688;13,13994
 767,77; 7848,620;  223,535;57757,210;13,25326
 768,34; 7815,362;  243,996;57835,963;13,14656
 768,91; 7836,795;  241,689;57543,101;13,25466
 769,47; 7861,614;  240,920;57486,085;13,31238
 770,04; 7842,817;  254,151;57440,992;13,26995
 770,61; 7790,635;  231,382;57224,361;13,26348
 771,18; 7785,915;  222,151;57047,268;13,31060
 771,74; 7879,888;  237,459;57235,406;13,40825
 772,31; 7855,937;  244,767;56999,467;13,41064
 772,88; 7791,678;  209,152;56754,451;13,40965
 773,44; 7769,651;  218,614;56536,589;13,40786
 774,01; 7810,238;  239,537;56613,342;13,42947
 774,58; 7776,826;  222,153;56296,711;13,47255
 775,14; 7805,721;  210,999;56412,464;13,51339
 775,71; 7830,771;  218,461;56348,294;13,56197
 776,27; 7905,512;  280,615;56213,278;13,63228
 776,84; 7924,331;  314,154;56304,493;13,59195
 777,41; 7864,303;  242,077;55950,785;13,68229
 777,97; 7850,429;  227,770;55718,922;13,73671
 778,54; 7826,940;  244,924;55748,830;13,66033
 779,11; 7860,528;  259,386;55763,506;13,69473
 779,67; 7850,884;  220,540;55671,721;13,76047
 780,24; 7808,703;  237,540;55375,551;13,73130
 780,80; 7866,983;  255,694;55373,919;13,80902
 781,37; 7862,724;  250,002;55541,980;13,76822
 781,94; 7799,697;  240,156;55196,888;13,75544
 782,50; 7852,977;  249,695;55052,718;13,87384
 783,07; 7899,103;  262,003;55063,856;13,93584
 783,63; 7853,460;  225,849;54920,070;13,94592
 784,20; 7856,124;  263,003;54836,977;13,91345
 784,77; 7847,174;  235,850;54660,731;13,98501
 785,33; 7797,223;  219,773;54378,176;13,99127
 785,90; 7790,349;  240,542;54360,622;13,95010
 786,46; 7848,783;  260,466;54292,837;14,04402
 787,03; 7847,370;  221,004;54110,744;14,15180
 787,59; 7832,497;  240,235;53997,420;14,12325
 788,16; 7839,469;  251,697;54021,404;14,11161
 788,73; 7783,826;  247,697;53785,311;14,07632
 789,29; 7810,106;  240,544;53423,988;14,23293
 789,86; 7817,694;  258,544;53351,202;14,23765
 790,42; 7780,204;  242,237;53140,956;14,24981
 790,99; 7770,100;  254,929;52815,940;14,29799
 791,55; 7788,533;  229,160;52792,924;14,38134
 792,12; 7769,429;  262,160;52820,523;14,28368
 792,68; 7774,324;  239,699;52524,738;14,41067
 793,25; 7713,373;  254,469;52215,799;14,35472
 793,81; 7761,269;  316,546;51916,398;14,42780
 794,38; 7627,087;  210,469;51653,459;14,41716
 794,94; 7693,060;  212,315;51481,059;14,59124
 795,51; 7697,032;  247,854;51209,504;14,61722
 796,07; 7660,927;  236,316;51034,488;14,61590
 796,64; 7665,900;  265,162;51104,780;14,55703
 797,20; 7630,872;  251,240;50573,379;14,66478
 797,77; 7558,767;  217,317;50237,363;14,67702
 798,33; 7553,586;  241,240;50048,270;14,68135
 798,90; 7596,404;  271,240;49972,254;14,73846
 799,46; 7497,607;  233,856;49438,238;14,76241
 800,03; 7526,118;  238,318;49475,684;14,80136
 800,59; 7512,398;  255,087;49325,899;14,78947
 801,15; 7474,370;  262,241;48916,344;14,82327
 801,72; 7462,958;  259,857;48572,636;14,90931
 802,28; 7426,546;  271,011;48293,851;14,90027
 802,85; 7335,210;  240,088;48018,143;14,85017
 803,41; 7370,259;  234,242;47993,665;14,94159
 803,98; 7348,693;  236,319;47385,880;15,08471
 804,54; 7301,896;  234,089;47260,172;15,02955
 805,11; 7315,561;  235,243;47031,079;15,13023
 805,67; 7334,226;  264,243;47025,755;15,11923
 806,23; 7264,198;  254,551;46493,662;15,15956
 806,80; 7284,401;  264,474;46325,261;15,24057
 807,36; 7249,066;  269,090;46274,245;15,17216
 807,93; 7255,961;  264,552;46054,999;15,26827
 808,49; 7171,779;  227,244;45652,137;15,28795
 809,05; 7135,752;  226,399;45456,659;15,27595
 809,62; 7171,109;  258,476;45281,566;15,35353
 810,18; 7191,619;  243,476;45264,243;15,43320
 810,74; 7088,284;  214,245;44941,150;15,36891
 811,31; 7092,949;  224,323;44772,518;15,41842
 811,87; 7106,152;  241,938;44580,810;15,48125
 812,44; 7154,970;  268,631;44608,871;15,53068
 813,00; 7063,558;  180,939;44238,470;15,62189
 813,56; 7098,376;  245,477;44277,993;15,56327
 814,13; 7067,579;  238,632;44153,900;15,55028
 814,69; 7078,321;  240,401;43940,730;15,64730
 815,25; 6978,909;  207,401;43580,714;15,61215
 815,82; 7001,881;  252,401;43491,775;15,60957
 816,38; 7027,853;  288,094;43235,682;15,69299
 816,94; 6898,133;  228,940;42973,512;15,60243
 817,51; 6885,105;  208,556;42691,958;15,71567
 818,07; 6845,232;  203,172;42410,711;15,73667
 818,63; 6868,204;  242,787;42231,541;15,77903
 819,20; 6826,792;  235,711;42167,756;15,71848
 819,76; 6804,995;  224,557;41715,125;15,86008
 820,32; 6840,428;  253,557;41683,032;15,89900
 820,89; 6809,016;  248,634;41346,401;15,96287
 821,45; 6764,988;  227,635;41066,692;16,00760
 822,01; 6760,268;  243,481;40818,830;16,06095
 822,57; 6775,625;  250,712;40752,814;16,11006
 823,14; 6695,598;  204,020;40358,567;16,16648
 823,70; 6690,955;  218,790;40197,013;16,18923
 824,26; 6669,388;  217,559;40033,074;16,20431
 824,82; 6716,515;  250,098;39788,058;16,35496
 825,39; 6626,948;  225,098;39508,580;16,29655
 825,95; 6650,921;  247,406;39592,411;16,27529
 826,51; 6633,355;  247,098;39127,164;16,42553
 827,08; 6666,788;  285,176;39188,840;16,40363
 827,64; 6641,991;  255,637;39035,286;16,46831
 828,20; 6590,733;  220,715;38672,270;16,56635
 828,76; 6644,321;  251,099;38728,408;16,61556
 829,32; 6645,908;  259,253;38534,853;16,68597
 829,89; 6583,496;  212,023;38430,529;16,67117
 830,45; 6592,468;  239,408;38338,590;16,67506
 831,01; 6583,671;  234,639;38215,421;16,71643
 831,57; 6610,105;  229,331;37967,635;16,90795
 832,14; 6551,308;  224,178;37938,696;16,77638
 832,70; 6575,819;  222,024;37751,296;16,93024
 833,26; 6590,330;  194,794;37680,434;17,06130
 833,82; 6562,764;  234,025;37455,802;17,00279
 834,38; 6595,274;  216,563;37564,786;17,07902
 834,95; 6600,554;  222,871;37492,463;17,11230
 835,51; 6498,757;  189,025;37183,600;17,05583
 836,07; 6589,653;  226,410;37249,431;17,18726
 836,63; 6621,087;  250,411;37352,261;17,17078
 837,19; 6619,828;  240,257;37063,322;17,32493
 837,75; 6561,877;  207,565;36846,460;17,34308
 838,32; 6636,081;  251,565;36923,751;17,40969
 838,88; 6619,745;  245,027;36891,043;17,39539
 839,44; 6627,717;  249,027;36809,258;17,44707
 840,00; 6599,459;  230,720;36704,011;17,46138
 840,56; 6532,739;  220,874;36469,611;17,41265
 841,12; 6527,865;  219,489;36309,287;17,47966
 841,68; 6499,530;  197,182;36230,194;17,49048
 842,25; 6544,425;  218,875;36164,255;17,59767
 842,81; 6516,320;  204,952;35981,393;17,64113
 843,37; 6498,600;  214,183;35979,454;17,57129
 843,93; 6572,419;  217,798;35781,669;17,86819
 844,49; 6603,776;  234,029;35855,729;17,88165
 845,05; 6516,671;  182,645;35711,329;17,82792
 845,61; 6611,874;  231,799;35821,621;17,92669
 846,17; 6580,385;  216,184;35575,143;17,99884
 846,73; 6607,050;  225,492;35471,973;18,10552
 847,29; 6576,637;  211,492;35325,880;18,12689
 847,86; 6592,917;  209,185;35293,941;18,19517
 848,42; 6555,813;  202,493;35106,310;18,20236
 848,98; 6564,323;  229,724;35013,140;18,21155
 849,54; 6607,065;  220,801;35013,663;18,35510
 850,10; 6591,037;  229,955;34945,108;18,32365
 850,66; 6560,933;  200,417;34694,015;18,43970
 851,22; 6573,136;  202,648;34618,692;18,51023
 851,78; 6630,185;  255,494;34686,676;18,51430
 852,34; 6567,003;  224,725;34413,198;18,55093
 852,90; 6569,899;  213,418;34318,567;18,63789
 853,46; 6526,025;  198,956;34122,935;18,65073
 854,02; 6554,920;  228,495;34106,766;18,67399
 854,58; 6518,585;  221,111;33866,134;18,71740
 855,14; 6491,096;  203,957;33739,580;18,74764
 855,70; 6462,837;  183,188;33581,641;18,80222
 856,26; 6528,425;  224,650;33626,086;18,87277
 856,82; 6469,782;  209,112;33341,916;18,89568
 857,38; 6483,369;  250,497;33316,516;18,84978
 857,94; 6461,726;  221,881;33181,808;18,93161
 858,50; 6474,468;  225,266;32960,484;19,09015
 859,06; 6404,902;  207,805;32807,083;19,00992
 859,62; 6465,797;  232,190;32650,837;19,22846
 860,18; 6359,154;  221,344;32590,590;18,96186
 860,74; 6375,742;  188,575;32362,112;19,23061
 861,30; 6325,483;  193,960;32227,481;19,14096
 861,86; 6429,532;  267,806;32294,542;19,23932
 862,42; 6360,812;  226,268;31965,757;19,32780
 862,98; 6403,477;  248,576;32078,125;19,33707
 863,54; 6299,757;  220,653;31793,032;19,25450
 864,10; 6316,114;  213,269;31937,093;19,23742
 864,66; 6265,702;  202,192;31644,693;19,28444
 865,22; 6306,289;  224,346;31435,984;19,48614
 865,78; 6278,185;  219,192;31266,353;19,51545
 866,34; 6229,849;  204,731;31362,106;19,33769
 866,90; 6222,822;  220,808;31083,475;19,44749
 867,45; 6205,717;  236,578;30929,151;19,44815
 868,01; 6199,689;  223,655;30790,597;19,55065
 868,57; 6154,739;  215,732;30619,966;19,53349
 869,13; 6116,403;  200,732;30401,565;19,58777
 869,69; 6126,452;  210,271;30320,241;19,64858
 870,25; 6123,425;  186,348;30246,302;19,75078
 870,81; 6118,705;  214,810;30184,209;19,69974
 871,37; 6185,754;  223,349;30086,809;19,96555
 871,93; 6123,265;  236,811;29867,716;19,86593
 872,49; 6085,622;  254,580;29613,854;19,86099
 873,04; 6078,748;  202,196;29450,145;20,09218
 873,60; 6087,028;  195,350;29270,822;20,26340
 874,16; 6044,846;  219,119;29224,883;20,08472
 874,72; 5998,000;  217,888;29149,498;19,97853
 875,28; 6027,692;  225,119;29078,806;20,11034
 875,84; 6049,615;  226,581;29020,498;20,22314
 876,40; 6072,692;  213,504;28867,960;20,44774
 876,95; 6117,154;  227,042;28836,113;20,58827
 877,51; 6129,308;  247,273;28855,267;20,56081
 878,07; 6147,769;  253,812;28901,729;20,57377
 878,63; 6152,615;  223,965;28900,037;20,67455
 879,19; 6122,385;  228,812;28924,267;20,53835
 879,75; 6144,769;  216,504;28921,729;20,65222
 880,30; 6168,308;  207,735;28891,883;20,78002
 880,86; 6229,769;  260,042;29039,883;20,74274
 881,42; 6237,154;  206,812;29044,113;20,91160
 881,98; 6244,000;  232,504;29123,190;20,80773
 882,54; 6288,231;  203,119;29288,498;20,92155
 883,09; 6354,308;  219,965;29421,113;21,00720
 883,65; 6341,769;  202,658;29500,883;20,95387
 884,21; 6433,231;  245,427;29732,037;20,98513
 884,77; 6445,692;  215,658;29681,806;21,14302
 885,32; 6469,769;  216,427;29980,883;21,00943
 885,88; 6550,846;  248,119;30130,960;21,09146
 886,44; 6596,615;  224,119;30121,344;21,31467
 887,00; 6586,692;  246,504;30179,498;21,18127
 887,56; 6597,692;  210,119;30411,498;21,14994
 888,11; 6650,154;  216,273;30340,498;21,35783
 888,67; 6712,077;  240,273;30523,960;21,37059
 889,23; 6700,231;  224,273;30494,960;21,39349
 889,79; 6660,154;  209,658;30424,113;21,34904
 890,34; 6710,769;  232,658;30343,883;21,51394
 890,90; 6788,077;  290,965;30495,883;21,51011
 891,46; 6678,615;  201,427;30323,883;21,50286
 892,01; 6729,615;  243,658;30357,652;21,53802
 892,57; 6739,538;  258,273;30260,883;21,60234
 893,13; 6661,077;  232,965;30047,883;21,56005
 893,69; 6675,615;  207,427;29994,344;21,71486
 894,24; 6686,154;  218,196;29892,037;21,79683
 894,80; 6666,615;  226,658;29773,037;21,79610
 895,36; 6628,538;  220,427;29661,729;21,76572
 895,91; 6573,308;  220,965;29475,190;21,71427
 896,47; 6628,538;  234,965;29274,113;22,01708
 897,03; 6525,846;  227,119;29118,037;21,80175
 897,58; 6504,308;  233,196;28943,960;21,84237
 898,14; 6505,615;  233,196;28747,498;21,99745
 898,70; 6447,846;  196,350;28606,421;22,00451
 899,25; 6448,923;  218,427;28578,113;21,96955
 899,81; 6456,231;  235,581;28370,960;22,10971
 900,37; 6357,385;  186,042;28129,421;22,08517
 900,92; 6360,308;  221,965;28086,883;22,02893
 901,48; 6360,077;  225,581;27998,344;22,08817
 902,03; 6276,923;  217,119;27810,344;21,96120
 902,59; 6316,846;  215,196;27764,498;22,14811
 903,15; 6286,154;  241,658;27546,113;22,13740
 903,70; 6236,923;  215,042;27327,883;22,21044
 904,26; 6210,692;  211,658;27219,267;22,21239
 904,82; 6227,000;  220,273;27155,883;22,30032
 905,37; 6183,077;  227,888;27043,498;22,20792
 905,93; 6214,923;  209,504;26857,729;22,53591
 906,48; 6177,692;  228,735;26871,113;22,32893
 907,04; 6186,462;  232,196;26694,498;22,50094
 907,60; 6121,385;  219,350;26502,421;22,45565
 908,15; 6118,692;  197,888;26350,190;22,63970
 908,71; 6108,077;  238,042;26385,037;22,45013
 909,26; 6096,231;  224,427;26125,652;22,66999
 909,82; 6081,769;  227,196;26128,729;22,60319
 910,37; 6063,231;  266,119;25979,190;22,54539
 910,93; 6016,615;  212,812;25777,421;22,70249
 911,48; 5977,385;  201,888;25659,806;22,68644
 912,04; 5939,692;  220,119;25480,806;22,64219
 912,60; 5987,846;  228,812;25513,729;22,77656
 913,15; 5967,692;  221,273;25329,498;22,88660
 913,71; 5886,769;  204,812;25161,498;22,76728
 914,26; 5872,462;  202,658;25003,344;22,86148
 914,82; 5853,308;  225,735;24906,652;22,80131
 915,37; 5845,462;  199,658;24883,575;22,87240
 915,93; 5842,154;  256,735;24693,344;22,85677
 916,48; 5808,000;  193,581;24655,344;22,95182
 917,04; 5828,385;  227,735;24440,037;23,13142
 917,59; 5798,308;  249,658;24525,113;22,85704
 918,15; 5717,000;  190,042;24173,960;23,04443
 918,70; 5707,615;  205,273;24166,113;22,96390
 919,26; 5763,538;  219,427;24042,652;23,27188
 919,81; 5682,154;  200,658;23895,575;23,13364
 920,37; 5700,692;  204,888;23822,421;23,27002
 920,92; 5699,308;  228,504;23654,498;23,35356
 921,48; 5590,846;  200,504;23530,729;23,10454
 922,03; 5641,846;  205,504;23463,575;23,37400
 922,59; 5631,769;  216,119;23292,575;23,46829
 923,14; 5620,538;  212,273;23113,729;23,61538
 923,69; 5614,385;  223,350;23059,652;23,60730
 924,25; 5635,077;  236,504;22986,344;23,73016
 924,80; 5562,154;  215,735;22825,960;23,64602
 925,36; 5562,923;  203,581;22760,883;23,75879
 925,91; 5490,000;  196,119;22596,498;23,63300
 926,47; 5442,923;  186,812;22550,806;23,50256
 927,02; 5509,769;  273,273;22458,190;23,60386
 927,57; 5468,077;  218,273;22275,421;23,80092
 928,13; 5471,692;  202,581;22197,037;23,95654
 928,68; 5443,462;  207,735;22179,729;23,82909
 929,24; 5393,385;  187,812;21897,806;23,97777
 929,79; 5353,846;  210,965;21808,960;23,81184
 930,34; 5357,769;  212,196;21625,652;24,02962
 930,90; 5347,077;  201,119;21634,190;24,00943
 931,45; 5360,769;  223,658;21562,267;24,07426
 932,01; 5370,385;  224,812;21431,883;24,26348
 932,56; 5317,385;  233,658;21278,729;24,15638
 933,11; 5347,769;  236,504;21355,190;24,20257
 933,67; 5283,615;  211,427;21081,421;24,30374
 934,22; 5255,000;  216,504;21017,267;24,22265
 934,77; 5231,846;  234,888;20884,960;24,19826
 935,33; 5171,538;  223,965;20760,652;24,09139
 935,88; 5205,154;  219,273;20625,113;24,43360
 936,43; 5152,538;  213,504;20572,190;24,26008
 936,99; 5173,000;  212,735;20439,729;24,52300
 937,54; 5113,462;  204,273;20285,652;24,44647
 938,09; 5114,000;  219,812;20243,806;24,44162
 938,65; 5095,077;  215,273;20138,498;24,49304
 939,20; 5044,231;  190,196;20034,344;24,46079
 939,75; 5048,692;  210,196;19952,883;24,50779
 940,31; 5029,231;  188,888;19821,575;24,65451
 940,86; 5044,154;  220,042;19795,960;24,64309
 941,41; 5091,308;  293,273;19672,652;24,75845
 941,96; 4973,692;  196,888;19552,652;24,67897
 942,52; 4990,308;  208,042;19358,498;24,97207
 943,07; 5001,692;  190,273;19329,883;25,13854
 943,62; 4946,308;  194,735;19270,806;24,90855
 944,18; 4935,846;  196,658;19146,806;25,00871
 944,73; 4912,769;  217,965;19028,960;24,95777
 945,28; 4884,846;  182,581;18910,113;25,10884
 945,83; 4909,692;  200,350;18902,267;25,18107
 946,39; 4887,615;  205,965;18762,037;25,22975
 946,94; 4934,538;  240,581;18793,113;25,30090
 947,49; 4840,846;  207,504;18619,652;25,16459
 948,04; 4904,462;  240,965;18558,113;25,45973
 948,59; 4859,000;  237,427;18520,421;25,27799
 949,15; 4777,462;  189,273;18325,652;25,29826
 949,70; 4767,538;  208,273;18289,575;25,21536
 950,25; 4788,231;  216,196;18151,729;25,49149
 950,80; 4733,615;  177,196;18029,498;25,52287
 951,36; 4723,385;  172,119;17948,037;25,60355
 951,91; 4735,308;  217,658;17940,113;25,49111
 952,46; 4652,308;  195,350;17714,267;25,44083
 953,01; 4727,308;  214,196;17756,190;25,72747
 953,56; 4650,000;  190,350;17610,652;25,60030
 954,11; 4667,538;  217,888;17566,421;25,64857
 954,67; 4601,077;  201,427;17494,652;25,44147
 955,22; 4575,462;  181,658;17318,421;25,63964
 955,77; 4578,154;  217,888;17317,037;25,49990
 956,32; 4622,769;  253,888;17234,267;25,72899
 956,87; 4530,308;  200,658;17057,806;25,68436
 957,42; 4484,538;  211,273;17000,344;25,45266
 957,98; 4510,615;  194,042;16885,729;25,86062
 958,53; 4496,692;  233,735;16905,344;25,57016
 959,08; 4426,769;  192,504;16733,421;25,59873
 959,63; 4437,923;  205,504;16589,498;25,83265
 960,18; 4437,308;  216,888;16566,960;25,81285
 960,73; 4415,231;  207,658;16534,960;25,77017
 961,28; 4408,308;  179,965;16409,806;26,05289
 961,83; 4373,385;  228,119;16367,575;25,68405
 962,39; 4350,769;  187,273;16232,190;25,94900
 962,94; 4352,462;  207,042;16179,344;25,95380
 963,49; 4314,000;  208,658;16006,729;25,98635
 964,04; 4364,462;  218,119;15901,267;26,43820
 964,59; 4295,308;  189,427;15873,652;26,17841
 965,14; 4307,462;  222,427;15785,190;26,24877
 965,69; 4259,000;  208,581;15683,421;26,17422
 966,24; 4219,231;  202,119;15562,267;26,15282
 966,79; 4253,615;  217,735;15553,652;26,31653
 967,34; 4141,615;  186,427;15374,960;26,04062
 967,89; 4161,692;  196,196;15330,575;26,20191
 968,44; 4179,692;  205,581;15273,421;26,37479
 968,99; 4156,231;  221,196;15182,729;26,30101
 969,55; 4152,692;  218,658;15098,344;26,43896
 970,10; 4099,077;  219,888;14978,037;26,28506
 970,65; 4111,154;  218,812;14927,960;26,46205
 971,20; 4084,846;  194,350;14764,267;26,70225
 971,75; 4007,154;  181,812;14686,652;26,37287
 972,30; 4045,692;  210,427;14581,267;26,68783
 972,85; 4037,692;  204,119;14492,267;26,83044
 973,40; 3987,308;  195,119;14341,190;26,80736
 973,95; 3999,923;  221,119;14313,344;26,81481
 974,50; 4010,154;  236,581;14226,729;26,97307
 975,05; 3922,923;  214,658;14143,037;26,62381
 975,60; 3920,615;  223,350;14038,344;26,76270
 976,15; 3899,846;  208,581;13907,960;26,94476
 976,70; 3864,692;  221,965;13842,113;26,74513
 977,25; 3853,308;  223,042;13793,652;26,75094
 977,80; 3816,231;  199,427;13662,421;26,86478
 978,35; 3787,615;  219,658;13468,267;26,93081
 978,89; 3756,154;  188,888;13409,806;26,98198
 979,44; 3761,692;  214,350;13393,960;26,91538
 979,99; 3712,923;  193,965;13277,498;26,89608
 980,54; 3747,769;  228,658;13134,344;27,26791
 981,09; 3720,769;  229,888;13020,960;27,29154
 981,64; 3659,769;  223,581;12872,960;27,16488
 982,19; 3675,538;  254,350;12828,113;27,20895
 982,74; 3639,077;  222,273;12694,883;27,39446
 983,29; 3595,385;  200,658;12585,729;27,40983
 983,84; 3550,692;  221,658;12477,806;27,16216
 984,39; 3633,462;  285,504;12405,113;27,62430
 984,94; 3496,538;  183,965;12212,421;27,53947
 985,49; 3541,538;  233,042;12224,037;27,59151
 986,03; 3501,615;  231,504;12074,037;27,61328
 986,58; 3509,385;  261,581;11949,037;27,78880
 987,13; 3449,923;  211,119;11819,037;27,90168
 987,68; 3418,692;  224,581;11701,575;27,83056
 988,23; 3385,231;  221,581;11654,575;27,67123
 988,78; 3369,462;  198,735;11528,421;27,98601
 989,33; 3380,846;  240,504;11380,652;28,18941
 989,88; 3367,923;  255,350;11359,806;28,02995
 990,42; 3325,846;  213,273;11216,883;28,28684
 990,97; 3295,923;  210,196;11052,883;28,45906
 991,52; 3280,538;  231,735;10994,421;28,32754
 992,07; 3264,692;  252,504;10966,113;28,11553
 992,62; 3181,615;  229,042;10832,960;27,84417
 993,17; 3181,538;  230,196;10679,113;28,24544
 993,71; 3152,077;  234,119;10622,037;28,08992
 994,26; 3107,308;  198,965;10405,267;28,49555
 994,81; 3137,385;  239,658;10404,344;28,50778
 995,36; 3071,769;  218,812;10233,190;28,48861
 995,91; 3069,308;  226,119;10173,652;28,58185
 996,45; 3054,846;  225,119;10071,421;28,73898
 997,00; 2991,615;  206,427; 9907,883;28,70897
 997,55; 2991,154;  238,658; 9872,190;28,57203
 998,10; 2993,538;  246,504; 9737,037;28,94500
 998,65; 2945,923;  216,273; 9673,960;28,86171
 999,19; 2942,846;  247,965; 9548,498;28,97555
 999,74; 2894,308;  241,581; 9464,113;28,76354
1000,29; 2855,231;  237,273; 9353,498;28,71756
1000,84; 2794,308;  212,888; 9203,190;28,71338
1001,38; 2782,000;  227,042; 9137,652;28,67321
1001,93; 2766,385;  246,888; 9059,806;28,58867
1002,48; 2723,615;  211,812; 8881,037;28,97380
1003,03; 2736,000;  232,196; 8874,498;28,97149
1003,57; 2690,462;  233,042; 8753,344;28,84193
1004,12; 2697,000;  262,504; 8678,729;28,92622
1004,67; 2638,000;  222,119; 8592,960;28,86067
1005,22; 2579,923;  216,658; 8405,729;28,85877
1005,76; 2534,615;  201,196; 8318,652;28,74570
1006,31; 2525,538;  230,581; 8234,575;28,67266
1006,86; 2493,077;  218,273; 8113,498;28,81240
1007,40; 2494,769;  195,196; 8020,806;29,38523
1007,95; 2457,846;  220,119; 7905,421;29,11697
1008,50; 2430,846;  231,196; 7753,960;29,23992
1009,04; 2380,308;  209,812; 7686,652;29,02959
1009,59; 2358,615;  229,042; 7556,190;29,06415
1010,14; 2323,000;  206,658; 7438,037;29,26610
1010,68; 2301,385;  220,504; 7320,806;29,30693
1011,23; 2266,615;  212,888; 7211,652;29,34414
1011,78; 2264,000;  229,888; 7119,344;29,52500
1012,32; 2248,692;  241,965; 7036,113;29,53611
1012,87; 2241,462;  257,581; 6974,806;29,53423
1013,42; 2171,077;  203,196; 6845,344;29,62717
1013,96; 2194,077;  257,350; 6877,806;29,25368
1014,51; 2128,077;  192,965; 6726,883;29,61641
1015,06; 2144,769;  187,812; 6776,190;29,70317
1015,60; 2211,462;  264,042; 6805,037;29,77253
1016,15; 2157,692;  209,965; 6771,037;29,68611
1016,69; 2172,462;  217,658; 6788,421;29,75003
1017,24; 2166,846;  199,196; 6784,960;29,87733
1017,79; 2212,538;  241,350; 6898,190;29,61147
1018,33; 2153,385;  207,888; 6841,113;29,32957
1018,88; 2204,385;  224,273; 6898,190;29,66940
1019,42; 2198,154;  217,427; 6885,652;29,70396
1019,97; 2195,077;  207,427; 6909,575;29,65691
1020,51; 2230,231;  242,196; 6946,421;29,65346
1021,06; 2190,308;  188,965; 6917,344;29,74479
1021,61; 2171,692;  190,042; 6892,883;29,56433
1022,15; 2143,692;  170,735; 6874,960;29,42857
1022,70; 2172,615;  209,965; 6875,960;29,44272
1023,24; 2163,077;  202,042; 6803,729;29,70505
1023,79; 2162,231;  213,427; 6726,960;29,91931
1024,33; 2173,154;  204,427; 6673,883;30,43111
1024,88; 2138,385;  225,812; 6619,883;29,91166
1025,42; 2089,692;  219,965; 6470,729;29,91198
1025,97; 2069,077;  206,504; 6409,498;30,02700
1026,51; 2001,846;  174,504; 6244,344;30,10528
1027,06; 2009,538;  202,658; 6224,960;30,00316
1027,60; 1990,615;  229,658; 6108,421;29,95456
1028,15; 1979,154;  224,427; 6049,652;30,12290
1028,69; 1913,385;  178,658; 5900,498;30,31764
1029,24; 1913,846;  190,888; 5858,652;30,39925
1029,78; 1857,923;  191,581; 5760,806;29,92054
1030,33; 1823,846;  183,812; 5600,190;30,27917
1030,87; 1831,692;  203,119; 5562,421;30,38778
1031,42; 1781,769;  186,888; 5474,960;30,15997
1031,96; 1776,154;  216,504; 5405,344;30,05778
1032,51; 1739,077;  193,350; 5354,652;29,94839
1033,05; 1725,692;  218,504; 5267,806;29,84944
1033,60; 1680,462;  181,581; 5145,267;30,19693
1034,14; 1682,231;  199,658; 5080,652;30,37441
1034,69; 1666,154;  204,735; 5045,652;30,18889
1035,23; 1636,923;  211,119; 4934,652;30,18512
1035,77; 1622,692;  199,042; 4887,037;30,36800
1036,32; 1577,615;  174,350; 4782,344;30,45285
1036,86; 1574,231;  210,427; 4749,344;30,04690
1037,41; 1570,231;  220,273; 4667,267;30,35663
1037,95; 1542,231;  179,196; 4579,729;30,97431
1038,50; 1496,077;  185,504; 4553,190;30,00612
1039,04; 1529,846;  220,427; 4509,575;30,52866
1039,58; 1487,692;  185,812; 4421,498;30,73600
1040,13; 1474,385;  202,581; 4362,806;30,57055
1040,67; 1472,308;  235,119; 4322,883;30,26566
1041,21; 1459,231;  231,273; 4245,883;30,58723
1041,76; 1391,692;  188,735; 4150,037;30,36774
1042,30; 1400,769;  200,581; 4087,960;30,87398
1042,85; 1378,923;  203,042; 4051,267;30,55645
1043,39; 1361,692;  185,812; 3954,113;31,20453
1043,93; 1363,385;  215,042; 3934,037;30,87777
1044,48; 1334,615;  210,273; 3906,806;30,41613
1045,02; 1299,462;  199,042; 3826,498;30,33584
1045,56; 1313,846;  226,042; 3777,113;30,63312
1046,11; 1296,538;  220,812; 3749,652;30,48386
1046,65; 1286,308;  204,273; 3688,883;31,05182
1047,19; 1260,154;  196,350; 3599,806;31,25658
1047,74; 1225,077;  186,042; 3537,113;31,00604
1048,28; 1225,154;  212,427; 3515,575;30,65945
1048,82; 1244,692;  226,735; 3507,883;31,02444
1049,37; 1209,538;  218,504; 3423,883;30,91786
1049,91; 1194,000;  211,042; 3355,652;31,25850
1050,45; 1190,154;  222,504; 3341,190;31,02749
1050,99; 1166,538;  212,042; 3292,267;30,98787
1051,54; 1129,769;  190,504; 3225,575;30,94706
1052,08; 1150,308;  237,119; 3201,421;30,80619
1052,62; 1137,692;  230,119; 3156,960;31,00863
1053,16; 1096,462;  211,812; 3111,883;30,50442
1053,71; 1092,077;  208,504; 3087,806;30,68706
1054,25; 1101,538;  216,581; 3010,421;31,67531
1054,79; 1065,538;  223,965; 2979,652;30,53951
1055,33; 1021,538;  188,196; 2892,344;30,81718
1055,88; 1059,077;  220,812; 2885,113;31,46285
1056,42; 1044,308;  230,965; 2875,190;30,75919
1056,96; 1047,462;  227,119; 2836,806;31,43452
1057,50; 1006,308;  220,427; 2793,344;30,54435
1058,05;  979,154;  214,119; 2740,344;30,28371
1058,59;  994,231;  243,888; 2702,960;30,51324
1059,13;  948,000;  199,119; 2619,113;30,94556
1059,67;  981,923;  222,658; 2601,113;31,92262
1060,21;  936,385;  217,581; 2572,344;30,52552
1060,76;  963,923;  228,119; 2535,729;31,88598
1061,30;  942,154;  230,350; 2515,652;31,14704
1061,84;  918,231;  208,196; 2445,883;31,73075
1062,38;  885,154;  208,581; 2374,344;31,23947
1062,92;  926,846;  255,427; 2419,729;31,02244
1063,46;  871,462;  224,119; 2353,421;30,40162
1064,01;  860,923;  216,504; 2333,113;30,44582
1064,55;  875,308;  223,965; 2281,883;31,65056
1065,09;  837,923;  194,735; 2227,806;31,63630
1065,63;  873,000;  250,658; 2235,421;31,35599
1066,17;  871,692;  250,812; 2233,267;31,31877
1066,71;  854,769;  239,735; 2178,806;31,71800
1067,25;  828,231;  214,042; 2134,652;31,97883
1067,80;  825,538;  240,735; 2131,421;30,93077
1068,34;  830,154;  241,350; 2115,190;31,42231
1068,88;  800,846;  218,965; 2031,344;32,10591
1069,42;  808,615;  250,273; 2060,960;30,83595
1069,96;  780,385;  218,581; 2041,421;30,82024
1070,50;  819,538;  251,735; 2038,267;31,78245
1071,04;  761,846;  206,273; 1965,421;31,58194
1071,58;  756,308;  217,042; 1958,267;30,97046
1072,12;  749,692;  219,581; 1920,729;31,16199
1072,66;  757,462;  220,119; 1898,883;32,00822
1073,21;  759,308;  233,427; 1906,806;31,42628
1073,75;  740,308;  238,196; 1855,190;31,05215
1074,29;  737,077;  231,581; 1827,190;31,68044
1074,83;  741,769;  239,581; 1820,190;31,77182
1075,37;  737,538;  239,042; 1805,498;31,82319
1075,91;  731,154;  234,888; 1783,344;32,04905
1076,45;  710,308;  231,504; 1762,421;31,27562
1076,99;  702,154;  240,350; 1738,344;30,82815
1077,53;  680,077;  224,042; 1674,575;31,43911
1078,07;  703,154;  239,812; 1680,575;32,15950
1078,61;  679,462;  222,888; 1656,037;31,85805
1079,15;  667,692;  229,427; 1636,421;31,14905
1079,69;  686,615;  226,735; 1619,344;33,02295
1080,23;  690,308;  248,273; 1642,960;31,69419
1080,77;  721,385;  278,196; 1640,037;32,54335
1081,31;  642,462;  215,888; 1551,498;31,93846
1081,85;  669,923;  239,427; 1559,267;32,61729
1082,39;  625,923;  230,812; 1535,498;30,28402
1082,93;  645,538;  237,427; 1526,421;31,66124
1083,47;  628,231;  208,504; 1501,883;32,45197
1084,01;  651,538;  238,350; 1494,113;32,90337
1084,55;  614,385;  225,119; 1450,652;31,76295
1085,09;  629,769;  247,658; 1436,344;32,14569
1085,63;  618,000;  223,427; 1433,652;32,60328
1086,17;  609,462;  214,273; 1409,037;33,07671
1086,71;  584,154;  226,042; 1363,960;31,47079
1087,24;  613,077;  255,042; 1414,575;30,87749
1087,78;  610,846;  246,735; 1389,037;31,87525
1088,32;  581,000;  202,273; 1326,652;33,68321
1088,86;  601,385;  243,504; 1357,421;32,12813
1089,40;  581,538;  233,812; 1338,267;31,48401
1089,94;  552,692;  203,888; 1270,421;32,70447
1090,48;  570,846;  235,196; 1269,498;32,45184
1091,02;  588,538;  243,735; 1276,113;33,39896
1091,56;  574,538;  228,504; 1258,267;33,60331
1092,10;  540,077;  214,965; 1212,421;32,59408
1092,63;  567,692;  248,658; 1234,190;32,37179
1093,17;  551,231;  239,812; 1216,113;31,89784
1093,71;  528,538;  217,965; 1210,729;31,28369
1094,25;  547,154;  261,888; 1200,190;30,40230
1094,79;  525,846;  224,812; 1174,575;31,69575
1095,33;  523,077;  227,735; 1160,267;31,67099
1095,87;  532,692;  226,965; 1149,960;33,12338
1096,40;  490,846;  210,350; 1115,575;30,98635
1096,94;  525,385;  228,119; 1111,652;33,64509
1097,48;  523,846;  244,196; 1122,267;31,84822
1098,02;  488,615;  223,196; 1093,421;30,50007
1098,56;  469,769;  196,427; 1057,421;31,74729
1099,10;  480,615;  205,196; 1047,806;32,68646
1099,63;  465,692;  206,196; 1042,113;31,04328
1100,17;  495,000;  234,581; 1050,344;31,92338
1100,71;  515,231;  254,042; 1052,190;32,72431

