
Integration time [ms]: 160,000
Averaging Nr. [scans]: 13
Smoothing Nr. [pixels]: 0
Data measured with spectrometer [name]: 2009305U1
Wave   ;Sample   ;Dark     ;Reference;Reflectance
[nm]   ;[counts] ;[counts] ;[counts] ;[%]

 175,72;  201,976;  190,196;  190,611; 0,00000
 176,32;  221,754;  220,808;  214,863; 0,00000
 176,92;  244,380;  230,195;  230,188; 0,00000
 177,52;  253,331;  248,580;  258,697;46,96678
 178,12;  232,394;  231,962;  210,641; 0,00000
 178,72;  263,267;  254,115;  247,099; 0,00000
 179,32;  243,815;  231,116;  228,583; 0,00000
 179,92;  248,075;  234,963;  235,715; 0,00000
 180,52;  235,346;  233,966;  240,193;22,15522
 181,12;  250,938;  247,502;  241,248; 0,00000
 181,73;  271,266;  262,502;  257,259; 0,00000
 182,33;  350,830;  313,119;  315,976;1320,04667
 182,93;  267,882;  242,964;  258,729;158,06197
 183,53;  229,340;  234,730;  223,193; 0,00000
 184,13;  240,065;  240,269;  208,950; 0,00000
 184,73;  269,680;  257,730;  258,096; 0,00000
 185,33;  264,577;  228,331;  353,732;28,90405
 185,93;  266,546;  232,714;  366,417;25,30432
 186,53;  282,098;  235,638;  378,269;32,57389
 187,13;  316,157;  274,870;  419,071;28,63144
 187,73;  275,170;  232,406;  358,474;33,92147
 188,33;  270,784;  230,559;  374,577;27,93072
 188,93;  290,129;  245,479;  372,134;35,25305
 189,53;  287,729;  237,399;  386,092;33,84814
 190,13;  312,862;  263,472;  395,379;37,44278
 190,73;  256,440;  220,706;  350,374;27,55816
 191,34;  297,873;  262,093;  376,943;31,15311
 191,94;  270,791;  237,789;  352,157;28,85641
 192,54;  284,661;  245,641;  406,376;24,27593
 193,14;  298,509;  245,793;  399,720;34,24742
 193,74;  287,339;  241,408;  390,705;30,76459
 194,34;  285,319;  244,409;  388,666;28,35927
 194,94;  253,598;  206,947;  357,290;31,02974
 195,54;  230,200;  201,792;  321,922;23,64794
 196,14;  264,713;  217,025;  377,667;29,68563
 196,74;  255,083;  217,330;  354,898;27,44257
 197,34;  230,993;  200,257;  357,042;19,60426
 197,94;  278,177;  220,793;  384,139;35,13049
 198,54;  275,235;  226,409;  404,002;27,49289
 199,14;  253,440;  208,642;  402,616;23,09462
 199,74;  244,274;  194,258;  393,968;25,04426
 200,34;  231,650;  188,104;  413,437;19,32540
 200,94;  272,442;  217,872;  451,352;23,37265
 201,54;  252,994;  208,949;  455,238;17,88321
 202,14;  293,914;  217,258;  483,677;28,77274
 202,74;  260,095;  204,719;  495,806;19,02398
 203,34;  241,652;  190,490;  521,068;15,47656
 203,94;  223,700;  162,335;  531,440;16,62521
 204,54;  290,453;  234,563;  608,830;14,93321
 205,14;  262,500;  195,873;  617,874;15,78845
 205,74;  301,138;  222,490;  723,593;15,69494
 206,34;  268,756;  206,489;  745,813;11,54542
 206,94;  287,545;  219,181;  811,530;11,54122
 207,54;  257,193;  180,797;  820,574;11,94115
 208,14;  281,477;  202,258;  937,146;10,77969
 208,74;  283,322;  186,873; 1036,173;11,35632
 209,34;  291,820;  197,873; 1096,081;10,45941
 209,94;  304,213;  208,719; 1196,710; 9,66545
 210,54;  310,935;  205,105; 1329,940; 9,40849
 211,14;  314,314;  199,027; 1467,082; 9,09166
 211,73;  332,180;  204,795; 1572,086; 9,31656
 212,33;  353,916;  220,410; 1695,615; 9,04998
 212,93;  355,346;  199,334; 1783,698; 9,84698
 213,53;  323,310;  174,950; 1836,449; 8,92930
 214,13;  349,296;  179,875; 1915,696; 9,76030
 214,73;  343,068;  177,028; 1945,984; 9,38635
 215,33;  336,367;  150,719; 2007,095;10,00054
 215,93;  387,668;  190,413; 2149,635;10,06804
 216,53;  366,200;  157,103; 2243,251;10,02311
 217,13;  419,753;  206,951; 2484,397; 9,34387
 217,73;  439,875;  191,259; 2686,648; 9,96300
 218,33;  409,872;  145,106; 2930,834; 9,50436
 218,93;  481,295;  168,493; 3243,262;10,17320
 219,53;  528,860;  171,798; 3540,572;10,59914
 220,13;  526,990;  155,799; 3895,473; 9,92575
 220,73;  586,573;  174,642; 4282,492;10,02790
 221,32;  636,630;  180,257; 4748,711; 9,98964
 221,92;  701,317;  180,799; 5193,058;10,38491
 222,52;  727,284;  172,490; 5655,579;10,11827
 223,12;  790,940;  180,798; 6127,868;10,25954
 223,72;  844,697;  180,259; 6511,836;10,49403
 224,32;  876,616;  181,336; 6982,532;10,22290
 224,92;  903,507;  166,259; 7316,894;10,31023
 225,52;  972,456;  190,873; 7673,960;10,44466
 226,12;  993,672;  183,720; 7984,687;10,38271
 226,72; 1001,736;  154,489; 8392,095;10,28511
 227,31; 1052,396;  153,797; 8790,227;10,40475
 227,91; 1125,808;  179,104; 9192,916;10,50282
 228,51; 1182,228;  176,718; 9637,577;10,62810
 229,11; 1247,173;  178,412;10078,703;10,79525
 229,71; 1261,018;  171,026;10383,939;10,67268
 230,31; 1312,560;  155,952;10866,795;10,79847
 230,91; 1327,482;  170,872;11260,500;10,42966
 231,51; 1374,996;  151,413;11515,548;10,76706
 232,10; 1444,212;  161,106;11881,088;10,94802
 232,70; 1503,627;  175,332;12103,897;11,13541
 233,30; 1558,089;  193,643;12351,038;11,22317
 233,90; 1564,595;  164,490;12566,939;11,28894
 234,50; 1608,364;  170,951;12611,960;11,55383
 235,10; 1626,045;  165,182;12659,432;11,69228
 235,70; 1693,112;  181,873;12654,129;12,11680
 236,29; 1690,945;  181,950;12526,341;12,22414
 236,89; 1677,879;  162,564;12387,938;12,39484
 237,49; 1704,117;  181,951;12255,560;12,60738
 238,09; 1671,602;  165,181;11930,351;12,80407
 238,69; 1697,085;  192,179;11638,020;13,14806
 239,29; 1662,586;  164,258;11229,819;13,54046
 239,89; 1651,912;  187,026;10858,961;13,72653
 240,48; 1620,878;  168,489;10364,636;14,24448
 241,08; 1599,667;  166,796; 9960,508;14,63051
 241,68; 1592,671;  175,797; 9621,722;14,99985
 242,28; 1565,757;  162,182; 9276,338;15,39994
 242,88; 1583,592;  207,491; 8899,587;15,83164
 243,48; 1575,591;  197,105; 8561,516;16,48037
 244,07; 1528,699;  180,950; 8342,355;16,51369
 244,67; 1567,530;  184,720; 8174,621;17,30697
 245,27; 1579,334;  192,103; 8008,470;17,74777
 245,87; 1593,499;  200,798; 7950,901;17,97009
 246,47; 1635,674;  171,795; 7926,723;18,87675
 247,06; 1657,647;  170,181; 7926,769;19,17680
 247,66; 1698,368;  162,105; 8072,585;19,42060
 248,26; 1799,751;  198,026; 8262,899;19,86051
 248,86; 1861,496;  186,796; 8523,429;20,08845
 249,46; 1891,854;  147,182; 8774,580;20,22246
 250,05; 2060,979;  188,181; 9268,854;20,62400
 250,65; 2149,779;  166,411; 9626,322;20,96603
 251,25; 2290,169;  177,719;10220,467;21,03457
 251,85; 2470,555;  178,410;10960,965;21,25791
 252,44; 2619,828;  141,257;11740,074;21,36917
 253,04; 2869,112;  182,335;12664,031;21,52574
 253,64; 3024,362;  140,180;13515,894;21,56282
 254,24; 3340,376;  184,412;14646,963;21,82162
 254,84; 3561,623;  168,028;15756,965;21,76925
 255,43; 3864,666;  175,873;16864,213;22,10402
 256,03; 4113,556;  174,872;18100,106;21,97285
 256,63; 4450,001;  179,179;19448,839;22,16345
 257,23; 4667,224;  159,872;20532,671;22,12436
 257,82; 4913,806;  177,563;21667,619;22,03923
 258,42; 5128,518;  145,024;22671,007;22,12331
 259,02; 5430,877;  179,719;23820,705;22,21209
 259,62; 5603,031;  167,870;24705,978;22,14988
 260,21; 5756,229;  174,873;25381,739;22,14221
 260,81; 5931,081;  164,105;26084,597;22,24871
 261,41; 6007,668;  164,871;26626,340;22,08040
 262,01; 6150,905;  204,947;27207,863;22,01969
 262,60; 6177,685;  158,487;27736,363;21,82618
 263,20; 6294,714;  166,488;28089,299;21,94703
 263,80; 6283,517;  191,793;28417,307;21,58233
 264,40; 6255,768;  157,332;28707,396;21,36050
 264,99; 6321,630;  162,716;28819,788;21,49178
 265,59; 6297,394;  167,330;29119,006;21,17343
 266,19; 6306,428;  160,024;29358,121;21,05070
 266,78; 6342,180;  198,408;29469,987;20,98887
 267,38; 6227,495;  173,330;29544,035;20,61294
 267,98; 6197,233;  165,100;29527,846;20,54349
 268,58; 6138,078;  180,330;29572,705;20,26971
 269,17; 6056,114;  169,560;29574,541;20,01890
 269,77; 5986,911;  178,871;29339,610;19,91733
 270,37; 5897,395;  157,562;29243,001;19,73439
 270,96; 5812,482;  199,948;29093,954;19,42456
 271,56; 5699,584;  168,641;28792,893;19,32258
 272,16; 5647,874;  174,332;28625,793;19,23818
 272,75; 5526,866;  175,717;28489,394;18,89952
 273,35; 5472,692;  175,256;28425,600;18,75176
 273,95; 5422,700;  172,255;28524,208;18,51881
 274,54; 5370,821;  154,720;28486,298;18,41091
 275,14; 5399,267;  194,563;29034,179;18,04706
 275,74; 5332,230;  148,563;29126,788;17,88815
 276,33; 5450,401;  200,410;29542,461;17,89238
 276,93; 5447,153;  178,258;30030,251;17,65006
 277,53; 5531,087;  180,719;30751,001;17,50186
 278,12; 5589,038;  162,103;31327,823;17,41315
 278,72; 5775,723;  194,180;31967,509;17,56675
 279,32; 5776,204;  171,180;32791,940;17,18238
 279,91; 5985,641;  151,103;33601,603;17,44230
 280,51; 6090,277;  167,257;34225,503;17,39085
 281,11; 6241,224;  185,411;35093,888;17,34769
 281,70; 6343,580;  156,564;35568,477;17,47157
 282,30; 6510,738;  154,102;36380,047;17,54719
 282,90; 6620,458;  167,179;36743,206;17,64347
 283,49; 6794,065;  183,871;37456,799;17,73457
 284,09; 6908,111;  195,641;37989,057;17,76095
 284,69; 7079,245;  186,411;38259,823;18,10406
 285,28; 7175,738;  185,257;38858,320;18,07584
 285,88; 7383,749;  212,255;38964,644;18,50594
 286,47; 7468,547;  169,718;39071,084;18,76240
 287,07; 7637,601;  197,949;39161,280;19,09398
 287,67; 7857,821;  181,028;39330,592;19,60889
 288,26; 7934,427;  176,411;39270,674;19,84438
 288,86; 8143,544;  172,026;39370,668;20,33621
 289,46; 8431,540;  187,872;39449,462;20,99678
 290,05; 8720,796;  163,258;39555,269;21,72405
 290,65; 9048,365;  170,333;39901,673;22,34516
 291,24; 9342,982;  178,180;39999,668;23,01471
 291,84; 9645,847;  190,256;40187,069;23,64086
 292,44; 9887,158;  166,490;40259,695;24,24518
 293,03;10312,042;  231,488;40461,541;25,05727
 293,63;10533,426;  170,179;40693,798;25,57335
 294,22;10853,010;  184,565;40932,784;26,18138
 294,82;11024,112;  178,870;40782,436;26,71007
 295,41;11156,580;  154,564;40531,401;27,24834
 296,01;11357,182;  214,255;40504,772;27,65645
 296,61;11494,055;  186,257;40158,958;28,28880
 297,20;11411,854;  184,178;39735,495;28,38762
 297,80;11528,266;  182,181;39461,171;28,88589
 298,39;11543,863;  162,025;39083,811;29,24285
 298,99;11593,668;  183,717;38877,746;29,48763
 299,58;11568,234;  183,335;38761,961;29,51090
 300,18;11676,250;  199,950;38590,870;29,89327
 300,78;11528,083;  155,411;38134,928;29,94422
 301,37;11650,180;  192,100;38095,798;30,22945
 301,97;11692,046;  187,488;38151,670;30,30372
 302,56;11704,754;  170,102;38116,768;30,39701
 303,16;11766,251;  163,025;38102,535;30,58349
 303,75;11810,116;  172,488;38106,818;30,67835
 304,35;11905,320;  159,413;38427,389;30,69383
 304,94;11994,929;  174,872;38359,557;30,95497
 305,54;11995,168;  192,027;38322,019;30,95501
 306,13;11958,697;  155,336;38286,067;30,95498
 306,73;11865,878;  160,413;37995,162;30,93840
 307,33;11952,890;  188,412;37866,711;31,22348
 307,92;12059,075;  173,719;38074,179;31,35940
 308,52;12238,259;  162,102;38620,626;31,40047
 309,11;12433,416;  180,793;39167,614;31,42760
 309,71;12533,537;  156,024;39592,144;31,38624
 310,30;12707,314;  159,796;39745,116;31,69740
 310,90;12813,929;  186,873;40175,116;31,57692
 311,49;12939,751;  168,565;40331,493;31,79844
 312,09;12977,667;  146,181;40469,200;31,82174
 312,68;13178,541;  213,180;40943,064;31,83255
 313,28;13221,921;  145,642;41024,487;31,98789
 313,87;13295,415;  137,257;41322,180;31,94897
 314,47;13432,255;  162,794;41550,852;32,06109
 315,06;13433,310;  150,026;41687,889;31,97874
 315,66;13522,128;  149,489;42083,815;31,88948
 316,25;13448,583;  140,487;41887,851;31,87769
 316,85;13459,209;  133,027;41939,756;31,87569
 317,44;13540,194;  159,332;42153,265;31,86380
 318,04;13464,568;  148,333;42125,613;31,72248
 318,63;13397,279;  137,105;42248,519;31,48831
 319,22;13478,515;  159,025;42391,886;31,53821
 319,82;13463,948;  173,564;42447,022;31,43908
 320,41;13423,968;  174,102;42458,026;31,33547
 321,01;13330,808;  172,873;42530,301;31,06406
 321,60;13325,677;  167,257;42608,678;31,00372
 322,20;13250,034;  163,488;42633,988;30,81326
 322,79;13205,864;  201,257;42677,554;30,61615
 323,39;13196,292;  160,951;42791,901;30,57718
 323,98;13073,091;  145,488;42704,173;30,37595
 324,58;13006,968;  160,102;42745,522;30,16729
 325,17;12937,021;  165,333;42412,094;30,23116
 325,76;12845,548;  184,180;42236,344;30,10872
 326,36;12634,144;  143,719;41797,075;29,98660
 326,95;12513,131;  187,872;41357,433;29,93780
 327,55;12329,236;  156,718;40996,955;29,80521
 328,14;12083,785;  160,258;40530,202;29,53565
 328,74;11979,535;  190,718;40028,569;29,59200
 329,33;11830,124;  176,181;39560,161;29,59057
 329,92;11538,145;  153,947;38869,578;29,40466
 330,52;11304,254;  166,643;38026,930;29,41766
 331,11;11100,694;  173,872;37649,266;29,15732
 331,71;10873,103;  160,411;36828,911;29,21497
 332,30;10686,083;  190,026;36326,480;29,04562
 332,89;10479,638;  202,181;35672,922;28,97446
 333,49;10265,378;  165,487;35101,636;28,90957
 334,08;10048,143;  167,410;34653,751;28,65115
 334,68; 9883,499;  168,795;34118,515;28,61498
 335,27; 9752,874;  176,951;33748,969;28,52353
 335,86; 9684,463;  204,564;33409,266;28,54987
 336,46; 9510,141;  185,566;33116,240;28,31577
 337,05; 9434,584;  174,026;32908,628;28,28982
 337,65; 9398,284;  150,718;32778,642;28,34249
 338,24; 9392,350;  211,642;32766,485;28,20074
 338,83; 9341,986;  188,719;32730,630;28,12763
 339,43; 9340,928;  153,948;32656,045;28,26581
 340,02; 9220,899;  159,794;32490,788;28,02606
 340,61; 9277,370;  163,026;32561,070;28,13239
 341,21; 9314,689;  205,333;32694,492;28,03814
 341,80; 9290,880;  165,641;32654,498;28,08729
 342,40; 9349,582;  175,181;32629,382;28,26876
 342,99; 9382,023;  172,642;32889,230;28,14896
 343,58; 9422,432;  165,335;33038,776;28,15980
 344,18; 9505,719;  182,950;33200,422;28,23587
 344,77; 9619,235;  155,563;33550,639;28,33852
 345,36; 9740,977;  148,180;33983,356;28,35155
 345,96; 9874,003;  178,950;34320,107;28,39697
 346,55;10005,943;  156,490;34593,018;28,60176
 347,14;10159,323;  155,720;35020,146;28,69287
 347,74;10312,342;  133,260;35609,353;28,69279
 348,33;10573,309;  164,875;36283,924;28,81702
 348,92;10768,954;  176,415;37066,266;28,71397
 349,52;11024,658;  148,645;37602,332;29,03856
 350,11;11128,794;  156,794;37697,685;29,22680
 350,70;11203,553;  162,642;37771,459;29,35724
 351,29;11143,532;  157,023;37552,657;29,37912
 351,89;11172,092;  176,101;37613,949;29,37132
 352,48;11245,119;  145,257;37509,464;29,70721
 353,07;11252,048;  160,335;37406,190;29,77972
 353,67;11286,334;  181,876;37388,654;29,84526
 354,26;11287,339;  171,874;37003,888;30,17882
 354,85;11281,566;  173,720;36791,213;30,33481
 355,45;11272,021;  146,487;36537,291;30,57238
 356,04;11313,720;  164,720;36517,067;30,66927
 356,63;11285,475;  186,949;36286,242;30,74444
 357,22;11292,116;  172,408;36112,313;30,93972
 357,82;11330,707;  170,024;35836,984;31,29138
 358,41;11325,726;  186,872;35698,638;31,36666
 359,00;11336,944;  156,487;35476,710;31,65455
 359,60;11379,642;  177,719;35442,282;31,76538
 360,19;11386,765;  172,182;35093,989;32,11341
 360,78;11415,637;  170,333;35045,620;32,24433
 361,37;11367,855;  170,103;34689,049;32,43944
 361,97;11434,686;  178,718;34609,657;32,69143
 362,56;11378,482;  157,102;34199,360;32,96309
 363,15;11395,106;  194,256;33822,249;33,30811
 363,74;11284,720;  159,178;33411,408;33,45803
 364,34;11221,324;  181,333;32994,923;33,64457
 364,93;11114,316;  155,948;32325,768;34,06413
 365,52;11021,540;  144,949;31933,189;34,21577
 366,11;10981,422;  169,333;31585,452;34,41574
 366,71;10928,207;  147,641;31182,117;34,73739
 367,30;10836,022;  158,641;30714,487;34,94382
 367,89;10839,485;  198,643;30466,580;35,15549
 368,48;10778,158;  174,332;30077,729;35,46027
 369,07;10663,399;  167,642;29537,229;35,73682
 369,67;10677,372;  193,563;29190,547;36,15483
 370,26;10573,375;  165,796;28885,703;36,23820
 370,85;10553,523;  168,410;28578,524;36,55428
 371,44;10526,127;  173,795;28140,359;37,01682
 372,03;10486,879;  153,025;27949,511;37,17684
 372,63;10441,212;  144,641;27601,219;37,50129
 373,22;10421,528;  163,796;27326,374;37,76421
 373,81;10335,661;  147,718;26869,012;38,12668
 374,40;10259,339;  157,181;26564,944;38,25450
 374,99;10241,718;  161,026;26242,539;38,65072
 375,59;10153,590;  165,720;25904,760;38,80436
 376,18;10182,017;  180,026;25821,525;39,00705
 376,77;10171,321;  171,257;25510,955;39,46402
 377,36;10192,013;  191,180;25502,605;39,51114
 377,95;10161,798;  169,871;25181,668;39,94886
 378,55;10131,578;  153,489;24978,531;40,19364
 379,14;10197,536;  173,410;24834,248;40,64795
 379,73;10188,851;  166,179;24713,912;40,82932
 380,32;10322,163;  177,257;24766,707;41,25715
 380,91;10311,951;  161,332;24640,122;41,46700
 381,50;10324,085;  175,179;24579,558;41,58641
 382,10;10345,317;  145,334;24417,630;42,02315
 382,69;10434,179;  146,333;24365,637;42,47788
 383,28;10478,531;  176,871;24298,068;42,70791
 383,87;10451,344;  155,564;24180,508;42,85455
 384,46;10509,007;  150,255;24047,124;43,34774
 385,05;10600,838;  185,717;24078,816;43,59050
 385,64;10621,345;  165,179;24033,913;43,80695
 386,24;10655,647;  142,639;23992,187;44,08053
 386,83;10800,954;  179,485;24061,397;44,47495
 387,42;10921,167;  177,487;24209,696;44,70534
 388,01;11127,568;  177,715;24514,193;44,99358
 388,60;11355,007;  164,639;24795,222;45,43282
 389,19;11475,660;  156,714;25053,688;45,46314
 389,78;11688,551;  169,637;25296,400;45,84321
 390,37;12047,318;  215,023;25806,903;46,23457
 390,96;12157,225;  170,178;26032,301;46,34982
 391,56;12368,603;  173,790;26257,000;46,75350
 392,15;12538,543;  160,253;26514,561;46,96875
 392,74;12702,175;  145,250;26681,422;47,32003
 393,33;12949,032;  157,328;27045,341;47,57400
 393,92;13201,506;  177,787;27567,611;47,54948
 394,51;13404,764;  148,098;27797,377;47,94579
 395,10;13596,847;  187,016;28058,157;48,11368
 395,69;13739,670;  170,862;28154,982;48,48753
 396,28;13865,109;  186,476;28286,360;48,67861
 396,87;14010,641;  187,628;28391,969;49,01023
 397,46;14081,740;  187,472;28471,995;49,12322
 398,06;14307,094;  203,163;28767,659;49,37574
 398,65;14390,789;  175,312;28875,101;49,53164
 399,24;14539,800;  189,619;29063,796;49,69901
 399,83;14496,768;  175,919;28978,610;49,72052
 400,42;14709,776;  207,067;29270,952;49,89942
 401,01;14829,634;  176,598;29319,107;50,28063
 401,60;14901,890;  203,743;29363,301;50,40593
 402,19;15015,622;  206,120;29215,859;51,05010
 402,78;15053,073;  216,185;29180,986;51,22386
 403,37;14963,181;  201,712;29043,850;51,18022
 403,96;14898,482;  198,468;28875,055;51,26138
 404,55;14977,100;  212,992;28776,948;51,68789
 405,14;14888,047;  193,440;28588,694;51,75022
 405,73;14863,150;  201,117;28445,237;51,91181
 406,32;14871,818;  208,645;28338,330;52,12704
 406,91;14807,119;  200,326;28007,970;52,52798
 407,50;14750,788;  195,473;27823,289;52,68355
 408,09;14599,548;  171,084;27439,797;52,91216
 408,68;14618,812;  202,466;27328,050;53,14667
 409,27;14530,832;  176,393;27109,685;53,29627
 409,86;14493,309;  198,479;26895,199;53,54527
 410,45;14502,019;  227,718;26847,385;53,62314
 411,04;14511,701;  237,341;26735,280;53,86970
 411,63;14322,997;  204,044;26415,476;53,86563
 412,22;14239,154;  207,746;26136,748;54,11472
 412,81;14078,867;  216,980;25854,453;54,06885
 413,40;13932,641;  226,600;25382,850;54,48364
 413,99;13750,716;  257,675;24974,142;54,59130
 414,58;13507,167;  201,446;24573,447;54,59429
 415,17;13437,701;  210,057;24298,652;54,91248
 415,76;13390,737;  201,823;24171,299;55,02379
 416,35;13266,083;  193,440;23936,880;55,05792
 416,94;13362,645;  221,823;24041,201;55,16862
 417,53;13494,620;  201,673;24319,907;55,11576
 418,12;13575,301;  191,058;24465,135;55,13801
 418,71;13869,329;  215,831;24866,777;55,38732
 419,30;13975,241;  202,059;24960,996;55,62913
 419,89;14178,112;  200,059;25179,166;55,95898
 420,48;14407,795;  232,908;25526,410;56,04162
 421,07;14418,926;  217,447;25613,046;55,92102
 421,66;14484,790;  195,295;25639,735;56,15960
 422,25;14509,864;  204,530;25493,880;56,56663
 422,84;14520,091;  237,300;25451,738;56,64529
 423,43;14353,676;  214,375;25083,290;56,85532
 424,02;14232,191;  230,376;24809,080;56,96727
 424,60;13894,893;  197,149;24372,594;56,65974
 425,19;13775,874;  218,070;23940,401;57,15207
 425,78;13735,789;  221,993;23936,793;56,98465
 426,37;13704,666;  228,303;23769,010;57,24706
 426,96;13634,038;  220,764;23592,285;57,39153
 427,55;13530,386;  215,459;23368,413;57,50854
 428,14;13343,707;  209,076;23122,670;57,32244
 428,73;13266,077;  212,227;22921,978;57,48125
 429,32;13275,350;  225,918;22936,568;57,45953
 429,91;13310,073;  249,074;22896,597;57,67076
 430,50;13208,212;  228,690;22737,717;57,66363
 431,08;13115,550;  255,538;22496,122;57,82228
 431,67;13061,126;  294,231;22411,541;57,72354
 432,26;12977,403;  302,310;22068,052;58,23414
 432,85;12758,030;  316,771;21756,888;58,02794
 433,44;12471,331;  326,695;21243,932;58,06042
 434,03;12308,921;  344,544;20858,224;58,32390
 434,62;11980,728;  303,465;20376,293;58,17448
 435,21;11916,496;  325,694;20135,004;58,51189
 435,79;11831,532;  307,466;19984,562;58,56589
 436,38;11765,623;  308,238;19903,583;58,46993
 436,97;11668,454;  311,930;19761,807;58,38867
 437,56;11560,069;  305,318;19553,773;58,47093
 438,15;11540,032;  283,010;19481,088;58,63619
 438,74;11574,680;  288,933;19468,153;58,84362
 439,33;11567,513;  252,779;19509,904;58,75610
 439,91;11605,305;  227,088;19593,008;58,75381
 440,50;11676,366;  273,550;19608,518;58,97509
 441,09;11767,348;  262,552;19748,782;59,04064
 441,68;11739,168;  260,938;19794,724;58,76091
 442,27;11774,365;  233,784;19751,365;59,12916
 442,86;11744,371;  214,557;19705,378;59,15509
 443,44;11842,596;  231,172;19702,639;59,63302
 444,03;11860,148;  279,711;19794,337;59,34235
 444,62;11776,209;  238,327;19625,595;59,51268
 445,21;11723,083;  253,557;19416,843;59,85156
 445,80;11622,166;  258,559;19260,543;59,80222
 446,39;11520,943;  272,867;18932,130;60,28146
 446,97;11272,671;  230,485;18758,107;59,59851
 447,56;11171,904;  237,871;18434,285;60,08895
 448,15;11069,667;  239,100;18260,782;60,09743
 448,74;10888,214;  243,639;17964,839;60,06690
 449,33;10777,531;  236,717;17824,044;59,93415
 449,91;10649,550;  236,181;17520,467;60,24761
 450,50;10528,752;  232,104;17292,784;60,35310
 451,09;10428,117;  255,488;17166,297;60,15460
 451,68;10430,422;  262,182;17080,099;60,46076
 452,26;10369,856;  257,413;16962,683;60,53445
 452,85;10255,859;  232,490;16864,462;60,26567
 453,44;10273,750;  254,877;16908,517;60,16026
 454,03;10245,472;  234,337;16909,537;60,03607
 454,61;10257,770;  235,801;16853,529;60,30890
 455,20;10447,083;  256,186;16998,289;60,86987
 455,79;10385,802;  251,492;17033,984;60,38620
 456,38;10463,980;  265,880;17100,651;60,57760
 456,97;10498,947;  236,803;17132,026;60,73991
 457,55;10510,240;  240,497;17180,146;60,62548
 458,14;10532,108;  266,341;17108,459;60,95295
 458,73;10437,261;  258,035;17096,927;60,45068
 459,31;10546,530;  275,883;17122,277;60,96644
 459,90;10620,003;  278,113;17248,644;60,94028
 460,49;10673,148;  303,882;17347,468;60,83970
 461,08;10700,033;  234,346;17474,595;60,70496
 461,66;10762,522;  255,422;17504,165;60,91516
 462,25;10796,220;  244,962;17614,493;60,74579
 462,84;10910,746;  270,269;17641,069;61,25496
 463,43;10817,017;  228,733;17571,064;61,05456
 464,01;10873,471;  260,734;17617,925;61,14317
 464,60;10813,303;  285,810;17527,142;61,05963
 465,19;10638,338;  228,504;17235,594;61,20879
 465,77;10593,926;  265,890;17223,871;60,90369
 466,36;10579,110;  260,964;17067,421;61,39394
 466,95;10255,102;  239,811;16644,889;61,04994
 467,53;10058,450;  255,891;16346,969;60,91922
 468,12; 9930,985;  277,430;15969,302;61,51946
 468,71; 9687,314;  248,043;15672,628;61,19627
 469,29; 9510,240;  239,584;15371,177;61,26689
 469,88; 9340,950;  240,123;15182,948;60,90432
 470,47; 9481,174;  300,356;15341,993;61,03604
 471,06; 9393,276;  253,971;15269,539;60,86553
 471,64; 9501,644;  256,586;15373,272;61,15797
 472,23; 9491,680;  249,513;15385,202;61,06209
 472,81; 9598,294;  236,049;15594,297;60,95906
 473,40; 9658,656;  250,282;15722,138;60,80960
 473,99; 9793,073;  322,128;15924,083;60,70358
 474,57; 9949,247;  243,282;16082,129;61,27949
 475,16; 9954,743;  255,973;16287,231;60,49912
 475,75;10051,232;  268,514;16361,634;60,78820
 476,33;10139,902;  282,515;16476,432;60,87092
 476,92;10130,316;  277,282;16561,773;60,50563
 477,51;10160,581;  274,592;16616,085;60,49625
 478,09;10170,877;  268,822;16597,976;60,64034
 478,68;10080,359;  264,207;16472,491;60,56256
 479,27;10137,548;  278,975;16579,362;60,48061
 479,85;10124,890;  267,746;16611,456;60,31154
 480,44;10218,000;  258,747;16835,871;60,07829
 481,02;11398,775;  265,671;19069,960;59,20513
 481,61;12683,171;  293,593;21203,313;59,25272
 482,20;13470,394;  295,363;22431,363;59,51857
 482,78;14113,975;  318,208;23356,918;59,88081
 483,37;14432,769;  302,442;23830,641;60,05698
 483,95;14585,680;  338,827;24163,959;59,79758
 484,54;14740,535;  339,670;24343,763;59,99337
 485,13;14663,994;  311,444;24146,860;60,21523
 485,71;14462,742;  305,905;23814,806;60,21905
 486,30;14330,345;  332,443;23527,620;60,34833
 486,88;13993,953;  364,136;22940,725;60,37146
 487,47;13431,869;  353,521;22006,292;60,40034
 488,05;12769,841;  333,676;20952,987;60,31319
 488,64;11822,235;  332,677;19321,962;60,50548
 489,23;10349,230;  341,676;16682,047;61,24435
 489,81; 9000,409;  341,292;14676,175;60,40591
 490,40; 8557,037;  288,831;14151,557;59,64343
 490,98; 8364,017;  278,293;13934,651;59,20849
 491,57; 8321,664;  313,061;13863,372;59,10272
 492,15; 8249,856;  294,678;13751,043;59,11833
 492,74; 8169,546;  293,060;13627,117;59,07043
 493,32; 8086,098;  304,523;13535,186;58,81470
 493,91; 8002,168;  284,524;13437,838;58,67452
 494,50; 7960,726;  284,758;13349,667;58,75255
 495,08; 7846,345;  259,219;13302,895;58,16709
 495,67; 7894,301;  304,832;13234,749;58,69697
 496,25; 7791,327;  234,372;13162,696;58,45271
 496,84; 7751,168;  246,986;13128,719;58,25445
 497,42; 7734,251;  236,065;13077,760;58,38938
 498,01; 7661,690;  266,371;12988,788;58,12826
 498,59; 7565,579;  225,834;12857,310;58,10679
 499,18; 7582,152;  241,063;12786,117;58,51780
 499,76; 7526,639;  246,218;12692,560;58,49446
 500,35; 7338,293;  254,220;12507,295;57,81466
 500,93; 7273,996;  237,218;12461,060;57,56601
 501,52; 7294,037;  233,603;12373,985;58,15660
 502,10; 7184,481;  241,529;12331,676;57,42653
 502,69; 7079,794;  226,837;12076,184;57,83404
 503,27; 6940,827;  212,450;11857,599;57,77837
 503,86; 6874,020;  236,760;11766,740;57,56524
 504,44; 6779,114;  219,761;11629,203;57,49057
 505,03; 6600,669;  201,376;11364,253;57,32655
 505,61; 6471,389;  206,299;11203,215;56,97133
 506,19; 6377,369;  247,607;11027,498;56,86293
 506,78; 6207,760;  205,686;10753,364;56,90422
 507,36; 6099,948;  219,684;10593,535;56,68352
 507,95; 5976,899;  220,071;10439,651;56,33135
 508,53; 5888,586;  219,070;10277,220;56,36738
 509,12; 5779,671;  227,917;10112,165;56,16770
 509,70; 5664,712;  243,148; 9944,573;55,88421
 510,29; 5536,475;  245,534; 9798,896;55,38303
 510,87; 5468,476;  214,916; 9572,274;56,14363
 511,46; 5288,359;  210,840; 9368,511;55,44553
 512,04; 5195,927;  215,918; 9242,335;55,17150
 512,62; 5095,732;  219,994; 9082,479;55,01547
 513,21; 4973,191;  201,918; 8827,212;55,31723
 513,79; 4875,458;  209,844; 8694,672;54,98773
 514,38; 4761,489;  186,920; 8532,567;54,81383
 514,96; 4724,934;  237,305; 8439,573;54,71206
 515,54; 4613,239;  201,767; 8252,486;54,79600
 516,13; 4542,996;  218,229; 8105,937;54,82920
 516,71; 4414,799;  217,076; 8022,877;53,77697
 517,30; 4337,019;  202,308; 7863,511;53,96947
 517,88; 4266,565;  226,154; 7770,525;53,55531
 518,46; 4192,461;  208,616; 7636,123;53,63637
 519,05; 4132,830;  212,617; 7578,718;53,21966
 519,63; 4065,421;  212,001; 7487,128;52,96704
 520,22; 4038,123;  219,541; 7415,684;53,06429
 520,80; 3954,200;  206,310; 7350,243;52,46256
 521,38; 3987,353;  228,155; 7323,074;52,98436
 521,97; 3894,954;  218,542; 7268,992;52,14436
 522,55; 3893,598;  219,081; 7222,920;52,46433
 523,13; 3865,566;  209,543; 7255,213;51,89036
 523,72; 3846,546;  207,154; 7223,214;51,87230
 524,30; 3903,976;  229,543; 7385,845;51,34542
 524,89; 3848,493;  211,311; 7356,090;50,90685
 525,47; 3913,641;  215,082; 7476,190;50,93656
 526,05; 3918,260;  187,082; 7549,075;50,68163
 526,64; 4010,277;  218,237; 7674,342;50,85819
 527,22; 4055,483;  232,313; 7880,326;49,98906
 527,80; 4122,775;  258,929; 7958,361;50,18352
 528,39; 4139,237;  207,160; 8051,292;50,12762
 528,97; 4219,188;  218,545; 8222,408;49,98390
 529,55; 4322,984;  227,773; 8414,389;50,02323
 530,14; 4398,327;  240,238; 8626,388;49,58281
 530,72; 4413,792;  213,006; 8745,838;49,23085
 531,30; 4474,558;  194,315; 8907,332;49,12469
 531,89; 4519,064;  218,469; 8973,310;49,12248
 532,47; 4573,567;  243,546; 9089,641;48,94838
 533,05; 4537,787;  236,006; 9155,393;48,22956
 533,63; 4618,389;  247,085; 9245,598;48,57807
 534,22; 4578,360;  209,239; 9221,440;48,48007
 534,80; 4614,475;  250,394; 9329,936;48,06499
 535,38; 4678,838;  308,623; 9380,503;48,17320
 535,97; 4590,356;  242,623; 9404,170;47,45632
 536,55; 4655,645;  288,471; 9473,699;47,54563
 537,13; 4592,902;  294,469; 9407,582;47,16756
 537,71; 4609,979;  345,622; 9534,868;46,40594
 538,30; 4635,648;  370,547; 9542,205;46,50306
 538,88; 4681,979;  414,010; 9751,429;45,70822
 539,46; 4772,504;  483,701; 9945,787;45,32618
 540,05; 4795,893;  495,241;10125,120;44,65946
 540,63; 4902,622;  562,010;10299,314;44,57714
 541,21; 4929,400;  582,780;10485,742;43,89212
 541,79; 5007,675;  640,088;10635,258;43,69698
 542,38; 5061,508;  658,702;10826,330;43,30220
 542,96; 5118,462;  677,858;10940,358;43,27020
 543,54; 5214,647;  683,703;11138,771;43,33730
 544,12; 5236,020;  656,242;11366,704;42,75985
 544,70; 5250,580;  640,089;11431,801;42,72251
 545,29; 5274,974;  637,010;11550,040;42,49933
 545,87; 5300,675;  598,011;11603,797;42,72902
 546,45; 5307,439;  562,933;11632,882;42,85933
 547,03; 5270,545;  523,703;11727,895;42,36667
 547,62; 5347,627;  490,703;11820,053;42,87028
 548,20; 5378,632;  490,473;12038,079;42,33050
 548,78; 5439,096;  434,783;12178,628;42,61222
 549,36; 5491,412;  389,629;12392,390;42,50508
 549,94; 5535,550;  367,857;12539,788;42,45582
 550,53; 5584,804;  375,167;12824,516;41,84666
 551,11; 5649,988;  337,784;13020,592;41,88508
 551,69; 5772,051;  338,475;13313,993;41,87560
 552,27; 5839,783;  298,090;13626,539;41,57793
 552,85; 5985,384;  296,091;14068,932;41,30806
 553,44; 6059,817;  294,937;14307,667;41,14030
 554,02; 6257,963;  304,476;14700,619;41,35474
 554,60; 6320,049;  263,476;15027,641;41,02211
 555,18; 6491,841;  280,706;15453,060;40,93719
 555,76; 6590,056;  264,168;15803,591;40,70864
 556,34; 6713,936;  271,016;16256,728;40,30425
 556,93; 6864,388;  247,091;16667,788;40,29851
 557,51; 6982,264;  236,093;17021,103;40,19164
 558,09; 7096,108;  262,245;17452,177;39,75503
 558,67; 7310,998;  268,093;17853,169;40,05047
 559,25; 7316,078;  270,401;18112,584;39,48888
 559,83; 7409,533;  249,171;18437,851;39,36713
 560,41; 7575,584;  239,785;18884,554;39,34508
 561,00; 7645,800;  262,478;19258,730;38,86726
 561,58; 7740,960;  236,015;19518,980;38,92008
 562,16; 7801,190;  232,015;19833,741;38,61484
 562,74; 7893,088;  214,783;20294,998;38,23816
 563,32; 8060,391;  218,248;20721,114;38,24901
 563,90; 8189,476;  233,709;21175,680;37,98958
 564,48; 8325,923;  243,246;21675,149;37,71330
 565,06; 8523,799;  245,401;22393,093;37,37815
 565,65; 8719,490;  234,634;23133,561;37,05351
 566,23; 9008,464;  281,247;23997,417;36,79859
 566,81; 9237,014;  236,247;24780,616;36,67141
 567,39; 9609,453;  242,787;25859,568;36,56457
 567,97; 9808,650;  257,785;26531,013;36,35208
 568,55;10102,339;  269,709;27484,178;36,13015
 569,13;10330,099;  236,170;28229,100;36,05885
 569,71;10630,433;  236,245;29344,235;35,70905
 570,29;11030,076;  273,629;30418,847;35,68210
 570,87;11207,380;  266,014;31153,432;35,42338
 571,45;11393,022;  270,862;31923,464;35,13822
 572,03;11465,939;  228,171;32438,829;34,88835
 572,61;11704,719;  228,171;33210,545;34,79600
 573,20;11930,394;  251,862;34103,577;34,49908
 573,78;12132,331;  242,863;34648,241;34,55700
 574,36;12177,885;  254,709;35193,479;34,12592
 574,94;12366,656;  297,479;35653,012;34,13660
 575,52;12329,435;  263,558;35857,007;33,89915
 576,10;12500,883;  322,250;36544,660;33,62182
 576,68;12649,582;  306,941;37238,141;33,42064
 577,26;12819,051;  330,789;37986,015;33,16475
 577,84;12936,788;  326,094;38476,971;33,05479
 578,42;12963,296;  374,172;38769,524;32,78815
 579,00;12879,732;  326,325;38827,521;32,60524
 579,58;12886,506;  361,172;38954,799;32,45441
 580,16;12842,041;  349,249;39027,635;32,29915
 580,74;12771,114;  343,019;39189,254;31,99305
 581,32;12710,785;  348,095;39273,508;31,75995
 581,90;12621,268;  367,711;39226,771;31,53333
 582,48;12608,519;  368,634;39356,916;31,39375
 583,06;12598,619;  369,941;39423,224;31,31281
 583,64;12556,316;  368,479;39445,682;31,18912
 584,22;12379,387;  365,712;39175,747;30,95507
 584,80;12161,239;  391,480;38879,515;30,58031
 585,38;11971,021;  373,708;38274,434;30,59918
 585,96;11928,784;  349,786;38506,171;30,34616
 586,54;11880,868;  383,635;38583,387;30,09766
 587,12;11792,969;  348,557;38561,234;29,94925
 587,70;11805,550;  380,556;38734,174;29,78857
 588,28;11722,750;  350,557;38764,727;29,60416
 588,86;11736,119;  360,481;38863,028;29,54516
 589,44;11690,028;  338,559;38845,267;29,47920
 590,02;11678,618;  336,020;39109,447;29,25353
 590,59;11623,402;  310,173;39312,139;29,00682
 591,17;11665,090;  310,176;39543,814;28,94178
 591,75;11654,134;  310,483;39541,434;28,91505
 592,33;11636,890;  326,636;39891,261;28,58678
 592,91;11661,175;  284,945;40052,171;28,60705
 593,49;11681,787;  271,792;40377,028;28,45014
 594,07;11689,245;  288,638;40606,934;28,27651
 594,65;11644,990;  296,481;40686,771;28,09712
 595,23;11620,966;  307,482;41016,945;27,79080
 595,81;11603,404;  291,252;41133,539;27,69716
 596,39;11516,214;  284,636;41225,751;27,43349
 596,97;11550,219;  285,099;41483,071;27,34387
 597,55;11442,658;  276,789;41299,518;27,21874
 598,12;11374,379;  255,869;41427,622;27,00519
 598,70;11306,479;  255,022;41524,349;26,77886
 599,28;11325,451;  280,176;41673,267;26,68386
 599,86;11263,701;  268,407;41677,391;26,55292
 600,44;11193,050;  237,100;41728,953;26,40506
 601,02;11156,170;  285,409;41872,013;26,14005
 601,60;11084,138;  253,637;41721,759;26,11765
 602,18;11046,646;  245,869;41663,795;26,07754
 602,75;10925,023;  252,559;41893,536;25,62972
 603,33;10920,329;  265,715;41822,752;25,63853
 603,91;10811,995;  243,947;41929,245;25,35198
 604,49;10780,860;  268,946;41892,737;25,25458
 605,07;10752,069;  276,175;41965,389;25,12855
 605,65;10685,237;  297,254;42137,842;24,82753
 606,23;10627,431;  378,250;42211,507;24,50008
 606,80;10607,606;  438,790;42197,206;24,35154
 607,38;10478,679;  498,639;42309,266;23,86962
 607,96;10497,448;  539,405;42424,419;23,77472
 608,54;10486,512;  624,177;42467,743;23,56954
 609,12;10408,040;  614,790;42477,124;23,39394
 609,70;10358,572;  646,868;42485,301;23,21240
 610,27;10331,772;  668,328;42601,140;23,04507
 610,85;10216,179;  690,022;42628,419;22,71464
 611,43;10166,463;  689,022;42548,838;22,64090
 612,01;10044,976;  650,175;42272,395;22,57160
 612,59;10002,556;  635,022;42383,789;22,43787
 613,16; 9841,111;  596,866;42290,231;22,17198
 613,74; 9830,224;  567,099;42102,439;22,30179
 614,32; 9762,795;  500,638;42000,448;22,31855
 614,90; 9671,757;  454,022;41961,260;22,20754
 615,48; 9506,136;  396,866;41565,337;22,12681
 616,05; 9519,063;  380,404;41557,061;22,19378
 616,63; 9348,835;  384,865;41351,169;21,88133
 617,21; 9331,217;  360,097;41256,628;21,93614
 617,79; 9188,048;  342,790;41118,642;21,69239
 618,36; 9165,729;  353,637;41024,597;21,66679
 618,94; 8940,719;  293,020;40813,259;21,34168
 619,52; 8883,560;  322,019;40483,520;21,31778
 620,10; 8820,582;  302,021;40323,834;21,28480
 620,67; 8789,115;  322,404;40267,241;21,19601
 621,25; 8672,814;  326,791;40095,017;20,98666
 621,83; 8664,658;  315,866;40078,847;20,99639
 622,41; 8624,958;  343,174;39919,043;20,92635
 622,98; 8515,754;  316,942;39774,997;20,77855
 623,56; 8494,151;  320,019;39647,392;20,78484
 624,14; 8376,102;  308,022;39527,859;20,57143
 624,72; 8267,978;  296,174;39581,879;20,29187
 625,29; 8288,430;  277,327;39600,542;20,37245
 625,87; 8285,388;  318,636;39555,972;20,30401
 626,45; 8116,126;  271,403;39309,825;20,09488
 627,02; 8041,599;  287,790;39277,157;19,88698
 627,60; 8028,969;  271,792;39256,473;19,89801
 628,18; 8010,424;  252,405;39339,201;19,84818
 628,76; 7966,058;  266,096;39321,924;19,71527
 629,33; 7943,775;  291,635;39291,149;19,62112
 629,91; 7917,428;  273,559;39180,757;19,64641
 630,49; 7880,212;  287,481;39402,812;19,41114
 631,06; 7885,609;  282,481;39580,361;19,34742
 631,64; 7828,738;  283,865;39601,059;19,18975
 632,22; 7765,802;  244,787;39393,173;19,21156
 632,79; 7787,773;  262,710;39742,860;19,06037
 633,37; 7795,611;  252,329;39779,231;19,08392
 633,95; 7758,244;  252,634;39893,938;18,93381
 634,52; 7780,359;  239,097;39880,477;19,02371
 635,10; 7740,367;  241,251;39961,247;18,87995
 635,68; 7733,433;  250,941;40204,530;18,72796
 636,25; 7696,007;  239,248;40145,366;18,68575
 636,83; 7690,904;  228,558;40389,847;18,58094
 637,41; 7656,024;  233,710;40466,885;18,44824
 637,98; 7694,907;  253,018;40584,212;18,45194
 638,56; 7666,885;  246,478;40654,269;18,36380
 639,13; 7655,224;  232,173;40817,781;18,28986
 639,71; 7705,382;  266,942;40859,456;18,32466
 640,29; 7557,855;  217,789;40632,952;18,16166
 640,86; 7585,411;  226,404;40870,934;18,10577
 641,44; 7591,582;  226,789;40861,146;18,12455
 642,02; 7576,599;  254,789;40916,743;18,00654
 642,59; 7538,386;  227,327;41038,955;17,91416
 643,17; 7519,557;  230,481;41028,321;17,86633
 643,74; 7503,267;  221,481;41136,226;17,79746
 644,32; 7496,823;  248,789;41013,900;17,77999
 644,89; 7451,917;  239,635;40967,573;17,70844
 645,47; 7402,934;  267,020;41087,170;17,48135
 646,05; 7404,721;  239,404;40918,690;17,61416
 646,62; 7321,892;  238,635;40991,749;17,38090
 647,20; 7339,909;  248,405;41090,961;17,36303
 647,77; 7250,542;  220,943;40967,250;17,25211
 648,35; 7263,790;  215,866;40785,924;17,37223
 648,92; 7251,885;  243,097;40971,290;17,20869
 649,50; 7199,902;  203,789;40772,810;17,24496
 650,08; 7137,304;  204,020;40660,945;17,13745
 650,65; 7225,244;  215,020;40987,311;17,19360
 651,23; 7345,800;  194,866;42080,754;17,07242
 651,80; 7461,741;  216,482;43057,428;16,91200
 652,38; 7522,066;  228,405;43389,025;16,89888
 652,95; 7579,622;  195,174;43809,699;16,93117
 653,53; 7600,331;  219,328;44027,680;16,84839
 654,10; 7696,118;  255,713;44137,892;16,95541
 654,68; 7595,904;  207,021;44039,874;16,85695
 655,25; 7608,845;  197,405;44184,855;16,84899
 655,83; 7549,478;  202,944;44298,606;16,66045
 656,40; 7607,495;  237,175;44162,434;16,77923
 656,98; 7545,974;  215,175;44094,646;16,70667
 657,55; 7518,760;  235,482;43847,858;16,70003
 658,13; 7377,547;  209,252;43345,532;16,61779
 658,70; 7345,872;  223,713;42975,513;16,65932
 659,28; 7091,274;  215,790;41871,956;16,50532
 659,85; 6984,214;  215,406;41208,169;16,51220
 660,43; 6992,232;  230,175;41275,381;16,47466
 661,00; 7030,711;  212,637;41378,055;16,56263
 661,58; 7026,574;  215,329;41784,959;16,38515
 662,15; 7078,053;  202,406;42055,710;16,42797
 662,73; 7138,455;  263,098;42371,307;16,32783
 663,30; 7153,011;  217,483;42662,134;16,34017
 663,88; 7193,028;  226,483;42862,962;16,33940
 664,45; 7169,200;  209,098;42987,328;16,27019
 665,03; 7238,294;  217,406;43393,463;16,26107
 665,60; 7425,234;  273,560;43853,906;16,41032
 666,17; 7341,175;  217,176;43972,119;16,28159
 666,75; 7421,038;  215,022;44405,023;16,30689
 667,32; 7467,979;  241,560;44667,082;16,26637
 667,90; 7562,919;  220,560;44930,217;16,42231
 668,47; 7582,167;  239,099;45249,583;16,31413
 669,05; 7620,492;  215,868;45531,411;16,34014
 669,62; 7617,510;  195,791;45570,315;16,35658
 670,19; 7648,681;  201,022;45767,604;16,34456
 670,77; 7696,160;  216,561;45905,586;16,37067
 671,34; 7589,946;  206,253;45801,798;16,19389
 671,92; 7681,271;  204,484;46193,779;16,25767
 672,49; 7683,366;  217,868;46163,838;16,24843
 673,06; 7648,845;  179,099;46164,589;16,24370
 673,64; 7677,093;  191,330;46127,262;16,29609
 674,21; 7690,110;  184,099;46115,475;16,34179
 674,79; 7756,127;  218,715;46377,764;16,32922
 675,36; 7758,299;  216,330;46463,438;16,30798
 675,93; 7694,470;  199,099;46308,111;16,25576
 676,51; 7769,410;  222,253;46651,554;16,25516
 677,08; 7805,735;  219,869;46685,997;16,32558
 677,65; 7812,830;  214,100;46764,210;16,32376
 678,23; 7848,924;  202,484;47044,114;16,32403
 678,80; 7882,480;  203,023;47186,557;16,34500
 679,38; 7943,959;  199,023;47309,462;16,43996
 679,95; 8007,130;  215,715;47559,059;16,45725
 680,52; 7969,147;  203,100;47923,809;16,27396
 681,10; 8091,241;  213,792;48328,714;16,37215
 681,67; 8137,028;  217,869;48570,618;16,37789
 682,24; 8174,892;  192,023;48705,446;16,45497
 682,82; 8270,909;  208,408;49303,966;16,42206
 683,39; 8417,849;  245,639;49683,024;16,53043
 683,96; 8454,405;  209,562;49866,621;16,60357
 684,54; 8469,423;  200,716;50280,987;16,51091
 685,11; 8584,594;  228,716;50464,276;16,63339
 685,68; 8686,227;  206,254;51016,489;16,68950
 686,25; 8656,167;  189,947;51151,162;16,61307
 686,83; 8707,954;  197,485;51293,298;16,65590
 687,40; 8837,971;  191,639;51519,741;16,84522
 687,97; 8903,681;  231,024;52037,491;16,74049
 688,55; 8868,006;  181,485;52073,473;16,73962
 689,12; 8916,100;  179,408;52305,839;16,76058
 689,69; 8960,656;  193,101;52450,128;16,77775
 690,26; 9002,442;  192,870;52511,494;16,83831
 690,84; 9034,306;  196,716;52630,860;16,85465
 691,41; 9056,554;  203,947;52716,688;16,85802
 691,98; 9183,187;  208,947;53095,823;16,96875
 692,56; 9201,127;  197,562;53117,805;17,01346
 693,13; 9225,221;  252,870;53225,017;16,93787
 693,70; 9278,085;  217,101;53373,152;17,04601
 694,27; 9246,795;  195,409;53438,672;17,00006
 694,84; 9340,889;  195,870;53580,885;17,13031
 695,42; 9388,445;  228,794;53772,020;17,10702
 695,99; 9410,924;  213,178;53933,001;17,12170
 696,56; 9426,172;  198,332;53748,829;17,23203
 697,13; 9532,497;  210,332;54180,503;17,27281
 697,71; 9500,514;  178,640;54240,715;17,24291
 698,28; 9584,455;  189,794;54616,850;17,26101
 698,85; 9618,549;  167,255;54590,063;17,36642
 699,42; 9701,566;  173,717;54824,429;17,43408
 699,99; 9706,507;  216,486;54767,564;17,39658
 700,57; 9752,216;  208,948;54890,007;17,45260
 701,14; 9838,080;  205,256;55054,296;17,56243
 701,71; 9849,020;  216,871;55360,355;17,46743
 702,28; 9921,653;  204,717;55273,951;17,64494
 702,85;10016,440;  212,179;55337,010;17,78556
 703,43;10017,072;  215,640;55681,530;17,67110
 704,00;10072,551;  244,717;55832,742;17,67977
 704,57;10138,415;  223,487;55768,493;17,85026
 705,14;10247,817;  243,487;56074,628;17,91891
 705,71;10246,834;  240,487;56105,840;17,91154
 706,28;10296,236;  216,641;56015,899;18,06403
 706,86;10353,869;  248,641;56298,649;18,02895
 707,43;10398,886;  256,718;56113,631;18,15741
 708,00;10409,827;  242,795;56150,766;18,18530
 708,57;10411,075;  212,872;56044,825;18,26589
 709,14;10537,708;  256,025;56299,806;18,34580
 709,71;10552,263;  227,872;56352,326;18,39553
 710,28;10632,358;  210,564;56579,230;18,48863
 710,86;10639,760;  229,641;56655,058;18,44934
 711,43;10741,623;  244,180;56635,040;18,61551
 712,00;10769,179;  219,410;56838,252;18,63296
 712,57;10867,042;  221,795;56843,541;18,80063
 713,14;10902,291;  204,795;57009,676;18,83200
 713,71;10881,539;  228,026;56904,504;18,79706
 714,28;10947,325;  209,487;56970,639;18,91758
 714,85;10916,189;  190,718;56684,082;18,98536
 715,42;10992,283;  197,565;56937,141;19,02503
 716,00;11136,685;  244,334;57021,738;19,18431
 716,57;11126,395;  203,565;57092,565;19,20025
 717,14;11132,643;  202,719;57090,624;19,21309
 717,71;11193,506;  183,103;57055,605;19,35980
 718,28;11260,370;  213,026;57124,817;19,41134
 718,85;11257,387;  196,411;57226,953;19,39483
 719,42;11366,174;  211,488;57222,934;19,56570
 719,99;11377,191;  203,642;57086,685;19,64302
 720,56;11445,286;  203,103;57435,128;19,64317
 721,13;11480,380;  204,257;57535,186;19,66848
 721,70;11472,089;  193,180;57437,321;19,70317
 722,27;11493,799;  211,719;57421,764;19,72045
 722,84;11615,817;  239,565;57653,823;19,81433
 723,41;11629,911;  192,565;57481,266;19,96440
 723,98;11725,159;  199,104;57759,170;20,02440
 724,55;11811,330;  219,181;57773,460;20,14125
 725,12;11772,809;  169,412;57777,980;20,14179
 725,69;11923,519;  196,642;58016,423;20,28177
 726,27;11966,228;  203,719;58054,327;20,33256
 726,84;12112,861;  206,950;58371,924;20,46921
 727,41;12104,417;  207,335;58265,059;20,49182
 727,98;12218,588;  216,643;58690,348;20,52537
 728,55;12282,836;  221,643;58516,484;20,68998
 729,12;12293,623;  175,643;58677,542;20,71382
 729,69;12413,409;  223,797;58919,293;20,76754
 730,26;12503,504;  231,720;59051,659;20,86331
 730,82;12486,752;  202,258;58868,179;20,93974
 731,39;12547,154;  206,797;58973,622;20,99885
 731,96;12621,633;  191,335;59370,757;21,00443
 732,53;12760,958;  212,181;59529,431;21,15536
 733,10;12867,514;  226,105;59500,336;21,32699
 733,67;12896,223;  227,566;59947,932;21,21329
 734,24;12911,471;  198,797;59458,452;21,45249
 734,81;12979,796;  228,182;59670,895;21,45194
 735,38;12979,275;  200,720;59276,261;21,63087
 735,95;12979,600;  194,336;59088,320;21,70895
 736,52;13050,310;  222,797;59340,071;21,69842
 737,09;13031,481;  210,720;58986,129;21,81314
 737,66;13205,422;  254,413;59063,034;22,02230
 738,23;13252,208;  187,567;59049,553;22,19538
 738,80;13390,687;  248,720;59406,996;22,21493
 739,37;13427,782;  229,259;59627,901;22,22024
 739,94;13514,414;  211,336;59763,036;22,33870
 740,51;13640,432;  298,182;59765,018;22,43645
 741,07;13593,372;  205,182;59732,615;22,49079
 741,64;13644,697;  236,798;59973,442;22,44502
 742,21;13773,330;  209,798;60078,039;22,65564
 742,78;13733,886;  191,798;59765,021;22,73184
 743,35;13860,749;  209,875;59994,925;22,83326
 743,92;14017,305;  236,413;60110,753;23,01636
 744,49;13987,015;  228,721;59996,888;23,01943
 745,06;14047,186;  210,259;59967,023;23,15541
 745,63;13995,896;  197,336;60016,159;23,06725
 746,19;14112,374;  203,952;60052,448;23,23939
 746,76;14092,238;  224,952;60094,583;23,16247
 747,33;14171,640;  209,337;59963,334;23,36631
 747,90;14267,427;  223,029;60152,008;23,43507
 748,47;14251,829;  223,260;60038,451;23,45319
 749,04;14288,615;  223,414;59988,048;23,53432
 749,61;14375,325;  237,414;60035,183;23,64287
 750,17;14364,573;  226,568;60126,011;23,60290
 750,74;14435,513;  229,875;59996,146;23,76865
 751,31;14428,146;  203,260;59962,589;23,80362
 751,88;14391,087;  187,799;59765,955;23,83976
 752,45;14559,335;  209,183;59956,706;24,01799
 753,02;14520,506;  222,568;59724,764;24,02926
 753,58;14588,754;  196,414;59735,746;24,17283
 754,15;14659,848;  207,491;59899,727;24,21145
 754,72;14617,635;  202,260;59571,093;24,28105
 755,29;14580,421;  181,414;59555,844;24,25119
 755,86;14667,900;  215,414;59606,287;24,33452
 756,42;14818,072;  225,414;59578,884;24,58602
 756,99;14777,935;  185,568;59460,481;24,61812
 757,56;14829,183;  201,645;59517,308;24,66050
 758,13;14813,124;  168,799;59363,213;24,73937
 758,70;14893,372;  180,491;59339,963;24,86986
 759,26;14996,235;  183,030;59428,868;25,00295
 759,83;15057,176;  188,184;59567,696;25,04061
 760,40;15049,501;  178,799;59306,985;25,14994
 760,97;15092,903;  173,415;59394,966;25,19267
 761,53;15037,305;  168,722;58987,025;25,27884
 762,10;15086,014;  167,646;58951,468;25,37836
 762,67;15064,186;  193,030;59018,757;25,28002
 763,24;15011,972;  157,261;58488,507;25,46613
 763,80;15136,143;  179,569;58742,258;25,53943
 764,37;15151,161;  177,569;58588,317;25,63499
 764,94;15045,947;  168,261;58114,913;25,67480
 765,50;15103,965;  173,184;58069,895;25,78865
 766,07;15217,674;  207,108;58155,030;25,90355
 766,64;15097,846;  173,877;57753,319;25,91892
 767,21;15106,709;  177,569;57698,762;25,95416
 767,77;15113,342;  202,569;57592,975;25,98130
 768,34;15173,205;  205,954;57624,033;26,06714
 768,91;15182,300;  202,108;57349,091;26,21344
 769,47;15206,086;  201,108;57426,227;26,22097
 770,04;15253,796;  208,416;57209,977;26,39468
 770,61;15199,044;  194,646;56990,036;26,41834
 771,18;15230,908;  175,877;56880,710;26,54982
 771,74;15344,002;  193,877;56977,691;26,68036
 772,31;15277,404;  198,493;56724,134;26,67623
 772,88;15253,421;  182,339;56494,193;26,76361
 773,44;15249,439;  182,724;56290,943;26,85296
 774,01;15338,071;  196,877;56440,925;26,92053
 774,58;15327,319;  184,108;55982,060;27,13937
 775,14;15389,875;  182,570;56141,041;27,17606
 775,71;15445,816;  181,801;56143,331;27,27591
 776,27;15513,064;  233,493;55958,774;27,41946
 776,84;15566,004;  244,416;55957,832;27,50072
 777,41;15565,099;  200,724;55784,198;27,64198
 777,97;15473,039;  196,262;55585,257;27,58089
 778,54;15571,826;  207,109;55557,084;27,75921
 779,11;15585,612;  214,724;55625,835;27,73972
 779,67;15619,322;  184,570;55452,278;27,92725
 780,24;15578,493;  201,647;55296,721;27,90966
 780,80;15651,972;  226,878;55326,702;27,99481
 781,37;15733,066;  203,186;55200,761;28,23739
 781,94;15636,930;  199,186;54977,358;28,18229
 782,50;15651,178;  203,571;54938,185;28,22274
 783,07;15786,195;  228,724;54978,398;28,41564
 783,63;15712,366;  192,186;54739,302;28,45280
 784,20;15701,999;  225,186;54656,976;28,43341
 784,77;15722,401;  210,955;54484,573;28,58008
 785,33;15716,957;  182,494;54207,323;28,75430
 785,90;15739,205;  200,725;54230,151;28,75929
 786,46;15748,684;  220,879;54116,594;28,81083
 787,03;15744,471;  196,263;53894,576;28,95474
 787,59;15721,719;  194,648;53812,788;28,95862
 788,16;15713,275;  211,110;53761,077;28,94897
 788,73;15701,061;  218,802;53550,905;29,02991
 789,29;15684,925;  208,033;53154,501;29,23121
 789,86;15754,173;  223,264;53030,560;29,41054
 790,42;15685,882;  213,879;52940,464;29,34384
 790,99;15681,054;  226,879;52570,907;29,52424
 791,55;15617,071;  203,571;52554,966;29,44239
 792,12;15699,550;  212,802;52582,024;29,57223
 792,68;15605,875;  206,264;52168,929;29,63592
 793,25;15607,508;  210,187;51994,910;29,73333
 793,81;15566,987;  254,648;51568,199;29,84073
 794,38;15431,619;  185,725;51320,181;29,81531
 794,94;15462,637;  185,187;51222,085;29,93413
 795,51;15422,500;  211,418;50860,221;30,03246
 796,07;15354,441;  209,956;50686,202;30,00319
 796,64;15424,073;  229,649;50757,491;30,07139
 797,20;15382,783;  215,187;50174,396;30,35996
 797,77;15226,647;  189,418;49875,454;30,26450
 798,33;15225,049;  206,341;49774,743;30,29895
 798,90;15220,835;  233,034;49724,494;30,28361
 799,46;15164,006;  206,726;49100,322;30,59149
 800,03;15143,101;  209,034;49080,149;30,55806
 800,59;15098,195;  222,264;48763,362;30,64605
 801,15;15063,982;  228,418;48620,728;30,65686
 801,72;14971,768;  219,880;48234,555;30,72371
 802,28;14972,632;  238,188;47968,152;30,87043
 802,85;14886,034;  217,265;47728,826;30,87410
 803,41;14913,282;  215,649;47496,269;31,08596
 803,98;14838,915;  202,034;47048,097;31,24463
 804,54;14729,470;  206,803;46901,540;31,10129
 805,11;14731,642;  216,188;46594,444;31,29797
 805,67;14739,197;  236,034;46530,964;31,32776
 806,23;14583,061;  221,265;46115,330;31,29336
 806,80;14671,771;  237,188;45995,619;31,54519
 807,36;14631,865;  240,265;45897,524;31,52095
 807,93;14617,113;  239,727;45659,582;31,65441
 808,49;14544,207;  207,342;45210,795;31,85726
 809,05;14433,378;  197,881;45048,161;31,74004
 809,62;14486,627;  232,881;45033,527;31,81594
 810,18;14487,721;  227,650;44947,201;31,88778
 810,74;14429,815;  192,727;44570,720;32,08141
 811,31;14413,909;  202,958;44352,471;32,18824
 811,87;14384,542;  210,573;44203,222;32,21895
 812,44;14456,406;  240,881;44250,973;32,30060
 813,00;14367,038;  177,112;43940,262;32,42437
 813,56;14459,594;  227,266;43925,166;32,56982
 814,13;14381,458;  216,881;43841,609;32,46915
 814,69;14334,706;  207,804;43638,898;32,52716
 815,25;14303,954;  183,343;43212,341;32,81650
 815,82;14348,279;  231,958;43176,400;32,87112
 816,38;14278,835;  237,574;42958,458;32,86744
 816,94;14141,621;  203,574;42525,824;32,93314
 817,51;14088,639;  195,804;42458,344;32,87269
 818,07;14083,579;  198,343;42081,941;33,15197
 818,63;14047,597;  226,497;41908,230;33,15865
 819,20;14085,922;  209,805;41773,443;33,38523
 819,76;13939,939;  198,882;41306,039;33,42741
 820,32;13912,803;  243,882;41325,559;33,27255
 820,89;13846,512;  232,805;41078,925;33,32925
 821,45;13821,530;  198,113;40632,215;33,69289
 822,01;13795,470;  225,497;40460,427;33,72685
 822,57;13723,872;  214,497;40355,485;33,65481
 823,14;13691,351;  184,267;40116,236;33,82524
 823,70;13581,214;  205,190;39802,756;33,77992
 824,26;13557,770;  209,574;39682,584;33,81601
 824,82;13587,788;  223,113;39485,257;34,03959
 825,39;13466,728;  214,497;39172,623;34,01660
 825,95;13518,130;  230,728;39266,605;34,03895
 826,51;13362,378;  223,575;38820,509;34,04105
 827,08;13441,857;  257,498;38952,645;34,07238
 827,64;13440,490;  231,805;38690,395;34,34521
 828,20;13355,507;  201,882;38397,531;34,43750
 828,76;13377,525;  221,190;38328,743;34,52422
 829,32;13314,696;  233,652;38126,186;34,52143
 829,89;13246,098;  190,498;38111,860;34,42809
 830,45;13331,654;  206,652;38030,610;34,70023
 831,01;13252,979;  205,113;37722,284;34,77838
 831,57;13242,381;  217,729;37617,727;34,82527
 832,14;13221,859;  198,883;37692,709;34,73366
 832,70;13200,338;  204,037;37307,613;35,02709
 833,26;13178,586;  179,191;37317,902;35,00228
 833,82;13159,681;  205,421;37142,576;35,07108
 834,38;13196,544;  201,037;37198,327;35,12557
 834,95;13135,792;  191,575;36947,539;35,21664
 835,51;13109,117;  163,729;36838,213;35,29808
 836,07;13267,135;  211,268;36955,118;35,53212
 836,63;13290,460;  222,191;36963,714;35,56812
 837,19;13230,477;  210,729;36849,311;35,53562
 837,75;13116,572;  172,114;36450,139;35,68126
 838,32;13188,435;  224,268;36537,197;35,70124
 838,88;13260,914;  216,499;36500,256;35,95112
 839,44;13282,931;  204,114;36559,468;35,97494
 840,00;13230,256;  209,576;36392,757;35,98545
 840,56;13199,428;  188,960;36187,046;36,14211
 841,12;13159,445;  195,268;36058,258;36,14918
 841,68;13175,001;  184,345;35778,240;36,49686
 842,25;13154,557;  185,576;35913,375;36,29941
 842,81;13049,266;  183,807;35694,895;36,22941
 843,37;13094,284;  178,115;35578,800;36,48565
 843,93;13110,993;  193,268;35427,166;36,66278
 844,49;13147,011;  209,038;35531,840;36,62782
 845,05;13108,259;  177,115;35335,975;36,77919
 845,61;13195,353;  210,730;35427,879;36,87017
 846,17;13105,370;  195,653;35242,630;36,83547
 846,73;13122,926;  208,730;35127,458;36,98358
 847,29;13028,790;  178,115;35024,824;36,87773
 847,86;13059,269;  192,038;34892,959;37,08037
 848,42;13076,517;  178,423;34646,556;37,42034
 848,98;13047,457;  206,500;34603,307;37,33183
 849,54;13072,090;  206,115;34727,134;37,26997
 850,10;13010,569;  198,423;34609,654;37,23245
 850,66;13017,663;  182,731;34318,559;37,59959
 851,22;13027,450;  183,038;34269,848;37,68147
 851,78;13046,544;  231,577;34292,214;37,62398
 852,34;12985,946;  201,654;34021,042;37,80167
 852,90;12994,425;  189,885;33930,869;37,94952
 853,46;12922,981;  196,115;33696,543;37,99016
 854,02;12934,537;  205,423;33844,602;37,84014
 854,58;12843,477;  187,269;33464,660;38,03245
 855,14;12875,802;  180,731;33482,334;38,12150
 855,70;12824,896;  164,885;33303,315;38,20341
 856,26;12810,452;  217,731;33189,451;38,19249
 856,82;12723,085;  195,731;33000,432;38,18768
 857,38;12741,410;  216,731;32892,337;38,33036
 857,94;12715,735;  191,962;32791,241;38,41733
 858,50;12681,368;  204,808;32721,607;38,36958
 859,06;12627,154;  192,424;32436,589;38,56428
 859,62;12630,787;  205,885;32462,032;38,51949
 860,18;12562,881;  197,039;32233,705;38,59903
 860,74;12520,668;  167,424;31992,610;38,81594
 861,30;12465,685;  173,039;31885,976;38,76224
 861,86;12617,472;  231,193;31916,111;39,09203
 862,42;12513,105;  197,424;31619,016;39,19496
 862,98;12477,507;  226,424;31708,997;38,91385
 863,54;12392,293;  210,193;31429,364;39,02122
 864,10;12455,003;  196,116;31583,499;39,05673
 864,66;12390,174;  179,886;31252,019;39,29659
 865,22;12378,038;  195,963;31120,077;39,39345
 865,78;12344,670;  212,578;30975,828;39,43697
 866,34;12360,611;  183,347;30863,809;39,69061
 866,90;12302,705;  211,424;30786,637;39,54602
 867,45;12270,415;  209,732;30603,080;39,68198
 868,01;12164,355;  198,578;30345,369;39,69171
 868,57;12129,065;  199,424;30190,966;39,77668
 869,13;12121,775;  179,194;30059,178;39,96850
 869,69;12081,561;  191,578;29977,775;39,91776
 870,25;12021,655;  182,425;29802,680;39,97005
 870,81;12019,827;  192,040;29779,584;39,97556
 871,37;12022,613;  198,809;29672,489;40,11648
 871,93;11949,092;  211,040;29467,778;40,12085
 872,49;11914,571;  203,348;29227,529;40,34988
 873,04;11802,665;  186,579;29072,972;40,21300
 873,60;11875,375;  184,579;29020,415;40,54259
 874,16;11825,777;  205,117;28906,088;40,48873
 874,72;11812,700;  193,733;28815,627;40,59468
 875,28;11748,700;  205,425;28750,704;40,43847
 875,84;11752,315;  197,348;28576,473;40,71643
 876,40;11760,469;  203,963;28639,704;40,64078
 876,95;11780,162;  206,887;28566,550;40,80893
 877,51;11782,931;  213,810;28619,165;40,72866
 878,07;11802,546;  239,887;28596,473;40,77592
 878,63;11819,623;  188,271;28632,550;40,89171
 879,19;11812,008;  216,887;28548,242;40,92681
 879,75;11838,623;  199,963;28573,396;41,01957
 880,30;11907,854;  198,194;28644,012;41,16479
 880,86;12040,008;  221,887;28644,319;41,58026
 881,42;11986,700;  182,887;28720,396;41,36245
 881,98;12025,469;  217,040;28888,088;41,18590
 882,54;12084,700;  192,271;28968,319;41,32753
 883,09;12135,085;  207,502;29062,242;41,33665
 883,65;12248,238;  186,656;29171,935;41,61279
 884,21;12365,854;  216,348;29334,627;41,72467
 884,77;12410,392;  190,733;29363,627;41,88703
 885,32;12486,008;  191,040;29538,935;41,89387
 885,88;12573,469;  222,502;29729,088;41,85834
 886,44;12722,392;  200,271;29848,550;42,23558
 887,00;12725,162;  222,271;29780,781;42,29878
 887,56;12780,700;  203,963;29923,319;42,31834
 888,11;12806,162;  202,887;29903,550;42,43432
 888,67;12913,854;  227,656;30061,858;42,52233
 889,23;12925,854;  209,194;30121,627;42,51296
 889,79;12906,085;  184,810;30004,165;42,66113
 890,34;12872,469;  207,194;29866,242;42,70290
 890,90;13050,777;  248,348;30086,704;42,90595
 891,46;12924,238;  203,733;29926,858;42,79666
 892,01;12940,777;  220,117;29967,935;42,76166
 892,57;12970,162;  230,887;29852,935;43,00606
 893,13;12863,315;  201,348;29626,012;43,03182
 893,69;12796,777;  197,733;29570,627;42,89344
 894,24;12777,085;  210,579;29460,473;42,96257
 894,80;12773,700;  221,040;29294,088;43,17628
 895,36;12784,469;  202,656;29185,165;43,41175
 895,91;12711,162;  201,502;29076,858;43,32296
 896,47;12716,777;  205,040;28958,550;43,51377
 897,03;12641,085;  200,502;28707,781;43,64002
 897,58;12603,546;  215,963;28487,088;43,81708
 898,14;12586,008;  203,425;28289,012;44,08875
 898,70;12456,238;  182,656;28093,012;43,97501
 899,25;12501,546;  204,810;28166,242;43,97749
 899,81;12441,008;  218,887;28013,704;43,97266
 900,37;12395,085;  178,502;27662,319;44,45009
 900,92;12383,392;  202,502;27768,550;44,18802
 901,48;12336,162;  193,271;27619,935;44,27403
 902,03;12283,085;  199,040;27431,319;44,37397
 902,59;12205,777;  201,887;27311,242;44,27951
 903,15;12301,315;  210,117;27128,242;44,91843
 903,70;12158,854;  205,117;26903,396;44,77344
 904,26;12097,469;  185,887;26797,012;44,76167
 904,82;12118,854;  206,271;26789,088;44,81309
 905,37;12068,700;  212,579;26610,627;44,91287
 905,93;12025,315;  183,040;26431,858;45,11546
 906,48;12055,162;  201,733;26375,781;45,28695
 907,04;11968,315;  222,656;26349,550;44,95620
 907,60;11899,469;  197,887;26149,242;45,09045
 908,15;11852,777;  186,194;25946,012;45,28985
 908,71;11943,008;  230,963;25985,627;45,47543
 909,26;11854,854;  196,963;25748,704;45,62464
 909,82;11787,854;  219,271;25680,319;45,43640
 910,37;11787,008;  237,502;25520,858;45,68027
 910,93;11719,238;  199,271;25373,627;45,76072
 911,48;11661,315;  187,348;25161,242;45,94385
 912,04;11566,315;  198,887;25064,627;45,71522
 912,60;11633,854;  212,348;25142,319;45,81436
 913,15;11548,854;  204,194;24909,627;45,91970
 913,71;11466,469;  197,963;24695,242;45,99901
 914,26;11388,392;  188,887;24590,473;45,89663
 914,82;11396,162;  202,656;24554,627;45,96550
 915,37;11379,085;  195,502;24383,165;46,23672
 915,93;11355,546;  232,887;24263,088;46,28617
 916,48;11238,854;  194,810;24121,704;46,15745
 917,04;11245,623;  208,810;24022,935;46,34566
 917,59;11207,931;  222,733;23936,550;46,32404
 918,15;11077,008;  180,117;23719,858;46,29146
 918,70;11060,854;  197,963;23682,781;46,25495
 919,26;11062,623;  205,194;23613,935;46,38194
 919,81;10977,623;  187,194;23453,473;46,37797
 920,37;10996,162;  190,348;23302,627;46,75356
 920,92;10929,085;  213,117;23274,935;46,46627
 921,48;10894,546;  178,040;23010,781;46,93482
 922,03;10861,931;  185,425;22983,012;46,83174
 922,59;10840,854;  185,502;22879,165;46,95298
 923,14;10760,162;  191,425;22735,012;46,88134
 923,69;10732,931;  208,579;22682,704;46,82875
 924,25;10749,392;  207,117;22665,858;46,94063
 924,80;10622,546;  206,656;22368,781;46,99861
 925,36;10608,085;  192,271;22349,396;47,00887
 925,91;10553,777;  186,810;22157,319;47,18583
 926,47;10541,085;  178,271;22081,012;47,31286
 927,02;10510,623;  224,810;22034,473;47,16172
 927,57;10447,162;  200,348;21868,627;47,28947
 928,13;10418,469;  188,348;21773,319;47,39465
 928,68;10367,392;  197,117;21651,781;47,40356
 929,24;10329,700;  162,579;21440,935;47,78152
 929,79;10255,392;  199,271;21308,627;47,63822
 930,34;10219,931;  194,117;21157,012;47,82648
 930,90;10203,777;  192,271;21170,396;47,72355
 931,45;10151,546;  210,194;21113,935;47,55777
 932,01;10128,238;  214,348;20992,935;47,71205
 932,56;10033,854;  212,579;20911,473;47,44831
 933,11;10078,546;  209,656;20788,935;47,95547
 933,67; 9965,469;  196,733;20679,550;47,69235
 934,22; 9908,469;  202,040;20566,319;47,66399
 934,77; 9886,162;  226,425;20470,781;47,71570
 935,33; 9835,085;  204,963;20404,319;47,67539
 935,88; 9815,700;  205,963;20250,550;47,94180
 936,43; 9772,315;  191,194;20158,935;47,98300
 936,99; 9768,162;  197,579;20138,012;47,99586
 937,54; 9676,931;  192,194;19903,396;48,11851
 938,09; 9664,162;  208,963;19897,550;48,02375
 938,65; 9648,777;  209,194;19727,396;48,36297
 939,20; 9625,392;  181,502;19554,704;48,74718
 939,75; 9551,315;  186,810;19473,242;48,55489
 940,31; 9493,008;  185,502;19369,473;48,51710
 940,86; 9517,931;  209,271;19460,012;48,35481
 941,41; 9517,546;  260,425;19257,473;48,72926
 941,96; 9403,008;  196,502;19153,858;48,56429
 942,52; 9414,162;  196,887;19042,088;48,91046
 943,07; 9331,546;  177,271;18909,242;48,86979
 943,62; 9294,238;  197,733;18786,012;48,93678
 944,18; 9245,162;  183,348;18717,242;48,89320
 944,73; 9257,085;  197,579;18656,242;49,07997
 945,28; 9152,008;  166,271;18430,627;49,19821
 945,83; 9158,238;  194,887;18436,858;49,13587
 946,39; 9122,854;  193,348;18448,012;48,91630
 946,94; 9092,469;  213,887;18275,781;49,15643
 947,49; 9049,085;  198,733;18224,550;49,09820
 948,04; 9079,315;  208,425;18156,319;49,42580
 948,59; 9033,315;  210,656;18075,012;49,38695
 949,15; 8979,162;  186,040;17929,473;49,55705
 949,70; 8950,700;  193,348;17860,473;49,56863
 950,25; 8906,700;  204,271;17713,319;49,70247
 950,80; 8817,931;  166,117;17698,704;49,34705
 951,36; 8831,315;  166,733;17559,242;49,81790
 951,91; 8837,854;  210,810;17509,935;49,86983
 952,46; 8733,085;  172,963;17336,627;49,87351
 953,01; 8780,623;  200,733;17339,858;50,06026
 953,56; 8714,315;  183,502;17212,165;50,09679
 954,11; 8686,085;  201,040;17124,165;50,13876
 954,67; 8665,238;  195,194;17055,550;50,23645
 955,22; 8590,238;  170,271;16944,781;50,19501
 955,77; 8615,162;  208,040;16938,088;50,25163
 956,32; 8552,931;  242,040;16779,550;50,25479
 956,87; 8509,623;  178,348;16650,012;50,57944
 957,42; 8512,469;  182,579;16580,704;50,79782
 957,98; 8515,008;  188,348;16506,781;51,02610
 958,53; 8435,085;  202,579;16464,165;50,62548
 959,08; 8363,162;  185,963;16320,781;50,68045
 959,63; 8322,315;  198,194;16254,088;50,59900
 960,18; 8339,469;  202,810;16157,627;50,99814
 960,73; 8300,008;  198,656;16124,858;50,86807
 961,28; 8238,162;  173,194;15976,396;51,03375
 961,83; 8263,623;  211,579;16002,396;50,99194
 962,39; 8214,700;  181,502;15885,319;51,15443
 962,94; 8202,854;  213,810;15735,165;51,47130
 963,49; 8158,085;  192,810;15576,396;51,77775
 964,04; 8152,469;  203,348;15577,627;51,70403
 964,59; 8049,546;  171,348;15518,012;51,33492
 965,14; 8037,700;  210,194;15419,781;51,46429
 965,69; 7969,315;  194,425;15307,858;51,44358
 966,24; 7970,623;  184,271;15227,319;51,76047
 966,79; 7954,546;  199,271;15055,781;52,20119
 967,34; 7850,315;  178,194;14961,935;51,89567
 967,89; 7841,623;  186,733;14977,858;51,75327
 968,44; 7836,238;  189,656;14863,319;52,11093
 968,99; 7793,777;  196,733;14780,242;52,09339
 969,55; 7791,854;  198,271;14676,396;52,44866
 970,10; 7716,931;  209,733;14566,550;52,29013
 970,65; 7687,546;  209,502;14533,319;52,20706
 971,20; 7685,085;  186,348;14402,935;52,74639
 971,75; 7580,008;  179,117;14194,012;52,80732
 972,30; 7579,085;  196,271;14152,935;52,89813
 972,85; 7566,623;  188,887;14044,781;53,24620
 973,40; 7480,546;  186,733;13914,704;53,13104
 973,95; 7471,931;  202,502;13907,935;53,04049
 974,50; 7436,777;  220,579;13814,396;53,08441
 975,05; 7368,162;  199,733;13705,627;53,07630
 975,60; 7369,008;  203,425;13629,473;53,37075
 976,15; 7342,469;  194,040;13549,935;53,52265
 976,70; 7238,777;  197,579;13435,858;53,18817
 977,25; 7274,162;  208,348;13392,704;53,59241
 977,80; 7210,162;  191,887;13189,704;53,99580
 978,35; 7156,700;  205,579;13034,012;54,18527
 978,89; 7099,238;  186,194;13015,165;53,88619
 979,44; 7078,623;  193,348;12934,627;54,03912
 979,99; 7017,854;  181,425;12762,935;54,33711
 980,54; 6989,315;  221,963;12770,396;53,92986
 981,09; 6955,700;  212,733;12629,473;54,30545
 981,64; 6889,392;  208,194;12536,012;54,19612
 982,19; 6846,623;  249,194;12427,165;54,17511
 982,74; 6758,008;  209,887;12265,473;54,31607
 983,29; 6678,085;  183,194;12156,935;54,24279
 983,84; 6704,085;  205,887;12052,165;54,85434
 984,39; 6715,777;  226,656;11990,473;55,16170
 984,94; 6567,469;  176,733;11904,550;54,49212
 985,49; 6589,546;  219,810;11813,396;54,94190
 986,03; 6539,546;  215,810;11696,781;55,08015
 986,58; 6413,623;  238,502;11563,704;54,52548
 987,13; 6355,546;  206,271;11472,396;54,58199
 987,68; 6317,008;  223,425;11362,858;54,70281
 988,23; 6331,469;  207,502;11298,550;55,21541
 988,78; 6209,931;  201,887;11167,242;54,79115
 989,33; 6162,315;  202,963;11052,396;54,92777
 989,88; 6107,777;  222,810;10979,704;54,70880
 990,42; 6063,085;  202,194;10865,473;54,96330
 990,97; 5974,546;  198,348;10741,319;54,78719
 991,52; 5964,392;  219,040;10607,473;55,30528
 992,07; 5947,392;  232,194;10517,012;55,56927
 992,62; 5855,700;  209,810;10439,627;55,19053
 993,17; 5784,700;  214,810;10330,627;55,06120
 993,71; 5741,777;  208,810;10243,781;55,13685
 994,26; 5659,238;  180,194;10077,627;55,35824
 994,81; 5643,315;  223,194;10031,012;55,26328
 995,36; 5571,392;  195,348; 9867,165;55,58463
 995,91; 5545,700;  204,579; 9807,704;55,61857
 996,45; 5490,162;  209,887; 9706,012;55,60452
 997,00; 5384,854;  184,348; 9588,165;55,30207
 997,55; 5405,700;  202,271; 9541,319;55,71691
 998,10; 5369,700;  229,963; 9395,012;56,07976
 998,65; 5276,854;  197,502; 9292,935;55,84508
 999,19; 5262,238;  218,348; 9195,704;56,18459
 999,74; 5204,008;  234,271; 9084,473;56,15393
1000,29; 5149,777;  219,194; 9015,396;56,05354
1000,84; 5051,700;  199,348; 8899,088;55,77582
1001,38; 5008,623;  204,810; 8750,858;56,21093
1001,93; 4999,162;  224,117; 8772,781;55,85720
1002,48; 4908,777;  192,348; 8523,704;56,61058
1003,03; 4920,008;  212,810; 8510,858;56,72657
1003,57; 4825,931;  213,040; 8434,319;56,10916
1004,12; 4810,085;  235,117; 8333,473;56,49255
1004,67; 4738,469;  201,348; 8217,165;56,60210
1005,22; 4637,162;  194,425; 8108,473;56,13735
1005,76; 4542,162;  197,425; 7977,012;55,84791
1006,31; 4586,392;  225,348; 7937,319;56,54902
1006,86; 4512,854;  197,348; 7798,473;56,77457
1007,40; 4442,623;  188,425; 7636,396;57,11888
1007,95; 4394,854;  205,963; 7567,550;56,90201
1008,50; 4327,546;  213,810; 7449,704;56,85181
1009,04; 4298,623;  208,887; 7371,858;57,09553
1009,59; 4221,008;  216,194; 7204,781;57,30506
1010,14; 4148,238;  189,040; 7142,627;56,93750
1010,68; 4082,700;  206,271; 6986,242;57,17471
1011,23; 4022,162;  195,810; 6919,550;56,90809
1011,78; 3992,238;  210,963; 6842,627;57,01850
1012,32; 3948,700;  208,194; 6707,165;57,55535
1012,87; 3951,085;  233,502; 6705,627;57,43991
1013,42; 3844,392;  202,579; 6568,165;57,21096
1013,96; 3838,238;  224,194; 6614,704;56,55330
1014,51; 3773,008;  176,579; 6475,627;57,09480
1015,06; 3810,392;  172,348; 6479,165;57,68431
1015,60; 3840,238;  245,887; 6533,935;57,16165
1016,15; 3824,931;  197,425; 6518,627;57,38633
1016,69; 3861,777;  201,810; 6552,550;57,63056
1017,24; 3836,085;  172,502; 6506,858;57,83671
1017,79; 3920,162;  225,117; 6620,242;57,77908
1018,33; 3854,777;  198,502; 6595,012;57,16047
1018,88; 3907,162;  207,425; 6625,473;57,64582
1019,42; 3946,700;  202,579; 6661,935;57,96431
1019,97; 3881,931;  202,810; 6624,012;57,29646
1020,51; 3933,238;  208,810; 6662,550;57,70962
1021,06; 3902,392;  183,887; 6649,242;57,51433
1021,61; 3888,085;  180,425; 6599,935;57,75612
1022,15; 3865,392;  161,271; 6557,781;57,90847
1022,70; 3874,162;  203,733; 6576,165;57,59855
1023,24; 3875,854;  199,963; 6505,165;58,29933
1023,79; 3808,546;  203,194; 6449,319;57,72142
1024,33; 3800,085;  191,194; 6382,704;58,28773
1024,88; 3759,008;  206,194; 6296,627;58,33434
1025,42; 3666,700;  193,502; 6186,088;57,95825
1025,97; 3625,931;  192,348; 6128,242;57,84440
1026,51; 3547,546;  165,117; 6003,319;57,93614
1027,06; 3539,623;  185,194; 5922,473;58,46724
1027,60; 3488,546;  213,117; 5810,242;58,51984
1028,15; 3463,854;  206,733; 5733,088;58,93796
1028,69; 3365,008;  168,271; 5602,396;58,82707
1029,24; 3330,700;  191,887; 5581,935;58,23350
1029,78; 3266,085;  183,117; 5456,935;58,45798
1030,33; 3203,238;  184,733; 5368,396;58,23113
1030,87; 3196,700;  193,117; 5270,242;59,15912
1031,42; 3153,238;  175,194; 5197,012;59,30212
1031,96; 3153,700;  201,425; 5167,858;59,44458
1032,51; 3038,008;  187,733; 5066,242;58,42512
1033,05; 3044,546;  201,656; 5011,704;59,10316
1033,60; 2931,469;  169,810; 4895,242;58,44247
1034,14; 2953,162;  193,271; 4822,396;59,62013
1034,69; 2931,700;  188,502; 4739,627;60,27516
1035,23; 2893,546;  188,348; 4689,473;60,10049
1035,77; 2845,854;  192,733; 4637,319;59,69332
1036,32; 2778,623;  171,656; 4575,704;59,19480
1036,86; 2757,854;  194,425; 4512,935;59,35911
1037,41; 2728,392;  209,579; 4451,319;59,38160
1037,95; 2666,546;  168,733; 4362,858;59,55506
1038,50; 2632,931;  183,425; 4315,550;59,27957
1039,04; 2652,085;  199,271; 4230,935;60,83875
1039,58; 2583,162;  176,810; 4179,781;60,11415
1040,13; 2554,700;  194,117; 4108,627;60,30341
1040,67; 2526,085;  211,579; 4116,012;59,27893
1041,21; 2526,546;  225,579; 4019,935;60,64184
1041,76; 2462,162;  174,117; 3944,088;60,69129
1042,30; 2428,469;  195,887; 3907,627;60,14921
1042,85; 2386,085;  186,656; 3852,704;59,99454
1043,39; 2338,777;  177,502; 3762,165;60,29227
1043,93; 2350,392;  200,733; 3716,935;61,13584
1044,48; 2303,238;  206,194; 3644,088;60,99793
1045,02; 2250,008;  182,963; 3618,473;60,16703
1045,56; 2261,238;  207,194; 3571,935;61,04614
1046,11; 2211,238;  199,887; 3518,242;60,61291
1046,65; 2183,085;  198,887; 3500,473;60,09832
1047,19; 2144,315;  183,656; 3419,858;60,58521
1047,74; 2117,854;  170,425; 3338,550;61,46944
1048,28; 2104,546;  197,810; 3357,396;60,34766
1048,82; 2125,162;  210,579; 3288,165;62,21052
1049,37; 2063,700;  197,348; 3244,242;61,25424
1049,91; 2025,392;  195,887; 3185,704;61,19122
1050,45; 2019,162;  212,733; 3158,858;61,31542
1050,99; 1974,546;  192,963; 3101,088;61,26225
1051,54; 1952,238;  187,963; 3015,627;62,39339
1052,08; 1953,392;  214,425; 3014,088;62,11344
1052,62; 1915,315;  198,963; 2964,704;62,05759
1053,16; 1856,700;  183,733; 2909,627;61,37316
1053,71; 1872,008;  192,810; 2875,088;62,60341
1054,25; 1860,008;  214,040; 2822,012;63,11294
1054,79; 1821,931;  206,502; 2786,550;62,61235
1055,33; 1778,546;  169,579; 2717,088;63,15844
1055,88; 1770,469;  207,502; 2717,088;62,27987
1056,42; 1768,469;  214,502; 2693,012;62,69765
1056,96; 1734,854;  207,040; 2618,858;63,34698
1057,50; 1707,700;  196,194; 2606,781;62,70282
1058,05; 1682,546;  198,810; 2548,550;63,14470
1058,59; 1674,392;  217,194; 2530,858;62,98228
1059,13; 1626,392;  188,194; 2442,627;63,79423
1059,67; 1613,623;  215,194; 2432,704;63,06303
1060,21; 1597,392;  191,271; 2407,627;63,44294
1060,76; 1587,238;  213,733; 2382,858;63,32073
1061,30; 1599,315;  216,502; 2371,627;64,16396
1061,84; 1534,931;  216,425; 2271,781;64,14976
1062,38; 1487,008;  191,271; 2251,242;62,90071
1062,92; 1520,469;  238,425; 2255,088;63,57254
1063,46; 1482,469;  212,117; 2215,396;63,41363
1064,01; 1445,854;  196,194; 2183,165;62,89269
1064,55; 1451,469;  197,425; 2168,473;63,62322
1065,09; 1395,931;  173,040; 2099,627;63,47446
1065,63; 1423,777;  231,963; 2123,550;63,00602
1066,17; 1424,931;  233,117; 2073,396;64,76266
1066,71; 1394,238;  224,963; 2058,704;63,76448
1067,25; 1362,008;  195,271; 1997,319;64,74503
1067,80; 1362,854;  219,502; 2006,088;63,99645
1068,34; 1374,008;  234,963; 2000,088;64,53051
1068,88; 1298,546;  216,271; 1924,627;63,35185
1069,42; 1325,315;  237,963; 1954,088;63,36088
1069,96; 1297,854;  202,810; 1902,550;64,42421
1070,50; 1322,392;  231,887; 1903,781;65,22576
1071,04; 1274,931;  194,040; 1841,165;65,62285
1071,58; 1239,469;  207,810; 1823,165;63,86578
1072,12; 1240,623;  205,502; 1820,858;64,08007
1072,66; 1229,392;  200,502; 1777,396;65,24790
1073,21; 1227,931;  221,656; 1775,012;64,78072
1073,75; 1232,546;  217,963; 1756,242;65,95571
1074,29; 1197,238;  210,502; 1733,242;64,80005
1074,83; 1182,008;  231,502; 1709,396;64,31487
1075,37; 1179,623;  216,810; 1680,627;65,77415
1075,91; 1158,777;  218,040; 1674,473;64,59183
1076,45; 1146,315;  209,656; 1644,088;65,29826
1076,99; 1146,931;  226,963; 1617,704;66,14946
1077,53; 1106,623;  195,963; 1574,012;66,08330
1078,07; 1115,700;  213,579; 1569,935;66,51066
1078,61; 1100,238;  215,656; 1558,550;65,87136
1079,15; 1065,085;  214,887; 1531,396;64,57971
1079,69; 1059,238;  220,117; 1503,088;65,40452
1080,23; 1068,162;  226,963; 1519,781;65,06705
1080,77; 1076,315;  247,040; 1522,165;65,03480
1081,31; 1003,931;  198,348; 1453,935;64,15987
1081,85; 1040,238;  219,887; 1463,012;65,99110
1082,39; 1012,085;  213,040; 1452,319;64,47655
1082,93; 1011,854;  214,271; 1421,935;66,04346
1083,47;  959,700;  195,963; 1395,781;63,65440
1084,01; 1003,085;  231,810; 1396,396;66,22737
1084,55;  947,623;  207,271; 1376,935;63,29615
1085,09;  953,162;  223,887; 1367,627;63,76228
1085,63;  943,700;  212,656; 1331,935;65,31386
1086,17;  920,700;  201,887; 1336,550;63,35037
1086,71;  904,777;  198,194; 1299,550;64,15572
1087,24;  925,008;  233,502; 1325,396;63,33084
1087,78;  919,777;  221,271; 1289,473;65,39080
1088,32;  897,315;  204,963; 1239,396;66,93059
1088,86;  903,854;  239,425; 1272,242;64,33169
1089,40;  893,931;  211,963; 1239,165;66,39077
1089,94;  857,008;  198,117; 1211,473;65,02064
1090,48;  869,085;  219,502; 1215,550;65,21600
1091,02;  863,315;  227,117; 1198,858;65,46996
1091,56;  846,085;  213,502; 1179,242;65,50235
1092,10;  810,623;  198,579; 1159,935;63,66470
1092,63;  844,854;  230,656; 1167,627;65,55144
1093,17;  838,623;  213,810; 1152,012;66,59691
1093,71;  810,931;  204,810; 1127,935;65,65971
1094,25;  824,315;  238,963; 1122,396;66,25880
1094,79;  784,623;  216,425; 1097,781;64,46864
1095,33;  791,700;  208,887; 1093,627;65,87395
1095,87;  779,546;  207,733; 1076,627;65,80933
1096,40;  753,085;  199,348; 1044,473;65,52126
1096,94;  767,546;  211,963; 1041,627;66,96483
1097,48;  755,469;  221,348; 1047,012;64,68993
1098,02;  737,777;  212,963; 1011,242;65,74313
1098,56;  717,546;  181,733;  987,242;66,51857
1099,10;  714,315;  193,963;  983,858;65,87615
1099,63;  700,392;  197,271;  965,012;65,53272
1100,17;  726,008;  216,656;  984,550;66,33100
1100,71;  734,931;  223,194;  984,935;67,17991

