
Integration time [ms]: 160,000
Averaging Nr. [scans]: 13
Smoothing Nr. [pixels]: 0
Data measured with spectrometer [name]: 2009305U1
Wave   ;Sample   ;Dark     ;Reference;Reflectance
[nm]   ;[counts] ;[counts] ;[counts] ;[%]

 175,72;  215,483;  199,741;  200,777;1519,31416
 176,32;  227,584;  225,729;  223,979; 0,00000
 176,92;  274,625;  254,352;  256,468;958,03662
 177,52;  269,451;  261,585;  265,454;203,30689
 178,12;  244,747;  246,191;  228,377; 0,00000
 178,72;  269,114;  256,803;  258,493;728,32909
 179,32;  271,492;  250,652;  234,314; 0,00000
 179,92;  267,906;  255,041;  253,110; 0,00000
 180,52;  250,567;  243,055;  255,886;58,54393
 181,12;  269,895;  258,888;  259,497; 0,00000
 181,73;  290,804;  266,427;  278,520;201,58508
 182,33;  392,528;  358,357;  354,615; 0,00000
 182,93;  285,469;  274,431;  274,023; 0,00000
 183,53;  248,092;  246,416;  233,568; 0,00000
 184,13;  231,608;  235,495;  227,035; 0,00000
 184,73;  303,020;  285,799;  287,378;1090,63719
 185,33;  281,321;  228,805;  366,277;38,20091
 185,93;  289,268;  235,412;  372,564;39,26699
 186,53;  300,975;  256,186;  398,310;31,51396
 187,13;  321,881;  279,426;  434,595;27,36034
 187,73;  288,236;  244,875;  373,249;33,77709
 188,33;  289,546;  250,255;  386,995;28,73446
 188,93;  296,707;  255,162;  385,621;31,84528
 189,53;  293,850;  257,227;  401,302;25,41930
 190,13;  322,077;  280,670;  423,850;28,91934
 190,73;  279,301;  224,529;  378,443;35,58644
 191,34;  301,828;  264,081;  410,691;25,74688
 191,94;  286,646;  245,019;  377,905;31,32571
 192,54;  304,312;  247,664;  427,510;31,49795
 193,14;  312,646;  261,733;  418,542;32,46852
 193,74;  307,838;  262,654;  401,356;32,57595
 194,34;  302,926;  254,966;  402,972;32,40423
 194,94;  264,972;  221,040;  376,033;28,34405
 195,54;  243,777;  216,190;  352,702;20,20812
 196,14;  263,253;  226,891;  382,071;23,43212
 196,74;  269,420;  220,111;  382,041;30,45085
 197,34;  248,038;  197,127;  382,736;27,42897
 197,94;  273,739;  232,119;  400,126;24,77284
 198,54;  289,392;  246,429;  416,944;25,19585
 199,14;  269,534;  216,900;  396,880;29,24438
 199,74;  250,670;  199,515;  409,619;24,34740
 200,34;  251,778;  201,978;  416,946;23,16597
 200,94;  284,303;  239,588;  444,800;21,78988
 201,54;  269,370;  217,744;  468,718;20,57026
 202,14;  307,806;  243,442;  505,674;24,54463
 202,74;  290,661;  222,361;  498,991;24,69002
 203,34;  265,954;  195,523;  523,337;21,48495
 203,94;  245,179;  170,751;  524,984;21,01117
 204,54;  316,683;  249,427;  608,671;18,72158
 205,14;  279,827;  199,361;  622,984;18,99463
 205,74;  339,373;  246,446;  720,243;19,61339
 206,34;  309,655;  203,288;  737,115;19,92532
 206,94;  327,488;  212,364;  803,280;19,48238
 207,54;  306,030;  194,057;  837,333;17,40675
 208,14;  324,354;  211,443;  913,379;16,08564
 208,74;  347,818;  209,207; 1013,510;17,23365
 209,34;  353,511;  206,516; 1117,044;16,14393
 209,94;  375,224;  216,285; 1207,131;16,04072
 210,54;  391,535;  204,290; 1327,188;16,67515
 211,14;  409,797;  209,977; 1436,345;16,29368
 211,73;  423,734;  215,667; 1572,019;15,34018
 212,33;  447,167;  226,049; 1695,753;15,04506
 212,93;  448,238;  207,822; 1770,108;15,38870
 213,53;  421,877;  182,746; 1835,326;14,47019
 214,13;  485,266;  200,988; 1950,535;16,24870
 214,73;  460,960;  191,288; 1957,212;15,27084
 215,33;  453,070;  172,208; 1999,362;15,37155
 215,93;  504,225;  210,907; 2119,819;15,36574
 216,53;  497,643;  164,822; 2217,580;16,21335
 217,13;  560,964;  227,136; 2448,261;15,02967
 217,73;  596,113;  191,369; 2666,066;16,35531
 218,33;  603,575;  171,989; 2838,762;16,18383
 218,93;  688,776;  196,459; 3204,207;16,36829
 219,53;  754,788;  195,220; 3533,962;16,75985
 220,13;  777,008;  160,837; 3850,961;16,69785
 220,73;  892,650;  188,208; 4281,994;17,20759
 221,32;  977,510;  200,899; 4687,125;17,31100
 221,92; 1071,739;  199,298; 5129,848;17,69459
 222,52; 1146,507;  167,215; 5602,925;18,01589
 223,12; 1259,685;  184,523; 6053,373;18,31980
 223,72; 1346,513;  196,293; 6476,650;18,31457
 224,32; 1472,490;  194,370; 6900,583;19,05874
 224,92; 1544,691;  167,678; 7203,560;19,57129
 225,52; 1605,855;  207,748; 7625,096;18,84915
 226,12; 1703,890;  188,598; 7945,856;19,53386
 226,72; 1754,437;  159,674; 8322,566;19,53674
 227,31; 1862,176;  155,674; 8696,466;19,98061
 227,91; 1983,159;  194,671; 9121,351;20,03532
 228,51; 2087,984;  181,896; 9490,110;20,47748
 229,11; 2213,428;  195,135; 9947,630;20,69514
 229,71; 2293,764;  175,668;10228,115;21,07045
 230,31; 2387,604;  165,218;10718,251;21,05921
 230,91; 2468,867;  160,278;11047,928;21,20374
 231,51; 2563,083;  168,061;11349,350;21,41991
 232,10; 2669,758;  167,758;11737,016;21,62628
 232,70; 2761,157;  186,735;11999,664;21,79325
 233,30; 2859,893;  202,829;12239,986;22,07385
 233,90; 2913,479;  173,906;12300,963;22,59058
 234,50; 2930,299;  179,061;12417,146;22,48095
 235,10; 2971,153;  172,909;12458,944;22,77581
 235,70; 3026,393;  198,209;12575,100;22,85052
 236,29; 3031,992;  196,976;12452,520;23,13252
 236,89; 2965,243;  164,048;12281,757;23,11654
 237,49; 3017,337;  194,982;12162,422;23,58361
 238,09; 2927,886;  180,826;11817,192;23,60753
 238,69; 2912,697;  218,045;11505,502;23,87297
 239,29; 2819,897;  182,980;11125,113;24,09875
 239,89; 2717,273;  192,125;10743,781;23,93129
 240,48; 2578,548;  177,596;10312,169;23,69071
 241,08; 2476,074;  167,440; 9918,872;23,67482
 241,68; 2396,942;  195,442; 9593,874;23,42412
 242,28; 2279,807;  163,444; 9193,819;23,43605
 242,88; 2211,710;  214,834; 8861,428;23,09437
 243,48; 2130,816;  210,674; 8590,298;22,91441
 244,07; 2023,822;  180,671; 8300,943;22,69815
 244,67; 1973,857;  194,981; 8093,088;22,52281
 245,27; 1915,426;  194,667; 7997,019;22,05436
 245,87; 1866,798;  199,679; 7911,656;21,61727
 246,47; 1831,379;  196,590; 7831,043;21,41331
 247,06; 1772,344;  177,210; 7850,293;20,78869
 247,66; 1775,016;  186,904; 7992,433;20,34599
 248,26; 1800,045;  218,514; 8116,764;20,02382
 248,86; 1804,651;  202,129; 8336,982;19,69946
 249,46; 1766,716;  152,830; 8599,688;19,10635
 250,05; 1861,045;  204,365; 9042,229;18,74526
 250,65; 1877,591;  167,820; 9488,093;18,34465
 251,25; 1966,509;  178,286;10021,829;18,16645
 251,85; 2036,844;  182,894;10653,323;17,70653
 252,44; 2132,250;  149,515;11376,948;17,65974
 253,04; 2285,188;  198,362;12268,532;17,28912
 253,64; 2332,434;  144,588;13140,502;16,83487
 254,24; 2561,140;  200,287;14187,567;16,87857
 254,84; 2715,639;  176,522;15338,996;16,74606
 255,43; 2870,921;  181,361;16441,168;16,54116
 256,03; 3085,304;  189,358;17674,950;16,56190
 256,63; 3269,444;  192,278;18907,965;16,44164
 257,23; 3442,270;  171,663;19978,647;16,51239
 257,82; 3625,909;  194,582;21230,937;16,31141
 258,42; 3784,692;  155,042;22375,919;16,33441
 259,02; 4048,806;  208,977;23416,897;16,54534
 259,62; 4183,324;  174,348;24318,953;16,60402
 260,21; 4285,111;  184,976;25013,690;16,51368
 260,81; 4493,079;  183,213;25624,225;16,94062
 261,41; 4553,027;  171,889;26292,804;16,77253
 262,01; 4735,024;  211,654;26975,282;16,90118
 262,60; 4797,808;  174,663;27463,031;16,94182
 263,20; 4967,275;  171,974;27904,384;17,29132
 263,80; 5052,873;  201,654;28229,185;17,30876
 264,40; 5084,705;  169,732;28449,208;17,38000
 264,99; 5194,157;  192,961;28660,660;17,56796
 265,59; 5250,573;  179,340;28893,972;17,66080
 266,19; 5373,163;  161,270;29175,386;17,96330
 266,78; 5476,252;  219,651;29399,987;18,01419
 267,38; 5479,633;  190,264;29352,707;18,13760
 267,98; 5551,909;  179,959;29466,465;18,34275
 268,58; 5592,372;  183,957;29493,222;18,45292
 269,17; 5666,094;  177,337;29577,473;18,66916
 269,77; 5707,171;  189,123;29266,106;18,97737
 270,37; 5674,621;  153,346;29253,102;18,97361
 270,96; 5711,202;  224,736;29001,887;19,06535
 271,56; 5697,491;  177,971;28718,942;19,33894
 272,16; 5677,248;  183,427;28531,176;19,38010
 272,75; 5769,382;  179,735;28438,781;19,78003
 273,35; 5771,241;  180,968;28492,693;19,74543
 273,95; 5771,057;  188,813;28468,674;19,73929
 274,54; 5843,971;  176,134;28382,363;20,09428
 275,14; 5991,345;  205,122;28954,428;20,12648
 275,74; 6017,678;  158,504;28965,480;20,33942
 276,33; 6198,357;  207,123;29476,725;20,46913
 276,93; 6319,108;  178,596;29891,483;20,66616
 277,53; 6493,897;  181,053;30469,874;20,84216
 278,12; 6662,830;  160,510;31080,730;21,02934
 278,72; 6959,166;  219,668;31838,915;21,31454
 279,32; 7103,204;  182,590;32489,494;21,42147
 279,91; 7353,298;  161,127;33366,067;21,65994
 280,51; 7590,309;  184,899;34012,841;21,89140
 281,11; 7827,884;  170,358;34876,889;22,06364
 281,70; 7991,185;  155,050;35308,164;22,29144
 282,30; 8273,953;  166,125;36176,249;22,51541
 282,90; 8521,447;  178,201;36604,099;22,90471
 283,49; 8727,069;  190,583;37302,355;23,00210
 284,09; 8999,268;  212,588;37743,355;23,41194
 284,69; 9192,947;  211,128;38090,989;23,71133
 285,28; 9485,516;  192,818;38595,308;24,19816
 285,88; 9764,742;  248,197;38774,102;24,70168
 286,47; 9875,080;  190,509;39004,667;24,95113
 287,07;10103,991;  210,590;38992,293;25,51049
 287,67;10228,200;  196,367;39142,990;25,75790
 288,26;10418,748;  173,974;39033,454;26,36364
 288,86;10715,928;  181,973;39203,121;26,99550
 289,46;10948,340;  208,974;39328,621;27,45261
 290,05;11194,988;  171,440;39402,244;28,09921
 290,65;11581,151;  184,662;39742,250;28,80987
 291,24;11857,045;  189,206;39857,457;29,41355
 291,84;12131,752;  190,586;39984,888;30,00723
 292,44;12478,591;  193,367;40181,331;30,72230
 293,03;12822,876;  262,898;40338,407;31,34078
 293,63;12984,187;  185,047;40528,691;31,72529
 294,22;13259,591;  206,204;40706,632;32,23024
 294,82;13453,347;  185,271;40767,174;32,69456
 295,41;13501,493;  173,511;40305,933;33,21001
 296,01;13608,967;  219,196;40292,531;33,41317
 296,61;13707,894;  206,129;39981,129;33,94535
 297,20;13554,006;  193,504;39570,490;33,92972
 297,80;13559,110;  201,518;39286,775;34,17553
 298,39;13456,921;  173,586;38834,323;34,35872
 298,99;13482,924;  216,967;38727,141;34,44793
 299,58;13381,644;  203,981;38503,349;34,40700
 300,18;13350,506;  206,979;38361,926;34,44777
 300,78;13177,028;  181,823;37955,038;34,40323
 301,37;13243,508;  200,037;37824,584;34,66745
 301,97;13204,926;  195,051;37965,521;34,44457
 302,56;13139,686;  176,124;37860,577;34,40029
 303,16;13119,381;  171,738;37803,792;34,40589
 303,75;13073,416;  179,439;37750,475;34,31893
 304,35;13142,149;  174,062;38078,968;34,21216
 304,94;13102,106;  180,359;38045,641;34,12558
 305,54;13022,202;  205,438;37956,894;33,95038
 306,13;12937,282;  162,139;37817,650;33,92636
 306,73;12810,778;  169,060;37699,181;33,68419
 307,33;12755,206;  199,905;37580,566;33,58769
 307,92;12744,137;  196,668;37708,122;33,44970
 308,52;12842,709;  176,584;38301,649;33,22257
 309,11;12979,298;  177,426;38836,983;33,11438
 309,71;13008,193;  162,654;39062,178;33,02235
 310,30;13090,926;  175,206;39374,979;32,94846
 310,90;13290,234;  219,821;39805,209;33,01828
 311,49;13205,609;  186,205;40051,196;32,65874
 312,09;13163,766;  156,979;40225,718;32,46118
 312,68;13365,108;  238,592;40678,326;32,45945
 313,28;13259,675;  156,745;40746,738;32,28118
 313,87;13255,269;  143,744;40970,885;32,11473
 314,47;13285,328;  181,120;41423,848;31,77338
 315,06;13205,595;  166,822;41394,219;31,62648
 315,66;13233,766;  167,364;41750,334;31,42249
 316,25;13102,236;  144,431;41409,652;31,40127
 316,85;13002,994;  146,979;41637,354;30,98554
 317,44;13013,215;  169,580;41819,484;30,83713
 318,04;12883,861;  157,048;41725,507;30,61652
 318,63;12774,716;  161,060;41782,846;30,30542
 319,22;12765,846;  174,354;42126,384;30,01402
 319,82;12643,889;  175,741;42131,854;29,71712
 320,41;12503,594;  189,816;41995,758;29,45461
 321,01;12480,852;  194,978;42176,428;29,26501
 321,60;12383,762;  184,742;42249,743;29,00040
 322,20;12265,779;  164,283;42279,165;28,73449
 322,79;12222,072;  206,129;42434,961;28,45436
 323,39;12123,220;  178,753;42486,859;28,23210
 323,98;11971,356;  157,592;42432,433;27,94514
 324,58;11882,493;  167,199;42297,084;27,80756
 325,17;11774,739;  170,662;42200,899;27,60888
 325,76;11602,027;  190,897;41944,354;27,32978
 326,36;11369,500;  150,363;41454,047;27,16256
 326,95;11214,049;  195,973;41194,502;26,87432
 327,55;11012,108;  157,741;40819,014;26,69461
 328,14;10742,764;  166,365;40385,196;26,29713
 328,74;10563,627;  196,354;39859,146;26,13853
 329,33;10438,872;  187,286;39413,361;26,13462
 329,92;10117,325;  163,811;38764,795;25,78565
 330,52; 9854,374;  188,673;37956,005;25,59276
 331,11; 9643,084;  175,665;37483,716;25,37634
 331,71; 9428,606;  179,589;36868,297;25,20944
 332,30; 9199,799;  196,436;36296,949;24,93971
 332,89; 8992,094;  235,285;35572,425;24,78075
 333,49; 8817,372;  192,588;34988,783;24,78657
 334,08; 8619,093;  185,510;34527,656;24,55753
 334,68; 8410,522;  175,126;34029,115;24,32622
 335,27; 8279,114;  193,366;33538,670;24,24854
 335,86; 8208,161;  232,972;33293,101;24,12328
 336,46; 8045,141;  193,213;32980,021;23,94844
 337,05; 7879,209;  175,126;32833,770;23,58972
 337,65; 7810,844;  162,433;32586,472;23,58870
 338,24; 7867,542;  204,976;32609,051;23,64692
 338,83; 7770,247;  200,976;32374,352;23,52650
 339,43; 7669,109;  165,277;32404,926;23,27517
 340,02; 7599,641;  179,430;32310,893;23,09329
 340,61; 7618,119;  178,976;32399,554;23,08818
 341,21; 7637,319;  206,277;32414,685;23,07175
 341,80; 7558,986;  180,356;32314,864;22,96170
 342,40; 7558,078;  173,058;32469,075;22,86666
 342,99; 7524,401;  169,747;32633,271;22,65513
 343,58; 7551,334;  175,363;32798,054;22,60994
 344,18; 7578,603;  192,209;32955,244;22,54490
 344,77; 7609,135;  168,969;33314,896;22,44670
 345,36; 7701,664;  161,434;33686,117;22,49158
 345,96; 7797,363;  196,516;34056,000;22,44821
 346,55; 7817,169;  179,446;34413,133;22,31055
 347,14; 7850,277;  157,519;34758,225;22,23295
 347,74; 7973,158;  152,451;35301,062;22,25040
 348,33; 8180,001;  178,912;36095,701;22,27674
 348,92; 8253,134;  176,839;36779,699;22,06466
 349,52; 8381,050;  153,145;37329,362;22,13217
 350,11; 8438,635;  168,660;37571,706;22,11043
 350,70; 8446,536;  172,514;37759,403;22,01305
 351,29; 8366,992;  147,112;37369,117;22,08339
 351,89; 8402,360;  194,426;37340,471;22,09639
 352,48; 8410,953;  155,283;37439,253;22,14268
 353,07; 8376,819;  184,136;37413,970;22,00569
 353,67; 8384,187;  194,147;37241,401;22,10701
 354,26; 8294,676;  178,212;36934,891;22,08160
 354,85; 8232,885;  175,056;36891,581;21,94605
 355,45; 8206,379;  153,894;36537,727;22,13204
 356,04; 8206,088;  183,752;36509,930;22,08417
 356,63; 8193,460;  202,358;36247,314;22,16982
 357,22; 8157,961;  188,807;36150,798;22,15994
 357,82; 8078,335;  181,040;35862,643;22,13268
 358,41; 8096,139;  195,897;35670,414;22,27019
 359,00; 8003,893;  157,816;35416,899;22,25264
 359,60; 8045,605;  179,822;35389,155;22,34005
 360,19; 8031,494;  200,060;35155,398;22,40411
 360,78; 7986,969;  180,356;34966,295;22,44186
 361,37; 7959,412;  184,972;34661,650;22,54985
 361,97; 7918,345;  182,050;34589,889;22,48411
 362,56; 7848,022;  172,660;34176,224;22,57223
 363,15; 7868,604;  223,895;33867,536;22,72260
 363,74; 7733,402;  187,504;33534,714;22,62827
 364,34; 7714,896;  200,585;33058,417;22,86916
 364,93; 7589,646;  170,352;32472,319;22,96855
 365,52; 7490,161;  149,511;31996,178;23,04998
 366,11; 7482,754;  182,200;31660,103;23,19263
 366,71; 7373,692;  175,508;31199,307;23,20214
 367,30; 7307,481;  171,665;30815,094;23,28661
 367,89; 7294,272;  214,748;30544,715;23,34168
 368,48; 7194,059;  193,582;30179,808;23,34564
 369,07; 7060,305;  187,052;29522,711;23,42969
 369,67; 7051,480;  206,198;29218,710;23,59424
 370,26; 6977,116;  177,360;28888,112;23,68366
 370,85; 6941,454;  185,126;28556,666;23,81375
 371,44; 6920,795;  184,896;28357,435;23,90945
 372,03; 6852,757;  154,200;28132,391;23,94207
 372,63; 6816,815;  157,973;27646,214;24,22433
 373,22; 6760,604;  171,206;27237,698;24,34522
 373,81; 6757,285;  153,280;26869,231;24,71933
 374,40; 6677,702;  173,288;26611,169;24,60263
 374,99; 6667,838;  165,664;26272,286;24,90623
 375,59; 6582,433;  165,980;25907,594;24,92638
 376,18; 6641,741;  201,664;25786,737;25,17123
 376,77; 6605,511;  198,205;25584,959;25,23878
 377,36; 6643,256;  204,203;25603,593;25,35121
 377,95; 6642,733;  194,739;25167,785;25,81982
 378,55; 6597,929;  172,440;24949,659;25,93305
 379,14; 6595,549;  193,434;24881,312;25,93222
 379,73; 6594,160;  174,355;24717,955;26,15674
 380,32; 6687,360;  194,589;24783,324;26,40547
 380,91; 6651,530;  174,967;24615,513;26,49926
 381,50; 6716,004;  190,814;24568,194;26,76740
 382,10; 6737,360;  168,589;24405,939;27,10185
 382,69; 6754,889;  152,972;24328,931;27,30778
 383,28; 6836,579;  203,276;24238,789;27,59792
 383,87; 6786,934;  172,661;24083,843;27,66184
 384,46; 6857,546;  175,425;24047,479;27,99139
 385,05; 6900,682;  202,199;24006,759;28,13949
 385,64; 6961,215;  195,123;24065,872;28,34470
 386,24; 6924,350;  159,501;23942,693;28,44382
 386,83; 7069,530;  203,193;24066,663;28,77342
 387,42; 7142,488;  199,431;24173,658;28,96050
 388,01; 7258,609;  184,111;24341,640;29,28486
 388,60; 7451,596;  193,118;24709,739;29,60636
 389,19; 7558,910;  175,259;24923,684;29,83483
 389,78; 7728,520;  175,260;25264,489;30,10559
 390,37; 8022,109;  238,806;25707,842;30,55986
 390,96; 8107,708;  177,501;25862,265;30,87514
 391,56; 8226,077;  179,103;26100,820;31,04337
 392,15; 8372,474;  169,184;26383,893;31,29270
 392,74; 8500,006;  156,633;26661,230;31,47897
 393,33; 8700,766;  173,486;27021,151;31,76172
 393,92; 8954,172;  184,859;27416,297;32,20290
 394,51; 9060,816;  161,486;27625,647;32,40343
 395,10; 9337,539;  204,385;27911,868;32,96277
 395,69; 9432,913;  193,156;28069,635;33,14535
 396,28; 9534,341;  203,303;28244,714;33,27592
 396,87; 9684,093;  201,830;28278,280;33,77301
 397,46; 9824,209;  202,977;28389,844;34,13374
 398,06; 9997,490;  223,583;28684,409;34,34161
 398,65;10065,214;  186,330;28773,929;34,55654
 399,24;10257,132;  208,403;28930,889;34,98558
 399,83;10284,653;  189,754;28943,818;35,10773
 400,42;10513,556;  234,878;29129,852;35,57255
 401,01;10626,613;  199,152;29283,114;35,85296
 401,60;10812,767;  212,721;29237,521;36,52065
 402,19;10830,165;  226,300;29180,389;36,62303
 402,78;10948,784;  237,243;29238,004;36,93538
 403,37;10941,809;  229,421;29088,693;37,11940
 403,96;11026,864;  220,819;28866,323;37,72335
 404,55;11074,171;  224,826;28737,408;38,05108
 405,14;11128,281;  214,686;28590,262;38,46123
 405,73;11146,139;  223,688;28460,261;38,68193
 406,32;11231,149;  226,561;28439,831;39,00501
 406,91;11231,047;  222,888;28051,176;39,55744
 407,50;11259,074;  233,397;27885,955;39,87218
 408,09;11187,139;  199,914;27519,244;40,21777
 408,68;11320,354;  216,822;27407,573;40,83569
 409,27;11213,435;  203,611;27184,332;40,80626
 409,86;11322,587;  214,194;26963,467;41,52783
 410,45;11427,587;  245,386;26892,896;41,96340
 411,04;11410,143;  254,194;26825,042;41,98567
 411,63;11306,772;  239,245;26454,305;42,21820
 412,22;11359,881;  236,983;26181,055;42,87260
 412,81;11321,374;  248,845;25852,388;43,24608
 413,40;11167,465;  256,482;25492,080;43,23648
 413,99;11187,058;  300,244;25065,382;43,96024
 414,58;11033,679;  230,633;24623,115;44,28843
 415,17;10992,202;  237,999;24339,435;44,62059
 415,76;10995,211;  227,443;24224,896;44,87046
 416,35;10973,028;  228,683;23937,803;45,31735
 416,94;11121,912;  254,678;24051,686;45,66639
 417,53;11354,768;  227,770;24292,628;46,23754
 418,12;11434,159;  232,082;24383,438;46,38281
 418,71;11781,057;  256,790;24860,397;46,83975
 419,30;11928,045;  246,699;24968,470;47,25125
 419,89;12105,026;  223,010;25135,525;47,69497
 420,48;12366,977;  255,252;25478,878;48,01738
 421,07;12570,530;  247,640;25620,321;48,56755
 421,66;12627,463;  216,496;25646,264;48,80488
 422,25;12698,407;  228,590;25592,673;49,16329
 422,84;12750,664;  261,517;25527,800;49,43009
 423,43;12663,969;  236,509;25232,040;49,71873
 424,02;12616,368;  259,282;24872,944;50,20418
 424,60;12512,123;  237,766;24363,300;50,87704
 425,19;12391,935;  245,831;23974,682;51,18707
 425,78;12393,965;  255,679;23951,779;51,22483
 426,37;12401,967;  258,456;23789,385;51,60660
 426,96;12408,180;  245,302;23649,740;51,96826
 427,55;12399,662;  243,545;23412,611;52,46702
 428,14;12339,343;  224,243;23232,847;52,65465
 428,73;12319,973;  231,617;22975,895;53,14900
 429,32;12395,691;  262,608;22932,162;53,52149
 429,91;12456,872;  266,310;22943,828;53,75616
 430,50;12373,880;  261,778;22755,783;53,84591
 431,08;12386,934;  267,477;22570,407;54,34020
 431,67;12397,086;  310,329;22488,042;54,49957
 432,26;12351,028;  331,180;22151,918;55,08452
 432,85;12162,482;  348,563;21789,120;55,10080
 433,44;12041,816;  362,110;21347,251;55,65703
 434,03;11829,419;  365,506;20946,123;55,70248
 434,62;11649,346;  318,957;20417,157;56,37515
 435,21;11549,069;  340,333;20272,631;56,23404
 435,79;11477,244;  322,579;20002,340;56,68090
 436,38;11487,205;  326,897;19925,091;56,94559
 436,97;11501,061;  325,437;19817,408;57,33450
 437,56;11369,285;  314,992;19562,777;57,43151
 438,15;11379,004;  290,680;19476,971;57,79295
 438,74;11443,597;  313,605;19481,053;58,06715
 439,33;11471,350;  287,757;19497,165;58,21935
 439,91;11613,435;  245,303;19573,117;58,81747
 440,50;11671,240;  306,303;19638,558;58,78744
 441,09;11811,223;  288,544;19760,150;59,17683
 441,68;11866,877;  282,322;19706,655;59,63940
 442,27;11840,209;  270,011;19745,945;59,40767
 442,86;11900,531;  245,955;19721,175;59,84310
 443,44;11985,126;  261,104;19793,776;60,02262
 444,03;12063,833;  328,878;19820,061;60,20648
 444,62;12049,433;  264,647;19679,318;60,70042
 445,21;11997,775;  269,568;19445,079;61,16242
 445,80;11951,638;  289,118;19372,359;61,11394
 446,39;11779,864;  337,962;19011,849;61,27221
 446,97;11676,015;  250,821;18840,960;61,45836
 447,56;11584,087;  257,215;18524,084;62,00774
 448,15;11478,018;  260,282;18337,402;62,05488
 448,74;11344,217;  280,514;18026,394;62,34519
 449,33;11321,618;  259,983;17866,055;62,82852
 449,91;11157,268;  251,455;17570,442;62,97027
 450,50;11071,621;  259,991;17297,350;63,45837
 451,09;10963,403;  285,839;17226,339;63,02981
 451,68;10912,173;  300,997;17102,804;63,15497
 452,26;10936,984;  283,772;17030,593;63,61334
 452,85;10831,854;  268,230;16936,648;63,37508
 453,44;10845,101;  290,014;16939,936;63,39421
 454,03;10891,264;  256,390;16846,173;64,10496
 454,61;10926,703;  250,169;16820,266;64,43253
 455,20;11028,774;  277,174;17078,617;63,99212
 455,79;11060,555;  289,165;16986,449;64,50983
 456,38;11176,096;  296,567;17164,678;64,49761
 456,97;11253,991;  266,026;17172,028;64,99446
 457,55;11317,767;  273,725;17172,291;65,35491
 458,14;11324,448;  286,409;17167,825;65,38574
 458,73;11277,907;  283,264;17100,544;65,37706
 459,31;11351,647;  312,042;17137,143;65,61390
 459,90;11448,129;  316,422;17295,920;65,55970
 460,49;11537,520;  364,958;17361,483;65,73439
 461,08;11645,848;  279,970;17441,739;66,22790
 461,66;11693,653;  281,504;17518,719;66,20645
 462,25;11843,286;  282,128;17645,449;66,58380
 462,84;11853,450;  315,740;17659,377;66,52416
 463,43;11846,675;  252,676;17615,201;66,77599
 464,01;11894,062;  279,989;17602,723;67,04527
 464,60;11928,459;  335,211;17568,320;67,27311
 465,19;11686,381;  270,376;17198,651;67,43750
 465,77;11677,961;  283,765;17229,824;67,23803
 466,36;11635,228;  312,984;17093,712;67,47171
 466,95;11341,028;  293,062;16713,962;67,27990
 467,53;11190,687;  288,694;16421,750;67,57550
 468,12;10970,407;  316,849;16087,943;67,55116
 468,71;10815,704;  296,300;15790,389;67,89301
 469,29;10555,159;  272,850;15529,832;67,39412
 469,88;10362,736;  273,316;15166,261;67,74630
 470,47;10484,147;  345,017;15330,777;67,65843
 471,06;10501,925;  297,402;15300,251;68,01723
 471,64;10544,296;  298,169;15390,728;67,88860
 472,23;10580,009;  275,262;15451,756;67,89939
 472,81;10700,885;  270,331;15582,845;68,11784
 473,40;10796,204;  278,186;15703,080;68,18859
 473,99;11036,619;  372,724;15886,104;68,73998
 474,57;11072,195;  285,724;16111,606;68,15716
 475,16;11196,277;  299,487;16293,259;68,13146
 475,75;11273,433;  322,884;16323,869;68,43672
 476,33;11435,189;  314,275;16490,199;68,74979
 476,92;11425,892;  308,033;16548,808;68,45645
 477,51;11529,122;  310,580;16611,204;68,82278
 478,09;11566,797;  306,503;16621,328;69,01879
 478,68;11533,115;  305,352;16593,948;68,93021
 479,27;11502,966;  338,884;16548,293;68,87408
 479,85;11529,198;  318,275;16619,600;68,77308
 480,44;11557,662;  302,355;16731,357;68,50877
 481,02;12635,015;  312,515;18562,738;67,51972
 481,61;14246,264;  343,127;20852,679;67,78859
 482,20;15279,320;  334,207;22219,373;68,28878
 482,78;15977,832;  356,507;23124,545;68,61076
 483,37;16426,938;  342,908;23711,206;68,82842
 483,95;16660,253;  374,295;24099,851;68,64311
 484,54;16809,125;  382,434;24269,195;68,76902
 485,13;16692,477;  355,841;24152,213;68,65179
 485,71;16499,466;  326,223;23848,593;68,75686
 486,30;16356,064;  377,915;23463,717;69,21202
 486,88;16091,530;  413,532;23027,458;69,32895
 487,47;15422,765;  387,919;22239,507;68,80436
 488,05;14767,628;  380,461;21146,391;69,28256
 488,64;13735,491;  369,775;19587,667;69,54829
 489,23;12271,035;  381,232;17362,008;70,01920
 489,81;10501,376;  380,003;14888,772;69,76038
 490,40; 9877,650;  335,928;14300,400;68,32855
 490,98; 9664,610;  316,777;13995,218;68,33990
 491,57; 9582,822;  340,156;13902,419;68,14988
 492,15; 9514,179;  325,624;13829,391;68,04439
 492,74; 9447,235;  326,308;13651,066;68,45098
 493,32; 9379,633;  345,392;13579,669;68,26396
 493,91; 9227,687;  317,089;13407,144;68,07151
 494,50; 9236,157;  330,793;13387,330;68,20617
 495,08; 9116,257;  317,947;13341,859;67,55505
 495,67; 9151,778;  339,780;13260,352;68,20130
 496,25; 9030,348;  278,326;13179,140;67,84085
 496,84; 8978,047;  276,626;13171,008;67,48227
 497,42; 8947,808;  279,866;13083,075;67,70133
 498,01; 8885,134;  311,474;12980,017;67,67676
 498,59; 8828,410;  275,714;12968,559;67,38202
 499,18; 8745,954;  272,474;12887,124;67,17174
 499,76; 8699,730;  299,941;12776,083;67,32681
 500,35; 8525,701;  282,412;12581,990;67,02091
 500,93; 8448,876;  284,943;12532,293;66,65877
 501,52; 8370,951;  276,329;12419,462;66,66008
 502,10; 8368,958;  288,801;12366,037;66,90403
 502,69; 8191,287;  272,729;12183,358;66,48312
 503,27; 8007,166;  249,025;11948,958;66,30928
 503,86; 7965,111;  267,496;11872,356;66,33096
 504,44; 7891,380;  255,346;11743,246;66,47023
 505,03; 7644,625;  234,269;11415,450;66,27526
 505,61; 7498,710;  269,037;11260,394;65,77598
 506,19; 7386,646;  272,423;11047,691;66,02363
 506,78; 7173,202;  240,509;10842,267;65,39193
 507,36; 7123,542;  255,653;10682,725;65,86594
 507,95; 6955,519;  248,820;10513,057;65,34045
 508,53; 6824,344;  257,739;10371,812;64,92543
 509,12; 6731,107;  262,434;10229,633;64,89960
 509,70; 6600,001;  275,129;10006,678;64,99348
 510,29; 6506,389;  275,287; 9834,123;65,18683
 510,87; 6305,468;  250,508; 9618,789;64,63257
 511,46; 6173,520;  243,049; 9467,506;64,29073
 512,04; 6095,704;  245,669; 9264,610;64,86388
 512,62; 5932,579;  260,895; 9084,707;64,27703
 513,21; 5833,937;  236,057; 8856,213;64,93942
 513,79; 5657,369;  240,763; 8741,200;63,72150
 514,38; 5570,017;  234,527; 8571,585;63,99727
 514,96; 5493,259;  272,680; 8452,275;63,82442
 515,54; 5372,311;  231,914; 8307,988;63,64970
 516,13; 5292,114;  260,069; 8148,603;63,78935
 516,71; 5146,576;  242,536; 8028,371;62,98669
 517,30; 5088,171;  239,541; 7918,211;63,14414
 517,88; 5020,192;  264,310; 7867,913;62,54774
 518,46; 4893,312;  238,928; 7656,306;62,74972
 519,05; 4839,167;  246,470; 7638,173;62,13313
 519,63; 4768,902;  262,083; 7514,332;62,14374
 520,22; 4705,251;  262,784; 7445,821;61,84664
 520,80; 4643,379;  247,939; 7367,466;61,73781
 521,38; 4605,895;  286,317; 7353,614;61,12065
 521,97; 4537,849;  257,097; 7281,333;60,94260
 522,55; 4496,497;  259,558; 7301,951;60,16333
 523,13; 4484,593;  243,100; 7235,508;60,65856
 523,72; 4467,024;  239,927; 7222,778;60,53541
 524,30; 4524,037;  277,796; 7389,177;59,71049
 524,89; 4476,130;  238,405; 7373,054;59,39640
 525,47; 4551,952;  272,720; 7507,848;59,14521
 526,05; 4546,923;  212,414; 7542,206;59,13551
 526,64; 4624,167;  250,031; 7702,114;58,69683
 527,22; 4673,032;  264,105; 7826,905;58,29754
 527,80; 4736,451;  299,262; 7936,589;58,09872
 528,39; 4726,501;  236,726; 8079,245;57,24913
 528,97; 4818,431;  255,879; 8216,036;57,31737
 529,55; 4941,623;  264,792; 8398,070;57,50241
 530,14; 5019,671;  275,498; 8635,518;56,74834
 530,72; 5037,183;  244,110; 8740,621;56,41225
 531,30; 5108,722;  226,268; 8917,086;56,17945
 531,89; 5151,000;  253,576; 8952,678;56,29804
 532,47; 5181,895;  292,270; 9083,493;55,61939
 533,05; 5240,392;  280,646; 9093,388;56,27925
 533,63; 5254,526;  275,963; 9189,539;55,85371
 534,22; 5209,493;  262,887; 9244,228;55,07648
 534,80; 5254,953;  287,277; 9288,247;55,19045
 535,38; 5372,432;  364,423; 9440,343;55,17908
 535,97; 5230,676;  270,809; 9341,255;54,68162
 536,55; 5272,634;  311,509; 9435,865;54,37233
 537,13; 5228,544;  333,960; 9437,408;53,76627
 537,71; 5225,724;  379,190; 9454,224;53,40513
 538,30; 5237,249;  408,196; 9552,939;52,80687
 538,88; 5313,666;  442,052; 9663,564;52,82880
 539,46; 5382,139;  505,815; 9877,097;52,03476
 540,05; 5429,878;  521,434;10009,619;51,73217
 540,63; 5529,520;  584,127;10211,816;51,36636
 541,21; 5624,718;  616,131;10360,128;51,40177
 541,79; 5658,765;  666,284;10492,643;50,80703
 542,38; 5701,904;  694,510;10649,590;50,29989
 542,96; 5728,777;  715,597;10826,563;49,58162
 543,54; 5832,067;  723,514;11076,303;49,34470
 544,12; 5865,535;  690,747;11230,716;49,09681
 544,70; 5902,417;  678,597;11332,472;49,03211
 545,29; 5955,978;  691,895;11467,071;48,85380
 545,87; 5981,227;  657,515;11489,259;49,14917
 546,45; 5944,078;  609,972;11481,138;49,06655
 547,03; 5957,930;  562,667;11594,568;48,90601
 547,62; 6018,002;  537,593;11769,522;48,79313
 548,20; 6066,665;  539,442;12006,276;48,20182
 548,78; 6064,043;  483,377;12138,565;47,88138
 549,36; 6099,474;  441,684;12306,161;47,68680
 549,94; 6163,489;  400,210;12432,658;47,89781
 550,53; 6256,777;  414,451;12694,266;47,57666
 551,11; 6274,473;  380,149;12908,400;47,04826
 551,69; 6393,047;  393,683;13245,145;46,68235
 552,27; 6481,689;  344,679;13473,800;46,74350
 552,85; 6579,875;  355,302;13872,891;46,04795
 553,44; 6721,281;  351,529;14212,740;45,95379
 554,02; 6846,901;  353,916;14576,943;45,65122
 554,60; 6912,355;  295,842;14918,302;45,24898
 555,18; 7084,675;  330,914;15274,523;45,19498
 555,76; 7239,608;  312,301;15730,070;44,93067
 556,34; 7342,249;  318,539;16110,744;44,47580
 556,93; 7451,515;  304,453;16524,255;44,06381
 557,51; 7600,261;  287,693;16869,583;44,09973
 558,09; 7716,317;  304,761;17256,566;43,72134
 558,67; 7841,411;  307,158;17648,534;43,44669
 559,25; 7921,102;  323,310;18007,696;42,96328
 559,83; 7983,464;  302,546;18345,401;42,57041
 560,41; 8126,869;  289,229;18728,400;42,50538
 561,00; 8213,364;  307,235;19116,480;42,03321
 561,58; 8307,029;  290,921;19327,438;42,10911
 562,16; 8367,364;  272,303;19675,550;41,72014
 562,74; 8495,638;  278,839;20110,555;41,43261
 563,32; 8648,789;  265,930;20529,970;41,36815
 563,90; 8783,272;  287,004;20949,892;41,11849
 564,48; 8893,489;  296,613;21437,903;40,66392
 565,06; 9130,467;  306,927;22127,297;40,43717
 565,65; 9375,080;  292,628;22876,478;40,21658
 566,23; 9683,409;  340,697;23727,092;39,94935
 566,81; 9851,581;  287,617;24510,726;39,48281
 567,39;10262,107;  300,932;25535,594;39,47418
 567,97;10444,567;  314,234;26144,826;39,21836
 568,55;10772,286;  336,622;27166,415;38,89580
 569,13;11028,574;  283,697;27917,393;38,88324
 569,71;11325,843;  294,687;29013,811;38,41049
 570,29;11702,749;  334,992;30096,389;38,19632
 570,87;12003,981;  325,225;30941,688;38,14535
 571,45;12122,447;  325,235;31609,363;37,70989
 572,03;12247,628;  293,548;32143,868;37,53206
 572,61;12510,135;  281,699;32967,164;37,41246
 573,20;12717,533;  314,924;33617,830;37,24182
 573,78;12895,496;  289,699;34373,559;36,98465
 574,36;13040,179;  325,698;34919,934;36,75318
 574,94;13077,073;  382,550;35314,064;36,34118
 575,52;13060,525;  316,019;35552,524;36,16847
 576,10;13246,535;  373,554;36194,068;35,93745
 576,68;13401,815;  361,548;36853,640;35,73450
 577,26;13516,728;  385,714;37576,642;35,30704
 577,84;13653,833;  381,083;38161,201;35,13157
 578,42;13718,338;  431,244;38459,829;34,93975
 579,00;13641,896;  385,238;38593,378;34,69590
 579,58;13645,839;  424,627;38834,084;34,42176
 580,16;13548,046;  396,553;38808,644;34,23790
 580,74;13489,561;  389,476;39054,038;33,88137
 581,32;13414,242;  382,781;39009,879;33,73658
 581,90;13310,664;  424,399;38879,547;33,50986
 582,48;13221,137;  422,091;39172,617;33,02935
 583,06;13173,712;  416,473;39180,820;32,90972
 583,64;13158,813;  412,703;39283,271;32,79116
 584,22;12930,582;  430,328;39106,817;32,32003
 584,80;12816,734;  420,167;38681,591;32,39965
 585,38;12487,039;  448,538;38295,908;31,80802
 585,96;12443,373;  404,085;38219,578;31,83692
 586,54;12326,723;  443,942;38282,212;31,40413
 587,12;12354,221;  402,862;38389,415;31,46208
 587,70;12239,503;  422,778;38481,587;31,04859
 588,28;12178,701;  406,401;38511,753;30,89409
 588,86;12117,403;  413,479;38590,685;30,65684
 589,44;11960,819;  386,333;38608,623;30,28203
 590,02;11979,939;  397,946;38838,781;30,12940
 590,59;11859,264;  371,172;38986,654;29,74996
 591,17;11900,159;  375,033;39198,637;29,68587
 591,75;11774,594;  368,105;39290,821;29,30548
 592,33;11763,424;  373,642;39535,318;29,08400
 592,91;11730,232;  331,262;39761,511;28,90920
 593,49;11802,566;  333,420;40143,947;28,80933
 594,07;11813,799;  355,497;40314,081;28,67545
 594,65;11658,514;  365,789;40319,988;28,26418
 595,23;11678,989;  366,100;40693,046;28,05293
 595,81;11617,133;  349,025;40809,044;27,84998
 596,39;11609,772;  342,564;40992,723;27,71750
 596,97;11550,279;  338,801;41258,565;27,39869
 597,55;11510,734;  340,714;41009,756;27,46566
 598,12;11319,401;  317,960;41111,099;26,96885
 598,70;11324,875;  302,033;41148,397;26,98610
 599,28;11249,073;  340,187;41411,393;26,56091
 599,86;11238,727;  309,955;41385,203;26,60671
 600,44;11139,006;  293,727;41535,941;26,29655
 601,02;11140,897;  339,198;41604,867;26,17599
 601,60;10997,129;  325,798;41550,610;25,88570
 602,18;10908,224;  299,806;41552,575;25,71565
 602,75;10866,002;  298,563;41554,189;25,61454
 603,33;10818,487;  306,264;41695,494;25,39845
 603,91;10732,143;  298,656;41529,371;25,30513
 604,49;10720,313;  323,495;41744,637;25,10027
 605,07;10625,150;  343,490;41730,390;24,84279
 605,65;10571,394;  344,189;41855,071;24,63741
 606,23;10555,554;  419,095;41953,782;24,40480
 606,80;10457,280;  477,178;41965,396;24,05527
 607,38;10349,175;  518,193;41963,994;23,72009
 607,96;10322,129;  578,332;42048,453;23,49595
 608,54;10283,442;  655,958;42069,663;23,24710
 609,12;10230,555;  639,640;42163,546;23,09733
 609,70;10177,685;  687,263;42148,033;22,89013
 610,27;10102,478;  696,254;42161,704;22,68448
 610,85;10056,998;  728,109;42298,070;22,44142
 611,43; 9993,937;  731,187;42209,423;22,33159
 612,01; 9807,238;  677,104;42004,002;22,09247
 612,59; 9738,593;  686,724;42054,983;21,88119
 613,16; 9626,843;  639,020;42004,917;21,72761
 613,74; 9561,070;  607,879;41892,490;21,68651
 614,32; 9458,252;  551,343;41874,679;21,55419
 614,90; 9373,562;  507,722;41710,583;21,51754
 615,48; 9227,672;  443,637;41340,037;21,47875
 616,05; 9118,055;  417,327;41362,814;21,24954
 616,63; 9059,900;  428,940;41107,745;21,21734
 617,21; 8942,925;  418,562;41058,193;20,97549
 617,79; 8855,985;  395,333;40977,077;20,84842
 618,36; 8776,505;  409,490;40879,443;20,67463
 618,94; 8618,462;  349,561;40506,197;20,59162
 619,52; 8524,365;  374,864;40246,952;20,43911
 620,10; 8375,783;  360,102;40224,335;20,10745
 620,67; 8369,175;  363,940;40124,050;20,13383
 621,25; 8273,191;  390,106;39896,483;19,95396
 621,83; 8159,631;  351,253;39866,016;19,76066
 622,41; 8170,021;  400,868;39882,361;19,67796
 622,98; 8012,287;  365,325;39627,033;19,47690
 623,56; 7974,792;  367,939;39583,188;19,39769
 624,14; 7871,178;  348,031;39486,502;19,22187
 624,72; 7791,264;  339,561;39336,969;19,10820
 625,29; 7732,067;  332,862;39395,800;18,94175
 625,87; 7726,400;  374,564;39315,101;18,87965
 626,45; 7568,886;  327,015;39105,145;18,67514
 627,02; 7521,054;  337,642;38977,060;18,59089
 627,60; 7448,701;  323,419;39002,921;18,42134
 628,18; 7404,863;  304,024;39022,700;18,33957
 628,76; 7332,495;  309,941;39026,274;18,13848
 629,33; 7297,810;  335,328;39137,683;17,94345
 629,91; 7254,399;  317,794;39047,566;17,91027
 630,49; 7220,904;  358,096;39197,640;17,66964
 631,06; 7182,332;  336,941;39275,641;17,57992
 631,64; 7146,709;  322,477;39242,001;17,53421
 632,22; 7115,411;  291,628;39338,237;17,47599
 632,79; 7099,532;  318,859;39573,157;17,27371
 633,37; 7060,712;  295,259;39474,226;17,26807
 633,95; 6982,936;  300,707;39608,333;16,99983
 634,52; 6966,267;  280,637;39778,026;16,92676
 635,10; 6974,132;  288,409;39761,510;16,93742
 635,68; 6960,349;  294,858;39941,518;16,81224
 636,25; 6905,378;  281,392;39949,384;16,69857
 636,83; 6844,341;  280,941;40174,351;16,45234
 637,41; 6889,520;  277,088;40236,322;16,54794
 637,98; 6839,419;  302,549;40428,874;16,29073
 638,56; 6828,768;  289,237;40563,656;16,23743
 639,13; 6784,231;  288,324;40587,813;16,11908
 639,71; 6834,791;  323,326;40792,815;16,08981
 640,29; 6680,109;  250,634;40492,388;15,97712
 640,86; 6709,118;  261,557;40670,603;15,95574
 641,44; 6648,281;  275,173;40661,895;15,78021
 642,02; 6645,214;  304,942;40628,879;15,72334
 642,59; 6606,608;  258,019;40850,632;15,63976
 643,17; 6593,386;  266,404;40893,616;15,57326
 643,74; 6564,934;  263,866;40884,446;15,51201
 644,32; 6532,251;  298,789;40771,276;15,40173
 644,89; 6485,953;  293,174;40824,414;15,27903
 645,47; 6486,962;  308,790;40873,860;15,23028
 646,05; 6422,971;  290,252;40709,459;15,17279
 646,62; 6346,365;  281,329;40667,597;15,01757
 647,20; 6390,605;  297,406;40834,043;15,03134
 647,77; 6294,384;  268,022;40700,488;14,90476
 648,35; 6284,778;  262,406;40662,934;14,90667
 648,92; 6231,249;  281,022;40673,072;14,73118
 649,50; 6174,027;  250,330;40562,748;14,69447
 650,08; 6133,421;  252,176;40433,501;14,63676
 650,65; 6134,815;  271,715;40672,485;14,51235
 651,23; 6176,978;  241,792;41625,239;14,34193
 651,80; 6303,911;  249,485;42686,530;14,26684
 652,38; 6399,997;  268,562;43115,284;14,31016
 652,95; 6399,622;  228,255;43540,806;14,24845
 653,53; 6386,477;  268,870;43811,713;14,04963
 654,10; 6457,409;  292,409;44030,774;14,09518
 654,68; 6389,342;  254,717;43932,066;14,04532
 655,25; 6375,197;  237,948;43918,511;14,05030
 655,83; 6372,130;  249,333;44067,880;13,97307
 656,40; 6375,754;  276,256;44095,710;13,91961
 656,98; 6314,687;  250,718;43958,925;13,87375
 657,55; 6264,158;  267,487;43774,294;13,78329
 658,13; 6162,936;  248,411;43248,124;13,75480
 658,70; 6071,869;  270,488;42924,415;13,60105
 659,28; 5947,493;  271,642;41800,015;13,66741
 659,85; 5783,887;  277,950;41111,307;13,48392
 660,43; 5792,512;  284,642;41146,444;13,47926
 661,00; 5739,906;  263,489;41329,352;13,33569
 661,58; 5739,454;  255,566;41576,259;13,27153
 662,15; 5764,848;  242,412;41733,166;13,31004
 662,73; 5873,318;  330,643;42125,765;13,26154
 663,30; 5827,097;  268,336;42366,595;13,20425
 663,88; 5800,875;  270,028;42426,887;13,11968
 664,45; 5841,577;  254,644;42750,025;13,14715
 665,03; 5873,586;  262,952;43118,394;13,09200
 665,60; 5976,057;  335,645;43618,839;13,03141
 666,17; 5884,990;  255,337;43668,285;12,96768
 666,75; 5902,845;  252,107;44082,730;12,89222
 667,32; 5978,008;  278,722;44412,945;12,91353
 667,90; 5943,402;  270,415;44652,775;12,78208
 668,47; 6010,719;  285,338;45028,605;12,79607
 669,05; 6019,421;  254,877;45230,974;12,81691
 669,62; 6005,046;  240,415;45445,266;12,75224
 670,19; 5979,670;  250,262;45426,788;12,68227
 670,77; 5995,987;  258,570;45669,388;12,63447
 671,34; 6045,920;  239,416;45574,449;12,80798
 671,92; 6019,852;  237,186;45965,125;12,64581
 672,49; 6058,477;  268,878;45987,032;12,66368
 673,06; 5973,486;  221,494;46023,093;12,55850
 673,64; 6014,880;  237,340;46026,385;12,61773
 674,21; 5968,428;  227,417;45941,215;12,55859
 674,79; 6041,129;  265,725;46187,584;12,57659
 675,36; 6038,600;  264,649;46322,644;12,53626
 675,93; 5988,917;  233,034;46178,859;12,52754
 676,51; 6036,003;  254,649;46308,997;12,55333
 677,08; 6030,628;  259,496;46503,827;12,47965
 677,65; 6076,637;  256,265;46552,888;12,57192
 678,23; 6096,801;  257,419;46751,334;12,55945
 678,80; 6079,579;  248,650;46858,087;12,51019
 679,38; 6087,665;  247,266;47109,840;12,46282
 679,95; 6111,675;  252,881;47317,747;12,44834
 680,52; 6121,607;  248,112;47656,885;12,38905
 681,10; 6246,078;  275,036;48104,254;12,48409
 681,67; 6237,395;  256,574;48320,699;12,44342
 682,24; 6245,558;  225,190;48404,530;12,49575
 682,82; 6288,183;  235,806;48952,668;12,42358
 683,39; 6358,192;  295,191;49430,421;12,33942
 683,96; 6345,201;  249,114;49508,405;12,37551
 684,54; 6398,749;  222,268;49864,004;12,44211
 685,11; 6494,835;  271,653;50262,527;12,44864
 685,68; 6458,306;  244,499;50754,895;12,30204
 686,25; 6524,008;  233,346;50844,418;12,42942
 686,83; 6508,402;  244,654;51055,017;12,32770
 687,40; 6547,719;  224,500;51346,694;12,36883
 687,97; 6681,882;  275,731;51750,139;12,44531
 688,55; 6595,353;  224,347;51804,892;12,35157
 689,12; 6599,054;  199,347;52041,107;12,34470
 689,69; 6636,295;  225,578;52085,783;12,36153
 690,26; 6673,612;  238,424;52170,768;12,39148
 690,84; 6702,313;  233,348;52441,982;12,39060
 691,41; 6753,476;  252,809;52486,197;12,44542
 691,98; 6784,409;  245,425;52829,643;12,43526
 692,56; 6770,957;  229,271;52997,857;12,39693
 693,13; 6844,812;  287,579;52920,534;12,45842
 693,70; 6866,360;  262,349;53043,979;12,51195
 694,27; 6888,215;  241,503;53282,963;12,53116
 694,84; 6835,148;  231,657;53357,640;12,42987
 695,42; 6957,542;  283,965;53472,855;12,54694
 695,99; 6981,089;  250,734;53747,223;12,58093
 696,56; 6979,560;  241,889;53559,361;12,63689
 697,13; 7067,031;  261,966;53951,114;12,67494
 697,71; 7088,733;  229,043;53976,483;12,76282
 698,28; 7101,742;  243,197;54357,159;12,67426
 698,85; 7105,520;  208,890;54387,066;12,72954
 699,42; 7104,684;  218,505;54574,973;12,66855
 699,99; 7173,385;  255,659;54751,188;12,69412
 700,57; 7196,395;  251,429;54712,941;12,75206
 701,14; 7189,404;  237,660;54894,310;12,71894
 701,71; 7286,182;  261,583;55089,140;12,81217
 702,28; 7308,730;  249,660;55203,124;12,84554
 702,85; 7330,663;  258,968;55134,724;12,88674
 703,43; 7374,980;  269,199;55389,092;12,89150
 704,00; 7391,604;  276,892;55671,230;12,84375
 704,57; 7411,460;  259,892;55673,368;12,90583
 705,14; 7473,854;  286,354;55892,198;12,92580
 705,71; 7525,401;  296,585;55932,028;12,99319
 706,28; 7499,949;  260,123;55763,397;13,04396
 706,86; 7575,343;  297,585;56023,227;13,05998
 707,43; 7638,353;  316,355;55914,288;13,16955
 708,00; 7633,593;  290,509;56106,503;13,15588
 708,57; 7596,602;  255,048;55978,949;13,17488
 709,14; 7670,534;  285,586;56030,394;13,24778
 709,71; 7638,467;  270,279;56060,917;13,20685
 710,28; 7734,091;  264,894;56358,516;13,31559
 710,86; 7711,178;  265,895;56390,423;13,26565
 711,43; 7834,187;  296,126;56437,638;13,42689
 712,00; 7816,965;  276,818;56659,237;13,37322
 712,57; 7851,206;  282,126;56759,375;13,40200
 713,14; 7858,830;  262,973;56867,513;13,41917
 713,71; 7912,763;  272,050;56818,343;13,51231
 714,28; 7913,080;  257,588;56919,404;13,51085
 714,85; 7889,166;  242,050;56565,004;13,57726
 715,42; 7946,791;  242,358;56728,757;13,63945
 716,00; 8091,338;  316,820;56924,125;13,73413
 716,57; 8025,655;  246,282;56951,802;13,71890
 717,14; 8029,972;  229,974;56936,170;13,75511
 717,71; 8044,751;  230,821;56957,693;13,77465
 718,28; 8157,606;  278,898;57090,138;13,86822
 718,85; 8102,846;  222,821;57116,123;13,85053
 719,42; 8219,317;  257,360;57282,953;13,96208
 719,99; 8143,019;  231,745;57033,706;13,92782
 720,56; 8258,567;  256,360;57311,613;14,02536
 721,13; 8272,268;  232,668;57520,982;14,03358
 721,70; 8317,432;  239,822;57310,581;14,15367
 722,27; 8347,749;  258,976;57399,027;14,15605
 722,84; 8396,912;  299,823;57566,780;14,13920
 723,41; 8439,536;  226,131;57493,072;14,34232
 723,98; 8435,930;  239,823;57758,517;14,24947
 724,55; 8532,247;  264,824;57882,194;14,34884
 725,12; 8544,103;  205,285;57881,947;14,45787
 725,69; 8585,881;  228,670;57941,777;14,48061
 726,27; 8651,583;  246,132;57932,069;14,57106
 726,84; 8740,669;  246,978;58437,283;14,59640
 727,41; 8779,525;  251,671;58343,037;14,68007
 727,98; 8854,534;  259,364;58616,559;14,72855
 728,55; 8871,928;  276,748;58480,851;14,76731
 729,12; 8913,014;  228,364;58644,450;14,86688
 729,69; 8955,331;  273,287;58787,204;14,83757
 730,26; 8962,110;  273,365;58986,572;14,79862
 730,82; 9014,734;  253,365;58801,325;14,96443
 731,39; 9061,744;  237,750;59025,694;15,00987
 731,96; 9123,061;  226,058;59327,140;15,05388
 732,53; 9233,839;  248,673;59445,739;15,17840
 733,10; 9296,695;  270,904;59478,262;15,24437
 733,67; 9343,550;  256,674;59837,399;15,25137
 734,24; 9319,252;  234,982;59425,922;15,34740
 734,81; 9400,261;  279,213;59498,291;15,40221
 735,38; 9358,424;  257,136;59310,813;15,41189
 735,95; 9367,664;  247,213;59091,028;15,49942
 736,52; 9438,904;  265,598;59294,627;15,54033
 737,09; 9418,452;  259,906;58937,919;15,60814
 737,66; 9540,538;  308,368;59125,672;15,69635
 738,23; 9610,932;  241,753;59219,425;15,88598
 738,80; 9721,480;  325,753;59585,717;15,85510
 739,37; 9723,566;  288,599;59725,470;15,87393
 739,94; 9757,499;  264,676;59793,685;15,94655
 740,51; 9886,739;  378,138;59844,131;15,98998
 741,07; 9806,210;  253,908;59775,346;16,04851
 741,64; 9944,681;  295,908;59983,022;16,16559
 742,21;10018,536;  261,600;60014,391;16,32884
 742,78; 9954,622;  235,678;59743,298;16,33227
 743,35;10016,708;  248,986;60057,512;16,33166
 743,92;10132,102;  295,524;60245,266;16,40804
 744,49;10155,958;  282,063;60010,250;16,53138
 745,06;10148,660;  247,909;60085,464;16,54605
 745,63;10202,284;  238,217;60007,141;16,67098
 746,19;10250,217;  251,833;59962,356;16,74476
 746,76;10267,380;  256,602;60007,032;16,75432
 747,33;10315,620;  250,141;60026,247;16,83863
 747,90;10438,860;  280,911;60227,462;16,94501
 748,47;10469,408;  259,449;60168,984;17,04229
 749,04;10468,955;  265,296;60147,583;17,03953
 749,61;10537,042;  294,911;60038,337;17,14353
 750,17;10606,128;  285,758;60183,090;17,23010
 750,74;10696,753;  270,912;60067,997;17,43537
 751,31;10635,531;  243,835;60065,443;17,37114
 751,88;10679,925;  241,143;59910,196;17,49447
 752,45;10783,550;  258,143;60081,718;17,59408
 753,02;10777,713;  278,836;59896,625;17,61031
 753,58;10868,415;  233,913;59817,763;17,84796
 754,15;10866,270;  247,990;59950,286;17,78538
 754,72;10877,279;  240,375;59794,270;17,86097
 755,29;10885,519;  234,221;59679,792;17,91773
 755,86;10982,144;  253,222;59764,930;18,02825
 756,42;11005,615;  255,145;59646,837;18,10097
 756,99;10961,624;  217,299;59707,821;18,06057
 757,56;11043,403;  228,145;59525,421;18,23905
 758,13;11050,797;  191,300;59519,174;18,30421
 758,70;11167,575;  218,992;59516,312;18,46388
 759,26;11180,585;  204,069;59594,065;18,48209
 759,83;11199,902;  218,685;59743,126;18,44825
 760,40;11194,680;  204,608;59452,187;18,54940
 760,97;11294,613;  192,224;59546,094;18,70542
 761,53;11229,391;  191,609;59311,001;18,67032
 762,10;11253,400;  187,378;59170,831;18,76123
 762,67;11359,871;  214,148;59106,969;18,92544
 763,24;11282,111;  182,225;58661,107;18,98102
 763,80;11365,505;  201,687;58829,168;19,04196
 764,37;11404,284;  211,225;58747,614;19,12154
 764,94;11337,062;  187,379;58355,444;19,16805
 765,50;11386,379;  197,303;58250,889;19,27370
 766,07;11510,312;  233,226;58263,720;19,43303
 766,64;11445,860;  209,996;57982,396;19,44850
 767,21;11431,254;  222,150;57950,688;19,41692
 767,77;11520,571;  223,535;57757,210;19,63552
 768,34;11534,349;  243,996;57835,963;19,60404
 768,91;11549,974;  241,689;57543,101;19,73474
 769,47;11580,906;  240,920;57486,085;19,80951
 770,04;11640,762;  254,151;57440,992;19,91124
 770,61;11614,002;  231,382;57224,361;19,97197
 771,18;11608,242;  222,151;57047,268;20,03707
 771,74;11787,713;  237,459;57235,406;20,26433
 772,31;11727,568;  244,767;56999,467;20,23233
 772,88;11717,039;  209,152;56754,451;20,35162
 773,44;11713,125;  218,614;56536,589;20,41002
 774,01;11797,288;  239,537;56613,342;20,50199
 774,58;11718,298;  222,153;56296,711;20,50153
 775,14;11837,692;  210,999;56412,464;20,68753
 775,71;11878,778;  218,461;56348,294;20,77383
 776,27;11872,556;  280,615;56213,278;20,72482
 776,84;12046,796;  314,154;56304,493;20,95476
 777,41;11980,344;  242,077;55950,785;21,07079
 777,97;11966,661;  227,770;55718,922;21,15453
 778,54;12005,901;  244,924;55748,830;21,18946
 779,11;12075,680;  259,386;55763,506;21,28904
 779,67;12075,535;  220,540;55671,721;21,37916
 780,24;12110,083;  237,540;55375,551;21,53241
 780,80;12175,939;  255,694;55373,919;21,62668
 781,37;12222,717;  250,002;55541,980;21,65362
 781,94;12167,650;  240,156;55196,888;21,70343
 782,50;12251,813;  249,695;55052,718;21,90047
 783,07;12297,668;  262,003;55063,856;21,96215
 783,63;12277,216;  225,849;54920,070;22,03408
 784,20;12381,841;  263,003;54836,977;22,20626
 784,77;12385,004;  235,850;54660,731;22,32279
 785,33;12325,244;  219,773;54378,176;22,35197
 785,90;12415,022;  240,542;54360,622;22,49531
 786,46;12321,878;  260,466;54292,837;22,32257
 787,03;12400,887;  221,004;54110,744;22,60149
 787,59;12400,435;  240,235;53997,420;22,62060
 788,16;12501,752;  251,697;54021,404;22,78245
 788,73;12524,146;  247,697;53785,311;22,93051
 789,29;12394,617;  240,544;53423,988;22,85311
 789,86;12584,395;  258,544;53351,202;23,21574
 790,42;12486,097;  242,237;53140,956;23,14585
 790,99;12475,491;  254,929;52815,940;23,25024
 791,55;12536,116;  229,160;52792,924;23,41338
 792,12;12561,740;  262,160;52820,523;23,40176
 792,68;12520,673;  239,699;52524,738;23,48850
 793,25;12574,990;  254,469;52215,799;23,71094
 793,81;12621,691;  316,546;51916,398;23,84725
 794,38;12519,239;  210,469;51653,459;23,92701
 794,94;12525,171;  212,315;51481,059;24,01630
 795,51;12478,027;  247,854;51209,504;23,99878
 796,07;12406,113;  236,316;51034,488;23,95716
 796,64;12506,815;  265,162;51104,780;24,07896
 797,20;12525,593;  251,240;50573,379;24,39156
 797,77;12334,833;  217,317;50237,363;24,22532
 798,33;12392,073;  241,240;50048,270;24,39582
 798,90;12485,852;  271,240;49972,254;24,57618
 799,46;12413,015;  233,856;49438,238;24,75218
 800,03;12394,255;  238,318;49475,684;24,68844
 800,59;12400,034;  255,087;49325,899;24,74984
 801,15;12426,735;  262,241;48916,344;25,00199
 801,72;12294,514;  259,857;48572,636;24,90988
 802,28;12277,369;  271,011;48293,851;25,00135
 802,85;12256,917;  240,088;48018,143;25,15136
 803,41;12279,003;  234,242;47993,665;25,21965
 803,98;12190,090;  236,319;47385,880;25,35288
 804,54;12169,791;  234,089;47260,172;25,38103
 805,11;12197,108;  235,243;47031,079;25,56182
 805,67;12149,502;  264,243;47025,755;25,41676
 806,23;12122,973;  254,551;46493,662;25,66750
 806,80;12149,982;  264,474;46325,261;25,80396
 807,36;12188,915;  269,090;46274,245;25,90976
 807,93;12145,001;  264,552;46054,999;25,94526
 808,49;12071,933;  227,244;45652,137;26,07533
 809,05;12061,250;  226,399;45456,659;26,16578
 809,62;12095,414;  258,476;45281,566;26,29082
 810,18;12115,115;  243,476;45264,243;26,36925
 810,74;12027,894;  214,245;44941,150;26,41285
 811,31;12048,826;  224,323;44772,518;26,54317
 811,87;12087,297;  241,938;44580,810;26,71552
 812,44;12121,999;  268,631;44608,871;26,73276
 813,00;12015,316;  180,939;44238,470;26,86119
 813,56;12150,633;  245,477;44277,993;27,03719
 814,13;12127,103;  238,632;44153,900;27,07139
 814,69;12136,882;  240,401;43940,730;27,22286
 815,25;12044,122;  207,401;43580,714;27,29033
 815,82;12138,670;  252,401;43491,775;27,48946
 816,38;12164,987;  288,094;43235,682;27,65439
 816,94;12001,996;  228,940;42973,512;27,54281
 817,51;11984,698;  208,556;42691,958;27,71939
 818,07;11976,707;  203,172;42410,711;27,89439
 818,63;11944,409;  242,787;42231,541;27,86847
 819,20;12057,880;  235,711;42167,756;28,19364
 819,76;11935,427;  224,557;41715,125;28,22538
 820,32;11982,898;  253,557;41683,032;28,31159
 820,89;11922,600;  248,634;41346,401;28,40535
 821,45;11914,455;  227,635;41066,692;28,61677
 822,01;11854,772;  243,481;40818,830;28,61661
 822,57;11903,166;  250,712;40752,814;28,77000
 823,14;11809,791;  204,020;40358,567;28,90276
 823,70;11832,493;  218,790;40197,013;29,05007
 824,26;11818,271;  217,559;40033,074;29,13616
 824,82;11836,434;  250,098;39788,058;29,30434
 825,39;11789,213;  225,098;39508,580;29,43760
 825,95;11799,837;  247,406;39592,411;29,36188
 826,51;11770,001;  247,098;39127,164;29,63704
 827,08;11834,087;  285,176;39188,840;29,68592
 827,64;11782,712;  255,637;39035,286;29,72455
 828,20;11744,875;  220,715;38672,270;29,97060
 828,76;11765,038;  251,099;38728,408;29,92397
 829,32;11750,586;  259,253;38534,853;30,02261
 829,89;11781,595;  212,023;38430,529;30,27217
 830,45;11817,066;  239,408;38338,590;30,38821
 831,01;11826,614;  234,639;38215,421;30,52063
 831,57;11804,854;  229,331;37967,635;30,67314
 832,14;11766,325;  224,178;37938,696;30,60399
 832,70;11797,257;  222,024;37751,296;30,84321
 833,26;11761,882;  194,794;37680,434;30,85738
 833,82;11763,045;  234,025;37455,802;30,97386
 834,38;11790,900;  216,563;37564,786;30,99033
 834,95;11827,833;  222,871;37492,463;31,13788
 835,51;11739,457;  189,025;37183,600;31,22196
 836,07;11868,082;  226,410;37249,431;31,44441
 836,63;11890,784;  250,411;37352,261;31,37410
 837,19;11866,870;  240,257;37063,322;31,57427
 837,75;11797,341;  207,565;36846,460;31,63244
 838,32;11934,581;  251,565;36923,751;31,85797
 838,88;11935,282;  245,027;36891,043;31,90048
 839,44;11913,753;  249,027;36809,258;31,90550
 840,00;11904,455;  230,720;36704,011;32,00626
 840,56;11845,310;  220,874;36469,611;32,06853
 841,12;11851,935;  219,489;36309,287;32,23195
 841,68;11878,944;  197,182;36230,194;32,41961
 842,25;11883,261;  218,875;36164,255;32,45031
 842,81;11844,194;  204,952;35981,393;32,53326
 843,37;11896,280;  214,183;35979,454;32,66324
 843,93;11893,443;  217,798;35781,669;32,83007
 844,49;11954,145;  234,029;35855,729;32,90162
 845,05;11893,923;  182,645;35711,329;32,96288
 845,61;11954,087;  231,799;35821,621;32,93719
 846,17;11884,942;  216,184;35575,143;33,00085
 846,73;11884,259;  225,492;35471,973;33,07782
 847,29;11907,576;  211,492;35325,880;33,30852
 847,86;11977,201;  209,185;35293,941;33,54168
 848,42;11948,364;  202,493;35106,310;33,65211
 848,98;11969,450;  229,724;35013,140;33,75093
 849,54;11963,844;  220,801;35013,663;33,75130
 850,10;11969,469;  229,955;34945,108;33,81668
 850,66;11933,632;  200,417;34694,015;34,01563
 851,22;11970,334;  202,648;34618,692;34,19244
 851,78;12055,958;  255,494;34686,676;34,27261
 852,34;11947,968;  224,725;34413,198;34,29004
 852,90;11980,054;  213,418;34318,567;34,50105
 853,46;11950,140;  198,956;34122,935;34,63976
 854,02;12013,765;  228,495;34106,766;34,78711
 854,58;11986,543;  221,111;33866,134;34,96931
 855,14;11939,091;  203,957;33739,580;34,99304
 855,70;11944,716;  183,188;33581,641;35,21579
 856,26;11957,340;  224,650;33626,086;35,12631
 856,82;11974,119;  209,112;33341,916;35,50864
 857,38;12012,513;  250,497;33316,516;35,57131
 857,94;11953,138;  221,881;33181,808;35,59248
 858,50;12030,916;  225,266;32960,484;36,06406
 859,06;11966,387;  207,805;32807,083;36,07007
 859,62;11960,858;  232,190;32650,837;36,17877
 860,18;11919,406;  221,344;32590,590;36,13943
 860,74;11905,184;  188,575;32362,112;36,41691
 861,30;11825,809;  193,960;32227,481;36,31149
 861,86;11968,972;  267,806;32294,542;36,53562
 862,42;11897,212;  226,268;31965,757;36,77105
 862,98;11935,914;  248,576;32078,125;36,71851
 863,54;11830,769;  220,653;31793,032;36,77302
 864,10;11883,317;  213,269;31937,093;36,78639
 864,66;11864,019;  202,192;31644,693;37,08937
 865,22;11856,874;  224,346;31435,984;37,26984
 865,78;11803,268;  219,192;31266,353;37,31122
 866,34;11778,970;  204,731;31362,106;37,14767
 866,90;11755,133;  220,808;31083,475;37,37306
 867,45;11691,373;  236,578;30929,151;37,32106
 868,01;11716,998;  223,655;30790,597;37,60056
 868,57;11653,084;  215,732;30619,966;37,61763
 869,13;11598,785;  200,732;30401,565;37,74086
 869,69;11619,487;  210,271;30320,241;37,89182
 870,25;11610,342;  186,348;30246,302;38,00403
 870,81;11678,352;  214,810;30184,209;38,25082
 871,37;11672,592;  223,349;30086,809;38,33864
 871,93;11649,909;  236,811;29867,716;38,51755
 872,49;11623,226;  254,580;29613,854;38,72250
 873,04;11548,081;  202,196;29450,145;38,79207
 873,60;11615,398;  195,350;29270,822;39,27726
 874,16;11565,792;  219,119;29224,883;39,11868
 874,72;11525,023;  217,888;29149,498;39,08229
 875,28;11577,100;  225,119;29078,806;39,34326
 875,84;11520,638;  226,581;29020,498;39,22376
 876,40;11580,485;  213,504;28867,960;39,66916
 876,95;11582,331;  227,042;28836,113;39,69122
 877,51;11648,638;  247,273;28855,267;39,85377
 878,07;11688,485;  253,812;28901,729;39,91450
 878,63;11662,869;  223,965;28900,037;39,89007
 879,19;11690,792;  228,812;28924,267;39,94354
 879,75;11749,869;  216,504;28921,729;40,17863
 880,30;11760,408;  207,735;28891,883;40,27546
 880,86;11877,254;  260,042;29039,883;40,36580
 881,42;11881,946;  206,812;29044,113;40,48622
 881,98;11951,331;  232,504;29123,190;40,56265
 882,54;12004,254;  203,119;29288,498;40,57411
 883,09;12099,485;  219,965;29421,113;40,68169
 883,65;12102,869;  202,658;29500,883;40,61752
 884,21;12288,100;  245,427;29732,037;40,84116
 884,77;12330,485;  215,658;29681,806;41,11439
 885,32;12402,023;  216,427;29980,883;40,94009
 885,88;12526,485;  248,119;30130,960;41,08835
 886,44;12576,485;  224,119;30121,344;41,31609
 887,00;12590,177;  246,504;30179,498;41,23768
 887,56;12789,638;  210,119;30411,498;41,65214
 888,11;12813,638;  216,273;30340,498;41,81806
 888,67;12938,100;  240,273;30523,960;41,92959
 889,23;12990,023;  224,273;30494,960;42,17199
 889,79;12953,715;  209,658;30424,113;42,17868
 890,34;12966,792;  232,658;30343,883;42,29032
 890,90;13111,331;  290,965;30495,883;42,44463
 891,46;13023,869;  201,427;30323,883;42,56772
 892,01;13057,562;  243,658;30357,652;42,55133
 892,57;13135,715;  258,273;30260,883;42,92107
 893,13;13077,715;  232,965;30047,883;43,08162
 893,69;13013,792;  207,427;29994,344;42,99326
 894,24;13040,792;  218,196;29892,037;43,21179
 894,80;12994,869;  226,658;29773,037;43,21413
 895,36;12956,485;  220,427;29661,729;43,25915
 895,91;12921,100;  220,965;29475,190;43,41299
 896,47;12934,792;  234,965;29274,113;43,73347
 897,03;12862,869;  227,119;29118,037;43,73606
 897,58;12892,715;  233,196;28943,960;44,09329
 898,14;12762,562;  233,196;28747,498;43,94064
 898,70;12710,792;  196,350;28606,421;44,04932
 899,25;12817,869;  218,427;28578,113;44,42730
 899,81;12734,100;  235,581;28370,960;44,42279
 900,37;12600,408;  186,042;28129,421;44,42686
 900,92;12629,792;  221,965;28086,883;44,52849
 901,48;12607,638;  225,581;27998,344;44,58346
 902,03;12479,485;  217,119;27810,344;44,43977
 902,59;12563,331;  215,196;27764,498;44,82195
 903,15;12515,638;  241,658;27546,113;44,95230
 903,70;12444,331;  215,042;27327,883;45,10515
 904,26;12391,715;  211,658;27219,267;45,09861
 904,82;12419,946;  220,273;27155,883;45,29199
 905,37;12434,023;  227,888;27043,498;45,51877
 905,93;12369,177;  209,504;26857,729;45,63033
 906,48;12428,792;  228,735;26871,113;45,79192
 907,04;12407,485;  232,196;26694,498;46,00994
 907,60;12400,100;  219,350;26502,421;46,34447
 908,15;12280,485;  197,888;26350,190;46,20089
 908,71;12312,100;  238,042;26385,037;46,17761
 909,26;12222,715;  224,427;26125,652;46,32325
 909,82;12251,946;  227,196;26128,729;46,42486
 910,37;12260,408;  266,119;25979,190;46,64666
 910,93;12152,254;  212,812;25777,421;46,70301
 911,48;12102,715;  201,888;25659,806;46,74706
 912,04;12101,408;  220,119;25480,806;47,03470
 912,60;12090,715;  228,812;25513,729;46,91296
 913,15;12010,254;  221,273;25329,498;46,95266
 913,71;11944,946;  204,812;25161,498;47,04204
 914,26;11839,715;  202,658;25003,344;46,92232
 914,82;11899,869;  225,735;24906,652;47,30025
 915,37;11946,177;  199,658;24883,575;47,58774
 915,93;11977,485;  256,735;24693,344;47,96390
 916,48;11889,792;  193,581;24655,344;47,81426
 917,04;11780,792;  227,735;24440,037;47,71565
 917,59;11799,408;  249,658;24525,113;47,57789
 918,15;11726,254;  190,042;24173,960;48,09978
 918,70;11689,177;  205,273;24166,113;47,92780
 919,26;11741,946;  219,427;24042,652;48,36675
 919,81;11679,562;  200,658;23895,575;48,44458
 920,37;11710,177;  204,888;23822,421;48,71503
 920,92;11661,869;  228,504;23654,498;48,80632
 921,48;11532,638;  200,504;23530,729;48,57276
 922,03;11586,869;  205,504;23463,575;48,93512
 922,59;11463,715;  216,119;23292,575;48,74057
 923,14;11463,869;  212,273;23113,729;49,13048
 923,69;11525,869;  223,350;23059,652;49,49365
 924,25;11510,100;  236,504;22986,344;49,55462
 924,80;11414,946;  215,735;22825,960;49,53162
 925,36;11317,100;  203,581;22760,883;49,26795
 925,91;11270,792;  196,119;22596,498;49,43967
 926,47;11249,946;  186,812;22550,806;49,46851
 927,02;11275,331;  273,273;22458,190;49,59251
 927,57;11172,177;  218,273;22275,421;49,66147
 928,13;11181,331;  202,581;22197,037;49,91599
 928,68;11151,023;  207,735;22179,729;49,80562
 929,24;11031,254;  187,812;21897,806;49,94678
 929,79;11008,715;  210,965;21808,960;49,99423
 930,34;10953,408;  212,196;21625,652;50,16104
 930,90;10921,331;  201,119;21634,190;50,01715
 931,45;10936,715;  223,658;21562,267;50,20504
 932,01;10874,869;  224,812;21431,883;50,21937
 932,56;10806,562;  233,658;21278,729;50,23934
 933,11;10867,638;  236,504;21355,190;50,33994
 933,67;10778,023;  211,427;21081,421;50,63057
 934,22;10708,562;  216,504;21017,267;50,44073
 934,77;10655,715;  234,888;20884,960;50,46388
 935,33;10642,023;  223,965;20760,652;50,72901
 935,88;10648,100;  219,273;20625,113;51,10707
 936,43;10629,792;  213,504;20572,190;51,16385
 936,99;10585,100;  212,735;20439,729;51,27982
 937,54;10496,946;  204,273;20285,652;51,25481
 938,09;10495,331;  219,812;20243,806;51,31603
 938,65;10456,869;  215,273;20138,498;51,40531
 939,20;10365,946;  190,196;20034,344;51,27834
 939,75;10365,100;  210,196;19952,883;51,43628
 940,31;10355,562;  188,888;19821,575;51,78442
 940,86;10389,100;  220,042;19795,960;51,94677
 941,41;10442,485;  293,273;19672,652;52,37119
 941,96;10302,331;  196,888;19552,652;52,20896
 942,52;10261,023;  208,042;19358,498;52,49473
 943,07;10194,254;  190,273;19329,883;52,26847
 943,62;10194,177;  194,735;19270,806;52,41877
 944,18;10221,485;  196,658;19146,806;52,90105
 944,73;10188,485;  217,965;19028,960;53,00368
 945,28;10078,638;  182,581;18910,113;52,84229
 945,83;10127,638;  200,350;18902,267;53,08166
 946,39;10100,638;  205,965;18762,037;53,32310
 946,94;10063,331;  240,581;18793,113;52,94560
 947,49;10001,869;  207,504;18619,652;53,19513
 948,04; 9978,946;  240,965;18558,113;53,16319
 948,59; 9979,946;  237,427;18520,421;53,28733
 949,15; 9993,715;  189,273;18325,652;54,05954
 949,70; 9912,100;  208,273;18289,575;53,66774
 950,25; 9884,946;  216,196;18151,729;53,90835
 950,80; 9893,946;  177,196;18029,498;54,42856
 951,36; 9836,562;  172,119;17948,037;54,36818
 951,91; 9858,869;  217,658;17940,113;54,40110
 952,46; 9698,869;  195,350;17714,267;54,24718
 953,01; 9741,331;  214,196;17756,190;54,31044
 953,56; 9656,792;  190,350;17610,652;54,34144
 954,11; 9681,100;  217,888;17566,421;54,54762
 954,67; 9665,638;  201,427;17494,652;54,72786
 955,22; 9550,254;  181,658;17318,421;54,66958
 955,77; 9605,254;  217,888;17317,037;54,89961
 956,32; 9601,254;  253,888;17234,267;55,04804
 956,87; 9543,946;  200,658;17057,806;55,42627
 957,42; 9503,869;  211,273;17000,344;55,34908
 957,98; 9476,792;  194,042;16885,729;55,61301
 958,53; 9536,946;  233,735;16905,344;55,80272
 959,08; 9490,254;  192,504;16733,421;56,21061
 959,63; 9388,869;  205,504;16589,498;56,05083
 960,18; 9418,331;  216,888;16566,960;56,27769
 960,73; 9399,715;  207,658;16534,960;56,29869
 961,28; 9389,715;  179,965;16409,806;56,74578
 961,83; 9344,408;  228,119;16367,575;56,48448
 962,39; 9292,562;  187,273;16232,190;56,74874
 962,94; 9333,177;  207,042;16179,344;57,13725
 963,49; 9283,715;  208,658;16006,729;57,44409
 964,04; 9265,177;  218,119;15901,267;57,68649
 964,59; 9186,331;  189,427;15873,652;57,36276
 965,14; 9213,562;  222,427;15785,190;57,77338
 965,69; 9152,715;  208,581;15683,421;57,79791
 966,24; 9121,177;  202,119;15562,267;58,06622
 966,79; 9112,331;  217,735;15553,652;57,99846
 967,34; 9037,946;  186,427;15374,960;58,27765
 967,89; 8997,254;  196,196;15330,575;58,15275
 968,44; 8972,562;  205,581;15273,421;58,18339
 968,99; 8919,715;  221,196;15182,729;58,13923
 969,55; 8882,485;  218,658;15098,344;58,22587
 970,10; 8796,331;  219,888;14978,037;58,11327
 970,65; 8783,946;  218,812;14927,960;58,22998
 971,20; 8727,792;  194,350;14764,267;58,56891
 971,75; 8632,869;  181,812;14686,652;58,26371
 972,30; 8658,485;  210,427;14581,267;58,78611
 972,85; 8558,715;  204,119;14492,267;58,47221
 973,40; 8572,869;  195,119;14341,190;59,22316
 973,95; 8501,177;  221,119;14313,344;58,75621
 974,50; 8503,331;  236,581;14226,729;59,08980
 975,05; 8372,562;  214,658;14143,037;58,57038
 975,60; 8375,485;  223,350;14038,344;59,00932
 976,15; 8270,638;  208,581;13907,960;58,84980
 976,70; 8232,869;  221,965;13842,113;58,81657
 977,25; 8250,946;  223,042;13793,652;59,15655
 977,80; 8133,254;  199,427;13662,421;58,93063
 978,35; 8097,792;  219,658;13468,267;59,46386
 978,89; 8066,638;  188,888;13409,806;59,58550
 979,44; 8101,869;  214,350;13393,960;59,84638
 979,99; 7966,100;  193,965;13277,498;59,40395
 980,54; 7947,638;  228,658;13134,344;59,81069
 981,09; 7887,485;  229,888;13020,960;59,86673
 981,64; 7771,715;  223,581;12872,960;59,67198
 982,19; 7829,177;  254,350;12828,113;60,24312
 982,74; 7749,946;  222,273;12694,883;60,35363
 983,29; 7664,869;  200,658;12585,729;60,26781
 983,84; 7642,715;  221,658;12477,806;60,54967
 984,39; 7672,408;  285,504;12405,113;60,95001
 984,94; 7542,946;  183,965;12212,421;61,17976
 985,49; 7511,100;  233,042;12224,037;60,69603
 986,03; 7505,023;  231,504;12074,037;61,41861
 986,58; 7426,331;  261,581;11949,037;61,30291
 987,13; 7337,100;  211,119;11819,037;61,38897
 987,68; 7307,715;  224,581;11701,575;61,71594
 988,23; 7286,408;  221,581;11654,575;61,79332
 988,78; 7168,485;  198,735;11528,421;61,51759
 989,33; 7086,562;  240,504;11380,652;61,45392
 989,88; 7097,715;  255,350;11359,806;61,61820
 990,42; 6972,946;  213,273;11216,883;61,43141
 990,97; 6878,946;  210,196;11052,883;61,50459
 991,52; 6877,408;  231,735;10994,421;61,74734
 992,07; 6835,715;  252,504;10966,113;61,44719
 992,62; 6789,177;  229,042;10832,960;61,86520
 993,17; 6732,408;  230,196;10679,113;62,22857
 993,71; 6713,946;  234,119;10622,037;62,37850
 994,26; 6619,562;  198,965;10405,267;62,90815
 994,81; 6532,946;  239,658;10404,344;61,91326
 995,36; 6467,177;  218,812;10233,190;62,39394
 995,91; 6463,100;  226,119;10173,652;62,69877
 996,45; 6391,254;  225,119;10071,421;62,62386
 997,00; 6273,946;  206,427; 9907,883;62,54236
 997,55; 6320,100;  238,658; 9872,190;63,12785
 998,10; 6280,485;  246,504; 9737,037;63,57895
 998,65; 6216,485;  216,273; 9673,960;63,44270
 999,19; 6174,331;  247,965; 9548,498;63,72071
 999,74; 6138,869;  241,581; 9464,113;63,94435
1000,29; 6104,715;  237,273; 9353,498;64,36263
1000,84; 6014,331;  212,888; 9203,190;64,53001
1001,38; 5917,177;  227,042; 9137,652;63,85797
1001,93; 5965,792;  246,888; 9059,806;64,89229
1002,48; 5840,792;  211,812; 8881,037;64,93061
1003,03; 5838,869;  232,196; 8874,498;64,87477
1003,57; 5726,177;  233,042; 8753,344;64,47113
1004,12; 5706,638;  262,504; 8678,729;64,68618
1004,67; 5634,869;  222,119; 8592,960;64,66197
1005,22; 5533,638;  216,658; 8405,729;64,92776
1005,76; 5447,485;  201,196; 8318,652;64,62971
1006,31; 5465,331;  230,581; 8234,575;65,40172
1006,86; 5379,331;  218,273; 8113,498;65,36936
1007,40; 5288,485;  195,196; 8020,806;65,08488
1007,95; 5266,638;  220,119; 7905,421;65,66455
1008,50; 5133,254;  231,196; 7753,960;65,16299
1009,04; 5116,638;  209,812; 7686,652;65,62701
1009,59; 5034,408;  229,042; 7556,190;65,58303
1010,14; 4958,177;  206,658; 7438,037;65,70696
1010,68; 4934,715;  220,504; 7320,806;66,39452
1011,23; 4846,408;  212,888; 7211,652;66,20483
1011,78; 4817,177;  229,888; 7119,344;66,58419
1012,32; 4748,715;  241,965; 7036,113;66,33282
1012,87; 4710,023;  257,581; 6974,806;66,28395
1013,42; 4633,408;  203,196; 6845,344;66,69848
1013,96; 4644,023;  257,350; 6877,806;66,25938
1014,51; 4578,485;  192,965; 6726,883;67,11929
1015,06; 4560,638;  187,812; 6776,190;66,37182
1015,60; 4655,177;  264,042; 6805,037;67,13253
1016,15; 4627,562;  209,965; 6771,037;67,33041
1016,69; 4654,638;  217,658; 6788,421;67,52611
1017,24; 4645,638;  199,196; 6784,960;67,51597
1017,79; 4702,408;  241,350; 6898,190;67,01464
1018,33; 4673,715;  207,888; 6841,113;67,32512
1018,88; 4764,177;  224,273; 6898,190;68,02457
1019,42; 4782,254;  217,427; 6885,652;68,45640
1019,97; 4725,638;  207,427; 6909,575;67,41438
1020,51; 4800,562;  242,196; 6946,421;67,99243
1021,06; 4741,408;  188,965; 6917,344;67,66031
1021,61; 4715,331;  190,042; 6892,883;67,51300
1022,15; 4697,408;  170,735; 6874,960;67,51971
1022,70; 4729,023;  209,965; 6875,960;67,79270
1023,24; 4667,254;  202,042; 6803,729;67,63744
1023,79; 4665,792;  213,427; 6726,960;68,35562
1024,33; 4586,638;  204,427; 6673,883;67,73694
1024,88; 4577,946;  225,812; 6619,883;68,06516
1025,42; 4493,023;  219,965; 6470,729;68,36057
1025,97; 4459,638;  206,504; 6409,498;68,56583
1026,51; 4336,792;  174,504; 6244,344;68,57328
1027,06; 4365,869;  202,658; 6224,960;69,12990
1027,60; 4292,562;  229,658; 6108,421;69,11154
1028,15; 4232,946;  224,427; 6049,652;68,81312
1028,69; 4119,869;  178,658; 5900,498;68,88014
1029,24; 4109,254;  190,888; 5858,652;69,13424
1029,78; 4029,023;  191,581; 5760,806;68,90442
1030,33; 3963,254;  183,812; 5600,190;69,77803
1030,87; 3944,100;  203,119; 5562,421;69,80351
1031,42; 3874,946;  186,888; 5474,960;69,74297
1031,96; 3855,946;  216,504; 5405,344;70,13980
1032,51; 3768,869;  193,350; 5354,652;69,27553
1033,05; 3761,023;  218,504; 5267,806;70,15859
1033,60; 3666,177;  181,581; 5145,267;70,20178
1034,14; 3631,946;  199,658; 5080,652;70,31945
1034,69; 3597,023;  204,735; 5045,652;70,07532
1035,23; 3572,408;  211,119; 4934,652;71,16048
1035,77; 3551,177;  199,042; 4887,037;71,50467
1036,32; 3462,869;  174,350; 4782,344;71,36552
1036,86; 3423,331;  210,427; 4749,344;70,78569
1037,41; 3364,177;  220,273; 4667,267;70,69728
1037,95; 3329,792;  179,196; 4579,729;71,59579
1038,50; 3304,100;  185,504; 4553,190;71,40156
1039,04; 3299,331;  220,427; 4509,575;71,78358
1039,58; 3188,023;  185,812; 4421,498;70,87898
1040,13; 3185,869;  202,581; 4362,806;71,70979
1040,67; 3182,946;  235,119; 4322,883;72,11344
1041,21; 3142,869;  231,273; 4245,883;72,52501
1041,76; 3076,715;  188,735; 4150,037;72,90484
1042,30; 3036,485;  200,581; 4087,960;72,95157
1042,85; 2978,408;  203,042; 4051,267;72,12066
1043,39; 2962,715;  185,812; 3954,113;73,69112
1043,93; 2944,715;  215,042; 3934,037;73,39815
1044,48; 2906,485;  210,273; 3906,806;72,93893
1045,02; 2824,254;  199,042; 3826,498;72,37060
1045,56; 2881,792;  226,042; 3777,113;74,78729
1046,11; 2795,408;  220,812; 3749,652;72,95870
1046,65; 2737,715;  204,273; 3688,883;72,70376
1047,19; 2692,715;  196,350; 3599,806;73,34796
1047,74; 2634,177;  186,042; 3537,113;73,05529
1048,28; 2640,023;  212,427; 3515,575;73,49341
1048,82; 2629,715;  226,735; 3507,883;73,23597
1049,37; 2571,177;  218,504; 3423,883;73,39766
1049,91; 2542,177;  211,042; 3355,652;74,13113
1050,45; 2532,792;  222,504; 3341,190;74,07889
1050,99; 2489,331;  212,042; 3292,267;73,93254
1051,54; 2438,869;  190,504; 3225,575;74,07950
1052,08; 2443,946;  237,119; 3201,421;74,44677
1052,62; 2395,331;  230,119; 3156,960;73,97778
1053,16; 2343,177;  211,812; 3111,883;73,49355
1053,71; 2336,715;  208,504; 3087,806;73,91415
1054,25; 2278,023;  216,581; 3010,421;73,78526
1054,79; 2258,946;  223,965; 2979,652;73,84660
1055,33; 2194,177;  188,196; 2892,344;74,18162
1055,88; 2198,562;  220,812; 2885,113;74,23145
1056,42; 2208,869;  230,965; 2875,190;74,80089
1056,96; 2168,331;  227,119; 2836,806;74,38485
1057,50; 2118,023;  220,427; 2793,344;73,75271
1058,05; 2088,023;  214,119; 2740,344;74,17803
1058,59; 2076,715;  243,888; 2702,960;74,53330
1059,13; 2002,485;  199,119; 2619,113;74,51941
1059,67; 2012,177;  222,658; 2601,113;75,23870
1060,21; 1981,869;  217,581; 2572,344;74,92423
1060,76; 1964,869;  228,119; 2535,729;75,26186
1061,30; 1948,254;  230,350; 2515,652;75,17185
1061,84; 1900,638;  208,196; 2445,883;75,63357
1062,38; 1845,715;  208,581; 2374,344;75,59157
1062,92; 1908,792;  255,427; 2419,729;76,39255
1063,46; 1822,408;  224,119; 2353,421;75,06162
1064,01; 1789,485;  216,504; 2333,113;74,31606
1064,55; 1806,331;  223,965; 2281,883;76,89159
1065,09; 1725,408;  194,735; 2227,806;75,28871
1065,63; 1785,715;  250,658; 2235,421;77,34210
1066,17; 1765,792;  250,812; 2233,267;76,41940
1066,71; 1733,023;  239,735; 2178,806;77,01050
1067,25; 1684,408;  214,042; 2134,652;76,55722
1067,80; 1692,562;  240,735; 2131,421;76,78835
1068,34; 1682,100;  241,350; 2115,190;76,88755
1068,88; 1641,869;  218,965; 2031,344;78,51029
1069,42; 1647,023;  250,273; 2060,960;77,13925
1069,96; 1604,254;  218,581; 2041,421;76,01725
1070,50; 1631,946;  251,735; 2038,267;77,25644
1071,04; 1551,100;  206,273; 1965,421;76,44762
1071,58; 1547,100;  217,042; 1958,267;76,38632
1072,12; 1549,638;  219,581; 1920,729;78,18589
1072,66; 1511,946;  220,119; 1898,883;76,95110
1073,21; 1531,946;  233,427; 1906,806;77,59864
1073,75; 1503,869;  238,196; 1855,190;78,27320
1074,29; 1468,715;  231,581; 1827,190;77,53367
1074,83; 1480,408;  239,581; 1820,190;78,50306
1075,37; 1457,485;  239,042; 1805,498;77,78338
1075,91; 1435,023;  234,888; 1783,344;77,50526
1076,45; 1402,946;  231,504; 1762,421;76,51898
1076,99; 1398,562;  240,350; 1738,344;77,31749
1077,53; 1337,946;  224,042; 1674,575;76,79274
1078,07; 1353,177;  239,812; 1680,575;77,27607
1078,61; 1332,408;  222,888; 1656,037;77,41832
1079,15; 1324,715;  229,427; 1636,421;77,84598
1079,69; 1309,408;  226,735; 1619,344;77,74419
1080,23; 1299,869;  248,273; 1642,960;75,40018
1080,77; 1345,638;  278,196; 1640,037;78,38234
1081,31; 1255,100;  215,888; 1551,498;77,80803
1081,85; 1269,408;  239,427; 1559,267;78,03828
1082,39; 1239,177;  230,812; 1535,498;77,28794
1082,93; 1236,869;  237,427; 1526,421;77,53660
1083,47; 1190,408;  208,504; 1501,883;75,91773
1084,01; 1213,715;  238,350; 1494,113;77,67111
1084,55; 1179,638;  225,119; 1450,652;77,88607
1085,09; 1193,331;  247,658; 1436,344;79,55614
1085,63; 1168,100;  223,427; 1433,652;78,05764
1086,17; 1126,792;  214,273; 1409,037;76,37656
1086,71; 1134,485;  226,042; 1363,960;79,83377
1087,24; 1157,792;  255,042; 1414,575;77,85464
1087,78; 1149,715;  246,735; 1389,037;79,04922
1088,32; 1084,715;  202,273; 1326,652;78,48265
1088,86; 1111,562;  243,504; 1357,421;77,92838
1089,40; 1085,408;  233,812; 1338,267;77,10550
1089,94; 1054,562;  203,888; 1270,421;79,76062
1090,48; 1072,946;  235,196; 1269,498;80,99666
1091,02; 1063,869;  243,735; 1276,113;79,44125
1091,56; 1047,331;  228,504; 1258,267;79,51602
1092,10; 1004,869;  214,965; 1212,421;79,19187
1092,63; 1041,715;  248,658; 1234,190;80,46995
1093,17; 1018,331;  239,812; 1216,113;79,74165
1093,71;  987,869;  217,965; 1210,729;77,55159
1094,25;  993,562;  261,888; 1200,190;77,97843
1094,79;  979,946;  224,812; 1174,575;79,50765
1095,33;  967,638;  227,735; 1160,267;79,34348
1095,87;  954,100;  226,965; 1149,960;78,77997
1096,40;  927,254;  210,350; 1115,575;79,19620
1096,94;  945,100;  228,119; 1111,652;81,14932
1097,48;  946,100;  244,196; 1122,267;79,93701
1098,02;  911,946;  223,196; 1093,421;79,14620
1098,56;  871,485;  196,427; 1057,421;78,40444
1099,10;  878,946;  205,196; 1047,806;79,95992
1099,63;  869,254;  206,196; 1042,113;79,32097
1100,17;  856,715;  234,581; 1050,344;76,26409
1100,71;  890,100;  254,042; 1052,190;79,69169

