
Integration time [ms]: 160,000
Averaging Nr. [scans]: 13
Smoothing Nr. [pixels]: 0
Data measured with spectrometer [name]: 2009305U1
Wave   ;Sample   ;Dark     ;Reference;Reflectance
[nm]   ;[counts] ;[counts] ;[counts] ;[%]

 175,72;  214,119;  199,741;  200,777;1387,70135
 176,32;  241,602;  225,729;  223,979; 0,00000
 176,92;  274,863;  254,352;  256,468;969,29551
 177,52;  263,195;  261,585;  265,454;41,62766
 178,12;  251,516;  246,191;  228,377; 0,00000
 178,72;  269,377;  256,803;  258,493;743,85559
 179,32;  274,883;  250,652;  234,314; 0,00000
 179,92;  271,196;  255,041;  253,110; 0,00000
 180,52;  266,361;  243,055;  255,886;181,63362
 181,12;  272,737;  258,888;  259,497; 0,00000
 181,73;  287,799;  266,427;  278,520;176,73173
 182,33;  398,904;  358,357;  354,615; 0,00000
 182,93;  287,164;  274,431;  274,023; 0,00000
 183,53;  246,136;  246,416;  233,568; 0,00000
 184,13;  239,603;  235,495;  227,035; 0,00000
 184,73;  304,776;  285,799;  287,378;1201,85492
 185,33;  300,623;  228,805;  366,277;52,24194
 185,93;  314,354;  235,412;  372,564;57,55784
 186,53;  343,101;  256,186;  398,310;61,15444
 187,13;  360,419;  279,426;  434,595;52,19689
 187,73;  316,524;  244,875;  373,249;55,81248
 188,33;  326,745;  250,255;  386,995;55,93843
 188,93;  331,013;  255,162;  385,621;58,14131
 189,53;  326,636;  257,227;  401,302;48,17550
 190,13;  349,725;  280,670;  423,850;48,22943
 190,73;  309,606;  224,529;  378,443;55,27582
 191,34;  345,220;  264,081;  410,691;55,34333
 191,94;  305,492;  245,019;  377,905;45,50749
 192,54;  350,859;  247,664;  427,510;57,38002
 193,14;  346,620;  261,733;  418,542;54,13409
 193,74;  345,795;  262,654;  401,356;59,94214
 194,34;  343,127;  254,966;  402,972;59,56632
 194,94;  305,358;  221,040;  376,033;54,40074
 195,54;  284,279;  216,190;  352,702;49,87740
 196,14;  302,119;  226,891;  382,071;48,47824
 196,74;  307,848;  220,111;  382,041;54,18202
 197,34;  282,571;  197,127;  382,736;46,03415
 197,94;  318,966;  232,119;  400,126;51,69270
 198,54;  335,092;  246,429;  416,944;51,99736
 199,14;  305,601;  216,900;  396,880;49,28376
 199,74;  296,863;  199,515;  409,619;46,33313
 200,34;  305,237;  201,978;  416,946;48,03431
 200,94;  337,958;  239,588;  444,800;47,93577
 201,54;  325,138;  217,744;  468,718;42,79077
 202,14;  365,526;  243,442;  505,674;46,55584
 202,74;  335,335;  222,361;  498,991;40,83923
 203,34;  331,583;  195,523;  523,337;41,50517
 203,94;  311,298;  170,751;  524,984;39,67661
 204,54;  388,965;  249,427;  608,671;38,84213
 205,14;  373,574;  199,361;  622,984;41,12447
 205,74;  432,904;  246,446;  720,243;39,35410
 206,34;  401,083;  203,288;  737,115;37,05227
 206,94;  421,525;  212,364;  803,280;35,39602
 207,54;  426,401;  194,057;  837,333;36,11885
 208,14;  450,055;  211,443;  913,379;33,99342
 208,74;  490,892;  209,207; 1013,510;35,02221
 209,34;  502,211;  206,516; 1117,044;32,47511
 209,94;  534,583;  216,285; 1207,131;32,12384
 210,54;  565,794;  204,290; 1327,188;32,19389
 211,14;  614,674;  209,977; 1436,345;32,99962
 211,73;  644,908;  215,667; 1572,019;31,64676
 212,33;  675,773;  226,049; 1695,753;30,59960
 212,93;  696,675;  207,822; 1770,108;31,29086
 213,53;  712,231;  182,746; 1835,326;32,03990
 214,13;  784,405;  200,988; 1950,535;33,34677
 214,73;  745,372;  191,288; 1957,212;31,37645
 215,33;  732,813;  172,208; 1999,362;30,68190
 215,93;  813,557;  210,907; 2119,819;31,57034
 216,53;  843,662;  164,822; 2217,580;33,06966
 217,13;  967,106;  227,136; 2448,261;33,31511
 217,73; 1050,389;  191,369; 2666,066;34,71213
 218,33; 1090,494;  171,989; 2838,762;34,44256
 218,93; 1292,418;  196,459; 3204,207;36,43787
 219,53; 1439,910;  195,220; 3533,962;37,28020
 220,13; 1582,232;  160,837; 3850,961;38,51889
 220,73; 1743,491;  188,208; 4281,994;37,99132
 221,32; 1975,430;  200,899; 4687,125;39,55509
 221,92; 2163,495;  199,298; 5129,848;39,83729
 222,52; 2385,533;  167,215; 5602,925;40,81008
 223,12; 2600,165;  184,523; 6053,373;41,16040
 223,72; 2812,812;  196,293; 6476,650;41,66195
 224,32; 3067,960;  194,370; 6900,583;42,84967
 224,92; 3212,906;  167,678; 7203,560;43,28140
 225,52; 3440,710;  207,748; 7625,096;43,58649
 226,12; 3601,279;  188,598; 7945,856;43,99339
 226,72; 3781,719;  159,674; 8322,566;44,37208
 227,31; 3973,588;  155,674; 8696,466;44,70211
 227,91; 4235,295;  194,671; 9121,351;45,26458
 228,51; 4427,499;  181,896; 9490,110;45,61136
 229,11; 4670,806;  195,135; 9947,630;45,89257
 229,71; 4843,436;  175,668;10228,115;46,43414
 230,31; 5067,536;  165,218;10718,251;46,45411
 230,91; 5245,816;  160,278;11047,928;46,70924
 231,51; 5436,719;  168,061;11349,350;47,12031
 232,10; 5615,855;  167,758;11737,016;47,09116
 232,70; 5736,820;  186,735;11999,664;46,98314
 233,30; 5915,309;  202,829;12239,986;47,45705
 233,90; 5966,639;  173,906;12300,963;47,76702
 234,50; 6040,692;  179,061;12417,146;47,89664
 235,10; 6080,752;  172,909;12458,944;48,08584
 235,70; 6134,852;  198,209;12575,100;47,96554
 236,29; 6059,879;  196,976;12452,520;47,83878
 236,89; 5932,915;  164,048;12281,757;47,60691
 237,49; 5919,790;  194,982;12162,422;47,83653
 238,09; 5713,545;  180,826;11817,192;47,54679
 238,69; 5502,920;  218,045;11505,502;46,82078
 239,29; 5286,849;  182,980;11125,113;46,64420
 239,89; 5017,661;  192,125;10743,781;45,73250
 240,48; 4724,644;  177,596;10312,169;44,86670
 241,08; 4513,393;  167,440; 9918,872;44,56733
 241,68; 4271,173;  195,442; 9593,874;43,36607
 242,28; 3991,165;  163,444; 9193,819;42,38717
 242,88; 3761,667;  214,834; 8861,428;41,02001
 243,48; 3500,990;  210,674; 8590,298;39,26567
 244,07; 3315,779;  180,671; 8300,943;38,60842
 244,67; 3149,195;  194,981; 8093,088;37,40407
 245,27; 2984,139;  194,667; 7997,019;35,75168
 245,87; 2866,818;  199,679; 7911,656;34,58437
 246,47; 2718,270;  196,590; 7831,043;33,03027
 247,06; 2612,899;  177,210; 7850,293;31,74329
 247,66; 2515,078;  186,904; 7992,433;29,82724
 248,26; 2506,938;  218,514; 8116,764;28,97382
 248,86; 2474,717;  202,129; 8336,982;27,93644
 249,46; 2430,765;  152,830; 8599,688;26,96784
 250,05; 2515,736;  204,365; 9042,229;26,15305
 250,65; 2498,828;  167,820; 9488,093;25,01009
 251,25; 2560,127;  178,286;10021,829;24,19699
 251,85; 2640,965;  182,894;10653,323;23,47631
 252,44; 2743,684;  149,515;11376,948;23,10563
 253,04; 2918,184;  198,362;12268,532;22,53342
 253,64; 3045,721;  144,588;13140,502;22,32343
 254,24; 3313,473;  200,287;14187,567;22,25727
 254,84; 3527,765;  176,522;15338,996;22,10221
 255,43; 3797,081;  181,361;16441,168;22,23716
 256,03; 4082,815;  189,358;17674,950;22,26666
 256,63; 4418,784;  192,278;18907,965;22,58269
 257,23; 4723,797;  171,663;19978,647;22,98247
 257,82; 5092,017;  194,582;21230,937;23,28081
 258,42; 5395,405;  155,042;22375,919;23,58306
 259,02; 5843,971;  208,977;23416,897;24,28048
 259,62; 6170,439;  174,348;24318,953;24,83408
 260,21; 6530,557;  184,976;25013,690;25,55743
 260,81; 6863,293;  183,213;25624,225;26,25713
 261,41; 7182,991;  171,889;26292,804;26,84095
 262,01; 7573,098;  211,654;26975,282;27,50540
 262,60; 7877,027;  174,663;27463,031;28,22581
 263,20; 8256,388;  171,974;27904,384;29,15150
 263,80; 8605,424;  201,654;28229,185;29,98398
 264,40; 8873,870;  169,732;28449,208;30,77899
 264,99; 9231,869;  192,961;28660,660;31,75145
 265,59; 9513,210;  179,340;28893,972;32,50562
 266,19; 9869,379;  161,270;29175,386;33,45995
 266,78;10174,987;  219,651;29399,987;34,11659
 267,38;10413,022;  190,264;29352,707;35,05453
 267,98;10629,511;  179,959;29466,465;35,68043
 268,58;10907,352;  183,957;29493,222;36,58705
 269,17;11116,148;  177,337;29577,473;37,20667
 269,77;11269,248;  189,123;29266,106;38,10617
 270,37;11436,656;  153,346;29253,102;38,77459
 270,96;11573,374;  224,736;29001,887;39,43628
 271,56;11690,960;  177,971;28718,942;40,33847
 272,16;11783,078;  183,427;28531,176;40,91912
 272,75;11919,706;  179,735;28438,781;41,54412
 273,35;12094,495;  180,968;28492,693;42,07984
 273,95;12251,045;  188,813;28468,674;42,65308
 274,54;12460,446;  176,134;28382,363;43,55177
 275,14;12822,762;  205,122;28954,428;43,88850
 275,74;12919,313;  158,504;28965,480;44,29763
 276,33;13375,013;  207,123;29476,725;44,98828
 276,93;13670,874;  178,596;29891,483;45,40884
 277,53;14158,372;  181,053;30469,874;46,14679
 278,12;14568,103;  160,510;31080,730;46,59602
 278,72;15216,558;  219,668;31838,915;47,42963
 279,32;15589,360;  182,590;32489,494;47,68878
 279,91;16206,009;  161,127;33366,067;48,32077
 280,51;16780,561;  184,899;34012,841;49,05904
 281,11;17437,032;  170,358;34876,889;49,75050
 281,70;17920,599;  155,050;35308,164;50,53763
 282,30;18520,960;  166,125;36176,249;50,97132
 282,90;19022,802;  178,201;36604,099;51,73407
 283,49;19586,988;  190,583;37302,355;52,26483
 284,09;20160,251;  212,588;37743,355;53,15016
 284,69;20626,247;  211,128;38090,989;53,89439
 285,28;21139,681;  192,818;38595,308;54,54559
 285,88;21690,689;  248,197;38774,102;55,65733
 286,47;22019,617;  190,509;39004,667;56,24007
 287,07;22418,482;  210,590;38992,293;57,26384
 287,67;22974,913;  196,367;39142,990;58,48657
 288,26;23286,320;  173,974;39033,454;59,47672
 288,86;23761,717;  181,973;39203,121;60,42812
 289,46;24443,380;  208,974;39328,621;61,94945
 290,05;24968,326;  171,440;39402,244;63,20769
 290,65;25545,338;  184,662;39742,250;64,11077
 291,24;26175,246;  189,206;39857,457;65,50841
 291,84;26803,091;  190,586;39984,888;66,87517
 292,44;27305,423;  193,367;40181,331;67,80054
 293,03;27961,988;  262,898;40338,407;69,11725
 293,63;28413,748;  185,047;40528,691;69,97063
 294,22;29015,136;  206,204;40706,632;71,13241
 294,82;29334,137;  185,271;40767,174;71,82725
 295,41;29387,522;  173,511;40305,933;72,79404
 296,01;29596,025;  219,196;40292,531;73,30767
 296,61;29553,880;  206,129;39981,129;73,78441
 297,20;29370,069;  193,504;39570,490;74,09548
 297,80;29484,265;  201,518;39286,775;74,92019
 298,39;29070,734;  173,586;38834,323;74,74547
 298,99;29166,736;  216,967;38727,141;75,17434
 299,58;28888,471;  203,981;38503,349;74,89547
 300,18;28750,878;  206,979;38361,926;74,81048
 300,78;28426,981;  181,823;37955,038;74,77563
 301,37;28313,169;  200,037;37824,584;74,72019
 301,97;28294,787;  195,051;37965,521;74,39605
 302,56;28221,627;  176,124;37860,577;74,42194
 303,16;28017,941;  171,738;37803,792;73,99597
 303,75;27933,935;  179,439;37750,475;73,87205
 304,35;27999,568;  174,062;38078,968;73,40872
 304,94;27853,438;  180,359;38045,641;73,08299
 305,54;27732,122;  205,438;37956,894;72,91556
 306,13;27443,735;  162,139;37817,650;72,45047
 306,73;27287,572;  169,060;37699,181;72,25799
 307,33;27008,488;  199,905;37580,566;71,71779
 307,92;26896,350;  196,668;37708,122;71,17741
 308,52;27028,313;  176,584;38301,649;70,43065
 309,11;27228,646;  177,426;38836,983;69,97292
 309,71;27431,741;  162,654;39062,178;70,10134
 310,30;27419,953;  175,206;39374,979;69,50231
 310,90;27457,414;  219,821;39805,209;68,80719
 311,49;27339,116;  186,205;40051,196;68,11217
 312,09;27204,163;  156,979;40225,718;67,50196
 312,68;27462,538;  238,592;40678,326;67,31980
 313,28;27281,658;  156,745;40746,738;66,82660
 313,87;27176,044;  143,744;40970,885;66,21159
 314,47;27058,404;  181,120;41423,848;65,16854
 315,06;26888,024;  166,822;41394,219;64,81419
 315,66;26920,163;  167,364;41750,334;64,33595
 316,25;26547,085;  144,431;41409,652;63,98283
 316,85;26282,221;  146,979;41637,354;62,99110
 317,44;26121,532;  169,580;41819,484;62,30975
 318,04;25774,472;  157,048;41725,507;61,62707
 318,63;25536,522;  161,060;41782,846;60,96678
 319,22;25352,202;  174,354;42126,384;60,01580
 319,82;25090,442;  175,741;42131,854;59,38277
 320,41;24672,138;  189,816;41995,758;58,56182
 321,01;24461,141;  194,978;42176,428;57,80211
 321,60;24204,862;  184,742;42249,743;57,10239
 322,20;23914,540;  164,283;42279,165;56,39398
 322,79;23662,513;  206,129;42434,961;55,54590
 323,39;23328,212;  178,753;42486,859;54,71637
 323,98;23126,738;  157,592;42432,433;54,33290
 324,58;22750,494;  167,199;42297,084;53,60398
 325,17;22325,763;  170,662;42200,899;52,71229
 325,76;22051,497;  190,897;41944,354;52,35638
 326,36;21478,137;  150,363;41454,047;51,63649
 326,95;20995,568;  195,973;41194,502;50,73254
 327,55;20524,203;  157,741;40819,014;50,08811
 328,14;20033,079;  166,365;40385,196;49,39655
 328,74;19559,519;  196,354;39859,146;48,81947
 329,33;19065,667;  187,286;39413,361;48,12712
 329,92;18483,143;  163,811;38764,795;47,45820
 330,52;17928,119;  188,673;37956,005;46,97034
 331,11;17470,351;  175,665;37483,716;46,35644
 331,71;16859,702;  179,589;36868,297;45,46389
 332,30;16406,361;  196,436;36296,949;44,90220
 332,89;15990,754;  235,285;35572,425;44,58614
 333,49;15421,595;  192,588;34988,783;43,76630
 334,08;14982,560;  185,510;34527,656;43,08714
 334,68;14509,103;  175,126;34029,115;42,34059
 335,27;14217,076;  193,366;33538,670;42,05603
 335,86;13931,197;  232,972;33293,101;41,43428
 336,46;13563,112;  193,213;32980,021;40,77829
 337,05;13272,835;  175,126;32833,770;40,10488
 337,65;12989,899;  162,433;32586,472;39,56159
 338,24;12892,272;  204,976;32609,051;39,15340
 338,83;12674,742;  200,976;32374,352;38,77046
 339,43;12417,198;  165,277;32404,926;38,00265
 340,02;12295,919;  179,430;32310,893;37,70911
 340,61;12177,151;  178,976;32399,554;37,23762
 341,21;12036,211;  206,277;32414,685;36,72933
 341,80;11810,891;  180,356;32314,864;36,19329
 342,40;11756,820;  173,058;32469,075;35,86746
 342,99;11620,907;  169,747;32633,271;35,27393
 343,58;11602,667;  175,363;32798,054;35,02870
 344,18;11524,711;  192,209;32955,244;34,58929
 344,77;11488,068;  168,969;33314,896;34,14929
 345,36;11497,798;  161,434;33686,117;33,81498
 345,96;11541,798;  196,516;34056,000;33,50695
 346,55;11502,479;  179,446;34413,133;33,07570
 347,14;11547,747;  157,519;34758,225;32,91906
 347,74;11587,125;  152,451;35301,062;32,53236
 348,33;11735,326;  178,912;36095,701;32,17552
 348,92;11852,586;  176,839;36779,699;31,89845
 349,52;11987,064;  153,145;37329,362;31,83196
 350,11;11987,716;  168,660;37571,706;31,59918
 350,70;11972,146;  172,514;37759,403;31,39295
 351,29;11795,240;  147,112;37369,117;31,29366
 351,89;11722,311;  194,426;37340,471;31,03395
 352,48;11722,604;  155,283;37439,253;31,02492
 353,07;11618,931;  184,136;37413,970;30,71406
 353,67;11611,042;  194,147;37241,401;30,81711
 354,26;11438,005;  178,212;36934,891;30,63333
 354,85;11344,687;  175,056;36891,581;30,42126
 355,45;11226,562;  153,894;36537,727;30,43293
 356,04;11175,745;  183,752;36509,930;30,25915
 356,63;11180,757;  202,358;36247,314;30,45752
 357,22;11033,729;  188,807;36150,798;30,15662
 357,82;11031,590;  181,040;35862,643;30,40937
 358,41;11013,818;  195,897;35670,414;30,49491
 359,00;10873,610;  157,816;35416,899;30,39158
 359,60;10927,629;  179,822;35389,155;30,52545
 360,19;10933,359;  200,060;35155,398;30,70575
 360,78;10879,153;  180,356;34966,295;30,75609
 361,37;10855,030;  184,972;34661,650;30,94863
 361,97;10846,571;  182,050;34589,889;30,99445
 362,56;10796,504;  172,660;34176,224;31,24332
 363,15;10810,140;  223,895;33867,536;31,46581
 363,74;10693,924;  187,504;33534,714;31,50614
 364,34;10629,782;  200,585;33058,417;31,74037
 364,93;10500,790;  170,352;32472,319;31,98083
 365,52;10456,505;  149,511;31996,178;32,36444
 366,11;10419,714;  182,200;31660,103;32,52286
 366,71;10400,664;  175,508;31199,307;32,95907
 367,30;10317,513;  171,665;30815,094;33,10938
 367,89;10342,167;  214,748;30544,715;33,39080
 368,48;10349,140;  193,582;30179,808;33,86741
 369,07;10231,993;  187,052;29522,711;34,24140
 369,67;10279,628;  206,198;29218,710;34,72098
 370,26;10201,978;  177,360;28888,112;34,91590
 370,85;10208,862;  185,126;28556,666;35,33025
 371,44;10238,331;  184,896;28357,435;35,68523
 372,03;10247,117;  154,200;28132,391;36,07423
 372,63;10232,011;  157,973;27646,214;36,64853
 373,22;10244,695;  171,206;27237,698;37,21756
 373,81;10246,066;  153,280;26869,231;37,77813
 374,40;10224,414;  173,288;26611,169;38,01789
 374,99;10227,081;  165,664;26272,286;38,53972
 375,59;10192,446;  165,980;25907,594;38,95042
 376,18;10359,864;  201,664;25786,737;39,70362
 376,77;10377,348;  198,205;25584,959;40,09628
 377,36;10503,473;  204,203;25603,593;40,54928
 377,95;10499,111;  194,739;25167,785;41,26198
 378,55;10535,987;  172,440;24949,659;41,82692
 379,14;10638,216;  193,434;24881,312;42,30733
 379,73;10749,558;  174,355;24717,955;43,08742
 380,32;10931,905;  194,589;24783,324;43,66762
 380,91;10983,207;  174,967;24615,513;44,22258
 381,50;11131,766;  190,814;24568,194;44,88157
 382,10;11159,751;  168,589;24405,939;45,34804
 382,69;11351,288;  152,972;24328,931;46,32005
 383,28;11487,869;  203,276;24238,789;46,94966
 383,87;11523,045;  172,661;24083,843;47,46894
 384,46;11687,910;  175,425;24047,479;48,22579
 385,05;11859,201;  202,199;24006,759;48,96962
 385,64;11963,944;  195,123;24065,872;49,30227
 386,24;12142,848;  159,501;23942,693;50,38578
 386,83;12332,179;  203,193;24066,663;50,82658
 387,42;12519,238;  199,431;24173,658;51,38771
 388,01;12852,093;  184,111;24341,640;52,43906
 388,60;13180,348;  193,118;24709,739;52,97316
 389,19;13510,543;  175,259;24923,684;53,88337
 389,78;13801,903;  175,260;25264,489;54,31272
 390,37;14310,911;  238,806;25707,842;55,25182
 390,96;14527,274;  177,501;25862,265;55,86881
 391,56;14885,163;  179,103;26100,820;56,73258
 392,15;15221,892;  169,184;26383,893;57,42084
 392,74;15519,078;  156,633;26661,230;57,96144
 393,33;15953,748;  173,486;27021,151;58,77704
 393,92;16383,828;  184,859;27416,297;59,48628
 394,51;16730,251;  161,486;27625,647;60,32868
 395,10;17102,941;  204,385;27911,868;60,98914
 395,69;17406,648;  193,156;28069,635;61,74916
 396,28;17605,986;  203,303;28244,714;62,06065
 396,87;17929,034;  201,830;28278,280;63,13905
 397,46;18224,957;  202,977;28389,844;63,93751
 398,06;18589,942;  223,583;28684,409;64,53207
 398,65;18793,425;  186,330;28773,929;65,08800
 399,24;19151,514;  208,403;28930,889;65,95220
 399,83;19281,588;  189,754;28943,818;66,39699
 400,42;19617,659;  234,878;29129,852;67,08011
 401,01;19912,395;  199,152;29283,114;67,78046
 401,60;20131,749;  212,721;29237,521;68,62762
 402,19;20272,091;  226,300;29180,389;69,23302
 402,78;20418,859;  237,243;29238,004;69,58995
 403,37;20450,571;  229,421;29088,693;70,06812
 403,96;20523,204;  220,819;28866,323;70,87460
 404,55;20720,023;  224,826;28737,408;71,88124
 405,14;20740,196;  214,686;28590,262;72,33513
 405,73;20854,457;  223,688;28460,261;73,06400
 406,32;20974,081;  226,561;28439,831;73,53816
 406,91;20909,263;  222,888;28051,176;74,33578
 407,50;20937,511;  233,397;27885,955;74,87233
 408,09;20849,693;  199,914;27519,244;75,58670
 408,68;20967,571;  216,822;27407,573;76,31547
 409,27;20939,405;  203,611;27184,332;76,85411
 409,86;20956,962;  214,194;26963,467;77,54516
 410,45;21081,255;  245,386;26892,896;78,19068
 411,04;21110,991;  254,194;26825,042;78,49503
 411,63;21070,229;  239,245;26454,305;79,46190
 412,22;20967,178;  236,983;26181,055;79,90340
 412,81;20790,186;  248,845;25852,388;80,22851
 413,40;20695,945;  256,482;25492,080;80,99457
 413,99;20514,214;  300,244;25065,382;81,62268
 414,58;20138,740;  230,633;24623,115;81,61575
 415,17;20140,986;  237,999;24339,435;82,58009
 415,76;20080,095;  227,443;24224,896;82,72817
 416,35;20115,174;  228,683;23937,803;83,87697
 416,94;20205,256;  254,678;24051,686;83,83650
 417,53;20532,803;  227,770;24292,628;84,37628
 418,12;20783,175;  232,082;24383,438;85,09292
 418,71;21276,708;  256,790;24860,397;85,43430
 419,30;21530,616;  246,699;24968,470;86,09382
 419,89;21828,279;  223,010;25135,525;86,72456
 420,48;22230,382;  255,252;25478,878;87,12122
 421,07;22407,348;  247,640;25620,321;87,33688
 421,66;22494,394;  216,496;25646,264;87,60559
 422,25;22668,570;  228,590;25592,673;88,47148
 422,84;22734,699;  261,517;25527,800;88,94534
 423,43;22600,944;  236,509;25232,040;89,47373
 424,02;22485,526;  259,282;24872,944;90,30044
 424,60;22002,319;  237,766;24363,300;90,21377
 425,19;21771,398;  245,831;23974,682;90,71475
 425,78;21862,003;  255,679;23951,779;91,18093
 426,37;21757,296;  258,456;23789,385;91,36418
 426,96;21712,250;  245,302;23649,740;91,72170
 427,55;21679,925;  243,545;23412,611;92,52156
 428,14;21456,956;  224,243;23232,847;92,28162
 428,73;21376,762;  231,617;22975,895;92,96908
 429,32;21448,280;  262,608;22932,162;93,45430
 429,91;21398,449;  266,310;22943,828;93,18541
 430,50;21364,998;  261,778;22755,783;93,81709
 431,08;21242,878;  267,477;22570,407;94,04774
 431,67;21177,976;  310,329;22488,042;94,09287
 432,26;21059,061;  331,180;22151,918;94,99166
 432,85;20736,309;  348,563;21789,120;95,08963
 433,44;20448,927;  362,110;21347,251;95,71924
 434,03;19941,825;  365,506;20946,123;95,12018
 434,62;19627,564;  318,957;20417,157;96,07133
 435,21;19439,728;  340,333;20272,631;95,82134
 435,79;19310,041;  322,579;20002,340;96,48218
 436,38;19235,442;  326,897;19925,091;96,48106
 436,97;19134,905;  325,437;19817,408;96,49855
 437,56;18992,495;  314,992;19562,777;97,03716
 438,15;18931,657;  290,680;19476,971;97,15779
 438,74;18987,509;  313,605;19481,053;97,42509
 439,33;19077,074;  287,757;19497,165;97,81310
 439,91;19210,097;  245,303;19573,117;98,12178
 440,50;19299,738;  306,303;19638,558;98,24739
 441,09;19443,364;  288,544;19760,150;98,37309
 441,68;19460,849;  282,322;19706,655;98,73455
 442,27;19516,453;  270,011;19745,945;98,82166
 442,86;19477,597;  245,955;19721,175;98,74929
 443,44;19582,966;  261,104;19793,776;98,92073
 444,03;19684,714;  328,878;19820,061;99,30560
 444,62;19604,687;  264,647;19679,318;99,61559
 445,21;19447,831;  269,568;19445,079;100,01435
 445,80;19312,784;  289,118;19372,359;99,68781
 446,39;19066,204;  337,962;19011,849;100,29107
 446,97;18875,180;  250,821;18840,960;100,18408
 447,56;18592,353;  257,215;18524,084;100,37373
 448,15;18503,814;  260,282;18337,402;100,92057
 448,74;18127,369;  280,514;18026,394;100,56900
 449,33;17978,216;  259,983;17866,055;100,63706
 449,91;17724,137;  251,455;17570,442;100,88744
 450,50;17474,598;  259,991;17297,350;101,04035
 451,09;17365,541;  285,839;17226,339;100,82172
 451,68;17252,339;  300,997;17102,804;100,88999
 452,26;17199,891;  283,772;17030,593;101,01093
 452,85;17087,045;  268,230;16936,648;100,90229
 453,44;17165,937;  290,014;16939,936;101,35737
 454,03;17062,794;  256,390;16846,173;101,30575
 454,61;17050,845;  250,169;16820,266;101,39153
 455,20;17301,759;  277,174;17078,617;101,32811
 455,79;17344,788;  289,165;16986,449;102,14609
 456,38;17445,369;  296,567;17164,678;101,66403
 456,97;17538,464;  266,026;17172,028;102,16749
 457,55;17502,936;  273,725;17172,291;101,95665
 458,14;17519,960;  286,409;17167,825;102,08593
 458,73;17477,767;  283,264;17100,544;102,24307
 459,31;17503,692;  312,042;17137,143;102,17858
 459,90;17642,728;  316,422;17295,920;102,04251
 460,49;17789,837;  364,958;17361,483;102,52024
 461,08;17786,666;  279,970;17441,739;102,00985
 461,66;17877,421;  281,504;17518,719;102,08097
 462,25;17956,522;  282,128;17645,449;101,79156
 462,84;18050,112;  315,740;17659,377;102,25290
 463,43;17982,762;  252,676;17615,201;102,11698
 464,01;18029,655;  279,989;17602,723;102,46458
 464,60;17953,619;  335,211;17568,320;102,23581
 465,19;17709,437;  270,376;17198,651;103,01736
 465,77;17633,451;  283,765;17229,824;102,38183
 466,36;17528,635;  312,984;17093,712;102,59180
 466,95;17205,163;  293,062;16713,962;102,99131
 467,53;16746,948;  288,694;16421,750;102,01572
 468,12;16455,918;  316,849;16087,943;102,33322
 468,71;16125,630;  296,300;15790,389;102,16367
 469,29;15801,654;  272,850;15529,832;101,78162
 469,88;15588,176;  273,316;15166,261;102,83299
 470,47;15610,563;  345,017;15330,777;101,86702
 471,06;15572,553;  297,402;15300,251;101,81500
 471,64;15643,445;  298,169;15390,728;101,67445
 472,23;15667,070;  275,262;15451,756;101,41873
 472,81;15873,311;  270,331;15582,845;101,89692
 473,40;16016,441;  278,186;15703,080;102,03152
 473,99;16239,649;  372,724;15886,104;102,27897
 474,57;16311,605;  285,724;16111,606;101,26375
 475,16;16560,525;  299,487;16293,259;101,67106
 475,75;16658,693;  322,884;16323,869;102,09252
 476,33;16765,178;  314,275;16490,199;101,69993
 476,92;16804,646;  308,033;16548,808;101,57528
 477,51;16901,460;  310,580;16611,204;101,78064
 478,09;16899,491;  306,503;16621,328;101,70497
 478,68;16858,120;  305,352;16593,948;101,62182
 479,27;16894,502;  338,884;16548,293;102,13585
 479,85;16797,464;  318,275;16619,600;101,09110
 480,44;16947,268;  302,355;16731,357;101,31421
 481,02;18402,082;  312,515;18562,738;99,11970
 481,61;20877,892;  343,127;20852,679;100,12293
 482,20;22352,525;  334,207;22219,373;100,60841
 482,78;23373,379;  356,507;23124,545;101,09291
 483,37;23963,907;  342,908;23711,206;101,08138
 483,95;24388,582;  374,295;24099,851;101,21696
 484,54;24649,753;  382,434;24269,195;101,59318
 485,13;24493,193;  355,841;24152,213;101,43291
 485,71;24185,026;  326,223;23848,593;101,43027
 486,30;23913,827;  377,915;23463,717;101,94973
 486,88;23420,868;  413,532;23027,458;101,73968
 487,47;22579,218;  387,919;22239,507;101,55463
 488,05;21528,587;  380,461;21146,391;101,84050
 488,64;19987,973;  369,775;19587,667;102,08299
 489,23;17761,213;  381,232;17362,008;102,35092
 489,81;15080,001;  380,003;14888,772;101,31802
 490,40;14259,922;  335,928;14300,400;99,71013
 490,98;13946,048;  316,777;13995,218;99,64053
 491,57;13796,809;  340,156;13902,419;99,22129
 492,15;13722,267;  325,624;13829,391;99,20671
 492,74;13576,917;  326,308;13651,066;99,44352
 493,32;13487,899;  345,392;13579,669;99,30657
 493,91;13322,922;  317,089;13407,144;99,35659
 494,50;13260,665;  330,793;13387,330;99,02987
 495,08;13152,055;  317,947;13341,859;98,54265
 495,67;13142,322;  339,780;13260,352;99,08649
 496,25;12991,504;  278,326;13179,140;98,54555
 496,84;12960,508;  276,626;13171,008;98,36751
 497,42;12862,586;  279,866;13083,075;98,27786
 498,01;12779,587;  311,474;12980,017;98,41789
 498,59;12651,878;  275,714;12968,559;97,50504
 499,18;12618,409;  272,474;12887,124;97,86982
 499,76;12550,101;  299,941;12776,083;98,18869
 500,35;12305,487;  282,412;12581,990;97,75193
 500,93;12245,442;  284,943;12532,293;97,65785
 501,52;12083,358;  276,329;12419,462;97,23214
 502,10;12041,935;  288,801;12366,037;97,31643
 502,69;11886,104;  272,729;12183,358;97,50430
 503,27;11662,578;  249,025;11948,958;97,55229
 503,86;11571,171;  267,496;11872,356;97,40466
 504,44;11372,616;  255,346;11743,246;96,77374
 505,03;11103,566;  234,269;11415,450;97,21064
 505,61;10908,687;  269,037;11260,394;96,80015
 506,19;10767,861;  272,423;11047,691;97,40303
 506,78;10545,270;  240,509;10842,267;97,19861
 507,36;10384,518;  255,653;10682,725;97,14007
 507,95;10130,200;  248,820;10513,057;96,26999
 508,53;10021,031;  257,739;10371,812;96,53175
 509,12; 9801,614;  262,434;10229,633;95,70573
 509,70; 9655,583;  275,129;10006,678;96,39220
 510,29; 9483,706;  275,287; 9834,123;96,33410
 510,87; 9214,438;  250,508; 9618,789;95,68383
 511,46; 9049,118;  243,049; 9467,506;95,46436
 512,04; 8838,046;  245,669; 9264,610;95,27035
 512,62; 8698,534;  260,895; 9084,707;95,62351
 513,21; 8422,927;  236,057; 8856,213;94,97357
 513,79; 8275,803;  240,763; 8741,200;94,52502
 514,38; 8104,002;  234,527; 8571,585;94,39151
 514,96; 7973,614;  272,680; 8452,275;94,14811
 515,54; 7790,459;  231,914; 8307,988;93,59183
 516,13; 7691,851;  260,069; 8148,603;94,20993
 516,71; 7486,045;  242,536; 8028,371;93,03444
 517,30; 7321,547;  239,541; 7918,211;92,22959
 517,88; 7221,919;  264,310; 7867,913;91,50410
 518,46; 7088,928;  238,928; 7656,306;92,35069
 519,05; 7028,473;  246,470; 7638,173;91,75156
 519,63; 6913,992;  262,083; 7514,332;91,72202
 520,22; 6859,945;  262,784; 7445,821;91,84362
 520,80; 6735,306;  247,939; 7367,466;91,12076
 521,38; 6706,345;  286,317; 7353,614;90,84134
 521,97; 6647,620;  257,097; 7281,333;90,97820
 522,55; 6607,154;  259,558; 7301,951;90,13408
 523,13; 6562,927;  243,100; 7235,508;90,38127
 523,72; 6510,607;  239,927; 7222,778;89,80114
 524,30; 6635,821;  277,796; 7389,177;89,40632
 524,89; 6625,288;  238,405; 7373,054;89,51923
 525,47; 6721,392;  272,720; 7507,848;89,13003
 526,05; 6727,965;  212,414; 7542,206;88,89136
 526,64; 6832,151;  250,031; 7702,114;88,32591
 527,22; 6952,872;  264,105; 7826,905;88,44300
 527,80; 7015,672;  299,262; 7936,589;87,94190
 528,39; 7099,653;  236,726; 8079,245;87,50921
 528,97; 7239,620;  255,879; 8216,036;87,73370
 529,55; 7369,442;  264,792; 8398,070;87,35286
 530,14; 7598,395;  275,498; 8635,518;87,59425
 530,72; 7621,805;  244,110; 8740,621;86,83205
 531,30; 7734,063;  226,268; 8917,086;86,38767
 531,89; 7840,702;  253,576; 8952,678;87,21734
 532,47; 7914,132;  292,270; 9083,493;86,69854
 533,05; 7913,564;  280,646; 9093,388;86,61229
 533,63; 7973,402;  275,963; 9189,539;86,35635
 534,22; 7985,791;  262,887; 9244,228;85,98832
 534,80; 7997,658;  287,277; 9288,247;85,66167
 535,38; 8069,121;  364,423; 9440,343;84,89164
 535,97; 7954,295;  270,809; 9341,255;84,70902
 536,55; 8021,738;  311,509; 9435,865;84,50162
 537,13; 7922,815;  333,960; 9437,408;83,36243
 537,71; 7933,147;  379,190; 9454,224;83,23889
 538,30; 7985,633;  408,196; 9552,939;82,86113
 538,88; 8006,684;  442,052; 9663,564;82,03245
 539,46; 8125,807;  505,815; 9877,097;81,31217
 540,05; 8171,846;  521,434;10009,619;80,63093
 540,63; 8301,651;  584,127;10211,816;80,15967
 541,21; 8462,826;  616,131;10360,128;80,52850
 541,79; 8475,079;  666,284;10492,643;79,46784
 542,38; 8583,717;  694,510;10649,590;79,24805
 542,96; 8706,962;  715,597;10826,563;79,03661
 543,54; 8869,415;  723,514;11076,303;78,68316
 544,12; 8914,399;  690,747;11230,716;78,02349
 544,70; 8949,518;  678,597;11332,472;77,63298
 545,29; 9069,929;  691,895;11467,071;77,75310
 545,87; 9064,618;  657,515;11489,259;77,61541
 546,45; 9038,396;  609,972;11481,138;77,53008
 547,03; 9085,219;  562,667;11594,568;77,25370
 547,62; 9180,282;  537,593;11769,522;76,94750
 548,20; 9298,321;  539,442;12006,276;76,38446
 548,78; 9350,498;  483,377;12138,565;76,07875
 549,36; 9469,663;  441,684;12306,161;76,09252
 549,94; 9582,618;  400,210;12432,658;76,31371
 550,53; 9696,622;  414,451;12694,266;75,58885
 551,11; 9778,757;  380,149;12908,400;75,01931
 551,69;10027,370;  393,683;13245,145;74,96180
 552,27;10180,685;  344,679;13473,800;74,91748
 552,85;10477,956;  355,302;13872,891;74,88505
 553,44;10691,850;  351,529;14212,740;74,59897
 554,02;10948,122;  353,916;14576,943;74,48630
 554,60;11071,629;  295,842;14918,302;73,69339
 555,18;11344,994;  330,914;15274,523;73,70428
 555,76;11591,688;  312,301;15730,070;73,15836
 556,34;11876,833;  318,539;16110,744;73,18987
 556,93;12123,803;  304,453;16524,255;72,86988
 557,51;12362,765;  287,693;16869,583;72,82084
 558,09;12573,799;  304,761;17256,566;72,37600
 558,67;12841,378;  307,158;17648,534;72,27927
 559,25;13003,816;  323,310;18007,696;71,70453
 559,83;13117,762;  302,546;18345,401;71,02654
 560,41;13355,089;  289,229;18728,400;70,85926
 561,00;13529,663;  307,235;19116,480;70,29749
 561,58;13595,280;  290,921;19327,438;69,88862
 562,16;13752,376;  272,303;19675,550;69,47329
 562,74;13993,511;  278,839;20110,555;69,15525
 563,32;14234,423;  265,930;20529,970;68,93242
 563,90;14431,020;  287,004;20949,892;68,45131
 564,48;14582,345;  296,613;21437,903;67,57266
 565,06;14965,149;  306,927;22127,297;67,17678
 565,65;15321,647;  292,628;22876,478;66,54764
 566,23;15767,360;  340,697;23727,092;65,96426
 566,81;16186,016;  287,617;24510,726;65,63319
 567,39;16690,040;  300,932;25535,594;64,94681
 567,97;17097,693;  314,234;26144,826;64,97512
 568,55;17565,129;  336,622;27166,415;64,21409
 569,13;17922,445;  283,697;27917,393;63,83058
 569,71;18487,960;  294,687;29013,811;63,34898
 570,29;19068,591;  334,992;30096,389;62,94597
 570,87;19525,152;  325,225;30941,688;62,71112
 571,45;19699,546;  325,235;31609,363;61,93016
 572,03;19927,390;  293,548;32143,868;61,64410
 572,61;20236,686;  281,699;32967,164;61,05156
 573,20;20528,135;  314,924;33617,830;60,69504
 573,78;20886,834;  289,699;34373,559;60,43076
 574,36;21077,294;  325,698;34919,934;59,98570
 574,94;21180,818;  382,550;35314,064;59,54013
 575,52;21208,872;  316,019;35552,524;59,29321
 576,10;21407,692;  373,554;36194,068;58,72093
 576,68;21607,386;  361,548;36853,640;58,22039
 577,26;21884,161;  385,714;37576,642;57,80562
 577,84;22142,646;  381,083;38161,201;57,60057
 578,42;22151,760;  431,244;38459,829;57,11629
 579,00;22097,938;  385,238;38593,378;56,82742
 579,58;22101,415;  424,627;38834,084;56,43607
 580,16;21944,722;  396,553;38808,644;56,09736
 580,74;21977,870;  389,476;39054,038;55,83509
 581,32;21768,549;  382,781;39009,879;55,36468
 581,90;21627,279;  424,399;38879,547;55,13665
 582,48;21553,441;  422,091;39172,617;54,53178
 583,06;21561,297;  416,473;39180,820;54,54709
 583,64;21461,456;  412,703;39283,271;54,15088
 584,22;21169,820;  430,328;39106,817;53,62300
 584,80;20836,846;  420,167;38681,591;53,36100
 585,38;20498,436;  448,538;38295,908;52,97567
 585,96;20344,977;  404,085;38219,578;52,73207
 586,54;20159,723;  443,942;38282,212;52,10540
 587,12;20139,809;  402,862;38389,415;51,95772
 587,70;20061,971;  422,778;38481,587;51,60223
 588,28;19959,008;  406,401;38511,753;51,31197
 588,86;19840,549;  413,479;38590,685;50,88657
 589,44;19618,358;  386,333;38608,623;50,31626
 590,02;19671,570;  397,946;38838,781;50,13841
 590,59;19610,587;  371,172;38986,654;49,82306
 591,17;19571,244;  375,033;39198,637;49,44469
 591,75;19378,180;  368,105;39290,821;48,84057
 592,33;19407,745;  373,642;39535,318;48,60390
 592,91;19402,356;  331,262;39761,511;48,36666
 593,49;19437,947;  333,420;40143,947;47,98863
 594,07;19370,657;  355,497;40314,081;47,58717
 594,65;19148,106;  365,789;40319,988;47,00962
 595,23;19277,611;  366,100;40693,046;46,89547
 595,81;19163,626;  349,025;40809,044;46,50171
 596,39;19098,643;  342,564;40992,723;46,14023
 596,97;19014,687;  338,801;41258,565;45,64026
 597,55;18837,813;  340,714;41009,756;45,48201
 598,12;18640,423;  317,960;41111,099;44,91555
 598,70;18594,326;  302,033;41148,397;44,78316
 599,28;18436,792;  340,187;41411,393;44,06154
 599,86;18279,979;  309,955;41385,203;43,74903
 600,44;18137,332;  293,727;41535,941;43,26539
 601,02;18046,470;  339,198;41604,867;42,91042
 601,60;17872,393;  325,798;41550,610;42,56319
 602,18;17718,406;  299,806;41552,575;42,22407
 602,75;17513,093;  298,563;41554,189;41,72650
 603,33;17417,231;  306,264;41695,494;41,34159
 603,91;17189,480;  298,656;41529,371;40,96661
 604,49;17141,936;  323,495;41744,637;40,60352
 605,07;16938,380;  343,490;41730,390;40,09696
 605,65;16858,132;  344,189;41855,071;39,78220
 606,23;16778,915;  419,095;41953,782;39,38833
 606,80;16627,500;  477,178;41965,396;38,92749
 607,38;16430,157;  518,193;41963,994;38,39222
 607,96;16333,365;  578,332;42048,453;37,99129
 608,54;16212,924;  655,958;42069,663;37,56478
 609,12;16068,966;  639,640;42163,546;37,15769
 609,70;15936,455;  687,263;42148,033;36,77981
 610,27;15740,493;  696,254;42161,704;36,28138
 610,85;15735,338;  728,109;42298,070;36,10114
 611,43;15484,607;  731,187;42209,423;35,56906
 612,01;15271,223;  677,104;42004,002;35,31385
 612,59;15120,351;  686,724;42054,983;34,89058
 613,16;14945,797;  639,020;42004,917;34,58592
 613,74;14802,697;  607,879;41892,490;34,38283
 614,32;14641,448;  551,343;41874,679;34,09721
 614,90;14489,042;  507,722;41710,583;33,93289
 615,48;14196,994;  443,637;41340,037;33,62975
 616,05;14016,740;  417,327;41362,814;33,21346
 616,63;13814,717;  428,940;41107,745;32,90602
 617,21;13631,235;  418,562;41058,193;32,51179
 617,79;13505,520;  395,333;40977,077;32,30563
 618,36;13310,249;  409,490;40879,443;31,87738
 618,94;13097,146;  349,561;40506,197;31,74466
 619,52;12868,901;  374,864;40246,952;31,33530
 620,10;12714,486;  360,102;40224,335;30,99115
 620,67;12534,106;  363,940;40124,050;30,60898
 621,25;12467,981;  390,106;39896,483;30,57196
 621,83;12225,866;  351,253;39866,016;30,05108
 622,41;12161,980;  400,868;39882,361;29,78892
 622,98;11977,120;  365,325;39627,033;29,57537
 623,56;11810,574;  367,939;39583,188;29,17904
 624,14;11623,592;  348,031;39486,502;28,80941
 624,72;11452,681;  339,561;39336,969;28,49707
 625,29;11389,963;  332,862;39395,800;28,30586
 625,87;11318,805;  374,564;39315,101;28,10501
 626,45;11097,223;  327,015;39105,145;27,77392
 627,02;10954,234;  337,642;38977,060;27,47607
 627,60;10842,197;  323,419;39002,921;27,19471
 628,18;10738,043;  304,024;39022,700;26,94828
 628,76;10643,114;  309,941;39026,274;26,68944
 629,33;10528,032;  335,328;39137,683;26,26826
 629,91;10431,640;  317,794;39047,566;26,11388
 630,49;10411,681;  358,096;39197,640;25,88492
 631,06;10336,136;  336,941;39275,641;25,67932
 631,64;10156,525;  322,477;39242,001;25,26765
 632,22;10048,884;  291,628;39338,237;24,98874
 632,79;10019,811;  318,859;39573,157;24,71310
 633,37; 9933,155;  295,259;39474,226;24,59967
 633,95; 9900,649;  300,707;39608,333;24,42260
 634,52; 9787,237;  280,637;39778,026;24,06893
 635,10; 9700,383;  288,409;39761,510;23,84402
 635,68; 9707,603;  294,858;39941,518;23,74158
 636,25; 9563,552;  281,392;39949,384;23,39962
 636,83; 9497,806;  280,941;40174,351;23,10373
 637,41; 9423,406;  277,088;40236,322;22,88912
 637,98; 9425,235;  302,549;40428,874;22,73492
 638,56; 9319,193;  289,237;40563,656;22,42107
 639,13; 9225,107;  288,324;40587,813;22,17592
 639,71; 9194,656;  323,326;40792,815;21,92103
 640,29; 9002,598;  250,634;40492,388;21,74846
 640,86; 8929,371;  261,557;40670,603;21,45018
 641,44; 8870,143;  275,173;40661,895;21,28167
 642,02; 8790,224;  304,942;40628,879;21,04279
 642,59; 8687,997;  258,019;40850,632;20,76727
 643,17; 8646,539;  266,404;40893,616;20,62690
 643,74; 8557,004;  263,866;40884,446;20,41610
 644,32; 8473,469;  298,789;40771,276;20,19812
 644,89; 8387,089;  293,174;40824,414;19,96957
 645,47; 8318,554;  308,790;40873,860;19,74547
 646,05; 8198,711;  290,252;40709,459;19,56609
 646,62; 8109,869;  281,329;40667,597;19,38416
 647,20; 8017,719;  297,406;40834,043;19,04527
 647,77; 7888,722;  268,022;40700,488;18,84797
 648,35; 7830,880;  262,406;40662,934;18,73360
 648,92; 7753,037;  281,022;40673,072;18,49873
 649,50; 7641,195;  250,330;40562,748;18,33397
 650,08; 7552,429;  252,176;40433,501;18,16827
 650,65; 7488,202;  271,715;40672,485;17,86225
 651,23; 7521,360;  241,792;41625,239;17,59053
 651,80; 7686,902;  249,485;42686,530;17,52577
 652,38; 7636,829;  268,562;43115,284;17,19680
 652,95; 7680,063;  228,255;43540,806;17,20473
 653,53; 7633,374;  268,870;43811,713;16,91324
 654,10; 7646,378;  292,409;44030,774;16,81354
 654,68; 7549,305;  254,717;43932,066;16,70108
 655,25; 7428,616;  237,948;43918,511;16,46194
 655,83; 7404,697;  249,333;44067,880;16,32953
 656,40; 7416,008;  276,256;44095,710;16,29357
 656,98; 7290,396;  250,718;43958,925;16,10608
 657,55; 7208,862;  267,487;43774,294;15,95469
 658,13; 7108,481;  248,411;43248,124;15,95376
 658,70; 6978,792;  270,488;42924,415;15,72728
 659,28; 6769,411;  271,642;41800,015;15,64658
 659,85; 6572,876;  277,950;41111,307;15,41614
 660,43; 6542,034;  284,642;41146,444;15,31355
 661,00; 6472,422;  263,489;41329,352;15,11945
 661,58; 6448,272;  255,566;41576,259;14,98694
 662,15; 6435,737;  242,412;41733,166;14,92700
 662,73; 6480,356;  330,643;42125,765;14,71395
 663,30; 6433,822;  268,336;42366,595;14,64546
 663,88; 6391,594;  270,028;42426,887;14,52093
 664,45; 6345,290;  254,644;42750,025;14,33249
 665,03; 6368,679;  262,952;43118,394;14,24726
 665,60; 6468,452;  335,645;43618,839;14,16903
 666,17; 6379,301;  255,337;43668,285;14,10631
 666,75; 6396,382;  252,107;44082,730;14,01823
 667,32; 6452,386;  278,722;44412,945;13,98838
 667,90; 6374,697;  270,415;44652,775;13,75385
 668,47; 6407,008;  285,338;45028,605;13,68177
 669,05; 6375,089;  254,877;45230,974;13,60770
 669,62; 6337,247;  240,415;45445,266;13,48712
 670,19; 6322,250;  250,262;45426,788;13,44058
 670,77; 6284,254;  258,570;45669,388;13,26927
 671,34; 6254,488;  239,416;45574,449;13,26804
 671,92; 6264,030;  237,186;45965,125;13,17979
 672,49; 6268,496;  268,878;45987,032;13,12305
 673,06; 6215,807;  221,494;46023,093;13,08756
 673,64; 6186,041;  237,340;46026,385;12,99154
 674,21; 6137,814;  227,417;45941,215;12,92913
 674,79; 6186,895;  265,725;46187,584;12,89401
 675,36; 6132,822;  264,649;46322,644;12,74083
 675,93; 6087,672;  233,034;46178,859;12,74248
 676,51; 6058,291;  254,649;46308,997;12,60172
 677,08; 6068,756;  259,496;46503,827;12,56210
 677,65; 6044,375;  256,265;46552,888;12,50223
 678,23; 6043,302;  257,419;46751,334;12,44439
 678,80; 6014,305;  248,650;46858,087;12,37015
 679,38; 6025,078;  247,266;47109,840;12,32927
 679,95; 6029,313;  252,881;47317,747;12,27334
 680,52; 6032,624;  248,112;47656,885;12,20135
 681,10; 6099,705;  275,036;48104,254;12,17806
 681,67; 6107,939;  256,574;48320,699;12,17408
 682,24; 6073,174;  225,190;48404,530;12,13795
 682,82; 6141,716;  235,806;48952,668;12,12293
 683,39; 6232,873;  295,191;49430,421;12,08437
 683,96; 6197,723;  249,114;49508,405;12,07612
 684,54; 6204,727;  222,268;49864,004;12,05127
 685,11; 6306,884;  271,653;50262,527;12,07267
 685,68; 6317,503;  244,499;50754,895;12,02328
 686,25; 6330,968;  233,346;50844,418;12,04800
 686,83; 6315,049;  244,654;51055,017;11,94716
 687,40; 6329,591;  224,500;51346,694;11,94215
 687,97; 6462,364;  275,731;51750,139;12,01885
 688,55; 6398,675;  224,347;51804,892;11,97027
 689,12; 6412,218;  199,347;52041,107;11,98430
 689,69; 6460,760;  225,578;52085,783;12,02306
 690,26; 6449,687;  238,424;52170,768;11,96030
 690,84; 6490,459;  233,348;52441,982;11,98482
 691,41; 6480,386;  252,809;52486,197;11,92260
 691,98; 6579,082;  245,425;52829,643;12,04479
 692,56; 6542,855;  229,271;52997,857;11,96466
 693,13; 6589,320;  287,579;52920,534;11,97299
 693,70; 6628,093;  262,349;53043,979;12,06053
 694,27; 6584,712;  241,503;53282,963;11,95896
 694,84; 6616,024;  231,657;53357,640;12,01741
 695,42; 6742,258;  283,965;53472,855;12,14218
 695,99; 6667,339;  250,734;53747,223;11,99444
 696,56; 6703,727;  241,889;53559,361;12,11955
 697,13; 6778,346;  261,966;53951,114;12,13724
 697,71; 6809,657;  229,043;53976,483;12,24359
 698,28; 6870,046;  243,197;54357,159;12,24610
 698,85; 6831,742;  208,890;54387,066;12,22421
 699,42; 6894,438;  218,505;54574,973;12,28176
 699,99; 6954,364;  255,659;54751,188;12,29221
 700,57; 6984,137;  251,429;54712,941;12,36232
 701,14; 7024,218;  237,660;54894,310;12,41671
 701,71; 7077,222;  261,583;55089,140;12,43105
 702,28; 7108,687;  249,660;55203,124;12,48152
 702,85; 7125,460;  258,968;55134,724;12,51280
 703,43; 7216,540;  269,199;55389,092;12,60405
 704,00; 7297,005;  276,892;55671,230;12,67298
 704,57; 7299,701;  259,892;55673,368;12,70415
 705,14; 7384,397;  286,354;55892,198;12,76492
 705,71; 7388,324;  296,585;55932,028;12,74680
 706,28; 7389,174;  260,123;55763,397;12,84438
 706,86; 7505,562;  297,585;56023,227;12,93476
 707,43; 7536,258;  316,355;55914,288;12,98592
 708,00; 7599,262;  290,509;56106,503;13,09437
 708,57; 7572,650;  255,048;55978,949;13,13189
 709,14; 7651,731;  285,586;56030,394;13,21405
 709,71; 7637,965;  270,279;56060,917;13,20596
 710,28; 7738,969;  264,894;56358,516;13,32429
 710,86; 7726,511;  265,895;56390,423;13,29297
 711,43; 7848,669;  296,126;56437,638;13,45269
 712,00; 7863,134;  276,818;56659,237;13,45511
 712,57; 7980,830;  282,126;56759,375;13,63151
 713,14; 8019,218;  262,973;56867,513;13,70251
 713,71; 8066,760;  272,050;56818,343;13,78465
 714,28; 8108,456;  257,588;56919,404;13,85566
 714,85; 8065,691;  242,050;56565,004;13,89068
 715,42; 8173,925;  242,358;56728,757;14,04155
 716,00; 8307,236;  316,820;56924,125;14,11552
 716,57; 8305,625;  246,282;56951,802;14,21263
 717,14; 8344,782;  229,974;56936,170;14,31027
 717,71; 8418,555;  230,821;56957,693;14,43361
 718,28; 8538,174;  278,898;57090,138;14,53810
 718,85; 8550,178;  222,821;57116,123;14,63680
 719,42; 8677,412;  257,360;57282,953;14,76539
 719,99; 8658,955;  231,745;57033,706;14,83612
 720,56; 8842,035;  256,360;57311,613;15,04800
 721,13; 8852,423;  232,668;57520,982;15,04627
 721,70; 8905,273;  239,822;57310,581;15,18370
 722,27; 8989,123;  258,976;57399,027;15,27851
 722,84; 9191,050;  299,823;57566,780;15,52593
 723,41; 9130,746;  226,131;57493,072;15,54931
 723,98; 9292,057;  239,823;57758,517;15,73790
 724,55; 9382,599;  264,824;57882,194;15,82470
 725,12; 9355,372;  205,285;57881,947;15,86445
 725,69; 9481,145;  228,670;57941,777;16,03184
 726,27; 9574,533;  246,132;57932,069;16,17101
 726,84; 9714,537;  246,978;58437,283;16,26999
 727,41; 9826,156;  251,671;58343,037;16,48177
 727,98; 9948,391;  259,364;58616,559;16,60297
 728,55; 9985,394;  276,748;58480,851;16,68035
 729,12;10045,783;  228,364;58644,450;16,80602
 729,69;10186,555;  273,287;58787,204;16,94173
 730,26;10242,867;  273,365;58986,572;16,98000
 730,82;10304,870;  253,365;58801,325;17,16799
 731,39;10414,797;  237,750;59025,694;17,31145
 731,96;10488,724;  226,058;59327,140;17,36460
 732,53;10706,343;  248,673;59445,739;17,66586
 733,10;10782,193;  270,904;59478,262;17,75335
 733,67;10861,350;  256,674;59837,399;17,79884
 734,24;10857,893;  234,982;59425,922;17,94685
 734,81;10997,281;  279,213;59498,291;18,09901
 735,38;10951,285;  257,136;59310,813;18,10920
 735,95;11024,750;  247,213;59091,028;18,31550
 736,52;11106,676;  265,598;59294,627;18,36567
 737,09;11210,219;  259,906;58937,919;18,66170
 737,66;11379,607;  308,368;59125,672;18,82310
 738,23;11445,764;  241,753;59219,425;18,99704
 738,80;11636,768;  325,753;59585,717;19,08711
 739,37;11688,464;  288,599;59725,470;19,17979
 739,94;11772,468;  264,676;59793,685;19,33140
 740,51;11963,933;  378,138;59844,131;19,48306
 741,07;11967,398;  253,908;59775,346;19,67945
 741,64;12135,094;  295,908;59983,022;19,83541
 742,21;12197,944;  261,600;60014,391;19,97621
 742,78;12237,871;  235,678;59743,298;20,16917
 743,35;12392,413;  248,986;60057,512;20,30384
 743,92;12564,186;  295,524;60245,266;20,46491
 744,49;12608,420;  282,063;60010,250;20,63742
 745,06;12666,501;  247,909;60085,464;20,75384
 745,63;12753,351;  238,217;60007,141;20,93920
 746,19;12902,585;  251,833;59962,356;21,18681
 746,76;12962,281;  256,602;60007,032;21,26458
 747,33;13089,977;  250,141;60026,247;21,47988
 747,90;13237,442;  280,911;60227,462;21,61347
 748,47;13240,677;  259,449;60168,984;21,66805
 749,04;13403,680;  265,296;60147,583;21,94035
 749,61;13494,607;  294,911;60038,337;22,09397
 750,17;13679,457;  285,758;60183,090;22,36109
 750,74;13704,614;  270,912;60067,997;22,46548
 751,31;13760,234;  243,835;60065,443;22,59451
 751,88;13808,699;  241,143;59910,196;22,73801
 752,45;14051,779;  258,143;60081,718;23,05719
 753,02;14057,321;  278,836;59896,625;23,11137
 753,58;14184,171;  233,913;59817,763;23,41282
 754,15;14256,175;  247,990;59950,286;23,46339
 754,72;14284,948;  240,375;59794,270;23,58296
 755,29;14374,029;  234,221;59679,792;23,78614
 755,86;14523,648;  253,222;59764,930;23,97919
 756,42;14604,574;  255,145;59646,837;24,16067
 756,99;14687,501;  217,299;59707,821;24,32354
 757,56;14796,428;  228,145;59525,421;24,56822
 758,13;14901,816;  191,300;59519,174;24,79529
 758,70;15034,051;  218,992;59516,312;24,98436
 759,26;15206,900;  204,069;59594,065;25,26155
 759,83;15333,289;  218,685;59743,126;25,39226
 760,40;15344,446;  204,608;59452,187;25,55351
 760,97;15559,065;  192,224;59546,094;25,89021
 761,53;15575,146;  191,609;59311,001;26,02114
 762,10;15622,457;  187,378;59170,831;26,16849
 762,67;15781,307;  214,148;59106,969;26,43303
 763,24;15753,003;  182,225;58661,107;26,62633
 763,80;15872,622;  201,687;58829,168;26,72968
 764,37;16002,857;  211,225;58747,614;26,97746
 764,94;15972,168;  187,379;58355,444;27,13652
 765,50;16111,172;  197,303;58250,889;27,41238
 766,07;16286,483;  233,226;58263,720;27,66349
 766,64;16234,794;  209,996;57982,396;27,73781
 767,21;16345,260;  222,150;57950,688;27,92918
 767,77;16393,648;  223,535;57757,210;28,10548
 768,34;16486,344;  243,996;57835,963;28,20245
 768,91;16574,655;  241,689;57543,101;28,50360
 769,47;16698,967;  240,920;57486,085;28,75011
 770,04;16800,432;  254,151;57440,992;28,93372
 770,61;16850,435;  231,382;57224,361;29,15983
 771,18;16795,747;  222,151;57047,268;29,16597
 771,74;17054,597;  237,459;57235,406;29,50481
 772,31;16998,216;  244,767;56999,467;29,51905
 772,88;17016,989;  209,152;56754,451;29,72455
 773,44;17084,761;  218,614;56536,589;29,94807
 774,01;17234,150;  239,537;56613,342;30,14629
 774,58;17281,538;  222,153;56296,711;30,42268
 775,14;17396,696;  210,999;56412,464;30,57873
 775,71;17453,084;  218,461;56348,294;30,70492
 776,27;17598,472;  280,615;56213,278;30,96197
 776,84;17786,476;  314,154;56304,493;31,20596
 777,41;17775,172;  242,077;55950,785;31,47281
 777,97;17792,252;  227,770;55718,922;31,65276
 778,54;17886,871;  244,924;55748,830;31,78506
 779,11;18053,260;  259,386;55763,506;32,05865
 779,67;18093,033;  220,540;55671,721;32,23104
 780,24;18147,190;  237,540;55375,551;32,48150
 780,80;18257,271;  255,694;55373,919;32,65994
 781,37;18390,813;  250,002;55541,980;32,80912
 781,94;18357,970;  240,156;55196,888;32,96742
 782,50;18485,820;  249,695;55052,718;33,27577
 783,07;18601,978;  262,003;55063,856;33,46598
 783,63;18642,981;  225,849;54920,070;33,67290
 784,20;18762,831;  263,003;54836,977;33,89863
 784,77;18802,758;  235,850;54660,731;34,11474
 785,33;18880,839;  219,773;54378,176;34,45645
 785,90;19017,919;  240,542;54360,622;34,69577
 786,46;19052,923;  260,466;54292,837;34,78000
 787,03;19150,773;  221,004;54110,744;35,12685
 787,59;19243,084;  240,235;53997,420;35,34941
 788,16;19294,703;  251,697;54021,404;35,41586
 788,73;19369,784;  247,697;53785,311;35,71711
 789,29;19283,095;  240,544;53423,988;35,80541
 789,86;19432,945;  258,544;53351,202;36,11498
 790,42;19528,026;  242,237;53140,956;36,45795
 790,99;19466,798;  254,929;52815,940;36,55156
 791,55;19477,418;  229,160;52792,924;36,61887
 792,12;19658,114;  262,160;52820,523;36,90365
 792,68;19629,809;  239,699;52524,738;37,08539
 793,25;19691,659;  254,469;52215,799;37,40703
 793,81;19755,432;  316,546;51916,398;37,67237
 794,38;19627,821;  210,469;51653,459;37,74538
 794,94;19725,593;  212,315;51481,059;38,06077
 795,51;19723,443;  247,854;51209,504;38,21617
 796,07;19684,524;  236,316;51034,488;38,28525
 796,64;19907,912;  265,162;51104,780;38,63670
 797,20;19850,608;  251,240;50573,379;38,94780
 797,77;19713,381;  217,317;50237,363;38,97650
 798,33;19803,539;  241,240;50048,270;39,27618
 798,90;19928,004;  271,240;49972,254;39,55002
 799,46;19943,007;  233,856;49438,238;40,05568
 800,03;19921,934;  238,318;49475,684;39,97699
 800,59;20008,707;  255,087;49325,899;40,25534
 801,15;20047,326;  262,241;48916,344;40,66478
 801,72;20031,099;  259,857;48572,636;40,92342
 802,28;20012,872;  271,011;48293,851;41,10932
 802,85;19978,414;  240,088;48018,143;41,31254
 803,41;20019,725;  234,242;47993,665;41,42739
 803,98;19951,421;  236,319;47385,880;41,81397
 804,54;19933,348;  234,089;47260,172;41,89007
 805,11;19946,429;  235,243;47031,079;42,12167
 805,67;20037,356;  264,243;47025,755;42,28502
 806,23;19941,667;  254,551;46493,662;42,57676
 806,80;20003,440;  264,474;46325,261;42,85416
 807,36;20118,905;  269,090;46274,245;43,14694
 807,93;20087,601;  264,552;46054,999;43,29080
 808,49;20010,297;  227,244;45652,137;43,55113
 809,05;20134,531;  226,399;45456,659;44,01507
 809,62;20171,074;  258,476;45281,566;44,22752
 810,18;20218,462;  243,476;45264,243;44,36838
 810,74;20152,927;  214,245;44941,150;44,57872
 811,31;20241,931;  224,323;44772,518;44,93472
 811,87;20366,781;  241,938;44580,810;45,38871
 812,44;20416,938;  268,631;44608,871;45,44023
 813,00;20427,249;  180,939;44238,470;45,95426
 813,56;20572,407;  245,477;44277,993;46,16345
 814,13;20515,103;  238,632;44153,900;46,17180
 814,69;20535,337;  240,401;43940,730;46,44115
 815,25;20452,880;  207,401;43580,714;46,67727
 815,82;20529,191;  252,401;43491,775;46,89427
 816,38;20606,964;  288,094;43235,682;47,31085
 816,94;20449,814;  228,940;42973,512;47,30629
 817,51;20456,510;  208,556;42691,958;47,66086
 818,07;20425,129;  203,172;42410,711;47,91077
 818,63;20504,440;  242,787;42231,541;48,25495
 819,20;20640,982;  235,711;42167,756;48,66271
 819,76;20485,986;  224,557;41715,125;48,83382
 820,32;20540,066;  253,557;41683,032;48,96637
 820,89;20526,993;  248,634;41346,401;49,34175
 821,45;20438,382;  227,635;41066,692;49,48877
 822,01;20441,001;  243,481;40818,830;49,77781
 822,57;20560,312;  250,712;40752,814;50,14456
 823,14;20447,623;  204,020;40358,567;50,41422
 823,70;20416,858;  218,790;40197,013;50,52268
 824,26;20535,861;  217,559;40033,074;51,03112
 824,82;20519,250;  250,098;39788,058;51,26504
 825,39;20483,023;  225,098;39508,580;51,56856
 825,95;20574,411;  247,406;39592,411;51,66350
 826,51;20447,415;  247,098;39127,164;51,95546
 827,08;20621,803;  285,176;39188,840;52,27432
 827,64;20669,883;  255,637;39035,286;52,64165
 828,20;20584,887;  220,715;38672,270;52,96060
 828,76;20657,045;  251,099;38728,408;53,03371
 829,32;20727,894;  259,253;38534,853;53,47700
 829,89;20707,514;  212,023;38430,529;53,62714
 830,45;20820,979;  239,408;38338,590;54,02103
 831,01;20768,059;  234,639;38215,421;54,06266
 831,57;20762,832;  229,331;37967,635;54,41024
 832,14;20868,759;  224,178;37938,696;54,73908
 832,70;20861,686;  222,024;37751,296;54,99617
 833,26;20957,613;  194,794;37680,434;55,38873
 833,82;20985,539;  234,025;37455,802;55,75100
 834,38;21028,851;  216,563;37564,786;55,72497
 834,95;21034,624;  222,871;37492,463;55,84111
 835,51;21145,627;  189,025;37183,600;56,64777
 836,07;21231,939;  226,410;37249,431;56,73640
 836,63;21364,558;  250,411;37352,261;56,90861
 837,19;21430,177;  240,257;37063,322;57,54524
 837,75;21294,873;  207,565;36846,460;57,55443
 838,32;21532,338;  251,565;36923,751;58,02974
 838,88;21661,957;  245,027;36891,043;58,44272
 839,44;21714,268;  249,027;36809,258;58,71200
 840,00;21717,887;  230,720;36704,011;58,91206
 840,56;21662,814;  220,874;36469,611;59,15224
 841,12;21751,356;  219,489;36309,287;59,66192
 841,68;21659,975;  197,182;36230,194;59,56425
 842,25;21771,671;  218,875;36164,255;59,95985
 842,81;21796,983;  204,952;35981,393;60,35265
 843,37;21926,448;  214,183;35979,454;60,70768
 843,93;22017,298;  217,798;35781,669;61,29676
 844,49;22157,609;  234,029;35855,729;61,54557
 845,05;22038,844;  182,645;35711,329;61,51705
 845,61;22207,386;  231,799;35821,621;61,74683
 846,17;22227,697;  216,184;35575,143;62,25159
 846,73;22360,239;  225,492;35471,973;62,79988
 847,29;22401,935;  211,492;35325,880;63,19473
 847,86;22469,631;  209,185;35293,941;63,44763
 848,42;22492,019;  202,493;35106,310;63,85985
 848,98;22647,946;  229,724;35013,140;64,45089
 849,54;22730,873;  220,801;35013,663;64,69739
 850,10;22674,030;  229,955;34945,108;64,65210
 850,66;22772,726;  200,417;34694,015;65,43913
 851,22;22675,192;  202,648;34618,692;65,29671
 851,78;22868,503;  255,494;34686,676;65,67596
 852,34;22934,199;  224,725;34413,198;66,42436
 852,90;22893,664;  213,418;34318,567;66,50095
 853,46;22727,899;  198,956;34122,935;66,41008
 854,02;22842,441;  228,495;34106,766;66,75059
 854,58;22739,983;  221,111;33866,134;66,93077
 855,14;22784,602;  203,957;33739,580;67,33331
 855,70;22896,529;  183,188;33581,641;68,00716
 856,26;22965,686;  224,650;33626,086;68,08401
 856,82;22906,075;  209,112;33341,916;68,50299
 857,38;23017,540;  250,497;33316,516;68,85329
 857,94;23003,390;  221,881;33181,808;69,11881
 858,50;23021,701;  225,266;32960,484;69,63887
 859,06;22958,858;  207,805;32807,083;69,79005
 859,62;23038,324;  232,190;32650,837;70,34882
 860,18;22956,635;  221,344;32590,590;70,23732
 860,74;22832,485;  188,575;32362,112;70,38054
 861,30;22814,412;  193,960;32227,481;70,61494
 861,86;22915,492;  267,806;32294,542;70,71494
 862,42;22809,650;  226,268;31965,757;71,15232
 862,98;22911,346;  248,576;32078,125;71,20041
 863,54;22951,196;  220,653;31793,032;71,99503
 864,10;22995,507;  213,269;31937,093;71,81429
 864,66;22970,818;  202,192;31644,693;72,41354
 865,22;22923,668;  224,346;31435,984;72,72711
 865,78;22911,826;  219,192;31266,353;73,09085
 866,34;22943,445;  204,731;31362,106;72,98020
 866,90;22914,448;  220,808;31083,475;73,53104
 867,45;22844,375;  236,578;30929,151;73,65885
 868,01;22840,994;  223,655;30790,597;73,99281
 868,57;22747,690;  215,732;30619,966;74,10796
 869,13;22721,925;  200,732;30401,565;74,57143
 869,69;22845,467;  210,271;30320,241;75,17508
 870,25;22809,394;  186,348;30246,302;75,25975
 870,81;22883,320;  214,810;30184,209;75,63885
 871,37;22917,016;  223,349;30086,809;75,99142
 871,93;22800,481;  236,811;29867,716;76,14911
 872,49;22804,331;  254,580;29613,854;76,80623
 873,04;22641,027;  202,196;29450,145;76,71933
 873,60;22711,492;  195,350;29270,822;77,44033
 874,16;22716,419;  219,119;29224,883;77,56148
 874,72;22713,188;  217,888;29149,498;77,75336
 875,28;22698,342;  225,119;29078,806;77,88683
 875,84;22720,958;  226,581;29020,498;78,12198
 876,40;22784,342;  213,504;28867,960;78,76904
 876,95;22920,881;  227,042;28836,113;79,32393
 877,51;23026,496;  247,273;28855,267;79,62538
 878,07;23080,496;  253,812;28901,729;79,68008
 878,63;23210,035;  223,965;28900,037;80,15767
 879,19;23293,265;  228,812;28924,267;80,37668
 879,75;23391,650;  216,504;28921,729;80,73494
 880,30;23456,804;  207,735;28891,883;81,05198
 880,86;23683,727;  260,042;29039,883;81,38921
 881,42;23697,112;  206,812;29044,113;81,45804
 881,98;23908,804;  232,504;29123,190;81,95132
 882,54;24096,958;  203,119;29288,498;82,15069
 883,09;24260,035;  219,965;29421,113;82,32577
 883,65;24325,112;  202,658;29500,883;82,33418
 884,21;24688,804;  245,427;29732,037;82,89653
 884,77;24722,265;  215,658;29681,806;83,16868
 885,32;24944,650;  216,427;29980,883;83,07971
 885,88;25137,496;  248,119;30130,960;83,28986
 886,44;25281,650;  224,119;30121,344;83,81223
 887,00;25412,496;  246,504;30179,498;84,07442
 887,56;25701,035;  210,119;30411,498;84,40315
 888,11;25791,342;  216,273;30340,498;84,89868
 888,67;25978,112;  240,273;30523,960;84,98912
 889,23;26039,958;  224,273;30494,960;85,28279
 889,79;26106,342;  209,658;30424,113;85,70958
 890,34;26094,496;  232,658;30343,883;85,88770
 890,90;26339,342;  290,965;30495,883;86,23886
 891,46;26292,035;  201,427;30323,883;86,61514
 892,01;26217,496;  243,658;30357,652;86,25172
 892,57;26239,573;  258,273;30260,883;86,59680
 893,13;26241,727;  232,965;30047,883;87,23406
 893,69;26335,958;  207,427;29994,344;87,71814
 894,24;26259,419;  218,196;29892,037;87,75818
 894,80;26314,650;  226,658;29773,037;88,29506
 895,36;26311,112;  220,427;29661,729;88,61933
 895,91;26237,265;  220,965;29475,190;88,93177
 896,47;26275,265;  234,965;29274,113;89,67309
 897,03;26243,035;  227,119;29118,037;90,04877
 897,58;26122,188;  233,196;28943,960;90,17173
 898,14;26007,804;  233,196;28747,498;90,39186
 898,70;25978,958;  196,350;28606,421;90,75165
 899,25;26138,958;  218,427;28578,113;91,39921
 899,81;25994,342;  235,581;28370,960;91,55292
 900,37;25867,573;  186,042;28129,421;91,90560
 900,92;25976,419;  221,965;28086,883;92,42609
 901,48;25940,188;  225,581;27998,344;92,58930
 902,03;25966,881;  217,119;27810,344;93,31914
 902,59;25952,727;  215,196;27764,498;93,42353
 903,15;25848,804;  241,658;27546,113;93,78376
 903,70;25712,804;  215,042;27327,883;94,04312
 904,26;25638,112;  211,658;27219,267;94,14552
 904,82;25613,804;  220,273;27155,883;94,27494
 905,37;25609,265;  227,888;27043,498;94,65150
 905,93;25513,419;  209,504;26857,729;94,95535
 906,48;25691,265;  228,735;26871,113;95,57154
 907,04;25728,496;  232,196;26694,498;96,34952
 907,60;25573,342;  219,350;26502,421;96,46511
 908,15;25472,496;  197,888;26350,190;96,64391
 908,71;25532,496;  238,042;26385,037;96,73943
 909,26;25377,804;  224,427;26125,652;97,11269
 909,82;25325,265;  227,196;26128,729;96,89801
 910,37;25278,419;  266,119;25979,190;97,27465
 910,93;25092,881;  212,812;25777,421;97,32231
 911,48;25075,881;  201,888;25659,806;97,70631
 912,04;25059,650;  220,119;25480,806;98,33276
 912,60;24964,650;  228,812;25513,729;97,82843
 913,15;24920,265;  221,273;25329,498;98,37012
 913,71;24788,496;  204,812;25161,498;98,50540
 914,26;24847,958;  202,658;25003,344;99,37346
 914,82;24781,573;  225,735;24906,652;99,49322
 915,37;24808,342;  199,658;24883,575;99,69522
 915,93;24691,958;  256,735;24693,344;99,99433
 916,48;24593,573;  193,581;24655,344;99,74748
 917,04;24498,419;  227,735;24440,037;100,24113
 917,59;24570,804;  249,658;24525,113;100,18822
 918,15;24400,419;  190,042;24173,960;100,94421
 918,70;24408,265;  205,273;24166,113;101,01062
 919,26;24442,496;  219,427;24042,652;101,67838
 919,81;24298,265;  200,658;23895,575;101,69948
 920,37;24299,881;  204,888;23822,421;102,02163
 920,92;24189,112;  228,504;23654,498;102,28214
 921,48;24068,650;  200,504;23530,729;102,30568
 922,03;24185,112;  205,504;23463,575;103,10231
 922,59;24054,881;  216,119;23292,575;103,30339
 923,14;23948,035;  212,273;23113,729;103,64303
 923,69;23980,650;  223,350;23059,652;104,03304
 924,25;24012,958;  236,504;22986,344;104,51262
 924,80;23775,958;  215,735;22825,960;104,20163
 925,36;23845,188;  203,581;22760,883;104,80689
 925,91;23784,112;  196,119;22596,498;105,30176
 926,47;23884,573;  186,812;22550,806;105,96390
 927,02;23800,727;  273,273;22458,190;106,05157
 927,57;23657,419;  218,273;22275,421;106,26553
 928,13;23692,188;  202,581;22197,037;106,79786
 928,68;23589,881;  207,735;22179,729;106,41795
 929,24;23464,419;  187,812;21897,806;107,21609
 929,79;23370,265;  210,965;21808,960;107,22894
 930,34;23311,342;  212,196;21625,652;107,87211
 930,90;23320,342;  201,119;21634,190;107,86706
 931,45;23387,727;  223,658;21562,267;108,55473
 932,01;23306,342;  224,812;21431,883;108,83884
 932,56;23256,881;  233,658;21278,729;109,39960
 933,11;23426,188;  236,504;21355,190;109,80647
 933,67;23228,265;  211,427;21081,421;110,28675
 934,22;23138,188;  216,504;21017,267;110,19636
 934,77;23021,496;  234,888;20884,960;110,34639
 935,33;23011,881;  223,965;20760,652;110,96199
 935,88;22987,881;  219,273;20625,113;111,57888
 936,43;23085,188;  213,504;20572,190;112,34362
 936,99;23094,419;  212,735;20439,729;113,12449
 937,54;22776,419;  204,273;20285,652;112,40337
 938,09;22802,265;  219,812;20243,806;112,77697
 938,65;22651,881;  215,273;20138,498;112,61534
 939,20;22638,958;  190,196;20034,344;113,12535
 939,75;22483,958;  210,196;19952,883;112,82032
 940,31;22396,881;  188,888;19821,575;113,11744
 940,86;22421,496;  220,042;19795,960;113,41207
 941,41;22519,958;  293,273;19672,652;114,69245
 941,96;22319,650;  196,888;19552,652;114,29547
 942,52;22285,650;  208,042;19358,498;115,28502
 943,07;22232,573;  190,273;19329,883;115,16588
 943,62;22201,958;  194,735;19270,806;115,36560
 944,18;22190,881;  196,658;19146,806;116,06359
 944,73;22080,112;  217,965;19028,960;116,22005
 945,28;21974,958;  182,581;18910,113;116,36545
 945,83;22046,573;  200,350;18902,267;116,81275
 946,39;22026,881;  205,965;18762,037;117,59448
 946,94;21888,419;  240,581;18793,113;116,68401
 947,49;21807,035;  207,504;18619,652;117,31130
 948,04;21840,958;  240,965;18558,113;117,92225
 948,59;21769,265;  237,427;18520,421;117,76976
 949,15;21700,419;  189,273;18325,652;118,60772
 949,70;21605,496;  208,273;18289,575;118,33895
 950,25;21587,727;  216,196;18151,729;119,15749
 950,80;21527,650;  177,196;18029,498;119,59496
 951,36;21411,188;  172,119;17948,037;119,48227
 951,91;21441,881;  217,658;17940,113;119,75893
 952,46;21159,188;  195,350;17714,267;119,66401
 953,01;21253,188;  214,196;17756,190;119,93501
 953,56;21192,496;  190,350;17610,652;120,56132
 954,11;21182,188;  217,888;17566,421;120,84192
 954,67;21117,265;  201,427;17494,652;120,94817
 955,22;20947,573;  181,658;17318,421;121,17758
 955,77;20967,112;  217,888;17317,037;121,34653
 956,32;20832,958;  253,888;17234,267;121,19323
 956,87;20777,881;  200,658;17057,806;122,06823
 957,42;20825,496;  211,273;17000,344;122,78358
 957,98;20661,419;  194,042;16885,729;122,62019
 958,53;20671,573;  233,735;16905,344;122,59067
 959,08;20581,650;  192,504;16733,421;123,26491
 959,63;20434,496;  205,504;16589,498;123,46801
 960,18;20483,496;  216,888;16566,960;123,95425
 960,73;20463,650;  207,658;16534,960;124,06209
 961,28;20419,112;  179,965;16409,806;124,70330
 961,83;20382,573;  228,119;16367,575;124,87691
 962,39;20252,188;  187,273;16232,190;125,05465
 962,94;20302,958;  207,042;16179,344;125,81728
 963,49;20095,265;  208,658;16006,729;125,87997
 964,04;20106,342;  218,119;15901,267;126,81270
 964,59;19949,419;  189,427;15873,652;125,98641
 965,14;19947,265;  222,427;15785,190;126,74380
 965,69;19784,804;  208,581;15683,421;126,50355
 966,24;19725,342;  202,119;15562,267;127,10309
 966,79;19567,958;  217,735;15553,652;126,17584
 967,34;19504,958;  186,427;15374,960;127,19155
 967,89;19486,958;  196,196;15330,575;127,46319
 968,44;19355,573;  205,581;15273,421;127,09182
 968,99;19309,265;  221,196;15182,729;127,58097
 969,55;19192,265;  218,658;15098,344;127,51349
 970,10;19158,804;  219,888;14978,037;128,32854
 970,65;19018,035;  218,812;14927,960;127,80634
 971,20;18909,881;  194,350;14764,267;128,45324
 971,75;18831,419;  181,812;14686,652;128,57506
 972,30;18737,342;  210,427;14581,267;128,92019
 972,85;18719,573;  204,119;14492,267;129,58610
 973,40;18567,573;  195,119;14341,190;129,87672
 973,95;18542,188;  221,119;14313,344;130,00835
 974,50;18543,188;  236,581;14226,729;130,85357
 975,05;18517,573;  214,658;14143,037;131,40736
 975,60;18453,342;  223,350;14038,344;131,95802
 976,15;18307,419;  208,581;13907,960;132,11430
 976,70;18252,188;  221,965;13842,113;132,37905
 977,25;18207,727;  223,042;13793,652;132,52673
 977,80;18078,650;  199,427;13662,421;132,80272
 978,35;17897,342;  219,658;13468,267;133,43049
 978,89;17844,881;  188,888;13409,806;133,54589
 979,44;17859,881;  214,350;13393,960;133,88508
 979,99;17666,112;  193,965;13277,498;133,54303
 980,54;17644,265;  228,658;13134,344;134,94522
 981,09;17483,419;  229,888;13020,960;134,88730
 981,64;17406,112;  223,581;12872,960;135,83695
 982,19;17408,188;  254,350;12828,113;136,42565
 982,74;17155,881;  222,273;12694,883;135,76636
 983,29;16985,804;  200,658;12585,729;135,52725
 983,84;16915,881;  221,658;12477,806;136,21101
 984,39;16939,804;  285,504;12405,113;137,41614
 984,94;16767,419;  183,965;12212,421;137,86852
 985,49;16725,573;  233,042;12224,037;137,54098
 986,03;16588,881;  231,504;12074,037;138,12398
 986,58;16370,265;  261,581;11949,037;137,82884
 987,13;16279,881;  211,119;11819,037;138,42932
 987,68;16231,342;  224,581;11701,575;139,46824
 988,23;16147,958;  221,581;11654,575;139,30189
 988,78;15926,188;  198,735;11528,421;138,81632
 989,33;15717,650;  240,504;11380,652;138,93124
 989,88;15777,265;  255,350;11359,806;139,78096
 990,42;15603,804;  213,273;11216,883;139,86802
 990,97;15493,650;  210,196;11052,883;140,95634
 991,52;15417,573;  231,735;10994,421;141,09710
 992,07;15317,265;  252,504;10966,113;140,61331
 992,62;15224,958;  229,042;10832,960;141,41864
 993,17;15109,881;  230,196;10679,113;142,40408
 993,71;14972,496;  234,119;10622,037;141,88000
 994,26;14748,881;  198,965;10405,267;142,55815
 994,81;14752,958;  239,658;10404,344;142,78158
 995,36;14517,727;  218,812;10233,190;142,78385
 995,91;14479,727;  226,119;10173,652;143,28787
 996,45;14328,419;  225,119;10071,421;143,23449
 997,00;14191,650;  206,427; 9907,883;144,15592
 997,55;14208,804;  238,658; 9872,190;145,01582
 998,10;13890,958;  246,504; 9737,037;143,76910
 998,65;13901,035;  216,273; 9673,960;144,69460
 999,19;13750,804;  247,965; 9548,498;145,18350
 999,74;13618,958;  241,581; 9464,113;145,05101
1000,29;13492,188;  237,273; 9353,498;145,39917
1000,84;13309,112;  212,888; 9203,190;145,67056
1001,38;13178,035;  227,042; 9137,652;145,34350
1001,93;13105,342;  246,888; 9059,806;145,90462
1002,48;12967,035;  211,812; 8881,037;147,13222
1003,03;12965,573;  232,196; 8874,498;147,33779
1003,57;12771,112;  233,042; 8753,344;147,15522
1004,12;12715,958;  262,504; 8678,729;147,96959
1004,67;12560,112;  222,119; 8592,960;147,39252
1005,22;12316,035;  216,658; 8405,729;147,75030
1005,76;12129,881;  201,196; 8318,652;146,95103
1006,31;12114,727;  230,581; 8234,575;148,47770
1006,86;11986,035;  218,273; 8113,498;149,04910
1007,40;11736,650;  195,196; 8020,806;147,48313
1007,95;11634,573;  220,119; 7905,421;148,52317
1008,50;11447,188;  231,196; 7753,960;149,09404
1009,04;11318,112;  209,812; 7686,652;148,56944
1009,59;11102,650;  229,042; 7556,190;148,40164
1010,14;11065,035;  206,658; 7438,037;150,15638
1010,68;10887,881;  220,504; 7320,806;150,23836
1011,23;10673,573;  212,888; 7211,652;149,46475
1011,78;10605,881;  229,888; 7119,344;150,60685
1012,32;10474,727;  241,965; 7036,113;150,61140
1012,87;10406,342;  257,581; 6974,806;151,08563
1013,42;10263,112;  203,196; 6845,344;151,45575
1013,96;10299,496;  257,350; 6877,806;151,68361
1014,51;10176,265;  192,965; 6726,883;152,79196
1015,06;10278,804;  187,812; 6776,190;153,16351
1015,60;10373,496;  264,042; 6805,037;154,55531
1016,15;10294,188;  209,965; 6771,037;153,69782
1016,69;10294,881;  217,658; 6788,421;153,36457
1017,24;10279,881;  199,196; 6784,960;153,06782
1017,79;10388,727;  241,350; 6898,190;152,43533
1018,33;10411,112;  207,888; 6841,113;153,81995
1018,88;10508,650;  224,273; 6898,190;154,09806
1019,42;10523,112;  217,427; 6885,652;154,54914
1019,97;10544,958;  207,427; 6909,575;154,24205
1020,51;10634,112;  242,196; 6946,421;155,00547
1021,06;10559,496;  188,965; 6917,344;154,13120
1021,61;10483,342;  190,042; 6892,883;153,56624
1022,15;10444,496;  170,735; 6874,960;153,24309
1022,70;10403,958;  209,965; 6875,960;152,92531
1023,24;10389,881;  202,042; 6803,729;154,32175
1023,79;10300,573;  213,427; 6726,960;154,86444
1024,33;10325,188;  204,427; 6673,883;156,43915
1024,88;10247,727;  225,812; 6619,883;156,73763
1025,42;10071,727;  219,965; 6470,729;157,60893
1025,97; 9934,342;  206,504; 6409,498;156,82488
1026,51; 9741,650;  174,504; 6244,344;157,61776
1027,06; 9681,727;  202,658; 6224,960;157,39944
1027,60; 9549,265;  229,658; 6108,421;158,53007
1028,15; 9417,342;  224,427; 6049,652;157,81219
1028,69; 9210,573;  178,658; 5900,498;157,84983
1029,24; 9103,342;  190,888; 5858,652;157,24816
1029,78; 8941,342;  191,581; 5760,806;157,10914
1030,33; 8843,496;  183,812; 5600,190;159,87960
1030,87; 8788,804;  203,119; 5562,421;160,20155
1031,42; 8677,804;  186,888; 5474,960;160,56734
1031,96; 8573,112;  216,504; 5405,344;161,04962
1032,51; 8421,958;  193,350; 5354,652;159,42892
1033,05; 8332,112;  218,504; 5267,806;160,68771
1033,60; 8118,265;  181,581; 5145,267;159,89496
1034,14; 8002,112;  199,658; 5080,652;159,85378
1034,69; 7970,496;  204,735; 5045,652;160,41921
1035,23; 7886,881;  211,119; 4934,652;162,50044
1035,77; 7781,958;  199,042; 4887,037;161,75181
1036,32; 7655,419;  174,350; 4782,344;162,34980
1036,86; 7559,881;  210,427; 4749,344;161,92086
1037,41; 7458,881;  220,273; 4667,267;162,77529
1037,95; 7389,035;  179,196; 4579,729;163,84013
1038,50; 7256,419;  185,504; 4553,190;161,89155
1039,04; 7217,265;  220,427; 4509,575;163,12886
1039,58; 7059,573;  185,812; 4421,498;162,28211
1040,13; 7029,265;  202,581; 4362,806;164,09412
1040,67; 7005,804;  235,119; 4322,883;165,63298
1041,21; 6887,342;  231,273; 4245,883;165,79618
1041,76; 6783,112;  188,735; 4150,037;166,46994
1042,30; 6685,573;  200,581; 4087,960;166,82172
1042,85; 6571,342;  203,042; 4051,267;165,48669
1043,39; 6485,419;  185,812; 3954,113;167,17365
1043,93; 6435,958;  215,042; 3934,037;167,27413
1044,48; 6344,881;  210,273; 3906,806;165,95573
1045,02; 6222,496;  199,042; 3826,498;166,05175
1045,56; 6201,188;  226,042; 3777,113;168,26321
1046,11; 6118,496;  220,812; 3749,652;167,12812
1046,65; 6031,188;  204,273; 3688,883;167,21860
1047,19; 5918,804;  196,350; 3599,806;168,13657
1047,74; 5866,958;  186,042; 3537,113;169,52536
1048,28; 5859,727;  212,427; 3515,575;170,96721
1048,82; 5808,265;  226,735; 3507,883;170,10908
1049,37; 5738,188;  218,504; 3423,883;172,20069
1049,91; 5664,881;  211,042; 3355,652;173,43452
1050,45; 5610,881;  222,504; 3341,190;172,77712
1050,99; 5517,496;  212,042; 3292,267;172,24241
1051,54; 5436,419;  190,504; 3225,575;172,84324
1052,08; 5375,035;  237,119; 3201,421;173,32632
1052,62; 5301,188;  230,119; 3156,960;173,26087
1053,16; 5225,804;  211,812; 3111,883;172,89204
1053,71; 5164,804;  208,504; 3087,806;172,13547
1054,25; 5069,650;  216,581; 3010,421;173,70603
1054,79; 4985,112;  223,965; 2979,652;172,77532
1055,33; 4863,112;  188,196; 2892,344;172,87942
1055,88; 4881,035;  220,812; 2885,113;174,91347
1056,42; 4796,496;  230,965; 2875,190;172,66045
1056,96; 4721,573;  227,119; 2836,806;172,22198
1057,50; 4664,035;  220,427; 2793,344;172,70698
1058,05; 4572,112;  214,119; 2740,344;172,51006
1058,59; 4513,496;  243,888; 2702,960;173,62685
1059,13; 4406,881;  199,119; 2619,113;173,87486
1059,67; 4375,419;  222,658; 2601,113;174,59907
1060,21; 4319,650;  217,581; 2572,344;174,20303
1060,76; 4252,727;  228,119; 2535,729;174,40592
1061,30; 4240,342;  230,350; 2515,652;175,46882
1061,84; 4120,265;  208,196; 2445,883;174,82651
1062,38; 4030,342;  208,581; 2374,344;176,46255
1062,92; 4060,265;  255,427; 2419,729;175,79980
1063,46; 3971,112;  224,119; 2353,421;175,97280
1064,01; 3912,035;  216,504; 2333,113;174,59671
1064,55; 3890,496;  223,965; 2281,883;178,16706
1065,09; 3816,188;  194,735; 2227,806;178,12726
1065,63; 3815,035;  250,658; 2235,421;179,58699
1066,17; 3767,112;  250,812; 2233,267;177,37092
1066,71; 3715,035;  239,735; 2178,806;179,22499
1067,25; 3616,188;  214,042; 2134,652;177,13887
1067,80; 3609,881;  240,735; 2131,421;178,19697
1068,34; 3598,342;  241,350; 2115,190;179,15039
1068,88; 3500,496;  218,965; 2031,344;181,06208
1069,42; 3474,573;  250,273; 2060,960;178,07058
1069,96; 3416,881;  218,581; 2041,421;175,45694
1070,50; 3383,188;  251,735; 2038,267;175,28108
1071,04; 3330,265;  206,273; 1965,421;177,58552
1071,58; 3293,496;  217,042; 1958,267;176,68330
1072,12; 3256,804;  219,581; 1920,729;178,53961
1072,66; 3216,804;  220,119; 1898,883;178,50547
1073,21; 3195,419;  233,427; 1906,806;177,00668
1073,75; 3134,496;  238,196; 1855,190;179,11629
1074,29; 3107,188;  231,581; 1827,190;180,22000
1074,83; 3075,804;  239,581; 1820,190;179,43856
1075,37; 3051,035;  239,042; 1805,498;179,51304
1075,91; 3000,496;  234,888; 1783,344;178,60424
1076,45; 2973,342;  231,504; 1762,421;179,09775
1076,99; 2935,112;  240,350; 1738,344;179,89132
1077,53; 2869,958;  224,042; 1674,575;182,40991
1078,07; 2860,804;  239,812; 1680,575;181,91691
1078,61; 2807,804;  222,888; 1656,037;180,36625
1079,15; 2764,265;  229,427; 1636,421;180,15983
1079,69; 2740,496;  226,735; 1619,344;180,50727
1080,23; 2761,188;  248,273; 1642,960;180,17779
1080,77; 2779,419;  278,196; 1640,037;183,66492
1081,31; 2674,727;  215,888; 1551,498;184,09859
1081,85; 2664,573;  239,427; 1559,267;183,74541
1082,39; 2616,573;  230,812; 1535,498;182,86090
1082,93; 2584,650;  237,427; 1526,421;182,09725
1083,47; 2510,804;  208,504; 1501,883;178,00662
1084,01; 2530,573;  238,350; 1494,113;182,53621
1084,55; 2466,419;  225,119; 1450,652;182,88374
1085,09; 2457,342;  247,658; 1436,344;185,89296
1085,63; 2414,342;  223,427; 1433,652;181,03372
1086,17; 2392,727;  214,273; 1409,037;182,33348
1086,71; 2330,112;  226,042; 1363,960;184,90528
1087,24; 2351,496;  255,042; 1414,575;180,80162
1087,78; 2327,188;  246,735; 1389,037;182,12819
1088,32; 2251,265;  202,273; 1326,652;182,23327
1088,86; 2277,342;  243,504; 1357,421;182,58433
1089,40; 2254,881;  233,812; 1338,267;182,99232
1089,94; 2165,958;  203,888; 1270,421;183,96710
1090,48; 2176,727;  235,196; 1269,498;187,71412
1091,02; 2165,881;  243,735; 1276,113;186,18612
1091,56; 2125,881;  228,504; 1258,267;184,25367
1092,10; 2080,342;  214,965; 1212,421;187,01350
1092,63; 2100,573;  248,658; 1234,190;187,91009
1093,17; 2049,650;  239,812; 1216,113;185,37692
1093,71; 2026,650;  217,965; 1210,729;182,18686
1094,25; 1995,188;  261,888; 1200,190;184,72732
1094,79; 1964,881;  224,812; 1174,575;183,21080
1095,33; 1962,265;  227,735; 1160,267;186,00214
1095,87; 1931,881;  226,965; 1149,960;184,71571
1096,40; 1851,958;  210,350; 1115,575;181,34803
1096,94; 1877,188;  228,119; 1111,652;186,64496
1097,48; 1862,265;  244,196; 1122,267;184,27541
1098,02; 1826,804;  223,196; 1093,421;184,27507
1098,56; 1783,265;  196,427; 1057,421;184,30303
1099,10; 1758,419;  205,196; 1047,806;184,33484
1099,63; 1747,419;  206,196; 1042,113;184,37506
1100,17; 1756,881;  234,581; 1050,344;186,61047
1100,71; 1759,573;  254,042; 1052,190;188,62800

