
Integration time [ms]: 160,000
Averaging Nr. [scans]: 13
Smoothing Nr. [pixels]: 0
Data measured with spectrometer [name]: 2009305U1
Wave   ;Sample   ;Dark     ;Reference;Reflectance
[nm]   ;[counts] ;[counts] ;[counts] ;[%]

 175,72;  218,514;  199,741;  200,777;1811,88966
 176,32;  233,787;  225,729;  223,979; 0,00000
 176,92;  275,798;  254,352;  256,468;1013,48789
 177,52;  266,462;  261,585;  265,454;126,04363
 178,12;  256,462;  246,191;  228,377; 0,00000
 178,72;  278,024;  256,803;  258,493;1255,39269
 179,32;  273,467;  250,652;  234,314; 0,00000
 179,92;  261,916;  255,041;  253,110; 0,00000
 180,52;  247,919;  243,055;  255,886;37,90957
 181,12;  271,241;  258,888;  259,497; 0,00000
 181,73;  292,011;  266,427;  278,520;211,56755
 182,33;  376,026;  358,357;  354,615; 0,00000
 182,93;  286,489;  274,431;  274,023; 0,00000
 183,53;  249,261;  246,416;  233,568; 0,00000
 184,13;  252,064;  235,495;  227,035; 0,00000
 184,73;  296,662;  285,799;  287,378;687,98488
 185,33;  281,023;  228,805;  366,277;37,98422
 185,93;  283,553;  235,412;  372,564;35,10058
 186,53;  303,067;  256,186;  398,310;32,98595
 187,13;  319,350;  279,426;  434,595;25,72930
 187,73;  288,758;  244,875;  373,249;34,18375
 188,33;  285,349;  250,255;  386,995;25,66472
 188,93;  304,953;  255,162;  385,621;38,16604
 189,53;  290,018;  257,227;  401,302;22,75946
 190,13;  316,061;  280,670;  423,850;24,71774
 190,73;  263,752;  224,529;  378,443;25,48340
 191,34;  297,797;  264,081;  410,691;22,99688
 191,94;  281,444;  245,019;  377,905;27,41051
 192,54;  295,147;  247,664;  427,510;26,40193
 193,14;  302,090;  261,733;  418,542;25,73667
 193,74;  307,454;  262,654;  401,356;32,29961
 194,34;  299,247;  254,966;  402,972;29,91844
 194,94;  256,425;  221,040;  376,033;22,83006
 195,54;  242,762;  216,190;  352,702;19,46474
 196,14;  267,379;  226,891;  382,071;26,09092
 196,74;  266,144;  220,111;  382,041;28,42747
 197,34;  240,983;  197,127;  382,736;23,62809
 197,94;  284,270;  232,119;  400,126;31,04119
 198,54;  291,751;  246,429;  416,944;26,57939
 199,14;  265,603;  216,900;  396,880;27,05998
 199,74;  244,114;  199,515;  409,619;21,22670
 200,34;  245,152;  201,978;  416,946;20,08384
 200,94;  292,255;  239,588;  444,800;25,66487
 201,54;  265,761;  217,744;  468,718;19,13197
 202,14;  300,727;  243,442;  505,674;21,84534
 202,74;  267,978;  222,361;  498,991;16,49008
 203,34;  256,800;  195,523;  523,337;18,69273
 203,94;  229,436;  170,751;  524,984;16,56694
 204,54;  312,788;  249,427;  608,671;17,63732
 205,14;  257,206;  199,361;  622,984;13,65466
 205,74;  317,471;  246,446;  720,243;14,99057
 206,34;  277,512;  203,288;  737,115;13,90408
 206,94;  280,424;  212,364;  803,280;11,51776
 207,54;  265,453;  194,057;  837,333;11,09880
 208,14;  269,479;  211,443;  913,379; 8,26803
 208,74;  289,685;  209,207; 1013,510;10,00593
 209,34;  290,776;  206,516; 1117,044; 9,25395
 209,94;  317,818;  216,285; 1207,131;10,24715
 210,54;  318,579;  204,290; 1327,188;10,17805
 211,14;  321,873;  209,977; 1436,345; 9,12422
 211,73;  331,166;  215,667; 1572,019; 8,51541
 212,33;  354,129;  226,049; 1695,753; 8,71466
 212,93;  359,740;  207,822; 1770,108; 9,72407
 213,53;  324,273;  182,746; 1835,326; 8,56402
 214,13;  371,472;  200,988; 1950,535; 9,74448
 214,73;  341,881;  191,288; 1957,212; 8,52772
 215,33;  336,587;  172,208; 1999,362; 8,99649
 215,93;  378,347;  210,907; 2119,819; 8,77150
 216,53;  353,936;  164,822; 2217,580; 9,21271
 217,13;  405,539;  227,136; 2448,261; 8,03210
 217,73;  419,061;  191,369; 2666,066; 9,20083
 218,33;  388,640;  171,989; 2838,762; 8,12408
 218,93;  459,079;  196,459; 3204,207; 8,73144
 219,53;  495,612;  195,220; 3533,962; 8,99717
 220,13;  486,488;  160,837; 3850,961; 8,82495
 220,73;  553,225;  188,208; 4281,994; 8,91636
 221,32;  610,070;  200,899; 4687,125; 9,12059
 221,92;  638,635;  199,298; 5129,848; 8,91052
 222,52;  663,736;  167,215; 5602,925; 9,13442
 223,12;  719,192;  184,523; 6053,373; 9,11027
 223,72;  775,857;  196,293; 6476,650; 9,22820
 224,32;  841,799;  194,370; 6900,583; 9,65416
 224,92;  832,851;  167,678; 7203,560; 9,45401
 225,52;  918,089;  207,748; 7625,096; 9,57674
 226,12;  941,093;  188,598; 7945,856; 9,70053
 226,72;  949,061;  159,674; 8322,566; 9,67044
 227,31; 1000,037;  155,674; 8696,466; 9,88623
 227,91; 1090,291;  194,671; 9121,351;10,03307
 228,51; 1125,348;  181,896; 9490,110;10,13570
 229,11; 1189,464;  195,135; 9947,630;10,19563
 229,71; 1225,358;  175,668;10228,115;10,44213
 230,31; 1282,958;  165,218;10718,251;10,59165
 230,91; 1344,083;  160,278;11047,928;10,87292
 231,51; 1399,883;  168,061;11349,350;11,01681
 232,10; 1511,664;  167,758;11737,016;11,61618
 232,70; 1549,939;  186,735;11999,664;11,53993
 233,30; 1631,737;  202,829;12239,986;11,87081
 233,90; 1639,405;  173,906;12300,963;12,08454
 234,50; 1703,178;  179,061;12417,146;12,45389
 235,10; 1758,466;  172,909;12458,944;12,90536
 235,70; 1880,767;  198,209;12575,100;13,59435
 236,29; 1872,881;  196,976;12452,520;13,67467
 236,89; 1898,192;  164,048;12281,757;14,31082
 237,49; 1979,619;  194,982;12162,422;14,91244
 238,09; 1943,589;  180,826;11817,192;15,14874
 238,69; 1993,582;  218,045;11505,502;15,73018
 239,29; 1986,342;  182,980;11125,113;16,48090
 239,89; 1949,370;  192,125;10743,781;16,65374
 240,48; 1921,641;  177,596;10312,169;17,20887
 241,08; 1938,553;  167,440; 9918,872;18,16259
 241,68; 1908,777;  195,442; 9593,874;18,23001
 242,28; 1881,293;  163,444; 9193,819;19,02301
 242,88; 1915,214;  214,834; 8861,428;19,66531
 243,48; 1910,416;  210,674; 8590,298;20,28422
 244,07; 1846,881;  180,671; 8300,943;20,51915
 244,67; 1889,424;  194,981; 8093,088;21,45378
 245,27; 1877,550;  194,667; 7997,019;21,56893
 245,87; 1924,736;  199,679; 7911,656;22,36854
 246,47; 1915,114;  196,590; 7831,043;22,51011
 247,06; 1914,175;  177,210; 7850,293;22,63712
 247,66; 1974,377;  186,904; 7992,433;22,90009
 248,26; 2062,964;  218,514; 8116,764;23,35264
 248,86; 2116,751;  202,129; 8336,982;23,53604
 249,46; 2154,141;  152,830; 8599,688;23,69296
 250,05; 2279,311;  204,365; 9042,229;23,47792
 250,65; 2371,149;  167,820; 9488,093;23,64018
 251,25; 2491,005;  178,286;10021,829;23,49478
 251,85; 2663,718;  182,894;10653,323;23,69362
 252,44; 2783,814;  149,515;11376,948;23,46306
 253,04; 2994,532;  198,362;12268,532;23,16596
 253,64; 3133,890;  144,588;13140,502;23,00186
 254,24; 3414,646;  200,287;14187,567;22,98059
 254,84; 3616,756;  176,522;15338,996;22,68913
 255,43; 3838,695;  181,361;16441,168;22,49309
 256,03; 4040,730;  189,358;17674,950;22,02598
 256,63; 4336,090;  192,278;18907,965;22,14085
 257,23; 4507,125;  171,663;19978,647;21,88855
 257,82; 4775,541;  194,582;21230,937;21,77639
 258,42; 4880,526;  155,042;22375,919;21,26596
 259,02; 5118,471;  208,977;23416,897;21,15439
 259,62; 5248,155;  174,348;24318,953;21,01425
 260,21; 5341,442;  184,976;25013,690;20,76815
 260,81; 5425,225;  183,213;25624,225;20,60457
 261,41; 5491,780;  171,889;26292,804;20,36640
 262,01; 5612,494;  211,654;26975,282;20,17978
 262,60; 5565,740;  174,663;27463,031;19,75595
 263,20; 5623,489;  171,974;27904,384;19,65756
 263,80; 5618,048;  201,654;28229,185;19,32526
 264,40; 5573,203;  169,732;28449,208;19,10739
 264,99; 5562,669;  192,961;28660,660;18,86246
 265,59; 5507,809;  179,340;28893,972;18,55663
 266,19; 5512,020;  161,270;29175,386;18,44189
 266,78; 5503,838;  219,651;29399,987;18,10872
 267,38; 5406,641;  190,264;29352,707;17,88731
 267,98; 5322,937;  179,959;29466,465;17,56091
 268,58; 5329,155;  183,957;29493,222;17,55485
 269,17; 5253,063;  177,337;29577,473;17,26429
 269,77; 5188,208;  189,123;29266,106;17,19259
 270,37; 5110,915;  153,346;29253,102;17,03646
 270,96; 5049,605;  224,736;29001,887;16,76632
 271,56; 4899,604;  177,971;28718,942;16,54335
 272,16; 4827,182;  183,427;28531,176;16,38139
 272,75; 4796,370;  179,735;28438,781;16,33684
 273,35; 4741,074;  180,968;28492,693;16,10678
 273,95; 4705,651;  188,813;28468,674;15,97192
 274,54; 4686,788;  176,134;28382,363;15,99170
 275,14; 4725,545;  205,122;28954,428;15,72359
 275,74; 4649,912;  158,504;28965,480;15,59139
 276,33; 4785,171;  207,123;29476,725;15,64096
 276,93; 4833,928;  178,596;29891,483;15,66772
 277,53; 4895,239;  181,053;30469,874;15,56411
 278,12; 4978,181;  160,510;31080,730;15,58097
 278,72; 5170,770;  219,668;31838,915;15,65851
 279,32; 5253,763;  182,590;32489,494;15,69687
 279,91; 5348,854;  161,127;33366,067;15,62336
 280,51; 5539,248;  184,899;34012,841;15,82818
 281,11; 5704,675;  170,358;34876,889;15,94604
 281,70; 5831,554;  155,050;35308,164;16,14794
 282,30; 5998,912;  166,125;36176,249;16,19763
 282,90; 6111,951;  178,201;36604,099;16,28992
 283,49; 6345,354;  190,583;37302,355;16,58442
 284,09; 6505,200;  212,588;37743,355;16,76654
 284,69; 6691,908;  211,128;38090,989;17,10877
 285,28; 6865,074;  192,818;38595,308;17,37454
 285,88; 7074,530;  248,197;38774,102;17,71881
 286,47; 7133,287;  190,509;39004,667;17,88723
 287,07; 7376,637;  210,590;38992,293;18,47791
 287,67; 7591,108;  196,367;39142,990;18,98686
 288,26; 7770,332;  173,974;39033,454;19,54827
 288,86; 8086,237;  181,973;39203,121;20,25636
 289,46; 8316,491;  208,974;39328,621;20,72492
 290,05; 8586,109;  171,440;39402,244;21,44914
 290,65; 9022,473;  184,662;39742,250;22,34163
 291,24; 9369,810;  189,206;39857,457;23,14346
 291,84; 9788,552;  190,586;39984,888;24,11894
 292,44;10099,690;  193,367;40181,331;24,77326
 293,03;10508,028;  262,898;40338,407;25,56457
 293,63;10828,234;  185,047;40528,691;26,38132
 294,22;11189,303;  206,204;40706,632;27,11848
 294,82;11417,520;  185,271;40767,174;27,67798
 295,41;11605,862;  173,511;40305,933;28,48657
 296,01;11839,947;  219,196;40292,531;28,99871
 296,61;11979,133;  206,129;39981,129;29,59900
 297,20;12014,493;  193,504;39570,490;30,02004
 297,80;12179,314;  201,518;39286,775;30,64530
 298,39;12108,795;  173,586;38834,323;30,87165
 298,99;12240,938;  216,967;38727,141;31,22284
 299,58;12254,374;  203,981;38503,349;31,46369
 300,18;12332,990;  206,979;38361,926;31,78097
 300,78;12286,796;  181,823;37955,038;32,04645
 301,37;12389,154;  200,037;37824,584;32,39671
 301,97;12458,774;  195,051;37965,521;32,46908
 302,56;12481,920;  176,124;37860,577;32,65483
 303,16;12523,152;  171,738;37803,792;32,82152
 303,75;12573,902;  179,439;37750,475;32,98941
 304,35;12706,515;  174,062;38078,968;33,06288
 304,94;12760,399;  180,359;38045,641;33,22315
 305,54;12767,993;  205,438;37956,894;33,27701
 306,13;12771,780;  162,139;37817,650;33,48684
 306,73;12704,576;  169,060;37699,181;33,40122
 307,33;12784,831;  199,905;37580,566;33,66694
 307,92;12805,130;  196,668;37708,122;33,61230
 308,52;12968,118;  176,584;38301,649;33,55151
 309,11;13216,621;  177,426;38836,983;33,72826
 309,71;13355,122;  162,654;39062,178;33,91421
 310,30;13520,865;  175,206;39374,979;34,04525
 310,90;13736,557;  219,821;39805,209;34,14577
 311,49;13783,344;  186,205;40051,196;34,10797
 312,09;13846,168;  156,979;40225,718;34,16426
 312,68;14125,273;  238,592;40678,326;34,33920
 313,28;14113,592;  156,745;40746,738;34,38495
 313,87;14169,228;  143,744;40970,885;34,35333
 314,47;14345,813;  181,120;41423,848;34,34470
 315,06;14315,653;  166,822;41394,219;34,31900
 315,66;14441,707;  167,364;41750,334;34,32738
 316,25;14369,596;  144,431;41409,652;34,47253
 316,85;14376,615;  146,979;41637,354;34,29623
 317,44;14481,513;  169,580;41819,484;34,36246
 318,04;14427,976;  157,048;41725,507;34,33115
 318,63;14417,435;  161,060;41782,846;34,25219
 319,22;14417,181;  174,354;42126,384;33,95027
 319,82;14461,846;  175,741;42131,854;34,05011
 320,41;14381,215;  189,816;41995,758;33,94589
 321,01;14376,983;  194,978;42176,428;33,78160
 321,60;14377,548;  184,742;42249,743;33,74018
 322,20;14277,293;  164,283;42279,165;33,51074
 322,79;14341,127;  206,129;42434,961;33,47239
 323,39;14355,548;  178,753;42486,859;33,50846
 323,98;14278,223;  157,592;42432,433;33,40197
 324,58;14309,438;  167,199;42297,084;33,56819
 325,17;14169,387;  170,662;42200,899;33,30632
 325,76;14053,923;  190,897;41944,354;33,20210
 326,36;13890,715;  150,363;41454,047;33,26665
 326,95;13782,197;  195,973;41194,502;33,13832
 327,55;13623,772;  157,741;40819,014;33,11758
 328,14;13418,552;  166,365;40385,196;32,95020
 328,74;13185,486;  196,354;39859,146;32,74891
 329,33;13131,564;  187,286;39413,361;32,99917
 329,92;12829,169;  163,811;38764,795;32,81097
 330,52;12561,829;  188,673;37956,005;32,76153
 331,11;12342,483;  175,665;37483,716;32,61178
 331,71;12101,469;  179,589;36868,297;32,49469
 332,30;11929,092;  196,436;36296,949;32,49997
 332,89;11700,736;  235,285;35572,425;32,44589
 333,49;11486,825;  192,588;34988,783;32,45825
 334,08;11251,144;  185,510;34527,656;32,22173
 334,68;11044,335;  175,126;34029,115;32,10614
 335,27;10888,434;  193,366;33538,670;32,07368
 335,86;10827,945;  232,972;33293,101;32,04758
 336,46;10682,674;  193,213;32980,021;31,99293
 337,05;10559,151;  175,126;32833,770;31,79564
 337,65;10518,270;  162,433;32586,472;31,93876
 338,24;10528,571;  204,976;32609,051;31,85894
 338,83;10439,337;  200,976;32374,352;31,82246
 339,43;10427,298;  165,277;32404,926;31,83044
 340,02;10356,254;  179,430;32310,893;31,67246
 340,61;10376,872;  178,976;32399,554;31,65026
 341,21;10443,947;  206,277;32414,685;31,78571
 341,80;10388,965;  180,356;32314,864;31,76837
 342,40;10380,903;  173,058;32469,075;31,60713
 342,99;10467,813;  169,747;32633,271;31,72196
 343,58;10514,718;  175,363;32798,054;31,69375
 344,18;10560,417;  192,209;32955,244;31,64605
 344,77;10653,140;  168,969;33314,896;31,63034
 345,36;10755,044;  161,434;33686,117;31,59943
 345,96;10895,589;  196,516;34056,000;31,59845
 346,55;10929,865;  179,446;34413,133;31,40304
 347,14;11029,556;  157,519;34758,225;31,42143
 347,74;11238,152;  152,451;35301,062;31,53951
 348,33;11455,661;  178,912;36095,701;31,39688
 348,92;11689,183;  176,839;36779,699;31,45204
 349,52;11848,664;  153,145;37329,362;31,45968
 350,11;11915,364;  168,660;37571,706;31,40574
 350,70;11897,450;  172,514;37759,403;31,19422
 351,29;11793,351;  147,112;37369,117;31,28859
 351,89;11855,224;  194,426;37340,471;31,39176
 352,48;11837,798;  155,283;37439,253;31,33388
 353,07;11846,585;  184,136;37413,970;31,32555
 353,67;11817,126;  194,147;37241,401;31,37339
 354,26;11674,876;  178,212;36934,891;31,27776
 354,85;11637,960;  175,056;36891,581;31,22001
 355,45;11540,318;  153,894;36537,727;31,29528
 356,04;11493,284;  183,752;36509,930;31,13328
 356,63;11500,515;  202,358;36247,314;31,34463
 357,22;11360,339;  188,807;36150,798;31,06483
 357,82;11318,138;  181,040;35862,643;31,21244
 358,41;11278,439;  195,897;35670,414;31,24085
 359,00;11200,079;  157,816;35416,899;31,31750
 359,60;11169,405;  179,822;35389,155;31,21213
 360,19;11154,263;  200,060;35155,398;31,33771
 360,78;11075,784;  180,356;34966,295;31,32136
 361,37;10987,064;  184,972;34661,650;31,33159
 361,97;10979,060;  182,050;34589,889;31,37950
 362,56;10900,148;  172,660;34176,224;31,54813
 363,15;10797,519;  223,895;33867,536;31,42830
 363,74;10658,490;  187,504;33534,714;31,39989
 364,34;10500,941;  200,585;33058,417;31,34825
 364,93;10350,424;  170,352;32472,319;31,51533
 365,52;10185,252;  149,511;31996,178;31,51269
 366,11;10105,322;  182,200;31660,103;31,52409
 366,71; 9940,489;  175,508;31199,307;31,47577
 367,30; 9844,634;  171,665;30815,094;31,56621
 367,89; 9759,129;  214,748;30544,715;31,46848
 368,48; 9650,666;  193,582;30179,808;31,53809
 369,07; 9492,681;  187,052;29522,711;31,72122
 369,67; 9423,658;  206,198;29218,710;31,77064
 370,26; 9337,164;  177,360;28888,112;31,90374
 370,85; 9213,163;  185,126;28556,666;31,82075
 371,44; 9172,601;  184,896;28357,435;31,90236
 372,03; 9061,338;  154,200;28132,391;31,83600
 372,63; 8951,336;  157,973;27646,214;31,98954
 373,22; 8897,391;  171,206;27237,698;32,23981
 373,81; 8791,228;  153,280;26869,231;32,33255
 374,40; 8706,641;  173,288;26611,169;32,27699
 374,99; 8644,457;  165,664;26272,286;32,47756
 375,59; 8530,557;  165,980;25907,594;32,49438
 376,18; 8593,722;  201,664;25786,737;32,80060
 376,77; 8482,519;  198,205;25584,959;32,63243
 377,36; 8512,587;  204,203;25603,593;32,71096
 377,95; 8400,587;  194,739;25167,785;32,85882
 378,55; 8338,675;  172,440;24949,659;32,95864
 379,14; 8345,114;  193,434;24881,312;33,01896
 379,73; 8363,302;  174,355;24717,955;33,36490
 380,32; 8390,380;  194,589;24783,324;33,33149
 380,91; 8365,879;  174,967;24615,513;33,51362
 381,50; 8391,659;  190,814;24568,194;33,64121
 382,10; 8365,534;  168,589;24405,939;33,81948
 382,69; 8423,769;  152,972;24328,931;34,21083
 383,28; 8481,651;  203,276;24238,789;34,44226
 383,87; 8367,934;  172,661;24083,843;34,27381
 384,46; 8434,480;  175,425;24047,479;34,59717
 385,05; 8512,570;  202,199;24006,759;34,91083
 385,64; 8580,169;  195,123;24065,872;35,12686
 386,24; 8499,612;  159,501;23942,693;35,06725
 386,83; 8669,300;  203,193;24066,663;35,47727
 387,42; 8748,960;  199,431;24173,658;35,66133
 388,01; 8859,968;  184,111;24341,640;35,91368
 388,60; 9041,408;  193,118;24709,739;36,09098
 389,19; 9160,178;  175,259;24923,684;36,30502
 389,78; 9298,162;  175,260;25264,489;36,36183
 390,37; 9607,218;  238,806;25707,842;36,78354
 390,96; 9670,757;  177,501;25862,265;36,96065
 391,56; 9822,625;  179,103;26100,820;37,20248
 392,15; 9972,508;  169,184;26383,893;37,39627
 392,74;10121,281;  156,633;26661,230;37,59593
 393,33;10341,827;  173,486;27021,151;37,87421
 393,92;10563,008;  184,859;27416,297;38,11091
 394,51;10742,125;  161,486;27625,647;38,52526
 395,10;10911,952;  204,385;27911,868;38,64504
 395,69;11067,059;  193,156;28069,635;39,00745
 396,28;11145,952;  203,303;28244,714;39,02318
 396,87;11272,525;  201,830;28278,280;39,43054
 397,46;11353,927;  202,977;28389,844;39,56080
 398,06;11539,300;  223,583;28684,409;39,75892
 398,65;11631,385;  186,330;28773,929;40,03503
 399,24;11809,238;  208,403;28930,889;40,38939
 399,83;11882,241;  189,754;28943,818;40,66377
 400,42;12031,794;  234,878;29129,852;40,82688
 401,01;12156,922;  199,152;29283,114;41,11465
 401,60;12283,078;  212,721;29237,521;41,58636
 402,19;12256,002;  226,300;29180,389;41,54751
 402,78;12357,464;  237,243;29238,004;41,79277
 403,37;12312,549;  229,421;29088,693;41,86914
 403,96;12356,040;  220,819;28866,323;42,36344
 404,55;12444,444;  224,826;28737,408;42,85693
 405,14;12420,264;  214,686;28590,262;43,01438
 405,73;12427,933;  223,688;28460,261;43,22141
 406,32;12525,724;  226,561;28439,831;43,59354
 406,91;12467,086;  222,888;28051,176;43,99911
 407,50;12460,306;  233,397;27885,955;44,21619
 408,09;12360,598;  199,914;27519,244;44,51311
 408,68;12402,068;  216,822;27407,573;44,81394
 409,27;12351,641;  203,611;27184,332;45,02485
 409,86;12367,548;  214,194;26963,467;45,43433
 410,45;12392,250;  245,386;26892,896;45,58349
 411,04;12484,993;  254,194;26825,042;46,03089
 411,63;12317,735;  239,245;26454,305;46,07462
 412,22;12286,850;  236,983;26181,055;46,44555
 412,81;12189,099;  248,845;25852,388;46,63516
 413,40;12090,283;  256,482;25492,080;46,89329
 413,99;12019,711;  300,244;25065,382;47,32244
 414,58;11804,166;  230,633;24623,115;47,44713
 415,17;11809,764;  237,999;24339,435;48,01276
 415,76;11758,971;  227,443;24224,896;48,05313
 416,35;11674,488;  228,683;23937,803;48,27596
 416,94;11826,902;  254,678;24051,686;48,62891
 417,53;12046,941;  227,770;24292,628;49,11382
 418,12;12220,857;  232,082;24383,438;49,64017
 418,71;12455,379;  256,790;24860,397;49,58049
 419,30;12579,108;  246,699;24968,470;49,88481
 419,89;12820,107;  223,010;25135,525;50,56534
 420,48;13015,594;  255,252;25478,878;50,58885
 421,07;13160,710;  247,640;25620,321;50,89360
 421,66;13223,156;  216,496;25646,264;51,14738
 422,25;13283,973;  228,590;25592,673;51,47193
 422,84;13323,778;  261,517;25527,800;51,69839
 423,43;13209,774;  236,509;25232,040;51,90234
 424,02;13174,813;  259,282;24872,944;52,47301
 424,60;12903,447;  237,766;24363,300;52,49907
 425,19;12804,377;  245,831;23974,682;52,92522
 425,78;12851,108;  255,679;23951,779;53,15402
 426,37;12807,112;  258,456;23789,385;53,32835
 426,96;12789,930;  245,302;23649,740;53,59936
 427,55;12743,386;  243,545;23412,611;53,95056
 428,14;12642,597;  224,243;23232,847;53,97265
 428,73;12585,977;  231,617;22975,895;54,31854
 429,32;12584,215;  262,608;22932,162;54,35311
 429,91;12731,458;  266,310;22943,828;54,96699
 430,50;12605,325;  261,778;22755,783;54,87483
 431,08;12632,859;  267,477;22570,407;55,44286
 431,67;12563,974;  310,329;22488,042;55,25207
 432,26;12509,132;  331,180;22151,918;55,80908
 432,85;12340,151;  348,563;21789,120;55,92946
 433,44;12147,842;  362,110;21347,251;56,16227
 434,03;11919,552;  365,506;20946,123;56,14043
 434,62;11678,412;  318,957;20417,157;56,51977
 435,21;11618,140;  340,333;20272,631;56,58057
 435,79;11553,008;  322,579;20002,340;57,06588
 436,38;11504,786;  326,897;19925,091;57,03530
 436,97;11443,243;  325,437;19817,408;57,03788
 437,56;11359,498;  314,992;19562,777;57,38066
 438,15;11363,699;  290,680;19476,971;57,71318
 438,74;11444,578;  313,605;19481,053;58,07227
 439,33;11449,846;  287,757;19497,165;58,10741
 439,91;11471,803;  245,303;19573,117;58,08469
 440,50;11607,795;  306,303;19638,558;58,45925
 441,09;11694,155;  288,544;19760,150;58,57561
 441,68;11659,087;  282,322;19706,655;58,56966
 442,27;11711,350;  270,011;19745,945;58,74603
 442,86;11736,765;  245,955;19721,175;59,00221
 443,44;11792,836;  261,104;19793,776;59,03817
 444,03;11875,965;  328,878;19820,061;59,24262
 444,62;11881,030;  264,647;19679,318;59,83301
 445,21;11759,057;  269,568;19445,079;59,91751
 445,80;11712,561;  289,118;19372,359;59,86113
 446,39;11594,749;  337,962;19011,849;60,28090
 446,97;11382,301;  250,821;18840,960;59,87841
 447,56;11329,274;  257,215;18524,084;60,61279
 448,15;11191,701;  260,282;18337,402;60,47102
 448,74;11109,521;  280,514;18026,394;61,02265
 449,33;10978,370;  259,983;17866,055;60,87892
 449,91;10892,055;  251,455;17570,442;61,43893
 450,50;10735,388;  259,991;17297,350;61,48486
 451,09;10663,630;  285,839;17226,339;61,26024
 451,68;10607,362;  300,997;17102,804;61,34081
 452,26;10584,423;  283,772;17030,593;61,50810
 452,85;10516,623;  268,230;16936,648;61,48389
 453,44;10546,230;  290,014;16939,936;61,59918
 454,03;10524,594;  256,390;16846,173;61,89474
 454,61;10505,308;  250,169;16820,266;61,88943
 455,20;10682,010;  277,174;17078,617;61,92823
 455,79;10712,312;  289,165;16986,449;62,42420
 456,38;10794,396;  296,567;17164,678;62,23476
 456,97;10871,205;  266,026;17172,028;62,73026
 457,55;10860,841;  273,725;17172,291;62,65097
 458,14;10941,239;  286,409;17167,825;63,11574
 458,73;10812,996;  283,264;17100,544;62,61257
 459,31;10933,820;  312,042;17137,143;63,13054
 459,90;10991,207;  316,422;17295,920;62,86868
 460,49;11121,456;  364,958;17361,483;63,28645
 461,08;11121,297;  279,970;17441,739;63,17138
 461,66;11236,312;  281,504;17518,719;63,55324
 462,25;11298,573;  282,128;17645,449;63,44665
 462,84;11353,990;  315,740;17659,377;63,64438
 463,43;11286,373;  252,676;17615,201;63,54892
 464,01;11351,890;  279,989;17602,723;63,91544
 464,60;11367,744;  335,211;17568,320;64,01940
 465,19;11120,746;  270,376;17198,651;64,09613
 465,77;11150,346;  283,765;17229,824;64,12453
 466,36;11050,309;  312,984;17093,712;63,98605
 466,95;10876,886;  293,062;16713,962;64,45337
 467,53;10640,131;  288,694;16421,750;64,16290
 468,12;10429,155;  316,849;16087,943;64,11924
 468,71;10257,695;  296,300;15790,389;64,29158
 469,29;10052,141;  272,850;15529,832;64,09715
 469,88; 9905,174;  273,316;15166,261;64,67397
 470,47;10044,942;  345,017;15330,777;64,72762
 471,06; 9993,155;  297,402;15300,251;64,62608
 471,64;10079,130;  298,169;15390,728;64,80651
 472,23;10082,472;  275,262;15451,756;64,62105
 472,81;10139,200;  270,331;15582,845;64,44970
 473,40;10317,263;  278,186;15703,080;65,08360
 473,99;10525,365;  372,724;15886,104;65,44441
 474,57;10617,742;  285,724;16111,606;65,28558
 475,16;10699,873;  299,487;16293,259;65,02773
 475,75;10795,917;  322,884;16323,869;65,45243
 476,33;10916,895;  314,275;16490,199;65,54568
 476,92;10946,093;  308,033;16548,808;65,50217
 477,51;11007,851;  310,580;16611,204;65,62492
 478,09;10995,746;  306,503;16621,328;65,51859
 478,68;11005,987;  305,352;16593,948;65,69403
 479,27;10969,348;  338,884;16548,293;65,58206
 479,85;11009,017;  318,275;16619,600;65,58204
 480,44;11102,904;  302,355;16731,357;65,74075
 481,02;12137,149;  312,515;18562,738;64,79172
 481,61;13715,856;  343,127;20852,679;65,20244
 482,20;14745,288;  334,207;22219,373;65,84862
 482,78;15423,610;  356,507;23124,545;66,17655
 483,37;15823,382;  342,908;23711,206;66,24562
 483,95;16104,440;  374,295;24099,851;66,30043
 484,54;16242,239;  382,434;24269,195;66,39580
 485,13;16167,923;  355,841;24152,213;66,44745
 485,71;16023,221;  326,223;23848,593;66,73221
 486,30;15833,732;  377,915;23463,717;66,94945
 486,88;15528,621;  413,532;23027,458;66,83974
 487,47;14973,894;  387,919;22239,507;66,75019
 488,05;14281,794;  380,461;21146,391;66,94299
 488,64;13244,874;  369,775;19587,667;66,99538
 489,23;11793,864;  381,232;17362,008;67,20913
 489,81;10038,547;  380,003;14888,772;66,57039
 490,40; 9543,198;  335,928;14300,400;65,93353
 490,98; 9337,371;  316,777;13995,218;65,94753
 491,57; 9258,444;  340,156;13902,419;65,75811
 492,15; 9238,948;  325,624;13829,391;66,00620
 492,74; 9160,057;  326,308;13651,066;66,29575
 493,32; 9043,429;  345,392;13579,669;65,72355
 493,91; 8988,180;  317,089;13407,144;66,24182
 494,50; 8919,177;  330,793;13387,330;65,77842
 495,08; 8862,850;  317,947;13341,859;65,60935
 495,67; 8906,179;  339,780;13260,352;66,30046
 496,25; 8760,348;  278,326;13179,140;65,74796
 496,84; 8738,249;  276,626;13171,008;65,62255
 497,42; 8683,668;  279,866;13083,075;65,63824
 498,01; 8681,168;  311,474;12980,017;66,06674
 498,59; 8574,669;  275,714;12968,559;65,38294
 499,18; 8546,710;  272,474;12887,124;65,59228
 499,76; 8506,871;  299,941;12776,083;65,78099
 500,35; 8315,849;  282,412;12581,990;65,31474
 500,93; 8273,685;  284,943;12532,293;65,22834
 501,52; 8200,838;  276,329;12419,462;65,25918
 502,10; 8233,514;  288,801;12366,037;65,78254
 502,69; 8037,904;  272,729;12183,358;65,19534
 503,27; 7901,313;  249,025;11948,958;65,40455
 503,86; 7897,680;  267,496;11872,356;65,74990
 504,44; 7674,097;  255,346;11743,246;64,57883
 505,03; 7576,571;  234,269;11415,450;65,66661
 505,61; 7461,526;  269,037;11260,394;65,43768
 506,19; 7336,691;  272,423;11047,691;65,56002
 506,78; 7168,029;  240,509;10842,267;65,34312
 507,36; 7051,527;  255,653;10682,725;65,17529
 507,95; 6935,806;  248,820;10513,057;65,14840
 508,53; 6835,416;  257,739;10371,812;65,03490
 509,12; 6712,013;  262,434;10229,633;64,70804
 509,70; 6641,016;  275,129;10006,678;65,41494
 510,29; 6489,994;  275,287; 9834,123;65,01531
 510,87; 6307,622;  250,508; 9618,789;64,65555
 511,46; 6194,255;  243,049; 9467,506;64,51552
 512,04; 6089,627;  245,669; 9264,610;64,79650
 512,62; 5956,228;  260,895; 9084,707;64,54504
 513,21; 5842,053;  236,057; 8856,213;65,03358
 513,79; 5758,302;  240,763; 8741,200;64,90888
 514,38; 5601,533;  234,527; 8571,585;64,37529
 514,96; 5552,593;  272,680; 8452,275;64,54981
 515,54; 5424,778;  231,914; 8307,988;64,29936
 516,13; 5348,370;  260,069; 8148,603;64,50250
 516,71; 5252,039;  242,536; 8028,371;64,34124
 517,30; 5143,421;  239,541; 7918,211;63,86367
 517,88; 5075,694;  264,310; 7867,913;63,27769
 518,46; 4999,359;  238,928; 7656,306;64,17943
 519,05; 4922,214;  246,470; 7638,173;63,25665
 519,63; 4910,916;  262,083; 7514,332;64,10194
 520,22; 4844,311;  262,784; 7445,821;63,78259
 520,80; 4780,161;  247,939; 7367,466;63,65904
 521,38; 4773,052;  286,317; 7353,614;63,48586
 521,97; 4683,785;  257,097; 7281,333;63,02021
 522,55; 4684,209;  259,558; 7301,951;62,82880
 523,13; 4654,740;  243,100; 7235,508;63,09186
 523,72; 4616,710;  239,927; 7222,778;62,67902
 524,30; 4734,123;  277,796; 7389,177;62,66472
 524,89; 4713,020;  238,405; 7373,054;62,71667
 525,47; 4786,322;  272,720; 7507,848;62,38454
 526,05; 4815,619;  212,414; 7542,206;62,80131
 526,64; 4879,028;  250,031; 7702,114;62,11682
 527,22; 4968,029;  264,105; 7826,905;62,19818
 527,80; 5040,264;  299,262; 7936,589;62,07672
 528,39; 5069,358;  236,726; 8079,245;61,62090
 528,97; 5148,620;  255,879; 8216,036;61,46539
 529,55; 5300,457;  264,792; 8398,070;61,91433
 530,14; 5417,859;  275,498; 8635,518;61,51135
 530,72; 5455,823;  244,110; 8740,621;61,33945
 531,30; 5543,940;  226,268; 8917,086;61,18724
 531,89; 5622,454;  253,576; 8952,678;61,71761
 532,47; 5646,303;  292,270; 9083,493;60,90202
 533,05; 5691,676;  280,646; 9093,388;61,40007
 533,63; 5704,098;  275,963; 9189,539;60,89739
 534,22; 5734,827;  262,887; 9244,228;60,92565
 534,80; 5767,789;  287,277; 9288,247;60,88801
 535,38; 5869,443;  364,423; 9440,343;60,65523
 535,97; 5742,531;  270,809; 9341,255;60,32473
 536,55; 5826,651;  311,509; 9435,865;60,44418
 537,13; 5769,099;  333,960; 9437,408;59,70419
 537,71; 5792,480;  379,190; 9454,224;59,65035
 538,30; 5823,842;  408,196; 9552,939;59,22142
 538,88; 5888,270;  442,052; 9663,564;59,05992
 539,46; 6016,906;  505,815; 9877,097;58,80829
 540,05; 6066,138;  521,434;10009,619;58,43798
 540,63; 6187,763;  584,127;10211,816;58,20333
 541,21; 6265,672;  616,131;10360,128;57,97971
 541,79; 6304,416;  666,284;10492,643;57,37763
 542,38; 6430,749;  694,510;10649,590;57,62122
 542,96; 6532,454;  715,597;10826,563;57,53018
 543,54; 6645,680;  723,514;11076,303;57,20358
 544,12; 6689,507;  690,747;11230,716;56,91440
 544,70; 6748,063;  678,597;11332,472;56,96956
 545,29; 6845,349;  691,895;11467,071;57,10769
 545,87; 6852,340;  657,515;11489,259;57,19139
 546,45; 6813,792;  609,972;11481,138;57,06673
 547,03; 6849,079;  562,667;11594,568;56,98394
 547,62; 6908,153;  537,593;11769,522;56,71830
 548,20; 7025,000;  539,442;12006,276;56,55928
 548,78; 7027,293;  483,377;12138,565;56,14595
 549,36; 7128,177;  441,684;12306,161;56,35725
 549,94; 7187,469;  400,210;12432,658;56,40796
 550,53; 7296,904;  414,451;12694,266;56,04688
 551,11; 7340,050;  380,149;12908,400;55,55365
 551,69; 7542,540;  393,683;13245,145;55,62680
 552,27; 7617,587;  344,679;13473,800;55,39524
 552,85; 7797,077;  355,302;13872,891;55,05253
 553,44; 8001,709;  351,529;14212,740;55,19128
 554,02; 8155,213;  353,916;14576,943;54,84977
 554,60; 8303,811;  295,842;14918,302;54,76485
 555,18; 8549,614;  330,914;15274,523;54,99809
 555,76; 8718,918;  312,301;15730,070;54,52551
 556,34; 8893,595;  318,539;16110,744;54,29930
 556,93; 9095,815;  304,453;16524,255;54,20141
 557,51; 9266,746;  287,693;16869,583;54,14976
 558,09; 9431,316;  304,761;17256,566;53,83825
 558,67; 9641,988;  307,158;17648,534;53,82981
 559,25; 9763,114;  323,310;18007,696;53,37932
 559,83; 9917,788;  302,546;18345,401;53,29114
 560,41;10046,996;  289,229;18728,400;52,91868
 561,00;10231,859;  307,235;19116,480;52,76460
 561,58;10338,949;  290,921;19327,438;52,78291
 562,16;10450,317;  272,303;19675,550;52,45521
 562,74;10684,866;  278,839;20110,555;52,47164
 563,32;10846,508;  265,930;20529,970;52,21357
 563,90;11062,154;  287,004;20949,892;52,14736
 564,48;11274,551;  296,613;21437,903;51,92653
 565,06;11591,316;  306,927;22127,297;51,71493
 565,65;11912,457;  292,628;22876,478;51,45194
 566,23;12319,973;  340,697;23727,092;51,22327
 566,81;12663,988;  287,617;24510,726;51,09324
 567,39;13135,350;  300,932;25535,594;50,86027
 567,97;13420,374;  314,234;26144,826;50,73883
 568,55;13884,332;  336,622;27166,415;50,49502
 569,13;14200,354;  283,697;27917,393;50,36119
 569,71;14661,729;  294,687;29013,811;50,02605
 570,29;15244,137;  334,992;30096,389;50,09558
 570,87;15581,703;  325,225;30941,688;49,83096
 571,45;15929,889;  325,235;31609,363;49,88042
 572,03;16054,413;  293,548;32143,868;49,48417
 572,61;16356,194;  281,699;32967,164;49,17934
 573,20;16745,845;  314,924;33617,830;49,33780
 573,78;16966,521;  289,699;34373,559;48,92879
 574,36;17258,986;  325,698;34919,934;48,94829
 574,94;17395,246;  382,550;35314,064;48,70300
 575,52;17367,253;  316,019;35552,524;48,39082
 576,10;17688,901;  373,554;36194,068;48,33919
 576,68;17849,453;  361,548;36853,640;47,92245
 577,26;18154,346;  385,714;37576,642;47,77679
 577,84;18323,224;  381,083;38161,201;47,49096
 578,42;18509,698;  431,244;38459,829;47,53912
 579,00;18471,302;  385,238;38593,378;47,33563
 579,58;18451,461;  424,627;38834,084;46,93332
 580,16;18338,878;  396,553;38808,644;46,71010
 580,74;18413,128;  389,476;39054,038;46,61543
 581,32;18377,195;  382,781;39009,879;46,58495
 581,90;18180,662;  424,399;38879,547;46,17396
 582,48;18153,198;  422,091;39172,617;45,75707
 583,06;18124,933;  416,473;39180,820;45,68234
 583,64;18081,683;  412,703;39283,271;45,45593
 584,22;17907,378;  430,328;39106,817;45,18779
 584,80;17646,464;  420,167;38681,591;45,02262
 585,38;17440,791;  448,538;38295,908;44,89679
 585,96;17314,405;  404,085;38219,578;44,71797
 586,54;17262,982;  443,942;38282,212;44,44981
 587,12;17211,717;  402,862;38389,415;44,24949
 587,70;17247,194;  422,778;38481,587;44,20636
 588,28;17192,667;  406,401;38511,753;44,05225
 588,86;17080,586;  413,479;38590,685;43,65722
 589,44;16991,384;  386,333;38608,623;43,44337
 590,02;17014,471;  397,946;38838,781;43,22623
 590,59;17027,305;  371,172;38986,654;43,13330
 591,17;16941,567;  375,033;39198,637;42,67129
 591,75;16957,133;  368,105;39290,821;42,62043
 592,33;16948,786;  373,642;39535,318;42,32491
 592,91;16940,909;  331,262;39761,511;42,12412
 593,49;16990,714;  333,420;40143,947;41,84143
 594,07;17083,498;  355,497;40314,081;41,86335
 594,65;16903,346;  365,789;40319,988;41,39129
 595,23;17006,923;  366,100;40693,046;41,26477
 595,81;17032,261;  349,025;40809,044;41,23388
 596,39;16880,101;  342,564;40992,723;40,68259
 596,97;16949,731;  338,801;41258,565;40,59390
 597,55;16829,376;  340,714;41009,756;40,54352
 598,12;16685,206;  317,960;41111,099;40,12254
 598,70;16690,855;  302,033;41148,397;40,12309
 599,28;16673,277;  340,187;41411,393;39,76774
 599,86;16574,809;  309,955;41385,203;39,59770
 600,44;16563,888;  293,727;41535,941;39,45026
 601,02;16548,697;  339,198;41604,867;39,28084
 601,60;16424,195;  325,798;41550,610;39,05026
 602,18;16264,750;  299,806;41552,575;38,70030
 602,75;16255,011;  298,563;41554,189;38,67702
 603,33;16110,917;  306,264;41695,494;38,18543
 603,91;16084,530;  298,656;41529,371;38,28668
 604,49;16054,413;  323,495;41744,637;37,97799
 605,07;15896,084;  343,490;41730,390;37,57854
 605,65;15883,148;  344,189;41855,071;37,43346
 606,23;15866,264;  419,095;41953,782;37,19101
 606,80;15753,986;  477,178;41965,396;36,82204
 607,38;15673,633;  518,193;41963,994;36,56689
 607,96;15641,847;  578,332;42048,453;36,32378
 608,54;15551,969;  655,958;42069,663;35,96880
 609,12;15516,408;  639,640;42163,546;35,82700
 609,70;15401,556;  687,263;42148,033;35,48968
 610,27;15406,471;  696,254;42161,704;35,47584
 610,85;15401,817;  728,109;42298,070;35,29883
 611,43;15262,535;  731,187;42209,423;35,03367
 612,01;15076,375;  677,104;42004,002;34,84237
 612,59;15018,467;  686,724;42054,983;34,64430
 613,16;14892,095;  639,020;42004,917;34,45610
 613,74;14774,954;  607,879;41892,490;34,31563
 614,32;14776,991;  551,343;41874,679;34,42522
 614,90;14593,184;  507,722;41710,583;34,18564
 615,48;14447,619;  443,637;41340,037;34,24258
 616,05;14289,823;  417,327;41362,814;33,88040
 616,63;14136,872;  428,940;41107,745;33,69797
 617,21;14023,382;  418,562;41058,193;33,47673
 617,79;13949,536;  395,333;40977,077;33,39975
 618,36;13852,136;  409,490;40879,443;33,21636
 618,94;13693,060;  349,561;40506,197;33,22863
 619,52;13530,439;  374,864;40246,952;32,99445
 620,10;13464,547;  360,102;40224,335;32,87269
 620,67;13279,602;  363,940;40124,050;32,48397
 621,25;13162,798;  390,106;39896,483;32,33071
 621,83;13063,380;  351,253;39866,016;32,17058
 622,41;13045,103;  400,868;39882,361;32,02573
 622,98;12845,656;  365,325;39627,033;31,78754
 623,56;12766,680;  367,939;39583,188;31,61714
 624,14;12629,582;  348,031;39486,502;31,37974
 624,72;12493,869;  339,561;39336,969;31,16697
 625,29;12463,178;  332,862;39395,800;31,05326
 625,87;12359,329;  374,564;39315,101;30,77709
 626,45;12253,771;  327,015;39105,145;30,75640
 627,02;12129,875;  337,642;38977,060;30,51866
 627,60;12024,134;  323,419;39002,921;30,25043
 628,18;12022,100;  304,024;39022,700;30,26466
 628,76;11961,445;  309,941;39026,274;30,09455
 629,33;11879,132;  335,328;39137,683;29,75027
 629,91;11878,239;  317,794;39047,566;29,84899
 630,49;11799,069;  358,096;39197,640;29,45702
 631,06;11763,861;  336,941;39275,641;29,34592
 631,64;11685,482;  322,477;39242,001;29,19616
 632,22;11584,977;  291,628;39338,237;28,92274
 632,79;11697,014;  318,859;39573,157;28,98576
 633,37;11577,295;  295,259;39474,226;28,79616
 633,95;11526,453;  300,707;39608,333;28,55870
 634,52;11503,423;  280,637;39778,026;28,41399
 635,10;11389,862;  288,409;39761,510;28,12410
 635,68;11384,143;  294,858;39941,518;27,97029
 636,25;11337,974;  281,392;39949,384;27,87280
 636,83;11323,676;  280,941;40174,351;27,68060
 637,41;11239,849;  277,088;40236,322;27,43486
 637,98;11276,854;  302,549;40428,874;27,34939
 638,56;11208,529;  289,237;40563,656;27,11223
 639,13;11127,468;  288,324;40587,813;26,89648
 639,71;11191,615;  323,326;40792,815;26,85551
 640,29;10986,701;  250,634;40492,388;26,67892
 640,86;10964,388;  261,557;40670,603;26,48623
 641,44;10857,768;  275,173;40661,895;26,20315
 642,02;10837,532;  304,942;40628,879;26,11994
 642,59;10859,065;  258,019;40850,632;26,11570
 643,17;10695,137;  266,404;40893,616;25,66933
 643,74;10697,440;  263,866;40884,446;25,68544
 644,32;10642,743;  298,789;40771,276;25,55799
 644,89;10532,584;  293,174;40824,414;25,26301
 645,47;10482,040;  308,790;40873,860;25,07884
 646,05;10456,651;  290,252;40709,459;25,15240
 646,62;10296,492;  281,329;40667,597;24,79844
 647,20;10283,333;  297,406;40834,043;24,63433
 647,77;10216,405;  268,022;40700,488;24,60494
 648,35;10154,169;  262,406;40662,934;24,48424
 648,92;10167,087;  281,022;40673,072;24,47528
 649,50;10007,698;  250,330;40562,748;24,20437
 650,08; 9954,154;  252,176;40433,501;24,14549
 650,65; 9944,688;  271,715;40672,485;23,94255
 651,23;10026,221;  241,792;41625,239;23,64334
 651,80;10245,370;  249,485;42686,530;23,55462
 652,38;10316,980;  268,562;43115,284;23,45201
 652,95;10331,514;  228,255;43540,806;23,32640
 653,53;10330,971;  268,870;43811,713;23,10851
 654,10;10423,504;  292,409;44030,774;23,16295
 654,68;10258,653;  254,717;43932,066;22,90417
 655,25;10210,571;  237,948;43918,511;22,83080
 655,83;10199,489;  249,333;44067,880;22,70764
 656,40;10164,253;  276,256;44095,710;22,56531
 656,98;10049,633;  250,718;43958,925;22,41894
 657,55; 9960,859;  267,487;43774,294;22,28013
 658,13; 9808,392;  248,411;43248,124;22,23266
 658,70; 9748,387;  270,488;42924,415;22,22046
 659,28; 9439,382;  271,642;41800,015;22,07585
 659,85; 9138,377;  277,950;41111,307;21,69899
 660,43; 9158,449;  284,642;41146,444;21,71663
 661,00; 9115,059;  263,489;41329,352;21,55457
 661,58; 9119,670;  255,566;41576,259;21,45197
 662,15; 9099,896;  242,412;41733,166;21,34809
 662,73; 9230,814;  330,643;42125,765;21,29476
 663,30; 9168,347;  268,336;42366,595;21,14104
 663,88; 9149,957;  270,028;42426,887;21,06402
 664,45; 9160,876;  254,644;42750,025;20,95812
 665,03; 9207,717;  262,952;43118,394;20,87195
 665,60; 9290,019;  335,645;43618,839;20,68788
 666,17; 9241,630;  255,337;43668,285;20,69957
 666,75; 9253,086;  252,107;44082,730;20,53582
 667,32; 9305,312;  278,722;44412,945;20,45259
 667,90; 9283,846;  270,415;44652,775;20,30859
 668,47; 9377,379;  285,338;45028,605;20,32047
 669,05; 9339,374;  254,877;45230,974;20,19850
 669,62; 9336,446;  240,415;45445,266;20,12180
 670,19; 9295,749;  250,262;45426,788;20,02254
 670,77; 9332,282;  258,570;45669,388;19,98139
 671,34; 9249,585;  239,416;45574,449;19,87463
 671,92; 9268,657;  237,186;45965,125;19,75044
 672,49; 9216,959;  268,878;45987,032;19,57227
 673,06; 9156,647;  221,494;46023,093;19,50839
 673,64; 9118,949;  237,340;46026,385;19,39680
 674,21; 9059,098;  227,417;45941,215;19,31951
 674,79; 9107,478;  265,725;46187,584;19,25391
 675,36; 9081,242;  264,649;46322,644;19,14237
 675,93; 9030,083;  233,034;46178,859;19,14657
 676,51; 9032,001;  254,649;46308,997;19,05868
 677,08; 8951,304;  259,496;46503,827;18,79540
 677,65; 8934,991;  256,265;46552,888;18,74592
 678,23; 8921,756;  257,419;46751,334;18,63542
 678,80; 8909,135;  248,650;46858,087;18,58097
 679,38; 8941,669;  247,266;47109,840;18,55298
 679,95; 8966,433;  252,881;47317,747;18,51392
 680,52; 8912,351;  248,112;47656,885;18,27560
 681,10; 9062,961;  275,036;48104,254;18,37355
 681,67; 9047,572;  256,574;48320,699;18,29014
 682,24; 9016,798;  225,190;48404,530;18,24767
 682,82; 9104,793;  235,806;48952,668;18,20517
 683,39; 9211,865;  295,191;49430,421;18,14721
 683,96; 9201,706;  249,114;49508,405;18,17442
 684,54; 9216,162;  222,268;49864,004;18,11761
 685,11; 9303,388;  271,653;50262,527;18,06677
 685,68; 9260,768;  244,499;50754,895;17,85032
 686,25; 9286,840;  233,346;50844,418;17,88837
 686,83; 9279,988;  244,654;51055,017;17,78246
 687,40; 9328,906;  224,500;51346,694;17,80911
 687,97; 9400,748;  275,731;51750,139;17,72729
 688,55; 9351,204;  224,347;51804,892;17,69438
 689,12; 9355,891;  199,347;52041,107;17,66249
 689,69; 9343,194;  225,578;52085,783;17,58114
 690,26; 9366,266;  238,424;52170,768;17,57641
 690,84; 9351,646;  233,348;52441,982;17,46512
 691,41; 9427,795;  252,809;52486,197;17,56536
 691,98; 9442,713;  245,425;52829,643;17,49059
 692,56; 9422,323;  229,271;52997,857;17,42145
 693,13; 9420,010;  287,579;52920,534;17,35117
 693,70; 9409,852;  262,349;53043,979;17,33085
 694,27; 9383,154;  241,503;53282,963;17,23492
 694,84; 9349,149;  231,657;53357,640;17,16202
 695,42; 9443,837;  283,965;53472,855;17,22140
 695,99; 9416,370;  250,734;53747,223;17,13315
 696,56; 9372,596;  241,889;53559,361;17,12517
 697,13; 9449,898;  261,966;53951,114;17,11320
 697,71; 9420,893;  229,043;53976,483;17,10193
 698,28; 9460,504;  243,197;54357,159;17,03314
 698,85; 9425,114;  208,890;54387,066;17,01095
 699,42; 9467,109;  218,505;54574,973;17,01473
 699,99; 9489,950;  255,659;54751,188;16,94504
 700,57; 9432,715;  251,429;54712,941;16,85830
 701,14; 9443,171;  237,660;54894,310;16,84244
 701,71; 9549,628;  261,583;55089,140;16,94047
 702,28; 9487,315;  249,660;55203,124;16,80996
 702,85; 9489,849;  258,968;55134,724;16,82142
 703,43; 9538,920;  269,199;55389,092;16,81738
 704,00; 9587,223;  276,892;55671,230;16,80737
 704,57; 9525,295;  259,892;55673,368;16,72049
 705,14; 9589,290;  286,354;55892,198;16,73014
 705,71; 9589,208;  296,585;55932,028;16,70270
 706,28; 9557,742;  260,123;55763,397;16,75148
 706,86; 9619,814;  297,585;56023,227;16,72879
 707,43; 9649,270;  316,355;55914,288;16,78644
 708,00; 9628,342;  290,509;56106,503;16,72967
 708,57; 9556,722;  255,048;55978,949;16,69243
 709,14; 9587,947;  285,586;56030,394;16,68740
 709,71; 9594,173;  270,279;56060,917;16,71229
 710,28; 9578,553;  264,894;56358,516;16,60377
 710,86; 9649,855;  265,895;56390,423;16,71989
 711,43; 9648,466;  296,126;56437,638;16,65851
 712,00; 9602,769;  276,818;56659,237;16,54053
 712,57; 9641,917;  282,126;56759,375;16,57268
 713,14; 9620,759;  262,973;56867,513;16,53186
 713,71; 9610,215;  272,050;56818,343;16,51420
 714,28; 9592,826;  257,588;56919,404;16,47536
 714,85; 9572,897;  242,050;56565,004;16,56669
 715,42; 9582,739;  242,358;56728,757;16,53563
 716,00; 9685,734;  316,820;56924,125;16,55071
 716,57; 9669,190;  246,282;56951,802;16,61727
 717,14; 9632,185;  229,974;56936,170;16,58057
 717,71; 9625,796;  230,821;56957,693;16,56177
 718,28; 9694,560;  278,898;57090,138;16,57359
 718,85; 9618,939;  222,821;57116,123;16,51533
 719,42; 9731,396;  257,360;57282,953;16,61366
 719,99; 9638,545;  231,745;57033,706;16,56070
 720,56; 9757,309;  256,360;57311,613;16,65219
 721,13; 9731,227;  232,668;57520,982;16,58027
 721,70; 9651,837;  239,822;57310,581;16,49183
 722,27; 9751,986;  258,976;57399,027;16,61358
 722,84; 9815,443;  299,823;57566,780;16,61625
 723,41; 9772,361;  226,131;57493,072;16,66971
 723,98; 9746,048;  239,823;57758,517;16,52719
 724,55; 9841,428;  264,824;57882,194;16,62104
 725,12; 9757,654;  205,285;57881,947;16,56193
 725,69; 9823,956;  228,670;57941,777;16,62584
 726,27; 9859,798;  246,132;57932,069;16,66553
 726,84; 9924,562;  246,978;58437,283;16,63092
 727,41; 9967,864;  251,671;58343,037;16,72571
 727,98; 9980,629;  259,364;58616,559;16,65821
 728,55;10022,470;  276,748;58480,851;16,74405
 729,12; 9960,234;  228,364;58644,450;16,65957
 729,69;10026,537;  273,287;58787,204;16,66826
 730,26;10087,993;  273,365;58986,572;16,71622
 730,82;10019,065;  253,365;58801,325;16,67983
 731,39;10117,137;  237,750;59025,694;16,80512
 731,96;10184,671;  226,058;59327,140;16,85014
 732,53;10281,127;  248,673;59445,739;16,94755
 733,10;10300,353;  270,904;59478,262;16,93953
 733,67;10346,963;  256,674;59837,399;16,93549
 734,24;10282,651;  234,982;59425,922;16,97501
 734,81;10324,261;  279,213;59498,291;16,96252
 735,38;10312,179;  257,136;59310,813;17,02696
 735,95;10278,866;  247,213;59091,028;17,04793
 736,52;10324,477;  265,598;59294,627;17,04056
 737,09;10321,549;  259,906;58937,919;17,14721
 737,66;10397,851;  308,368;59125,672;17,15394
 738,23;10368,539;  241,753;59219,425;17,17054
 738,80;10521,534;  325,753;59585,717;17,20518
 739,37;10493,836;  288,599;59725,470;17,16988
 739,94;10496,601;  264,676;59793,685;17,18813
 740,51;10681,134;  378,138;59844,131;17,32586
 741,07;10596,283;  253,908;59775,346;17,37588
 741,64;10621,432;  295,908;59983,022;17,29942
 742,21;10677,811;  261,600;60014,391;17,43218
 742,78;10619,345;  235,678;59743,298;17,44931
 743,35;10663,801;  248,986;60057,512;17,41360
 743,92;10737,643;  295,524;60245,266;17,41812
 744,49;10765,638;  282,063;60010,250;17,55214
 745,06;10744,325;  247,909;60085,464;17,54152
 745,63;10753,858;  238,217;60007,141;17,59383
 746,19;10798,546;  251,833;59962,356;17,66307
 746,76;10829,387;  256,602;60007,032;17,69491
 747,33;10796,459;  250,141;60026,247;17,64303
 747,90;10899,838;  280,911;60227,462;17,71399
 748,47;10911,526;  259,449;60168,984;17,78027
 749,04;10895,598;  265,296;60147,583;17,75200
 749,61;10989,285;  294,911;60038,337;17,90050
 750,17;10954,049;  285,758;60183,090;17,81096
 750,74;10982,275;  270,912;60067,997;17,91285
 751,31;11060,732;  243,835;60065,443;18,08192
 751,88;11041,111;  241,143;59910,196;18,09978
 752,45;11067,106;  258,143;60081,718;18,06807
 753,02;11043,024;  278,836;59896,625;18,05533
 753,58;11063,327;  233,913;59817,763;18,17508
 754,15;11093,783;  247,990;59950,286;18,16646
 754,72;11085,240;  240,375;59794,270;18,21017
 755,29;11046,620;  234,221;59679,792;18,18874
 755,86;11081,999;  253,222;59764,930;18,19605
 756,42;11153,687;  255,145;59646,837;18,35028
 756,99;11107,605;  217,299;59707,821;18,30595
 757,56;11135,446;  228,145;59525,421;18,39427
 758,13;11138,287;  191,300;59519,174;18,45168
 758,70;11210,590;  218,992;59516,312;18,53642
 759,26;11277,277;  204,069;59594,065;18,64490
 759,83;11349,349;  218,685;59743,126;18,69932
 760,40;11306,113;  204,608;59452,187;18,73748
 760,97;11320,416;  192,224;59546,094;18,74889
 761,53;11299,795;  191,609;59311,001;18,78941
 762,10;11301,098;  187,378;59170,831;18,84210
 762,67;11369,785;  214,148;59106,969;18,94227
 763,24;11237,242;  182,225;58661,107;18,90429
 763,80;11327,160;  201,687;58829,168;18,97655
 764,37;11309,155;  211,225;58747,614;18,95903
 764,94;11200,227;  187,379;58355,444;18,93281
 765,50;11326,376;  197,303;58250,889;19,17035
 766,07;11398,371;  233,226;58263,720;19,24013
 766,64;11313,212;  209,996;57982,396;19,21889
 767,21;11362,361;  222,150;57950,688;19,29758
 767,77;11361,664;  223,535;57757,210;19,35932
 768,34;11399,120;  243,996;57835,963;19,36924
 768,91;11426,961;  241,689;57543,101;19,52006
 769,47;11405,110;  240,920;57486,085;19,50242
 770,04;11411,336;  254,151;57440,992;19,51006
 770,61;11420,254;  231,382;57224,361;19,63202
 771,18;11459,326;  222,151;57047,268;19,77501
 771,74;11488,090;  237,459;57235,406;19,73866
 772,31;11533,085;  244,767;56999,467;19,88966
 772,88;11467,157;  209,152;56754,451;19,90971
 773,44;11492,229;  218,614;56536,589;20,01779
 774,01;11497,455;  239,537;56613,342;19,97012
 774,58;11508,373;  222,153;56296,711;20,12717
 775,14;11537,906;  210,999;56412,464;20,15411
 775,71;11562,978;  218,461;56348,294;20,21121
 776,27;11621,512;  280,615;56213,278;20,27598
 776,84;11697,199;  314,154;56304,493;20,33037
 777,41;11644,271;  242,077;55950,785;20,46753
 777,97;11588,574;  227,770;55718,922;20,47318
 778,54;11641,569;  244,924;55748,830;20,53305
 779,11;11706,948;  259,386;55763,506;20,62471
 779,67;11681,405;  220,540;55671,721;20,66839
 780,24;11711,861;  237,540;55375,551;20,81018
 780,80;11725,164;  255,694;55373,919;20,80885
 781,37;11718,851;  250,002;55541,980;20,74234
 781,94;11760,231;  240,156;55196,888;20,96208
 782,50;11704,457;  249,695;55052,718;20,90170
 783,07;11718,836;  262,003;55063,856;20,90592
 783,63;11722,447;  225,849;54920,070;21,01977
 784,20;11783,980;  263,003;54836,977;21,11075
 784,77;11726,744;  235,850;54660,731;21,11331
 785,33;11671,201;  219,773;54378,176;21,14432
 785,90;11762,042;  240,542;54360,622;21,28877
 786,46;11774,037;  260,466;54292,837;21,30865
 787,03;11780,955;  221,004;54110,744;21,45112
 787,59;11777,643;  240,235;53997,420;21,46207
 788,16;11851,868;  251,697;54021,404;21,57380
 788,73;11787,863;  247,697;53785,311;21,55525
 789,29;11766,704;  240,544;53423,988;21,67246
 789,86;11750,469;  258,544;53351,202;21,64504
 790,42;11758,925;  242,237;53140,956;21,77121
 790,99;11706,766;  254,929;52815,940;21,78770
 791,55;11702,377;  229,160;52792,924;21,82724
 792,12;11816,603;  262,160;52820,523;21,98402
 792,68;11746,290;  239,699;52524,738;22,00743
 793,25;11719,823;  254,469;52215,799;22,06517
 793,81;11802,972;  316,546;51916,398;22,26058
 794,38;11631,352;  210,469;51653,459;22,20105
 794,94;11617,578;  212,315;51481,059;22,24603
 795,51;11639,419;  247,854;51209,504;22,35321
 796,07;11568,491;  236,316;51034,488;22,30823
 796,64;11622,793;  265,162;51104,780;22,34012
 797,20;11544,327;  251,240;50573,379;22,44159
 797,77;11438,476;  217,317;50237,363;22,43332
 798,33;11465,086;  241,240;50048,270;22,53466
 798,90;11513,158;  271,240;49972,254;22,61909
 799,46;11334,153;  233,856;49438,238;22,55957
 800,03;11371,148;  238,318;49475,684;22,61053
 800,59;11354,374;  255,087;49325,899;22,61892
 801,15;11348,138;  262,241;48916,344;22,78512
 801,72;11252,671;  259,857;48572,636;22,75343
 802,28;11239,513;  271,011;48293,851;22,84018
 802,85;11176,200;  240,088;48018,143;22,88940
 803,41;11130,349;  234,242;47993,665;22,81457
 803,98;11036,267;  236,319;47385,880;22,90572
 804,54;10974,262;  234,089;47260,172;22,83876
 805,11;11038,026;  235,243;47031,079;23,08492
 805,67;10997,713;  264,243;47025,755;22,95364
 806,23;10874,708;  254,551;46493,662;22,96791
 806,80;10853,626;  264,474;46325,261;22,98952
 807,36;10883,006;  269,090;46274,245;23,07114
 807,93;10879,924;  264,552;46054,999;23,18250
 808,49;10749,765;  227,244;45652,137;23,16466
 809,05;10676,683;  226,399;45456,659;23,10463
 809,62;10724,755;  258,476;45281,566;23,24647
 810,18;10738,827;  243,476;45264,243;23,31224
 810,74;10614,745;  214,245;44941,150;23,25334
 811,31;10657,971;  224,323;44772,518;23,42104
 811,87;10689,812;  241,938;44580,810;23,56369
 812,44;10663,961;  268,631;44608,871;23,44446
 813,00;10589,648;  180,939;44238,470;23,62527
 813,56;10633,413;  245,477;44277,993;23,59151
 814,13;10638,562;  238,632;44153,900;23,68181
 814,69;10587,633;  240,401;43940,730;23,67770
 815,25;10537,705;  207,401;43580,714;23,81719
 815,82;10548,162;  252,401;43491,775;23,81108
 816,38;10501,926;  288,094;43235,682;23,78209
 816,94;10461,152;  228,940;42973,512;23,93804
 817,51;10408,532;  208,556;42691,958;24,00932
 818,07;10436,527;  203,172;42410,711;24,24532
 818,63;10360,829;  242,787;42231,541;24,09703
 819,20;10376,363;  235,711;42167,756;24,18354
 819,76;10299,204;  224,557;41715,125;24,28178
 820,32;10316,891;  253,557;41683,032;24,29028
 820,89;10254,040;  248,634;41346,401;24,34538
 821,45;10219,804;  227,635;41066,692;24,46719
 822,01;10171,030;  243,481;40818,830;24,46695
 822,57;10191,794;  250,712;40752,814;24,54461
 823,14;10090,097;  204,020;40358,567;24,62007
 823,70;10092,554;  218,790;40197,013;24,69786
 824,26;10049,625;  217,559;40033,074;24,69406
 824,82;10059,467;  250,098;39788,058;24,81000
 825,39;10076,615;  225,098;39508,580;25,07801
 825,95;10038,764;  247,406;39592,411;24,88590
 826,51; 9995,682;  247,098;39127,164;25,07348
 827,08;10038,985;  285,176;39188,840;25,07170
 827,64; 9990,749;  255,637;39035,286;25,10366
 828,20; 9922,283;  220,715;38672,270;25,23063
 828,76; 9989,970;  251,099;38728,408;25,31069
 829,32; 9930,273;  259,253;38534,853;25,26680
 829,89; 9947,268;  212,023;38430,529;25,47259
 830,45; 9925,878;  239,408;38338,590;25,42435
 831,01; 9942,412;  234,639;38215,421;25,55970
 831,57; 9920,484;  229,331;37967,635;25,67988
 832,14; 9921,402;  224,178;37938,696;25,71218
 832,70; 9897,627;  222,024;37751,296;25,78148
 833,26; 9838,853;  194,794;37680,434;25,72734
 833,82; 9903,233;  234,025;37455,802;25,97729
 834,38; 9926,997;  216,563;37564,786;25,99972
 834,95; 9888,377;  222,871;37492,463;25,93403
 835,51; 9884,987;  189,025;37183,600;26,20914
 836,07; 9969,059;  226,410;37249,431;26,31511
 836,63;10001,592;  250,411;37352,261;26,28220
 837,19; 9975,511;  240,257;37063,322;26,43792
 837,75; 9877,352;  207,565;36846,460;26,39214
 838,32;10000,193;  251,565;36923,751;26,58316
 838,88; 9998,572;  245,027;36891,043;26,61557
 839,44; 9981,260;  249,027;36809,258;26,61972
 840,00; 9994,793;  230,720;36704,011;26,77048
 840,56; 9885,942;  220,874;36469,611;26,66319
 841,12; 9920,245;  219,489;36309,287;26,87950
 841,68; 9900,547;  197,182;36230,194;26,92910
 842,25; 9911,773;  218,875;36164,255;26,96563
 842,81; 9833,230;  204,952;35981,393;26,91234
 843,37; 9905,071;  214,183;35979,454;27,09581
 843,93; 9880,527;  217,798;35781,669;27,17007
 844,49; 9920,138;  234,029;35855,729;27,19160
 845,05; 9868,518;  182,645;35711,329;27,26212
 845,61; 9924,359;  231,799;35821,621;27,23408
 846,17; 9902,354;  216,184;35575,143;27,39382
 846,73; 9905,195;  225,492;35471,973;27,46289
 847,29; 9892,036;  211,492;35325,880;27,56860
 847,86; 9937,569;  209,185;35293,941;27,72824
 848,42; 9890,257;  202,493;35106,310;27,75560
 848,98; 9951,944;  229,724;35013,140;27,95073
 849,54; 9929,478;  220,801;35013,663;27,90422
 850,10; 9910,857;  229,955;34945,108;27,88668
 850,66; 9887,852;  200,417;34694,015;28,08473
 851,22; 9852,693;  202,648;34618,692;28,03938
 851,78; 9917,611;  255,494;34686,676;28,06211
 852,34; 9885,145;  224,725;34413,198;28,25637
 852,90; 9812,755;  213,418;34318,567;28,14630
 853,46; 9771,212;  198,956;34122,935;28,21678
 854,02; 9824,976;  228,495;34106,766;28,32636
 854,58; 9750,048;  221,111;33866,134;28,32198
 855,14; 9730,043;  203,957;33739,580;28,40587
 855,70; 9682,730;  183,188;33581,641;28,44306
 856,26; 9738,571;  224,650;33626,086;28,48357
 856,82; 9674,028;  209,112;33341,916;28,56660
 857,38; 9722,638;  250,497;33316,516;28,64615
 857,94; 9713,864;  221,881;33181,808;28,79856
 858,50; 9635,398;  225,266;32960,484;28,74620
 859,06; 9624,085;  207,805;32807,083;28,88493
 859,62; 9651,618;  232,190;32650,837;29,05559
 860,18; 9616,767;  221,344;32590,590;29,02577
 860,74; 9597,301;  188,575;32362,112;29,24368
 861,30; 9584,680;  193,960;32227,481;29,31529
 861,86; 9642,906;  267,806;32294,542;29,27273
 862,42; 9541,670;  226,268;31965,757;29,34957
 862,98; 9608,281;  248,576;32078,125;29,40571
 863,54; 9484,276;  220,653;31793,032;29,34091
 864,10; 9461,271;  213,269;31937,093;29,15160
 864,66; 9429,881;  202,192;31644,693;29,34782
 865,22; 9401,491;  224,346;31435,984;29,40296
 865,78; 9384,333;  219,192;31266,353;29,52006
 866,34; 9374,943;  204,731;31362,106;29,43191
 866,90; 9374,169;  220,808;31083,475;29,65836
 867,45; 9305,779;  236,578;30929,151;29,54852
 868,01; 9293,082;  223,655;30790,597;29,67070
 868,57; 9285,923;  215,732;30619,966;29,83200
 869,13; 9239,764;  200,732;30401,565;29,92974
 869,69; 9237,605;  210,271;30320,241;29,98121
 870,25; 9245,062;  186,348;30246,302;30,13549
 870,81; 9272,288;  214,810;30184,209;30,22242
 871,37; 9300,129;  223,349;30086,809;30,39427
 871,93; 9267,739;  236,811;29867,716;30,47807
 872,49; 9213,580;  254,580;29613,854;30,51506
 873,04; 9128,883;  202,196;29450,145;30,52073
 873,60; 9123,417;  195,350;29270,822;30,70652
 874,16; 9085,796;  219,119;29224,883;30,56867
 874,72; 9100,181;  217,888;29149,498;30,70100
 875,28; 9111,412;  225,119;29078,806;30,79777
 875,84; 9140,719;  226,581;29020,498;30,95841
 876,40; 9095,104;  213,504;28867,960;30,99553
 876,95; 9111,104;  227,042;28836,113;31,05330
 877,51; 9159,335;  247,273;28855,267;31,15235
 878,07; 9209,796;  253,812;28901,729;31,26225
 878,63; 9182,258;  223,965;28900,037;31,23961
 879,19; 9204,027;  228,812;28924,267;31,27748
 879,75; 9234,642;  216,504;28921,729;31,41637
 880,30; 9250,104;  207,735;28891,883;31,52392
 880,86; 9329,258;  260,042;29039,883;31,51239
 881,42; 9301,796;  206,812;29044,113;31,53896
 881,98; 9387,412;  232,504;29123,190;31,68809
 882,54; 9478,488;  203,119;29288,498;31,89014
 883,09; 9573,104;  219,965;29421,113;32,03004
 883,65; 9545,565;  202,658;29500,883;31,88899
 884,21; 9692,181;  245,427;29732,037;32,03744
 884,77; 9660,796;  215,658;29681,806;32,05420
 885,32; 9717,950;  216,427;29980,883;31,92238
 885,88; 9825,488;  248,119;30130,960;32,04973
 886,44; 9832,181;  224,119;30121,344;32,13697
 887,00; 9891,796;  246,504;30179,498;32,22295
 887,56; 9911,181;  210,119;30411,498;32,12125
 888,11; 9966,335;  216,273;30340,498;32,36618
 888,67;10053,104;  240,273;30523,960;32,40303
 889,23;10086,335;  224,273;30494,960;32,57958
 889,79;10037,104;  209,658;30424,113;32,52564
 890,34;10108,104;  232,658;30343,883;32,79656
 890,90;10209,950;  290,965;30495,883;32,83897
 891,46;10095,027;  201,427;30323,883;32,84460
 892,01;10099,950;  243,658;30357,652;32,72994
 892,57;10112,796;  258,273;30260,883;32,84555
 893,13;10053,719;  232,965;30047,883;32,93906
 893,69;10060,719;  207,427;29994,344;33,07926
 894,24;10058,719;  218,196;29892,037;33,16228
 894,80;10020,335;  226,658;29773,037;33,14679
 895,36; 9947,335;  220,427;29661,729;33,03831
 895,91; 9906,950;  220,965;29475,190;33,10969
 896,47; 9921,104;  234,965;29274,113;33,35545
 897,03; 9813,719;  227,119;29118,037;33,18205
 897,58; 9750,565;  233,196;28943,960;33,14913
 898,14; 9709,027;  233,196;28747,498;33,23185
 898,70; 9652,488;  196,350;28606,421;33,28446
 899,25; 9677,104;  218,427;28578,113;33,35254
 899,81; 9622,488;  235,581;28370,960;33,36336
 900,37; 9535,104;  186,042;28129,421;33,45716
 900,92; 9573,027;  221,965;28086,883;33,55855
 901,48; 9479,335;  225,581;27998,344;33,31953
 902,03; 9427,412;  217,119;27810,344;33,37882
 902,59; 9456,104;  215,196;27764,498;33,54316
 903,15; 9426,412;  241,658;27546,113;33,63830
 903,70; 9340,719;  215,042;27327,883;33,65814
 904,26; 9386,796;  211,658;27219,267;33,97242
 904,82; 9379,181;  220,273;27155,883;34,00297
 905,37; 9294,104;  227,888;27043,498;33,80947
 905,93; 9271,412;  209,504;26857,729;34,00567
 906,48; 9212,104;  228,735;26871,113;33,71835
 907,04; 9268,488;  232,196;26694,498;34,14779
 907,60; 9225,412;  219,350;26502,421;34,26564
 908,15; 9149,488;  197,888;26350,190;34,22873
 908,71; 9133,873;  238,042;26385,037;34,02238
 909,26; 9124,719;  224,427;26125,652;34,36244
 909,82; 9062,258;  227,196;26128,729;34,11019
 910,37; 9055,642;  266,119;25979,190;34,18309
 910,93; 8970,335;  212,812;25777,421;34,25643
 911,48; 8903,488;  201,888;25659,806;34,18033
 912,04; 8911,027;  220,119;25480,806;34,40488
 912,60; 8921,412;  228,812;25513,729;34,37860
 913,15; 8885,027;  221,273;25329,498;34,50564
 913,71; 8767,181;  204,812;25161,498;34,30892
 914,26; 8752,642;  202,658;25003,344;34,47479
 914,82; 8747,412;  225,735;24906,652;34,52739
 915,37; 8743,104;  199,658;24883,575;34,61139
 915,93; 8746,873;  256,735;24693,344;34,74352
 916,48; 8639,027;  193,581;24655,344;34,52509
 917,04; 8577,565;  227,735;24440,037;34,48590
 917,59; 8596,642;  249,658;24525,113;34,38446
 918,15; 8451,258;  190,042;24173,960;34,44481
 918,70; 8453,412;  205,273;24166,113;34,42341
 919,26; 8463,950;  219,427;24042,652;34,60708
 919,81; 8433,565;  200,658;23895,575;34,74546
 920,37; 8339,258;  204,888;23822,421;34,44208
 920,92; 8360,488;  228,504;23654,498;34,71351
 921,48; 8288,104;  200,504;23530,729;34,66576
 922,03; 8324,642;  205,504;23463,575;34,90891
 922,59; 8274,258;  216,119;23292,575;34,91931
 923,14; 8264,412;  212,273;23113,729;35,15994
 923,69; 8262,335;  223,350;23059,652;35,20266
 924,25; 8275,104;  236,504;22986,344;35,33475
 924,80; 8133,412;  215,735;22825,960;35,01813
 925,36; 8113,873;  203,581;22760,883;35,06755
 925,91; 8113,258;  196,119;22596,498;35,34377
 926,47; 8034,642;  186,812;22550,806;35,09136
 927,02; 8090,104;  273,273;22458,190;35,23489
 927,57; 7974,873;  218,273;22275,421;35,16592
 928,13; 7980,565;  202,581;22197,037;35,36339
 928,68; 7955,335;  207,735;22179,729;35,26125
 929,24; 7880,796;  187,812;21897,806;35,43522
 929,79; 7822,873;  210,965;21808,960;35,24359
 930,34; 7821,796;  212,196;21625,652;35,53653
 930,90; 7747,258;  201,119;21634,190;35,20792
 931,45; 7788,719;  223,658;21562,267;35,45246
 932,01; 7718,027;  224,812;21431,883;35,33357
 932,56; 7691,104;  233,658;21278,729;35,43559
 933,11; 7737,488;  236,504;21355,190;35,51823
 933,67; 7621,950;  211,427;21081,421;35,50803
 934,22; 7584,181;  216,504;21017,267;35,42022
 934,77; 7559,642;  234,888;20884,960;35,47084
 935,33; 7516,488;  223,965;20760,652;35,50974
 935,88; 7524,950;  219,273;20625,113;35,80189
 936,43; 7484,104;  213,504;20572,190;35,71252
 936,99; 7460,719;  212,735;20439,729;35,83323
 937,54; 7340,488;  204,273;20285,652;35,53648
 938,09; 7392,642;  219,812;20243,806;35,82118
 938,65; 7382,027;  215,273;20138,498;35,97186
 939,20; 7301,950;  190,196;20034,344;35,83804
 939,75; 7271,027;  210,196;19952,883;35,76429
 940,31; 7256,412;  188,888;19821,575;35,99876
 940,86; 7209,873;  220,042;19795,960;35,70627
 941,41; 7269,642;  293,273;19672,652;35,99893
 941,96; 7177,565;  196,888;19552,652;36,06511
 942,52; 7184,796;  208,042;19358,498;36,43127
 943,07; 7126,642;  190,273;19329,883;36,24091
 943,62; 7113,873;  194,735;19270,806;36,27130
 944,18; 7040,719;  196,658;19146,806;36,11614
 944,73; 7093,258;  217,965;19028,960;36,54933
 945,28; 6944,642;  182,581;18910,113;36,10759
 945,83; 7012,258;  200,350;18902,267;36,42358
 946,39; 6951,719;  205,965;18762,037;36,35335
 946,94; 6991,565;  240,581;18793,113;36,38848
 947,49; 6902,258;  207,504;18619,652;36,36053
 948,04; 6928,181;  240,965;18558,113;36,50795
 948,59; 6829,258;  237,427;18520,421;36,05444
 949,15; 6778,258;  189,273;18325,652;36,33021
 949,70; 6764,796;  208,273;18289,575;36,26134
 950,25; 6763,181;  216,196;18151,729;36,50287
 950,80; 6715,796;  177,196;18029,498;36,62609
 951,36; 6694,565;  172,119;17948,037;36,69260
 951,91; 6707,950;  217,658;17940,113;36,62186
 952,46; 6584,565;  195,350;17714,267;36,47038
 953,01; 6638,565;  214,196;17756,190;36,62280
 953,56; 6586,181;  190,350;17610,652;36,71481
 954,11; 6558,258;  217,888;17566,421;36,54701
 954,67; 6544,796;  201,427;17494,652;36,68124
 955,22; 6483,488;  181,658;17318,421;36,77375
 955,77; 6493,412;  217,888;17317,037;36,70079
 956,32; 6519,027;  253,888;17234,267;36,89634
 956,87; 6378,335;  200,658;17057,806;36,64722
 957,42; 6420,335;  211,273;17000,344;36,98276
 957,98; 6380,027;  194,042;16885,729;37,06027
 958,53; 6397,873;  233,735;16905,344;36,97387
 959,08; 6308,796;  192,504;16733,421;36,97674
 959,63; 6316,181;  205,504;16589,498;37,29663
 960,18; 6289,873;  216,888;16566,960;37,14348
 960,73; 6281,412;  207,658;16534,960;37,19998
 961,28; 6222,796;  179,965;16409,806;37,23284
 961,83; 6250,642;  228,119;16367,575;37,31553
 962,39; 6204,565;  187,273;16232,190;37,50279
 962,94; 6195,719;  207,042;16179,344;37,49414
 963,49; 6131,488;  208,658;16006,729;37,49085
 964,04; 6158,642;  218,119;15901,267;37,87838
 964,59; 6075,719;  189,427;15873,652;37,53002
 965,14; 6125,258;  222,427;15785,190;37,92919
 965,69; 6034,258;  208,581;15683,421;37,64612
 966,24; 5982,642;  202,119;15562,267;37,63325
 966,79; 5984,719;  217,735;15553,652;37,60443
 967,34; 5934,719;  186,427;15374,960;37,84626
 967,89; 5901,642;  196,196;15330,575;37,69858
 968,44; 5940,258;  205,581;15273,421;38,05905
 968,99; 5897,335;  221,196;15182,729;37,93822
 969,55; 5842,488;  218,658;15098,344;37,79536
 970,10; 5829,335;  219,888;14978,037;38,00915
 970,65; 5805,104;  218,812;14927,960;37,97835
 971,20; 5730,488;  194,350;14764,267;37,99705
 971,75; 5662,796;  181,812;14686,652;37,78728
 972,30; 5633,104;  210,427;14581,267;37,73389
 972,85; 5625,565;  204,119;14492,267;37,94366
 973,40; 5542,642;  195,119;14341,190;37,80218
 973,95; 5505,412;  221,119;14313,344;37,49793
 974,50; 5518,873;  236,581;14226,729;37,75723
 975,05; 5516,181;  214,658;14143,037;38,06274
 975,60; 5495,488;  223,350;14038,344;38,16244
 976,15; 5429,796;  208,581;13907,960;38,11279
 976,70; 5386,027;  221,965;13842,113;37,91487
 977,25; 5382,565;  223,042;13793,652;38,01983
 977,80; 5351,488;  199,427;13662,421;38,26832
 978,35; 5302,181;  219,658;13468,267;38,36269
 978,89; 5252,873;  188,888;13409,806;38,30282
 979,44; 5294,181;  214,350;13393,960;38,54310
 979,99; 5178,258;  193,965;13277,498;38,09592
 980,54; 5199,258;  228,658;13134,344;38,51480
 981,09; 5131,719;  229,888;13020,960;38,32229
 981,64; 5111,642;  223,581;12872,960;38,64270
 982,19; 5074,181;  254,350;12828,113;38,33244
 982,74; 5017,950;  222,273;12694,883;38,44967
 983,29; 4934,181;  200,658;12585,729;38,21959
 983,84; 4911,181;  221,658;12477,806;38,26262
 984,39; 4972,027;  285,504;12405,113;38,66893
 984,94; 4804,642;  183,965;12212,421;38,41455
 985,49; 4833,565;  233,042;12224,037;38,36649
 986,03; 4775,258;  231,504;12074,037;38,36809
 986,58; 4778,412;  261,581;11949,037;38,64683
 987,13; 4682,950;  211,119;11819,037;38,52397
 987,68; 4657,642;  224,581;11701,575;38,62563
 988,23; 4641,565;  221,581;11654,575;38,65990
 988,78; 4587,412;  198,735;11528,421;38,73608
 989,33; 4581,104;  240,504;11380,652;38,96358
 989,88; 4597,412;  255,350;11359,806;39,10198
 990,42; 4508,027;  213,273;11216,883;39,03041
 990,97; 4426,335;  210,196;11052,883;38,88463
 991,52; 4413,181;  231,735;10994,421;38,85132
 992,07; 4404,104;  252,504;10966,113;38,75071
 992,62; 4317,335;  229,042;10832,960;38,55455
 993,17; 4273,104;  230,196;10679,113;38,69212
 993,71; 4242,796;  234,119;10622,037;38,58980
 994,26; 4160,335;  198,965;10405,267;38,81297
 994,81; 4204,873;  239,658;10404,344;39,00972
 995,36; 4127,796;  218,812;10233,190;39,03372
 995,91; 4090,873;  226,119;10173,652;38,85138
 996,45; 4049,950;  225,119;10071,421;38,84535
 997,00; 3987,719;  206,427; 9907,883;38,97655
 997,55; 3991,488;  238,658; 9872,190;38,95591
 998,10; 3948,950;  246,504; 9737,037;39,01200
 998,65; 3926,104;  216,273; 9673,960;39,22556
 999,19; 3880,796;  247,965; 9548,498;39,06046
 999,74; 3873,796;  241,581; 9464,113;39,38414
1000,29; 3787,335;  237,273; 9353,498;38,94223
1000,84; 3749,412;  212,888; 9203,190;39,33709
1001,38; 3703,950;  227,042; 9137,652;39,01986
1001,93; 3682,027;  246,888; 9059,806;38,97845
1002,48; 3586,642;  211,812; 8881,037;38,92886
1003,03; 3629,412;  232,196; 8874,498;39,30915
1003,57; 3581,488;  233,042; 8753,344;39,29962
1004,12; 3558,258;  262,504; 8678,729;39,15953
1004,67; 3484,258;  222,119; 8592,960;38,97026
1005,22; 3429,796;  216,658; 8405,729;39,23691
1005,76; 3362,873;  201,196; 8318,652;38,94911
1006,31; 3375,335;  230,581; 8234,575;39,28981
1006,86; 3311,181;  218,273; 8113,498;39,17441
1007,40; 3260,104;  195,196; 8020,806;39,16510
1007,95; 3237,796;  220,119; 7905,421;39,26556
1008,50; 3176,642;  231,196; 7753,960;39,15378
1009,04; 3138,104;  209,812; 7686,652;39,16484
1009,59; 3090,796;  229,042; 7556,190;39,05686
1010,14; 3040,565;  206,658; 7438,037;39,18904
1010,68; 2989,488;  220,504; 7320,806;38,99812
1011,23; 2973,335;  212,888; 7211,652;39,44191
1011,78; 2938,258;  229,888; 7119,344;39,31180
1012,32; 2921,873;  241,965; 7036,113;39,44435
1012,87; 2884,488;  257,581; 6974,806;39,10704
1013,42; 2824,642;  203,196; 6845,344;39,46684
1013,96; 2850,104;  257,350; 6877,806;39,16277
1014,51; 2806,335;  192,965; 6726,883;39,99697
1015,06; 2759,335;  187,812; 6776,190;39,03120
1015,60; 2840,412;  264,042; 6805,037;39,38804
1016,15; 2782,104;  209,965; 6771,037;39,20303
1016,69; 2835,335;  217,658; 6788,421;39,83825
1017,24; 2827,565;  199,196; 6784,960;39,90986
1017,79; 2853,258;  241,350; 6898,190;39,23645
1018,33; 2836,181;  207,888; 6841,113;39,62314
1018,88; 2886,950;  224,273; 6898,190;39,89676
1019,42; 2861,258;  217,427; 6885,652;39,64819
1019,97; 2870,027;  207,427; 6909,575;39,72756
1020,51; 2917,642;  242,196; 6946,421;39,90687
1021,06; 2866,181;  188,965; 6917,344;39,78990
1021,61; 2866,565;  190,042; 6892,883;39,93118
1022,15; 2826,565;  170,735; 6874,960;39,61428
1022,70; 2870,950;  209,965; 6875,960;39,91880
1023,24; 2844,258;  202,042; 6803,729;40,02334
1023,79; 2811,565;  213,427; 6726,960;39,88832
1024,33; 2800,565;  204,427; 6673,883;40,12916
1024,88; 2797,488;  225,812; 6619,883;40,21971
1025,42; 2717,950;  219,965; 6470,729;39,96287
1025,97; 2686,104;  206,504; 6409,498;39,97424
1026,51; 2609,565;  174,504; 6244,344;40,11739
1027,06; 2617,335;  202,658; 6224,960;40,09558
1027,60; 2573,565;  229,658; 6108,421;39,87076
1028,15; 2588,104;  224,427; 6049,652;40,57658
1028,69; 2476,642;  178,658; 5900,498;40,16163
1029,24; 2447,950;  190,888; 5858,652;39,82279
1029,78; 2395,027;  191,581; 5760,806;39,56468
1030,33; 2360,719;  183,812; 5600,190;40,19120
1030,87; 2339,719;  203,119; 5562,421;39,86713
1031,42; 2289,565;  186,888; 5474,960;39,76264
1031,96; 2301,873;  216,504; 5405,344;40,18950
1032,51; 2242,104;  193,350; 5354,652;39,69452
1033,05; 2230,642;  218,504; 5267,806;39,84983
1033,60; 2180,873;  181,581; 5145,267;40,27838
1034,14; 2145,412;  199,658; 5080,652;39,86388
1034,69; 2130,335;  204,735; 5045,652;39,77759
1035,23; 2113,412;  211,119; 4934,652;40,27266
1035,77; 2079,027;  199,042; 4887,037;40,10211
1036,32; 2036,873;  174,350; 4782,344;40,41939
1036,86; 2034,950;  210,427; 4749,344;40,19732
1037,41; 2010,565;  220,273; 4667,267;40,25848
1037,95; 1963,104;  179,196; 4579,729;40,53845
1038,50; 1942,258;  185,504; 4553,190;40,22161
1039,04; 1958,642;  220,427; 4509,575;40,52589
1039,58; 1905,642;  185,812; 4421,498;40,60335
1040,13; 1883,027;  202,581; 4362,806;40,39316
1040,67; 1890,258;  235,119; 4322,883;40,49007
1041,21; 1856,258;  231,273; 4245,883;40,47678
1041,76; 1785,412;  188,735; 4150,037;40,30687
1042,30; 1818,258;  200,581; 4087,960;41,61357
1042,85; 1758,258;  203,042; 4051,267;40,41384
1043,39; 1740,104;  185,812; 3954,113;41,24649
1043,93; 1732,873;  215,042; 3934,037;40,81294
1044,48; 1736,873;  210,273; 3906,806;41,29816
1045,02; 1660,642;  199,042; 3826,498;40,29270
1045,56; 1696,412;  226,042; 3777,113;41,40636
1046,11; 1662,719;  220,812; 3749,652;40,86067
1046,65; 1635,104;  204,273; 3688,883;41,06144
1047,19; 1606,412;  196,350; 3599,806;41,43029
1047,74; 1556,412;  186,042; 3537,113;40,89347
1048,28; 1551,488;  212,427; 3515,575;40,53895
1048,82; 1571,565;  226,735; 3507,883;40,98659
1049,37; 1532,950;  218,504; 3423,883;41,00751
1049,91; 1528,873;  211,042; 3355,652;41,90761
1050,45; 1497,488;  222,504; 3341,190;40,88210
1050,99; 1495,181;  212,042; 3292,267;41,65730
1051,54; 1450,719;  190,504; 3225,575;41,52177
1052,08; 1480,642;  237,119; 3201,421;41,94995
1052,62; 1432,873;  230,119; 3156,960;41,09393
1053,16; 1397,719;  211,812; 3111,883;40,89237
1053,71; 1393,027;  208,504; 3087,806;41,13925
1054,25; 1390,488;  216,581; 3010,421;42,01771
1054,79; 1343,412;  223,965; 2979,652;40,62313
1055,33; 1291,181;  188,196; 2892,344;40,78862
1055,88; 1334,950;  220,812; 2885,113;41,81727
1056,42; 1328,796;  230,965; 2875,190;41,51805
1056,96; 1301,796;  227,119; 2836,806;41,18031
1057,50; 1274,950;  220,427; 2793,344;40,98550
1058,05; 1247,412;  214,119; 2740,344;40,90262
1058,59; 1243,565;  243,888; 2702,960;40,65262
1059,13; 1197,412;  199,119; 2619,113;41,25185
1059,67; 1199,104;  222,658; 2601,113;41,05379
1060,21; 1177,488;  217,581; 2572,344;40,76451
1060,76; 1190,719;  228,119; 2535,729;41,71416
1061,30; 1182,873;  230,350; 2515,652;41,68040
1061,84; 1150,950;  208,196; 2445,883;42,13074
1062,38; 1112,104;  208,581; 2374,344;41,71846
1062,92; 1158,873;  255,427; 2419,729;41,74307
1063,46; 1110,027;  224,119; 2353,421;41,60555
1064,01; 1057,796;  216,504; 2333,113;39,74716
1064,55; 1080,181;  223,965; 2281,883;41,60592
1065,09; 1032,565;  194,735; 2227,806;41,21011
1065,63; 1093,950;  250,658; 2235,421;42,48830
1066,17; 1054,873;  250,812; 2233,267;40,55886
1066,71; 1059,719;  239,735; 2178,806;42,28749
1067,25; 1013,258;  214,042; 2134,652;41,61259
1067,80; 1006,181;  240,735; 2131,421;40,48509
1068,34; 1025,412;  241,350; 2115,190;41,84249
1068,88;  951,719;  218,965; 2031,344;40,43050
1069,42; 1001,258;  250,273; 2060,960;41,47513
1069,96;  955,412;  218,581; 2041,421;40,42212
1070,50;  992,104;  251,735; 2038,267;41,44168
1071,04;  919,719;  206,273; 1965,421;40,55634
1071,58;  920,335;  217,042; 1958,267;40,39066
1072,12;  915,642;  219,581; 1920,729;40,91716
1072,66;  902,565;  220,119; 1898,883;40,65172
1073,21;  919,950;  233,427; 1906,806;41,02616
1073,75;  896,873;  238,196; 1855,190;40,73465
1074,29;  878,488;  231,581; 1827,190;40,54298
1074,83;  891,719;  239,581; 1820,190;41,25867
1075,37;  890,796;  239,042; 1805,498;41,60691
1075,91;  880,488;  234,888; 1783,344;41,69315
1076,45;  857,642;  231,504; 1762,421;40,89956
1076,99;  865,796;  240,350; 1738,344;41,75224
1077,53;  828,335;  224,042; 1674,575;41,66003
1078,07;  845,796;  239,812; 1680,575;42,05997
1078,61;  809,796;  222,888; 1656,037;40,95234
1079,15;  795,950;  229,427; 1636,421;40,26478
1079,69;  790,412;  226,735; 1619,344;40,47631
1080,23;  814,335;  248,273; 1642,960;40,58701
1080,77;  854,950;  278,196; 1640,037;42,35106
1081,31;  786,027;  215,888; 1551,498;42,68751
1081,85;  799,104;  239,427; 1559,267;42,40489
1082,39;  777,027;  230,812; 1535,498;41,86564
1082,93;  782,335;  237,427; 1526,421;42,27387
1083,47;  737,258;  208,504; 1501,883;40,88159
1084,01;  769,412;  238,350; 1494,113;42,28993
1084,55;  741,181;  225,119; 1450,652;42,10916
1085,09;  740,104;  247,658; 1436,344;41,42776
1085,63;  733,873;  223,427; 1433,652;42,17779
1086,17;  713,796;  214,273; 1409,037;41,80937
1086,71;  703,488;  226,042; 1363,960;41,95790
1087,24;  734,258;  255,042; 1414,575;41,32832
1087,78;  720,335;  246,735; 1389,037;41,46014
1088,32;  679,181;  202,273; 1326,652;42,41521
1088,86;  699,027;  243,504; 1357,421;40,89380
1089,40;  693,104;  233,812; 1338,267;41,58540
1089,94;  663,565;  203,888; 1270,421;43,10012
1090,48;  665,412;  235,196; 1269,498;41,59476
1091,02;  684,719;  243,735; 1276,113;42,71539
1091,56;  655,258;  228,504; 1258,267;41,44193
1092,10;  632,719;  214,965; 1212,421;41,88194
1092,63;  658,873;  248,658; 1234,190;41,62372
1093,17;  650,412;  239,812; 1216,113;42,05666
1093,71;  620,642;  217,965; 1210,729;40,56122
1094,25;  660,719;  261,888; 1200,190;42,50559
1094,79;  618,796;  224,812; 1174,575;41,48239
1095,33;  621,258;  227,735; 1160,267;42,19939
1095,87;  633,950;  226,965; 1149,960;44,09395
1096,40;  591,027;  210,350; 1115,575;42,05329
1096,94;  598,565;  228,119; 1111,652;41,92784
1097,48;  612,950;  244,196; 1122,267;41,99590
1098,02;  586,488;  223,196; 1093,421;41,74694
1098,56;  548,335;  196,427; 1057,421;40,87225
1099,10;  556,565;  205,196; 1047,806;41,70012
1099,63;  555,335;  206,196; 1042,113;41,76711
1100,17;  579,258;  234,581; 1050,344;42,25207
1100,71;  592,181;  254,042; 1052,190;42,36538

