
Integration time [ms]: 160,000
Averaging Nr. [scans]: 13
Smoothing Nr. [pixels]: 0
Data measured with spectrometer [name]: 2009305U1
Wave   ;Sample   ;Dark     ;Reference;Reflectance
[nm]   ;[counts] ;[counts] ;[counts] ;[%]

 175,72;  200,304;  199,741;  200,777;54,36087
 176,32;  220,205;  225,729;  223,979; 0,00000
 176,92;  256,900;  254,352;  256,468;120,38520
 177,52;  263,331;  261,585;  265,454;45,13298
 178,12;  235,725;  246,191;  228,377; 0,00000
 178,72;  271,290;  256,803;  258,493;857,05922
 179,32;  249,654;  250,652;  234,314; 0,00000
 179,92;  249,329;  255,041;  253,110; 0,00000
 180,52;  253,626;  243,055;  255,886;82,38481
 181,12;  265,345;  258,888;  259,497; 0,00000
 181,73;  267,499;  266,427;  278,520; 8,86353
 182,33;  352,430;  358,357;  354,615; 0,00000
 182,93;  269,820;  274,431;  274,023; 0,00000
 183,53;  243,684;  246,416;  233,568; 0,00000
 184,13;  241,023;  235,495;  227,035; 0,00000
 184,73;  279,702;  285,799;  287,378;-386,17928
 185,33;  275,979;  228,805;  366,277;34,31516
 185,93;  279,903;  235,412;  372,564;32,43883
 186,53;  305,335;  256,186;  398,310;34,58161
 187,13;  311,531;  279,426;  434,595;20,69062
 187,73;  285,106;  244,875;  373,249;31,33905
 188,33;  284,471;  250,255;  386,995;25,02275
 188,93;  308,783;  255,162;  385,621;41,10180
 189,53;  295,552;  257,227;  401,302;26,60060
 190,13;  340,999;  280,670;  423,850;42,13489
 190,73;  285,830;  224,529;  378,443;39,82823
 191,34;  307,016;  264,081;  410,691;29,28501
 191,94;  281,955;  245,019;  377,905;27,79577
 192,54;  287,860;  247,664;  427,510;22,35018
 193,14;  305,811;  261,733;  418,542;28,10955
 193,74;  307,177;  262,654;  401,356;32,09956
 194,34;  289,043;  254,966;  402,972;23,02393
 194,94;  255,300;  221,040;  376,033;22,10416
 195,54;  244,256;  216,190;  352,702;20,55924
 196,14;  266,788;  226,891;  382,071;25,71012
 196,74;  265,563;  220,111;  382,041;28,06886
 197,34;  242,925;  197,127;  382,736;24,67428
 197,94;  271,221;  232,119;  400,126;23,27399
 198,54;  284,852;  246,429;  416,944;22,53364
 199,14;  246,926;  216,900;  396,880;16,68291
 199,74;  245,898;  199,515;  409,619;22,07611
 200,34;  244,243;  201,978;  416,946;19,66107
 200,94;  289,352;  239,588;  444,800;24,25029
 201,54;  268,624;  217,744;  468,718;20,27284
 202,14;  294,355;  243,442;  505,674;19,41510
 202,74;  274,532;  222,361;  498,991;18,85943
 203,34;  271,654;  195,523;  523,337;23,22397
 203,94;  226,755;  170,751;  524,984;15,80998
 204,54;  313,892;  249,427;  608,671;17,94454
 205,14;  272,375;  199,361;  622,984;17,23555
 205,74;  330,479;  246,446;  720,243;17,73608
 206,34;  310,216;  203,288;  737,115;20,03046
 206,94;  319,360;  212,364;  803,280;18,10691
 207,54;  317,004;  194,057;  837,333;19,11261
 208,14;  324,029;  211,443;  913,379;16,03935
 208,74;  334,240;  209,207; 1013,510;15,54546
 209,34;  347,021;  206,516; 1117,044;15,43122
 209,94;  369,603;  216,285; 1207,131;15,47345
 210,54;  379,974;  204,290; 1327,188;15,64556
 211,14;  399,427;  209,977; 1436,345;15,44810
 211,73;  412,722;  215,667; 1572,019;14,52833
 212,33;  433,380;  226,049; 1695,753;14,10698
 212,93;  451,679;  207,822; 1770,108;15,60901
 213,53;  440,443;  182,746; 1835,326;15,59362
 214,13;  466,015;  200,988; 1950,535;15,14835
 214,73;  455,432;  191,288; 1957,212;14,95780
 215,33;  457,141;  172,208; 1999,362;15,59439
 215,93;  505,202;  210,907; 2119,819;15,41689
 216,53;  485,953;  164,822; 2217,580;15,64390
 217,13;  571,241;  227,136; 2448,261;15,49238
 217,73;  611,916;  191,369; 2666,066;16,99388
 218,33;  615,566;  171,989; 2838,762;16,63350
 218,93;  705,997;  196,459; 3204,207;16,94083
 219,53;  784,308;  195,220; 3533,962;17,64402
 220,13;  813,798;  160,837; 3850,961;17,69482
 220,73;  914,240;  188,208; 4281,994;17,73497
 221,32; 1022,086;  200,899; 4687,125;18,30462
 221,92; 1104,099;  199,298; 5129,848;18,35092
 222,52; 1201,513;  167,215; 5602,925;19,02783
 223,12; 1312,276;  184,523; 6053,373;19,21590
 223,72; 1403,325;  196,293; 6476,650;19,21917
 224,32; 1496,959;  194,370; 6900,583;19,42361
 224,92; 1573,396;  167,678; 7203,560;19,97927
 225,52; 1653,179;  207,748; 7625,096;19,48716
 226,12; 1742,718;  188,598; 7945,856;20,03440
 226,72; 1825,533;  159,674; 8322,566;20,40771
 227,31; 1897,816;  155,674; 8696,466;20,39790
 227,91; 1999,151;  194,671; 9121,351;20,21446
 228,51; 2108,522;  181,896; 9490,110;20,69812
 229,11; 2214,398;  195,135; 9947,630;20,70509
 229,71; 2288,759;  175,668;10228,115;21,02067
 230,31; 2392,424;  165,218;10718,251;21,10489
 230,91; 2465,490;  160,278;11047,928;21,17272
 231,51; 2550,199;  168,061;11349,350;21,30468
 232,10; 2651,976;  167,758;11737,016;21,47257
 232,70; 2722,273;  186,735;11999,664;21,46410
 233,30; 2763,977;  202,829;12239,986;21,27701
 233,90; 2818,875;  173,906;12300,963;21,81048
 234,50; 2809,725;  179,061;12417,146;21,49572
 235,10; 2862,935;  172,909;12458,944;21,89499
 235,70; 2912,474;  198,209;12575,100;21,93010
 236,29; 2888,898;  196,976;12452,520;21,96493
 236,89; 2861,290;  164,048;12281,757;22,25868
 237,49; 2813,167;  194,982;12162,422;21,87757
 238,09; 2752,139;  180,826;11817,192;22,09721
 238,69; 2711,991;  218,045;11505,502;22,09484
 239,29; 2571,124;  182,980;11125,113;21,82521
 239,89; 2522,238;  192,125;10743,781;22,08291
 240,48; 2391,884;  177,596;10312,169;21,84885
 241,08; 2339,336;  167,440; 9918,872;22,27258
 241,68; 2243,173;  195,442; 9593,874;21,78801
 242,28; 2110,303;  163,444; 9193,819;21,55900
 242,88; 2055,911;  214,834; 8861,428;21,29251
 243,48; 1992,426;  210,674; 8590,298;21,26291
 244,07; 1884,895;  180,671; 8300,943;20,98729
 244,67; 1848,050;  194,981; 8093,088;20,92994
 245,27; 1778,261;  194,667; 7997,019;20,29636
 245,87; 1772,587;  199,679; 7911,656;20,39565
 246,47; 1694,285;  196,590; 7831,043;19,61759
 247,06; 1670,111;  177,210; 7850,293;19,45634
 247,66; 1652,927;  186,904; 7992,433;18,78185
 248,26; 1708,904;  218,514; 8116,764;18,86988
 248,86; 1727,307;  202,129; 8336,982;18,74869
 249,46; 1691,303;  152,830; 8599,688;18,21356
 250,05; 1790,247;  204,365; 9042,229;17,94418
 250,65; 1823,014;  167,820; 9488,093;17,75907
 251,25; 1893,865;  178,286;10021,829;17,42847
 251,85; 2000,739;  182,894;10653,323;17,36171
 252,44; 2083,215;  149,515;11376,948;17,22300
 253,04; 2233,317;  198,362;12268,532;16,85937
 253,64; 2316,371;  144,588;13140,502;16,71127
 254,24; 2539,582;  200,287;14187,567;16,72444
 254,84; 2687,842;  176,522;15338,996;16,56273
 255,43; 2905,941;  181,361;16441,168;16,75653
 256,03; 3110,980;  189,358;17674,950;16,70874
 256,63; 3324,496;  192,278;18907,965;16,73579
 257,23; 3472,300;  171,663;19978,647;16,66400
 257,82; 3717,181;  194,582;21230,937;16,74529
 258,42; 3894,476;  155,042;22375,919;16,82847
 259,02; 4179,871;  208,977;23416,897;17,11008
 259,62; 4320,722;  174,348;24318,953;17,17309
 260,21; 4489,304;  184,976;25013,690;17,33609
 260,81; 4615,927;  183,213;25624,225;17,42350
 261,41; 4769,190;  171,889;26292,804;17,60008
 262,01; 4978,217;  211,654;26975,282;17,80985
 262,60; 5069,607;  174,663;27463,031;17,93784
 263,20; 5224,045;  171,974;27904,384;18,21721
 263,80; 5331,386;  201,654;28229,185;18,30248
 264,40; 5412,002;  169,732;28449,208;18,53736
 264,99; 5571,392;  192,961;28660,660;18,89310
 265,59; 5602,153;  179,340;28893,972;18,88519
 266,19; 5735,512;  161,270;29175,386;19,21217
 266,78; 5887,333;  219,651;29399,987;19,42295
 267,38; 5910,523;  190,264;29352,707;19,61516
 267,98; 5933,893;  179,959;29466,465;19,64705
 268,58; 6045,344;  183,957;29493,222;19,99841
 269,17; 6072,257;  177,337;29577,473;20,05066
 269,77; 6066,001;  189,123;29266,106;20,21144
 270,37; 6079,023;  153,346;29253,102;20,36332
 270,96; 6148,246;  224,736;29001,887;20,58407
 271,56; 6111,472;  177,971;28718,942;20,78942
 272,16; 6070,670;  183,427;28531,176;20,76794
 272,75; 6107,781;  179,735;28438,781;20,97752
 273,35; 6147,791;  180,968;28492,693;21,07545
 273,95; 6128,984;  188,813;28468,674;21,00495
 274,54; 6202,108;  176,134;28382,363;21,36398
 275,14; 6335,262;  205,122;28954,428;21,32274
 275,74; 6333,553;  158,504;28965,480;21,43595
 276,33; 6574,810;  207,123;29476,725;21,75529
 276,93; 6668,939;  178,596;29891,483;21,84353
 277,53; 6847,101;  181,053;30469,874;22,00828
 278,12; 7011,894;  160,510;31080,730;22,15826
 278,72; 7261,941;  219,668;31838,915;22,27211
 279,32; 7418,165;  182,590;32489,494;22,39637
 279,91; 7660,257;  161,127;33366,067;22,58438
 280,51; 7894,187;  184,899;34012,841;22,78970
 281,11; 8131,386;  170,358;34876,889;22,93813
 281,70; 8269,189;  155,050;35308,164;23,08228
 282,30; 8515,010;  166,125;36176,249;23,18483
 282,90; 8760,819;  178,201;36604,099;23,56186
 283,49; 9033,609;  190,583;37302,355;23,82809
 284,09; 9288,681;  212,588;37743,355;24,18308
 284,69; 9474,464;  211,128;38090,989;24,45451
 285,28; 9619,401;  192,818;38595,308;24,54680
 285,88; 9934,403;  248,197;38774,102;25,14206
 286,47;10009,693;  190,509;39004,667;25,29794
 287,07;10222,501;  210,590;38992,293;25,81607
 287,67;10470,580;  196,367;39142,990;26,38024
 288,26;10569,965;  173,974;39033,454;26,75278
 288,86;10840,103;  181,973;39203,121;27,31373
 289,46;11151,125;  208,974;39328,621;27,97099
 290,05;11353,739;  171,440;39402,244;28,50387
 290,65;11713,342;  184,662;39742,250;29,14404
 291,24;12044,673;  189,206;39857,457;29,88654
 291,84;12325,650;  190,586;39984,888;30,49448
 292,44;12681,008;  193,367;40181,331;31,22850
 293,03;13008,507;  262,898;40338,407;31,80398
 293,63;13246,333;  185,047;40528,691;32,37508
 294,22;13482,399;  206,204;40706,632;32,78038
 294,82;13668,703;  185,271;40767,174;33,22523
 295,41;13637,035;  173,511;40305,933;33,54775
 296,01;13811,667;  219,196;40292,531;33,91899
 296,61;13844,073;  206,129;39981,129;34,28773
 297,20;13783,289;  193,504;39570,490;34,51200
 297,80;13811,173;  201,518;39286,775;34,82043
 298,39;13668,739;  173,586;38834,323;34,90661
 298,99;13676,886;  216,967;38727,141;34,95159
 299,58;13657,616;  203,981;38503,349;35,12756
 300,18;13582,388;  206,979;38361,926;35,05550
 300,78;13425,043;  181,823;37955,038;35,05982
 301,37;13344,416;  200,037;37824,584;34,93565
 301,97;13400,331;  195,051;37965,521;34,96192
 302,56;13363,558;  176,124;37860,577;34,99436
 303,16;13303,791;  171,738;37803,792;34,89592
 303,75;13224,148;  179,439;37750,475;34,72012
 304,35;13331,984;  174,062;38078,968;34,71298
 304,94;13252,340;  180,359;38045,641;34,52234
 305,54;13234,470;  205,438;37956,894;34,51266
 306,13;13124,018;  162,139;37817,650;34,42226
 306,73;12927,432;  169,060;37699,181;33,99502
 307,33;12906,918;  199,905;37580,566;33,99355
 307,92;12874,147;  196,668;37708,122;33,79629
 308,52;12963,219;  176,584;38301,649;33,53866
 309,11;13097,418;  177,426;38836,983;33,41992
 309,71;13136,768;  162,654;39062,178;33,35288
 310,30;13112,344;  175,206;39374,979;33,00309
 310,90;13255,344;  219,821;39805,209;32,93014
 311,49;13244,977;  186,205;40051,196;32,75749
 312,09;13191,490;  156,979;40225,718;32,53037
 312,68;13331,135;  238,592;40678,326;32,37544
 313,28;13264,916;  156,745;40746,738;32,29410
 313,87;13156,784;  143,744;40970,885;31,87350
 314,47;13137,993;  181,120;41423,848;31,41614
 315,06;13138,439;  166,822;41394,219;31,46359
 315,66;13078,182;  167,364;41750,334;31,04833
 316,25;12911,004;  144,431;41409,652;30,93785
 316,85;12880,705;  146,979;41637,354;30,69080
 317,44;12847,695;  169,580;41819,484;30,43972
 318,04;12684,382;  157,048;41725,507;30,13664
 318,63;12605,214;  161,060;41782,846;29,89817
 319,22;12534,742;  174,354;42126,384;29,46315
 319,82;12442,943;  175,741;42131,854;29,23818
 320,41;12318,391;  189,816;41995,758;29,01161
 321,01;12198,536;  194,978;42176,428;28,59253
 321,60;12095,183;  184,742;42249,743;28,31437
 322,20;11979,233;  164,283;42279,165;28,05410
 322,79;11898,682;  206,129;42434,961;27,68855
 323,39;11805,479;  178,753;42486,859;27,48108
 323,98;11651,163;  157,592;42432,433;27,18773
 324,58;11503,000;  167,199;42297,084;26,90679
 325,17;11376,179;  170,662;42200,899;26,66061
 325,76;11209,633;  190,897;41944,354;26,39000
 326,36;10974,575;  150,363;41454,047;26,20641
 326,95;10816,909;  195,973;41194,502;25,90565
 327,55;10556,254;  157,741;40819,014;25,57350
 328,14;10389,871;  166,365;40385,196;25,41970
 328,74;10180,431;  196,354;39859,146;25,17240
 329,33; 9954,194;  187,286;39413,361;24,89902
 329,92; 9643,273;  163,811;38764,795;24,55757
 330,52; 9400,610;  188,673;37956,005;24,39128
 331,11; 9225,657;  175,665;37483,716;24,25748
 331,71; 8933,796;  179,589;36868,297;23,86077
 332,30; 8742,802;  196,436;36296,949;23,67381
 332,89; 8540,058;  235,285;35572,425;23,50154
 333,49; 8247,460;  192,588;34988,783;23,14871
 334,08; 8084,857;  185,510;34527,656;23,00190
 334,68; 7886,278;  175,126;34029,115;22,77768
 335,27; 7753,829;  193,366;33538,670;22,67325
 335,86; 7631,195;  232,972;33293,101;22,37808
 336,46; 7495,607;  193,213;32980,021;22,27236
 337,05; 7360,940;  175,126;32833,770;22,00279
 337,65; 7275,521;  162,433;32586,472;21,93770
 338,24; 7229,587;  204,976;32609,051;21,67817
 338,83; 7141,507;  200,976;32374,352;21,57228
 339,43; 7057,167;  165,277;32404,926;21,37706
 340,02; 7024,200;  179,430;32310,893;21,30239
 340,61; 6967,350;  178,976;32399,554;21,06844
 341,21; 6934,662;  206,277;32414,685;20,89015
 341,80; 6860,909;  180,356;32314,864;20,78934
 342,40; 6859,222;  173,058;32469,075;20,70275
 342,99; 6805,981;  169,747;32633,271;20,44213
 343,58; 6831,348;  175,363;32798,054;20,40293
 344,18; 6832,662;  192,209;32955,244;20,26812
 344,77; 6859,548;  168,969;33314,896;20,18522
 345,36; 6911,678;  161,434;33686,117;20,13515
 345,96; 6996,834;  196,516;34056,000;20,08394
 346,55; 6972,950;  179,446;34413,133;19,84450
 347,14; 7057,875;  157,519;34758,225;19,94282
 347,74; 7092,000;  152,451;35301,062;19,74345
 348,33; 7255,203;  178,912;36095,701;19,70190
 348,92; 7398,260;  176,839;36779,699;19,72912
 349,52; 7470,742;  153,145;37329,362;19,68355
 350,11; 7519,772;  168,660;37571,706;19,65378
 350,70; 7510,236;  172,514;37759,403;19,52203
 351,29; 7430,847;  147,112;37369,117;19,56836
 351,89; 7451,636;  194,426;37340,471;19,53697
 352,48; 7436,738;  155,283;37439,253;19,52972
 353,07; 7410,441;  184,136;37413,970;19,40999
 353,67; 7431,894;  194,147;37241,401;19,53653
 354,26; 7387,887;  178,212;36934,891;19,61460
 354,85; 7336,896;  175,056;36891,581;19,50577
 355,45; 7273,570;  153,894;36537,727;19,56824
 356,04; 7263,063;  183,752;36509,930;19,48818
 356,63; 7256,919;  202,358;36247,314;19,57156
 357,22; 7178,755;  188,807;36150,798;19,43704
 357,82; 7218,860;  181,040;35862,643;19,72395
 358,41; 7221,688;  195,897;35670,414;19,80518
 359,00; 7185,718;  157,816;35416,899;19,93217
 359,60; 7184,575;  179,822;35389,155;19,89459
 360,19; 7193,965;  200,060;35155,398;20,00812
 360,78; 7178,420;  180,356;34966,295;20,11751
 361,37; 7153,546;  184,972;34661,650;20,21243
 361,97; 7146,002;  182,050;34589,889;20,23943
 362,56; 7081,172;  172,660;34176,224;20,31702
 363,15; 7125,309;  223,895;33867,536;20,51328
 363,74; 7082,824;  187,504;33534,714;20,67735
 364,34; 7098,041;  200,585;33058,417;20,99182
 364,93; 6946,295;  170,352;32472,319;20,97688
 365,52; 6868,657;  149,511;31996,178;21,09843
 366,11; 6858,807;  182,200;31660,103;21,21046
 366,71; 6795,819;  175,508;31199,307;21,33946
 367,30; 6772,731;  171,665;30815,094;21,54154
 367,89; 6790,219;  214,748;30544,715;21,67978
 368,48; 6812,230;  193,582;30179,808;22,07230
 369,07; 6686,082;  187,052;29522,711;22,15403
 369,67; 6699,606;  206,198;29218,710;22,38141
 370,26; 6612,181;  177,360;28888,112;22,41258
 370,85; 6659,029;  185,126;28556,666;22,81830
 371,44; 6641,928;  184,896;28357,435;22,91959
 372,03; 6594,745;  154,200;28132,391;23,01988
 372,63; 6584,125;  157,973;27646,214;23,37782
 373,22; 6572,178;  171,206;27237,698;23,64906
 373,81; 6524,555;  153,280;26869,231;23,84821
 374,40; 6518,422;  173,288;26611,169;24,00016
 374,99; 6575,555;  165,664;26272,286;24,55274
 375,59; 6511,570;  165,980;25907,594;24,65110
 376,18; 6606,589;  201,664;25786,737;25,03384
 376,77; 6602,691;  198,205;25584,959;25,22767
 377,36; 6610,531;  204,203;25603,593;25,22237
 377,95; 6622,533;  194,739;25167,785;25,73893
 378,55; 6621,151;  172,440;24949,659;26,02678
 379,14; 6657,364;  193,434;24881,312;26,18261
 379,73; 6684,939;  174,355;24717,955;26,52661
 380,32; 6806,476;  194,589;24783,324;26,88990
 380,91; 6767,058;  174,967;24615,513;26,97195
 381,50; 6880,683;  190,814;24568,194;27,44294
 382,10; 6901,322;  168,589;24405,939;27,77834
 382,69; 6929,866;  152,972;24328,931;28,03154
 383,28; 7037,443;  203,276;24238,789;28,43362
 383,87; 6984,573;  172,661;24083,843;28,48839
 384,46; 7072,048;  175,425;24047,479;28,88995
 385,05; 7178,209;  202,199;24006,759;29,30535
 385,64; 7205,730;  195,123;24065,872;29,36903
 386,24; 7237,719;  159,501;23942,693;29,76143
 386,83; 7381,869;  203,193;24066,663;30,08228
 387,42; 7476,905;  199,431;24173,658;30,35541
 388,01; 7623,542;  184,111;24341,640;30,79549
 388,60; 7809,128;  193,118;24709,739;31,06468
 389,19; 7926,989;  175,259;24923,684;31,32211
 389,78; 8117,279;  175,260;25264,489;31,65509
 390,37; 8425,712;  238,806;25707,842;32,14454
 390,96; 8511,402;  177,501;25862,265;32,44686
 391,56; 8648,053;  179,103;26100,820;32,67126
 392,15; 8801,008;  169,184;26383,893;32,92741
 392,74; 8900,257;  156,633;26661,230;32,98908
 393,33; 9163,640;  173,486;27021,151;33,48579
 393,92; 9443,372;  184,859;27416,297;33,99935
 394,51; 9520,631;  161,486;27625,647;34,07767
 395,10; 9738,944;  204,385;27911,868;34,41149
 395,69; 9864,511;  193,156;28069,635;34,69360
 396,28; 9988,641;  203,303;28244,714;34,89603
 396,87;10117,302;  201,830;28278,280;35,31597
 397,46;10246,866;  202,977;28389,844;35,63322
 398,06;10428,479;  223,583;28684,409;35,85594
 398,65;10556,894;  186,330;28773,929;36,27644
 399,24;10678,828;  208,403;28930,889;36,45376
 399,83;10709,941;  189,754;28943,818;36,58678
 400,42;10916,369;  234,878;29129,852;36,96661
 401,01;11019,993;  199,152;29283,114;37,20553
 401,60;11158,349;  212,721;29237,521;37,71129
 402,19;11138,233;  226,300;29180,389;37,68702
 402,78;11280,136;  237,243;29238,004;38,07794
 403,37;11247,890;  229,421;29088,693;38,18000
 403,96;11289,136;  220,819;28866,323;38,63893
 404,55;11377,149;  224,826;28737,408;39,11369
 405,14;11334,416;  214,686;28590,262;39,18768
 405,73;11338,622;  223,688;28460,261;39,36361
 406,32;11392,232;  226,561;28439,831;39,57595
 406,91;11374,805;  222,888;28051,176;40,07403
 407,50;11381,440;  233,397;27885,955;40,31469
 408,09;11314,907;  199,914;27519,244;40,68545
 408,68;11327,700;  216,822;27407,573;40,86271
 409,27;11203,561;  203,611;27184,332;40,76967
 409,86;11281,500;  214,194;26963,467;41,37423
 410,45;11330,625;  245,386;26892,896;41,59953
 411,04;11332,483;  254,194;26825,042;41,69340
 411,63;11240,329;  239,245;26454,305;41,96475
 412,22;11149,475;  236,983;26181,055;42,06160
 412,81;11152,630;  248,845;25852,388;42,58702
 413,40;11000,947;  256,482;25492,080;42,57662
 413,99;10958,459;  300,244;25065,382;43,03717
 414,58;10733,140;  230,633;24623,115;43,05633
 415,17;10708,218;  237,999;24339,435;43,44230
 415,76;10723,982;  227,443;24224,896;43,74022
 416,35;10629,797;  228,683;23937,803;43,86968
 416,94;10702,832;  254,678;24051,686;43,90533
 417,53;10845,086;  227,770;24292,628;44,11959
 418,12;11013,306;  232,082;24383,438;44,64024
 418,71;11214,735;  256,790;24860,397;44,53796
 419,30;11320,402;  246,699;24968,470;44,79332
 419,89;11435,781;  223,010;25135,525;45,00859
 420,48;11718,335;  255,252;25478,878;45,44582
 421,07;11755,447;  247,640;25620,321;45,35511
 421,66;11776,807;  216,496;25646,264;45,45976
 422,25;11862,067;  228,590;25592,673;45,86595
 422,84;11894,330;  261,517;25527,800;46,04085
 423,43;11756,719;  236,509;25232,040;46,08908
 424,02;11686,907;  259,282;24872,944;46,42798
 424,60;11487,828;  237,766;24363,300;46,63135
 425,19;11381,153;  245,831;23974,682;46,92736
 425,78;11345,806;  255,679;23951,779;46,80149
 426,37;11314,110;  258,456;23789,385;46,98350
 426,96;11254,621;  245,302;23649,740;47,03945
 427,55;11265,680;  243,545;23412,611;47,57263
 428,14;11198,115;  224,243;23232,847;47,69465
 428,73;11123,352;  231,617;22975,895;47,88780
 429,32;11115,983;  262,608;22932,162;47,87644
 429,91;11200,986;  266,310;22943,828;48,21814
 430,50;11113,462;  261,778;22755,783;48,24256
 431,08;11024,528;  267,477;22570,407;48,23156
 431,67;11025,638;  310,329;22488,042;48,31566
 432,26;10939,713;  331,180;22151,918;48,61675
 432,85;10800,196;  348,563;21789,120;48,74702
 433,44;10598,802;  362,110;21347,251;48,78067
 434,03;10432,577;  365,506;20946,123;48,91530
 434,62;10159,986;  318,957;20417,157;48,96473
 435,21;10073,261;  340,333;20272,631;48,82993
 435,79; 9996,576;  322,579;20002,340;49,15709
 436,38; 9985,496;  326,897;19925,091;49,28311
 436,97; 9988,798;  325,437;19817,408;49,57611
 437,56; 9854,268;  314,992;19562,777;49,56038
 438,15; 9837,703;  290,680;19476,971;49,75961
 438,74; 9863,350;  313,605;19481,053;49,82272
 439,33; 9945,851;  287,757;19497,165;50,27794
 439,91; 9913,570;  245,303;19573,117;50,02256
 440,50;10023,561;  306,303;19638,558;50,26448
 441,09;10075,758;  288,544;19760,150;50,26403
 441,68;10103,296;  282,322;19706,655;50,56016
 442,27;10098,024;  270,011;19745,945;50,46234
 442,86;10081,956;  245,955;19721,175;50,50521
 443,44;10117,263;  261,104;19793,776;50,45986
 444,03;10217,233;  328,878;19820,061;50,73245
 444,62;10109,913;  264,647;19679,318;50,71044
 445,21;10006,559;  269,568;19445,079;50,77826
 445,80;10016,436;  289,118;19372,359;50,97309
 446,39; 9863,549;  337,962;19011,849;51,01020
 446,97; 9716,242;  250,821;18840,960;50,91636
 447,56; 9591,666;  257,215;18524,084;51,10045
 448,15; 9559,950;  260,282;18337,402;51,44441
 448,74; 9366,615;  280,514;18026,394;51,20118
 449,33; 9273,611;  259,983;17866,055;51,19613
 449,91; 9168,285;  251,455;17570,442;51,48586
 450,50; 9063,927;  259,991;17297,350;51,67430
 451,09; 9057,321;  285,839;17226,339;51,77818
 451,68; 8988,818;  300,997;17102,804;51,70766
 452,26; 8916,952;  283,772;17030,593;51,55116
 452,85; 8834,308;  268,230;16936,648;51,39107
 453,44; 8841,900;  290,014;16939,936;51,36292
 454,03; 8844,427;  256,390;16846,173;51,76702
 454,61; 8811,054;  250,169;16820,266;51,66466
 455,20; 8965,443;  277,174;17078,617;51,71145
 455,79; 8936,447;  289,165;16986,449;51,78855
 456,38; 8968,360;  296,567;17164,678;51,40939
 456,97; 9049,863;  266,026;17172,028;51,95692
 457,55; 9045,801;  273,725;17172,291;51,91018
 458,14; 9016,054;  286,409;17167,825;51,71157
 458,73; 9002,724;  283,264;17100,544;51,84822
 459,31; 9035,924;  312,042;17137,143;51,85039
 459,90; 9073,393;  316,422;17295,920;51,57379
 460,49; 9163,106;  364,958;17361,483;51,76439
 461,08; 9179,550;  279,970;17441,739;51,85701
 461,66; 9221,954;  281,504;17518,719;51,86714
 462,25; 9313,283;  282,128;17645,449;52,01283
 462,84; 9275,858;  315,740;17659,377;51,66228
 463,43; 9186,766;  252,676;17615,201;51,45617
 464,01; 9222,817;  279,989;17602,723;51,62481
 464,60; 9246,217;  335,211;17568,320;51,70864
 465,19; 9062,593;  270,376;17198,651;51,93806
 465,77; 9038,957;  283,765;17229,824;51,66506
 466,36; 8997,932;  312,984;17093,712;51,75549
 466,95; 8730,200;  293,062;16713,962;51,38048
 467,53; 8593,891;  288,694;16421,750;51,47938
 468,12; 8437,682;  316,849;16087,943;51,49188
 468,71; 8277,233;  296,300;15790,389;51,50953
 469,29; 8146,514;  272,850;15529,832;51,60695
 469,88; 7943,619;  273,316;15166,261;51,50293
 470,47; 8049,302;  345,017;15330,777;51,41071
 471,06; 7964,437;  297,402;15300,251;51,10386
 471,64; 8067,723;  298,169;15390,728;51,47937
 472,23; 8041,894;  275,262;15451,756;51,17540
 472,81; 8083,476;  270,331;15582,845;51,02457
 473,40; 8163,300;  278,186;15703,080;51,11941
 473,99; 8312,863;  372,724;15886,104;51,18252
 474,57; 8335,934;  285,724;16111,606;50,86737
 475,16; 8437,071;  299,487;16293,259;50,87970
 475,75; 8499,487;  322,884;16323,869;51,10062
 476,33; 8542,842;  314,275;16490,199;50,86923
 476,92; 8503,359;  308,033;16548,808;50,46142
 477,51; 8597,648;  310,580;16611,204;50,83896
 478,09; 8587,466;  306,503;16621,328;50,75729
 478,68; 8488,550;  305,352;16593,948;50,23882
 479,27; 8518,918;  338,884;16548,293;50,46472
 479,85; 8504,888;  318,275;16619,600;50,22054
 480,44; 8553,542;  302,355;16731,357;50,22330
 481,02; 9408,319;  312,515;18562,738;49,83941
 481,61;10563,413;  343,127;20852,679;49,83183
 482,20;11204,919;  334,207;22219,373;49,67160
 482,78;11712,711;  356,507;23124,545;49,87783
 483,37;11986,158;  342,908;23711,206;49,82498
 483,95;12163,445;  374,295;24099,851;49,68967
 484,54;12214,336;  382,434;24269,195;49,53330
 485,13;12144,460;  355,841;24152,213;49,53956
 485,71;11961,376;  326,223;23848,593;49,46420
 486,30;11826,194;  377,915;23463,717;49,59013
 486,88;11575,543;  413,532;23027,458;49,35901
 487,47;11160,045;  387,919;22239,507;49,29676
 488,05;10597,480;  380,461;21146,391;49,20087
 488,64; 9812,398;  369,775;19587,667;49,13454
 489,23; 8691,394;  381,232;17362,008;48,93865
 489,81; 7442,382;  380,003;14888,772;48,67662
 490,40; 7052,878;  335,928;14300,400;48,10028
 490,98; 6868,125;  316,777;13995,218;47,89543
 491,57; 6853,203;  340,156;13902,419;48,02331
 492,15; 6744,778;  325,624;13829,391;47,53602
 492,74; 6712,280;  326,308;13651,066;47,92561
 493,32; 6687,876;  345,392;13579,669;47,92467
 493,91; 6551,545;  317,089;13407,144;47,62742
 494,50; 6500,607;  330,793;13387,330;47,25460
 495,08; 6407,281;  317,947;13341,859;46,75503
 495,67; 6453,237;  339,780;13260,352;47,31568
 496,25; 6350,553;  278,326;13179,140;47,06856
 496,84; 6330,461;  276,626;13171,008;46,94940
 497,42; 6253,332;  279,866;13083,075;46,65600
 498,01; 6178,686;  311,474;12980,017;46,31324
 498,59; 6104,025;  275,714;12968,559;45,91808
 499,18; 6088,382;  272,474;12887,124;46,10439
 499,76; 6046,384;  299,941;12776,083;46,05945
 500,35; 5928,199;  282,412;12581,990;45,90228
 500,93; 5848,196;  284,943;12532,293;45,42414
 501,52; 5811,809;  276,329;12419,462;45,58527
 502,10; 5795,858;  288,801;12366,037;45,59866
 502,69; 5682,244;  272,729;12183,358;45,41755
 503,27; 5542,281;  249,025;11948,958;45,24176
 503,86; 5525,253;  267,496;11872,356;45,30651
 504,44; 5410,128;  255,346;11743,246;44,87140
 505,03; 5253,371;  234,269;11415,450;44,88884
 505,61; 5165,789;  269,037;11260,394;44,55093
 506,19; 5068,414;  272,423;11047,691;44,50925
 506,78; 4923,128;  240,509;10842,267;44,16832
 507,36; 4848,943;  255,653;10682,725;44,05158
 507,95; 4781,209;  248,820;10513,057;44,15709
 508,53; 4662,515;  257,739;10371,812;43,55096
 509,12; 4587,418;  262,434;10229,633;43,39216
 509,70; 4494,649;  275,129;10006,678;43,35918
 510,29; 4423,084;  275,287; 9834,123;43,39228
 510,87; 4293,260;  250,508; 9618,789;43,15361
 511,46; 4220,353;  243,049; 9467,506;43,11694
 512,04; 4096,259;  245,669; 9264,610;42,69448
 512,62; 3995,017;  260,895; 9084,707;42,31870
 513,21; 3925,066;  236,057; 8856,213;42,79515
 513,79; 3848,993;  240,763; 8741,200;42,44758
 514,38; 3740,536;  234,527; 8571,585;42,05331
 514,96; 3699,674;  272,680; 8452,275;41,89687
 515,54; 3596,472;  231,914; 8307,988;41,66081
 516,13; 3565,909;  260,069; 8148,603;41,90691
 516,71; 3467,880;  242,536; 8028,371;41,42580
 517,30; 3409,411;  239,541; 7918,211;41,28150
 517,88; 3379,531;  264,310; 7867,913;40,97032
 518,46; 3249,116;  238,928; 7656,306;40,58292
 519,05; 3232,044;  246,470; 7638,173;40,39087
 519,63; 3188,440;  262,083; 7514,332;40,35102
 520,22; 3177,904;  262,784; 7445,821;40,58339
 520,80; 3083,369;  247,939; 7367,466;39,82610
 521,38; 3105,188;  286,317; 7353,614;39,88613
 521,97; 3018,527;  257,097; 7281,333;39,31289
 522,55; 3005,182;  259,558; 7301,951;38,98709
 523,13; 2992,555;  243,100; 7235,508;39,32059
 523,72; 2984,005;  239,927; 7222,778;39,29739
 524,30; 3052,550;  277,796; 7389,177;39,01850
 524,89; 2997,146;  238,405; 7373,054;38,66680
 525,47; 3060,209;  272,720; 7507,848;38,52715
 526,05; 3047,120;  212,414; 7542,206;38,67377
 526,64; 3097,835;  250,031; 7702,114;38,21487
 527,22; 3134,532;  264,105; 7826,905;37,95456
 527,80; 3192,764;  299,262; 7936,589;37,88632
 528,39; 3198,162;  236,726; 8079,245;37,76128
 528,97; 3262,195;  255,879; 8216,036;37,76705
 529,55; 3329,349;  264,792; 8398,070;37,67924
 530,14; 3367,661;  275,498; 8635,518;36,98751
 530,72; 3363,168;  244,110; 8740,621;36,70987
 531,30; 3422,741;  226,268; 8917,086;36,77989
 531,89; 3440,717;  253,576; 8952,678;36,63758
 532,47; 3497,333;  292,270; 9083,493;36,45753
 533,05; 3520,561;  280,646; 9093,388;36,76398
 533,63; 3518,204;  275,963; 9189,539;36,37418
 534,22; 3511,548;  262,887; 9244,228;36,17123
 534,80; 3517,196;  287,277; 9288,247;35,88412
 535,38; 3584,243;  364,423; 9440,343;35,47652
 535,97; 3456,791;  270,809; 9341,255;35,12487
 536,55; 3496,058;  311,509; 9435,865;34,90163
 537,13; 3500,824;  333,960; 9437,408;34,78753
 537,71; 3526,129;  379,190; 9454,224;34,67688
 538,30; 3502,407;  408,196; 9552,939;33,83596
 538,88; 3542,826;  442,052; 9663,564;33,62544
 539,46; 3599,390;  505,815; 9877,097;33,01122
 540,05; 3637,619;  521,434;10009,619;32,84279
 540,63; 3695,167;  584,127;10211,816;32,31346
 541,21; 3698,072;  616,131;10360,128;31,62913
 541,79; 3764,048;  666,284;10492,643;31,52504
 542,38; 3811,846;  694,510;10649,590;31,31402
 542,96; 3861,541;  715,597;10826,563;31,11418
 543,54; 3880,620;  723,514;11076,303;30,49522
 544,12; 3911,060;  690,747;11230,716;30,55335
 544,70; 3915,381;  678,597;11332,472;30,38129
 545,29; 3970,523;  691,895;11467,071;30,42761
 545,87; 3988,201;  657,515;11489,259;30,74931
 546,45; 3942,197;  609,972;11481,138;30,65196
 547,03; 3962,096;  562,667;11594,568;30,81454
 547,62; 3959,706;  537,593;11769,522;30,46773
 548,20; 4023,781;  539,442;12006,276;30,38623
 548,78; 4071,831;  483,377;12138,565;30,78847
 549,36; 4072,563;  441,684;12306,161;30,60294
 549,94; 4130,482;  400,210;12432,658;31,00177
 550,53; 4154,215;  414,451;12694,266;30,45456
 551,11; 4168,662;  380,149;12908,400;30,23976
 551,69; 4281,310;  393,683;13245,145;30,25047
 552,27; 4336,977;  344,679;13473,800;30,40796
 552,85; 4410,998;  355,302;13872,891;30,00310
 553,44; 4504,018;  351,529;14212,740;29,95762
 554,02; 4636,443;  353,916;14576,943;30,10982
 554,60; 4648,961;  295,842;14918,302;29,77009
 555,18; 4756,769;  330,914;15274,523;29,61704
 555,76; 4843,532;  312,301;15730,070;29,38967
 556,34; 4964,818;  318,539;16110,744;29,42134
 556,93; 5058,969;  304,453;16524,255;29,31303
 557,51; 5099,815;  287,693;16869,583;29,02035
 558,09; 5216,855;  304,761;17256,566;28,97682
 558,67; 5326,207;  307,158;17648,534;28,94262
 559,25; 5403,643;  323,310;18007,696;28,72779
 559,83; 5462,004;  302,546;18345,401;28,59558
 560,41; 5544,297;  289,229;18728,400;28,49948
 561,00; 5628,462;  307,235;19116,480;28,29049
 561,58; 5624,251;  290,921;19327,438;28,01631
 562,16; 5698,930;  272,303;19675,550;27,96762
 562,74; 5784,096;  278,839;20110,555;27,75986
 563,32; 5877,647;  265,930;20529,970;27,69298
 563,90; 5975,065;  287,004;20949,892;27,52791
 564,48; 6078,854;  296,613;21437,903;27,35046
 565,06; 6166,843;  306,927;22127,297;26,85526
 565,65; 6338,591;  292,628;22876,478;26,77118
 566,23; 6568,960;  340,697;23727,092;26,63200
 566,81; 6714,824;  287,617;24510,726;26,53337
 567,39; 6950,026;  300,932;25535,594;26,34905
 567,97; 7082,978;  314,234;26144,826;26,20437
 568,55; 7331,472;  336,622;27166,415;26,07120
 569,13; 7431,419;  283,697;27917,393;25,86596
 569,71; 7674,727;  294,687;29013,811;25,69730
 570,29; 7914,831;  334,992;30096,389;25,46869
 570,87; 8126,394;  325,225;30941,688;25,48031
 571,45; 8254,570;  325,235;31609,363;25,34619
 572,03; 8258,550;  293,548;32143,868;25,00760
 572,61; 8464,795;  281,699;32967,164;25,03589
 573,20; 8615,759;  314,924;33617,830;24,92526
 573,78; 8749,429;  289,699;34373,559;24,82034
 574,36; 8765,973;  325,698;34919,934;24,39792
 574,94; 8860,458;  382,550;35314,064;24,27009
 575,52; 8833,765;  316,019;35552,524;24,17307
 576,10; 8972,493;  373,554;36194,068;24,00563
 576,68; 9070,744;  361,548;36853,640;23,86598
 577,26; 9188,701;  385,714;37576,642;23,66972
 577,84; 9259,210;  381,083;38161,201;23,49947
 578,42; 9313,908;  431,244;38459,829;23,35786
 579,00; 9210,364;  385,238;38593,378;23,09750
 579,58; 9233,442;  424,627;38834,084;22,93398
 580,16; 9196,548;  396,553;38808,644;22,90944
 580,74; 9198,028;  389,476;39054,038;22,78198
 581,32; 9105,406;  382,781;39009,879;22,58162
 581,90; 9048,794;  424,399;38879,547;22,42715
 582,48; 9010,406;  422,091;39172,617;22,16309
 583,06; 9030,990;  416,473;39180,820;22,22278
 583,64; 8997,202;  412,703;39283,271;22,08483
 584,22; 8888,811;  430,328;39106,817;21,86983
 584,80; 8752,905;  420,167;38681,591;21,77843
 585,38; 8610,322;  448,538;38295,908;21,56500
 585,96; 8526,620;  404,085;38219,578;21,47938
 586,54; 8472,879;  443,942;38282,212;21,21909
 587,12; 8482,309;  402,862;38389,415;21,26923
 587,70; 8462,254;  422,778;38481,587;21,12382
 588,28; 8395,567;  406,401;38511,753;20,96600
 588,86; 8391,254;  413,479;38590,685;20,89670
 589,44; 8288,582;  386,333;38608,623;20,67445
 590,02; 8335,440;  397,946;38838,781;20,64860
 590,59; 8303,894;  371,172;38986,654;20,54285
 591,17; 8281,141;  375,033;39198,637;20,36418
 591,75; 8263,097;  368,105;39290,821;20,28376
 592,33; 8338,367;  373,642;39535,318;20,33806
 592,91; 8280,562;  331,262;39761,511;20,16041
 593,49; 8288,133;  333,420;40143,947;19,98143
 594,07; 8305,148;  355,497;40314,081;19,89473
 594,65; 8226,473;  365,789;40319,988;19,67424
 595,23; 8275,584;  366,100;40693,046;19,61340
 595,81; 8265,690;  349,025;40809,044;19,56664
 596,39; 8246,145;  342,564;40992,723;19,44293
 596,97; 8188,615;  338,801;41258,565;19,18343
 597,55; 8163,039;  340,714;41009,756;19,23410
 598,12; 8095,853;  317,960;41111,099;19,06667
 598,70; 8053,815;  302,033;41148,397;18,97790
 599,28; 8077,083;  340,187;41411,393;18,83776
 599,86; 8013,461;  309,955;41385,203;18,75462
 600,44; 7946,000;  293,727;41535,941;18,55447
 601,02; 7956,646;  339,198;41604,867;18,45953
 601,60; 7862,928;  325,798;41550,610;18,28299
 602,18; 7814,782;  299,806;41552,575;18,21690
 602,75; 7795,902;  298,563;41554,189;18,17289
 603,33; 7761,954;  306,264;41695,494;18,01360
 603,91; 7693,559;  298,656;41529,371;17,93542
 604,49; 7695,449;  323,495;41744,637;17,79756
 605,07; 7652,509;  343,490;41730,390;17,66022
 605,65; 7648,797;  344,189;41855,071;17,59685
 606,23; 7642,700;  419,095;41953,782;17,39174
 606,80; 7573,954;  477,178;41965,396;17,10552
 607,38; 7512,663;  518,193;41963,994;16,87618
 607,96; 7491,585;  578,332;42048,453;16,67044
 608,54; 7499,465;  655,958;42069,663;16,52474
 609,12; 7490,453;  639,640;42163,546;16,49848
 609,70; 7417,362;  687,263;42148,033;16,23245
 610,27; 7367,363;  696,254;42161,704;16,08836
 610,85; 7344,624;  728,109;42298,070;15,91658
 611,43; 7330,495;  731,187;42209,423;15,91029
 612,01; 7206,263;  677,104;42004,002;15,79881
 612,59; 7144,350;  686,724;42054,983;15,61010
 613,16; 7063,913;  639,020;42004,917;15,53186
 613,74; 7009,298;  607,879;41892,490;15,50558
 614,32; 6975,564;  551,343;41874,679;15,54623
 614,90; 6915,300;  507,722;41710,583;15,55129
 615,48; 6867,206;  443,637;41340,037;15,70693
 616,05; 6772,180;  417,327;41362,814;15,52028
 616,63; 6693,617;  428,940;41107,745;15,40034
 617,21; 6625,120;  418,562;41058,193;15,27218
 617,79; 6563,271;  395,333;40977,077;15,19880
 618,36; 6548,484;  409,490;40879,443;15,16927
 618,94; 6368,492;  349,561;40506,197;14,98863
 619,52; 6341,875;  374,864;40246,952;14,96538
 620,10; 6313,514;  360,102;40224,335;14,93422
 620,67; 6240,038;  363,940;40124,050;14,77888
 621,25; 6218,838;  390,106;39896,483;14,75390
 621,83; 6111,658;  351,253;39866,016;14,57786
 622,41; 6131,073;  400,868;39882,361;14,51365
 622,98; 6016,324;  365,325;39627,033;14,39316
 623,56; 5998,887;  367,939;39583,188;14,35908
 624,14; 5948,390;  348,031;39486,502;14,30909
 624,72; 5884,455;  339,561;39336,969;14,21862
 625,29; 5893,847;  332,862;39395,800;14,23596
 625,87; 5852,450;  374,564;39315,101;14,06731
 626,45; 5752,287;  327,015;39105,145;13,99055
 627,02; 5723,995;  337,642;38977,060;13,94005
 627,60; 5695,554;  323,419;39002,921;13,88884
 628,18; 5649,068;  304,024;39022,700;13,80482
 628,76; 5624,804;  309,941;39026,274;13,72770
 629,33; 5652,411;  335,328;39137,683;13,70299
 629,91; 5584,283;  317,794;39047,566;13,59804
 630,49; 5614,042;  358,096;39197,640;13,53246
 631,06; 5580,912;  336,941;39275,641;13,46725
 631,64; 5553,536;  322,477;39242,001;13,44071
 632,22; 5494,110;  291,628;39338,237;13,32378
 632,79; 5518,917;  318,859;39573,157;13,24711
 633,37; 5527,567;  295,259;39474,226;13,35489
 633,95; 5497,585;  300,707;39608,333;13,22104
 634,52; 5475,547;  280,637;39778,026;13,15254
 635,10; 5468,985;  288,409;39761,510;13,12432
 635,68; 5461,892;  294,858;39941,518;13,03271
 636,25; 5443,189;  281,392;39949,384;13,01250
 636,83; 5470,420;  280,941;40174,351;13,00836
 637,41; 5411,676;  277,088;40236,322;12,84957
 637,98; 5476,605;  302,549;40428,874;12,89442
 638,56; 5423,669;  289,237;40563,656;12,74862
 639,13; 5414,059;  288,324;40587,813;12,71911
 639,71; 5492,820;  323,326;40792,815;12,77381
 640,29; 5342,598;  250,634;40492,388;12,65343
 640,86; 5361,669;  261,557;40670,603;12,62121
 641,44; 5321,510;  275,173;40661,895;12,49504
 642,02; 5347,736;  304,942;40628,879;12,50571
 642,59; 5285,115;  258,019;40850,632;12,38426
 643,17; 5281,264;  266,404;40893,616;12,34360
 643,74; 5251,874;  263,866;40884,446;12,27951
 644,32; 5264,946;  298,789;40771,276;12,27045
 644,89; 5240,017;  293,174;40824,414;12,20501
 645,47; 5268,012;  308,790;40873,860;12,22535
 646,05; 5216,161;  290,252;40709,459;12,18705
 646,62; 5164,694;  281,329;40667,597;12,09165
 647,20; 5173,458;  297,406;40834,043;12,02875
 647,77; 5144,068;  268,022;40700,488;12,05973
 648,35; 5096,371;  262,406;40662,934;11,96510
 648,92; 5083,442;  281,022;40673,072;11,88952
 649,50; 5047,514;  250,330;40562,748;11,90002
 650,08; 5005,509;  252,176;40433,501;11,82971
 650,65; 5048,042;  271,715;40672,485;11,82237
 651,23; 5084,652;  241,792;41625,239;11,70241
 651,80; 5264,185;  249,485;42686,530;11,81680
 652,38; 5305,411;  268,562;43115,284;11,75551
 652,95; 5310,944;  228,255;43540,806;11,73491
 653,53; 5352,477;  268,870;43811,713;11,67495
 654,10; 5372,395;  292,409;44030,774;11,61449
 654,68; 5319,159;  254,717;43932,066;11,59512
 655,25; 5322,769;  237,948;43918,511;11,64092
 655,83; 5330,995;  249,333;44067,880;11,59706
 656,40; 5334,374;  276,256;44095,710;11,54309
 656,98; 5273,369;  250,718;43958,925;11,49132
 657,55; 5265,287;  267,487;43774,294;11,48740
 658,13; 5155,051;  248,411;43248,124;11,41087
 658,70; 5135,584;  270,488;42924,415;11,40597
 659,28; 5009,425;  271,642;41800,015;11,40854
 659,85; 4903,343;  277,950;41111,307;11,32749
 660,43; 4888,491;  284,642;41146,444;11,26688
 661,00; 4878,794;  263,489;41329,352;11,23879
 661,58; 4889,327;  255,566;41576,259;11,21414
 662,15; 4902,091;  242,412;41733,166;11,23064
 662,73; 4981,393;  330,643;42125,765;11,12749
 663,30; 4984,927;  268,336;42366,595;11,20377
 663,88; 4947,844;  270,028;42426,887;11,09622
 664,45; 4963,455;  254,644;42750,025;11,08076
 665,03; 5016,219;  262,952;43118,394;11,09140
 665,60; 5132,136;  335,645;43618,839;11,08165
 666,17; 5035,439;  255,337;43668,285;11,01077
 666,75; 5106,049;  252,107;44082,730;11,07432
 667,32; 5136,582;  278,722;44412,945;11,00701
 667,90; 5146,269;  270,415;44652,775;10,98602
 668,47; 5197,572;  285,338;45028,605;10,97871
 669,05; 5251,797;  254,877;45230,974;11,11017
 669,62; 5218,177;  240,415;45445,266;11,01156
 670,19; 5226,248;  250,262;45426,788;11,01454
 670,77; 5243,166;  258,570;45669,388;10,97667
 671,34; 5222,315;  239,416;45574,449;10,99128
 671,92; 5261,694;  237,186;45965,125;10,98783
 672,49; 5292,843;  268,878;45987,032;10,98899
 673,06; 5264,453;  221,494;46023,093;11,01044
 673,64; 5276,678;  237,340;46026,385;11,00555
 674,21; 5279,827;  227,417;45941,215;11,05226
 674,79; 5299,668;  265,725;46187,584;10,96197
 675,36; 5341,201;  264,649;46322,644;11,02209
 675,93; 5280,888;  233,034;46178,859;10,98654
 676,51; 5326,806;  254,649;46308,997;11,01342
 677,08; 5314,724;  259,496;46503,827;10,93156
 677,65; 5343,873;  256,265;46552,888;10,98915
 678,23; 5387,406;  257,419;46751,334;11,03367
 678,80; 5400,093;  248,650;46858,087;11,05236
 679,38; 5368,934;  247,266;47109,840;10,92912
 679,95; 5480,390;  252,881;47317,747;11,10703
 680,52; 5493,616;  248,112;47656,885;11,06441
 681,10; 5552,687;  275,036;48104,254;11,03437
 681,67; 5580,451;  256,574;48320,699;11,07661
 682,24; 5578,600;  225,190;48404,530;11,11142
 682,82; 5633,748;  235,806;48952,668;11,08023
 683,39; 5733,282;  295,191;49430,421;11,06760
 683,96; 5756,276;  249,114;49508,405;11,17995
 684,54; 5786,425;  222,268;49864,004;11,20863
 685,11; 5832,574;  271,653;50262,527;11,12387
 685,68; 5875,722;  244,499;50754,895;11,14864
 686,25; 5874,948;  233,346;50844,418;11,14697
 686,83; 5919,481;  244,654;51055,017;11,16864
 687,40; 5930,706;  224,500;51346,694;11,16190
 687,97; 6040,547;  275,731;51750,139;11,19938
 688,55; 5992,388;  224,347;51804,892;11,18259
 689,12; 6036,537;  199,347;52041,107;11,25963
 689,69; 6055,455;  225,578;52085,783;11,24152
 690,26; 6088,680;  238,424;52170,768;11,26515
 690,84; 6107,290;  233,348;52441,982;11,25090
 691,41; 6145,362;  252,809;52486,197;11,28120
 691,98; 6174,357;  245,425;52829,643;11,27512
 692,56; 6181,275;  229,271;52997,857;11,27944
 693,13; 6261,269;  287,579;52920,534;11,34971
 693,70; 6261,418;  262,349;53043,979;11,36583
 694,27; 6253,797;  241,503;53282,963;11,33508
 694,84; 6274,177;  231,657;53357,640;11,37394
 695,42; 6318,018;  283,965;53472,855;11,34457
 695,99; 6333,705;  250,734;53747,223;11,37078
 696,56; 6358,469;  241,889;53559,361;11,47200
 697,13; 6396,002;  261,966;53951,114;11,42510
 697,71; 6389,766;  229,043;53976,483;11,46236
 698,28; 6428,915;  243,197;54357,159;11,43091
 698,85; 6430,832;  208,890;54387,066;11,48422
 699,42; 6483,443;  218,505;54574,973;11,52565
 699,99; 6538,668;  255,659;54751,188;11,52940
 700,57; 6572,586;  251,429;54712,941;11,60665
 701,14; 6548,581;  237,660;54894,310;11,54648
 701,71; 6633,729;  261,583;55089,140;11,62216
 702,28; 6654,263;  249,660;55203,124;11,65459
 702,85; 6662,796;  258,968;55134,724;11,66968
 703,43; 6751,021;  269,199;55389,092;11,75950
 704,00; 6799,016;  276,892;55671,230;11,77399
 704,57; 6802,395;  259,892;55673,368;11,80670
 705,14; 6838,467;  286,354;55892,198;11,78314
 705,71; 6857,077;  296,585;55932,028;11,79193
 706,28; 6838,918;  260,123;55763,397;11,85299
 706,86; 6924,913;  297,585;56023,227;11,89278
 707,43; 6996,446;  316,355;55914,288;12,01500
 708,00; 6943,749;  290,509;56106,503;11,91995
 708,57; 6947,128;  255,048;55978,949;12,00935
 709,14; 7018,661;  285,586;56030,394;12,07839
 709,71; 7032,271;  270,279;56060,917;12,12030
 710,28; 7060,728;  264,894;56358,516;12,11516
 710,86; 7135,030;  265,895;56390,423;12,23910
 711,43; 7147,794;  296,126;56437,638;12,20428
 712,00; 7178,097;  276,818;56659,237;12,24012
 712,57; 7237,322;  282,126;56759,375;12,31504
 713,14; 7241,086;  262,973;56867,513;12,32783
 713,71; 7265,312;  272,050;56818,343;12,36732
 714,28; 7289,460;  257,588;56919,404;12,41025
 714,85; 7303,224;  242,050;56565,004;12,53694
 715,42; 7325,219;  242,358;56728,757;12,53906
 716,00; 7436,368;  316,820;56924,125;12,57708
 716,57; 7454,208;  246,282;56951,802;12,71116
 717,14; 7412,049;  229,974;56936,170;12,66542
 717,71; 7469,813;  230,821;56957,693;12,76113
 718,28; 7511,577;  278,898;57090,138;12,73107
 718,85; 7487,649;  222,821;57116,123;12,76921
 719,42; 7607,028;  257,360;57282,953;12,88837
 719,99; 7567,562;  231,745;57033,706;12,91472
 720,56; 7618,018;  256,360;57311,613;12,90268
 721,13; 7686,243;  232,668;57520,982;13,01064
 721,70; 7650,930;  239,822;57310,581;12,98582
 722,27; 7740,848;  258,976;57399,027;13,09392
 722,84; 7807,535;  299,823;57566,780;13,11003
 723,41; 7777,761;  226,131;57493,072;13,18672
 723,98; 7841,910;  239,823;57758,517;13,21672
 724,55; 7917,981;  264,824;57882,194;13,28273
 725,12; 7878,361;  205,285;57881,947;13,30360
 725,69; 7953,432;  228,670;57941,777;13,38476
 726,27; 7951,889;  246,132;57932,069;13,35812
 726,84; 8036,114;  246,978;58437,283;13,38562
 727,41; 8112,955;  251,671;58343,037;13,53262
 727,98; 8197,565;  259,364;58616,559;13,60278
 728,55; 8182,637;  276,748;58480,851;13,58304
 729,12; 8184,632;  228,364;58644,450;13,61999
 729,69; 8280,703;  273,287;58787,204;13,68464
 730,26; 8358,160;  273,365;58986,572;13,76998
 730,82; 8324,924;  253,365;58801,325;13,78623
 731,39; 8381,688;  237,750;59025,694;13,85307
 731,96; 8435,990;  226,058;59327,140;13,89134
 732,53; 8484,985;  248,673;59445,739;13,91338
 733,10; 8544,980;  270,904;59478,262;13,97474
 733,67; 8609,590;  256,674;59837,399;14,01949
 734,24; 8586,123;  234,982;59425,922;14,10882
 734,81; 8660,887;  279,213;59498,291;14,15367
 735,38; 8634,497;  257,136;59310,813;14,18601
 735,95; 8647,799;  247,213;59091,028;14,27607
 736,52; 8695,487;  265,598;59294,627;14,28092
 737,09; 8684,789;  259,906;58937,919;14,35782
 737,66; 8779,322;  308,368;59125,672;14,40215
 738,23; 8829,086;  241,753;59219,425;14,56031
 738,80; 8932,466;  325,753;59585,717;14,52365
 739,37; 8972,537;  288,599;59725,470;14,61036
 739,94; 9005,301;  264,676;59793,685;14,68297
 740,51; 9106,450;  378,138;59844,131;14,67782
 741,07; 9054,137;  253,908;59775,346;14,78497
 741,64; 9152,901;  295,908;59983,022;14,83904
 742,21; 9164,588;  261,600;60014,391;14,89970
 742,78; 9165,660;  235,678;59743,298;15,00645
 743,35; 9261,424;  248,986;60057,512;15,06882
 743,92; 9347,418;  295,524;60245,266;15,09914
 744,49; 9415,721;  282,063;60010,250;15,29204
 745,06; 9444,023;  247,909;60085,464;15,36847
 745,63; 9458,710;  238,217;60007,141;15,42690
 746,19; 9458,474;  251,833;59962,356;15,41879
 746,76; 9485,777;  256,602;60007,032;15,44621
 747,33; 9514,925;  250,141;60026,247;15,49914
 747,90; 9584,920;  280,911;60227,462;15,52051
 748,47; 9612,376;  259,449;60168,984;15,61175
 749,04; 9622,140;  265,296;60147,583;15,62540
 749,61; 9684,828;  294,911;60038,337;15,71707
 750,17; 9763,053;  285,758;60183,090;15,82257
 750,74; 9767,817;  270,912;60067,997;15,88189
 751,31; 9743,658;  243,835;60065,443;15,88025
 751,88; 9746,499;  241,143;59910,196;15,93013
 752,45; 9827,263;  258,143;60081,718;15,99557
 753,02; 9776,027;  278,836;59896,625;15,93013
 753,58; 9810,175;  233,913;59817,763;16,07191
 754,15; 9888,401;  247,990;59950,286;16,14747
 754,72; 9842,857;  240,375;59794,270;16,12402
 755,29; 9828,006;  234,221;59679,792;16,13877
 755,86; 9843,693;  253,222;59764,930;16,11527
 756,42; 9940,534;  255,145;59646,837;16,30765
 756,99; 9965,529;  217,299;59707,821;16,38619
 757,56; 9947,677;  228,145;59525,421;16,39119
 758,13; 9965,057;  191,300;59519,174;16,47414
 758,70;10079,513;  218,992;59516,312;16,62895
 759,26;10142,585;  204,069;59594,065;16,73433
 759,83;10196,810;  218,685;59743,126;16,76307
 760,40;10178,805;  204,608;59452,187;16,83478
 760,97;10167,030;  192,224;59546,094;16,80565
 761,53;10184,487;  191,609;59311,001;16,90288
 762,10;10196,174;  187,378;59170,831;16,96882
 762,67;10321,476;  214,148;59106,969;17,16224
 763,24;10221,163;  182,225;58661,107;17,16678
 763,80;10250,543;  201,687;58829,168;17,14018
 764,37;10321,845;  211,225;58747,614;17,27237
 764,94;10246,840;  187,379;58355,444;17,29379
 765,50;10287,988;  197,303;58250,889;17,38167
 766,07;10377,060;  233,226;58263,720;17,48018
 766,64;10332,901;  209,996;57982,396;17,52204
 767,21;10350,819;  222,150;57950,688;17,54534
 767,77;10384,506;  223,535;57757,210;17,66091
 768,34;10403,424;  243,996;57835,963;17,64036
 768,91;10449,726;  241,689;57543,101;17,81463
 769,47;10435,952;  240,920;57486,085;17,80942
 770,04;10465,870;  254,151;57440,992;17,85676
 770,61;10445,249;  231,382;57224,361;17,92127
 771,18;10457,705;  222,151;57047,268;18,01238
 771,74;10539,315;  237,459;57235,406;18,07408
 772,31;10524,849;  244,767;56999,467;18,11318
 772,88;10449,690;  209,152;56754,451;18,11033
 773,44;10527,838;  218,614;56536,589;18,30539
 774,01;10566,064;  239,537;56613,342;18,31795
 774,58;10564,751;  222,153;56296,711;18,44437
 775,14;10593,438;  210,999;56412,464;18,47361
 775,71;10580,048;  218,461;56348,294;18,46004
 776,27;10661,812;  280,615;56213,278;18,56017
 776,84;10727,422;  314,154;56304,493;18,59833
 777,41;10717,725;  242,077;55950,785;18,80433
 777,97;10612,335;  227,770;55718,922;18,71391
 778,54;10679,560;  244,924;55748,830;18,79982
 779,11;10714,324;  259,386;55763,506;18,83633
 779,67;10733,473;  220,540;55671,721;18,95890
 780,24;10712,314;  237,540;55375,551;18,99737
 780,80;10797,462;  255,694;55373,919;19,12574
 781,37;10819,611;  250,002;55541,980;19,11599
 781,94;10766,990;  240,156;55196,888;19,15477
 782,50;10815,600;  249,695;55052,718;19,27979
 783,07;10840,288;  262,003;55063,856;19,30279
 783,63;10863,667;  225,849;54920,070;19,44962
 784,20;10888,969;  263,003;54836,977;19,47076
 784,77;10869,195;  235,850;54660,731;19,53765
 785,33;10871,343;  219,773;54378,176;19,66744
 785,90;10923,954;  240,542;54360,622;19,74020
 786,46;10938,564;  260,466;54292,837;19,76241
 787,03;10872,943;  221,004;54110,744;19,76617
 787,59;10930,630;  240,235;53997,420;19,88645
 788,16;10997,240;  251,697;54021,404;19,98438
 788,73;11027,927;  247,697;53785,311;20,13581
 789,29;10933,230;  240,544;53423,988;20,10529
 789,86;10990,994;  258,544;53351,202;20,21456
 790,42;11017,142;  242,237;53140,956;20,36894
 790,99;10953,906;  254,929;52815,940;20,35535
 791,55;10993,824;  229,160;52792,924;20,47925
 792,12;11019,358;  262,160;52820,523;20,46715
 792,68;10996,275;  239,699;52524,738;20,57295
 793,25;10997,962;  254,469;52215,799;20,67594
 793,81;11038,726;  316,546;51916,398;20,77948
 794,38;10868,106;  210,469;51653,459;20,71737
 794,94;10931,793;  212,315;51481,059;20,90841
 795,51;10938,249;  247,854;51209,504;20,97733
 796,07;10861,398;  236,316;51034,488;20,91627
 796,64;10884,777;  265,162;51104,780;20,88846
 797,20;10814,541;  251,240;50573,379;20,99136
 797,77;10808,920;  217,317;50237,363;21,17472
 798,33;10811,684;  241,240;50048,270;21,22280
 798,90;10849,218;  271,240;49972,254;21,28322
 799,46;10782,751;  233,856;49438,238;21,43893
 800,03;10697,592;  238,318;49475,684;21,24255
 800,59;10721,664;  255,087;49325,899;21,32954
 801,15;10700,351;  262,241;48916,344;21,45371
 801,72;10672,807;  259,857;48572,636;21,55320
 802,28;10683,571;  271,011;48293,851;21,68252
 802,85;10653,412;  240,088;48018,143;21,79520
 803,41;10608,022;  234,242;47993,665;21,72091
 803,98;10538,863;  236,319;47385,880;21,85077
 804,54;10535,088;  234,089;47260,172;21,90486
 805,11;10572,083;  235,243;47031,079;22,08923
 805,67;10586,078;  264,243;47025,755;22,07336
 806,23;10486,303;  254,551;46493,662;22,12792
 806,80;10516,375;  264,474;46325,261;22,25733
 807,36;10510,754;  269,090;46274,245;22,26199
 807,93;10517,595;  264,552;46054,999;22,39123
 808,49;10455,898;  227,244;45652,137;22,51773
 809,05;10401,970;  226,399;45456,659;22,49726
 809,62;10443,195;  258,476;45281,566;22,62110
 810,18;10451,113;  243,476;45264,243;22,67317
 810,74;10358,415;  214,245;44941,150;22,68024
 811,31;10378,564;  224,323;44772,518;22,79383
 811,87;10372,866;  241,938;44580,810;22,84886
 812,44;10395,630;  268,631;44608,871;22,83930
 813,00;10367,625;  180,939;44238,470;23,12133
 813,56;10442,851;  245,477;44277,993;23,15873
 814,13;10422,999;  238,632;44153,900;23,19095
 814,69;10392,686;  240,401;43940,730;23,23160
 815,25;10296,373;  207,401;43580,714;23,26078
 815,82;10351,984;  252,401;43491,775;23,35737
 816,38;10373,671;  288,094;43235,682;23,48345
 816,94;10270,742;  228,940;42973,512;23,49258
 817,51;10258,122;  208,556;42691,958;23,65528
 818,07;10178,116;  203,172;42410,711;23,63309
 818,63;10173,419;  242,787;42231,541;23,65069
 819,20;10179,644;  235,711;42167,756;23,71440
 819,76;10157,947;  224,557;41715,125;23,94132
 820,32;10169,249;  253,557;41683,032;23,93391
 820,89;10109,859;  248,634;41346,401;23,99455
 821,45;10075,470;  227,635;41066,692;24,11377
 822,01;10044,849;  243,481;40818,830;24,15597
 822,57;10062,690;  250,712;40752,814;24,22585
 823,14;10026,608;  204,020;40358,567;24,46196
 823,70; 9985,141;  218,790;40197,013;24,42918
 824,26; 9978,213;  217,559;40033,074;24,51470
 824,82; 9972,207;  250,098;39788,058;24,58931
 825,39; 9927,048;  225,098;39508,580;24,69728
 825,95; 9938,197;  247,406;39592,411;24,63030
 826,51; 9913,653;  247,098;39127,164;24,86250
 827,08; 9954,956;  285,176;39188,840;24,85570
 827,64; 9918,720;  255,637;39035,286;24,91792
 828,20; 9836,714;  220,715;38672,270;25,00809
 828,76; 9947,555;  251,099;38728,408;25,20045
 829,32; 9930,550;  259,253;38534,853;25,26752
 829,89; 9825,622;  212,023;38430,529;25,15430
 830,45; 9921,540;  239,408;38338,590;25,41296
 831,01; 9908,457;  234,639;38215,421;25,47030
 831,57; 9877,837;  229,331;37967,635;25,56688
 832,14; 9943,755;  224,178;37938,696;25,77145
 832,70; 9864,442;  222,024;37751,296;25,69306
 833,26; 9879,513;  194,794;37680,434;25,83581
 833,82; 9914,585;  234,025;37455,802;26,00779
 834,38; 9915,349;  216,563;37564,786;25,96853
 834,95; 9822,036;  222,871;37492,463;25,75602
 835,51; 9777,492;  189,025;37183,600;25,91858
 836,07; 9896,872;  226,410;37249,431;26,12013
 836,63; 9911,713;  250,411;37352,261;26,03995
 837,19; 9908,477;  240,257;37063,322;26,25588
 837,75; 9796,087;  207,565;36846,460;26,17034
 838,32; 9919,159;  251,565;36923,751;26,36220
 838,88; 9912,230;  245,027;36891,043;26,37996
 839,44; 9947,686;  249,027;36809,258;26,52789
 840,00; 9983,297;  230,720;36704,011;26,73895
 840,56; 9862,676;  220,874;36469,611;26,59900
 841,12; 9869,209;  219,489;36309,287;26,73808
 841,68; 9830,819;  197,182;36230,194;26,73559
 842,25; 9895,199;  218,875;36164,255;26,91952
 842,81; 9839,732;  204,952;35981,393;26,93052
 843,37; 9848,650;  214,183;35979,454;26,93805
 843,93; 9912,721;  217,798;35781,669;27,26060
 844,49; 9951,562;  234,029;35855,729;27,27981
 845,05; 9913,249;  182,645;35711,329;27,38802
 845,61; 9996,090;  231,799;35821,621;27,43563
 846,17; 9916,854;  216,184;35575,143;27,43483
 846,73; 9918,388;  225,492;35471,973;27,50032
 847,29; 9926,382;  211,492;35325,880;27,66641
 847,86; 9896,685;  209,185;35293,941;27,61171
 848,42; 9831,526;  202,493;35106,310;27,58734
 848,98; 9923,905;  229,724;35013,140;27,87012
 849,54; 9942,361;  220,801;35013,663;27,94125
 850,10; 9912,202;  229,955;34945,108;27,89055
 850,66; 9884,351;  200,417;34694,015;28,07458
 851,22; 9941,500;  202,648;34618,692;28,29742
 851,78; 9997,879;  255,494;34686,676;28,29524
 852,34; 9939,566;  224,725;34413,198;28,41554
 852,90; 9948,099;  213,418;34318,567;28,54314
 853,46; 9928,171;  198,956;34122,935;28,67946
 854,02; 9932,550;  228,495;34106,766;28,64389
 854,58; 9869,007;  221,111;33866,134;28,67555
 855,14; 9914,771;  203,957;33739,580;28,95671
 855,70; 9896,611;  183,188;33581,641;29,08345
 856,26; 9832,068;  224,650;33626,086;28,76349
 856,82; 9777,216;  209,112;33341,916;28,87804
 857,38; 9837,903;  250,497;33316,516;28,99474
 857,94; 9735,514;  221,881;33181,808;28,86424
 858,50; 9837,816;  225,266;32960,484;29,36455
 859,06; 9708,042;  207,805;32807,083;29,14248
 859,62; 9718,498;  232,190;32650,837;29,26189
 860,18; 9658,416;  221,344;32590,590;29,15444
 860,74; 9618,103;  188,575;32362,112;29,30833
 861,30; 9626,251;  193,960;32227,481;29,44507
 861,86; 9719,708;  267,806;32294,542;29,51253
 862,42; 9626,164;  226,268;31965,757;29,61578
 862,98; 9679,082;  248,576;32078,125;29,62815
 863,54; 9640,923;  220,653;31793,032;29,83706
 864,10; 9561,379;  213,269;31937,093;29,46716
 864,66; 9524,066;  202,192;31644,693;29,64737
 865,22; 9561,215;  224,346;31435,984;29,91470
 865,78; 9499,902;  219,192;31266,353;29,89230
 866,34; 9509,435;  204,731;31362,106;29,86357
 866,90; 9539,891;  220,808;31083,475;30,19533
 867,45; 9533,194;  236,578;30929,151;30,28946
 868,01; 9495,496;  223,655;30790,597;30,33290
 868,57; 9503,952;  215,732;30619,966;30,54910
 869,13; 9424,178;  200,732;30401,565;30,54037
 869,69; 9392,327;  210,271;30320,241;30,49507
 870,25; 9392,244;  186,348;30246,302;30,62512
 870,81; 9432,547;  214,810;30184,209;30,75716
 871,37; 9445,234;  223,349;30086,809;30,88016
 871,93; 9385,690;  236,811;29867,716;30,87614
 872,49; 9349,993;  254,580;29613,854;30,97969
 873,04; 9300,449;  202,196;29450,145;31,10732
 873,60; 9265,136;  195,350;29270,822;31,19394
 874,16; 9263,823;  219,119;29224,883;31,18244
 874,72; 9270,438;  217,888;29149,498;31,28948
 875,28; 9280,900;  225,119;29078,806;31,38518
 875,84; 9280,515;  226,581;29020,498;31,44391
 876,40; 9262,823;  213,504;28867,960;31,58084
 876,95; 9262,438;  227,042;28836,113;31,58228
 877,51; 9280,823;  247,273;28855,267;31,57701
 878,07; 9315,054;  253,812;28901,729;31,62967
 878,63; 9299,900;  223,965;28900,037;31,64985
 879,19; 9356,592;  228,812;28924,267;31,80915
 879,75; 9406,746;  216,504;28921,729;32,01592
 880,30; 9373,362;  207,735;28891,883;31,95363
 880,86; 9492,438;  260,042;29039,883;32,07939
 881,42; 9491,054;  206,812;29044,113;32,19525
 881,98; 9595,054;  232,504;29123,190;32,40681
 882,54; 9584,977;  203,119;29288,498;32,25627
 883,09; 9679,208;  219,965;29421,113;32,39339
 883,65; 9748,669;  202,658;29500,883;32,58222
 884,21; 9849,054;  245,427;29732,037;32,56945
 884,77; 9841,669;  215,658;29681,806;32,66803
 885,32; 9911,438;  216,427;29980,883;32,57245
 885,88;10039,054;  248,119;30130,960;32,76440
 886,44;10114,515;  224,119;30121,344;33,08132
 887,00;10157,208;  246,504;30179,498;33,10963
 887,56;10224,438;  210,119;30411,498;33,15848
 888,11;10263,746;  216,273;30340,498;33,35347
 888,67;10334,362;  240,273;30523,960;33,33177
 889,23;10395,054;  224,273;30494,960;33,59944
 889,79;10317,208;  209,658;30424,113;33,45270
 890,34;10361,900;  232,658;30343,883;33,63942
 890,90;10446,208;  290,965;30495,883;33,62116
 891,46;10437,438;  201,427;30323,883;33,98133
 892,01;10473,054;  243,658;30357,652;33,96891
 892,57;10446,515;  258,273;30260,883;33,95785
 893,13;10343,362;  232,965;30047,883;33,91053
 893,69;10421,054;  207,427;29994,344;34,28897
 894,24;10434,131;  218,196;29892,037;34,42741
 894,80;10345,746;  226,658;29773,037;34,24815
 895,36;10320,131;  220,427;29661,729;34,30454
 895,91;10278,977;  220,965;29475,190;34,38140
 896,47;10305,438;  234,965;29274,113;34,67895
 897,03;10195,823;  227,119;29118,037;34,50463
 897,58;10162,592;  233,196;28943,960;34,58423
 898,14;10170,900;  233,196;28747,498;34,85165
 898,70;10132,515;  196,350;28606,421;34,97410
 899,25;10158,515;  218,427;28578,113;35,05006
 899,81;10121,208;  235,581;28370,960;35,13593
 900,37;10080,900;  186,042;28129,421;35,41038
 900,92;10085,592;  221,965;28086,883;35,39801
 901,48;10011,208;  225,581;27998,344;35,23462
 902,03; 9988,977;  217,119;27810,344;35,41397
 902,59; 9945,054;  215,196;27764,498;35,31798
 903,15; 9979,131;  241,658;27546,113;35,66258
 903,70; 9864,362;  215,042;27327,883;35,58948
 904,26; 9891,131;  211,658;27219,267;35,83980
 904,82; 9878,285;  220,273;27155,883;35,85592
 905,37; 9899,592;  227,888;27043,498;36,06744
 905,93; 9826,592;  209,504;26857,729;36,08904
 906,48; 9840,977;  228,735;26871,113;36,07877
 907,04; 9854,362;  232,196;26694,498;36,36179
 907,60; 9782,746;  219,350;26502,421;36,38614
 908,15; 9746,977;  197,888;26350,190;36,51338
 908,71; 9780,592;  238,042;26385,037;36,49578
 909,26; 9691,823;  224,427;26125,652;36,55192
 909,82; 9707,900;  227,196;26128,729;36,60287
 910,37; 9704,515;  266,119;25979,190;36,70661
 910,93; 9558,208;  212,812;25777,421;36,55599
 911,48; 9528,823;  201,888;25659,806;36,63668
 912,04; 9488,438;  220,119;25480,806;36,69069
 912,60; 9556,208;  228,812;25513,729;36,88917
 913,15; 9451,823;  221,273;25329,498;36,76305
 913,71; 9379,977;  204,812;25161,498;36,76436
 914,26; 9372,977;  202,658;25003,344;36,97607
 914,82; 9385,285;  225,735;24906,652;37,11187
 915,37; 9305,592;  199,658;24883,575;36,89015
 915,93; 9373,054;  256,735;24693,344;37,30599
 916,48; 9287,131;  193,581;24655,344;37,17455
 917,04; 9278,823;  227,735;24440,037;37,38219
 917,59; 9305,054;  249,658;24525,113;37,30268
 918,15; 9193,746;  190,042;24173,960;37,54059
 918,70; 9152,515;  205,273;24166,113;37,34110
 919,26; 9158,285;  219,427;24042,652;37,52161
 919,81; 9095,362;  200,658;23895,575;37,53845
 920,37; 9085,977;  204,888;23822,421;37,60379
 920,92; 9090,208;  228,504;23654,498;37,82851
 921,48; 8985,977;  200,504;23530,729;37,65704
 922,03; 9013,977;  205,504;23463,575;37,87276
 922,59; 8933,131;  216,119;23292,575;37,77448
 923,14; 9005,285;  212,273;23113,729;38,39499
 923,69; 9031,823;  223,350;23059,652;38,57224
 924,25; 9025,285;  236,504;22986,344;38,63227
 924,80; 8968,592;  215,735;22825,960;38,71194
 925,36; 8901,438;  203,581;22760,883;38,55895
 925,91; 8880,438;  196,119;22596,498;38,76863
 926,47; 8886,438;  186,812;22550,806;38,90015
 927,02; 8942,977;  273,273;22458,190;39,07927
 927,57; 8881,438;  218,273;22275,421;39,27600
 928,13; 8809,900;  202,581;22197,037;39,13404
 928,68; 8806,438;  207,735;22179,729;39,13484
 929,24; 8699,208;  187,812;21897,806;39,20497
 929,79; 8721,054;  210,965;21808,960;39,40222
 930,34; 8671,362;  212,196;21625,652;39,50397
 930,90; 8679,362;  201,119;21634,190;39,55682
 931,45; 8682,131;  223,658;21562,267;39,63929
 932,01; 8642,208;  224,812;21431,883;39,69146
 932,56; 8637,592;  233,658;21278,729;39,93303
 933,11; 8650,515;  236,504;21355,190;39,84155
 933,67; 8576,592;  211,427;21081,421;40,08226
 934,22; 8563,362;  216,504;21017,267;40,12765
 934,77; 8631,054;  234,888;20884,960;40,65926
 935,33; 8525,285;  223,965;20760,652;40,42190
 935,88; 8573,977;  219,273;20625,113;40,94271
 936,43; 8497,208;  213,504;20572,190;40,68879
 936,99; 8477,131;  212,735;20439,729;40,85825
 937,54; 8415,285;  204,273;20285,652;40,88868
 938,09; 8398,669;  219,812;20243,806;40,84529
 938,65; 8387,054;  215,273;20138,498;41,01636
 939,20; 8357,823;  190,196;20034,344;41,15887
 939,75; 8314,977;  210,196;19952,883;41,05207
 940,31; 8295,592;  188,888;19821,575;41,29187
 940,86; 8343,285;  220,042;19795,960;41,49610
 941,41; 8279,285;  293,273;19672,652;41,20881
 941,96; 8200,823;  196,888;19552,652;41,35169
 942,52; 8213,054;  208,042;19358,498;41,80063
 943,07; 8177,977;  190,273;19329,883;41,73389
 943,62; 8136,900;  194,735;19270,806;41,63418
 944,18; 8122,054;  196,658;19146,806;41,82234
 944,73; 8136,977;  217,965;19028,960;42,09778
 945,28; 7996,362;  182,581;18910,113;41,72349
 945,83; 8037,592;  200,350;18902,267;41,90609
 946,39; 8046,977;  205,965;18762,037;42,25577
 946,94; 8050,515;  240,581;18793,113;42,09633
 947,49; 8013,131;  207,504;18619,652;42,39390
 948,04; 8025,977;  240,965;18558,113;42,50122
 948,59; 7964,438;  237,427;18520,421;42,26338
 949,15; 7909,977;  189,273;18325,652;42,57026
 949,70; 7885,131;  208,273;18289,575;42,45744
 950,25; 7869,592;  216,196;18151,729;42,67170
 950,80; 7805,900;  177,196;18029,498;42,73233
 951,36; 7788,362;  172,119;17948,037;42,84585
 951,91; 7849,208;  217,658;17940,113;43,06147
 952,46; 7731,746;  195,350;17714,267;43,01862
 953,01; 7746,823;  214,196;17756,190;42,94054
 953,56; 7686,285;  190,350;17610,652;43,02988
 954,11; 7659,669;  217,888;17566,421;42,89574
 954,67; 7680,362;  201,427;17494,652;43,24777
 955,22; 7558,977;  181,658;17318,421;43,04966
 955,77; 7601,900;  217,888;17317,037;43,18351
 956,32; 7599,285;  253,888;17234,267;43,25814
 956,87; 7523,900;  200,658;17057,806;43,44295
 957,42; 7568,054;  211,273;17000,344;43,81887
 957,98; 7521,977;  194,042;16885,729;43,90170
 958,53; 7512,131;  233,735;16905,344;43,65743
 959,08; 7446,592;  192,504;16733,421;43,85542
 959,63; 7426,131;  205,504;16589,498;44,07122
 960,18; 7429,438;  216,888;16566,960;44,11326
 960,73; 7417,285;  207,658;16534,960;44,15688
 961,28; 7358,208;  179,965;16409,806;44,22867
 961,83; 7380,054;  228,119;16367,575;44,31336
 962,39; 7310,823;  187,273;16232,190;44,39755
 962,94; 7296,515;  207,042;16179,344;44,38604
 963,49; 7268,592;  208,658;16006,729;44,68859
 964,04; 7315,438;  218,119;15901,267;45,25443
 964,59; 7182,438;  189,427;15873,652;44,58627
 965,14; 7229,515;  222,427;15785,190;45,02471
 965,69; 7228,131;  208,581;15683,421;45,36105
 966,24; 7122,823;  202,119;15562,267;45,05623
 966,79; 7148,746;  217,735;15553,652;45,19463
 967,34; 7036,362;  186,427;15374,960;45,09938
 967,89; 7039,131;  196,196;15330,575;45,21451
 968,44; 7038,438;  205,581;15273,421;45,34729
 968,99; 6985,823;  221,196;15182,729;45,21346
 969,55; 6957,669;  218,658;15098,344;45,29001
 970,10; 6889,592;  219,888;14978,037;45,19337
 970,65; 6909,900;  218,812;14927,960;45,48930
 971,20; 6891,438;  194,350;14764,267;45,96518
 971,75; 6808,900;  181,812;14686,652;45,68881
 972,30; 6796,823;  210,427;14581,267;45,83167
 972,85; 6733,746;  204,119;14492,267;45,69960
 973,40; 6669,900;  195,119;14341,190;45,77088
 973,95; 6679,054;  221,119;14313,344;45,82622
 974,50; 6684,285;  236,581;14226,729;46,08746
 975,05; 6639,208;  214,658;14143,037;46,12561
 975,60; 6619,131;  223,350;14038,344;46,29594
 976,15; 6531,362;  208,581;13907,960;46,15378
 976,70; 6496,362;  221,965;13842,113;46,06702
 977,25; 6452,746;  223,042;13793,652;45,90585
 977,80; 6399,592;  199,427;13662,421;46,05339
 978,35; 6367,900;  219,658;13468,267;46,40670
 978,89; 6348,438;  188,888;13409,806;46,58943
 979,44; 6314,977;  214,350;13393,960;46,28837
 979,99; 6248,900;  193,965;13277,498;46,27905
 980,54; 6261,362;  228,658;13134,344;46,74454
 981,09; 6210,977;  229,888;13020,960;46,75987
 981,64; 6136,515;  223,581;12872,960;46,74486
 982,19; 6168,208;  254,350;12828,113;47,03331
 982,74; 6124,515;  222,273;12694,883;47,32163
 983,29; 6033,900;  200,658;12585,729;47,09898
 983,84; 5989,438;  221,658;12477,806;47,06031
 984,39; 6049,515;  285,504;12405,113;47,55938
 984,94; 5934,592;  183,965;12212,421;47,80852
 985,49; 5931,746;  233,042;12224,037;47,52487
 986,03; 5881,900;  231,504;12074,037;47,71273
 986,58; 5878,208;  261,581;11949,037;48,05688
 987,13; 5780,823;  211,119;11819,037;47,98194
 987,68; 5742,362;  224,581;11701,575;48,07688
 988,23; 5719,054;  221,581;11654,575;48,08428
 988,78; 5641,438;  198,735;11528,421;48,03932
 989,33; 5603,285;  240,504;11380,652;48,13922
 989,88; 5600,515;  255,350;11359,806;48,13532
 990,42; 5492,285;  213,273;11216,883;47,97527
 990,97; 5425,515;  210,196;11052,883;48,09988
 991,52; 5392,131;  231,735;10994,421;47,94710
 992,07; 5411,131;  252,504;10966,113;48,15022
 992,62; 5350,438;  229,042;10832,960;48,29721
 993,17; 5269,208;  230,196;10679,113;48,22520
 993,71; 5259,900;  234,119;10622,037;48,38102
 994,26; 5206,054;  198,965;10405,267;49,05879
 994,81; 5201,054;  239,658;10404,344;48,81012
 995,36; 5131,669;  218,812;10233,190;49,05804
 995,91; 5095,515;  226,119;10173,652;48,95079
 996,45; 5034,208;  225,119;10071,421;48,84157
 997,00; 4980,977;  206,427; 9907,883;49,21478
 997,55; 4932,285;  238,658; 9872,190;48,72176
 998,10; 4939,592;  246,504; 9737,037;49,45021
 998,65; 4878,515;  216,273; 9673,960;49,29580
 999,19; 4826,131;  247,965; 9548,498;49,22477
 999,74; 4789,054;  241,581; 9464,113;49,30829
1000,29; 4759,746;  237,273; 9353,498;49,60906
1000,84; 4721,054;  212,888; 9203,190;50,14476
1001,38; 4670,131;  227,042; 9137,652;49,86290
1001,93; 4643,131;  246,888; 9059,806;49,88408
1002,48; 4579,438;  211,812; 8881,037;50,38082
1003,03; 4567,438;  232,196; 8874,498;50,16305
1003,57; 4490,977;  233,042; 8753,344;49,97399
1004,12; 4484,515;  262,504; 8678,729;50,16515
1004,67; 4426,746;  222,119; 8592,960;50,22945
1005,22; 4344,746;  216,658; 8405,729;50,40973
1005,76; 4295,669;  201,196; 8318,652;50,44035
1006,31; 4324,515;  230,581; 8234,575;51,14865
1006,86; 4219,823;  218,273; 8113,498;50,68317
1007,40; 4189,592;  195,196; 8020,806;51,04262
1007,95; 4173,438;  220,119; 7905,421;51,44000
1008,50; 4115,131;  231,196; 7753,960;51,62909
1009,04; 4070,362;  209,812; 7686,652;51,63344
1009,59; 3993,977;  229,042; 7556,190;51,38336
1010,14; 3921,208;  206,658; 7438,037;51,36711
1010,68; 3890,746;  220,504; 7320,806;51,69136
1011,23; 3832,746;  212,888; 7211,652;51,72139
1011,78; 3782,054;  229,888; 7119,344;51,55945
1012,32; 3745,669;  241,965; 7036,113;51,56944
1012,87; 3751,362;  257,581; 6974,806;52,01226
1013,42; 3672,592;  203,196; 6845,344;52,23304
1013,96; 3696,131;  257,350; 6877,806;51,94175
1014,51; 3606,977;  192,965; 6726,883;52,25061
1015,06; 3598,054;  187,812; 6776,190;51,76148
1015,60; 3701,823;  264,042; 6805,037;52,55747
1016,15; 3639,362;  209,965; 6771,037;52,26885
1016,69; 3643,285;  217,658; 6788,421;52,13438
1017,24; 3667,746;  199,196; 6784,960;52,66739
1017,79; 3745,438;  241,350; 6898,190;52,63891
1018,33; 3712,362;  207,888; 6841,113;52,83212
1018,88; 3786,131;  224,273; 6898,190;53,36982
1019,42; 3737,131;  217,427; 6885,652;52,78322
1019,97; 3734,592;  207,427; 6909,575;52,62739
1020,51; 3768,515;  242,196; 6946,421;52,59846
1021,06; 3739,515;  188,965; 6917,344;52,76977
1021,61; 3707,900;  190,042; 6892,883;52,48309
1022,15; 3686,977;  170,735; 6874,960;52,44815
1022,70; 3698,669;  209,965; 6875,960;52,33584
1023,24; 3714,746;  202,042; 6803,729;53,20919
1023,79; 3668,054;  213,427; 6726,960;53,03768
1024,33; 3663,515;  204,427; 6673,883;53,46800
1024,88; 3616,592;  225,812; 6619,883;53,03008
1025,42; 3532,208;  219,965; 6470,729;52,98940
1025,97; 3505,823;  206,504; 6409,498;53,18914
1026,51; 3449,131;  174,504; 6244,344;53,94914
1027,06; 3458,515;  202,658; 6224,960;54,06334
1027,60; 3387,054;  229,658; 6108,421;53,70851
1028,15; 3373,438;  224,427; 6049,652;54,05820
1028,69; 3268,746;  178,658; 5900,498;54,00515
1029,24; 3250,515;  190,888; 5858,652;53,98297
1029,78; 3148,977;  191,581; 5760,806;53,10247
1030,33; 3120,900;  183,812; 5600,190;54,22605
1030,87; 3084,823;  203,119; 5562,421;53,77013
1031,42; 3027,208;  186,888; 5474,960;53,71182
1031,96; 3017,592;  216,504; 5405,344;53,98294
1032,51; 2973,592;  193,350; 5354,652;53,86707
1033,05; 2926,823;  218,504; 5267,806;53,63750
1033,60; 2859,285;  181,581; 5145,267;53,94587
1034,14; 2861,669;  199,658; 5080,652;54,53831
1034,69; 2827,438;  204,735; 5045,652;54,17783
1035,23; 2793,438;  211,119; 4934,652;54,66924
1035,77; 2766,900;  199,042; 4887,037;54,77519
1036,32; 2684,362;  174,350; 4782,344;54,47080
1036,86; 2690,592;  210,427; 4749,344;54,64222
1037,41; 2650,131;  220,273; 4667,267;54,64045
1037,95; 2579,208;  179,196; 4579,729;54,53911
1038,50; 2572,054;  185,504; 4553,190;54,64105
1039,04; 2550,438;  220,427; 4509,575;54,32341
1039,58; 2488,746;  185,812; 4421,498;54,36981
1040,13; 2472,131;  202,581; 4362,806;54,55354
1040,67; 2463,285;  235,119; 4322,883;54,50818
1041,21; 2433,746;  231,273; 4245,883;54,86145
1041,76; 2357,823;  188,735; 4150,037;54,75696
1042,30; 2323,362;  200,581; 4087,960;54,60699
1042,85; 2294,131;  203,042; 4051,267;54,33904
1043,39; 2255,592;  185,812; 3954,113;54,92609
1043,93; 2249,746;  215,042; 3934,037;54,71113
1044,48; 2218,900;  210,273; 3906,806;54,33813
1045,02; 2194,054;  199,042; 3826,498;54,99754
1045,56; 2184,592;  226,042; 3777,113;55,15378
1046,11; 2148,362;  220,812; 3749,652;54,62276
1046,65; 2095,669;  204,273; 3688,883;54,27857
1047,19; 2067,977;  196,350; 3599,806;54,99196
1047,74; 2010,438;  186,042; 3537,113;54,44218
1048,28; 2025,669;  212,427; 3515,575;54,89437
1048,82; 2016,669;  226,735; 3507,883;54,55208
1049,37; 1961,669;  218,504; 3423,883;54,38251
1049,91; 1948,669;  211,042; 3355,652;55,25732
1050,45; 1942,362;  222,504; 3341,190;55,14686
1050,99; 1897,977;  212,042; 3292,267;54,73414
1051,54; 1861,669;  190,504; 3225,575;55,06182
1052,08; 1879,285;  237,119; 3201,421;55,39805
1052,62; 1849,746;  230,119; 3156,960;55,33704
1053,16; 1801,285;  211,812; 3111,883;54,80807
1053,71; 1808,285;  208,504; 3087,806;55,56141
1054,25; 1755,592;  216,581; 3010,421;55,08588
1054,79; 1742,515;  223,965; 2979,652;55,10605
1055,33; 1689,438;  188,196; 2892,344;55,51628
1055,88; 1699,592;  220,812; 2885,113;55,50350
1056,42; 1695,977;  230,965; 2875,190;55,40419
1056,96; 1671,208;  227,119; 2836,806;55,33571
1057,50; 1630,823;  220,427; 2793,344;54,81700
1058,05; 1584,977;  214,119; 2740,344;54,26507
1058,59; 1608,054;  243,888; 2702,960;55,47482
1059,13; 1562,438;  199,119; 2619,113;56,33564
1059,67; 1565,285;  222,658; 2601,113;56,44952
1060,21; 1523,208;  217,581; 2572,344;55,44620
1060,76; 1514,669;  228,119; 2535,729;55,75250
1061,30; 1503,977;  230,350; 2515,652;55,73123
1061,84; 1485,131;  208,196; 2445,883;57,06495
1062,38; 1433,362;  208,581; 2374,344;56,55192
1062,92; 1487,515;  255,427; 2419,729;56,92775
1063,46; 1422,208;  224,119; 2353,421;56,26673
1064,01; 1387,823;  216,504; 2333,113;55,33941
1064,55; 1394,362;  223,965; 2281,883;56,87285
1065,09; 1352,362;  194,735; 2227,806;56,93981
1065,63; 1380,362;  250,658; 2235,421;56,91882
1066,17; 1377,669;  250,812; 2233,267;56,84150
1066,71; 1349,054;  239,735; 2178,806;57,20879
1067,25; 1314,977;  214,042; 2134,652;57,32214
1067,80; 1308,746;  240,735; 2131,421;56,48803
1068,34; 1313,438;  241,350; 2115,190;57,21344
1068,88; 1271,285;  218,965; 2031,344;58,06287
1069,42; 1293,823;  250,273; 2060,960;57,63284
1069,96; 1242,823;  218,581; 2041,421;56,18936
1070,50; 1266,977;  251,735; 2038,267;56,82752
1071,04; 1205,285;  206,273; 1965,421;56,78951
1071,58; 1177,669;  217,042; 1958,267;55,16960
1072,12; 1211,900;  219,581; 1920,729;58,33233
1072,66; 1191,438;  220,119; 1898,883;57,85921
1073,21; 1207,592;  233,427; 1906,806;58,21547
1073,75; 1170,515;  238,196; 1855,190;57,65755
1074,29; 1147,438;  231,581; 1827,190;57,39861
1074,83; 1149,362;  239,581; 1820,190;57,55885
1075,37; 1148,592;  239,042; 1805,498;58,06420
1075,91; 1121,823;  234,888; 1783,344;57,27865
1076,45; 1103,592;  231,504; 1762,421;56,96509
1076,99; 1097,054;  240,350; 1738,344;57,19006
1077,53; 1074,823;  224,042; 1674,575;58,65299
1078,07; 1082,054;  239,812; 1680,575;58,45806
1078,61; 1052,823;  222,888; 1656,037;57,90990
1079,15; 1047,515;  229,427; 1636,421;58,14441
1079,69; 1051,208;  226,735; 1619,344;59,20346
1080,23; 1043,131;  248,273; 1642,960;56,99185
1080,77; 1064,592;  278,196; 1640,037;57,74510
1081,31;  991,054;  215,888; 1551,498;58,03832
1081,85; 1009,823;  239,427; 1559,267;58,37040
1082,39;  990,592;  230,812; 1535,498;58,23474
1082,93; 1004,208;  237,427; 1526,421;59,48675
1083,47;  952,823;  208,504; 1501,883;57,54843
1084,01;  972,900;  238,350; 1494,113;58,49430
1084,55;  947,977;  225,119; 1450,652;58,98314
1085,09;  956,362;  247,658; 1436,344;59,62075
1085,63;  932,746;  223,427; 1433,652;58,61053
1086,17;  914,285;  214,273; 1409,037;58,58997
1086,71;  915,438;  226,042; 1363,960;60,58403
1087,24;  924,362;  255,042; 1414,575;57,72319
1087,78;  908,515;  246,735; 1389,037;57,93396
1088,32;  866,515;  202,273; 1326,652;59,07638
1088,86;  888,900;  243,504; 1357,421;57,93932
1089,40;  881,285;  233,812; 1338,267;58,62372
1089,94;  841,054;  203,888; 1270,421;59,74176
1090,48;  845,900;  235,196; 1269,498;59,04503
1091,02;  859,285;  243,735; 1276,113;59,62443
1091,56;  857,900;  228,504; 1258,267;61,12046
1092,10;  805,362;  214,965; 1212,421;59,19021
1092,63;  836,592;  248,658; 1234,190;59,65653
1093,17;  809,362;  239,812; 1216,113;58,33749
1093,71;  788,669;  217,965; 1210,729;57,48639
1094,25;  803,977;  261,888; 1200,190;57,77335
1094,79;  794,669;  224,812; 1174,575;59,99996
1095,33;  789,131;  227,735; 1160,267;60,20123
1095,87;  762,592;  226,965; 1149,960;58,03145
1096,40;  739,592;  210,350; 1115,575;58,46528
1096,94;  764,900;  228,119; 1111,652;60,75392
1097,48;  773,362;  244,196; 1122,267;60,26452
1098,02;  723,515;  223,196; 1093,421;57,49309
1098,56;  699,823;  196,427; 1057,421;58,46684
1099,10;  710,823;  205,196; 1047,806;60,00726
1099,63;  702,823;  206,196; 1042,113;59,41101
1100,17;  711,823;  234,581; 1050,344;58,50254
1100,71;  731,900;  254,042; 1052,190;59,87081

