
Integration time [ms]: 160,000
Averaging Nr. [scans]: 13
Smoothing Nr. [pixels]: 0
Data measured with spectrometer [name]: 2009305U1
Wave   ;Sample   ;Dark     ;Reference;Reflectance
[nm]   ;[counts] ;[counts] ;[counts] ;[%]

 175,72;  229,365;  211,481;  218,198;266,23964
 176,32;  234,067;  242,342;  237,064; 0,00000
 176,92;  288,804;  274,024;  286,893;114,85482
 177,52;  284,956;  269,099;  274,399;299,19648
 178,12;  253,875;  242,726;  241,865; 0,00000
 178,72;  271,028;  285,192;  276,001; 0,00000
 179,32;  258,203;  271,804;  258,781; 0,00000
 179,92;  275,534;  271,952;  251,920; 0,00000
 180,52;  263,551;  247,166;  277,718;53,63016
 181,12;  279,500;  273,258;  268,649; 0,00000
 181,73;  290,323;  303,642;  290,175; 0,00000
 182,33;  403,412;  400,787;  408,394;34,50131
 182,93;  287,732;  285,176;  293,730;29,88113
 183,53;  254,197;  256,655;  235,234; 0,00000
 184,13;  240,283;  258,269;  234,768; 0,00000
 184,73;  290,797;  310,349;  296,521; 0,00000
 185,33;  300,844;  248,820;  394,412;35,73281
 185,93;  309,847;  245,368;  398,196;42,19068
 186,53;  316,930;  265,978;  408,744;35,68904
 187,13;  349,592;  290,044;  447,866;37,73079
 187,73;  317,587;  264,675;  415,930;34,98191
 188,33;  305,742;  245,219;  387,713;42,47385
 188,93;  322,520;  270,930;  405,484;38,34155
 189,53;  315,901;  269,175;  424,072;30,16567
 190,13;  354,657;  303,044;  440,384;37,58046
 190,73;  306,110;  239,106;  383,350;46,45194
 191,34;  332,200;  276,781;  434,912;35,04590
 191,94;  312,893;  252,456;  418,799;36,33263
 192,54;  325,390;  270,574;  439,983;32,35734
 193,14;  337,146;  271,430;  434,086;40,40236
 193,74;  338,463;  277,278;  439,295;37,76449
 194,34;  337,254;  276,273;  426,370;40,62768
 194,94;  288,692;  229,891;  407,340;33,13659
 195,54;  268,019;  215,357;  369,546;34,15414
 196,14;  294,019;  234,578;  405,012;34,87594
 196,74;  291,835;  242,129;  389,416;33,74756
 197,34;  272,711;  211,648;  390,907;34,06383
 197,94;  297,235;  241,044;  415,716;32,16975
 198,54;  305,693;  255,194;  430,267;28,84473
 199,14;  290,180;  222,722;  427,949;32,87000
 199,74;  279,250;  211,106;  431,925;30,85957
 200,34;  269,279;  201,105;  426,377;30,26327
 200,94;  309,653;  249,189;  481,453;26,03269
 201,54;  294,839;  222,339;  476,646;28,50875
 202,14;  342,468;  267,948;  536,358;27,76343
 202,74;  311,134;  230,799;  536,970;26,23858
 203,34;  281,098;  198,866;  546,256;23,67146
 203,94;  280,434;  181,101;  534,318;28,12239
 204,54;  348,303;  260,735;  653,213;22,31148
 205,14;  318,547;  215,491;  657,051;23,33907
 205,74;  369,804;  257,251;  756,379;22,54992
 206,34;  338,918;  225,486;  763,868;21,06906
 206,94;  367,511;  234,411;  851,748;21,56036
 207,54;  347,264;  197,564;  867,836;22,33421
 208,14;  365,891;  203,255;  963,005;21,40656
 208,74;  373,277;  220,107; 1048,173;18,49734
 209,34;  386,194;  220,336; 1146,059;17,91662
 209,94;  418,190;  228,106; 1279,593;18,07770
 210,54;  426,547;  212,945; 1358,793;18,64134
 211,14;  457,358;  222,029; 1514,178;18,21219
 211,73;  473,771;  224,494; 1640,996;17,59813
 212,33;  503,275;  246,343; 1758,938;16,98622
 212,93;  505,598;  221,030; 1894,450;17,00517
 213,53;  489,193;  196,107; 1929,919;16,90418
 214,13;  530,840;  220,170; 2031,963;17,14709
 214,73;  501,621;  189,409; 2041,666;16,85578
 215,33;  502,883;  185,183; 2081,131;16,75678
 215,93;  552,013;  212,405; 2230,476;16,82835
 216,53;  527,594;  181,492; 2297,215;16,35858
 217,13;  598,215;  224,715; 2533,410;16,17798
 217,73;  636,769;  212,713; 2767,506;16,59846
 218,33;  641,373;  155,092; 2966,387;17,29739
 218,93;  734,544;  208,312; 3334,968;16,83053
 219,53;  810,904;  213,092; 3666,979;17,30840
 220,13;  841,095;  173,551; 4026,440;17,32582
 220,73;  936,254;  189,106; 4398,392;17,75000
 221,32; 1043,123;  187,184; 4901,481;18,15625
 221,92; 1156,867;  213,705; 5372,536;18,28248
 222,52; 1223,731;  184,943; 5861,538;18,29949
 223,12; 1358,249;  189,173; 6366,852;18,92420
 223,72; 1471,166;  196,865; 6820,752;19,23795
 224,32; 1591,411;  206,941; 7315,632;19,47573
 224,92; 1684,068;  189,634; 7653,451;20,02239
 225,52; 1791,351;  211,103; 8058,109;20,13822
 226,12; 1899,819;  198,099; 8394,150;20,76268
 226,72; 2010,710;  172,716; 8818,142;21,25973
 227,31; 2125,752;  167,716; 9288,269;21,46839
 227,91; 2285,213;  207,181; 9795,790;21,67188
 228,51; 2395,158;  186,034;10198,182;22,06444
 229,11; 2555,902;  194,408;10644,726;22,59734
 229,71; 2697,185;  187,031;11067,447;23,07039
 230,31; 2828,798;  182,016;11517,374;23,34979
 230,91; 2959,018;  165,576;11911,197;23,78284
 231,51; 3107,196;  185,174;12242,326;24,23476
 232,10; 3294,561;  184,861;12643,414;24,96037
 232,70; 3399,023;  189,504;12859,370;25,33191
 233,30; 3572,957;  218,944;13193,393;25,85091
 233,90; 3668,922;  183,560;13313,674;26,54479
 234,50; 3758,024;  189,174;13436,659;26,93983
 235,10; 3844,376;  185,403;13455,913;27,57221
 235,70; 3959,972;  211,720;13468,454;28,27432
 236,29; 3983,581;  197,415;13436,168;28,59911
 236,89; 4017,512;  171,190;13193,436;29,53655
 237,49; 4058,110;  197,869;13088,252;29,94667
 238,09; 4004,149;  193,871;12729,099;30,39656
 238,69; 4013,704;  243,194;12505,680;30,74833
 239,29; 3894,260;  186,564;12046,908;31,26128
 239,89; 3816,085;  197,421;11575,386;31,80415
 240,48; 3681,037;  184,948;11134,687;31,92851
 241,08; 3583,553;  188,180;10682,952;32,35299
 241,68; 3490,692;  205,640;10272,873;32,63113
 242,28; 3359,764;  171,791; 9848,284;32,94554
 242,88; 3308,756;  233,708; 9478,401;33,26285
 243,48; 3132,116;  238,638; 9155,891;32,44809
 244,07; 3018,640;  198,566; 8855,609;32,57548
 244,67; 2948,647;  214,793; 8693,035;32,24553
 245,27; 2833,925;  209,494; 8466,303;31,78506
 245,87; 2817,021;  211,325; 8363,749;31,96222
 246,47; 2747,345;  203,032; 8352,176;31,22184
 247,06; 2678,473;  188,257; 8320,626;30,62105
 247,66; 2692,779;  188,793; 8410,748;30,45487
 248,26; 2707,986;  208,492; 8598,777;29,79033
 248,86; 2734,562;  217,262; 8812,360;29,28762
 249,46; 2678,818;  154,559; 9031,811;28,43514
 250,05; 2792,820;  213,487; 9546,119;27,63779
 250,65; 2786,498;  176,187; 9989,959;26,59844
 251,25; 2893,661;  188,796;10490,127;26,25743
 251,85; 2945,725;  188,190;11125,846;25,21139
 252,44; 3006,011;  155,645;11908,685;24,25216
 253,04; 3182,562;  203,875;12810,007;23,62887
 253,64; 3265,206;  153,034;13680,640;23,00608
 254,24; 3472,058;  220,718;14831,835;22,25251
 254,84; 3593,048;  188,867;15996,734;21,53473
 255,43; 3793,169;  185,953;17244,536;21,14605
 256,03; 3959,494;  203,726;18451,646;20,58190
 256,63; 4122,554;  201,036;19808,871;19,99975
 257,23; 4237,404;  181,113;20871,414;19,60479
 257,82; 4424,395;  205,733;22198,232;19,18228
 258,42; 4507,040;  151,813;23334,204;18,78679
 259,02; 4705,397;  220,798;24592,594;18,40077
 259,62; 4783,975;  179,814;25547,111;18,14999
 260,21; 4901,183;  196,953;26211,736;18,08291
 260,81; 4933,525;  186,715;26980,120;17,71634
 261,41; 4953,695;  176,580;27633,684;17,39847
 262,01; 5107,872;  227,047;28229,601;17,42993
 262,60; 5094,250;  177,805;28838,491;17,15397
 263,20; 5181,453;  187,494;29286,737;17,16182
 263,80; 5221,476;  201,432;29662,957;17,03932
 264,40; 5246,453;  170,123;29839,945;17,10940
 264,99; 5318,266;  199,048;30127,181;17,10504
 265,59; 5338,846;  189,670;30316,259;17,09180
 266,19; 5410,085;  176,970;30574,780;17,21543
 266,78; 5526,581;  233,205;30823,865;17,30390
 267,38; 5564,680;  208,823;30828,429;17,49159
 267,98; 5615,952;  196,743;30871,434;17,66671
 268,58; 5670,337;  195,438;30913,172;17,82325
 269,17; 5748,999;  177,367;31023,779;18,06250
 269,77; 5774,957;  199,577;30754,570;18,24704
 270,37; 5780,255;  175,971;30671,922;18,37714
 270,96; 5854,685;  228,656;30454,950;18,61303
 271,56; 5887,826;  194,806;30122,767;19,02241
 272,16; 5922,579;  187,735;29971,268;19,25508
 272,75; 5965,891;  186,427;29859,965;19,47683
 273,35; 6026,144;  192,425;29843,931;19,67428
 273,95; 6127,192;  187,196;29778,711;20,07331
 274,54; 6190,809;  167,718;29810,629;20,31883
 275,14; 6424,805;  216,886;30186,602;20,71397
 275,74; 6465,093;  167,427;30271,039;20,91997
 276,33; 6772,597;  224,654;30851,261;21,37992
 276,93; 6923,797;  201,793;31279,415;21,62972
 277,53; 7157,728;  199,569;31882,683;21,96173
 278,12; 7435,163;  183,727;32492,142;22,44442
 278,72; 7775,808;  251,954;33285,317;22,77653
 279,32; 8009,272;  181,955;33862,874;23,23962
 279,91; 8319,669;  168,956;34771,549;23,55521
 280,51; 8664,389;  184,107;35427,430;24,06210
 281,11; 9060,095;  189,033;36405,369;24,49464
 281,70; 9322,276;  173,342;36799,693;24,97911
 282,30; 9708,980;  178,575;37647,075;25,43578
 282,90;10025,389;  188,114;38160,150;25,90663
 283,49;10406,676;  202,271;38818,062;26,42547
 284,09;10738,793;  225,496;39352,713;26,86953
 284,69;11128,380;  222,493;39716,819;27,61381
 285,28;11465,723;  212,727;40272,352;28,09062
 285,88;11885,603;  271,043;40575,343;28,81718
 286,47;12098,857;  191,806;40555,943;29,49909
 287,07;12444,971;  223,647;40682,282;30,20696
 287,67;12820,193;  218,254;40858,814;31,00828
 288,26;13100,558;  186,493;40795,817;31,80074
 288,86;13600,231;  184,727;40802,177;33,02892
 289,46;14039,194;  202,494;40964,118;33,94541
 290,05;14409,514;  189,873;40945,997;34,88958
 290,65;14994,192;  188,038;41352,190;35,96856
 291,24;15510,601;  196,646;41512,007;37,06601
 291,84;16018,477;  209,575;41660,409;38,13892
 292,44;16485,320;  200,560;41800,490;39,14612
 293,03;17067,507;  285,723;41934,340;40,29374
 293,63;17530,123;  190,960;42113,662;41,35984
 294,22;18040,882;  227,110;42371,190;42,26874
 294,82;18294,191;  185,815;42256,231;43,04302
 295,41;18469,969;  169,726;41928,693;43,82350
 296,01;18824,631;  224,197;41937,898;44,59071
 296,61;18965,590;  227,570;41649,594;45,23685
 297,20;18948,474;  196,197;41109,418;45,83427
 297,80;19171,022;  214,718;40879,116;46,61646
 298,39;19110,417;  172,344;40404,615;47,07185
 298,99;19192,567;  222,349;40273,823;47,36459
 299,58;19197,038;  207,947;39970,212;47,75656
 300,18;19196,056;  223,719;39835,925;47,89518
 300,78;19126,050;  184,183;39324,178;48,39517
 301,37;19200,555;  202,741;39327,758;48,55669
 301,97;19329,313;  204,802;39294,553;48,92462
 302,56;19340,511;  195,345;39240,911;49,03288
 303,16;19285,813;  176,193;39095,766;49,10028
 303,75;19339,803;  188,105;39022,882;49,31584
 304,35;19577,777;  185,712;39371,209;49,48786
 304,94;19576,051;  184,802;39363,454;49,49443
 305,54;19648,585;  225,799;39364,788;49,62516
 306,13;19552,166;  165,865;39235,829;49,61945
 306,73;19463,960;  175,714;38959,642;49,73257
 307,33;19453,326;  203,792;38958,373;49,67034
 307,92;19498,772;  206,415;38898,444;49,86132
 308,52;19663,963;  177,116;39535,145;49,51174
 309,11;19939,001;  188,506;40084,403;49,50508
 309,71;20145,505;  183,047;40497,883;49,51640
 310,30;20290,384;  171,416;40684,285;49,66068
 310,90;20565,922;  237,031;41231,208;49,58970
 311,49;20561,114;  205,417;41350,330;49,47318
 312,09;20629,630;  162,180;41476,721;49,54055
 312,68;20879,270;  261,414;41986,611;49,41344
 313,28;20900,849;  173,108;42091,290;49,44809
 313,87;20830,398;  158,339;42363,178;48,98030
 314,47;20934,261;  185,889;42609,624;48,90746
 315,06;21008,552;  168,492;42638,934;49,06956
 315,66;20972,015;  179,950;42994,336;48,56327
 316,25;20911,698;  152,577;42865,028;48,60204
 316,85;20847,410;  155,334;42884,519;48,42610
 317,44;20761,868;  176,890;43146,152;47,90629
 318,04;20687,424;  170,806;43057,638;47,83897
 318,63;20602,131;  157,253;43115,078;47,59291
 319,22;20626,643;  187,730;43434,931;47,26066
 319,82;20498,310;  191,112;43397,964;46,99995
 320,41;20212,262;  204,345;43284,244;46,44374
 321,01;20217,828;  200,104;43511,944;46,21767
 321,60;20082,818;  193,881;43642,096;45,77619
 322,20;19933,664;  165,031;43518,037;45,59922
 322,79;19825,570;  206,800;43654,986;45,15441
 323,39;19756,419;  180,790;43572,225;45,11404
 323,98;19529,739;  175,338;43633,481;44,53573
 324,58;19419,058;  167,655;43447,351;44,48137
 325,17;19164,762;  185,269;43201,366;44,12184
 325,76;19044,908;  201,186;43122,636;43,90281
 326,36;18658,160;  169,874;42593,788;43,57987
 326,95;18415,360;  218,649;42178,563;43,36689
 327,55;18067,128;  176,497;41915,346;42,86326
 328,14;17731,097;  172,794;41348,251;42,64264
 328,74;17386,056;  209,038;40829,011;42,28712
 329,33;17045,594;  190,105;40315,939;42,00658
 329,92;16709,969;  166,890;39660,305;41,88820
 330,52;16196,272;  192,178;38900,769;41,34507
 331,11;15862,374;  178,881;38444,687;40,98566
 331,71;15444,746;  186,110;37666,472;40,71102
 332,30;15158,589;  198,878;37106,531;40,53282
 332,89;14786,170;  266,490;36426,984;40,15343
 333,49;14319,993;  198,649;35823,230;39,63933
 334,08;13972,880;  181,497;35198,217;39,38514
 334,68;13613,933;  188,497;34737,295;38,85934
 335,27;13385,539;  194,100;34311,321;38,66504
 335,86;13120,912;  250,573;33898,764;38,24972
 336,46;12823,969;  202,792;33572,761;37,82196
 337,05;12684,339;  181,419;33453,737;37,57754
 337,65;12449,335;  169,650;33172,347;37,20812
 338,24;12384,686;  230,645;33140,248;36,93159
 338,83;12221,637;  221,260;33125,328;36,47080
 339,43;12087,513;  174,269;32976,622;36,31826
 340,02;11948,848;  181,270;32831,100;36,04178
 340,61;11870,996;  191,954;32885,805;35,72244
 341,21;11720,287;  210,653;32927,934;35,17906
 341,80;11611,383;  189,497;32862,882;34,95777
 342,40;11572,762;  195,332;33024,003;34,65699
 342,99;11524,709;  179,490;33101,753;34,46063
 343,58;11456,517;  178,105;33248,554;34,10420
 344,18;11391,668;  214,950;33488,535;33,59036
 344,77;11435,873;  179,885;33746,098;33,53368
 345,36;11365,976;  175,803;34210,255;32,87896
 345,96;11446,552;  212,105;34584,196;32,68479
 346,55;11432,235;  169,789;34774,204;32,54627
 347,14;11402,660;  173,101;35169,313;32,08793
 347,74;11470,650;  156,013;35698,813;31,83384
 348,33;11651,282;  186,707;36480,186;31,58853
 348,92;11753,587;  191,394;37188,955;31,25123
 349,52;11835,236;  153,550;37759,932;31,06304
 350,11;11813,875;  169,963;38005,963;30,77469
 350,70;11760,098;  176,954;38194,188;30,46814
 351,29;11593,777;  171,897;37901,223;30,27321
 351,89;11531,598;  200,659;37840,505;30,10357
 352,48;11379,276;  150,339;37923,879;29,72699
 353,07;11303,259;  197,408;37836,555;29,50612
 353,67;11198,525;  202,394;37818,604;29,23243
 354,26;11081,063;  190,255;37412,595;29,25879
 354,85;10887,001;  189,026;37287,366;28,83680
 355,45;10781,659;  162,959;36975,643;28,84522
 356,04;10641,026;  183,638;36930,767;28,45770
 356,63;10568,868;  217,111;36670,003;28,39763
 357,22;10398,741;  183,048;36525,690;28,10938
 357,82;10249,855;  180,892;36305,305;27,87302
 358,41;10221,460;  217,263;36129,991;27,85697
 359,00;10014,069;  167,500;35840,289;27,60247
 359,60;10023,361;  185,799;35775,735;27,64141
 360,19; 9919,324;  208,098;35547,956;27,47953
 360,78; 9844,223;  189,189;35462,705;27,37191
 361,37; 9709,370;  180,958;35141,143;27,25504
 361,97; 9667,172;  185,572;35077,292;27,17436
 362,56; 9536,865;  190,040;34711,396;27,07549
 363,15; 9461,603;  253,882;34372,239;26,98759
 363,74; 9323,425;  191,735;33926,345;27,06920
 364,34; 9185,443;  203,115;33405,107;27,05358
 364,93; 8990,525;  183,348;32948,157;26,87999
 365,52; 8823,605;  156,650;32451,071;26,83731
 366,11; 8755,549;  182,961;32152,418;26,81493
 366,71; 8655,874;  178,730;31649,470;26,93659
 367,30; 8540,941;  191,650;31259,152;26,87468
 367,89; 8478,759;  220,873;30917,492;26,90162
 368,48; 8389,489;  204,427;30607,452;26,92187
 369,07; 8264,559;  191,415;30016,803;27,06803
 369,67; 8181,804;  220,118;29658,538;27,04522
 370,26; 8104,623;  172,569;29287,910;27,24355
 370,85; 8072,125;  192,188;29025,096;27,32966
 371,44; 8021,067;  197,110;28760,135;27,39191
 372,03; 7951,153;  166,654;28417,774;27,55466
 372,63; 7868,602;  162,188;28050,514;27,63312
 373,22; 7843,982;  174,724;27649,618;27,91369
 373,81; 7790,723;  178,188;27247,045;28,12285
 374,40; 7728,729;  186,102;26994,687;28,13512
 374,99; 7732,670;  189,651;26691,749;28,46197
 375,59; 7622,194;  158,256;26274,783;28,57937
 376,18; 7667,289;  198,343;26161,600;28,76737
 376,77; 7632,585;  208,187;25873,834;28,92738
 377,36; 7702,611;  212,958;25865,787;29,19621
 377,95; 7654,629;  209,499;25474,807;29,46780
 378,55; 7676,290;  176,643;25254,559;29,90538
 379,14; 7687,209;  206,958;25162,581;29,97421
 379,73; 7758,770;  187,729;25007,145;30,50451
 380,32; 7813,651;  193,495;25112,805;30,57932
 380,91; 7826,912;  168,272;24888,560;30,98119
 381,50; 7920,166;  195,732;24793,450;31,40305
 382,10; 7944,575;  184,725;24709,574;31,64076
 382,69; 7964,003;  160,343;24621,657;31,90205
 383,28; 8059,712;  208,654;24566,383;32,23231
 383,87; 8068,446;  175,424;24428,279;32,54471
 384,46; 8108,859;  173,661;24306,925;32,88075
 385,05; 8208,687;  212,886;24303,782;33,19013
 385,64; 8304,625;  189,576;24339,572;33,60269
 386,24; 8366,796;  167,661;24220,203;34,08843
 386,83; 8506,078;  207,432;24279,449;34,47425
 387,42; 8620,689;  206,730;24403,679;34,77281
 388,01; 8794,464;  193,284;24638,078;35,18614
 388,60; 8985,269;  192,737;24934,295;35,53750
 389,19; 9207,124;  178,599;25258,789;35,99863
 389,78; 9413,832;  182,443;25516,348;36,43887
 390,37; 9761,460;  255,049;26044,630;36,86144
 390,96; 9864,673;  187,662;26216,686;37,17777
 391,56;10038,999;  191,601;26377,838;37,60524
 392,15;10303,631;  174,826;26689,722;38,20043
 392,74;10465,611;  154,150;26904,368;38,54720
 393,33;10732,554;  193,679;27212,750;39,00532
 393,92;11044,728;  190,155;27681,721;39,48328
 394,51;11239,431;  164,218;27977,079;39,82047
 395,10;11486,136;  202,094;28227,249;40,26398
 395,69;11655,481;  206,168;28372,249;40,64929
 396,28;11835,865;  196,869;28554,213;41,04403
 396,87;12035,190;  205,421;28611,242;41,64558
 397,46;12164,513;  210,353;28729,041;41,91694
 398,06;12423,799;  225,287;29018,224;42,36633
 398,65;12557,338;  196,160;29080,013;42,79615
 399,24;12828,449;  217,088;29277,343;43,39728
 399,83;12921,136;  176,590;29253,316;43,83074
 400,42;13130,442;  224,626;29454,467;44,15288
 401,01;13306,761;  207,128;29571,044;44,61133
 401,60;13503,793;  217,799;29610,593;45,20153
 402,19;13610,444;  236,844;29605,829;45,53647
 402,78;13731,956;  226,835;29615,856;45,95295
 403,37;13731,985;  214,977;29390,074;46,33064
 403,96;13764,304;  227,976;29203,943;46,71571
 404,55;13956,939;  218,445;29138,663;47,50481
 405,14;13936,268;  211,599;28996,034;47,68087
 405,73;13988,097;  223,612;28785,954;48,19102
 406,32;14216,102;  237,134;28829,577;48,89043
 406,91;14108,189;  223,512;28451,200;49,18815
 407,50;14190,307;  238,163;28207,094;49,88444
 408,09;14115,789;  205,880;27879,689;50,26380
 408,68;14169,582;  230,129;27691,801;50,75966
 409,27;14159,672;  210,260;27477,721;51,15772
 409,86;14199,723;  208,898;27355,978;51,53713
 410,45;14343,479;  257,852;27271,554;52,14253
 411,04;14417,466;  244,189;27202,348;52,57509
 411,63;14336,902;  236,436;26878,885;52,92481
 412,22;14300,895;  252,227;26535,489;53,45101
 412,81;14247,960;  274,284;26290,545;53,71131
 413,40;14152,006;  262,336;25837,152;54,30995
 413,99;14081,649;  314,190;25452,504;54,76684
 414,58;13859,692;  235,339;25010,712;54,99152
 415,17;13868,030;  245,745;24729,214;55,63870
 415,76;13809,424;  231,536;24579,646;55,76568
 416,35;13765,519;  226,679;24283,150;56,27941
 416,94;13902,226;  260,762;24360,672;56,60380
 417,53;14205,993;  232,128;24573,694;57,40742
 418,12;14440,191;  243,123;24618,826;58,24270
 418,71;14702,175;  261,027;25197,185;57,91248
 419,30;14907,567;  230,429;25198,617;58,78335
 419,89;15132,323;  217,348;25463,049;59,07927
 420,48;15512,339;  256,643;25830,983;59,65236
 421,07;15654,658;  248,715;25884,029;60,09656
 421,66;15799,673;  215,550;25955,515;60,54446
 422,25;15829,083;  236,297;25951,341;60,63683
 422,84;15894,046;  261,754;25945,006;60,86570
 423,43;15800,690;  248,071;25663,928;61,19258
 424,02;15698,779;  265,221;25298,897;61,65118
 424,60;15455,476;  241,579;24734,056;62,11661
 425,19;15387,256;  256,131;24393,754;62,68689
 425,78;15422,517;  263,515;24327,975;62,99332
 426,37;15419,641;  258,967;24127,053;63,51860
 426,96;15371,019;  246,197;23974,029;63,74296
 427,55;15291,601;  250,336;23815,088;63,82951
 428,14;15259,555;  239,099;23559,774;64,40832
 428,73;15183,986;  238,727;23287,640;64,84149
 429,32;15247,210;  256,122;23272,549;65,13212
 429,91;15343,847;  277,187;23243,981;65,60193
 430,50;15272,572;  260,180;23069,501;65,81692
 431,08;15215,800;  264,480;22903,070;66,04351
 431,67;15278,408;  298,780;22792,481;66,59477
 432,26;15144,397;  316,158;22547,502;66,69970
 432,85;14989,353;  328,391;22187,710;67,06962
 433,44;14781,612;  329,612;21718,486;67,56784
 434,03;14517,328;  359,675;21306,430;67,58877
 434,62;14266,952;  302,227;20804,187;68,11410
 435,21;14154,390;  323,698;20490,492;68,58151
 435,79;14078,036;  317,373;20361,246;68,65272
 436,38;14056,938;  308,205;20228,135;69,01999
 436,97;14032,587;  310,434;20041,745;69,54506
 437,56;13883,418;  301,183;19805,014;69,63881
 438,15;13881,091;  279,881;19799,419;69,67998
 438,74;14007,023;  320,110;19760,262;70,40538
 439,33;14055,248;  281,189;19699,053;70,93498
 439,91;14181,505;  261,719;19851,305;71,05707
 440,50;14277,590;  314,333;19867,853;71,41045
 441,09;14425,944;  314,707;20012,283;71,63946
 441,68;14443,687;  285,387;20047,796;71,64258
 442,27;14557,601;  276,469;20008,998;72,37355
 442,86;14571,263;  251,675;20081,605;72,21199
 443,44;14658,586;  268,757;20002,114;72,92135
 444,03;14819,900;  343,520;20137,200;73,13637
 444,62;14708,882;  260,290;19968,456;73,31272
 445,21;14608,830;  284,677;19693,269;73,80315
 445,80;14627,889;  311,971;19650,624;74,02748
 446,39;14384,296;  367,974;19356,495;73,81471
 446,97;14274,969;  261,881;19073,511;74,49162
 447,56;14148,121;  266,485;18837,714;74,74807
 448,15;14005,728;  279,497;18571,175;75,04085
 448,74;13867,159;  291,880;18309,447;75,34469
 449,33;13722,076;  276,641;18160,537;75,18181
 449,91;13569,143;  276,473;17911,299;75,37738
 450,50;13434,503;  268,015;17637,654;75,80174
 451,09;13381,603;  285,090;17553,390;75,84136
 451,68;13318,360;  307,700;17358,424;76,30562
 452,26;13337,796;  311,232;17250,566;76,90128
 452,85;13185,013;  272,620;17151,501;76,50029
 453,44;13336,989;  288,679;17136,235;77,44927
 454,03;13354,513;  263,228;17099,659;77,75570
 454,61;13325,274;  262,294;17035,993;77,87775
 455,20;13539,975;  297,518;17301,084;77,88047
 455,79;13587,566;  303,298;17270,018;78,29603
 456,38;13682,206;  299,508;17334,704;78,55911
 456,97;13788,633;  281,973;17474,030;78,56337
 457,55;13803,434;  277,350;17483,395;78,61239
 458,14;13833,885;  317,283;17442,594;78,92763
 458,73;13817,488;  295,656;17325,922;79,39883
 459,31;13906,737;  316,722;17423,811;79,44084
 459,90;13974,206;  355,651;17490,156;79,48030
 460,49;14138,801;  402,039;17571,606;80,00645
 461,08;14226,228;  300,101;17691,511;80,07474
 461,66;14355,023;  301,800;17819,062;80,22500
 462,25;14437,083;  299,173;17869,693;80,46381
 462,84;14515,128;  321,254;17989,499;80,33551
 463,43;14461,812;  251,007;17879,081;80,61462
 464,01;14528,097;  296,233;17915,549;80,77421
 464,60;14473,759;  355,627;17826,061;80,81157
 465,19;14281,971;  282,845;17556,814;81,04174
 465,77;14235,330;  302,224;17580,033;80,64162
 466,36;14220,368;  326,315;17407,748;81,34009
 466,95;13870,474;  295,775;17026,046;81,13855
 467,53;13531,183;  314,525;16753,644;80,39760
 468,12;13383,992;  341,215;16387,586;81,28179
 468,71;13166,290;  307,998;16047,060;81,69669
 469,29;12894,287;  292,522;15741,525;81,57009
 469,88;12642,355;  304,978;15485,809;81,26944
 470,47;12757,613;  365,660;15586,201;81,41598
 471,06;12727,114;  324,429;15519,925;81,62080
 471,64;12839,712;  326,201;15704,611;81,37064
 472,23;12888,205;  295,565;15640,551;82,06355
 472,81;12970,181;  286,575;15786,318;81,83108
 473,40;13158,345;  296,719;15978,350;82,01715
 473,99;13439,688;  417,565;16199,915;82,51067
 474,57;13396,152;  316,181;16243,164;82,12460
 475,16;13600,918;  313,035;16521,341;81,98194
 475,75;13704,185;  331,635;16626,222;82,06743
 476,33;13882,605;  343,704;16768,516;82,42957
 476,92;13911,823;  333,871;16829,755;82,31115
 477,51;13967,112;  319,784;16902,322;82,29939
 478,09;13985,951;  327,553;16982,606;82,00753
 478,68;14003,287;  334,627;16808,872;82,96987
 479,27;14045,206;  351,788;16917,741;82,66001
 479,85;13959,650;  322,320;16913,123;82,19813
 480,44;14091,787;  309,393;17056,628;82,29654
 481,02;15333,360;  327,540;18513,781;82,51194
 481,61;17353,291;  360,389;21025,696;82,22913
 482,20;18616,756;  335,847;22425,425;82,75807
 482,78;19543,107;  368,240;23457,996;83,04491
 483,37;20044,567;  345,836;24077,235;83,00704
 483,95;20298,381;  386,219;24441,950;82,77513
 484,54;20549,083;  378,467;24717,477;82,87361
 485,13;20400,390;  335,441;24580,842;82,75775
 485,71;20158,516;  311,521;24299,731;82,73646
 486,30;19873,201;  374,213;24015,246;82,47943
 486,88;19580,487;  425,210;23631,682;82,54282
 487,47;18881,465;  376,670;22763,964;82,65758
 488,05;18009,465;  367,358;21754,751;82,48835
 488,64;16751,844;  368,042;20199,995;82,61316
 489,23;14940,681;  367,509;18030,057;82,50889
 489,81;12644,078;  370,045;15402,136;81,65220
 490,40;12063,444;  328,890;14590,975;82,27797
 490,98;11729,056;  321,809;14267,450;81,79794
 491,57;11605,451;  341,816;14131,813;81,67975
 492,15;11496,316;  324,423;14086,901;81,17646
 492,74;11487,190;  334,434;13926,221;82,05511
 493,32;11363,118;  346,425;13829,647;81,70668
 493,91;11227,505;  322,496;13679,484;81,64273
 494,50;11222,674;  322,943;13664,540;81,69735
 495,08;11107,659;  308,713;13605,891;81,21232
 495,67;11096,990;  342,805;13563,727;81,34217
 496,25;10960,925;  291,874;13466,176;80,98381
 496,84;10935,070;  285,267;13420,976;81,07520
 497,42;10895,463;  286,486;13343,746;81,24964
 498,01;10862,103;  309,265;13274,048;81,39618
 498,59;10733,978;  276,947;13162,195;81,15506
 499,18;10689,513;  288,341;13136,494;80,95461
 499,76;10649,859;  317,720;13043,589;81,19005
 500,35;10429,338;  306,324;12773,862;81,19498
 500,93;10359,193;  288,641;12779,560;80,62299
 501,52;10290,814;  286,178;12588,629;81,32230
 502,10;10246,295;  303,703;12636,336;80,62019
 502,69;10099,818;  279,852;12413,289;80,93309
 503,27; 9901,867;  265,866;12229,110;80,54672
 503,86; 9814,526;  300,392;12150,983;80,28404
 504,44; 9666,209;  269,080;12010,806;80,03192
 505,03; 9456,765;  255,156;11632,165;80,87898
 505,61; 9265,892;  271,466;11502,732;80,08381
 506,19; 9168,915;  282,695;11342,775;80,34498
 506,78; 8965,128;  263,069;11183,407;79,68673
 507,36; 8792,715;  268,465;10923,259;80,00390
 507,95; 8650,623;  270,064;10747,971;79,98313
 508,53; 8518,869;  262,839;10596,711;79,89290
 509,12; 8368,967;  274,220;10401,645;79,92897
 509,70; 8186,613;  290,602;10229,006;79,44949
 510,29; 8039,898;  298,520;10023,243;79,60513
 510,87; 7877,142;  255,146; 9835,838;79,55580
 511,46; 7681,162;  255,144; 9684,786;78,75185
 512,04; 7510,954;  269,292; 9522,309;78,26271
 512,62; 7337,924;  276,836; 9324,609;78,04228
 513,21; 7187,783;  246,981; 9118,737;78,23482
 513,79; 7059,943;  256,657; 8968,660;78,09096
 514,38; 6892,441;  243,124; 8798,316;77,72259
 514,96; 6822,552;  295,586; 8726,279;77,41909
 515,54; 6661,566;  246,813; 8437,575;78,31693
 516,13; 6531,354;  272,966; 8373,229;77,26154
 516,71; 6434,875;  259,805; 8248,457;77,29802
 517,30; 6299,482;  252,953; 8153,958;76,52861
 517,88; 6200,478;  274,415; 8019,184;76,51698
 518,46; 6066,838;  240,028; 7865,909;76,40835
 519,05; 6005,871;  262,869; 7837,551;75,81839
 519,63; 5926,165;  263,795; 7737,088;75,76808
 520,22; 5890,672;  275,631; 7659,763;76,04200
 520,80; 5809,851;  245,706; 7557,517;76,09805
 521,38; 5799,956;  300,253; 7530,946;76,06052
 521,97; 5695,115;  256,394; 7503,851;75,04317
 522,55; 5671,293;  269,779; 7471,465;75,00347
 523,13; 5643,129;  255,390; 7455,608;74,82744
 523,72; 5597,988;  243,720; 7425,904;74,54929
 524,30; 5700,424;  287,924; 7581,887;74,20520
 524,89; 5684,679;  250,008; 7519,759;74,75732
 525,47; 5777,373;  257,230; 7685,089;74,31675
 526,05; 5763,948;  232,306; 7762,102;73,46337
 526,64; 5884,042;  276,611; 7877,186;73,77641
 527,22; 5956,747;  261,846; 8028,138;73,32845
 527,80; 6076,832;  307,842; 8103,564;74,00200
 528,39; 6088,241;  257,838; 8200,041;73,41040
 528,97; 6186,907;  245,532; 8394,916;72,90581
 529,55; 6335,703;  272,083; 8561,096;73,15249
 530,14; 6526,478;  280,143; 8783,866;73,45412
 530,72; 6554,362;  253,917; 8925,662;72,65486
 531,30; 6661,042;  234,373; 9110,697;72,40237
 531,89; 6719,853;  255,604; 9167,824;72,53242
 532,47; 6781,960;  282,601; 9262,492;72,37681
 533,05; 6817,069;  286,073; 9352,202;72,03731
 533,63; 6811,434;  284,215; 9400,892;71,59647
 534,22; 6825,256;  253,215; 9447,509;71,47956
 534,80; 6827,095;  278,746; 9529,227;70,78928
 535,38; 6957,966;  374,064; 9710,376;70,51931
 535,97; 6797,527;  257,139; 9608,265;69,94225
 536,55; 6852,600;  300,053; 9692,187;69,76632
 537,13; 6835,678;  299,373; 9615,767;70,15917
 537,71; 6855,037;  327,067; 9695,551;69,68011
 538,30; 6869,919;  324,443; 9796,845;69,10049
 538,88; 6913,227;  360,355; 9909,605;68,62185
 539,46; 7036,427;  409,054;10099,918;68,38784
 540,05; 7121,463;  397,358;10193,732;68,63871
 540,63; 7206,508;  432,434;10448,326;67,63326
 541,21; 7332,555;  442,738;10683,091;67,28105
 541,79; 7364,289;  456,430;10800,526;66,78069
 542,38; 7471,668;  488,820;10982,670;66,54229
 542,96; 7508,613;  479,655;11143,102;65,91638
 543,54; 7678,855;  505,739;11346,235;66,16963
 544,12; 7732,899;  471,352;11547,335;65,56119
 544,70; 7789,054;  454,654;11663,109;65,43632
 545,29; 7901,217;  463,589;11835,006;65,40634
 545,87; 7932,443;  469,661;11863,603;65,49781
 546,45; 7896,049;  436,744;11875,588;65,21030
 547,03; 7951,559;  419,048;11917,757;65,50745
 547,62; 7996,031;  386,968;12101,509;64,95400
 548,20; 8079,374;  418,579;12279,323;64,58950
 548,78; 8136,679;  381,564;12405,865;64,49535
 549,36; 8258,957;  363,720;12594,645;64,55144
 549,94; 8312,236;  321,581;12759,556;64,24402
 550,53; 8441,364;  347,876;13046,439;63,73546
 551,11; 8521,259;  310,639;13202,562;63,68809
 551,69; 8703,432;  332,489;13521,845;63,46741
 552,27; 8865,721;  281,033;13820,327;63,40573
 552,85; 9016,881;  294,562;14147,047;62,96573
 553,44; 9270,806;  301,105;14551,817;62,94213
 554,02; 9504,707;  319,180;14945,715;62,80044
 554,60; 9609,574;  251,792;15256,803;62,36438
 555,18; 9838,922;  297,412;15642,772;62,17847
 555,76;10074,340;  282,103;16070,228;62,02280
 556,34;10262,297;  288,325;16493,734;61,54718
 556,93;10479,713;  279,258;16897,367;61,38156
 557,51;10659,786;  262,786;17261,814;61,16232
 558,09;10905,199;  297,643;17660,827;61,09223
 558,67;11037,253;  283,935;18064,453;60,47809
 559,25;11239,802;  293,553;18379,680;60,52290
 559,83;11366,574;  289,239;18741,441;60,03259
 560,41;11593,819;  252,173;19102,714;60,16616
 561,00;11720,365;  280,089;19507,787;59,49893
 561,58;11763,952;  272,173;19840,119;58,72757
 562,16;11977,388;  251,638;20092,333;59,09949
 562,74;12105,914;  233,410;20508,024;58,55847
 563,32;12302,581;  238,239;21016,156;58,06329
 563,90;12481,962;  271,012;21474,043;57,59059
 564,48;12732,880;  260,713;21907,540;57,61661
 565,06;13045,801;  266,782;22562,956;57,31485
 565,65;13410,095;  271,386;23334,054;56,96960
 566,23;13843,417;  305,473;24195,019;56,66890
 566,81;14194,271;  257,784;25032,319;56,25327
 567,39;14671,845;  266,084;26019,305;55,93771
 567,97;15009,401;  288,860;26788,384;55,55021
 568,55;15445,595;  315,624;27659,588;55,33203
 569,13;15809,368;  282,012;28440,792;55,14215
 569,71;16287,395;  265,485;29502,434;54,80021
 570,29;16762,164;  316,643;30731,185;54,07124
 570,87;17174,614;  296,025;31492,880;54,10350
 571,45;17413,343;  278,782;32273,499;53,55434
 572,03;17620,064;  244,390;32821,783;53,33660
 572,61;17903,430;  234,779;33581,636;52,98446
 573,20;18222,234;  267,093;34325,998;52,71791
 573,78;18472,214;  249,086;35037,977;52,38203
 574,36;18714,258;  271,011;35670,059;52,10097
 574,94;18805,513;  339,235;36070,492;51,68102
 575,52;18832,763;  250,610;36282,643;51,57120
 576,10;19029,655;  308,152;36963,834;51,07394
 576,68;19226,626;  273,313;37532,704;50,86855
 577,26;19496,942;  290,914;38402,890;50,39368
 577,84;19652,409;  293,087;38976,887;50,04504
 578,42;19770,603;  352,924;39291,417;49,86757
 579,00;19694,001;  270,393;39393,952;49,64683
 579,58;19794,600;  335,696;39679,751;49,45831
 580,16;19635,461;  278,154;39659,662;49,15329
 580,74;19615,552;  273,768;39791,234;48,94490
 581,32;19523,755;  286,387;39900,661;48,56171
 581,90;19373,450;  303,385;39909,788;48,14894
 582,48;19284,170;  283,308;39897,022;47,96537
 583,06;19238,108;  285,080;40076,268;47,63122
 583,64;19181,555;  273,465;40149,927;47,41667
 584,22;18926,915;  270,608;39925,227;47,04700
 584,80;18670,939;  279,693;39600,651;46,77212
 585,38;18416,985;  298,710;39153,421;46,63083
 585,96;18302,167;  258,238;39216,506;46,31604
 586,54;18140,662;  285,841;39070,183;46,03616
 587,12;18092,215;  259,382;39233,583;45,75548
 587,70;18067,720;  297,007;39368,693;45,48233
 588,28;17928,760;  274,844;39446,530;45,06805
 588,86;17787,947;  274,150;39449,217;44,70649
 589,44;17742,569;  261,217;39444,321;44,61451
 590,02;17704,863;  268,681;39733,089;44,18204
 590,59;17694,651;  241,610;39836,924;44,07855
 591,17;17659,036;  256,746;40021,272;43,76335
 591,75;17565,848;  250,752;40263,182;43,27429
 592,33;17586,150;  269,908;40397,974;43,15245
 592,91;17589,289;  226,364;40687,067;42,91306
 593,49;17674,636;  244,975;41020,424;42,74548
 594,07;17595,933;  268,436;41229,934;42,30191
 594,65;17487,114;  271,609;41226,449;42,03534
 595,23;17578,587;  263,451;41679,496;41,80780
 595,81;17474,085;  246,756;41820,572;41,43793
 596,39;17431,681;  243,832;41948,117;41,21363
 596,97;17392,408;  248,287;42077,886;40,98562
 597,55;17225,151;  242,837;42066,449;40,60461
 598,12;17147,674;  230,357;41993,116;40,50814
 598,70;17072,022;  237,978;42164,393;40,15140
 599,28;16976,843;  260,054;42337,087;39,72901
 599,86;16908,538;  233,670;42309,566;39,63045
 600,44;16878,877;  210,052;42490,235;39,42467
 601,02;16726,290;  268,734;42543,075;38,93037
 601,60;16618,013;  244,059;42515,595;38,73518
 602,18;16493,463;  215,511;42408,879;38,57941
 602,75;16341,148;  210,988;42590,385;38,06132
 603,33;16274,109;  237,670;42588,806;37,86543
 603,91;16197,468;  209,276;42485,132;37,81873
 604,49;16087,498;  245,669;42728,426;37,29002
 605,07;16002,086;  242,060;42636,052;37,17514
 605,65;15974,245;  238,436;42830,708;36,94522
 606,23;15935,804;  274,765;42935,861;36,71035
 606,80;15768,728;  285,219;42912,743;36,32280
 607,38;15580,728;  286,662;42991,091;35,81377
 607,96;15528,563;  300,526;42986,330;35,67471
 608,54;15488,056;  363,128;43156,066;35,34445
 609,12;15397,781;  340,295;43191,052;35,13937
 609,70;15268,475;  340,594;43202,306;34,82801
 610,27;15172,709;  345,835;43276,705;34,53663
 610,85;15109,223;  361,825;43401,480;34,26468
 611,43;14955,696;  353,747;43288,725;34,00945
 612,01;14724,197;  316,830;43065,015;33,70287
 612,59;14664,150;  325,517;43091,254;33,52832
 613,16;14504,412;  306,762;42987,023;33,26514
 613,74;14386,239;  306,593;42923,730;33,03752
 614,32;14243,042;  292,743;42904,712;32,73798
 614,90;14091,280;  283,212;42768,301;32,50097
 615,48;13836,630;  261,530;42346,424;32,25647
 616,05;13668,795;  245,840;42366,190;31,86810
 616,63;13519,114;  268,150;42115,264;31,66518
 617,21;13395,846;  265,835;42047,576;31,42524
 617,79;13218,751;  244,602;41977,402;31,08861
 618,36;13163,205;  268,445;41777,871;31,06466
 618,94;12921,313;  213,144;41495,536;30,78351
 619,52;12742,867;  245,995;41185,045;30,52555
 620,10;12621,791;  215,218;41131,081;30,32216
 620,67;12436,475;  230,919;41037,035;29,91109
 621,25;12307,611;  251,675;40899,928;29,65917
 621,83;12143,177;  240,913;40822,972;29,32888
 622,41;12106,463;  289,837;40782,992;29,18179
 622,98;11918,181;  246,766;40504,620;28,99165
 623,56;11831,239;  254,229;40502,351;28,76410
 624,14;11680,044;  241,365;40371,341;28,50408
 624,72;11570,183;  235,990;40270,150;28,31131
 625,29;11458,676;  230,536;40358,353;27,98094
 625,87;11404,324;  265,371;40282,813;27,83525
 626,45;11187,790;  222,461;40096,950;27,49961
 627,02;11077,706;  246,370;39970,025;27,26672
 627,60;10937,943;  222,207;39961,053;26,96539
 628,18;10876,627;  205,449;39980,206;26,82902
 628,76;10774,580;  211,458;39942,192;26,58678
 629,33;10716,772;  250,839;40010,486;26,32300
 629,91;10609,638;  224,834;39990,235;26,11517
 630,49;10563,400;  253,148;40173,239;25,82723
 631,06;10513,304;  242,688;40285,739;25,64894
 631,64;10426,881;  238,460;40251,522;25,46274
 632,22;10290,388;  211,772;40109,559;25,26109
 632,79;10323,518;  253,310;40497,330;25,02287
 633,37;10211,841;  217,061;40489,172;24,81812
 633,95;10191,667;  233,307;40600,433;24,66948
 634,52;10127,480;  223,606;40657,660;24,49389
 635,10;10067,399;  236,219;40636,225;24,33460
 635,68;10026,252;  240,079;40879,534;24,08047
 636,25; 9915,607;  214,623;40865,833;23,86395
 636,83; 9909,118;  202,227;41155,346;23,70245
 637,41; 9777,957;  228,542;41104,902;23,36170
 637,98; 9803,439;  258,235;41412,510;23,19371
 638,56; 9716,975;  233,010;41362,044;23,05905
 639,13; 9681,715;  218,228;41408,000;22,97533
 639,71; 9730,392;  290,687;41663,075;22,81644
 640,29; 9479,251;  189,687;41416,880;22,53261
 640,86; 9433,276;  215,072;41597,874;22,27545
 641,44; 9352,378;  223,302;41674,714;22,02356
 642,02; 9343,633;  232,994;41648,400;21,99819
 642,59; 9325,735;  214,532;41768,856;21,92601
 643,17; 9195,684;  212,532;41708,157;21,64843
 643,74; 9208,016;  205,762;41839,074;21,62272
 644,32; 9128,118;  240,916;41693,607;21,43939
 644,89; 9026,605;  233,762;41793,985;21,15687
 645,47; 8989,015;  241,454;41750,364;21,07394
 646,05; 8948,578;  236,530;41647,204;21,03817
 646,62; 8843,142;  230,838;41632,352;20,80191
 647,20; 8829,321;  233,145;41912,576;20,62450
 647,77; 8733,500;  209,991;41661,262;20,56272
 648,35; 8641,294;  205,606;41558,564;20,39924
 648,92; 8613,473;  210,144;41568,558;20,31831
 649,50; 8490,114;  197,452;41435,244;20,10937
 650,08; 8460,985;  199,913;41342,700;20,07903
 650,65; 8418,010;  201,836;41655,540;19,82012
 651,23; 8471,189;  186,066;42456,149;19,60044
 651,80; 8642,829;  190,066;43651,758;19,44877
 652,38; 8682,393;  205,912;44067,290;19,32561
 652,95; 8772,803;  185,219;44492,438;19,38191
 653,53; 8727,443;  218,450;44825,355;19,07551
 654,10; 8754,468;  252,526;44913,503;19,03662
 654,68; 8628,416;  203,064;44812,497;18,88693
 655,25; 8589,826;  183,833;45006,568;18,75386
 655,83; 8551,697;  185,910;45010,100;18,66355
 656,40; 8554,876;  230,217;45074,863;18,56333
 656,98; 8448,209;  205,371;44870,934;18,45457
 657,55; 8361,157;  208,371;44806,620;18,28051
 658,13; 8244,875;  220,063;44368,691;18,17681
 658,70; 8143,515;  224,293;44015,300;18,08413
 659,28; 7911,386;  203,293;42999,756;18,01105
 659,85; 7694,950;  235,908;42135,903;17,80201
 660,43; 7656,898;  235,985;42116,820;17,71911
 661,00; 7606,692;  201,754;42242,045;17,61391
 661,58; 7587,410;  200,138;42595,193;17,42484
 662,15; 7556,435;  187,368;42820,879;17,28468
 662,73; 7668,383;  268,522;43137,796;17,26146
 663,30; 7603,793;  210,522;43324,944;17,14802
 663,88; 7591,972;  211,137;43483,476;17,05670
 664,45; 7595,304;  205,136;43745,778;16,97303
 665,03; 7623,637;  203,982;44151,541;16,88297
 665,60; 7744,047;  312,597;44532,842;16,80554
 666,17; 7598,841;  199,366;44733,375;16,61534
 666,75; 7607,789;  190,981;45084,753;16,52079
 667,32; 7634,353;  232,827;45466,286;16,36294
 667,90; 7646,609;  212,827;45814,818;16,30144
 668,47; 7649,557;  216,365;46034,812;16,22314
 669,05; 7618,274;  197,057;46393,652;16,06442
 669,62; 7565,069;  181,134;46427,800;15,96642
 670,19; 7570,094;  174,826;46592,409;15,93204
 670,77; 7562,888;  207,441;46742,326;15,80631
 671,34; 7544,452;  190,056;46687,474;15,81678
 671,92; 7519,477;  180,209;47078,391;15,64936
 672,49; 7506,502;  225,594;47184,615;15,50481
 673,06; 7482,988;  176,824;47107,994;15,56783
 673,64; 7404,090;  180,978;47107,526;15,39238
 674,21; 7385,346;  177,516;47029,135;15,38438
 674,79; 7426,218;  215,439;47384,514;15,28709
 675,36; 7407,550;  218,054;47427,277;15,22901
 675,93; 7340,960;  192,746;47219,425;15,20034
 676,51; 7338,831;  217,669;47490,726;15,06389
 677,08; 7269,549;  202,668;47441,028;14,96005
 677,65; 7299,189;  203,976;47746,253;14,92401
 678,23; 7274,445;  203,360;47852,708;14,83984
 678,80; 7305,547;  203,975;47992,471;14,86042
 679,38; 7260,418;  201,206;48148,696;14,72280
 679,95; 7296,059;  214,898;48439,228;14,68379
 680,52; 7273,622;  200,436;48748,607;14,56942
 681,10; 7358,186;  210,512;49157,370;14,60293
 681,67; 7382,749;  220,435;49519,441;14,52831
 682,24; 7311,544;  177,743;49480,742;14,46930
 682,82; 7377,415;  194,512;50159,044;14,37600
 683,39; 7426,979;  251,204;50406,269;14,30718
 683,96; 7398,004;  205,280;50721,878;14,23834
 684,54; 7467,336;  182,049;51152,949;14,29303
 685,11; 7511,515;  251,587;51550,635;14,15217
 685,68; 7484,848;  198,664;51875,936;14,09940
 686,25; 7458,719;  181,433;52115,315;14,01260
 686,83; 7490,437;  202,433;52100,847;14,04283
 687,40; 7510,923;  183,586;52541,457;13,99472
 687,97; 7609,872;  239,432;52955,143;13,98149
 688,55; 7504,897;  189,739;53129,521;13,81788
 689,12; 7552,614;  162,585;53432,054;13,87292
 689,69; 7553,639;  185,277;53480,201;13,82564
 690,26; 7519,972;  199,585;53416,503;13,75575
 690,84; 7566,074;  203,584;53664,574;13,77170
 691,41; 7544,714;  225,507;53752,798;13,67379
 691,98; 7600,355;  206,199;54093,331;13,72156
 692,56; 7584,688;  198,353;54188,786;13,68082
 693,13; 7571,867;  248,506;54337,780;13,53940
 693,70; 7600,123;  220,583;54451,851;13,60754
 694,27; 7525,763;  194,506;54675,076;13,45665
 694,84; 7571,557;  186,275;54652,223;13,55945
 695,42; 7654,198;  249,274;54733,140;13,59104
 695,99; 7614,531;  210,966;54942,288;13,52711
 696,56; 7589,171;  219,581;54864,744;13,48626
 697,13; 7629,812;  224,966;55168,276;13,47725
 697,71; 7638,221;  202,581;55269,501;13,50292
 698,28; 7630,939;  196,965;55665,648;13,40211
 698,85; 7614,810;  164,349;55652,873;13,42703
 699,42; 7621,066;  175,964;55837,175;13,37574
 699,99; 7650,629;  223,733;55935,707;13,33088
 700,57; 7638,885;  216,810;56009,085;13,30305
 701,14; 7655,526;  195,041;56150,541;13,33289
 701,71; 7722,243;  219,656;56429,842;13,34738
 702,28; 7698,730;  202,194;56409,529;13,33729
 702,85; 7667,832;  203,578;56510,523;13,25636
 703,43; 7747,088;  227,809;56596,978;13,33935
 704,00; 7786,190;  227,501;56979,357;13,31884
 704,57; 7694,369;  196,654;56899,427;13,22284
 705,14; 7763,624;  229,423;57299,114;13,20176
 705,71; 7759,496;  231,038;57249,569;13,20353
 706,28; 7779,598;  204,576;57169,871;13,29761
 706,86; 7829,007;  237,114;57404,249;13,28017
 707,43; 7812,956;  272,114;57388,089;13,20268
 708,00; 7825,904;  242,268;57321,698;13,28611
 708,57; 7752,698;  202,037;57222,846;13,24194
 709,14; 7830,108;  223,652;57421,071;13,29860
 709,71; 7833,441;  201,575;57612,603;13,29338
 710,28; 7857,312;  217,651;57759,136;13,27679
 710,86; 7912,875;  209,574;57813,745;13,37282
 711,43; 7948,362;  238,343;57849,277;13,38291
 712,00; 7914,310;  212,496;57968,963;13,33498
 712,57; 7934,643;  245,112;58123,650;13,28564
 713,14; 7943,745;  207,419;58235,182;13,33211
 713,71; 7973,770;  233,111;58138,637;13,36774
 714,28; 7973,795;  221,188;58170,324;13,37830
 714,85; 7955,820;  209,726;57925,241;13,42116
 715,42; 7988,538;  207,649;58101,234;13,43998
 716,00; 8073,486;  311,879;58248,382;13,39675
 716,57; 8020,511;  220,725;58306,761;13,42799
 717,14; 8014,613;  222,340;58310,908;13,41447
 717,71; 8079,638;  204,109;58327,210;13,54974
 718,28; 8105,894;  251,724;58485,589;13,48729
 718,85; 8059,919;  199,647;58430,429;13,49848
 719,42; 8144,482;  238,646;58705,422;13,52193
 719,99; 8082,354;  204,185;58397,109;13,53802
 720,56; 8182,686;  243,723;58726,256;13,57493
 721,13; 8196,173;  204,184;58891,173;13,61799
 721,70; 8212,814;  199,414;58717,244;13,69394
 722,27; 8293,300;  237,030;58728,084;13,77351
 722,84; 8357,864;  287,337;58954,847;13,75638
 723,41; 8305,504;  191,644;58861,226;13,82976
 723,98; 8373,145;  214,490;59115,527;13,85146
 724,55; 8413,631;  247,336;59227,291;13,84588
 725,12; 8406,964;  166,336;59275,669;13,94133
 725,69; 8529,758;  205,720;59482,432;14,04268
 726,27; 8495,476;  217,104;59381,580;13,99213
 726,84; 8597,886;  219,181;59790,728;14,06494
 727,41; 8665,526;  248,950;59758,260;14,14329
 727,98; 8708,167;  237,642;60177,562;14,13169
 728,55; 8709,038;  269,334;59999,633;14,12969
 729,12; 8755,524;  211,488;60105,857;14,26518
 729,69; 8805,780;  233,641;60246,159;14,28392
 730,26; 8880,113;  231,333;60551,153;14,33821
 730,82; 8861,600;  226,717;60242,839;14,38760
 731,39; 8957,471;  221,179;60448,448;14,50554
 731,96; 9054,958;  202,563;60680,673;14,63735
 732,53; 9096,829;  225,255;60965,205;14,60583
 733,10; 9139,700;  238,101;61138,430;14,61667
 733,67; 9242,879;  233,716;61312,962;14,74996
 734,24; 9187,135;  208,946;60974,879;14,77504
 734,81; 9291,391;  250,715;61014,565;14,87838
 735,38; 9244,723;  223,177;60774,713;14,89896
 735,95; 9303,210;  216,253;60544,707;15,06247
 736,52; 9341,543;  228,714;60737,239;15,06040
 737,09; 9334,799;  239,099;60437,156;15,10962
 737,66; 9452,901;  282,868;60610,843;15,20030
 738,23; 9449,234;  226,637;60659,913;15,26079
 738,80; 9667,951;  312,713;61133,138;15,38174
 739,37; 9656,822;  249,636;61151,440;15,44648
 739,94; 9642,540;  224,174;61236,049;15,43694
 740,51; 9853,257;  378,405;61342,350;15,54173
 741,07; 9762,436;  233,404;61234,037;15,62120
 741,64; 9796,615;  253,635;61475,954;15,58742
 742,21; 9841,409;  243,096;61487,255;15,67221
 742,78; 9854,819;  201,865;61203,557;15,82408
 743,35; 9982,998;  228,788;61644,551;15,88226
 743,92;10014,100;  267,711;61799,852;15,83951
 744,49;10099,202;  273,095;61586,154;16,02612
 745,06;10134,612;  233,018;61602,532;16,13439
 745,63;10092,791;  211,710;61548,911;16,10944
 746,19;10203,662;  224,556;61547,828;16,27295
 746,76;10186,610;  241,401;61671,976;16,18935
 747,33;10267,943;  224,324;61610,893;16,36126
 747,90;10355,737;  253,939;61811,579;16,41031
 748,47;10447,608;  237,324;61720,880;16,60653
 749,04;10469,941;  236,477;61735,720;16,63998
 749,61;10546,120;  272,862;61687,022;16,72783
 750,17;10598,299;  274,169;61712,247;16,80412
 750,74;10639,324;  242,246;61661,702;16,92799
 751,31;10666,734;  219,014;61678,234;16,99943
 751,88;10659,297;  204,783;61478,690;17,06193
 752,45;10785,707;  225,860;61681,915;17,18276
 753,02;10832,117;  259,091;61501,755;17,26415
 753,58;10872,680;  226,244;61449,902;17,38942
 754,15;10936,013;  227,013;61555,666;17,46166
 754,72;10908,500;  220,090;61234,506;17,51784
 755,29;10945,909;  200,628;61164,653;17,62561
 755,86;11029,242;  235,320;61458,032;17,63059
 756,42;11094,883;  259,089;61205,564;17,77920
 756,99;11090,062;  195,550;61184,327;17,86314
 757,56;11158,933;  210,550;61123,552;17,97380
 758,13;11144,727;  183,396;61024,930;18,01620
 758,70;11281,522;  209,472;61085,078;18,18799
 759,26;11376,700;  206,241;61143,457;18,33110
 759,83;11451,341;  216,010;61259,835;18,40535
 760,40;11491,135;  193,856;60955,598;18,59275
 760,97;11545,237;  196,240;61145,669;18,62035
 761,53;11508,801;  191,855;60667,125;18,71334
 762,10;11521,134;  170,163;60646,965;18,76913
 762,67;11595,543;  212,701;60721,805;18,81178
 763,24;11569,876;  176,854;60169,491;18,99070
 763,80;11695,209;  215,239;60354,408;19,08901
 764,37;11770,772;  202,315;60257,786;19,26295
 764,94;11725,336;  190,084;59855,396;19,33326
 765,50;11784,438;  200,546;59891,774;19,40636
 766,07;11843,617;  221,468;59820,076;19,50070
 766,64;11794,027;  200,853;59542,147;19,53644
 767,21;11858,667;  207,160;59496,371;19,65199
 767,77;11937,154;  225,160;59327,596;19,81643
 768,34;11981,717;  227,390;59309,821;19,89479
 768,91;11952,973;  238,082;59146,353;19,88667
 769,47;12052,229;  230,620;59197,885;20,04775
 770,04;12114,177;  234,159;59072,802;20,19084
 770,61;12094,279;  210,158;58792,181;20,28629
 771,18;12099,381;  218,696;58710,329;20,31177
 771,74;12256,560;  226,312;58958,399;20,48326
 772,31;12232,278;  232,927;58739,701;20,50934
 772,88;12225,380;  192,542;58311,310;20,70388
 773,44;12242,559;  208,618;58177,304;20,75938
 774,01;12331,430;  237,387;58317,606;20,82300
 774,58;12343,916;  210,310;57905,061;21,03069
 775,14;12388,788;  201,079;58134,440;21,03746
 775,71;12447,505;  196,848;57962,664;21,20745
 776,27;12569,222;  281,694;57820,658;21,35514
 776,84;12670,940;  325,770;57942,729;21,42628
 777,41;12646,965;  228,309;57712,800;21,60349
 777,97;12584,528;  219,924;57490,563;21,58978
 778,54;12660,707;  228,077;57455,018;21,72513
 779,11;12703,579;  258,308;57537,012;21,72757
 779,67;12754,142;  220,769;57381,006;21,92673
 780,24;12795,244;  234,307;57179,616;22,05790
 780,80;12857,962;  252,538;57198,686;22,13569
 781,37;12906,833;  246,768;57157,911;22,24532
 781,94;12894,473;  233,922;56900,982;22,34200
 782,50;12971,498;  228,767;56857,360;22,50229
 783,07;13042,293;  256,690;56928,047;22,56096
 783,63;13048,087;  231,151;56640,963;22,72111
 784,20;13115,112;  261,997;56608,727;22,81076
 784,77;13190,214;  238,151;56367,105;23,07555
 785,33;13147,547;  207,228;56149,484;23,13157
 785,90;13275,034;  231,535;56080,016;23,35515
 786,46;13277,520;  257,381;56036,087;23,34249
 787,03;13259,776;  221,457;55744,850;23,48257
 787,59;13445,263;  224,149;55683,152;23,83944
 788,16;13373,211;  245,457;55596,915;23,71709
 788,73;13461,159;  250,303;55503,139;23,90982
 789,29;13441,492;  225,764;55116,133;24,07659
 789,86;13568,286;  276,379;54994,127;24,29177
 790,42;13528,696;  246,686;54897,890;24,30323
 790,99;13513,567;  245,840;54468,269;24,46908
 791,55;13575,285;  231,378;54523,263;24,57809
 792,12;13658,540;  265,762;54447,795;24,71812
 792,68;13666,950;  244,993;54199,635;24,87637
 793,25;13646,744;  260,531;53951,014;24,93219
 793,81;13695,462;  337,223;53469,931;25,14127
 794,38;13597,795;  214,069;53287,771;25,21725
 794,94;13620,050;  226,684;53089,995;25,33584
 795,51;13642,999;  252,068;52963,912;25,40403
 796,07;13694,024;  244,453;52556,214;25,71042
 796,64;13734,280;  270,914;52788,977;25,63569
 797,20;13701,766;  242,375;52175,894;25,91658
 797,77;13660,791;  219,452;51855,349;26,03100
 798,33;13750,893;  250,451;51727,651;26,22606
 798,90;13798,380;  264,143;51666,260;26,33012
 799,46;13740,636;  222,220;51127,408;26,55607
 800,03;13728,738;  239,220;51086,556;26,52945
 800,59;13777,378;  256,527;50791,934;26,75520
 801,15;13772,865;  262,373;50645,082;26,81573
 801,72;13713,659;  239,296;50239,922;26,94839
 802,28;13695,377;  260,757;49976,916;27,02264
 802,85;13691,017;  249,449;49804,602;27,12446
 803,41;13696,581;  226,987;49520,442;27,32532
 803,98;13678,221;  232,987;49081,128;27,52456
 804,54;13615,323;  247,064;48817,584;27,52340
 805,11;13668,656;  265,909;48568,578;27,74742
 805,67;13695,758;  265,294;48496,802;27,84583
 806,23;13626,706;  254,678;48113,642;27,94049
 806,80;13644,731;  270,909;47901,790;28,07805
 807,36;13724,833;  261,062;47824,015;28,30727
 807,93;13682,705;  285,446;47622,701;28,30172
 808,49;13713,037;  229,138;47175,464;28,72195
 809,05;13652,370;  230,830;47043,073;28,67100
 809,62;13733,164;  264,907;46914,375;28,87119
 810,18;13686,036;  251,907;46860,907;28,82304
 810,74;13693,676;  220,445;46486,132;29,12143
 811,31;13703,624;  222,522;46325,049;29,24157
 811,87;13702,803;  258,598;46123,812;29,31242
 812,44;13774,444;  266,290;46084,806;29,48187
 813,00;13700,930;  203,598;45838,492;29,57678
 813,56;13894,417;  257,213;45856,178;29,90683
 814,13;13886,288;  245,905;45853,095;29,90841
 814,69;13895,467;  241,597;45567,474;30,12379
 815,25;13751,108;  216,135;45001,699;30,22173
 815,82;13854,594;  254,904;44987,308;30,40232
 816,38;13870,004;  289,904;44849,609;30,47619
 816,94;13788,029;  234,980;44529,142;30,59782
 817,51;13777,439;  219,672;44262,443;30,78318
 818,07;13793,925;  232,287;43942,591;31,02618
 818,63;13745,874;  239,595;43801,893;31,00451
 819,20;13774,206;  249,441;43702,271;31,12517
 819,76;13699,001;  223,440;43231,188;31,33287
 820,32;13745,564;  275,209;43110,413;31,44693
 820,89;13746,128;  252,824;42955,022;31,59862
 821,45;13697,307;  234,516;42550,862;31,81463
 822,01;13642,947;  255,285;42356,702;31,79860
 822,57;13691,588;  257,208;42212,927;32,02038
 823,14;13599,536;  214,054;41866,998;32,13574
 823,70;13572,792;  240,361;41616,761;32,22231
 824,26;13577,971;  213,438;41400,678;32,44824
 824,82;13624,534;  265,976;41279,672;32,57097
 825,39;13593,482;  232,437;40941,666;32,82068
 825,95;13614,661;  242,129;41110,583;32,72092
 826,51;13592,225;  250,667;40510,961;33,13825
 827,08;13634,711;  286,283;40593,032;33,11711
 827,64;13638,506;  261,359;40360,026;33,36058
 828,20;13606,685;  221,743;40133,635;33,53622
 828,76;13614,864;  269,820;40193,398;33,42647
 829,32;13662,889;  276,358;39973,469;33,72167
 829,89;13621,529;  224,743;39838,232;33,81875
 830,45;13707,016;  247,742;39738,226;34,08232
 831,01;13701,964;  241,204;39576,143;34,22088
 831,57;13721,912;  237,126;39425,522;34,41015
 832,14;13680,476;  230,203;39358,285;34,37499
 832,70;13689,039;  213,433;39137,432;34,62030
 833,26;13678,295;  198,125;39029,811;34,71436
 833,82;13684,474;  243,510;38898,420;34,77169
 834,38;13772,576;  228,048;38980,568;34,95135
 834,95;13786,447;  215,278;38781,562;35,18921
 835,51;13803,319;  191,663;38626,402;35,41498
 836,07;13821,036;  238,124;38760,319;35,25996
 836,63;13943,061;  248,354;38652,005;35,65991
 837,19;13996,855;  252,970;38504,614;35,93018
 837,75;13914,342;  207,277;38093,608;36,17945
 838,32;14119,213;  253,123;38318,448;36,42709
 838,88;14092,623;  251,122;38316,135;36,36279
 839,44;14184,417;  252,122;38216,667;36,69818
 840,00;14215,289;  255,045;38089,507;36,89822
 840,56;14133,237;  223,660;37756,116;37,06013
 841,12;14177,646;  225,967;37779,802;37,15114
 841,68;14142,902;  208,967;37553,950;37,31140
 842,25;14216,389;  228,198;37652,636;37,37716
 842,81;14131,645;  205,120;37343,015;37,49950
 843,37;14233,131;  199,428;37319,624;37,80611
 843,93;14290,233;  227,274;37173,772;38,06304
 844,49;14355,259;  250,889;37314,843;38,05414
 845,05;14221,130;  191,427;37014,375;38,10043
 845,61;14349,001;  244,196;37150,600;38,21777
 846,17;14354,718;  212,965;36982,901;38,46010
 846,73;14426,513;  242,580;36912,203;38,68033
 847,29;14349,538;  225,733;36677,735;38,74631
 847,86;14392,948;  223,810;36606,268;38,94497
 848,42;14347,280;  218,656;36341,108;39,11314
 848,98;14400,305;  240,425;36353,025;39,21036
 849,54;14467,792;  230,040;36393,711;39,37032
 850,10;14485,510;  244,193;36184,012;39,62545
 850,66;14502,919;  222,732;35997,929;39,91645
 851,22;14552,790;  199,654;35966,385;40,12985
 851,78;14638,739;  263,270;35914,994;40,32195
 852,34;14545,764;  243,577;35736,219;40,29620
 852,90;14516,404;  227,730;35670,059;40,31528
 853,46;14560,352;  215,961;35368,130;40,80656
 854,02;14590,839;  240,499;35407,893;40,80581
 854,58;14515,710;  225,114;35108,425;40,96686
 855,14;14546,197;  222,806;35070,804;41,10248
 855,70;14551,760;  196,575;34870,336;41,40072
 856,26;14569,786;  228,113;34736,253;41,56026
 856,82;14564,734;  227,728;34633,093;41,67084
 857,38;14647,682;  282,728;34582,010;41,88121
 857,94;14572,707;  221,036;34393,465;41,99781
 858,50;14611,963;  246,343;34317,767;42,16325
 859,06;14535,526;  217,420;34104,146;42,25285
 859,62;14592,321;  248,727;34009,909;42,48546
 860,18;14480,884;  227,573;33889,672;42,34231
 860,74;14559,525;  201,265;33764,435;42,77981
 861,30;14462,088;  208,803;33450,352;42,87792
 861,86;14601,036;  284,803;33550,961;43,03543
 862,42;14530,369;  227,033;33349,032;43,18379
 862,98;14578,548;  257,956;33354,564;43,26906
 863,54;14439,342;  220,648;33068,020;43,28716
 864,10;14495,214;  224,878;33158,475;43,33063
 864,66;14392,470;  205,263;32801,777;43,52369
 865,22;14484,725;  230,186;32700,694;43,89996
 865,78;14419,443;  228,031;32483,534;43,99687
 866,34;14460,083;  216,416;32380,682;44,28414
 866,90;14461,647;  232,569;32365,983;44,28125
 867,45;14499,980;  233,877;32121,823;44,73823
 868,01;14384,697;  236,030;31924,817;44,64881
 868,57;14350,261;  233,414;31850,042;44,65007
 869,13;14331,132;  213,799;31633,266;44,93180
 869,69;14322,465;  231,491;31572,799;44,95975
 870,25;14287,413;  195,337;31446,023;45,09365
 870,81;14297,053;  225,183;31277,940;45,31601
 871,37;14283,155;  232,028;31215,396;45,35055
 871,93;14322,719;  248,259;31081,851;45,64651
 872,49;14294,898;  278,105;30774,999;45,96138
 873,04;14189,923;  202,720;30672,762;45,90477
 873,60;14158,717;  219,412;30479,371;46,06518
 874,16;14112,127;  231,335;30434,058;45,95874
 874,72;14106,973;  233,565;30331,365;46,09442
 875,28;14150,588;  240,950;30233,750;46,37659
 875,84;14186,742;  239,488;30124,288;46,67006
 876,40;14188,204;  219,642;30089,135;46,76531
 876,95;14233,435;  244,181;30094,596;46,86452
 877,51;14284,281;  262,258;29995,904;47,15877
 878,07;14286,819;  278,796;30104,904;46,96564
 878,63;14348,512;  230,027;30106,135;47,25677
 879,19;14400,435;  242,335;30152,519;47,33538
 879,75;14445,742;  231,796;30113,365;47,56760
 880,30;14463,512;  232,027;30041,827;47,74096
 880,86;14622,127;  272,181;30242,365;47,88074
 881,42;14682,050;  212,488;30266,058;48,14590
 881,98;14747,742;  235,412;30321,673;48,23574
 882,54;14837,281;  228,335;30386,904;48,44045
 883,09;14873,281;  243,796;30518,673;48,32219
 883,65;15032,819;  210,642;30670,750;48,66095
 884,21;15222,819;  253,335;30906,904;48,83439
 884,77;15230,896;  213,335;30947,519;48,86273
 885,32;15409,665;  229,873;31118,288;49,14397
 885,88;15546,742;  259,104;31227,212;49,36575
 886,44;15641,665;  236,565;31341,212;49,52668
 887,00;15635,435;  263,104;31300,596;49,52826
 887,56;15818,819;  225,335;31517,904;49,83127
 888,11;15916,588;  223,950;31516,212;50,14862
 888,67;16041,512;  257,565;31685,904;50,22202
 889,23;15975,435;  227,488;31733,135;49,98452
 889,79;15962,742;  212,719;31565,750;50,23445
 890,34;16028,281;  244,335;31564,365;50,39569
 890,90;16224,588;  319,335;31753,981;50,59785
 891,46;16064,896;  228,796;31630,442;50,43080
 892,01;16156,435;  246,335;31583,519;50,77067
 892,57;16231,435;  271,027;31485,519;51,13140
 893,13;16101,973;  249,488;31315,212;51,02886
 893,69;16137,050;  212,796;31272,673;51,26953
 894,24;16038,204;  237,950;31211,365;51,01231
 894,80;16052,050;  238,565;31004,058;51,40007
 895,36;16022,127;  228,796;30898,288;51,49525
 895,91;15990,435;  237,642;30537,827;51,98910
 896,47;15959,665;  260,027;30529,827;51,86568
 897,03;15928,973;  237,027;30303,904;52,19014
 897,58;15876,665;  241,642;30312,750;51,99351
 898,14;15855,896;  245,258;29990,442;52,48123
 898,70;15725,819;  205,181;29772,596;52,49237
 899,25;15844,050;  237,950;29750,288;52,87992
 899,81;15850,819;  246,950;29594,673;53,16893
 900,37;15757,204;  206,719;29340,827;53,37553
 900,92;15791,896;  221,796;29260,827;53,61784
 901,48;15703,665;  222,258;29132,135;53,55058
 902,03;15665,819;  231,950;29017,981;53,61583
 902,59;15700,281;  227,335;28905,673;53,95343
 903,15;15663,742;  250,873;28718,212;54,14229
 903,70;15492,742;  224,181;28494,519;54,00912
 904,26;15487,665;  230,873;28338,058;54,28076
 904,82;15517,281;  221,335;28354,596;54,36962
 905,37;15582,742;  228,796;28208,288;54,87571
 905,93;15443,050;  213,488;28030,365;54,74936
 906,48;15502,896;  245,796;27939,365;55,09257
 907,04;15493,127;  252,104;27864,827;55,19565
 907,60;15481,973;  245,796;27555,904;55,78952
 908,15;15359,742;  224,104;27562,596;55,36384
 908,71;15362,819;  241,873;27514,058;55,44457
 909,26;15425,127;  232,181;27271,135;56,18910
 909,82;15349,281;  245,950;27185,212;56,06438
 910,37;15356,050;  277,181;27060,750;56,29895
 910,93;15154,204;  225,950;26855,442;56,05910
 911,48;15229,204;  214,104;26728,904;56,62913
 912,04;15125,358;  219,950;26546,981;56,61636
 912,60;15227,665;  238,104;26595,135;56,87121
 913,15;15132,896;  238,873;26404,827;56,92138
 913,71;15036,204;  216,950;26202,827;57,02811
 914,26;14984,435;  200,719;26087,288;57,10960
 914,82;15036,358;  238,565;26018,519;57,40038
 915,37;15041,588;  211,488;25997,904;57,51129
 915,93;15086,435;  273,258;25806,673;58,01487
 916,48;14949,819;  208,412;25663,750;57,91087
 917,04;14988,896;  239,488;25524,673;58,33221
 917,59;15013,050;  256,104;25455,135;58,56156
 918,15;14889,665;  193,950;25229,673;58,69899
 918,70;14850,665;  217,335;25166,904;58,65164
 919,26;14796,512;  230,488;25054,212;58,67783
 919,81;14741,512;  205,335;24844,288;58,99673
 920,37;14710,358;  223,796;24869,212;58,77994
 920,92;14700,588;  240,181;24722,135;59,06558
 921,48;14555,896;  214,950;24481,212;59,09829
 922,03;14663,204;  224,719;24464,288;59,56576
 922,59;14609,204;  233,873;24275,135;59,79441
 923,14;14533,819;  233,565;24151,519;59,78878
 923,69;14603,281;  247,950;24129,827;60,10973
 924,25;14613,435;  257,488;24016,519;60,42311
 924,80;14441,896;  225,796;23773,058;60,37263
 925,36;14447,665;  213,796;23715,750;60,56462
 925,91;14363,127;  220,950;23554,596;60,60852
 926,47;14416,742;  206,565;23505,519;60,99062
 927,02;14524,358;  308,565;23399,212;61,56516
 927,57;14339,204;  224,488;23133,981;61,61077
 928,13;14294,435;  210,642;23119,058;61,47868
 928,68;14270,050;  223,642;23056,904;61,51731
 929,24;14108,665;  198,719;22802,135;61,53913
 929,79;14129,665;  198,335;22770,904;61,71797
 930,34;14026,281;  214,873;22576,365;61,76425
 930,90;14064,358;  205,950;22459,750;62,27434
 931,45;14117,127;  222,642;22482,288;62,42006
 932,01;14148,127;  226,104;22355,827;62,91097
 932,56;13995,512;  236,719;22221,212;62,58408
 933,11;14042,665;  254,719;22291,750;62,56717
 933,67;13836,050;  219,258;21968,750;62,60740
 934,22;13914,050;  234,565;21936,596;63,03320
 934,77;13861,358;  246,719;21783,442;63,21592
 935,33;13723,127;  225,027;21639,212;63,03345
 935,88;13781,435;  237,950;21579,519;63,46058
 936,43;13736,204;  232,335;21484,750;63,54040
 936,99;13687,281;  232,950;21357,212;63,69137
 937,54;13544,204;  213,181;21167,135;63,62056
 938,09;13541,819;  234,488;21117,596;63,72294
 938,65;13538,358;  230,565;20960,904;64,19477
 939,20;13430,512;  191,796;20899,135;63,93248
 939,75;13384,819;  205,642;20820,904;63,92922
 940,31;13369,358;  202,027;20736,135;64,12419
 940,86;13375,358;  224,565;20640,904;64,41308
 941,41;13400,973;  322,488;20687,058;64,22176
 941,96;13304,435;  210,104;20382,596;64,91181
 942,52;13180,973;  224,412;20334,212;64,42909
 943,07;13123,819;  201,796;20198,981;64,61921
 943,62;13112,050;  208,565;20065,365;64,98270
 944,18;13109,358;  207,642;20067,750;64,96297
 944,73;13075,742;  233,027;19904,519;65,28592
 945,28;12915,204;  182,181;19787,288;64,94748
 945,83;12981,127;  202,642;19727,981;65,44565
 946,39;13058,819;  210,412;19667,519;66,03452
 946,94;12960,204;  247,950;19561,519;65,82032
 947,49;12913,512;  216,796;19444,904;66,03206
 948,04;12944,127;  266,565;19358,135;66,40398
 948,59;12806,358;  234,796;19262,673;66,06918
 949,15;12810,435;  201,104;19211,058;66,33015
 949,70;12783,512;  213,027;19100,981;66,55292
 950,25;12762,973;  233,027;19043,904;66,61011
 950,80;12667,512;  188,642;18873,827;66,78483
 951,36;12664,127;  179,335;18800,288;67,04701
 951,91;12702,512;  233,412;18795,442;67,17530
 952,46;12557,435;  207,412;18571,981;67,24918
 953,01;12633,896;  223,950;18566,827;67,65540
 953,56;12522,281;  189,565;18417,058;67,65997
 954,11;12493,204;  224,642;18398,288;67,50743
 954,67;12403,127;  213,796;18288,827;67,43740
 955,22;12432,665;  194,181;18158,981;68,12480
 955,77;12451,435;  236,873;18057,981;68,53986
 956,32;12440,204;  277,950;18018,904;68,55468
 956,87;12342,512;  201,642;17865,519;68,73275
 957,42;12388,819;  216,181;17850,981;69,02623
 957,98;12288,665;  211,719;17736,365;68,91407
 958,53;12311,050;  239,950;17642,212;69,36512
 959,08;12242,050;  209,873;17533,750;69,45430
 959,63;12210,512;  219,335;17419,365;69,71602
 960,18;12175,127;  223,027;17410,288;69,54046
 960,73;12163,358;  222,335;17321,904;69,83230
 961,28;12129,358;  186,719;17229,673;70,07376
 961,83;12105,204;  243,950;17205,596;69,92985
 962,39;12012,896;  200,335;17013,981;70,25580
 962,94;11999,665;  221,950;16965,827;70,34043
 963,49;11908,435;  226,104;16777,750;70,58108
 964,04;11914,588;  232,335;16730,135;70,81098
 964,59;11890,050;  195,181;16633,212;71,14520
 965,14;11874,050;  249,335;16582,827;71,17103
 965,69;11817,896;  217,027;16489,750;71,29028
 966,24;11753,127;  210,412;16394,135;71,32299
 966,79;11640,281;  239,488;16254,904;71,18637
 967,34;11606,973;  185,181;16132,519;71,62193
 967,89;11610,819;  210,335;16050,442;71,97227
 968,44;11588,127;  216,104;16013,750;71,98555
 968,99;11499,204;  236,027;15961,135;71,62544
 969,55;11462,742;  219,412;15833,904;72,00574
 970,10;11447,512;  232,642;15723,904;72,39481
 970,65;11357,588;  241,796;15646,827;72,15690
 971,20;11276,281;  216,258;15527,673;72,23384
 971,75;11126,588;  195,104;15326,981;72,24143
 972,30;11144,358;  220,719;15239,596;72,73273
 972,85;11087,281;  203,796;15149,519;72,82006
 973,40;11031,435;  208,719;15022,288;73,05947
 973,95;11005,127;  221,181;15008,827;72,92537
 974,50;10967,050;  252,412;14953,596;72,88282
 975,05;10895,512;  223,335;14782,596;73,30164
 975,60;10871,050;  241,796;14703,981;73,49688
 976,15;10797,665;  212,873;14616,288;73,48807
 976,70;10704,050;  222,412;14529,981;73,25939
 977,25;10696,512;  243,027;14485,827;73,39487
 977,80;10660,358;  224,181;14321,904;74,02739
 978,35;10503,358;  243,027;14164,904;73,69934
 978,89;10456,050;  196,104;14069,596;73,95359
 979,44;10490,435;  234,258;14051,058;74,22976
 979,99;10328,281;  212,796;13923,981;73,77542
 980,54;10313,819;  238,104;13784,212;74,38089
 981,09;10258,050;  247,104;13719,365;74,30784
 981,64;10216,358;  231,950;13610,365;74,63072
 982,19;10187,050;  266,950;13503,827;74,94290
 982,74;10053,435;  230,950;13377,981;74,71257
 983,29; 9980,127;  221,104;13220,519;75,07278
 983,84; 9909,665;  218,873;13114,904;75,14554
 984,39; 9916,281;  319,642;13130,442;74,91053
 984,94; 9810,204;  194,873;12941,673;75,43329
 985,49; 9807,127;  243,565;12824,981;76,01340
 986,03; 9755,050;  246,719;12732,442;76,15363
 986,58; 9648,819;  285,950;12591,904;76,08406
 987,13; 9531,435;  229,642;12498,288;75,81759
 987,68; 9483,588;  252,104;12396,365;76,01520
 988,23; 9447,973;  234,258;12288,981;76,43241
 988,78; 9351,281;  210,719;12097,058;76,89972
 989,33; 9283,742;  246,412;12040,596;76,62531
 989,88; 9284,512;  263,412;12016,519;76,75502
 990,42; 9169,742;  214,873;11778,135;77,44242
 990,97; 9039,204;  229,950;11706,981;76,75551
 991,52; 9034,665;  246,335;11632,058;77,18729
 992,07; 8933,819;  275,719;11520,442;76,99701
 992,62; 8796,512;  238,719;11359,673;76,95196
 993,17; 8734,358;  249,719;11261,827;77,04827
 993,71; 8752,358;  243,258;11131,750;78,14764
 994,26; 8609,204;  210,796;11031,442;77,61466
 994,81; 8571,050;  254,565;10961,058;77,67702
 995,36; 8456,050;  218,642;10804,288;77,81677
 995,91; 8411,358;  228,027;10706,904;78,09359
 996,45; 8361,281;  240,488;10601,673;78,37706
 997,00; 8249,127;  219,873;10453,596;78,45878
 997,55; 8179,896;  235,873;10425,288;77,96348
 998,10; 8104,742;  258,719;10286,750;78,24092
 998,65; 8062,742;  229,027;10223,750;78,37851
 999,19; 7985,050;  245,412;10122,981;78,35570
 999,74; 7886,204;  275,796;10010,827;78,17549
1000,29; 7907,127;  229,642; 9896,442;79,42116
1000,84; 7732,435;  224,565; 9747,519;78,83971
1001,38; 7634,127;  231,488; 9658,519;78,52566
1001,93; 7615,896;  257,104; 9600,596;78,75848
1002,48; 7490,588;  213,488; 9385,365;79,34145
1003,03; 7462,358;  247,027; 9390,519;78,91220
1003,57; 7379,973;  241,027; 9279,673;78,98247
1004,12; 7354,973;  287,258; 9162,288;79,63595
1004,67; 7272,204;  236,104; 9069,904;79,64975
1005,22; 7171,358;  225,181; 8908,212;79,99715
1005,76; 7098,973;  219,027; 8775,904;80,40254
1006,31; 7078,665;  248,335; 8757,135;80,27373
1006,86; 6912,665;  221,104; 8563,212;80,21428
1007,40; 6819,050;  205,796; 8430,827;80,40400
1007,95; 6755,358;  235,488; 8365,596;80,19413
1008,50; 6688,512;  237,873; 8197,827;81,03864
1009,04; 6630,435;  220,412; 8126,058;81,08158
1009,59; 6502,050;  236,873; 7965,288;81,06677
1010,14; 6446,512;  212,796; 7876,442;81,34138
1010,68; 6319,896;  229,258; 7739,827;81,09423
1011,23; 6277,127;  245,796; 7677,981;81,15152
1011,78; 6218,050;  241,181; 7525,596;82,05009
1012,32; 6156,050;  270,258; 7462,827;81,83157
1012,87; 6147,819;  263,719; 7386,673;82,60758
1013,42; 6008,358;  212,258; 7261,058;82,22818
1013,96; 5998,742;  267,565; 7279,212;81,73797
1014,51; 5916,281;  191,335; 7170,750;82,02616
1015,06; 5909,281;  204,565; 7161,981;81,99475
1015,60; 6013,127;  272,181; 7212,442;82,71945
1016,15; 5944,512;  230,488; 7164,596;82,40459
1016,69; 6017,819;  243,488; 7178,750;83,26046
1017,24; 6006,742;  213,796; 7181,904;83,13514
1017,79; 6074,281;  273,258; 7245,288;83,20421
1018,33; 6088,127;  235,258; 7272,135;83,17424
1018,88; 6170,050;  248,027; 7366,673;83,19030
1019,42; 6208,973;  221,335; 7292,904;84,67199
1019,97; 6153,435;  220,027; 7299,519;83,81120
1020,51; 6281,050;  259,950; 7441,981;83,83562
1021,06; 6195,665;  201,181; 7343,365;83,93069
1021,61; 6169,435;  191,335; 7303,827;84,05071
1022,15; 6112,281;  189,027; 7269,673;83,65414
1022,70; 6138,819;  219,719; 7266,212;84,00066
1023,24; 6087,973;  200,258; 7238,519;83,65298
1023,79; 6108,742;  217,719; 7180,365;84,60897
1024,33; 6093,973;  221,412; 7083,750;85,57668
1024,88; 6004,050;  248,488; 7045,442;84,67854
1025,42; 5933,204;  243,642; 6925,135;85,15405
1025,97; 5857,742;  214,335; 6840,365;85,17026
1026,51; 5703,358;  190,488; 6693,288;84,77685
1027,06; 5714,281;  215,027; 6644,135;85,53681
1027,60; 5602,512;  230,104; 6497,827;85,71546
1028,15; 5566,512;  244,488; 6405,519;86,38202
1028,69; 5434,819;  193,335; 6264,904;86,32833
1029,24; 5403,588;  208,488; 6246,212;86,04403
1029,78; 5292,819;  199,027; 6111,288;86,15641
1030,33; 5198,742;  198,027; 6015,673;85,95771
1030,87; 5142,819;  210,950; 5917,365;86,42675
1031,42; 5076,204;  206,642; 5828,365;86,62044
1031,96; 5028,512;  238,565; 5783,365;86,38627
1032,51; 4952,665;  203,719; 5651,442;87,17305
1033,05; 4918,512;  218,873; 5613,519;87,11671
1033,60; 4807,358;  187,873; 5496,442;87,01939
1034,14; 4754,896;  215,796; 5412,596;87,34413
1034,69; 4722,204;  219,565; 5370,827;87,40846
1035,23; 4645,435;  215,950; 5260,212;87,81235
1035,77; 4576,588;  223,104; 5248,365;86,63200
1036,32; 4478,973;  189,950; 5121,981;86,96262
1036,86; 4492,204;  226,950; 5079,058;87,90518
1037,41; 4390,435;  231,719; 5010,442;87,02566
1037,95; 4289,281;  187,181; 4891,673;87,19538
1038,50; 4300,973;  205,950; 4864,904;87,89576
1039,04; 4257,358;  232,104; 4830,519;87,53567
1039,58; 4168,896;  188,181; 4698,519;88,25758
1040,13; 4124,050;  213,488; 4668,519;87,77855
1040,67; 4102,358;  243,027; 4628,750;87,99759
1041,21; 4034,896;  256,796; 4547,750;88,04802
1041,76; 3936,281;  210,950; 4455,442;87,76858
1042,30; 3931,588;  208,027; 4408,596;88,64421
1042,85; 3842,435;  208,412; 4337,596;88,00825
1043,39; 3760,588;  199,104; 4251,827;87,87881
1043,93; 3782,358;  237,719; 4235,827;88,65790
1044,48; 3714,742;  226,565; 4140,673;89,11806
1045,02; 3661,665;  215,873; 4101,596;88,67828
1045,56; 3669,896;  249,565; 4063,519;89,67940
1046,11; 3613,896;  211,565; 3975,750;90,38693
1046,65; 3563,512;  236,335; 3947,135;89,66198
1047,19; 3496,665;  206,335; 3840,365;90,54218
1047,74; 3429,512;  195,565; 3786,058;90,06971
1048,28; 3428,742;  219,719; 3747,288;90,96981
1048,82; 3399,665;  250,796; 3728,519;90,54399
1049,37; 3323,050;  226,104; 3685,596;89,52025
1049,91; 3315,204;  226,565; 3639,519;90,49752
1050,45; 3259,819;  231,873; 3582,442;90,37110
1050,99; 3213,050;  240,027; 3521,442;90,60185
1051,54; 3135,588;  212,335; 3462,827;89,93265
1052,08; 3130,896;  249,335; 3419,904;90,88467
1052,62; 3098,358;  229,796; 3371,904;91,29418
1053,16; 3046,742;  215,950; 3308,904;91,52391
1053,71; 3013,435;  229,258; 3285,519;91,09747
1054,25; 2953,973;  241,104; 3249,058;90,18986
1054,79; 2924,896;  232,181; 3195,981;90,85348
1055,33; 2850,588;  199,335; 3123,442;90,66882
1055,88; 2853,358;  230,258; 3130,750;90,43637
1056,42; 2819,512;  241,796; 3047,519;91,87348
1056,96; 2775,819;  250,565; 3039,596;90,54234
1057,50; 2761,512;  243,335; 2967,827;92,42738
1058,05; 2690,819;  229,412; 2925,365;91,30007
1058,59; 2687,204;  248,412; 2899,365;91,99678
1059,13; 2609,819;  204,565; 2818,365;92,02134
1059,67; 2578,973;  232,565; 2779,673;92,12047
1060,21; 2555,204;  227,335; 2747,981;92,35208
1060,76; 2507,281;  237,027; 2708,442;91,86047
1061,30; 2524,588;  249,719; 2704,288;92,67896
1061,84; 2470,127;  247,258; 2628,981;93,33030
1062,38; 2380,588;  212,104; 2586,212;91,33893
1062,92; 2447,050;  277,873; 2601,058;93,37084
1063,46; 2346,973;  246,642; 2509,442;92,81999
1064,01; 2321,358;  221,104; 2458,519;93,86964
1064,55; 2310,819;  240,335; 2459,212;93,31228
1065,09; 2252,819;  204,335; 2400,058;93,29431
1065,63; 2264,973;  257,719; 2402,827;93,57357
1066,17; 2218,204;  266,335; 2389,135;91,94786
1066,71; 2200,127;  256,335; 2352,596;92,72661
1067,25; 2157,127;  220,950; 2311,135;92,63186
1067,80; 2130,127;  244,027; 2286,442;92,34654
1068,34; 2119,204;  267,412; 2279,058;92,05358
1068,88; 2066,127;  225,950; 2208,596;92,81419
1069,42; 2095,819;  256,412; 2208,442;94,23047
1069,96; 2030,973;  229,565; 2160,288;93,30223
1070,50; 2039,050;  270,719; 2161,442;93,52669
1071,04; 1952,896;  221,642; 2100,981;92,12039
1071,58; 1947,973;  230,335; 2067,519;93,49297
1072,12; 1930,127;  238,104; 2066,442;92,54430
1072,66; 1929,896;  229,796; 2023,135;94,80084
1073,21; 1922,204;  251,104; 2028,442;94,02261
1073,75; 1885,050;  234,950; 1996,365;93,68034
1074,29; 1852,512;  240,719; 1960,519;93,71975
1074,83; 1843,973;  267,181; 1945,519;93,94960
1075,37; 1854,358;  270,258; 1953,212;94,12617
1075,91; 1810,742;  251,565; 1911,827;93,91152
1076,45; 1773,281;  238,873; 1886,750;93,11422
1076,99; 1758,896;  256,873; 1879,212;92,58383
1077,53; 1715,281;  229,642; 1820,750;93,37133
1078,07; 1719,665;  248,258; 1817,750;93,75055
1078,61; 1681,281;  239,181; 1778,058;93,71120
1079,15; 1674,742;  232,412; 1754,288;94,77315
1079,69; 1645,127;  239,488; 1741,904;93,55858
1080,23; 1657,358;  263,181; 1731,827;94,92940
1080,77; 1679,281;  314,335; 1769,750;93,78396
1081,31; 1607,358;  227,412; 1663,981;96,05845
1081,85; 1616,665;  260,565; 1681,212;95,45656
1082,39; 1571,665;  231,642; 1628,212;95,95107
1082,93; 1586,127;  248,412; 1642,365;95,96554
1083,47; 1537,127;  216,565; 1566,904;97,79485
1084,01; 1557,050;  252,719; 1585,904;97,83572
1084,55; 1517,127;  229,181; 1557,673;96,94796
1085,09; 1518,204;  256,258; 1563,981;96,49949
1085,63; 1477,204;  253,104; 1546,519;94,64090
1086,17; 1463,819;  237,488; 1493,981;97,59954
1086,71; 1417,281;  212,488; 1467,365;96,00880
1087,24; 1462,973;  253,873; 1506,212;96,54738
1087,78; 1448,973;  265,565; 1493,135;96,40252
1088,32; 1372,050;  231,335; 1426,442;95,44875
1088,86; 1375,588;  240,412; 1442,442;94,43826
1089,40; 1378,204;  249,104; 1424,442;96,06594
1089,94; 1330,512;  219,335; 1378,212;95,88395
1090,48; 1330,204;  250,104; 1378,673;95,70525
1091,02; 1345,896;  253,642; 1388,596;96,23773
1091,56; 1297,588;  243,181; 1350,904;95,18694
1092,10; 1279,896;  214,719; 1296,212;98,49140
1092,63; 1299,435;  271,873; 1345,750;95,68709
1093,17; 1272,819;  248,796; 1312,365;96,28175
1093,71; 1229,896;  232,719; 1282,135;95,02214
1094,25; 1267,742;  251,873; 1299,673;96,95259
1094,79; 1206,435;  238,335; 1255,135;95,21046
1095,33; 1232,281;  248,565; 1272,288;96,09194
1095,87; 1192,742;  237,488; 1246,135;94,70654
1096,40; 1153,896;  218,412; 1192,981;95,98955
1096,94; 1165,358;  244,258; 1190,904;97,30140
1097,48; 1167,819;  258,488; 1205,827;95,98795
1098,02; 1130,358;  234,873; 1177,365;95,01241
1098,56; 1074,588;  212,335; 1127,058;94,26392
1099,10; 1081,435;  213,335; 1134,135;94,27672
1099,63; 1095,435;  220,335; 1115,135;97,79839
1100,17; 1089,050;  257,412; 1133,673;94,90756
1100,71; 1107,819;  274,796; 1126,981;97,75148

