
Integration time [ms]: 160,000
Averaging Nr. [scans]: 13
Smoothing Nr. [pixels]: 0
Data measured with spectrometer [name]: 2009305U1
Wave   ;Sample   ;Dark     ;Reference;Reflectance
[nm]   ;[counts] ;[counts] ;[counts] ;[%]

 175,72;  226,154;  229,418;  218,198; 0,00000
 176,32;  235,648;  247,324;  237,064; 0,00000
 176,92;  271,991;  282,567;  286,893;-244,48240
 177,52;  276,860;  284,646;  274,399; 0,00000
 178,12;  250,464;  254,325;  241,865; 0,00000
 178,72;  274,714;  275,244;  276,001; 0,00000
 179,32;  259,014;  261,786;  258,781; 0,00000
 179,92;  262,502;  278,869;  251,920; 0,00000
 180,52;  256,833;  255,811;  277,718; 4,66281
 181,12;  262,944;  278,332;  268,649; 0,00000
 181,73;  295,246;  290,564;  290,175; 0,00000
 182,33;  390,837;  402,420;  408,394;-193,88827
 182,93;  288,864;  294,107;  293,730; 0,00000
 183,53;  249,083;  256,318;  235,234; 0,00000
 184,13;  246,890;  253,474;  234,768; 0,00000
 184,73;  297,426;  299,777;  296,521; 0,00000
 185,33;  287,495;  249,219;  394,412;26,36246
 185,93;  295,274;  257,437;  398,196;26,88028
 186,53;  310,205;  257,444;  408,744;34,87159
 187,13;  334,564;  295,841;  447,866;25,47141
 187,73;  290,880;  263,439;  415,930;17,99507
 188,33;  296,568;  252,817;  387,713;32,43337
 188,93;  312,928;  266,334;  405,484;33,48493
 189,53;  315,030;  260,856;  424,072;33,19154
 190,13;  336,074;  306,061;  440,384;22,34375
 190,73;  277,212;  243,156;  383,350;24,29184
 191,34;  318,763;  274,020;  434,912;27,80900
 191,94;  296,323;  254,656;  418,799;25,38474
 192,54;  295,404;  254,543;  439,983;22,03450
 193,14;  319,796;  280,840;  434,086;25,42081
 193,74;  319,238;  281,145;  439,295;24,08662
 194,34;  309,863;  269,151;  426,370;25,89517
 194,94;  272,800;  235,994;  407,340;21,48082
 195,54;  256,678;  210,604;  369,546;28,98787
 196,14;  276,816;  229,307;  405,012;27,03892
 196,74;  274,842;  235,447;  389,416;25,58636
 197,34;  262,529;  209,854;  390,907;29,09375
 197,94;  291,212;  244,611;  415,716;27,23552
 198,54;  293,413;  264,076;  430,267;17,65229
 199,14;  273,436;  235,166;  427,949;19,85167
 199,74;  270,663;  219,012;  431,925;24,25924
 200,34;  260,713;  204,475;  426,377;25,34346
 200,94;  296,293;  249,390;  481,453;20,21130
 201,54;  279,838;  224,471;  476,646;21,95566
 202,14;  332,482;  277,325;  536,358;21,29346
 202,74;  290,693;  231,473;  536,970;19,38484
 203,34;  273,333;  205,022;  546,256;20,01880
 203,94;  244,078;  179,018;  534,318;18,31117
 204,54;  319,522;  264,073;  653,213;14,24918
 205,14;  296,880;  208,396;  657,051;19,72192
 205,74;  345,495;  250,253;  756,379;18,81785
 206,34;  300,083;  218,940;  763,868;14,89060
 206,94;  329,268;  223,861;  851,748;16,78758
 207,54;  298,267;  188,631;  867,836;16,14171
 208,14;  329,529;  213,325;  963,005;15,50041
 208,74;  351,602;  217,319; 1048,173;16,16206
 209,34;  353,538;  216,013; 1146,059;14,78694
 209,94;  357,297;  227,781; 1279,593;12,31357
 210,54;  378,285;  219,558; 1358,793;13,93277
 211,14;  390,228;  228,396; 1514,178;12,58623
 211,73;  404,681;  235,547; 1640,996;12,03419
 212,33;  420,528;  237,159; 1758,938;12,04962
 212,93;  432,764;  229,472; 1894,450;12,20985
 213,53;  413,598;  192,088; 1929,919;12,74634
 214,13;  450,281;  213,796; 2031,963;13,00679
 214,73;  433,405;  200,248; 2041,666;12,66183
 215,33;  415,374;  189,320; 2081,131;11,94908
 215,93;  471,082;  215,329; 2230,476;12,69150
 216,53;  453,368;  184,549; 2297,215;12,72420
 217,13;  518,340;  238,327; 2533,410;12,20053
 217,73;  531,304;  212,945; 2767,506;12,46240
 218,33;  525,448;  167,413; 2966,387;12,79165
 218,93;  615,467;  202,194; 3334,968;13,19191
 219,53;  658,752;  198,875; 3666,979;13,26019
 220,13;  684,822;  166,877; 4026,440;13,41978
 220,73;  754,366;  200,859; 4398,392;13,18649
 221,32;  827,986;  205,011; 4901,481;13,26476
 221,92;  906,739;  204,723; 5372,536;13,58439
 222,52;  971,736;  184,484; 5861,538;13,86726
 223,12; 1081,878;  198,946; 6366,852;14,31494
 223,72; 1136,259;  201,639; 6820,752;14,12002
 224,32; 1234,899;  205,640; 7315,632;14,47624
 224,92; 1277,862;  191,639; 7653,451;14,55710
 225,52; 1397,341;  216,861; 8058,109;15,05474
 226,12; 1436,018;  202,635; 8394,150;15,05683
 226,72; 1507,744;  178,403; 8818,142;15,38635
 227,31; 1565,092;  161,249; 9288,269;15,38117
 227,91; 1704,342;  205,091; 9795,790;15,63235
 228,51; 1771,735;  184,622;10198,182;15,84964
 229,11; 1904,389;  188,172;10644,726;16,41284
 229,71; 1980,577;  181,856;11067,447;16,52387
 230,31; 2057,856;  180,719;11517,374;16,55812
 230,91; 2140,010;  171,926;11911,197;16,76496
 231,51; 2260,268;  180,868;12242,326;17,24004
 232,10; 2355,869;  177,259;12643,414;17,47620
 232,70; 2429,709;  207,766;12859,370;17,56254
 233,30; 2544,170;  220,867;13193,393;17,90941
 233,90; 2597,749;  178,251;13313,674;18,41964
 234,50; 2677,788;  181,560;13436,659;18,83221
 235,10; 2732,786;  187,870;13455,913;19,18079
 235,70; 2804,174;  210,244;13468,454;19,56471
 236,29; 2812,284;  202,857;13436,168;19,71863
 236,89; 2831,130;  166,004;13193,436;20,45780
 237,49; 2874,230;  205,942;13088,252;20,71280
 238,09; 2804,314;  178,863;12729,099;20,91953
 238,69; 2823,120;  232,000;12505,680;21,11119
 239,29; 2764,564;  194,400;12046,908;21,68456
 239,89; 2715,705;  208,927;11575,386;22,05417
 240,48; 2637,431;  175,940;11134,687;22,46143
 241,08; 2561,001;  197,092;10682,952;22,54378
 241,68; 2521,786;  212,710;10272,873;22,95267
 242,28; 2430,200;  186,174; 9848,284;23,22501
 242,88; 2423,200;  233,873; 9478,401;23,68241
 243,48; 2333,003;  238,558; 9155,891;23,48735
 244,07; 2265,921;  211,321; 8855,609;23,76830
 244,67; 2237,290;  221,018; 8693,035;23,79920
 245,27; 2180,989;  210,547; 8466,303;23,86749
 245,87; 2119,066;  224,333; 8363,749;23,27848
 246,47; 2128,333;  202,009; 8352,176;23,63540
 247,06; 2115,007;  199,016; 8320,626;23,59128
 247,66; 2104,646;  191,171; 8410,748;23,27948
 248,26; 2140,449;  218,702; 8598,777;22,93234
 248,86; 2162,095;  217,702; 8812,360;22,62327
 249,46; 2178,118;  164,406; 9031,811;22,70915
 250,05; 2293,823;  212,478; 9546,119;22,29940
 250,65; 2307,624;  184,931; 9989,959;21,64903
 251,25; 2390,873;  188,322;10490,127;21,38024
 251,85; 2468,496;  203,234;11125,846;20,73920
 252,44; 2573,258;  174,934;11908,685;20,43953
 253,04; 2753,212;  200,089;12810,007;20,24694
 253,64; 2826,318;  157,468;13680,640;19,73538
 254,24; 3038,904;  208,247;14831,835;19,35679
 254,84; 3193,349;  189,791;15996,734;19,00151
 255,43; 3343,576;  186,396;17244,536;18,50835
 256,03; 3556,075;  196,930;18451,646;18,40152
 256,63; 3716,632;  194,927;19808,871;17,95511
 257,23; 3858,181;  178,235;20871,414;17,78338
 257,82; 4020,949;  198,998;22198,232;17,37311
 258,42; 4164,018;  166,765;23334,204;17,25375
 259,02; 4376,121;  212,705;24592,594;17,07726
 259,62; 4454,317;  176,994;25547,111;16,85969
 260,21; 4521,276;  200,011;26211,736;16,61276
 260,81; 4606,872;  196,096;26980,120;16,46794
 261,41; 4679,236;  172,536;27633,684;16,41118
 262,01; 4725,876;  218,838;28229,601;16,09038
 262,60; 4796,412;  167,543;28838,491;16,14481
 263,20; 4842,129;  187,316;29286,737;15,99624
 263,80; 4848,169;  208,914;29662,957;15,75083
 264,40; 4877,087;  174,531;29839,945;15,85198
 264,99; 4938,642;  204,914;30127,181;15,82009
 265,59; 4927,124;  187,367;30316,259;15,73160
 266,19; 4994,781;  183,299;30574,780;15,83168
 266,78; 5054,837;  227,602;30823,865;15,77720
 267,38; 5042,594;  199,753;30828,429;15,81146
 267,98; 5054,983;  192,603;30871,434;15,84930
 268,58; 5070,558;  196,753;30913,172;15,86710
 269,17; 5089,912;  186,516;31023,779;15,90088
 269,77; 5094,934;  201,002;30754,570;16,01755
 270,37; 5079,013;  168,606;30671,922;16,09795
 270,96; 5104,854;  229,614;30454,950;16,12965
 271,56; 5056,057;  193,080;30122,767;16,24800
 272,16; 5022,189;  188,151;29971,268;16,23080
 272,75; 5044,430;  188,920;29859,965;16,36447
 273,35; 5096,860;  179,999;29843,931;16,57522
 273,95; 5087,503;  193,998;29778,711;16,54065
 274,54; 5170,117;  180,016;29810,629;16,84103
 275,14; 5267,065;  226,384;30186,602;16,82458
 275,74; 5274,013;  164,535;30271,039;16,97134
 276,33; 5436,187;  220,463;30851,261;17,02771
 276,93; 5506,511;  202,095;31279,415;17,06845
 277,53; 5661,357;  190,549;31882,683;17,26235
 278,12; 5865,722;  169,159;32492,142;17,62388
 278,72; 6089,735;  255,856;33285,317;17,66265
 279,32; 6240,651;  199,702;33862,874;17,94528
 279,91; 6463,950;  173,008;34771,549;18,18268
 280,51; 6653,023;  192,242;35427,430;18,33616
 281,11; 6881,144;  184,238;36405,369;18,48895
 281,70; 7098,314;  173,006;36799,693;18,90782
 282,30; 7334,518;  186,773;37647,075;19,08085
 282,90; 7551,541;  174,080;38160,150;19,42149
 283,49; 7795,856;  196,923;38818,062;19,67558
 284,09; 8034,285;  230,929;39352,713;19,94632
 284,69; 8250,216;  223,932;39716,819;20,32337
 285,28; 8473,751;  196,621;40272,352;20,65372
 285,88; 8760,826;  278,227;40575,343;21,05014
 286,47; 8921,545;  194,311;40555,943;21,62260
 287,07; 9154,040;  211,547;40682,282;22,09620
 287,67; 9365,234;  225,865;40858,814;22,49251
 288,26; 9586,161;  191,316;40795,817;23,13745
 288,86; 9942,417;  187,468;40802,177;24,01827
 289,46;10271,404;  220,931;40964,118;24,66786
 290,05;10584,185;  187,245;40945,997;25,50848
 290,65;11020,099;  193,541;41352,190;26,30445
 291,24;11395,757;  203,010;41512,007;27,09518
 291,84;11797,632;  209,004;41660,409;27,95714
 292,44;12218,526;  194,866;41800,490;28,89912
 293,03;12666,970;  279,856;41934,340;29,73777
 293,63;12982,196;  197,157;42113,662;30,50121
 294,22;13377,239;  219,315;42371,190;31,21551
 294,82;13659,369;  190,608;42256,231;32,01845
 295,41;13881,468;  180,237;41928,693;32,81853
 296,01;14104,303;  233,996;41937,898;33,25902
 296,61;14225,358;  229,163;41649,594;33,79056
 297,20;14254,002;  200,458;41109,418;34,35322
 297,80;14359,252;  215,554;40879,116;34,78224
 298,39;14269,035;  172,773;40404,615;35,03758
 298,99;14398,967;  235,152;40273,823;35,37534
 299,58;14464,756;  220,556;39970,212;35,83477
 300,18;14463,503;  227,399;39835,925;35,94202
 300,78;14399,074;  203,012;39324,178;36,28742
 301,37;14463,223;  222,835;39327,758;36,41584
 301,97;14507,598;  213,469;39294,553;36,57557
 302,56;14518,882;  195,849;39240,911;36,68334
 303,16;14552,932;  179,616;39095,766;36,93406
 303,75;14574,611;  194,090;39022,882;37,03572
 304,35;14743,095;  187,023;39371,209;37,14782
 304,94;14788,726;  191,470;39363,454;37,26453
 305,54;14784,063;  209,165;39364,788;37,22300
 306,13;14730,874;  164,100;39235,829;37,28213
 306,73;14663,087;  179,251;38959,642;37,34835
 307,33;14721,282;  195,249;38958,373;37,47385
 307,92;14699,237;  215,241;38898,444;37,44260
 308,52;14919,460;  181,231;39535,145;37,45048
 309,11;15191,279;  201,918;40084,403;37,58382
 309,71;15372,356;  187,145;40497,883;37,67039
 310,30;15443,842;  183,009;40684,285;37,67988
 310,90;15658,149;  233,086;41231,208;37,62383
 311,49;15643,333;  207,932;41350,330;37,51702
 312,09;15723,078;  162,246;41476,721;37,66436
 312,68;15950,213;  271,011;41986,611;37,58594
 313,28;16007,006;  165,548;42091,290;37,78456
 313,87;15987,542;  163,547;42363,178;37,49795
 314,47;16133,021;  185,073;42609,624;37,59132
 315,06;16117,867;  173,318;42638,934;37,54696
 315,66;16174,539;  188,861;42994,336;37,34494
 316,25;16078,902;  156,771;42865,028;37,28115
 316,85;16056,323;  150,477;42884,519;37,22055
 317,44;16074,923;  191,765;43146,152;36,97680
 318,04;15981,808;  167,388;43057,638;36,87183
 318,63;15887,797;  161,558;43115,078;36,61222
 319,22;15943,392;  182,310;43434,931;36,43960
 319,82;15962,795;  184,082;43397,964;36,51306
 320,41;15795,249;  197,772;43284,244;36,20040
 321,01;15684,804;  192,399;43511,944;35,76308
 321,60;15669,461;  197,698;43642,096;35,61279
 322,20;15513,595;  178,856;43518,037;35,38308
 322,79;15511,654;  215,010;43654,986;35,21329
 323,39;15400,033;  183,022;43572,225;35,07096
 323,98;15335,602;  172,857;43633,481;34,88847
 324,58;15188,632;  181,077;43447,351;34,68650
 325,17;15058,202;  189,848;43201,366;34,56831
 325,76;14893,202;  208,239;43122,636;34,21920
 326,36;14615,441;  177,937;42593,788;34,03799
 326,95;14442,241;  209,775;42178,563;33,91202
 327,55;14190,070;  171,005;41915,346;33,58315
 328,14;13978,105;  171,786;41348,251;33,52964
 328,74;13795,348;  206,695;40829,011;33,45120
 329,33;13504,255;  194,167;40315,939;33,17423
 329,92;13182,022;  178,380;39660,305;32,93568
 330,52;12840,903;  194,017;38900,769;32,67359
 331,11;12525,710;  186,006;38444,687;32,25334
 331,71;12295,488;  186,777;37666,472;32,30739
 332,30;12033,187;  198,547;37106,531;32,06526
 332,89;11797,439;  264,551;36426,984;31,89190
 333,49;11478,028;  196,237;35823,230;31,66641
 334,08;11161,898;  183,466;35198,217;31,35373
 334,68;10924,106;  181,313;34737,295;31,08809
 335,27;10723,187;  206,172;34311,321;30,83703
 335,86;10610,710;  263,852;33898,764;30,76226
 336,46;10336,315;  201,942;33572,761;30,36897
 337,05;10244,597;  184,775;33453,737;30,23786
 337,65;10107,432;  170,390;33172,347;30,11046
 338,24;10024,547;  233,626;33140,248;29,75365
 338,83; 9946,041;  211,550;33125,328;29,57573
 339,43; 9771,491;  174,694;32976,622;29,25681
 340,02; 9725,891;  179,001;32831,100;29,23821
 340,61; 9752,079;  190,472;32885,805;29,24456
 341,21; 9645,348;  209,848;32927,934;28,83879
 341,80; 9578,784;  187,697;32862,882;28,74073
 342,40; 9575,782;  183,171;33024,003;28,60040
 342,99; 9508,285;  184,013;33101,753;28,32598
 343,58; 9479,178;  188,706;33248,554;28,10198
 344,18; 9515,646;  214,476;33488,535;27,95322
 344,77; 9532,529;  186,847;33746,098;27,84830
 345,36; 9560,856;  179,622;34210,255;27,56703
 345,96; 9657,445;  218,090;34584,196;27,46705
 346,55; 9643,930;  169,792;34774,204;27,37841
 347,14; 9709,913;  177,556;35169,313;27,24172
 347,74; 9798,131;  155,568;35698,813;27,12910
 348,33; 9952,286;  189,490;36480,186;26,90165
 348,92;10059,350;  199,034;37188,955;26,65676
 349,52;10197,737;  162,185;37759,932;26,69190
 350,11;10225,522;  187,231;38005,963;26,54317
 350,70;10211,563;  177,933;38194,188;26,39300
 351,29;10057,185;  169,833;37901,223;26,20458
 351,89;10056,953;  198,918;37840,505;26,18921
 352,48;10002,662;  158,933;37923,879;26,06578
 353,07; 9977,989;  200,019;37836,555;25,97999
 353,67; 9896,221;  203,573;37818,604;25,76802
 354,26; 9794,009;  190,248;37412,595;25,80106
 354,85; 9774,685;  196,400;37287,366;25,82377
 355,45; 9624,741;  169,773;36975,643;25,68875
 356,04; 9580,842;  178,173;36930,767;25,58369
 356,63; 9489,599;  218,084;36670,003;25,43492
 357,22; 9403,881;  187,605;36525,690;25,36258
 357,82; 9394,336;  187,300;36305,305;25,49154
 358,41; 9336,133;  211,700;36129,991;25,40330
 359,00; 9251,279;  175,463;35840,289;25,44752
 359,60; 9247,452;  187,242;35775,735;25,45826
 360,19; 9190,229;  216,405;35547,956;25,39890
 360,78; 9110,319;  190,697;35462,705;25,28810
 361,37; 9031,084;  182,313;35141,143;25,31198
 361,97; 9050,452;  193,161;35077,292;25,39060
 362,56; 8865,200;  176,923;34711,396;25,15827
 363,15; 8922,462;  258,697;34372,239;25,39685
 363,74; 8779,189;  198,766;33926,345;25,44038
 364,34; 8678,726;  207,078;33405,107;25,51853
 364,93; 8564,234;  197,383;32948,157;25,54703
 365,52; 8423,095;  165,313;32451,071;25,57716
 366,11; 8413,374;  184,771;32152,418;25,74041
 366,71; 8294,469;  190,463;31649,470;25,76053
 367,30; 8217,512;  186,083;31259,152;25,84691
 367,89; 8202,056;  235,630;30917,492;25,96461
 368,48; 8129,181;  207,767;30607,452;26,05755
 369,07; 7959,947;  190,856;30016,803;26,04810
 369,67; 7970,125;  220,460;29658,538;26,32531
 370,26; 7862,786;  180,010;29287,910;26,39412
 370,85; 7841,000;  197,006;29025,096;26,51578
 371,44; 7813,804;  205,315;28760,135;26,64520
 372,03; 7724,129;  169,848;28417,774;26,74278
 372,63; 7685,870;  165,160;28050,514;26,97011
 373,22; 7632,593;  185,625;27649,618;27,11539
 373,81; 7565,904;  163,544;27247,045;27,33162
 374,40; 7530,431;  176,940;26994,687;27,42024
 374,99; 7474,602;  182,466;26691,749;27,50786
 375,59; 7420,194;  168,708;26274,783;27,77700
 376,18; 7446,612;  210,543;26161,600;27,88352
 376,77; 7484,485;  205,315;25873,834;28,35835
 377,36; 7464,945;  211,236;25865,787;28,27455
 377,95; 7433,384;  211,618;25474,807;28,58612
 378,55; 7363,419;  182,399;25254,559;28,64141
 379,14; 7496,234;  207,390;25162,581;29,20773
 379,73; 7467,453;  198,310;25007,145;29,30062
 380,32; 7542,163;  202,623;25112,805;29,46401
 380,91; 7526,612;  170,075;24888,560;29,76128
 381,50; 7633,735;  203,307;24793,450;30,21710
 382,10; 7630,163;  184,623;24709,574;30,35904
 382,69; 7654,949;  160,236;24621,657;30,63891
 383,28; 7759,833;  215,616;24566,383;30,98143
 383,87; 7737,335;  175,078;24428,279;31,18045
 384,46; 7788,116;  175,762;24306,925;31,54574
 385,05; 7867,563;  210,923;24303,782;31,77971
 385,64; 7908,681;  188,925;24339,572;31,96501
 386,24; 7965,893;  173,993;24220,203;32,40386
 386,83; 8080,238;  213,376;24279,449;32,68860
 387,42; 8150,366;  197,156;24403,679;32,85565
 388,01; 8323,927;  197,447;24638,078;33,24988
 388,60; 8519,232;  193,764;24934,295;33,65113
 389,19; 8645,786;  172,669;25258,789;33,77612
 389,78; 8854,212;  184,055;25516,348;34,22571
 390,37; 9135,743;  255,912;26044,630;34,43301
 390,96; 9230,150;  200,915;26216,686;34,70677
 391,56; 9378,240;  200,281;26377,838;35,06041
 392,15; 9567,108;  177,672;26689,722;35,41573
 392,74; 9629,168;  158,346;26904,368;35,41021
 393,33; 9935,318;  194,357;27212,750;36,05307
 393,92;10201,827;  200,648;27681,721;36,39297
 394,51;10369,036;  182,049;27977,079;36,65039
 395,10;10557,483;  211,631;28227,249;36,92887
 395,69;10673,091;  203,633;28372,249;37,16710
 396,28;10855,054;  201,932;28554,213;37,57413
 396,87;10950,723;  204,993;28611,242;37,82875
 397,46;11070,533;  230,983;28729,041;38,03610
 398,06;11303,041;  224,739;29018,224;38,47503
 398,65;11393,513;  197,247;29080,013;38,76452
 399,24;11569,091;  225,319;29277,343;39,04641
 399,83;11614,287;  201,504;29253,316;39,28424
 400,42;11851,166;  249,694;29454,467;39,72458
 401,01;11990,517;  206,262;29571,044;40,13057
 401,60;12066,839;  222,507;29610,593;40,30318
 402,19;12169,018;  253,918;29605,829;40,59395
 402,78;12210,025;  257,379;29615,856;40,71276
 403,37;12273,446;  232,074;29390,074;41,29697
 403,96;12304,770;  232,065;29203,943;41,67043
 404,55;12349,439;  247,353;29138,663;41,88833
 405,14;12305,760;  229,419;28996,034;41,98040
 405,73;12401,933;  250,240;28785,954;42,58416
 406,32;12456,466;  248,325;28829,577;42,71381
 406,91;12424,717;  229,322;28451,200;43,21256
 407,50;12418,329;  254,897;28207,094;43,51512
 408,09;12323,760;  222,484;27879,689;43,75451
 408,68;12357,452;  237,694;27691,801;44,14552
 409,27;12292,178;  226,489;27477,721;44,27576
 409,86;12361,075;  230,936;27355,978;44,71934
 410,45;12425,710;  287,296;27271,554;44,98332
 411,04;12372,824;  269,734;27202,348;44,93842
 411,63;12306,203;  252,034;26878,885;45,27073
 412,22;12274,135;  268,790;26535,489;45,70557
 412,81;12238,550;  276,966;26290,545;45,98208
 413,40;12100,182;  284,841;25837,152;46,23982
 413,99;12005,100;  330,601;25452,504;46,47140
 414,58;11794,984;  253,761;25010,712;46,61811
 415,17;11780,008;  263,735;24729,214;47,07152
 415,76;11760,712;  251,095;24579,646;47,30909
 416,35;11687,809;  252,954;24283,150;47,58536
 416,94;11766,813;  286,332;24360,672;47,68762
 417,53;11971,918;  249,891;24573,694;48,19159
 418,12;12056,725;  245,897;24618,826;48,45880
 418,71;12354,053;  280,611;25197,185;48,45547
 419,30;12488,591;  254,899;25198,617;49,04518
 419,89;12649,563;  246,443;25463,049;49,18632
 420,48;12935,991;  279,765;25830,983;49,53277
 421,07;13011,139;  280,154;25884,029;49,72288
 421,66;13150,858;  235,860;25955,515;50,21451
 422,25;13155,805;  257,346;25951,341;50,20029
 422,84;13173,832;  279,967;25945,006;50,23903
 423,43;13127,650;  257,033;25663,928;50,65797
 424,02;13023,491;  285,268;25298,897;50,92513
 424,60;12724,792;  261,452;24734,056;50,92772
 425,19;12680,995;  283,052;24393,754;51,42091
 425,78;12647,199;  281,284;24327,975;51,42460
 426,37;12639,535;  282,911;24127,053;51,82247
 426,96;12606,223;  266,603;23974,029;52,04960
 427,55;12577,092;  259,005;23815,088;52,29259
 428,14;12466,446;  258,551;23559,774;52,39165
 428,73;12368,318;  267,075;23287,640;52,56710
 429,32;12458,621;  274,524;23272,549;52,97888
 429,91;12478,959;  299,153;23243,981;53,08301
 430,50;12440,792;  285,469;23069,501;53,35018
 431,08;12372,434;  283,170;22903,070;53,44526
 431,67;12351,528;  334,024;22792,481;53,50993
 432,26;12273,458;  344,647;22547,502;53,72647
 432,85;12096,768;  386,491;22187,710;53,71386
 433,44;11944,785;  379,580;21718,486;54,19774
 434,03;11728,848;  403,364;21306,430;54,18097
 434,62;11446,674;  357,811;20804,187;54,23388
 435,21;11379,129;  383,954;20490,492;54,68458
 435,79;11342,485;  358,666;20361,246;54,91201
 436,38;11236,652;  352,374;20228,135;54,76157
 436,97;11250,481;  352,991;20041,745;55,34880
 437,56;11104,518;  355,168;19805,014;55,26702
 438,15;11103,887;  327,854;19799,419;55,34241
 438,74;11186,156;  357,703;19760,262;55,80941
 439,33;11230,265;  327,469;19699,053;56,28242
 439,91;11263,958;  293,094;19851,305;56,09339
 440,50;11356,440;  332,326;19867,853;56,43111
 441,09;11500,261;  329,031;20012,283;56,75500
 441,68;11467,862;  312,968;20047,796;56,52390
 442,27;11543,015;  298,193;20008,998;57,04902
 442,86;11532,339;  268,683;20081,605;56,85005
 443,44;11607,129;  290,908;20002,114;57,41009
 444,03;11698,522;  369,145;20137,200;57,31154
 444,62;11610,811;  290,914;19968,456;57,52699
 445,21;11524,177;  308,603;19693,269;57,85797
 445,80;11498,739;  342,465;19650,624;57,78010
 446,39;11415,420;  379,924;19356,495;58,15327
 446,97;11204,620;  285,403;19073,511;58,11771
 447,56;11096,859;  284,955;18837,714;58,27653
 448,15;10975,837;  309,711;18571,175;58,40784
 448,74;10877,058;  310,789;18309,447;58,70587
 449,33;10743,554;  291,875;18160,537;58,49167
 449,91;10614,273;  297,891;17911,299;58,57119
 450,50;10458,442;  303,503;17637,654;58,58342
 451,09;10407,026;  314,351;17553,390;58,54546
 451,68;10450,169;  331,896;17358,424;59,42652
 452,26;10385,458;  330,287;17250,566;59,42675
 452,85;10293,701;  319,206;17151,501;59,25808
 453,44;10320,316;  327,842;17136,235;59,44931
 454,03;10328,461;  296,753;17099,659;59,70222
 454,61;10277,003;  304,151;17035,993;59,60403
 455,20;10466,867;  334,620;17301,084;59,71926
 455,79;10540,152;  334,223;17270,018;60,26247
 456,38;10570,775;  335,323;17334,704;60,21073
 456,97;10623,083;  302,935;17474,030;60,10186
 457,55;10615,377;  308,559;17483,395;60,01116
 458,14;10650,686;  356,163;17442,594;60,24970
 458,73;10584,218;  320,407;17325,922;60,35578
 459,31;10637,391;  343,189;17423,811;60,26831
 459,90;10742,545;  366,797;17490,156;60,59412
 460,49;10894,399;  430,486;17571,606;61,04568
 461,08;10872,190;  334,118;17691,511;60,71230
 461,66;10946,209;  326,342;17819,062;60,71021
 462,25;11028,807;  332,047;17869,693;60,99314
 462,84;11133,339;  356,196;17989,499;61,11812
 463,43;11064,092;  307,368;17879,081;61,21614
 464,01;11076,914;  326,836;17915,549;61,11918
 464,60;11164,519;  382,825;17826,061;61,81017
 465,19;10893,987;  311,609;17556,814;61,36417
 465,77;10867,199;  328,154;17580,033;61,08926
 466,36;10890,572;  364,753;17407,748;61,76038
 466,95;10642,160;  329,908;17026,046;61,76430
 467,53;10491,532;  339,469;16753,644;61,84936
 468,12;10284,595;  366,856;16387,586;61,90567
 468,71;10087,172;  340,918;16047,060;62,05377
 469,29; 9901,143;  323,242;15741,525;62,12041
 469,88; 9735,972;  340,401;15485,809;62,03577
 470,47; 9827,374;  401,951;15586,201;62,07368
 471,06; 9770,959;  339,414;15519,925;62,12930
 471,64; 9839,516;  363,102;15704,611;61,76976
 472,23; 9827,450;  330,126;15640,551;62,03175
 472,81; 9926,367;  316,422;15786,318;62,12030
 473,40;10065,596;  325,588;15978,350;62,22549
 473,99;10275,633;  446,895;16199,915;62,39272
 474,57;10329,165;  347,664;16243,164;62,79450
 475,16;10464,595;  362,579;16521,341;62,51727
 475,75;10596,306;  373,596;16626,222;62,89882
 476,33;10633,995;  369,451;16768,516;62,59225
 476,92;10694,023;  366,897;16829,755;62,72985
 477,51;10725,142;  372,139;16902,322;62,63091
 478,09;10789,985;  363,601;16982,606;62,73771
 478,68;10749,596;  367,605;16808,872;63,14593
 479,27;10794,026;  402,366;16917,741;62,92113
 479,85;10748,952;  364,912;16913,123;62,75023
 480,44;10845,607;  339,455;17056,628;62,84646
 481,02;11846,356;  380,540;18513,781;63,23093
 481,61;13504,320;  398,690;21025,696;63,53627
 482,20;14342,447;  390,540;22425,425;63,31736
 482,78;15001,136;  413,222;23457,996;63,30248
 483,37;15478,412;  416,091;24077,235;63,65847
 483,95;15698,409;  443,709;24441,950;63,56591
 484,54;15907,094;  438,996;24717,477;63,71114
 485,13;15757,006;  406,796;24580,842;63,49872
 485,71;15652,087;  391,946;24299,731;63,82917
 486,30;15428,314;  423,254;24015,246;63,60235
 486,88;15201,018;  490,333;23631,682;63,56883
 487,47;14624,953;  449,413;22763,964;63,52599
 488,05;13942,856;  431,648;21754,751;63,36417
 488,64;12925,352;  422,427;20199,995;63,21771
 489,23;11572,487;  447,189;18030,057;63,27351
 489,81; 9912,151;  441,731;15402,136;63,30324
 490,40; 9357,618;  391,656;14590,975;63,14361
 490,98; 9158,280;  385,275;14267,450;63,19619
 491,57; 9085,812;  412,729;14131,813;63,21911
 492,15; 9039,407;  388,431;14086,901;63,15286
 492,74; 9000,515;  382,111;13926,221;63,63212
 493,32; 8901,717;  408,659;13829,647;63,28191
 493,91; 8831,116;  376,820;13679,484;63,55340
 494,50; 8808,951;  383,683;13664,540;63,43919
 495,08; 8696,850;  366,220;13605,891;62,92173
 495,67; 8740,736;  394,434;13563,727;63,37700
 496,25; 8627,173;  335,136;13466,176;63,14837
 496,84; 8638,114;  349,664;13420,976;63,40948
 497,42; 8579,983;  341,062;13343,746;63,36323
 498,01; 8565,482;  373,974;13274,048;63,49970
 498,59; 8422,670;  334,140;13162,195;63,05343
 499,18; 8447,675;  333,513;13136,494;63,37713
 499,76; 8431,572;  372,982;13043,589;63,60066
 500,35; 8240,514;  357,225;12773,862;63,48973
 500,93; 8185,013;  334,600;12779,560;63,08106
 501,52; 8120,040;  337,679;12588,629;63,52455
 502,10; 8096,555;  335,078;12636,336;63,09498
 502,69; 7985,611;  326,930;12413,289;63,36632
 503,27; 7847,075;  332,683;12229,110;63,16512
 503,86; 7805,903;  339,235;12150,983;63,21391
 504,44; 7697,886;  312,010;12010,806;63,13364
 505,03; 7481,289;  302,241;11632,165;63,36360
 505,61; 7377,002;  309,239;11502,732;63,14171
 506,19; 7315,355;  328,933;11342,775;63,43311
 506,78; 7132,646;  307,714;11183,407;62,75400
 507,36; 7026,920;  316,855;10923,259;63,26428
 507,95; 6901,746;  320,258;10747,971;63,11535
 508,53; 6797,613;  312,176;10596,711;63,06009
 509,12; 6657,067;  317,872;10401,645;62,86531
 509,70; 6560,441;  342,028;10229,006;62,89498
 510,29; 6478,032;  359,342;10023,243;63,31490
 510,87; 6301,577;  313,714; 9835,838;62,88369
 511,46; 6170,013;  300,563; 9684,786;62,54594
 512,04; 6073,424;  303,492; 9522,309;62,58864
 512,62; 6006,317;  324,178; 9324,609;63,13186
 513,21; 5772,925;  300,420; 9118,737;62,05838
 513,79; 5716,011;  306,592; 8968,660;62,44950
 514,38; 5607,274;  295,586; 8798,316;62,47038
 514,96; 5549,063;  334,431; 8726,279;62,13925
 515,54; 5366,974;  290,589; 8437,575;62,30998
 516,13; 5309,163;  326,206; 8373,229;61,92299
 516,71; 5209,781;  307,829; 8248,457;61,73255
 517,30; 5113,089;  299,066; 8153,958;61,28693
 517,88; 5061,155;  325,220; 8019,184;61,55391
 518,46; 4946,481;  287,839; 7865,909;61,47531
 519,05; 4932,812;  291,382; 7837,551;61,50710
 519,63; 4866,226;  308,072; 7737,088;61,35609
 520,22; 4809,261;  326,853; 7659,763;61,12727
 520,80; 4774,300;  293,469; 7557,517;61,68504
 521,38; 4728,910;  365,230; 7530,946;60,89664
 521,97; 4697,015;  307,013; 7503,851;60,99905
 522,55; 4654,038;  313,321; 7471,465;60,64026
 523,13; 4613,696;  301,171; 7455,608;60,27763
 523,72; 4620,932;  300,915; 7425,904;60,63191
 524,30; 4728,899;  333,176; 7581,887;60,64145
 524,89; 4676,670;  280,937; 7519,759;60,72442
 525,47; 4787,801;  321,563; 7685,089;60,65353
 526,05; 4807,086;  279,718; 7762,102;60,50702
 526,64; 4881,606;  328,952; 7877,186;60,31416
 527,22; 4951,556;  323,717; 8028,138;60,06733
 527,80; 5080,156;  366,490; 8103,564;60,92311
 528,39; 5077,312;  313,418; 8200,041;60,40474
 528,97; 5190,872;  310,954; 8394,916;60,36542
 529,55; 5361,271;  324,633; 8561,096;61,15049
 530,14; 5472,357;  342,190; 8783,866;60,77190
 530,72; 5525,176;  305,492; 8925,662;60,55198
 531,30; 5622,934;  285,883; 9110,697;60,47778
 531,89; 5674,975;  325,576; 9167,824;60,49818
 532,47; 5728,580;  351,809; 9262,492;60,34072
 533,05; 5776,698;  345,028; 9352,202;60,30382
 533,63; 5802,611;  339,657; 9400,892;60,28929
 534,22; 5811,281;  327,042; 9447,509;60,13112
 534,80; 5893,298;  344,819; 9529,227;60,41194
 535,38; 6036,105;  453,885; 9710,376;60,30601
 535,97; 5896,228;  326,887; 9608,265;60,00554
 536,55; 5935,355;  379,359; 9692,187;59,65960
 537,13; 5901,638;  394,498; 9615,767;59,72215
 537,71; 5957,599;  444,574; 9695,551;59,59398
 538,30; 5950,058;  467,275; 9796,845;58,76780
 538,88; 5977,675;  502,903; 9909,605;58,20076
 539,46; 6141,551;  579,896;10099,918;58,42061
 540,05; 6212,414;  580,054;10193,732;58,58694
 540,63; 6316,772;  647,286;10448,326;57,84577
 541,21; 6430,188;  693,137;10683,091;57,42821
 541,79; 6445,383;  711,137;10800,526;56,83442
 542,38; 6548,606;  758,361;10982,670;56,63214
 542,96; 6665,789;  762,066;11143,102;56,87027
 543,54; 6798,783;  804,751;11346,235;56,86137
 544,12; 6840,549;  766,523;11547,335;56,34109
 544,70; 6907,162;  757,298;11663,109;56,39071
 545,29; 7000,235;  741,284;11835,006;56,41886
 545,87; 7013,844;  725,521;11863,603;56,45786
 546,45; 6982,749;  662,437;11875,588;56,36517
 547,03; 7036,312;  655,595;11917,757;56,65624
 547,62; 7093,905;  613,522;12101,509;56,41009
 548,20; 7211,538;  604,604;12279,323;56,59180
 548,78; 7230,278;  563,620;12405,865;56,29556
 549,36; 7367,459;  515,849;12594,645;56,72428
 549,94; 7415,676;  494,832;12759,556;56,42886
 550,53; 7567,063;  496,231;13046,439;56,34036
 551,11; 7646,897;  454,008;13202,562;56,42122
 551,69; 7846,390;  477,387;13521,845;56,49145
 552,27; 7976,452;  436,612;13820,327;56,33592
 552,85; 8173,594;  425,008;14147,047;56,46818
 553,44; 8368,453;  413,849;14551,817;56,26413
 554,02; 8583,541;  449,774;14945,715;56,11065
 554,60; 8695,226;  380,394;15256,803;55,89274
 555,18; 8956,654;  406,388;15642,772;56,11742
 555,76; 9154,252;  398,390;16070,228;55,87004
 556,34; 9357,102;  413,708;16493,734;55,61803
 556,93; 9602,298;  393,773;16897,367;55,79709
 557,51; 9794,058;  369,477;17261,814;55,79205
 558,09; 9984,935;  403,080;17660,827;55,52205
 558,67;10179,972;  391,559;18064,453;55,38659
 559,25;10379,022;  402,479;18379,680;55,49553
 559,83;10496,498;  385,486;18741,441;55,08301
 560,41;10727,445;  373,167;19102,714;55,28312
 561,00;10865,700;  388,559;19507,787;54,79898
 561,58;11018,109;  364,397;19840,119;54,70252
 562,16;11145,952;  364,085;20092,333;54,65192
 562,74;11342,135;  337,698;20508,024;54,55756
 563,32;11552,194;  344,871;21016,156;54,21687
 563,90;11775,528;  376,713;21474,043;54,02966
 564,48;11911,326;  381,549;21907,540;53,56212
 565,06;12297,507;  370,174;22562,956;53,74420
 565,65;12656,270;  392,340;23334,054;53,45690
 566,23;13113,678;  434,559;24195,019;53,36226
 566,81;13475,180;  378,940;25032,319;53,12148
 567,39;13970,562;  381,488;26019,305;53,00402
 567,97;14274,406;  400,788;26788,384;52,57628
 568,55;14775,818;  442,255;27659,588;52,66336
 569,13;15129,403;  384,175;28440,792;52,55526
 569,71;15624,571;  374,546;29502,434;52,35541
 570,29;16207,283;  448,080;30731,185;52,03959
 570,87;16575,540;  422,545;31492,880;51,98848
 571,45;16759,595;  409,866;32273,499;51,31156
 572,03;16993,417;  364,490;32821,783;51,23325
 572,61;17356,342;  369,408;33581,636;51,14662
 573,20;17696,127;  407,862;34325,998;50,97056
 573,78;17951,136;  387,871;35037,977;50,68748
 574,36;18148,999;  412,561;35670,059;50,30543
 574,94;18312,350;  481,030;36070,492;50,10281
 575,52;18326,422;  400,194;36282,643;49,95821
 576,10;18652,416;  470,729;36963,834;49,82225
 576,68;18760,363;  444,874;37532,704;49,38409
 577,26;19122,348;  468,891;38402,890;49,17345
 577,84;19340,467;  470,331;38976,887;49,00500
 578,42;19357,705;  542,033;39291,417;48,55735
 579,00;19269,462;  478,025;39393,952;48,28726
 579,58;19366,287;  528,877;39679,751;48,11492
 580,16;19274,737;  476,650;39659,662;47,97509
 580,74;19274,069;  497,881;39791,234;47,78464
 581,32;19118,688;  496,801;39900,661;47,25904
 581,90;19001,492;  523,265;39909,788;46,91510
 582,48;19056,216;  513,573;39897,022;47,08233
 583,06;18971,569;  505,800;40076,268;46,66553
 583,64;19002,467;  501,415;40149,927;46,66266
 584,22;18731,061;  536,043;39925,227;46,19293
 584,80;18473,969;  528,803;39600,651;45,92863
 585,38;18113,784;  544,938;39153,421;45,50514
 585,96;17988,878;  505,642;39216,506;45,16364
 586,54;17978,554;  531,348;39070,183;45,27175
 587,12;17916,906;  497,883;39233,583;44,96891
 587,70;17878,133;  519,412;39368,693;44,68222
 588,28;17869,987;  483,037;39446,530;44,62369
 588,86;17774,201;  508,270;39449,217;44,33875
 589,44;17625,881;  481,973;39444,321;44,00122
 590,02;17707,987;  495,585;39733,089;43,86722
 590,59;17661,771;  458,502;39836,924;43,68704
 591,17;17608,100;  476,368;40021,272;43,32222
 591,75;17538,444;  457,900;40263,182;42,91025
 592,33;17565,785;  478,666;40397,974;42,80415
 592,91;17587,012;  421,827;40687,067;42,63028
 593,49;17593,808;  424,448;41020,424;42,29326
 594,07;17633,717;  442,832;41229,934;42,14785
 594,65;17536,941;  462,426;41226,449;41,88624
 595,23;17601,859;  459,662;41679,496;41,58725
 595,81;17601,160;  441,126;41820,572;41,46995
 596,39;17468,072;  415,819;41948,117;41,05781
 596,97;17449,975;  433,058;42077,886;40,86202
 597,55;17386,089;  426,198;42066,449;40,72956
 598,12;17184,032;  394,758;41993,116;40,36043
 598,70;17151,306;  398,675;42164,393;40,11096
 599,28;17125,822;  422,060;42337,087;39,85149
 599,86;17067,893;  412,906;42309,566;39,75254
 600,44;16908,190;  381,755;42490,235;39,24729
 601,02;16923,301;  435,844;42543,075;39,15588
 601,60;16747,074;  424,208;42515,595;38,77959
 602,18;16616,352;  394,988;42408,879;38,60952
 602,75;16634,212;  390,202;42590,385;38,49275
 603,33;16475,628;  406,829;42588,806;38,09399
 603,91;16340,958;  386,070;42485,132;37,89844
 604,49;16292,946;  421,522;42728,426;37,51497
 605,07;16250,910;  426,285;42636,052;37,49043
 605,65;16062,112;  436,371;42830,708;36,85808
 606,23;16069,907;  506,808;42935,861;36,68029
 606,80;15966,637;  556,895;42912,743;36,38162
 607,38;15861,659;  597,838;42991,091;36,00531
 607,96;15824,469;  667,971;42986,330;35,81542
 608,54;15753,460;  727,371;43156,066;35,41492
 609,12;15614,615;  750,587;43191,052;35,02325
 609,70;15509,285;  784,290;43202,306;34,71401
 610,27;15391,448;  782,585;43276,705;34,37855
 610,85;15369,180;  804,597;43401,480;34,19166
 611,43;15204,211;  801,906;43288,725;33,89829
 612,01;15006,314;  771,053;43065,015;33,65790
 612,59;14936,036;  763,520;43091,254;33,48281
 613,16;14818,559;  724,427;42987,023;33,34895
 613,74;14644,145;  686,830;42923,730;33,04531
 614,32;14522,606;  652,833;42904,712;32,82641
 614,90;14376,358;  591,056;42768,301;32,68422
 615,48;14257,799;  548,968;42346,424;32,79824
 616,05;14053,927;  506,272;42366,190;32,36427
 616,63;13927,901;  525,654;42115,264;32,22499
 617,21;13758,892;  492,508;42047,576;31,92483
 617,79;13603,145;  475,435;41977,402;31,63154
 618,36;13489,950;  485,515;41777,871;31,49357
 618,94;13190,571;  426,969;41495,536;31,07876
 619,52;13042,746;  458,886;41185,045;30,89872
 620,10;12939,630;  422,203;41131,081;30,74864
 620,67;12805,186;  438,500;41037,035;30,46092
 621,25;12625,671;  462,747;40899,928;30,07857
 621,83;12553,666;  433,353;40822,972;30,00849
 622,41;12506,945;  482,583;40782,992;29,83682
 622,98;12306,887;  450,115;40504,620;29,60159
 623,56;12204,467;  449,652;40502,351;29,34837
 624,14;12006,679;  432,365;40371,341;28,98000
 624,72;11876,285;  415,045;40270,150;28,75727
 625,29;11812,983;  419,037;40358,353;28,52815
 625,87;11730,873;  463,896;40282,813;28,29554
 626,45;11528,458;  404,035;40096,950;28,02622
 627,02;11461,880;  406,205;39970,025;27,94390
 627,60;11322,483;  392,139;39961,053;27,62356
 628,18;11227,846;  383,202;39980,206;27,38754
 628,76;11151,296;  379,577;39942,192;27,22701
 629,33;11075,306;  407,966;40010,486;26,93601
 629,91;10894,322;  406,587;39990,235;26,49512
 630,49;10930,066;  427,580;40173,239;26,42424
 631,06;10815,954;  395,194;40285,739;26,12339
 631,64;10760,098;  403,190;40251,522;25,99082
 632,22;10601,707;  375,109;40109,559;25,73736
 632,79;10661,761;  400,647;40497,330;25,59093
 633,37;10558,885;  363,515;40489,172;25,40861
 633,95;10470,945;  366,573;40600,433;25,11410
 634,52;10381,271;  353,276;40657,660;24,88066
 635,10;10346,840;  375,125;40636,225;24,76762
 635,68;10356,648;  370,570;40879,534;24,65153
 636,25;10211,464;  349,179;40865,833;24,34131
 636,83;10199,834;  333,577;41155,346;24,16911
 637,41;10164,331;  354,415;41104,902;24,07313
 637,98;10115,574;  383,491;41412,510;23,72000
 638,56;10040,269;  357,793;41362,044;23,61335
 639,13; 9995,415;  344,807;41408,000;23,50184
 639,71;10076,353;  421,425;41663,075;23,41063
 640,29; 9855,058;  324,040;41416,880;23,19387
 640,86; 9784,857;  342,041;41597,874;22,88844
 641,44; 9731,194;  328,733;41674,714;22,74093
 642,02; 9661,685;  357,657;41648,400;22,53296
 642,59; 9596,099;  338,580;41768,856;22,34482
 643,17; 9542,974;  338,888;41708,157;22,24861
 643,74; 9444,772;  346,581;41839,074;21,92732
 644,32; 9427,263;  362,735;41693,607;21,93162
 644,89; 9305,369;  360,427;41793,985;21,58864
 645,47; 9290,706;  368,351;41750,364;21,56095
 646,05; 9177,428;  362,736;41647,204;21,35111
 646,62; 9030,919;  352,967;41632,352;21,02248
 647,20; 9073,179;  360,737;41912,576;20,96765
 647,77; 8931,824;  320,045;41661,262;20,83098
 648,35; 8855,545;  321,814;41558,564;20,69448
 648,92; 8773,497;  346,199;41568,558;20,44351
 649,50; 8644,296;  314,276;41435,244;20,25735
 650,08; 8566,248;  308,277;41342,700;20,12450
 650,65; 8628,739;  328,739;41655,540;20,08382
 651,23; 8693,692;  301,123;42456,149;19,90882
 651,80; 8836,105;  308,970;43651,758;19,67371
 652,38; 8855,365;  323,432;44067,290;19,50430
 652,95; 8905,472;  299,586;44492,438;19,47348
 653,53; 8892,116;  313,509;44825,355;19,27264
 654,10; 8887,069;  370,971;44913,503;19,11902
 654,68; 8754,406;  293,433;44812,497;19,00528
 655,25; 8757,281;  306,357;45006,568;18,90578
 655,83; 8680,233;  303,511;45010,100;18,73711
 656,40; 8660,263;  349,819;45074,863;18,58119
 656,98; 8561,061;  323,819;44870,934;18,49108
 657,55; 8495,321;  321,204;44806,620;18,37482
 658,13; 8316,812;  307,435;44368,691;18,17782
 658,70; 8241,303;  323,051;44015,300;18,12278
 659,28; 7964,332;  324,974;42999,756;17,90134
 659,85; 7785,977;  336,821;42135,903;17,82134
 660,43; 7723,391;  354,206;42116,820;17,64541
 661,00; 7702,035;  313,437;42242,045;17,62185
 661,58; 7694,449;  318,514;42595,193;17,44682
 662,15; 7694,402;  316,515;42820,879;17,35795
 662,73; 7783,662;  392,592;43137,796;17,29099
 663,30; 7689,691;  324,823;43324,944;17,12755
 663,88; 7668,412;  322,669;43483,476;17,01948
 664,45; 7662,826;  313,285;43745,778;16,92176
 665,03; 7694,163;  309,593;44151,541;16,84362
 665,60; 7816,962;  428,132;44532,842;16,75293
 666,17; 7688,837;  334,671;44733,375;16,56392
 666,75; 7674,482;  321,825;45084,753;16,42577
 667,32; 7750,434;  344,287;45466,286;16,41361
 667,90; 7698,002;  336,364;45814,818;16,18709
 668,47; 7700,877;  343,595;46034,812;16,10218
 669,05; 7745,830;  319,134;46393,652;16,11888
 669,62; 7695,551;  292,365;46427,800;16,04664
 670,19; 7668,965;  306,288;46592,409;15,90688
 670,77; 7674,687;  314,981;46742,326;15,85209
 671,34; 7614,947;  303,058;46687,474;15,76368
 671,92; 7631,822;  300,982;47078,391;15,67175
 672,49; 7580,544;  335,213;47184,615;15,46515
 673,06; 7545,112;  270,059;47107,994;15,53239
 673,64; 7496,679;  300,444;47107,526;15,37424
 674,21; 7435,093;  284,598;47029,135;15,29696
 674,79; 7482,199;  330,753;47384,514;15,19846
 675,36; 7458,306;  329,291;47427,277;15,13656
 675,93; 7369,720;  295,676;47219,425;15,07561
 676,51; 7406,441;  306,600;47490,726;15,04710
 677,08; 7354,778;  312,062;47441,028;14,94350
 677,65; 7362,038;  317,062;47746,253;14,85367
 678,23; 7400,683;  314,524;47852,708;14,90625
 678,80; 7354,866;  305,063;47992,471;14,78336
 679,38; 7360,664;  310,217;48148,696;14,73803
 679,95; 7384,386;  325,217;48439,228;14,67175
 680,52; 7383,723;  304,141;48748,607;14,61381
 681,10; 7431,521;  334,987;49157,370;14,53541
 681,67; 7458,628;  319,295;49519,441;14,51080
 682,24; 7418,426;  286,603;49480,742;14,49730
 682,82; 7499,840;  307,757;50159,044;14,42708
 683,39; 7558,100;  367,219;50406,269;14,37054
 683,96; 7572,745;  307,912;50721,878;14,41036
 684,54; 7596,005;  283,143;51152,949;14,37564
 685,11; 7666,957;  350,528;51550,635;14,28987
 685,68; 7645,371;  308,221;51875,936;14,22819
 686,25; 7645,708;  302,529;52115,315;14,17252
 686,83; 7643,814;  305,067;52100,847;14,16862
 687,40; 7698,767;  289,606;52541,457;14,17971
 687,97; 7756,642;  338,683;52955,143;14,09817
 688,55; 7673,594;  284,145;53129,521;13,98315
 689,12; 7697,624;  264,607;53432,054;13,98039
 689,69; 7715,807;  280,608;53480,201;13,97604
 690,26; 7721,144;  294,916;53416,503;13,97968
 690,84; 7737,019;  298,839;53664,574;13,93812
 691,41; 7774,356;  307,301;53752,798;13,97135
 691,98; 7765,155;  308,532;54093,331;13,86381
 692,56; 7734,645;  299,302;54188,786;13,79739
 693,13; 7836,059;  350,763;54337,780;13,86499
 693,70; 7779,089;  332,148;54451,851;13,76013
 694,27; 7775,195;  288,687;54675,076;13,76541
 694,84; 7766,839;  291,995;54652,223;13,75058
 695,42; 7839,484;  352,303;54733,140;13,76805
 695,99; 7853,975;  327,150;54942,288;13,78157
 696,56; 7810,927;  313,150;54864,744;13,74438
 697,13; 7925,341;  331,227;55168,276;13,84851
 697,71; 7891,524;  313,612;55269,501;13,78908
 698,28; 7906,169;  304,613;55665,648;13,73088
 698,85; 7914,583;  279,228;55652,873;13,78879
 699,42; 7955,535;  280,383;55837,175;13,81497
 699,99; 7957,872;  318,306;55935,707;13,73593
 700,57; 7971,978;  321,845;56009,085;13,73768
 701,14; 8009,392;  296,460;56150,541;13,80907
 701,71; 8003,191;  338,999;56429,842;13,66389
 702,28; 8088,220;  303,461;56409,529;13,87507
 702,85; 8041,326;  311,538;56510,523;13,75432
 703,43; 8122,048;  326,539;56596,978;13,85365
 704,00; 8166,385;  351,001;56979,357;13,80118
 704,57; 8149,952;  331,616;56899,427;13,82117
 705,14; 8235,674;  347,694;57299,114;13,85037
 705,71; 8238,165;  355,617;57249,569;13,85481
 706,28; 8232,040;  333,310;57169,871;13,89727
 706,86; 8300,916;  356,002;57404,249;13,92666
 707,43; 8279,099;  390,003;57388,089;13,84098
 708,00; 8305,897;  359,849;57321,698;13,94977
 708,57; 8276,696;  327,849;57222,846;13,97108
 709,14; 8332,571;  346,850;57421,071;13,99182
 709,71; 8351,677;  342,466;57612,603;13,98497
 710,28; 8436,091;  345,389;57759,136;14,09193
 710,86; 8412,198;  338,082;57813,745;14,04789
 711,43; 8478,150;  366,620;57849,277;14,11126
 712,00; 8465,025;  339,851;57968,963;14,09908
 712,57; 8511,901;  357,083;58123,650;14,11685
 713,14; 8590,930;  331,544;58235,182;14,26402
 713,71; 8610,575;  352,391;58138,637;14,29092
 714,28; 8635,065;  317,468;58170,324;14,37716
 714,85; 8581,172;  315,776;57925,241;14,34729
 715,42; 8662,047;  324,623;58101,234;14,43045
 716,00; 8743,076;  400,469;58248,382;14,42162
 716,57; 8734,952;  317,085;58306,761;14,51615
 717,14; 8705,827;  297,008;58310,908;14,49449
 717,71; 8726,780;  293,009;58327,210;14,53241
 718,28; 8805,501;  356,471;58485,589;14,53494
 718,85; 8781,454;  282,779;58430,429;14,61568
 719,42; 8937,637;  314,317;58705,422;14,76821
 719,99; 8860,204;  281,164;58397,109;14,76194
 720,56; 8965,849;  329,164;58726,256;14,78958
 721,13; 8961,263;  302,780;58891,173;14,77850
 721,70; 8927,215;  292,088;58717,244;14,77981
 722,27; 9067,168;  326,934;58728,084;14,96586
 722,84; 9186,889;  384,627;58954,847;15,02856
 723,41; 9112,457;  296,166;58861,226;15,05384
 723,98; 9233,871;  307,859;59115,527;15,17831
 724,55; 9277,054;  342,628;59227,291;15,17276
 725,12; 9293,929;  261,782;59275,669;15,30512
 725,69; 9410,497;  295,552;59482,432;15,40028
 726,27; 9438,911;  319,321;59381,580;15,44064
 726,84; 9476,940;  317,014;59790,728;15,40164
 727,41; 9581,662;  337,014;59758,260;15,55781
 727,98; 9705,922;  332,861;60177,562;15,66231
 728,55; 9724,874;  347,938;59999,633;15,71948
 729,12; 9759,673;  301,323;60105,857;15,81544
 729,69; 9867,010;  331,170;60246,159;15,91562
 730,26; 9880,731;  323,170;60551,153;15,86897
 730,82; 9929,376;  320,632;60242,839;16,03536
 731,39; 9972,098;  317,940;60448,448;16,05534
 731,96;10105,896;  282,402;60680,673;16,26453
 732,53;10227,387;  323,633;60965,205;16,33162
 733,10;10284,724;  323,018;61138,430;16,38023
 733,67;10340,368;  330,018;61312,962;16,41500
 734,24;10351,090;  314,326;60974,879;16,54578
 734,81;10371,350;  339,634;61014,565;16,53354
 735,38;10408,072;  310,635;60774,713;16,69989
 735,95;10381,332;  320,558;60544,707;16,70555
 736,52;10463,669;  335,866;60737,239;16,76750
 737,09;10513,083;  330,328;60437,156;16,94109
 737,66;10629,420;  378,097;60610,843;17,01952
 738,23;10680,680;  317,098;60659,913;17,17451
 738,80;10809,247;  416,252;61133,138;17,11714
 739,37;10787,277;  349,560;61151,440;17,16677
 739,94;10879,383;  327,945;61236,049;17,32354
 740,51;11063,181;  463,714;61342,350;17,41082
 741,07;10929,749;  314,946;61234,037;17,42443
 741,64;11078,855;  357,715;61475,954;17,54164
 742,21;11135,577;  339,715;61487,255;17,65543
 742,78;11127,683;  300,331;61203,557;17,77796
 743,35;11241,174;  327,485;61644,551;17,79878
 743,92;11365,742;  364,793;61799,852;17,90663
 744,49;11411,463;  371,409;61586,154;18,03496
 745,06;11408,723;  320,717;61602,532;18,09347
 745,63;11465,906;  310,948;61548,911;18,21576
 746,19;11551,243;  318,256;61547,828;18,34569
 746,76;11543,811;  341,795;61671,976;18,26510
 747,33;11654,840;  319,718;61610,893;18,49389
 747,90;11700,023;  335,565;61811,579;18,48600
 748,47;11776,668;  330,258;61720,880;18,64521
 749,04;11825,159;  332,412;61735,720;18,71682
 749,61;11882,419;  354,643;61687,022;18,79558
 750,17;12007,294;  332,028;61712,247;19,02122
 750,74;12024,631;  330,951;61661,702;19,06659
 751,31;11954,814;  319,182;61678,234;18,96319
 751,88;12033,228;  299,952;61478,690;19,17868
 752,45;12132,642;  321,952;61681,915;19,24820
 753,02;12175,364;  344,106;61501,755;19,34551
 753,58;12268,316;  312,030;61449,902;19,55627
 754,15;12322,807;  311,030;61555,666;19,61278
 754,72;12239,682;  316,492;61234,506;19,57252
 755,29;12280,096;  301,108;61164,653;19,68171
 755,86;12446,741;  323,185;61458,032;19,83084
 756,42;12486,078;  336,032;61205,564;19,96080
 756,99;12493,953;  290,340;61184,327;20,04075
 757,56;12505,213;  292,801;61123,552;20,07605
 758,13;12563,320;  242,186;61024,930;20,27077
 758,70;12681,964;  279,802;61085,078;20,39652
 759,26;12780,763;  262,187;61143,457;20,56228
 759,83;12793,177;  278,034;61259,835;20,52275
 760,40;12822,206;  256,572;60955,598;20,70154
 760,97;12938,389;  242,342;61145,669;20,84623
 761,53;12901,034;  235,188;60667,125;20,95886
 762,10;12975,832;  231,881;60646,965;21,09399
 762,67;12989,400;  257,343;60721,805;21,05709
 763,24;12983,583;  234,882;60169,491;21,27102
 763,80;13091,074;  256,421;60354,408;21,35621
 764,37;13135,488;  263,190;60257,786;21,45576
 764,94;13097,055;  253,498;59855,396;21,54891
 765,50;13171,392;  248,191;59891,774;21,66738
 766,07;13305,576;  298,730;59820,076;21,85241
 766,64;13308,759;  272,653;59542,147;21,99463
 767,21;13349,788;  274,115;59496,371;22,07898
 767,77;13381,663;  290,654;59327,596;22,17427
 768,34;13441,154;  296,346;59309,821;22,27425
 768,91;13477,568;  314,039;59146,353;22,37466
 769,47;13552,367;  304,655;59197,885;22,49446
 770,04;13585,550;  300,117;59072,802;22,60477
 770,61;13606,271;  280,502;58792,181;22,77455
 771,18;13622,531;  289,040;58710,329;22,82300
 771,74;13730,176;  288,964;58958,399;22,91008
 772,31;13737,359;  297,579;58739,701;22,99673
 772,88;13712,927;  276,811;58311,310;23,15195
 773,44;13712,110;  274,196;58177,304;23,20759
 774,01;13797,216;  299,042;58317,606;23,26527
 774,58;13806,015;  281,042;57905,061;23,47107
 775,14;13912,736;  270,273;58134,440;23,57670
 775,71;13991,304;  284,812;57962,664;23,76387
 776,27;14077,487;  340,582;57820,658;23,89855
 776,84;14123,670;  396,505;57942,729;23,85415
 777,41;14072,546;  288,198;57712,800;24,00425
 777,97;14116,729;  284,737;57490,563;24,17934
 778,54;14093,527;  294,814;57455,018;24,14042
 779,11;14182,480;  329,507;57537,012;24,21531
 779,67;14222,201;  284,738;57381,006;24,41046
 780,24;14208,154;  310,430;57179,616;24,43806
 780,80;14365,952;  312,508;57198,686;24,70450
 781,37;14346,058;  310,123;57157,911;24,69038
 781,94;14396,472;  302,201;56900,982;24,90208
 782,50;14421,655;  305,816;56857,360;24,96101
 783,07;14486,223;  317,894;56928,047;25,02789
 783,63;14421,175;  286,894;56640,963;25,08121
 784,20;14522,205;  311,971;56608,727;25,24166
 784,77;14584,619;  290,356;56367,105;25,49053
 785,33;14605,417;  268,587;56149,484;25,65605
 785,90;14694,754;  282,357;56080,016;25,82975
 786,46;14668,476;  320,742;56036,087;25,75185
 787,03;14712,582;  282,896;55744,850;26,01727
 787,59;14767,611;  288,127;55683,152;26,13860
 788,16;14781,179;  302,281;55596,915;26,18500
 788,73;14866,054;  305,897;55503,139;26,37841
 789,29;14791,007;  278,590;55116,133;26,46438
 789,86;14902,651;  326,821;54994,127;26,66279
 790,42;14928,604;  295,129;54897,890;26,79988
 790,99;14834,556;  296,667;54468,269;26,83673
 791,55;14928,893;  281,668;54523,263;27,00368
 792,12;14951,614;  322,668;54447,795;27,02801
 792,68;14930,413;  296,438;54199,635;27,14862
 793,25;14896,135;  307,361;53951,014;27,19571
 793,81;14891,702;  392,515;53469,931;27,31706
 794,38;14830,116;  263,977;53287,771;27,47095
 794,94;14932,992;  274,593;53089,995;27,75402
 795,51;14941,867;  299,670;52963,912;27,80292
 796,07;14834,512;  294,747;52556,214;27,82119
 796,64;15021,233;  308,517;52788,977;28,03466
 797,20;14848,109;  294,517;52175,894;28,05167
 797,77;14824,215;  260,518;51855,349;28,22705
 798,33;14835,706;  288,903;51727,651;28,27985
 798,90;14906,812;  305,980;51666,260;28,42826
 799,46;14790,841;  269,903;51127,408;28,55220
 800,03;14898,332;  294,750;51086,556;28,75185
 800,59;14897,515;  304,827;50791,934;28,90379
 801,15;14807,775;  319,827;50645,082;28,78862
 801,72;14773,804;  290,674;50239,922;28,99569
 802,28;14795,988;  309,059;49976,916;29,16761
 802,85;14828,709;  287,290;49804,602;29,36633
 803,41;14793,969;  285,367;49520,442;29,46802
 803,98;14691,383;  287,829;49081,128;29,51953
 804,54;14636,874;  292,829;48817,584;29,56026
 805,11;14580,595;  299,830;48568,578;29,58595
 805,67;14656,548;  317,138;48496,802;29,76237
 806,23;14632,731;  296,677;48113,642;29,98110
 806,80;14624,145;  320,369;47901,790;30,06168
 807,36;14702,020;  315,293;47824,015;30,28229
 807,93;14630,665;  328,908;47622,701;30,24024
 808,49;14645,310;  288,986;47175,464;30,61933
 809,05;14568,493;  292,755;47043,073;30,53613
 809,62;14629,060;  309,525;46914,375;30,72542
 810,18;14597,551;  294,140;46860,907;30,71592
 810,74;14545,196;  256,910;46486,132;30,90748
 811,31;14602,148;  268,295;46325,049;31,12215
 811,87;14618,178;  301,757;46123,812;31,24351
 812,44;14675,822;  322,065;46084,806;31,36560
 813,00;14539,082;  244,142;45838,492;31,35244
 813,56;14642,035;  301,219;45856,178;31,48025
 814,13;14604,218;  282,451;45853,095;31,42762
 814,69;14654,709;  279,066;45567,474;31,74243
 815,25;14548,969;  243,682;45001,699;31,96140
 815,82;14594,767;  304,144;44987,308;31,98212
 816,38;14584,873;  325,298;44849,609;32,02649
 816,94;14474,826;  262,068;44529,142;32,10684
 817,51;14523,701;  246,529;44262,443;32,43639
 818,07;14478,192;  256,145;43942,591;32,55483
 818,63;14384,221;  278,684;43801,893;32,40923
 819,20;14458,327;  276,300;43702,271;32,65794
 819,76;14345,587;  256,069;43231,188;32,78529
 820,32;14431,540;  294,147;43110,413;33,01874
 820,89;14421,800;  287,608;42955,022;33,12643
 821,45;14339,521;  266,916;42550,862;33,28120
 822,01;14308,781;  289,455;42356,702;33,32599
 822,57;14277,811;  283,994;42212,927;33,37508
 823,14;14274,225;  247,148;41866,998;33,70285
 823,70;14280,254;  268,379;41616,761;33,88736
 824,26;14201,745;  251,072;41400,678;33,90232
 824,82;14276,928;  289,995;41279,672;34,12306
 825,39;14217,495;  267,765;40941,666;34,29652
 825,95;14201,448;  282,919;41110,583;34,09093
 826,51;14147,323;  279,996;40510,961;34,46929
 827,08;14188,506;  315,612;40593,032;34,44335
 827,64;14204,074;  291,459;40360,026;34,72202
 828,20;14167,950;  259,459;40133,635;34,88095
 828,76;14206,902;  291,844;40193,398;34,87347
 829,32;14254,854;  298,921;39973,469;35,17604
 829,89;14233,884;  246,921;39838,232;35,32836
 830,45;14302,682;  277,845;39738,226;35,54157
 831,01;14297,173;  275,614;39576,143;35,67779
 831,57;14262,817;  264,769;39425,522;35,74510
 832,14;14331,231;  266,307;39358,285;35,97905
 832,70;14219,261;  245,539;39137,432;35,92965
 833,26;14275,828;  236,462;39029,811;36,19014
 833,82;14351,935;  264,924;38898,420;36,46320
 834,38;14324,272;  256,309;38980,568;36,32855
 834,95;14340,070;  236,155;38781,562;36,59039
 835,51;14302,407;  225,079;38626,402;36,65845
 836,07;14496,667;  274,694;38760,319;36,95399
 836,63;14524,004;  278,387;38652,005;37,12347
 837,19;14530,879;  265,849;38504,614;37,30515
 837,75;14456,140;  224,695;38093,608;37,58081
 838,32;14653,938;  293,311;38318,448;37,76614
 838,88;14678,275;  287,773;38316,135;37,84150
 839,44;14642,843;  273,466;38216,667;37,87076
 840,00;14624,257;  271,081;38089,507;37,95286
 840,56;14628,209;  253,082;37756,116;38,33057
 841,12;14599,161;  248,159;37779,802;38,23707
 841,68;14623,191;  227,852;37553,950;38,56642
 842,25;14705,835;  247,237;37652,636;38,65377
 842,81;14615,018;  242,391;37343,015;38,73958
 843,37;14688,278;  236,006;37319,624;38,97212
 843,93;14667,308;  258,084;37173,772;39,03279
 844,49;14780,875;  267,007;37314,843;39,17602
 845,05;14760,982;  220,315;37014,375;39,51906
 845,61;14844,780;  270,392;37150,600;39,51818
 846,17;14788,425;  266,547;36982,901;39,55152
 846,73;14809,608;  251,470;36912,203;39,71044
 847,29;14809,406;  232,855;36677,735;39,99616
 847,86;14798,820;  243,932;36606,268;40,02737
 848,42;14732,388;  242,625;36341,108;40,13953
 848,98;14767,879;  262,318;36353,025;40,19196
 849,54;14784,831;  246,241;36393,711;40,22022
 850,10;14731,937;  269,626;36184,012;40,26885
 850,66;14719,582;  247,319;35997,929;40,48116
 851,22;14674,227;  231,088;35966,385;40,41701
 851,78;14805,333;  278,858;35914,994;40,76333
 852,34;14745,516;  272,166;35736,219;40,81133
 852,90;14702,776;  239,397;35670,059;40,82165
 853,46;14698,805;  229,243;35368,130;41,17820
 854,02;14760,296;  265,782;35407,893;41,24543
 854,58;14644,479;  246,244;35108,425;41,30044
 855,14;14646,662;  234,937;35070,804;41,37037
 855,70;14695,999;  213,168;34870,336;41,78885
 856,26;14677,106;  258,783;34736,253;41,81955
 856,82;14664,981;  245,784;34633,093;41,93174
 857,38;14707,164;  281,169;34582,010;42,05726
 857,94;14667,424;  260,861;34393,465;42,20763
 858,50;14705,607;  280,862;34317,767;42,37972
 859,06;14563,252;  246,170;34104,146;42,28570
 859,62;14639,512;  272,555;34009,909;42,58472
 860,18;14573,541;  255,017;33889,672;42,57075
 860,74;14579,878;  209,094;33764,435;42,82711
 861,30;14530,907;  235,094;33450,352;43,03990
 861,86;14656,244;  314,710;33550,961;43,15028
 862,42;14523,428;  251,403;33349,032;43,12099
 862,98;14627,841;  273,403;33354,564;43,39158
 863,54;14459,332;  241,557;33068,020;43,31193
 864,10;14593,746;  250,865;33158,475;43,58530
 864,66;14577,314;  220,942;32801,777;44,06385
 865,22;14518,959;  246,712;32700,694;43,97687
 865,78;14496,296;  254,635;32483,534;44,18910
 866,34;14522,940;  238,020;32380,682;44,44224
 866,90;14563,662;  248,636;32365,983;44,57101
 867,45;14492,076;  254,713;32121,823;44,67729
 868,01;14533,566;  254,560;31924,817;45,08649
 868,57;14449,211;  239,099;31850,042;44,95314
 869,13;14412,548;  220,022;31633,266;45,18007
 869,69;14469,500;  237,638;31572,799;45,41819
 870,25;14425,222;  207,869;31446,023;45,51278
 870,81;14446,405;  240,408;31277,940;45,77038
 871,37;14372,434;  257,869;31215,396;45,59332
 871,93;14418,079;  254,101;31081,851;45,94555
 872,49;14419,878;  284,716;30774,999;46,35956
 873,04;14290,984;  227,486;30672,762;46,19271
 873,60;14320,628;  219,255;30479,371;46,60053
 874,16;14258,350;  249,179;30434,058;46,41122
 874,72;14274,427;  241,179;30331,365;46,63729
 875,28;14287,350;  237,948;30233,750;46,83789
 875,84;14259,350;  247,871;30124,288;46,89812
 876,40;14298,427;  239,410;30089,135;47,09932
 876,95;14280,965;  247,948;30094,596;47,01706
 877,51;14379,119;  279,871;29995,904;47,44660
 878,07;14411,888;  291,563;30104,904;47,36244
 878,63;14472,350;  247,179;30106,135;47,64122
 879,19;14582,658;  264,025;30152,519;47,90684
 879,75;14529,273;  235,717;30113,365;47,84030
 880,30;14588,427;  237,410;30041,827;48,15064
 880,86;14681,196;  282,717;30242,365;48,05957
 881,42;14743,965;  224,333;30266,058;48,33155
 881,98;14861,119;  244,410;30321,673;48,59721
 882,54;14933,196;  223,025;30386,904;48,76751
 883,09;15030,427;  248,794;30518,673;48,83281
 883,65;15091,658;  232,794;30670,750;48,81689
 884,21;15300,042;  279,102;30906,904;49,04348
 884,77;15379,427;  230,871;30947,519;49,31709
 885,32;15551,119;  243,563;31118,288;49,57957
 885,88;15621,427;  271,410;31227,212;49,58688
 886,44;15665,350;  247,640;31341,212;49,58488
 887,00;15719,196;  262,717;31300,596;49,79876
 887,56;15815,504;  233,410;31517,904;49,80772
 888,11;15833,273;  243,256;31516,212;49,85144
 888,67;16050,581;  280,794;31685,904;50,21408
 889,23;16036,504;  250,871;31733,135;50,14135
 889,79;16058,042;  233,487;31565,750;50,50563
 890,34;16088,504;  254,256;31564,365;50,57232
 890,90;16302,273;  331,640;31753,981;50,82573
 891,46;16216,735;  246,410;31630,442;50,88678
 892,01;16194,427;  262,256;31583,519;50,86695
 892,57;16240,042;  279,563;31485,519;51,14562
 893,13;16172,042;  246,948;31315,212;51,25840
 893,69;16118,658;  227,487;31272,673;51,18723
 894,24;16086,658;  247,410;31211,365;51,15383
 894,80;16075,196;  247,948;31004,058;51,46050
 895,36;16089,965;  246,256;30898,288;51,68894
 895,91;16030,965;  251,256;30537,827;52,10134
 896,47;16027,735;  262,025;30529,827;52,08740
 897,03;15923,735;  238,640;30303,904;52,17015
 897,58;15840,504;  247,794;30312,750;51,86340
 898,14;15791,965;  253,333;29990,442;52,25334
 898,70;15781,581;  211,487;29772,596;52,67087
 899,25;15838,042;  251,410;29750,288;52,83805
 899,81;15785,119;  254,717;29594,673;52,93260
 900,37;15659,273;  212,333;29340,827;53,03034
 900,92;15760,581;  235,871;29260,827;53,48745
 901,48;15680,350;  232,179;29132,135;53,45396
 902,03;15641,350;  242,333;29017,981;53,51406
 902,59;15597,581;  232,487;28905,673;53,58698
 903,15;15547,427;  252,563;28718,212;53,73095
 903,70;15396,504;  249,640;28494,519;53,62694
 904,26;15341,119;  242,102;28338,058;53,74089
 904,82;15465,119;  235,871;28354,596;54,16052
 905,37;15423,735;  250,640;28208,288;54,27171
 905,93;15362,965;  229,333;28030,365;54,43551
 906,48;15290,427;  255,487;27939,365;54,30937
 907,04;15298,196;  247,871;27864,827;54,49668
 907,60;15236,812;  255,179;27555,904;54,87632
 908,15;15168,581;  215,487;27562,596;54,67888
 908,71;15275,735;  258,948;27514,058;55,09714
 909,26;15204,350;  237,410;27271,135;55,36396
 909,82;15195,965;  246,640;27185,212;55,49413
 910,37;15220,965;  287,256;27060,750;55,77796
 910,93;15092,735;  230,179;26855,442;55,82125
 911,48;14950,273;  233,410;26728,904;55,54478
 912,04;14996,504;  231,179;26546,981;56,10821
 912,60;15011,042;  248,025;26595,135;56,03278
 913,15;14877,581;  234,256;26404,827;55,95340
 913,71;14862,427;  225,410;26202,827;56,34516
 914,26;14850,658;  213,333;26087,288;56,57166
 914,82;14856,350;  234,256;26018,519;56,70937
 915,37;14737,812;  222,179;25997,904;56,31513
 915,93;14730,658;  290,640;25806,673;56,59194
 916,48;14639,812;  223,871;25663,750;56,66670
 917,04;14580,581;  263,717;25524,673;56,67586
 917,59;14679,042;  269,871;25455,135;57,21271
 918,15;14511,965;  211,948;25229,673;57,15954
 918,70;14526,042;  226,640;25166,904;57,33461
 919,26;14557,196;  238,871;25054,212;57,69949
 919,81;14458,735;  216,717;24844,288;57,82957
 920,37;14451,042;  232,256;24869,212;57,71324
 920,92;14411,658;  259,640;24722,135;57,85190
 921,48;14309,504;  216,794;24481,212;58,07974
 922,03;14384,581;  222,025;24464,288;58,42093
 922,59;14307,042;  233,794;24275,135;58,53770
 923,14;14275,581;  243,794;24151,519;58,69143
 923,69;14320,581;  261,179;24129,827;58,90322
 924,25;14327,965;  266,025;24016,519;59,20694
 924,80;14200,119;  232,717;23773,058;59,33390
 925,36;14201,427;  231,410;23715,750;59,48652
 925,91;14168,350;  218,333;23554,596;59,77828
 926,47;14134,042;  199,563;23505,519;59,78935
 927,02;14152,427;  306,563;23399,212;59,95789
 927,57;14077,504;  232,871;23133,981;60,45398
 928,13;14072,427;  223,563;23119,058;60,48729
 928,68;14091,119;  225,256;23056,904;60,73089
 929,24;13946,273;  196,410;22802,135;60,82470
 929,79;13880,350;  221,179;22770,904;60,57356
 930,34;13815,504;  228,794;22576,365;60,79725
 930,90;13844,196;  209,487;22459,750;61,27887
 931,45;13863,812;  240,025;22482,288;61,25180
 932,01;13824,427;  230,563;22355,827;61,44046
 932,56;13774,812;  251,563;22221,212;61,55423
 933,11;13871,812;  251,333;22291,750;61,79774
 933,67;13731,812;  226,179;21968,750;62,11608
 934,22;13638,119;  234,794;21936,596;61,76135
 934,77;13643,504;  261,794;21783,442;62,17790
 935,33;13529,427;  234,333;21639,212;62,11245
 935,88;13530,888;  234,179;21579,519;62,29327
 936,43;13537,196;  229,102;21484,750;62,60968
 936,99;13520,196;  234,256;21357,212;62,89811
 937,54;13452,812;  210,948;21167,135;63,18833
 938,09;13468,812;  234,256;21117,596;63,37375
 938,65;13420,812;  231,871;20960,904;63,62545
 939,20;13315,273;  218,794;20899,135;63,32816
 939,75;13304,350;  205,256;20820,904;63,53957
 940,31;13302,658;  209,333;20736,135;63,78648
 940,86;13259,427;  235,256;20640,904;63,82630
 941,41;13317,042;  340,871;20687,058;63,77692
 941,96;13234,350;  224,179;20382,596;64,53965
 942,52;13211,581;  220,717;20334,212;64,58780
 943,07;13142,196;  198,717;20198,981;64,71654
 943,62;13188,504;  219,102;20065,365;65,34934
 944,18;13173,350;  208,487;20067,750;65,28371
 944,73;13099,350;  241,563;19904,519;65,39091
 945,28;12922,427;  189,563;19787,288;64,97113
 945,83;13005,350;  226,487;19727,981;65,52761
 946,39;13007,273;  214,563;19667,519;65,76229
 946,94;12976,273;  253,640;19561,519;65,89348
 947,49;12983,581;  219,333;19444,904;66,39204
 948,04;13035,350;  280,102;19358,135;66,85830
 948,59;12924,119;  251,256;19262,673;66,65923
 949,15;12893,812;  210,948;19211,058;66,75153
 949,70;12904,658;  226,871;19100,981;67,17025
 950,25;12827,888;  230,487;19043,904;66,95967
 950,80;12726,888;  190,025;18873,827;67,10017
 951,36;12715,658;  189,640;18800,288;67,30565
 951,91;12725,504;  239,871;18795,442;67,28778
 952,46;12576,888;  225,256;18571,981;67,32337
 953,01;12585,196;  234,256;18566,827;67,37157
 953,56;12526,504;  207,410;18417,058;67,65147
 954,11;12565,196;  232,487;18398,288;67,88971
 954,67;12573,965;  224,487;18288,827;68,36385
 955,22;12481,427;  198,256;18158,981;68,38906
 955,77;12444,888;  239,794;18057,981;68,49796
 956,32;12493,427;  289,102;18018,904;68,83509
 956,87;12352,658;  208,794;17865,519;68,77755
 957,42;12360,042;  219,487;17850,981;68,85721
 957,98;12369,042;  206,563;17736,365;69,38172
 958,53;12373,888;  254,640;17642,212;69,70064
 959,08;12298,273;  215,410;17533,750;69,76918
 959,63;12280,504;  219,563;17419,365;70,12255
 960,18;12319,427;  226,102;17410,288;70,37473
 960,73;12334,427;  218,794;17321,904;70,83877
 961,28;12212,350;  206,794;17229,673;70,52600
 961,83;12248,812;  239,333;17205,596;70,78447
 962,39;12134,042;  211,179;17013,981;70,95759
 962,94;12120,581;  234,410;16965,827;71,04103
 963,49;12022,658;  231,794;16777,750;71,26130
 964,04;12078,350;  242,410;16730,135;71,78638
 964,59;12124,273;  189,794;16633,212;72,57907
 965,14;12023,042;  246,563;16582,827;72,08796
 965,69;11991,273;  231,179;16489,750;72,33166
 966,24;11890,888;  213,179;16394,135;72,16947
 966,79;11906,273;  246,333;16254,904;72,83561
 967,34;11853,812;  195,563;16132,519;73,15229
 967,89;11816,888;  213,256;16050,442;73,26827
 968,44;11797,888;  222,563;16013,750;73,30244
 968,99;11802,888;  229,563;15961,135;73,56751
 969,55;11718,042;  222,871;15833,904;73,63492
 970,10;11680,658;  225,410;15723,904;73,91201
 970,65;11626,427;  255,640;15646,827;73,87856
 971,20;11580,965;  213,871;15527,673;74,22777
 971,75;11420,812;  198,179;15326,981;74,18058
 972,30;11498,119;  242,640;15239,596;75,05176
 972,85;11414,427;  207,179;15149,519;75,00330
 973,40;11293,196;  209,640;15022,288;74,82494
 973,95;11321,658;  232,256;15008,827;75,04719
 974,50;11337,581;  259,871;14953,596;75,39075
 975,05;11200,196;  224,025;14782,596;75,39319
 975,60;11155,504;  240,102;14703,981;75,46663
 976,15;11113,965;  216,717;14616,288;75,67759
 976,70;11048,581;  223,794;14529,981;75,66507
 977,25;11078,504;  237,179;14485,827;76,08669
 977,80;10945,504;  221,179;14321,904;76,05513
 978,35;10755,504;  239,948;14164,904;75,51590
 978,89;10790,427;  204,640;14069,596;76,34923
 979,44;10792,658;  232,487;14051,058;76,42014
 979,99;10688,273;  212,948;13923,981;76,40070
 980,54;10633,119;  248,794;13784,212;76,71965
 981,09;10538,427;  245,640;13719,365;76,39154
 981,64;10488,658;  242,640;13610,365;76,64743
 982,19;10490,273;  271,102;13503,827;77,22651
 982,74;10338,119;  241,563;13377,981;76,85928
 983,29;10178,427;  220,948;13220,519;76,59852
 983,84;10274,735;  229,179;13114,904;77,95879
 984,39;10288,735;  325,410;13130,442;77,80788
 984,94;10106,812;  203,102;12941,673;77,74584
 985,49;10058,196;  262,948;12824,981;77,97502
 986,03;10045,965;  244,948;12732,442;78,48666
 986,58; 9941,888;  284,640;12591,904;78,46787
 987,13; 9822,658;  227,563;12498,288;78,19501
 987,68; 9760,735;  245,025;12396,365;78,30996
 988,23; 9750,658;  239,102;12288,981;78,93487
 988,78; 9642,658;  220,487;12097,058;79,33410
 989,33; 9622,658;  253,948;12040,596;79,48578
 989,88; 9607,350;  271,025;12016,519;79,48857
 990,42; 9457,042;  224,256;11778,135;79,91071
 990,97; 9411,735;  223,102;11706,981;80,01332
 991,52; 9370,504;  258,948;11632,058;80,11490
 992,07; 9297,812;  270,025;11520,442;80,24401
 992,62; 9196,812;  238,410;11359,673;80,55202
 993,17; 9131,735;  239,563;11261,827;80,67464
 993,71; 9068,504;  253,794;11131,750;81,03278
 994,26; 8995,888;  222,717;11031,442;81,16749
 994,81; 8984,581;  258,179;10961,058;81,53322
 995,36; 8817,273;  232,717;10804,288;81,20416
 995,91; 8799,350;  241,871;10706,904;81,77212
 996,45; 8707,658;  241,179;10601,673;81,71887
 997,00; 8634,658;  215,487;10453,596;82,23365
 997,55; 8580,658;  250,333;10425,288;81,87087
 998,10; 8487,658;  265,333;10286,750;82,04753
 998,65; 8420,119;  233,794;10223,750;81,94556
 999,19; 8329,965;  248,256;10122,981;81,84238
 999,74; 8245,196;  266,025;10010,827;81,88131
1000,29; 8186,581;  246,256; 9896,442;82,28157
1000,84; 8063,196;  235,025; 9747,519;82,29357
1001,38; 7999,427;  253,948; 9658,519;82,35866
1001,93; 7985,427;  251,717; 9600,596;82,72339
1002,48; 7833,273;  214,179; 9385,365;83,07643
1003,03; 7813,812;  252,333; 9390,519;82,74595
1003,57; 7687,888;  253,717; 9279,673;82,36436
1004,12; 7638,273;  284,487; 9162,288;82,83342
1004,67; 7549,965;  228,948; 9069,904;82,80798
1005,22; 7455,350;  229,948; 8908,212;83,25861
1005,76; 7373,119;  221,717; 8775,904;83,60119
1006,31; 7350,888;  239,794; 8757,135;83,48961
1006,86; 7236,196;  230,256; 8563,212;84,07509
1007,40; 7098,581;  218,102; 8430,827;83,77827
1007,95; 7041,273;  243,410; 8365,596;83,69499
1008,50; 6940,119;  234,179; 8197,827;84,20689
1009,04; 6902,888;  225,025; 8126,058;84,51887
1009,59; 6769,427;  237,487; 7965,288;84,52520
1010,14; 6721,965;  220,102; 7876,442;84,92130
1010,68; 6648,504;  242,102; 7739,827;85,44461
1011,23; 6559,273;  243,256; 7677,981;84,95294
1011,78; 6539,042;  253,871; 7525,596;86,43301
1012,32; 6497,196;  271,948; 7462,827;86,57145
1012,87; 6434,888;  268,563; 7386,673;86,62869
1013,42; 6295,273;  219,256; 7261,058;86,28498
1013,96; 6367,581;  265,410; 7279,212;87,00233
1014,51; 6237,581;  201,410; 7170,750;86,61037
1015,06; 6226,504;  220,025; 7161,981;86,52430
1015,60; 6319,812;  277,794; 7212,442;87,12796
1016,15; 6260,812;  217,333; 7164,596;86,99078
1016,69; 6347,965;  233,025; 7178,750;88,03891
1017,24; 6267,735;  210,794; 7181,904;86,88632
1017,79; 6376,504;  269,333; 7245,288;87,54601
1018,33; 6375,196;  231,102; 7272,135;87,26127
1018,88; 6430,658;  248,563; 7366,673;86,85023
1019,42; 6414,658;  229,410; 7292,904;87,56641
1019,97; 6420,812;  218,640; 7299,519;87,59041
1020,51; 6490,812;  280,640; 7441,981;86,71800
1021,06; 6451,965;  213,487; 7343,365;87,49768
1021,61; 6390,427;  200,333; 7303,827;87,14154
1022,15; 6362,581;  186,487; 7269,673;87,19373
1022,70; 6375,581;  236,102; 7266,212;87,33120
1023,24; 6308,735;  217,563; 7238,519;86,75701
1023,79; 6265,965;  224,333; 7180,365;86,85458
1024,33; 6313,735;  218,102; 7083,750;88,78452
1024,88; 6282,196;  242,640; 7045,442;88,78041
1025,42; 6139,273;  249,794; 6925,135;88,22739
1025,97; 6089,427;  220,333; 6840,365;88,65657
1026,51; 5967,735;  186,333; 6693,288;88,84957
1027,06; 5983,350;  213,179; 6644,135;89,72494
1027,60; 5862,196;  238,794; 6497,827;89,84458
1028,15; 5809,965;  257,410; 6405,519;90,31322
1028,69; 5653,273;  191,871; 6264,904;89,92874
1029,24; 5620,350;  218,179; 6246,212;89,61748
1029,78; 5568,581;  209,025; 6111,288;90,80509
1030,33; 5450,273;  195,256; 6015,673;90,28592
1030,87; 5451,658;  212,333; 5917,365;91,83690
1031,42; 5328,581;  200,487; 5828,365;91,11949
1031,96; 5307,273;  233,794; 5783,365;91,42110
1032,51; 5219,965;  218,794; 5651,442;92,05771
1033,05; 5196,196;  220,025; 5613,519;92,26247
1033,60; 5062,350;  185,025; 5496,442;91,82719
1034,14; 5006,812;  215,333; 5412,596;92,19234
1034,69; 4933,735;  219,333; 5370,827;91,51523
1035,23; 4909,965;  213,179; 5260,212;93,06035
1035,77; 4933,350;  228,256; 5248,365;93,72493
1036,32; 4784,427;  189,179; 5121,981;93,15696
1036,86; 4756,196;  228,563; 5079,058;93,34374
1037,41; 4687,735;  217,410; 5010,442;93,26715
1037,95; 4613,658;  199,256; 4891,673;94,07522
1038,50; 4544,427;  211,794; 4864,904;93,11263
1039,04; 4547,273;  237,333; 4830,519;93,83334
1039,58; 4476,735;  188,102; 4698,519;95,08284
1040,13; 4451,427;  208,256; 4668,519;95,13275
1040,67; 4436,812;  249,717; 4628,750;95,61688
1041,21; 4329,658;  249,179; 4547,750;94,92640
1041,76; 4261,504;  199,256; 4455,442;95,44337
1042,30; 4219,427;  215,333; 4408,596;95,48873
1042,85; 4148,042;  211,179; 4337,596;95,40633
1043,39; 4099,658;  199,102; 4251,827;96,24526
1043,93; 4082,350;  235,871; 4235,827;96,16303
1044,48; 4050,735;  218,563; 4140,673;97,70689
1045,02; 3975,581;  216,871; 4101,596;96,75613
1045,56; 3983,196;  252,871; 4063,519;97,89214
1046,11; 3902,350;  223,410; 3975,750;98,04389
1046,65; 3832,119;  225,256; 3947,135;96,90975
1047,19; 3789,119;  209,948; 3840,365;98,58842
1047,74; 3731,581;  193,179; 3786,058;98,48375
1048,28; 3696,812;  221,794; 3747,288;98,56823
1048,82; 3714,812;  251,948; 3728,519;99,60571
1049,37; 3618,965;  240,640; 3685,596;98,06585
1049,91; 3593,042;  230,179; 3639,519;98,63678
1050,45; 3517,273;  230,410; 3582,442;98,05583
1050,99; 3492,119;  235,102; 3521,442;99,10773
1051,54; 3407,504;  219,256; 3462,827;98,29438
1052,08; 3415,119;  247,333; 3419,904;99,84919
1052,62; 3372,581;  243,871; 3371,904;100,02164
1053,16; 3312,427;  215,179; 3308,904;100,11388
1053,71; 3254,350;  228,025; 3285,519;98,98056
1054,25; 3184,273;  237,410; 3249,058;97,84887
1054,79; 3152,042;  241,025; 3195,981;98,51306
1055,33; 3076,581;  197,640; 3123,442;98,39834
1055,88; 3095,196;  238,179; 3130,750;98,77086
1056,42; 3050,965;  242,717; 3047,519;100,12287
1056,96; 3016,965;  251,256; 3039,596;99,18838
1057,50; 3010,196;  232,487; 2967,827;101,54896
1058,05; 2914,504;  229,871; 2925,365;99,59705
1058,59; 2928,350;  255,563; 2899,365;101,09632
1059,13; 2851,735;  212,256; 2818,365;101,28042
1059,67; 2815,965;  240,487; 2779,673;101,42929
1060,21; 2774,042;  225,871; 2747,981;101,03332
1060,76; 2749,658;  241,333; 2708,442;101,67059
1061,30; 2721,196;  263,871; 2704,288;100,69282
1061,84; 2663,273;  238,333; 2628,981;101,43444
1062,38; 2579,042;  220,410; 2586,212;99,69696
1062,92; 2625,427;  269,487; 2601,058;101,04518
1063,46; 2562,427;  241,487; 2509,442;102,33623
1064,01; 2522,735;  214,102; 2458,519;102,86112
1064,55; 2508,581;  254,102; 2459,212;102,23886
1065,09; 2455,658;  204,487; 2400,058;102,53237
1065,63; 2496,427;  262,948; 2402,827;104,37408
1066,17; 2446,273;  278,102; 2389,135;102,70666
1066,71; 2393,735;  244,563; 2352,596;101,95151
1067,25; 2365,735;  236,179; 2311,135;102,63138
1067,80; 2317,965;  243,794; 2286,442;101,54325
1068,34; 2334,119;  253,794; 2279,058;102,71873
1068,88; 2247,427;  236,487; 2208,596;101,96900
1069,42; 2255,427;  251,487; 2208,442;102,40090
1069,96; 2224,427;  230,948; 2160,288;103,32437
1070,50; 2223,350;  271,179; 2161,442;103,27508
1071,04; 2141,196;  222,948; 2100,981;102,14136
1071,58; 2150,196;  242,871; 2067,519;104,53112
1072,12; 2119,042;  237,179; 2066,442;102,87547
1072,66; 2098,504;  231,948; 2023,135;104,20778
1073,21; 2088,735;  245,179; 2028,442;103,38101
1073,75; 2047,812;  248,717; 1996,365;102,94374
1074,29; 2005,350;  238,563; 1960,519;102,60348
1074,83; 2006,965;  259,871; 1945,519;103,64525
1075,37; 1980,350;  263,717; 1953,212;101,60631
1075,91; 1982,735;  243,794; 1911,827;104,25098
1076,45; 1935,119;  244,717; 1886,750;102,94569
1076,99; 1926,581;  260,640; 1879,212;102,92661
1077,53; 1893,812;  240,640; 1820,750;104,62383
1078,07; 1877,350;  255,179; 1817,750;103,81423
1078,61; 1844,658;  240,948; 1778,058;104,33281
1079,15; 1829,119;  241,179; 1754,288;104,94550
1079,69; 1783,658;  242,871; 1741,904;102,78539
1080,23; 1810,350;  256,102; 1731,827;105,32098
1080,77; 1836,427;  298,256; 1769,750;104,53124
1081,31; 1750,042;  241,794; 1663,981;106,05135
1081,85; 1760,427;  268,948; 1681,212;105,60911
1082,39; 1732,042;  225,256; 1628,212;107,40086
1082,93; 1723,735;  256,640; 1642,365;105,87196
1083,47; 1648,812;  229,102; 1566,904;106,12256
1084,01; 1671,042;  252,717; 1585,904;106,38609
1084,55; 1652,042;  240,794; 1557,673;107,16613
1085,09; 1640,812;  250,410; 1563,981;105,84900
1085,63; 1605,350;  240,102; 1546,519;104,50321
1086,17; 1582,350;  229,025; 1493,981;106,98595
1086,71; 1554,504;  226,948; 1467,365;107,02493
1087,24; 1592,504;  266,025; 1506,212;106,95801
1087,78; 1574,888;  260,871; 1493,135;106,63445
1088,32; 1525,196;  231,410; 1426,442;108,26369
1088,86; 1538,196;  257,487; 1442,442;108,08079
1089,40; 1501,042;  257,102; 1424,442;106,56192
1089,94; 1461,119;  226,102; 1378,212;107,19616
1090,48; 1458,658;  243,333; 1378,673;107,04499
1091,02; 1467,735;  258,179; 1388,596;107,00082
1091,56; 1424,888;  244,563; 1350,904;106,68733
1092,10; 1397,504;  223,102; 1296,212;109,43914
1092,63; 1434,350;  262,256; 1345,750;108,17725
1093,17; 1385,735;  255,794; 1312,365;106,94409
1093,71; 1350,042;  231,410; 1282,135;106,46294
1094,25; 1353,581;  272,640; 1299,673;105,24888
1094,79; 1330,273;  238,640; 1255,135;107,39192
1095,33; 1335,735;  239,333; 1272,288;106,14219
1095,87; 1307,735;  246,025; 1246,135;106,15932
1096,40; 1294,735;  211,487; 1192,981;110,36724
1096,94; 1276,581;  244,487; 1190,904;109,05276
1097,48; 1273,965;  260,717; 1205,827;107,20958
1098,02; 1244,273;  235,410; 1177,365;107,10306
1098,56; 1208,581;  215,563; 1127,058;108,94389
1099,10; 1196,658;  221,563; 1134,135;106,85131
1099,63; 1189,581;  221,794; 1115,135;108,33346
1100,17; 1191,273;  246,717; 1133,673;106,49412
1100,71; 1215,196;  276,333; 1126,981;110,37037

