
Integration time [ms]: 160,000
Averaging Nr. [scans]: 13
Smoothing Nr. [pixels]: 0
Data measured with spectrometer [name]: 2009305U1
Wave   ;Sample   ;Dark     ;Reference;Reflectance
[nm]   ;[counts] ;[counts] ;[counts] ;[%]

 175,72;  225,192;  211,481;  218,198;204,11661
 176,32;  237,862;  242,342;  237,064; 0,00000
 176,92;  282,562;  274,024;  286,893;66,34907
 177,52;  278,879;  269,099;  274,399;184,52688
 178,12;  260,006;  242,726;  241,865; 0,00000
 178,72;  278,884;  285,192;  276,001; 0,00000
 179,32;  282,304;  271,804;  258,781; 0,00000
 179,92;  264,836;  271,952;  251,920; 0,00000
 180,52;  260,218;  247,166;  277,718;42,72061
 181,12;  281,544;  273,258;  268,649; 0,00000
 181,73;  289,353;  303,642;  290,175; 0,00000
 182,33;  400,850;  400,787;  408,394; 0,82230
 182,93;  291,953;  285,176;  293,730;79,21891
 183,53;  251,946;  256,655;  235,234; 0,00000
 184,13;  251,824;  258,269;  234,768; 0,00000
 184,73;  309,455;  310,349;  296,521; 0,00000
 185,33;  290,981;  248,820;  394,412;28,95831
 185,93;  305,314;  245,368;  398,196;39,22455
 186,53;  313,595;  265,978;  408,744;33,35344
 187,13;  339,890;  290,044;  447,866;31,58376
 187,73;  314,665;  264,675;  415,930;33,05010
 188,33;  307,534;  245,219;  387,713;43,73177
 188,93;  327,775;  270,930;  405,484;42,24721
 189,53;  308,991;  269,175;  424,072;25,70449
 190,13;  359,987;  303,044;  440,384;41,46105
 190,73;  285,680;  239,106;  383,350;32,28866
 191,34;  330,805;  276,781;  434,912;34,16376
 191,94;  290,992;  252,456;  418,799;23,16688
 192,54;  326,023;  270,574;  439,983;32,73071
 193,14;  334,392;  271,430;  434,086;38,70922
 193,74;  318,534;  277,278;  439,295;25,46417
 194,34;  318,856;  276,273;  426,370;28,37025
 194,94;  286,312;  229,891;  407,340;31,79570
 195,54;  261,027;  215,357;  369,546;29,61945
 196,14;  287,433;  234,578;  405,012;31,01200
 196,74;  282,410;  242,129;  389,416;27,34853
 197,34;  261,466;  211,648;  390,907;27,79092
 197,94;  300,395;  241,044;  415,716;33,97874
 198,54;  310,336;  255,194;  430,267;31,49667
 199,14;  291,661;  222,722;  427,949;33,59193
 199,74;  271,741;  211,106;  431,925;27,45933
 200,34;  269,226;  201,105;  426,377;30,23947
 200,94;  308,631;  249,189;  481,453;25,59258
 201,54;  284,689;  222,339;  476,646;24,51769
 202,14;  338,562;  267,948;  536,358;26,30826
 202,74;  301,213;  230,799;  536,970;22,99838
 203,34;  285,118;  198,866;  546,256;24,82851
 203,94;  266,732;  181,101;  534,318;24,24322
 204,54;  332,890;  260,735;  653,213;18,38437
 205,14;  282,564;  215,491;  657,051;15,19013
 205,74;  354,957;  257,251;  756,379;19,57539
 206,34;  321,615;  225,486;  763,868;17,85518
 206,94;  340,590;  234,411;  851,748;17,19944
 207,54;  322,010;  197,564;  867,836;18,56655
 208,14;  336,244;  203,255;  963,005;17,50429
 208,74;  345,575;  220,107; 1048,173;15,15192
 209,34;  366,403;  220,336; 1146,059;15,77872
 209,94;  382,300;  228,106; 1279,593;14,66439
 210,54;  397,828;  212,945; 1358,793;16,13502
 211,14;  414,986;  222,029; 1514,178;14,93299
 211,73;  422,348;  224,494; 1640,996;13,96785
 212,33;  443,089;  246,343; 1758,938;13,00722
 212,93;  447,414;  221,030; 1894,450;13,52823
 213,53;  437,270;  196,107; 1929,919;13,90945
 214,13;  483,580;  220,170; 2031,963;14,53867
 214,73;  454,562;  189,409; 2041,666;14,31511
 215,33;  446,608;  185,183; 2081,131;13,78861
 215,93;  503,295;  212,405; 2230,476;14,41426
 216,53;  467,465;  181,492; 2297,215;13,51654
 217,13;  555,042;  224,715; 2533,410;14,30797
 217,73;  570,687;  212,713; 2767,506;14,01185
 218,33;  557,486;  155,092; 2966,387;14,31348
 218,93;  634,199;  208,312; 3334,968;13,62118
 219,53;  690,259;  213,092; 3666,979;13,81536
 220,13;  708,411;  173,551; 4026,440;13,88206
 220,73;  809,999;  189,106; 4398,392;14,75056
 221,32;  900,113;  187,184; 4901,481;15,12271
 221,92;  990,458;  213,705; 5372,536;15,05677
 222,52; 1054,445;  184,943; 5861,538;15,31732
 223,12; 1160,763;  189,173; 6366,852;15,72742
 223,72; 1230,766;  196,865; 6820,752;15,60867
 224,32; 1355,431;  206,941; 7315,632;16,15614
 224,92; 1398,930;  189,634; 7653,451;16,20211
 225,52; 1528,362;  211,103; 8058,109;16,78677
 226,12; 1596,711;  198,099; 8394,150;17,06446
 226,72; 1668,564;  172,716; 8818,142;17,30220
 227,31; 1750,832;  167,716; 9288,269;17,35768
 227,91; 1882,480;  207,181; 9795,790;17,47176
 228,51; 1998,109;  186,034;10198,182;18,09876
 229,11; 2080,190;  194,408;10644,726;18,04521
 229,71; 2200,371;  187,031;11067,447;18,50426
 230,31; 2316,082;  182,016;11517,374;18,82663
 230,91; 2411,422;  165,576;11911,197;19,12071
 231,51; 2552,493;  185,174;12242,326;19,63414
 232,10; 2660,603;  184,861;12643,414;19,87183
 232,70; 2782,010;  189,504;12859,370;20,46198
 233,30; 2885,824;  218,944;13193,393;20,55486
 233,90; 2929,092;  183,560;13313,674;20,91019
 234,50; 3033,011;  189,174;13436,659;21,46699
 235,10; 3097,391;  185,403;13455,913;21,94330
 235,70; 3183,995;  211,720;13468,454;22,42087
 236,29; 3195,010;  197,415;13436,168;22,64258
 236,89; 3184,876;  171,190;13193,436;23,14260
 237,49; 3223,999;  197,869;13088,252;23,47587
 238,09; 3198,077;  193,871;12729,099;23,96611
 238,69; 3198,052;  243,194;12505,680;24,09673
 239,29; 3120,753;  186,564;12046,908;24,73949
 239,89; 3052,531;  197,421;11575,386;25,09333
 240,48; 2938,421;  184,948;11134,687;25,14647
 241,08; 2857,857;  188,180;10682,952;25,43816
 241,68; 2824,103;  205,640;10272,873;26,00976
 242,28; 2712,450;  171,791; 9848,284;26,25599
 242,88; 2636,430;  233,708; 9478,401;25,99028
 243,48; 2540,688;  238,638; 9155,891;25,81568
 244,07; 2465,363;  198,566; 8855,609;26,18442
 244,67; 2437,481;  214,793; 8693,035;26,21638
 245,27; 2356,964;  209,494; 8466,303;26,00847
 245,87; 2312,952;  211,325; 8363,749;25,77917
 246,47; 2301,619;  203,032; 8352,176;25,75224
 247,06; 2265,579;  188,257; 8320,626;25,54388
 247,66; 2246,742;  188,793; 8410,748;25,02992
 248,26; 2277,615;  208,492; 8598,777;24,66094
 248,86; 2295,241;  217,262; 8812,360;24,17633
 249,46; 2290,028;  154,559; 9031,811;24,05552
 250,05; 2366,415;  213,487; 9546,119;23,06882
 250,65; 2394,102;  176,187; 9989,959;22,60002
 251,25; 2493,563;  188,796;10490,127;22,37349
 251,85; 2611,779;  188,190;11125,846;22,15821
 252,44; 2690,919;  155,645;11908,685;21,57122
 253,04; 2848,922;  203,875;12810,007;20,98223
 253,64; 2944,527;  153,034;13680,640;20,63553
 254,24; 3128,873;  220,718;14831,835;19,90372
 254,84; 3316,489;  188,867;15996,734;19,78523
 255,43; 3489,253;  185,953;17244,536;19,36445
 256,03; 3638,152;  203,726;18451,646;18,82092
 256,63; 3837,451;  201,036;19808,871;18,54572
 257,23; 4017,709;  181,113;20871,414;18,54297
 257,82; 4191,534;  205,733;22198,232;18,12346
 258,42; 4283,435;  151,813;23334,204;17,82224
 259,02; 4488,437;  220,798;24592,594;17,51056
 259,62; 4584,911;  179,814;25547,111;17,36526
 260,21; 4707,401;  196,953;26211,736;17,33802
 260,81; 4746,858;  186,715;26980,120;17,01965
 261,41; 4821,173;  176,580;27633,684;16,91582
 262,01; 4951,474;  227,047;28229,601;16,87141
 262,60; 4958,401;  177,805;28838,491;16,67998
 263,20; 5055,479;  187,494;29286,737;16,72891
 263,80; 5103,758;  201,432;29662,957;16,63976
 264,40; 5124,029;  170,123;29839,945;16,69678
 264,99; 5178,364;  199,048;30127,181;16,63758
 265,59; 5194,291;  189,670;30316,259;16,61197
 266,19; 5270,377;  176,970;30574,780;16,75583
 266,78; 5357,142;  233,205;30823,865;16,75000
 267,38; 5350,277;  208,823;30828,429;16,79138
 267,98; 5373,456;  196,743;30871,434;16,87617
 268,58; 5408,621;  195,438;30913,172;16,97125
 269,17; 5457,169;  177,367;31023,779;17,11642
 269,77; 5391,539;  199,577;30754,570;16,99219
 270,37; 5456,648;  175,971;30671,922;17,31599
 270,96; 5474,360;  228,656;30454,950;17,35477
 271,56; 5442,719;  194,806;30122,767;17,53515
 272,16; 5436,799;  187,735;29971,268;17,62405
 272,75; 5433,133;  186,427;29859,965;17,68143
 273,35; 5509,544;  192,425;29843,931;17,93204
 273,95; 5575,675;  187,196;29778,711;18,20954
 274,54; 5598,469;  167,718;29810,629;18,32057
 275,14; 5744,530;  216,886;30186,602;18,44410
 275,74; 5774,705;  167,427;30271,039;18,62660
 276,33; 5941,018;  224,654;30851,261;18,66470
 276,93; 6073,685;  201,793;31279,415;18,89428
 277,53; 6278,859;  199,569;31882,683;19,18779
 278,12; 6424,203;  183,727;32492,142;19,31533
 278,72; 6725,445;  251,954;33285,317;19,59683
 279,32; 6917,184;  181,955;33862,874;19,99717
 279,91; 7180,737;  168,956;34771,549;20,26374
 280,51; 7425,076;  184,107;35427,430;20,54565
 281,11; 7714,543;  189,033;36405,369;20,77932
 281,70; 7951,915;  173,342;36799,693;21,23764
 282,30; 8244,719;  178,575;37647,075;21,52780
 282,90; 8472,582;  188,114;38160,150;21,81729
 283,49; 8757,547;  202,271;38818,062;22,15486
 284,09; 9029,176;  225,496;39352,713;22,50014
 284,69; 9308,813;  222,493;39716,819;23,00665
 285,28; 9621,942;  212,727;40272,352;23,48803
 285,88; 9956,739;  271,043;40575,343;24,03142
 286,47;10106,271;  191,806;40555,943;24,56256
 287,07;10379,566;  223,647;40682,282;25,10198
 287,67;10704,149;  218,254;40858,814;25,80155
 288,26;10961,061;  186,493;40795,817;26,53225
 288,86;11345,313;  184,727;40802,177;27,47732
 289,46;11703,359;  202,494;40964,118;28,21493
 290,05;12129,021;  189,873;40945,997;29,29412
 290,65;12542,258;  188,038;41352,190;30,01208
 291,24;13012,539;  196,646;41512,007;31,01968
 291,84;13546,990;  209,575;41660,409;32,17647
 292,44;13983,624;  200,560;41800,490;33,13242
 293,03;14592,442;  285,723;41934,340;34,35100
 293,63;14915,388;  190,960;42113,662;35,12280
 294,22;15323,948;  227,110;42371,190;35,82197
 294,82;15736,169;  185,815;42256,231;36,96268
 295,41;15839,146;  169,726;41928,693;37,52348
 296,01;16159,803;  224,197;41937,898;38,20233
 296,61;16313,515;  227,570;41649,594;38,83428
 297,20;16278,217;  196,197;41109,418;39,30764
 297,80;16525,295;  214,718;40879,116;40,11021
 298,39;16405,471;  172,344;40404,615;40,34852
 298,99;16573,785;  222,349;40273,823;40,82605
 299,58;16559,478;  207,947;39970,212;41,12324
 300,18;16694,125;  223,719;39835,925;41,57912
 300,78;16551,294;  184,183;39324,178;41,81684
 301,37;16644,134;  202,741;39327,758;42,02271
 301,97;16668,242;  204,802;39294,553;42,11702
 302,56;16632,512;  195,345;39240,911;42,09740
 303,16;16751,968;  176,193;39095,766;42,58982
 303,75;16705,330;  188,105;39022,882;42,53204
 304,35;16979,663;  185,712;39371,209;42,85757
 304,94;16992,921;  184,802;39363,454;42,90122
 305,54;16985,729;  225,799;39364,788;42,82157
 306,13;16911,535;  165,865;39235,829;42,86073
 306,73;16856,948;  175,714;38959,642;43,01069
 307,33;16849,564;  203,792;38958,373;42,95175
 307,92;16878,635;  206,415;38898,444;43,08955
 308,52;17050,634;  177,116;39535,145;42,87186
 309,11;17393,830;  188,506;40084,403;43,12555
 309,71;17438,186;  183,047;40497,883;42,80097
 310,30;17602,532;  171,416;40684,285;43,02612
 310,90;17800,686;  237,031;41231,208;42,84427
 311,49;17857,773;  205,417;41350,330;42,90289
 312,09;17943,473;  162,180;41476,721;43,03882
 312,68;18163,809;  261,414;41986,611;42,90548
 313,28;18136,712;  173,108;42091,290;42,85397
 313,87;18180,526;  158,339;42363,178;42,70171
 314,47;18275,237;  185,889;42609,624;42,63969
 315,06;18321,197;  168,492;42638,934;42,74197
 315,66;18326,857;  179,950;42994,336;42,38507
 316,25;18215,496;  152,577;42865,028;42,28959
 316,85;18126,727;  155,334;42884,519;42,05882
 317,44;18194,954;  176,890;43146,152;41,93245
 318,04;18133,160;  170,806;43057,638;41,88315
 318,63;17991,276;  157,253;43115,078;41,51519
 319,22;18041,850;  187,730;43434,931;41,28387
 319,82;17960,591;  191,112;43397,964;41,12653
 320,41;17833,261;  204,345;43284,244;40,92144
 321,01;17816,864;  200,104;43511,944;40,67424
 321,60;17708,193;  193,881;43642,096;40,31077
 322,20;17518,007;  165,031;43518,037;40,02716
 322,79;17531,602;  206,800;43654,986;39,87463
 323,39;17453,957;  180,790;43572,225;39,80778
 323,98;17313,805;  175,338;43633,481;39,43672
 324,58;17197,038;  167,655;43447,351;39,34728
 325,17;16956,579;  185,269;43201,366;38,98845
 325,76;16860,944;  201,186;43122,636;38,81453
 326,36;16555,881;  169,874;42593,788;38,62446
 326,95;16376,450;  218,649;42178,563;38,50771
 327,55;16022,086;  176,497;41915,346;37,96365
 328,14;15755,171;  172,794;41348,251;37,84385
 328,74;15537,663;  209,038;40829,011;37,73667
 329,33;15247,530;  190,105;40315,939;37,52551
 329,92;14904,970;  166,890;39660,305;37,31782
 330,52;14478,525;  192,178;38900,769;36,90743
 331,11;14203,520;  178,881;38444,687;36,65058
 331,71;13834,045;  186,110;37666,472;36,41356
 332,30;13576,921;  198,878;37106,531;36,24734
 332,89;13311,002;  266,490;36426,984;36,07393
 333,49;12943,008;  198,649;35823,230;35,77406
 334,08;12617,912;  181,497;35198,217;35,51565
 334,68;12375,665;  188,497;34737,295;35,27523
 335,27;12159,314;  194,100;34311,321;35,07089
 335,86;12014,751;  250,573;33898,764;34,96229
 336,46;11730,992;  202,792;33572,761;34,54663
 337,05;11576,557;  181,419;33453,737;34,24810
 337,65;11449,762;  169,650;33172,347;34,17936
 338,24;11376,745;  230,645;33140,248;33,86884
 338,83;11237,404;  221,260;33125,328;33,47958
 339,43;11148,252;  174,269;32976,622;33,45486
 340,02;11055,777;  181,270;32831,100;33,30647
 340,61;11031,562;  191,954;32885,805;33,15488
 341,21;10936,893;  210,653;32927,934;32,78463
 341,80;10869,026;  189,497;32862,882;32,68571
 342,40;10855,030;  195,332;33024,003;32,47070
 342,99;10804,156;  179,490;33101,753;32,27198
 343,58;10832,915;  178,105;33248,554;32,21852
 344,18;10772,714;  214,950;33488,535;31,73016
 344,77;10883,948;  179,885;33746,098;31,88940
 345,36;10889,912;  175,803;34210,255;31,48018
 345,96;10952,647;  212,105;34584,196;31,24786
 346,55;10988,021;  169,789;34774,204;31,26258
 347,14;11063,013;  173,101;35169,313;31,11740
 347,74;11125,144;  156,013;35698,813;30,86175
 348,33;11351,185;  186,707;36480,186;30,76166
 348,92;11517,028;  191,394;37188,955;30,61184
 349,52;11626,648;  153,550;37759,932;30,50838
 350,11;11666,687;  169,963;38005,963;30,38568
 350,70;11712,963;  176,954;38194,188;30,34416
 351,29;11520,717;  171,897;37901,223;30,07957
 351,89;11453,733;  200,659;37840,505;29,89670
 352,48;11469,057;  150,339;37923,879;29,96467
 353,07;11376,126;  197,408;37836,555;29,69971
 353,67;11259,771;  202,394;37818,604;29,39524
 354,26;11150,418;  190,255;37412,595;29,44512
 354,85;11087,864;  189,026;37287,366;29,37823
 355,45;10944,571;  162,959;36975,643;29,28776
 356,04;10874,233;  183,638;36930,767;29,09233
 356,63;10778,744;  217,111;36670,003;28,97338
 357,22;10725,973;  183,048;36525,690;29,00979
 357,82;10580,664;  180,892;36305,305;28,78876
 358,41;10538,860;  217,263;36129,991;28,74078
 359,00;10404,425;  167,500;35840,289;28,69673
 359,60;10386,418;  185,799;35775,735;28,66153
 360,19;10347,958;  208,098;35547,956;28,69242
 360,78;10210,260;  189,189;35462,705;28,40962
 361,37;10137,417;  180,958;35141,143;28,47942
 361,97;10086,312;  185,572;35077,292;28,37562
 362,56; 9992,433;  190,040;34711,396;28,39516
 363,15; 9945,464;  253,882;34372,239;28,40577
 363,74; 9771,722;  191,735;33926,345;28,39810
 364,34; 9669,094;  203,115;33405,107;28,51028
 364,93; 9425,517;  183,348;32948,157;28,20761
 365,52; 9327,674;  156,650;32451,071;28,39817
 366,11; 9185,522;  182,961;32152,418;28,15988
 366,71; 9076,850;  178,730;31649,470;28,27426
 367,30; 8954,410;  191,650;31259,152;28,20555
 367,89; 8902,302;  220,873;30917,492;28,28139
 368,48; 8812,806;  204,427;30607,452;28,31422
 369,07; 8670,886;  191,415;30016,803;28,43038
 369,67; 8550,474;  220,118;29658,538;28,29756
 370,26; 8456,277;  172,569;29287,910;28,45135
 370,85; 8406,962;  192,188;29025,096;28,49096
 371,44; 8370,038;  197,110;28760,135;28,61366
 372,03; 8216,268;  166,654;28417,774;28,49308
 372,63; 8164,935;  162,188;28050,514;28,69569
 373,22; 8153,974;  174,724;27649,618;29,04197
 373,81; 8002,019;  178,188;27247,045;28,90344
 374,40; 7958,191;  186,102;26994,687;28,99104
 374,99; 7876,364;  189,651;26691,749;29,00417
 375,59; 7833,392;  158,256;26274,783;29,38804
 376,18; 7849,467;  198,343;26161,600;29,46905
 376,77; 7799,586;  208,187;25873,834;29,57806
 377,36; 7795,133;  212,958;25865,787;29,55688
 377,95; 7737,780;  209,499;25474,807;29,79691
 378,55; 7691,326;  176,643;25254,559;29,96534
 379,14; 7680,805;  206,958;25162,581;29,94855
 379,73; 7712,248;  187,729;25007,145;30,31706
 380,32; 7741,640;  193,495;25112,805;30,29035
 380,91; 7720,411;  168,272;24888,560;30,55037
 381,50; 7784,513;  195,732;24793,450;30,85157
 382,10; 7780,025;  184,725;24709,574;30,96981
 382,69; 7789,129;  160,343;24621,657;31,18715
 383,28; 7867,182;  208,654;24566,383;31,44188
 383,87; 7884,680;  175,424;24428,279;31,78701
 384,46; 7828,460;  173,661;24306,925;31,71887
 385,05; 7973,416;  212,886;24303,782;32,21354
 385,64; 7966,599;  189,576;24339,572;32,20300
 386,24; 8010,299;  167,661;24220,203;32,60628
 386,83; 8096,765;  207,432;24279,449;32,77388
 387,42; 8183,144;  206,730;24403,679;32,96455
 388,01; 8381,096;  193,284;24638,078;33,49512
 388,60; 8558,610;  192,737;24934,295;33,81304
 389,19; 8688,839;  178,599;25258,789;33,93212
 389,78; 8831,561;  182,443;25516,348;34,14048
 390,37; 9153,652;  255,049;26044,630;34,50465
 390,96; 9240,159;  187,662;26216,686;34,77847
 391,56; 9390,356;  191,601;26377,838;35,12820
 392,15; 9551,045;  174,826;26689,722;35,36208
 392,74; 9708,385;  154,150;26904,368;35,71647
 393,33; 9937,627;  193,679;27212,750;36,06322
 393,92;10162,398;  190,155;27681,721;36,27382
 394,51;10339,179;  164,218;27977,079;36,58365
 395,10;10599,831;  202,094;28227,249;37,10144
 395,69;10695,906;  206,168;28372,249;37,24245
 396,28;10831,202;  196,869;28554,213;37,50116
 396,87;10964,464;  205,421;28611,242;37,87619
 397,46;11092,646;  210,353;28729,041;38,15846
 398,06;11299,522;  225,287;29018,224;38,46164
 398,65;11385,831;  196,160;29080,013;38,74023
 399,24;11610,616;  217,088;29277,343;39,20657
 399,83;11662,632;  176,590;29253,316;39,50253
 400,42;11874,950;  224,626;29454,467;39,85764
 401,01;11992,698;  207,128;29571,044;40,13623
 401,60;12147,294;  217,799;29610,593;40,58646
 402,19;12239,918;  236,844;29605,829;40,86990
 402,78;12331,524;  226,835;29615,856;41,18779
 403,37;12310,052;  214,977;29390,074;41,45684
 403,96;12345,097;  227,976;29203,943;41,81783
 404,55;12431,559;  218,445;29138,663;42,23037
 405,14;12434,879;  211,599;28996,034;42,46490
 405,73;12428,662;  223,612;28785,954;42,73126
 406,32;12569,602;  237,134;28829,577;43,13191
 406,91;12503,624;  223,512;28451,200;43,50378
 407,50;12514,901;  238,163;28207,094;43,89420
 408,09;12494,671;  205,880;27879,689;44,40585
 408,68;12565,654;  230,129;27691,801;44,91906
 409,27;12577,120;  210,260;27477,721;45,35391
 409,86;12634,003;  208,898;27355,978;45,76958
 410,45;12658,251;  257,852;27271,554;45,90411
 411,04;12710,018;  244,189;27202,348;46,24140
 411,63;12625,318;  236,436;26878,885;46,50054
 412,22;12594,970;  252,227;26535,489;46,96047
 412,81;12520,143;  274,284;26290,545;47,07002
 413,40;12452,119;  262,336;25837,152;47,66323
 413,99;12396,611;  314,190;25452,504;48,06377
 414,58;12203,134;  235,339;25010,712;48,30521
 415,17;12165,761;  245,745;24729,214;48,68598
 415,76;12179,476;  231,536;24579,646;49,07132
 416,35;12148,881;  226,679;24283,150;49,55923
 416,94;12269,436;  260,762;24360,672;49,82871
 417,53;12515,884;  232,128;24573,694;50,46412
 418,12;12625,022;  243,123;24618,826;50,79607
 418,71;12993,553;  261,027;25197,185;51,06050
 419,30;13110,342;  230,429;25198,617;51,58529
 419,89;13273,547;  217,348;25463,049;51,71652
 420,48;13619,346;  256,643;25830,983;52,25043
 421,07;13735,798;  248,715;25884,029;52,61134
 421,66;13823,926;  215,550;25955,515;52,86866
 422,25;13871,559;  236,297;25951,341;53,02446
 422,84;14003,670;  261,754;25945,006;53,50536
 423,43;13895,384;  248,071;25663,928;53,69606
 424,02;13823,683;  265,221;25298,897;54,16089
 424,60;13609,909;  241,579;24734,056;54,58137
 425,19;13505,251;  256,131;24393,754;54,88991
 425,78;13479,659;  263,515;24327,975;54,91976
 426,37;13504,637;  258,967;24127,053;55,49532
 426,96;13532,024;  246,197;23974,029;55,99259
 427,55;13489,029;  250,336;23815,088;56,18007
 428,14;13362,153;  239,099;23559,774;56,27219
 428,73;13325,207;  238,727;23287,640;56,77699
 429,32;13401,363;  256,122;23272,549;57,11243
 429,91;13515,026;  277,187;23243,981;57,63903
 430,50;13462,513;  260,180;23069,501;57,88131
 431,08;13357,422;  264,480;22903,070;57,83462
 431,67;13358,458;  298,780;22792,481;58,05927
 432,26;13329,852;  316,158;22547,502;58,53760
 432,85;13173,934;  328,391;22187,710;58,76461
 433,44;13003,460;  329,612;21718,486;59,25439
 434,03;12842,004;  359,675;21306,430;59,59075
 434,62;12565,760;  302,227;20804,187;59,81640
 435,21;12455,184;  323,698;20490,492;60,15575
 435,79;12398,077;  317,373;20361,246;60,27131
 436,38;12402,327;  308,205;20228,135;60,71368
 436,97;12373,838;  310,434;20041,745;61,13838
 437,56;12276,195;  301,183;19805,014;61,39825
 438,15;12226,458;  279,881;19799,419;61,20318
 438,74;12350,799;  320,110;19760,262;61,88578
 439,33;12378,660;  281,189;19699,053;62,30073
 439,91;12461,591;  261,719;19851,305;62,27734
 440,50;12588,336;  314,333;19867,853;62,77132
 441,09;12636,862;  314,707;20012,283;62,55671
 441,68;12709,952;  285,387;20047,796;62,86969
 442,27;12785,547;  276,469;20008,998;63,39318
 442,86;12794,369;  251,675;20081,605;63,25133
 443,44;12899,365;  268,757;20002,114;64,00639
 444,03;12962,185;  343,520;20137,200;63,75098
 444,62;12904,780;  260,290;19968,456;64,15864
 445,21;12843,732;  284,677;19693,269;64,70874
 445,80;12800,778;  311,971;19650,624;64,57951
 446,39;12653,913;  367,974;19356,495;64,70193
 446,97;12484,737;  261,881;19073,511;64,97500
 447,56;12333,536;  266,485;18837,714;64,97713
 448,15;12253,791;  279,497;18571,175;65,46307
 448,74;12096,756;  291,880;18309,447;65,51870
 449,33;12059,849;  276,641;18160,537;65,88725
 449,91;11866,891;  276,473;17911,299;65,72459
 450,50;11752,578;  268,015;17637,654;66,11861
 451,09;11691,297;  285,090;17553,390;66,05286
 451,68;11638,865;  307,700;17358,424;66,45563
 452,26;11638,441;  311,232;17250,566;66,86927
 452,85;11548,710;  272,620;17151,501;66,80591
 453,44;11632,496;  288,679;17136,235;67,33212
 454,03;11578,271;  263,228;17099,659;67,20571
 454,61;11617,074;  262,294;17035,993;67,69396
 455,20;11774,920;  297,518;17301,084;67,49997
 455,79;11787,980;  303,298;17270,018;67,68946
 456,38;11860,634;  299,508;17334,704;67,86612
 456,97;11980,221;  281,973;17474,030;68,04449
 457,55;11987,554;  277,350;17483,395;68,05866
 458,14;11960,894;  317,283;17442,594;67,99066
 458,73;11955,132;  295,656;17325,922;68,46327
 459,31;12054,615;  316,722;17423,811;68,61420
 459,90;12144,788;  355,651;17490,156;68,80349
 460,49;12316,523;  402,039;17571,606;69,39304
 461,08;12332,605;  300,101;17691,511;69,18648
 461,66;12443,337;  301,800;17819,062;69,31185
 462,25;12536,933;  299,173;17869,693;69,64939
 462,84;12540,106;  321,254;17989,499;69,15713
 463,43;12527,184;  251,007;17879,081;69,63992
 464,01;12547,345;  296,233;17915,549;69,53228
 464,60;12611,156;  355,627;17826,061;70,15011
 465,19;12384,607;  282,845;17556,814;70,05780
 465,77;12391,029;  302,224;17580,033;69,96723
 466,36;12342,819;  326,315;17407,748;70,34834
 466,95;12054,073;  295,775;17026,046;70,28157
 467,53;11890,443;  314,525;16753,644;70,41690
 468,12;11628,181;  341,215;16387,586;70,33968
 468,71;11422,918;  307,998;16047,060;70,61996
 469,29;11206,859;  292,522;15741,525;70,64752
 469,88;10997,783;  304,978;15485,809;70,43623
 470,47;11114,002;  365,660;15586,201;70,61734
 471,06;11114,376;  324,429;15519,925;71,00753
 471,64;11186,983;  326,201;15704,611;70,62357
 472,23;11172,634;  295,565;15640,551;70,88354
 472,81;11356,519;  286,575;15786,318;71,42018
 473,40;11428,871;  296,719;15978,350;70,98848
 473,99;11679,834;  417,565;16199,915;71,35990
 474,57;11745,035;  316,181;16243,164;71,75781
 475,16;11880,360;  313,035;16521,341;71,36665
 475,75;12006,830;  331,635;16626,222;71,65076
 476,33;12055,190;  343,704;16768,516;71,30363
 476,92;12148,054;  333,871;16829,755;71,61898
 477,51;12158,671;  319,784;16902,322;71,39369
 478,09;12240,981;  327,553;16982,606;71,53041
 478,68;12203,936;  334,627;16808,872;72,04767
 479,27;12197,877;  351,788;16917,741;71,50865
 479,85;12217,890;  322,320;16913,123;71,69978
 480,44;12295,991;  309,393;17056,628;71,57360
 481,02;13332,372;  327,540;18513,781;71,50918
 481,61;15136,919;  360,389;21025,696;71,50404
 482,20;16230,472;  335,847;22425,425;71,95531
 482,78;17051,236;  368,240;23457,996;72,25280
 483,37;17514,279;  345,836;24077,235;72,34484
 483,95;17783,043;  386,219;24441,950;72,31883
 484,54;17969,802;  378,467;24717,477;72,27630
 485,13;17944,570;  335,441;24580,842;72,62874
 485,71;17675,000;  311,521;24299,731;72,38339
 486,30;17472,773;  374,213;24015,246;72,32577
 486,88;17080,253;  425,210;23631,682;71,76896
 487,47;16539,272;  376,670;22763,964;72,19542
 488,05;15810,701;  367,358;21754,751;72,20769
 488,64;14719,101;  368,042;20199,995;72,36332
 489,23;13140,101;  367,509;18030,057;72,31455
 489,81;11172,698;  370,045;15402,136;71,86394
 490,40;10596,533;  328,890;14590,975;71,99258
 490,98;10384,398;  321,809;14267,450;72,15580
 491,57;10277,465;  341,816;14131,813;72,04968
 492,15;10255,651;  324,423;14086,901;72,16163
 492,74;10144,540;  334,434;13926,221;72,17672
 493,32;10076,579;  346,425;13829,647;72,16490
 493,91;10008,889;  322,496;13679,484;72,51929
 494,50; 9906,774;  322,943;13664,540;71,83422
 495,08; 9871,263;  308,713;13605,891;71,91413
 495,67; 9889,927;  342,805;13563,727;72,21223
 496,25; 9771,347;  291,874;13466,176;71,95427
 496,84; 9742,743;  285,267;13420,976;71,99822
 497,42; 9701,028;  286,486;13343,746;72,10197
 498,01; 9691,331;  309,265;13274,048;72,36578
 498,59; 9572,298;  276,947;13162,195;72,13948
 499,18; 9553,481;  288,341;13136,494;72,11262
 499,76; 9432,832;  317,720;13043,589;71,62664
 500,35; 9312,468;  306,324;12773,862;72,23675
 500,93; 9209,423;  288,641;12779,560;71,41814
 501,52; 9209,121;  286,178;12588,629;72,52980
 502,10; 9114,869;  303,703;12636,336;71,44595
 502,69; 8945,873;  279,852;12413,289;71,42264
 503,27; 8780,456;  265,866;12229,110;71,17292
 503,86; 8704,242;  300,392;12150,983;70,91503
 504,44; 8595,781;  269,080;12010,806;70,91548
 505,03; 8345,648;  255,156;11632,165;71,11264
 505,61; 8278,211;  271,466;11502,732;71,28978
 506,19; 8149,390;  282,695;11342,775;71,12693
 506,78; 7944,217;  263,069;11183,407;70,33801
 507,36; 7791,327;  268,465;10923,259;70,60542
 507,95; 7659,255;  270,064;10747,971;70,52162
 508,53; 7581,866;  262,839;10596,711;70,82560
 509,12; 7435,363;  274,220;10401,645;70,71040
 509,70; 7329,134;  290,602;10229,006;70,82155
 510,29; 7177,141;  298,520;10023,243;70,73333
 510,87; 7006,749;  255,146; 9835,838;70,47093
 511,46; 6901,266;  255,144; 9684,786;70,48117
 512,04; 6714,029;  269,292; 9522,309;69,65011
 512,62; 6573,269;  276,836; 9324,609;69,59098
 513,21; 6483,284;  246,981; 9118,737;70,29390
 513,79; 6312,105;  256,657; 8968,660;69,50695
 514,38; 6211,014;  243,124; 8798,316;69,75753
 514,96; 6108,459;  295,586; 8726,279;68,94894
 515,54; 5940,882;  246,813; 8437,575;69,51819
 516,13; 5909,497;  272,966; 8373,229;69,58455
 516,71; 5751,048;  259,805; 8248,457;68,73804
 517,30; 5653,105;  252,953; 8153,958;68,34766
 517,88; 5588,156;  274,415; 8019,184;68,61070
 518,46; 5447,512;  240,028; 7865,909;68,28698
 519,05; 5437,395;  262,869; 7837,551;68,31345
 519,63; 5351,260;  263,795; 7737,088;68,07527
 520,22; 5260,652;  275,631; 7659,763;67,50992
 520,80; 5202,110;  245,706; 7557,517;67,78627
 521,38; 5224,064;  300,253; 7530,946;68,09598
 521,97; 5159,763;  256,394; 7503,851;67,65640
 522,55; 5075,625;  269,779; 7471,465;66,73225
 523,13; 5077,801;  255,390; 7455,608;66,97590
 523,72; 5047,562;  243,720; 7425,904;66,88553
 524,30; 5169,390;  287,924; 7581,887;66,92474
 524,89; 5121,836;  250,008; 7519,759;67,01505
 525,47; 5203,058;  257,230; 7685,089;66,58484
 526,05; 5231,308;  232,306; 7762,102;66,38961
 526,64; 5309,009;  276,611; 7877,186;66,21076
 527,22; 5386,881;  261,846; 8028,138;65,99076
 527,80; 5471,153;  307,842; 8103,564;66,23262
 528,39; 5519,830;  257,838; 8200,041;66,25355
 528,97; 5577,239;  245,532; 8394,916;65,42466
 529,55; 5690,225;  272,083; 8561,096;65,36535
 530,14; 5882,815;  280,143; 8783,866;65,88493
 530,72; 5907,781;  253,917; 8925,662;65,19868
 531,30; 6010,349;  234,373; 9110,697;65,07172
 531,89; 6048,617;  255,604; 9167,824;65,00079
 532,47; 6089,234;  282,601; 9262,492;64,66262
 533,05; 6137,534;  286,073; 9352,202;64,54200
 533,63; 6168,545;  284,215; 9400,892;64,54468
 534,22; 6188,297;  253,215; 9447,509;64,55180
 534,80; 6271,256;  278,746; 9529,227;64,78052
 535,38; 6342,021;  374,064; 9710,376;63,92200
 535,97; 6239,431;  257,139; 9608,265;63,97403
 536,55; 6297,349;  300,053; 9692,187;63,85446
 537,13; 6222,801;  299,373; 9615,767;63,58070
 537,71; 6285,574;  327,067; 9695,551;63,60162
 538,30; 6305,088;  324,443; 9796,845;63,13758
 538,88; 6383,089;  360,355; 9909,605;63,07023
 539,46; 6489,658;  409,054;10099,918;62,74573
 540,05; 6588,050;  397,358;10193,732;63,19371
 540,63; 6653,652;  432,434;10448,326;62,11347
 541,21; 6783,529;  442,738;10683,091;61,91965
 541,79; 6834,874;  456,430;10800,526;61,66265
 542,38; 6943,823;  488,820;10982,670;61,51225
 542,96; 7041,409;  479,655;11143,102;61,53501
 543,54; 7159,168;  505,739;11346,235;61,37569
 544,12; 7254,164;  471,352;11547,335;61,23891
 544,70; 7269,188;  454,654;11663,109;60,79815
 545,29; 7381,385;  463,589;11835,006;60,83495
 545,87; 7404,027;  469,661;11863,603;60,86012
 546,45; 7388,566;  436,744;11875,588;60,77381
 547,03; 7387,490;  419,048;11917,757;60,60195
 547,62; 7478,733;  386,968;12101,509;60,53814
 548,20; 7567,202;  418,579;12279,323;60,27129
 548,78; 7632,759;  381,564;12405,865;60,30450
 549,36; 7701,660;  363,720;12594,645;59,99497
 549,94; 7787,417;  321,581;12759,556;60,02453
 550,53; 7860,564;  347,876;13046,439;59,16172
 551,11; 7933,246;  310,639;13202,562;59,12700
 551,69; 8121,884;  332,489;13521,845;59,05819
 552,27; 8259,686;  281,033;13820,327;58,92961
 552,85; 8438,396;  294,562;14147,047;58,78970
 553,44; 8606,322;  301,105;14551,817;58,27931
 554,02; 8822,110;  319,180;14945,715;58,13359
 554,60; 9003,453;  251,792;15256,803;58,32492
 555,18; 9204,312;  297,412;15642,772;58,04295
 555,76; 9391,976;  282,103;16070,228;57,70079
 556,34; 9648,443;  288,325;16493,734;57,75922
 556,93; 9832,974;  279,258;16897,367;57,48979
 557,51;10006,871;  262,786;17261,814;57,32142
 558,09;10217,606;  297,643;17660,827;57,13217
 558,67;10417,634;  283,935;18064,453;56,99327
 559,25;10533,438;  293,553;18379,680;56,61735
 559,83;10681,749;  289,239;18741,441;56,32125
 560,41;10901,799;  252,173;19102,714;56,49507
 561,00;11075,290;  280,089;19507,787;56,14401
 561,58;11171,137;  272,173;19840,119;55,69805
 562,16;11373,691;  251,638;20092,333;56,05677
 562,74;11528,401;  233,410;20508,024;55,71002
 563,32;11765,592;  238,239;21016,156;55,47887
 563,90;11964,885;  271,012;21474,043;55,15189
 564,48;12159,462;  260,713;21907,540;54,96763
 565,06;12462,217;  266,782;22562,956;54,69743
 565,65;12857,839;  271,386;23334,054;54,57501
 566,23;13248,196;  305,473;24195,019;54,17735
 566,81;13643,820;  257,784;25032,319;54,03143
 567,39;14158,103;  266,084;26019,305;53,94284
 567,97;14517,629;  288,860;26788,384;53,69443
 568,55;14957,201;  315,624;27659,588;53,54592
 569,13;15294,009;  282,012;28440,792;53,31196
 569,71;15840,687;  265,485;29502,434;53,27233
 570,29;16507,950;  316,643;30731,185;53,23542
 570,87;16854,608;  296,025;31492,880;53,07773
 571,45;17126,012;  278,782;32273,499;52,65629
 572,03;17328,550;  244,390;32821,783;52,44177
 572,61;17649,101;  234,779;33581,636;52,22178
 573,20;18056,877;  267,093;34325,998;52,23240
 573,78;18364,766;  249,086;35037,977;52,07318
 574,36;18635,640;  271,011;35670,059;51,87888
 574,94;18780,613;  339,235;36070,492;51,61133
 575,52;18748,625;  250,610;36282,643;51,33769
 576,10;19064,720;  308,152;36963,834;51,16961
 576,68;19293,029;  273,313;37532,704;51,04677
 577,26;19617,840;  290,914;38402,890;50,71090
 577,84;19829,824;  293,087;38976,887;50,50366
 578,42;19953,287;  352,924;39291,417;50,33673
 579,00;19850,709;  270,393;39393,952;50,04738
 579,58;19925,944;  335,696;39679,751;49,79214
 580,16;19806,828;  278,154;39659,662;49,58844
 580,74;19765,109;  273,768;39791,234;49,32336
 581,32;19676,462;  286,387;39900,661;48,94719
 581,90;19537,420;  303,385;39909,788;48,56294
 582,48;19455,848;  283,308;39897,022;48,39875
 583,06;19418,084;  285,080;40076,268;48,08352
 583,64;19422,573;  273,465;40149,927;48,02108
 584,22;19196,864;  270,608;39925,227;47,72775
 584,80;18958,330;  279,693;39600,651;47,50301
 585,38;18625,186;  298,710;39153,421;47,16668
 585,96;18509,943;  258,238;39216,506;46,84937
 586,54;18427,915;  285,841;39070,183;46,77680
 587,12;18376,228;  259,382;39233,583;46,48420
 587,70;18307,377;  297,007;39368,693;46,09571
 588,28;18272,687;  274,844;39446,530;45,94605
 588,86;18245,659;  274,150;39449,217;45,87486
 589,44;18132,292;  261,217;39444,321;45,60914
 590,02;18133,772;  268,681;39733,089;45,26887
 590,59;18096,123;  241,610;39836,924;45,09249
 591,17;18024,233;  256,746;40021,272;44,68175
 591,75;18046,755;  250,752;40263,182;44,47619
 592,33;18119,232;  269,908;40397,974;44,48090
 592,91;18117,215;  226,364;40687,067;44,21785
 593,49;18143,787;  244,975;41020,424;43,89605
 594,07;18202,918;  268,436;41229,934;43,78375
 594,65;18101,102;  271,609;41226,449;43,53452
 595,23;18210,632;  263,451;41679,496;43,33388
 595,81;18187,400;  246,756;41820,572;43,15371
 596,39;18180,179;  243,832;41948,117;43,00840
 596,97;18169,175;  248,287;42077,886;42,84260
 597,55;17979,947;  242,837;42066,449;42,40932
 598,12;17867,478;  230,357;41993,116;42,23170
 598,70;17837,491;  237,978;42164,393;41,97715
 599,28;17877,628;  260,054;42337,087;41,86981
 599,86;17810,445;  233,670;42309,566;41,77398
 600,44;17616,985;  210,052;42490,235;41,17043
 601,02;17701,645;  268,734;42543,075;41,23757
 601,60;17544,625;  244,059;42515,595;40,92722
 602,18;17469,546;  215,511;42408,879;40,89276
 602,75;17324,888;  210,988;42590,385;40,38260
 603,33;17309,361;  237,670;42588,806;40,30988
 603,91;17168,155;  209,276;42485,132;40,11481
 604,49;17130,618;  245,669;42728,426;39,74542
 605,07;17056,675;  242,060;42636,052;39,66273
 605,65;16984,637;  238,436;42830,708;39,31746
 606,23;17026,144;  274,765;42935,861;39,26617
 606,80;16868,694;  285,219;42912,743;38,90321
 607,38;16793,420;  286,662;42991,091;38,65350
 607,96;16660,594;  300,526;42986,330;38,32672
 608,54;16636,212;  363,128;43156,066;38,02750
 609,12;16544,985;  340,295;43191,052;37,81658
 609,70;16458,977;  340,594;43202,306;37,60555
 610,27;16380,926;  345,835;43276,705;37,35096
 610,85;16332,546;  361,825;43401,480;37,10699
 611,43;16126,164;  353,747;43288,725;36,73559
 612,01;15881,659;  316,830;43065,015;36,41050
 612,59;15869,265;  325,517;43091,254;36,34626
 613,16;15734,828;  306,762;42987,023;36,14801
 613,74;15642,036;  306,593;42923,730;35,98422
 614,32;15442,296;  292,743;42904,712;35,55234
 614,90;15281,105;  283,212;42768,301;35,30155
 615,48;15070,121;  261,530;42346,424;35,18743
 616,05;14939,310;  245,840;42366,190;34,88449
 616,63;14827,345;  268,150;42115,264;34,79139
 617,21;14724,290;  265,835;42047,576;34,60472
 617,79;14607,643;  244,602;41977,402;34,41667
 618,36;14497,866;  268,445;41777,871;34,27998
 618,94;14146,231;  213,144;41495,536;33,75068
 619,52;14050,842;  245,995;41185,045;33,72049
 620,10;13863,393;  215,218;41131,081;33,35668
 620,67;13759,789;  230,919;41037,035;33,15403
 621,25;13619,835;  251,675;40899,928;32,88742
 621,83;13435,174;  240,913;40822,972;32,51255
 622,41;13465,204;  289,837;40782,992;32,53727
 622,98;13202,168;  246,766;40504,620;32,18105
 623,56;13128,091;  254,229;40502,351;31,98624
 624,14;12984,473;  241,365;40371,341;31,75459
 624,72;12850,402;  235,990;40270,150;31,50912
 625,29;12805,767;  230,536;40358,353;31,33794
 625,87;12731,222;  265,371;40282,813;31,15104
 626,45;12500,875;  222,461;40096,950;30,79266
 627,02;12441,252;  246,370;39970,025;30,69929
 627,60;12303,654;  222,207;39961,053;30,40211
 628,18;12226,678;  205,449;39980,206;30,22326
 628,76;12140,064;  211,458;39942,192;30,02362
 629,33;12098,734;  250,839;40010,486;29,79879
 629,91;12022,624;  224,834;39990,235;29,66848
 630,49;11974,902;  253,148;40173,239;29,36304
 631,06;11846,518;  242,688;40285,739;28,97839
 631,64;11899,155;  238,460;40251,522;29,14222
 632,22;11693,943;  211,772;40109,559;28,77897
 632,79;11722,850;  253,310;40497,330;28,49999
 633,37;11656,856;  217,061;40489,172;28,40625
 633,95;11619,427;  233,307;40600,433;28,20642
 634,52;11530,455;  223,606;40657,660;27,96368
 635,10;11466,032;  236,219;40636,225;27,79656
 635,68;11452,425;  240,079;40879,534;27,58980
 636,25;11390,588;  214,623;40865,833;27,49233
 636,83;11339,525;  202,227;41155,346;27,19524
 637,41;11338,285;  228,542;41104,902;27,17890
 637,98;11283,429;  258,235;41412,510;26,78991
 638,56;11229,098;  233,010;41362,044;26,73559
 639,13;11164,526;  218,228;41408,000;26,57528
 639,71;11192,003;  290,687;41663,075;26,34925
 640,29;10966,401;  189,687;41416,880;26,13982
 640,86;10924,364;  215,072;41597,874;25,87861
 641,44;10815,404;  223,302;41674,714;25,55305
 642,02;10809,443;  232,994;41648,400;25,53748
 642,59;10745,868;  214,532;41768,856;25,34354
 643,17;10632,984;  212,532;41708,157;25,11217
 643,74;10616,332;  205,762;41839,074;25,00538
 644,32;10561,217;  240,916;41693,607;24,89658
 644,89;10458,180;  233,762;41793,985;24,60145
 645,47;10409,374;  241,454;41750,364;24,49575
 646,05;10307,875;  236,530;41647,204;24,32065
 646,62;10179,145;  230,838;41632,352;24,02885
 647,20;10173,416;  233,145;41912,576;23,84934
 647,77;10051,455;  209,991;41661,262;23,74225
 648,35; 9954,418;  205,606;41558,564;23,57464
 648,92; 9907,843;  210,144;41568,558;23,44795
 649,50; 9791,190;  197,452;41435,244;23,26443
 650,08; 9720,768;  199,913;41342,700;23,14101
 650,65; 9671,654;  201,836;41655,540;22,84432
 651,23; 9822,232;  186,066;42456,149;22,79666
 651,80; 9975,041;  190,066;43651,758;22,51402
 652,38;10096,234;  205,912;44067,290;22,54905
 652,95;10079,351;  185,219;44492,438;22,33074
 653,53;10079,544;  218,450;44825,355;22,10666
 654,10;10133,200;  252,526;44913,503;22,12373
 654,68; 9948,085;  203,064;44812,497;21,84520
 655,25; 9962,202;  183,833;45006,568;21,81564
 655,83; 9867,165;  185,910;45010,100;21,59828
 656,40; 9888,589;  230,217;45074,863;21,53740
 656,98; 9731,013;  205,371;44870,934;21,32659
 657,55; 9680,976;  208,371;44806,620;21,23986
 658,13; 9468,016;  220,063;44368,691;20,94732
 658,70; 9381,748;  224,293;44015,300;20,91172
 659,28; 9099,710;  203,293;42999,756;20,78774
 659,85; 8839,365;  235,908;42135,903;20,53331
 660,43; 8778,559;  235,985;42116,820;20,39733
 661,00; 8729,599;  201,754;42242,045;20,28493
 661,58; 8751,331;  200,138;42595,193;20,17026
 662,15; 8703,832;  187,368;42820,879;19,97598
 662,73; 8784,564;  268,522;43137,796;19,86514
 663,30; 8733,219;  210,522;43324,944;19,76762
 663,88; 8741,182;  211,137;43483,476;19,71247
 664,45; 8736,990;  205,136;43745,778;19,59515
 665,03; 8734,492;  203,982;44151,541;19,41066
 665,60; 8912,993;  312,597;44532,842;19,44900
 666,17; 8811,263;  199,366;44733,375;19,33780
 666,75; 8813,688;  190,981;45084,753;19,20691
 667,32; 8855,881;  232,827;45466,286;19,06344
 667,90; 8849,152;  212,827;45814,818;18,93848
 668,47; 8829,345;  216,365;46034,812;18,79806
 669,05; 8814,462;  197,057;46393,652;18,65377
 669,62; 8830,886;  181,134;46427,800;18,70352
 670,19; 8773,233;  174,826;46592,409;18,52403
 670,77; 8760,658;  207,441;46742,326;18,38023
 671,34; 8752,697;  190,056;46687,474;18,41531
 671,92; 8714,968;  180,209;47078,391;18,19848
 672,49; 8676,469;  225,594;47184,615;17,99628
 673,06; 8622,047;  176,824;47107,994;17,99491
 673,64; 8572,625;  180,978;47107,526;17,88252
 674,21; 8512,665;  177,516;47029,135;17,79052
 674,79; 8570,089;  215,439;47384,514;17,71214
 675,36; 8526,667;  218,054;47427,277;17,59956
 675,93; 8425,707;  192,746;47219,425;17,50700
 676,51; 8438,516;  217,669;47490,726;17,39013
 677,08; 8417,248;  202,668;47441,028;17,38964
 677,65; 8375,903;  203,976;47746,253;17,18876
 678,23; 8371,173;  203,360;47852,708;17,14150
 678,80; 8356,213;  203,975;47992,471;17,05900
 679,38; 8338,945;  201,206;48148,696;16,97219
 679,95; 8395,831;  214,898;48439,228;16,96433
 680,52; 8363,101;  200,436;48748,607;16,81354
 681,10; 8467,756;  210,512;49157,370;16,86981
 681,67; 8427,257;  220,435;49519,441;16,64703
 682,24; 8393,912;  177,743;49480,742;16,66464
 682,82; 8489,875;  194,512;50159,044;16,60250
 683,39; 8571,223;  251,204;50406,269;16,58859
 683,96; 8527,724;  205,280;50721,878;16,47467
 684,54; 8508,840;  182,049;51152,949;16,33636
 685,11; 8642,880;  251,587;51550,635;16,35760
 685,68; 8635,458;  198,664;51875,936;16,32593
 686,25; 8601,882;  181,433;52115,315;16,21379
 686,83; 8641,768;  202,433;52100,847;16,26126
 687,40; 8673,423;  183,586;52541,457;16,21502
 687,97; 8764,924;  239,432;52955,143;16,17258
 688,55; 8721,733;  189,739;53129,521;16,11641
 689,12; 8722,465;  162,585;53432,054;16,06902
 689,69; 8707,505;  185,277;53480,201;15,99069
 690,26; 8728,006;  199,585;53416,503;16,02577
 690,84; 8696,738;  203,584;53664,574;15,88664
 691,41; 8767,932;  225,507;53752,798;15,95901
 691,98; 8795,971;  206,199;54093,331;15,94030
 692,56; 8722,934;  198,353;54188,786;15,78906
 693,13; 8792,820;  248,506;54337,780;15,79669
 693,70; 8751,937;  220,583;54451,851;15,73143
 694,27; 8705,745;  194,506;54675,076;15,62252
 694,84; 8723,862;  186,275;54652,223;15,67509
 695,42; 8810,979;  249,274;54733,140;15,71420
 695,99; 8826,634;  210,966;54942,288;15,74175
 696,56; 8750,750;  219,581;54864,744;15,61194
 697,13; 8802,636;  224,966;55168,276;15,61186
 697,71; 8774,676;  202,581;55269,501;15,56669
 698,28; 8822,715;  196,965;55665,648;15,55067
 698,85; 8786,755;  164,349;55652,873;15,53908
 699,42; 8854,564;  175,964;55837,175;15,59183
 699,99; 8862,988;  223,733;55935,707;15,50700
 700,57; 8806,489;  216,810;56009,085;15,39582
 701,14; 8863,683;  195,041;56150,541;15,49203
 701,71; 8923,030;  219,656;56429,842;15,48363
 702,28; 8901,608;  202,194;56409,529;15,47737
 702,85; 8890,802;  203,578;56510,523;15,42833
 703,43; 8952,303;  227,809;56596,978;15,47742
 704,00; 8960,727;  227,501;56979,357;15,38844
 704,57; 8968,536;  196,654;56899,427;15,46994
 705,14; 8995,961;  229,423;57299,114;15,36111
 705,71; 9021,693;  231,038;57249,569;15,41719
 706,28; 8977,194;  204,576;57169,871;15,39993
 706,86; 9048,772;  237,114;57404,249;15,41385
 707,43; 9080,658;  272,114;57388,089;15,42221
 708,00; 9034,621;  242,268;57321,698;15,40371
 708,57; 9012,276;  202,037;57222,846;15,45092
 709,14; 9064,392;  223,652;57421,071;15,45654
 709,71; 9051,124;  201,575;57612,603;15,41437
 710,28; 9133,933;  217,651;57759,136;15,49540
 710,86; 9146,127;  209,574;57813,745;15,51372
 711,43; 9158,089;  238,343;57849,277;15,48273
 712,00; 9154,283;  212,496;57968,963;15,48188
 712,57; 9228,015;  245,112;58123,650;15,52027
 713,14; 9242,054;  207,419;58235,182;15,56951
 713,71; 9273,710;  233,111;58138,637;15,61267
 714,28; 9282,903;  221,188;58170,324;15,63736
 714,85; 9262,404;  209,726;57925,241;15,68500
 715,42; 9263,905;  207,649;58101,234;15,64294
 716,00; 9398,176;  311,879;58248,382;15,68320
 716,57; 9382,292;  220,725;58306,761;15,77241
 717,14; 9330,871;  222,340;58310,908;15,68042
 717,71; 9392,910;  204,109;58327,210;15,80921
 718,28; 9478,181;  251,724;58485,589;15,84380
 718,85; 9409,682;  199,647;58430,429;15,81644
 719,42; 9511,183;  238,646;58705,422;15,85950
 719,99; 9486,684;  204,185;58397,109;15,95125
 720,56; 9559,109;  243,723;58726,256;15,92849
 721,13; 9559,302;  204,184;58891,173;15,94070
 721,70; 9549,496;  199,414;58717,244;15,97817
 722,27; 9570,997;  237,030;58728,084;15,95794
 722,84; 9679,498;  287,337;58954,847;16,00914
 723,41; 9658,461;  191,644;58861,226;16,13582
 723,98; 9723,347;  214,490;59115,527;16,14378
 724,55; 9765,156;  247,336;59227,291;16,13738
 725,12; 9767,734;  166,336;59275,669;16,24345
 725,69; 9808,850;  205,720;59482,432;16,20051
 726,27; 9894,121;  217,104;59381,580;16,35613
 726,84;10005,545;  219,181;59790,728;16,42792
 727,41;10076,354;  248,950;59758,260;16,51406
 727,98;10167,086;  237,642;60177,562;16,56566
 728,55;10244,279;  269,334;59999,633;16,69998
 729,12;10275,934;  211,488;60105,857;16,80366
 729,69;10300,974;  233,641;60246,159;16,77539
 730,26;10322,706;  231,333;60551,153;16,72978
 730,82;10369,361;  226,717;60242,839;16,89987
 731,39;10491,016;  221,179;60448,448;17,05181
 731,96;10575,056;  202,563;60680,673;17,15082
 732,53;10666,942;  225,255;60965,205;17,19081
 733,10;10779,212;  238,101;61138,430;17,30879
 733,67;10839,713;  233,716;61312,962;17,36432
 734,24;10819,753;  208,946;60974,879;17,46177
 734,81;10839,870;  250,715;61014,565;17,42673
 735,38;10938,140;  223,177;60774,713;17,69561
 735,95;10877,180;  216,253;60544,707;17,67147
 736,52;10983,604;  228,714;60737,239;17,77417
 737,09;10955,644;  239,099;60437,156;17,80214
 737,66;11072,299;  282,868;60610,843;17,88462
 738,23;11091,415;  226,637;60659,913;17,97814
 738,80;11358,224;  312,713;61133,138;18,16086
 739,37;11339,802;  249,636;61151,440;18,20991
 739,94;11368,534;  224,174;61236,049;18,26589
 740,51;11548,420;  378,405;61342,350;18,32233
 741,07;11507,998;  233,404;61234,037;18,48275
 741,64;11588,653;  253,635;61475,954;18,51452
 742,21;11625,077;  243,096;61487,255;18,58460
 742,78;11624,040;  201,865;61203,557;18,72436
 743,35;11703,465;  228,788;61644,551;18,68360
 743,92;11895,427;  267,711;61799,852;18,89698
 744,49;11969,390;  273,095;61586,154;19,07635
 745,06;11930,737;  233,018;61602,532;19,06112
 745,63;12049,931;  211,710;61548,911;19,30023
 746,19;12167,740;  224,556;61547,828;19,47578
 746,76;12198,010;  241,401;61671,976;19,46361
 747,33;12274,281;  224,324;61610,893;19,62963
 747,90;12361,551;  253,939;61811,579;19,66874
 748,47;12365,745;  237,324;61720,880;19,72628
 749,04;12480,938;  236,477;61735,720;19,90994
 749,61;12523,901;  272,862;61687,022;19,94823
 750,17;12619,479;  274,169;61712,247;20,09391
 750,74;12685,673;  242,246;61661,702;20,25975
 751,31;12655,943;  219,014;61678,234;20,23607
 751,88;12713,444;  204,783;61478,690;20,41434
 752,45;12836,253;  225,860;61681,915;20,51937
 753,02;12840,677;  259,091;61501,755;20,54383
 753,58;12916,179;  226,244;61449,902;20,72717
 754,15;12976,372;  227,013;61555,666;20,78858
 754,72;12925,181;  220,090;61234,506;20,82310
 755,29;13008,374;  200,628;61164,653;21,00870
 755,86;13154,030;  235,320;61458,032;21,10117
 756,42;13164,300;  259,089;61205,564;21,17466
 756,99;13155,878;  195,550;61184,327;21,25035
 757,56;13296,225;  210,550;61123,552;21,48257
 758,13;13304,957;  183,396;61024,930;21,56678
 758,70;13486,920;  209,472;61085,078;21,81079
 759,26;13529,652;  206,241;61143,457;21,86416
 759,83;13606,999;  216,010;61259,835;21,93668
 760,40;13576,116;  193,856;60955,598;22,02415
 760,97;13692,771;  196,240;61145,669;22,14382
 761,53;13669,042;  191,855;60667,125;22,28545
 762,10;13765,466;  170,163;60646,965;22,48020
 762,67;13825,736;  212,701;60721,805;22,49750
 763,24;13775,930;  176,854;60169,491;22,66791
 763,80;13901,816;  215,239;60354,408;22,75817
 764,37;13951,548;  202,315;60257,786;22,89422
 764,94;13952,741;  190,084;59855,396;23,06643
 765,50;14017,012;  200,546;59891,774;23,14656
 766,07;14187,897;  221,468;59820,076;23,43415
 766,64;14125,860;  200,853;59542,147;23,46597
 767,21;14179,900;  207,160;59496,371;23,56709
 767,77;14264,939;  225,160;59327,596;23,75499
 768,34;14391,748;  227,390;59309,821;23,97389
 768,91;14436,250;  238,082;59146,353;24,10216
 769,47;14530,751;  230,620;59197,885;24,25096
 770,04;14542,329;  234,159;59072,802;24,31764
 770,61;14578,907;  210,158;58792,181;24,52757
 771,18;14650,639;  218,696;58710,329;24,67352
 771,74;14792,832;  226,312;58958,399;24,80164
 772,31;14832,641;  232,927;58739,701;24,95389
 772,88;14758,835;  192,542;58311,310;25,06298
 773,44;14737,182;  208,618;58177,304;25,06278
 774,01;14895,453;  237,387;58317,606;25,23762
 774,58;14900,415;  210,310;57905,061;25,46177
 775,14;14957,532;  201,079;58134,440;25,47143
 775,71;15061,418;  196,848;57962,664;25,73247
 776,27;15197,919;  281,694;57820,658;25,92369
 776,84;15291,651;  325,770;57942,729;25,97478
 777,41;15239,229;  228,309;57712,800;26,11299
 777,97;15241,884;  219,924;57490,563;26,22978
 778,54;15328,078;  228,077;57455,018;26,38617
 779,11;15482,656;  258,308;57537,012;26,57942
 779,67;15528,696;  220,769;57381,006;26,78073
 780,24;15523,735;  234,307;57179,616;26,84932
 780,80;15595,621;  252,538;57198,686;26,94315
 781,37;15649,584;  246,768;57157,911;27,06467
 781,94;15700,854;  233,922;56900,982;27,29440
 782,50;15742,202;  228,767;56857,360;27,39505
 783,07;15796,241;  256,690;56928,047;27,42047
 783,63;15787,742;  231,151;56640,963;27,57781
 784,20;15821,859;  261,997;56608,727;27,61449
 784,77;15841,360;  238,151;56367,105;27,79886
 785,33;15915,785;  207,228;56149,484;28,07995
 785,90;15928,363;  231,535;56080,016;28,10610
 786,46;15982,633;  257,381;56036,087;28,19221
 787,03;16021,057;  221,457;55744,850;28,45575
 787,59;16083,482;  224,149;55683,152;28,59650
 788,16;16133,983;  245,457;55596,915;28,70480
 788,73;16155,946;  250,303;55503,139;28,78702
 789,29;16141,908;  225,764;55116,133;28,99624
 789,86;16182,794;  276,379;54994,127;29,06994
 790,42;16113,218;  246,686;54897,890;29,03236
 790,99;16130,412;  245,840;54468,269;29,29521
 791,55;16183,990;  231,378;54523,263;29,38305
 792,12;16295,030;  265,762;54447,795;29,58410
 792,68;16273,069;  244,993;54199,635;29,70658
 793,25;16313,724;  260,531;53951,014;29,89951
 793,81;16354,687;  337,223;53469,931;30,14615
 794,38;16321,496;  214,069;53287,771;30,34917
 794,94;16314,151;  226,684;53089,995;30,43220
 795,51;16384,960;  252,068;52963,912;30,60582
 796,07;16373,923;  244,453;52556,214;30,83335
 796,64;16506,962;  270,914;52788,977;30,91517
 797,20;16398,541;  242,375;52175,894;31,10932
 797,77;16412,042;  219,452;51855,349;31,35917
 798,33;16424,620;  250,451;51727,651;31,42006
 798,90;16448,890;  264,143;51666,260;31,48654
 799,46;16409,468;  222,220;51127,408;31,79882
 800,03;16420,354;  239,220;51086,556;31,82297
 800,59;16464,240;  256,527;50791,934;32,07199
 801,15;16459,741;  262,373;50645,082;32,14866
 801,72;16405,243;  239,296;50239,922;32,33149
 802,28;16464,513;  260,757;49976,916;32,59253
 802,85;16385,553;  249,449;49804,602;32,56191
 803,41;16441,515;  226,987;49520,442;32,89388
 803,98;16427,709;  232,987;49081,128;33,15320
 804,54;16333,056;  247,064;48817,584;33,11884
 805,11;16376,019;  265,909;48568,578;33,35242
 805,67;16458,597;  265,294;48496,802;33,57412
 806,23;16372,329;  254,678;48113,642;33,67739
 806,80;16375,369;  270,909;47901,790;33,81096
 807,36;16423,485;  261,062;47824,015;33,98112
 807,93;16479,294;  285,446;47622,701;34,20952
 808,49;16336,795;  229,138;47175,464;34,31079
 809,05;16329,758;  230,830;47043,073;34,39042
 809,62;16392,183;  264,907;46914,375;34,57119
 810,18;16433,761;  251,907;46860,907;34,71830
 810,74;16332,493;  220,445;46486,132;34,82505
 811,31;16410,378;  222,522;46325,049;35,11273
 811,87;16420,803;  258,598;46123,812;35,23848
 812,44;16459,689;  266,290;46084,806;35,34248
 813,00;16458,959;  203,598;45838,492;35,62046
 813,56;16543,845;  257,213;45856,178;35,71711
 814,13;16533,500;  245,905;45853,095;35,71278
 814,69;16616,078;  241,597;45567,474;36,12612
 815,25;16456,502;  216,135;45001,699;36,26251
 815,82;16516,619;  254,904;44987,308;36,35332
 816,38;16577,351;  289,904;44849,609;36,55196
 816,94;16453,929;  234,980;44529,142;36,61645
 817,51;16550,276;  219,672;44262,443;37,07897
 818,07;16443,547;  232,287;43942,591;37,08796
 818,63;16396,509;  239,595;43801,893;37,08922
 819,20;16485,011;  249,441;43702,271;37,36367
 819,76;16368,973;  223,440;43231,188;37,54099
 820,32;16391,013;  275,209;43110,413;37,62280
 820,89;16402,668;  252,824;42955,022;37,81970
 821,45;16309,785;  234,516;42550,862;37,98832
 822,01;16354,978;  255,285;42356,702;38,24026
 822,57;16320,710;  257,208;42212,927;38,28680
 823,14;16206,596;  214,054;41866,998;38,39475
 823,70;16198,020;  240,361;41616,761;38,56706
 824,26;16201,906;  213,438;41400,678;38,81898
 824,82;16186,946;  265,976;41279,672;38,81867
 825,39;16126,909;  232,437;40941,666;39,04390
 825,95;16233,025;  242,129;41110,583;39,12772
 826,51;16059,603;  250,667;40510,961;39,26682
 827,08;16211,335;  286,283;40593,032;39,50964
 827,64;16150,375;  261,359;40360,026;39,62480
 828,20;16151,722;  221,743;40133,635;39,91286
 828,76;16160,916;  269,820;40193,398;39,80379
 829,32;16123,648;  276,358;39973,469;39,92051
 829,89;16122,764;  224,743;39838,232;40,13285
 830,45;16211,881;  247,742;39738,226;40,42528
 831,01;16178,998;  241,204;39576,143;40,51816
 831,57;16167,114;  237,126;39425,522;40,64976
 832,14;16211,615;  230,203;39358,285;40,84384
 832,70;16117,886;  213,433;39137,432;40,86027
 833,26;16167,925;  198,125;39029,811;41,12569
 833,82;16246,273;  243,510;38898,420;41,39904
 834,38;16271,082;  228,048;38980,568;41,39869
 834,95;16318,968;  215,278;38781,562;41,75588
 835,51;16310,623;  191,663;38626,402;41,93852
 836,07;16428,816;  238,124;38760,319;42,02952
 836,63;16468,010;  248,354;38652,005;42,23467
 837,19;16446,511;  252,970;38504,614;42,33424
 837,75;16358,704;  207,277;38093,608;42,63128
 838,32;16439,667;  253,123;38318,448;42,52307
 838,88;16507,630;  251,122;38316,135;42,70722
 839,44;16526,285;  252,122;38216,667;42,86674
 840,00;16591,171;  255,045;38089,507;43,17790
 840,56;16465,749;  223,660;37756,116;43,27478
 841,12;16512,250;  225,967;37779,802;43,36783
 841,68;16472,828;  208,967;37553,950;43,55032
 842,25;16542,252;  228,198;37652,636;43,59198
 842,81;16492,292;  205,120;37343,015;43,85594
 843,37;16508,024;  199,428;37319,624;43,93456
 843,93;16565,141;  227,274;37173,772;44,22034
 844,49;16659,411;  250,889;37314,843;44,27084
 845,05;16612,066;  191,427;37014,375;44,59349
 845,61;16708,260;  244,196;37150,600;44,61032
 846,17;16623,299;  212,965;36982,901;44,62976
 846,73;16667,493;  242,580;36912,203;44,79161
 847,29;16702,840;  225,733;36677,735;45,20220
 847,86;16734,572;  223,810;36606,268;45,38111
 848,42;16743,920;  218,656;36341,108;45,74790
 848,98;16759,805;  240,425;36353,025;45,74409
 849,54;16797,691;  230,040;36393,711;45,81297
 850,10;16756,577;  244,193;36184,012;45,94454
 850,66;16754,001;  222,732;35997,929;46,20874
 851,22;16791,733;  199,654;35966,385;46,38970
 851,78;16861,696;  263,270;35914,994;46,55715
 852,34;16875,582;  243,577;35736,219;46,86043
 852,90;16772,775;  227,730;35670,059;46,68160
 853,46;16771,661;  215,961;35368,130;47,09724
 854,02;16813,316;  240,499;35407,893;47,12552
 854,58;16664,279;  225,114;35108,425;47,12616
 855,14;16637,934;  222,806;35070,804;47,10494
 855,70;16667,974;  196,575;34870,336;47,50393
 856,26;16765,475;  228,113;34736,253;47,92307
 856,82;16762,130;  227,728;34633,093;48,05763
 857,38;16779,631;  282,728;34582,010;48,09693
 857,94;16727,594;  221,036;34393,465;48,30373
 858,50;16758,480;  246,343;34317,767;48,46330
 859,06;16626,750;  217,420;34104,146;48,42407
 859,62;16770,790;  248,727;34009,909;48,93805
 860,18;16693,445;  227,573;33889,672;48,91517
 860,74;16657,485;  201,265;33764,435;49,03059
 861,30;16643,678;  208,803;33450,352;49,44076
 861,86;16755,641;  284,803;33550,961;49,51229
 862,42;16672,527;  227,033;33349,032;49,65127
 862,98;16732,028;  257,956;33354,564;49,77571
 863,54;16604,298;  220,648;33068,020;49,87812
 864,10;16730,261;  224,878;33158,475;50,11716
 864,66;16630,839;  205,263;32801,777;50,39059
 865,22;16617,186;  230,186;32700,694;50,46734
 865,78;16577,611;  228,031;32483,534;50,68772
 866,34;16578,727;  216,416;32380,682;50,87109
 866,90;16575,536;  232,569;32365,983;50,85973
 867,45;16510,268;  233,877;32121,823;51,04246
 868,01;16454,923;  236,030;31924,817;51,18180
 868,57;16453,732;  233,414;31850,042;51,30312
 869,13;16356,541;  213,799;31633,266;51,37815
 869,69;16391,042;  231,491;31572,799;51,55991
 870,25;16342,082;  195,337;31446,023;51,66845
 870,81;16319,506;  225,183;31277,940;51,82897
 871,37;16297,007;  232,028;31215,396;51,85033
 871,93;16253,662;  248,259;31081,851;51,90898
 872,49;16228,471;  278,105;30774,999;52,30161
 873,04;16110,665;  202,720;30672,762;52,20848
 873,60;16154,628;  219,412;30479,371;52,66106
 874,16;16188,667;  231,335;30434,058;52,83409
 874,72;16174,590;  233,565;30331,365;52,96409
 875,28;16190,513;  240,950;30233,750;53,17797
 875,84;16199,590;  239,488;30124,288;53,40542
 876,40;16214,821;  219,642;30089,135;53,55022
 876,95;16227,437;  244,181;30094,596;53,54450
 877,51;16308,129;  262,258;29995,904;53,96537
 878,07;16351,821;  278,796;30104,904;53,88911
 878,63;16432,052;  230,027;30106,135;54,23071
 879,19;16532,513;  242,335;30152,519;54,46365
 879,75;16552,206;  231,796;30113,365;54,61698
 880,30;16631,129;  232,027;30041,827;55,01245
 880,86;16736,206;  272,181;30242,365;54,93468
 881,42;16798,590;  212,488;30266,058;55,18846
 881,98;16879,360;  235,412;30321,673;55,32076
 882,54;16983,283;  228,335;30386,904;55,55618
 883,09;17174,821;  243,796;30518,673;55,92434
 883,65;17281,360;  210,642;30670,750;56,04287
 884,21;17374,052;  253,335;30906,904;55,85228
 884,77;17446,975;  213,335;30947,519;56,07320
 885,32;17523,206;  229,873;31118,288;55,98647
 885,88;17661,283;  259,104;31227,212;56,19387
 886,44;17800,667;  236,565;31341,212;56,46778
 887,00;17803,283;  263,104;31300,596;56,51287
 887,56;17980,437;  225,335;31517,904;56,73904
 888,11;18025,744;  223,950;31516,212;56,88881
 888,67;18221,360;  257,565;31685,904;57,15795
 889,23;18175,744;  227,488;31733,135;56,96838
 889,79;18129,052;  212,719;31565,750;57,14386
 890,34;18246,898;  244,335;31564,365;57,47939
 890,90;18389,283;  319,335;31753,981;57,48418
 891,46;18347,667;  228,796;31630,442;57,70039
 892,01;18396,590;  246,335;31583,519;57,91923
 892,57;18384,667;  271,027;31485,519;58,02959
 893,13;18292,360;  249,488;31315,212;58,07968
 893,69;18311,052;  212,796;31272,673;58,26892
 894,24;18321,513;  237,950;31211,365;58,38414
 894,80;18277,744;  238,565;31004,058;58,63446
 895,36;18182,129;  228,796;30898,288;58,53808
 895,91;18233,744;  237,642;30537,827;59,39271
 896,47;18188,513;  260,027;30529,827;59,22896
 897,03;18114,821;  237,027;30303,904;59,46010
 897,58;18043,129;  241,642;30312,750;59,19797
 898,14;17888,513;  245,258;29990,442;59,31466
 898,70;17825,283;  205,181;29772,596;59,59297
 899,25;17939,360;  237,950;29750,288;59,97969
 899,81;17863,513;  246,950;29594,673;60,02702
 900,37;17699,129;  206,719;29340,827;60,04100
 900,92;17735,206;  221,796;29260,827;60,30990
 901,48;17637,052;  222,258;29132,135;60,23822
 902,03;17569,513;  231,950;29017,981;60,22909
 902,59;17588,360;  227,335;28905,673;60,53707
 903,15;17536,821;  250,873;28718,212;60,72204
 903,70;17379,437;  224,181;28494,519;60,68288
 904,26;17217,590;  230,873;28338,058;60,43550
 904,82;17331,744;  221,335;28354,596;60,81915
 905,37;17220,590;  228,796;28208,288;60,72946
 905,93;17173,590;  213,488;28030,365;60,97055
 906,48;17226,898;  245,796;27939,365;61,31785
 907,04;17149,437;  252,104;27864,827;61,19401
 907,60;17058,513;  245,796;27555,904;61,56225
 908,15;17013,975;  224,104;27562,596;61,41477
 908,71;17016,052;  241,873;27514,058;61,50655
 909,26;16929,513;  232,181;27271,135;61,75288
 909,82;16994,206;  245,950;27185,212;62,17043
 910,37;16889,590;  277,181;27060,750;62,02463
 910,93;16817,437;  225,950;26855,442;62,30493
 911,48;16783,821;  214,104;26728,904;62,49233
 912,04;16736,437;  219,950;26546,981;62,73585
 912,60;16768,821;  238,104;26595,135;62,71844
 913,15;16769,283;  238,873;26404,827;63,17526
 913,71;16649,898;  216,950;26202,827;63,23800
 914,26;16705,206;  200,719;26087,288;63,75695
 914,82;16695,821;  238,565;26018,519;63,83741
 915,37;16680,129;  211,488;25997,904;63,86557
 915,93;16626,744;  273,258;25806,673;64,04739
 916,48;16528,513;  208,412;25663,750;64,11269
 917,04;16588,206;  239,488;25524,673;64,65730
 917,59;16579,975;  256,104;25455,135;64,77976
 918,15;16434,513;  193,950;25229,673;64,86956
 918,70;16469,206;  217,335;25166,904;65,13888
 919,26;16516,283;  230,488;25054,212;65,60577
 919,81;16384,667;  205,335;24844,288;65,66566
 920,37;16382,052;  223,796;24869,212;65,56293
 920,92;16358,513;  240,181;24722,135;65,83761
 921,48;16328,437;  214,950;24481,212;66,40284
 922,03;16359,975;  224,719;24464,288;66,56577
 922,59;16248,821;  233,873;24275,135;66,61442
 923,14;16172,437;  233,565;24151,519;66,63978
 923,69;16137,667;  247,950;24129,827;66,53463
 924,25;16127,667;  257,488;24016,519;66,79641
 924,80;16032,821;  225,796;23773,058;67,12893
 925,36;16000,744;  213,796;23715,750;67,17292
 925,91;15928,129;  220,950;23554,596;67,31558
 926,47;15906,898;  206,565;23505,519;67,38643
 927,02;16007,360;  308,565;23399,212;67,98768
 927,57;15781,975;  224,488;23133,981;67,90847
 928,13;15854,052;  210,642;23119,058;68,28674
 928,68;15753,360;  223,642;23056,904;68,01357
 929,24;15655,667;  198,719;22802,135;68,38324
 929,79;15588,052;  198,335;22770,904;68,17885
 930,34;15562,821;  214,873;22576,365;68,63562
 930,90;15476,283;  205,950;22459,750;68,61899
 931,45;15510,360;  222,642;22482,288;68,67907
 932,01;15398,975;  226,104;22355,827;68,56331
 932,56;15357,667;  236,719;22221,212;68,78006
 933,11;15336,744;  254,719;22291,750;68,43946
 933,67;15217,975;  219,258;21968,750;68,96123
 934,22;15287,821;  234,565;21936,596;69,36335
 934,77;15130,821;  246,719;21783,442;69,11034
 935,33;15097,283;  225,027;21639,212;69,45049
 935,88;15080,360;  237,950;21579,519;69,54695
 936,43;15047,360;  232,335;21484,750;69,70984
 936,99;14949,052;  232,950;21357,212;69,66446
 937,54;14756,667;  213,181;21167,135;69,40688
 938,09;14776,975;  234,488;21117,596;69,63756
 938,65;14712,898;  230,565;20960,904;69,86057
 939,20;14762,052;  191,796;20899,135;70,36276
 939,75;14706,360;  205,642;20820,904;70,33972
 940,31;14682,590;  202,027;20736,135;70,51957
 940,86;14646,821;  224,565;20640,904;70,64076
 941,41;14712,206;  322,488;20687,058;70,66055
 941,96;14568,821;  210,104;20382,596;71,17969
 942,52;14509,206;  224,412;20334,212;71,03399
 943,07;14462,513;  201,796;20198,981;71,31363
 943,62;14367,283;  208,565;20065,365;71,30412
 944,18;14364,052;  207,642;20067,750;71,28063
 944,73;14312,206;  233,027;19904,519;71,57148
 945,28;14249,052;  182,181;19787,288;71,75105
 945,83;14286,744;  202,642;19727,981;72,13243
 946,39;14277,129;  210,412;19667,519;72,29603
 946,94;14284,437;  247,950;19561,519;72,67681
 947,49;14105,513;  216,796;19444,904;72,23133
 948,04;14195,513;  266,565;19358,135;72,95863
 948,59;14110,283;  234,796;19262,673;72,92189
 949,15;14041,206;  201,104;19211,058;72,80450
 949,70;13992,975;  213,027;19100,981;72,95628
 950,25;13980,898;  233,027;19043,904;73,08469
 950,80;13912,975;  188,642;18873,827;73,45035
 951,36;13881,283;  179,335;18800,288;73,58349
 951,91;13934,206;  233,412;18795,442;73,81086
 952,46;13779,590;  207,412;18571,981;73,90415
 953,01;13852,821;  223,950;18566,827;74,30062
 953,56;13702,975;  189,565;18417,058;74,13751
 954,11;13741,052;  224,642;18398,288;74,37368
 954,67;13739,052;  213,796;18288,827;74,82840
 955,22;13599,129;  194,181;18158,981;74,61785
 955,77;13689,744;  236,873;18057,981;75,48841
 956,32;13550,898;  277,950;18018,904;74,81530
 956,87;13477,744;  201,642;17865,519;75,15962
 957,42;13482,744;  216,181;17850,981;75,22945
 957,98;13413,821;  211,719;17736,365;75,33448
 958,53;13397,590;  239,950;17642,212;75,60880
 959,08;13272,206;  209,873;17533,750;75,40075
 959,63;13230,975;  219,335;17419,365;75,64894
 960,18;13250,437;  223,027;17410,288;75,79689
 960,73;13197,898;  222,335;17321,904;75,88240
 961,28;13145,129;  186,719;17229,673;76,03382
 961,83;13150,437;  243,950;17205,596;76,09218
 962,39;13061,898;  200,335;17013,981;76,49479
 962,94;13029,052;  221,950;16965,827;76,48827
 963,49;12886,667;  226,104;16777,750;76,49126
 964,04;12918,898;  232,335;16730,135;76,89852
 964,59;12782,513;  195,181;16633,212;76,57446
 965,14;12880,206;  249,335;16582,827;77,33111
 965,69;12724,821;  217,027;16489,750;76,86356
 966,24;12659,975;  210,412;16394,135;76,92645
 966,79;12621,513;  239,488;16254,904;77,31317
 967,34;12475,437;  185,181;16132,519;77,06776
 967,89;12569,360;  210,335;16050,442;78,02362
 968,44;12436,206;  216,104;16013,750;77,35394
 968,99;12434,206;  236,027;15961,135;77,57135
 969,55;12439,052;  219,412;15833,904;78,25833
 970,10;12318,206;  232,642;15723,904;78,01536
 970,65;12249,590;  241,796;15646,827;77,94723
 971,20;12179,667;  216,258;15527,673;78,13392
 971,75;12078,283;  195,104;15326,981;78,53077
 972,30;12051,206;  220,719;15239,596;78,77078
 972,85;12005,590;  203,796;15149,519;78,96436
 973,40;11860,052;  208,719;15022,288;78,65311
 973,95;11819,744;  221,181;15008,827;78,43414
 974,50;11798,052;  252,412;14953,596;78,53544
 975,05;11662,437;  223,335;14782,596;78,56925
 975,60;11645,052;  241,796;14703,981;78,84878
 976,15;11560,283;  212,873;14616,288;78,78277
 976,70;11491,360;  222,412;14529,981;78,76214
 977,25;11511,283;  243,027;14485,827;79,11545
 977,80;11383,360;  224,181;14321,904;79,15589
 978,35;11241,975;  243,027;14164,904;79,00478
 978,89;11258,898;  196,104;14069,596;79,74052
 979,44;11266,052;  234,258;14051,058;79,84334
 979,99;11144,975;  212,796;13923,981;79,73183
 980,54;11065,513;  238,104;13784,212;79,93004
 981,09;10998,206;  247,104;13719,365;79,80176
 981,64;10880,360;  231,950;13610,365;79,59395
 982,19;10884,360;  266,950;13503,827;80,21084
 982,74;10787,744;  230,950;13377,981;80,29794
 983,29;10686,975;  221,104;13220,519;80,51032
 983,84;10636,744;  218,873;13114,904;80,78355
 984,39;10725,206;  319,642;13130,442;81,22493
 984,94;10493,821;  194,873;12941,673;80,79634
 985,49;10494,744;  243,565;12824,981;81,47874
 986,03;10403,206;  246,719;12732,442;81,34480
 986,58;10315,898;  285,950;12591,904;81,50484
 987,13;10151,206;  229,642;12498,288;80,86926
 987,68;10100,283;  252,104;12396,365;81,09327
 988,23;10064,129;  234,258;12288,981;81,54373
 988,78; 9929,283;  210,719;12097,058;81,76247
 989,33; 9841,206;  246,412;12040,596;81,35191
 989,88; 9840,667;  263,412;12016,519;81,48701
 990,42; 9764,975;  214,873;11778,135;82,59004
 990,97; 9651,360;  229,950;11706,981;82,08926
 991,52; 9623,667;  246,335;11632,058;82,36045
 992,07; 9528,437;  275,719;11520,442;82,28497
 992,62; 9418,360;  238,719;11359,673;82,54364
 993,17; 9372,821;  249,719;11261,827;82,84610
 993,71; 9314,667;  243,258;11131,750;83,31190
 994,26; 9209,667;  210,796;11031,442;83,16390
 994,81; 9175,744;  254,565;10961,058;83,32495
 995,36; 9044,975;  218,642;10804,288;83,38020
 995,91; 9011,975;  228,027;10706,904;83,82528
 996,45; 8965,206;  240,488;10601,673;84,20579
 997,00; 8838,590;  219,873;10453,596;84,21879
 997,55; 8801,129;  235,873;10425,288;84,06033
 998,10; 8733,129;  258,719;10286,750;84,50722
 998,65; 8678,437;  229,027;10223,750;84,53871
 999,19; 8572,513;  245,412;10122,981;84,30315
 999,74; 8452,513;  275,796;10010,827;83,99272
1000,29; 8457,513;  229,642; 9896,442;85,11473
1000,84; 8325,975;  224,565; 9747,519;85,07244
1001,38; 8266,052;  231,488; 9658,519;85,22899
1001,93; 8201,975;  257,104; 9600,596;85,03107
1002,48; 8056,975;  213,488; 9385,365;85,51670
1003,03; 8077,590;  247,027; 9390,519;85,64084
1003,57; 7937,821;  241,027; 9279,673;85,15428
1004,12; 7913,360;  287,258; 9162,288;85,92761
1004,67; 7795,206;  236,104; 9069,904;85,57022
1005,22; 7652,283;  225,181; 8908,212;85,53582
1005,76; 7539,513;  219,027; 8775,904;85,55092
1006,31; 7541,513;  248,335; 8757,135;85,71337
1006,86; 7436,667;  221,104; 8563,212;86,49569
1007,40; 7332,513;  205,796; 8430,827;86,64669
1007,95; 7292,975;  235,488; 8365,596;86,80680
1008,50; 7157,667;  237,873; 8197,827;86,93259
1009,04; 7075,667;  220,412; 8126,058;86,71342
1009,59; 6966,898;  236,873; 7965,288;87,08156
1010,14; 6899,821;  212,796; 7876,442;87,25644
1010,68; 6851,129;  229,258; 7739,827;88,16737
1011,23; 6736,052;  245,796; 7677,981;87,32635
1011,78; 6680,975;  241,181; 7525,596;88,40509
1012,32; 6617,744;  270,258; 7462,827;88,25061
1012,87; 6580,898;  263,719; 7386,673;88,68763
1013,42; 6422,821;  212,258; 7261,058;88,10810
1013,96; 6447,898;  267,565; 7279,212;88,14382
1014,51; 6377,052;  191,335; 7170,750;88,62801
1015,06; 6405,898;  204,565; 7161,981;89,13271
1015,60; 6452,975;  272,181; 7212,442;89,05708
1016,15; 6427,360;  230,488; 7164,596;89,36797
1016,69; 6490,283;  243,488; 7178,750;90,07294
1017,24; 6445,744;  213,796; 7181,904;89,43530
1017,79; 6540,821;  273,258; 7245,288;89,89581
1018,33; 6531,437;  235,258; 7272,135;89,47405
1018,88; 6591,052;  248,027; 7366,673;89,10437
1019,42; 6598,744;  221,335; 7292,904;90,18380
1019,97; 6604,283;  220,027; 7299,519;90,17957
1020,51; 6731,975;  259,950; 7441,981;90,11414
1021,06; 6655,206;  201,181; 7343,365;90,36486
1021,61; 6609,206;  191,335; 7303,827;90,23379
1022,15; 6559,590;  189,027; 7269,673;89,97150
1022,70; 6576,283;  219,719; 7266,212;90,20890
1023,24; 6570,129;  200,258; 7238,519;90,50347
1023,79; 6520,129;  217,719; 7180,365;90,51745
1024,33; 6438,206;  221,412; 7083,750;90,59294
1024,88; 6425,821;  248,488; 7045,442;90,88384
1025,42; 6272,206;  243,642; 6925,135;90,22780
1025,97; 6218,667;  214,335; 6840,365;90,61734
1026,51; 6129,590;  190,488; 6693,288;91,33146
1027,06; 6100,206;  215,027; 6644,135;91,53959
1027,60; 6006,975;  230,104; 6497,827;92,16858
1028,15; 5931,744;  244,488; 6405,519;92,31013
1028,69; 5771,052;  193,335; 6264,904;91,86616
1029,24; 5766,975;  208,488; 6246,212;92,06263
1029,78; 5623,206;  199,027; 6111,288;91,74457
1030,33; 5528,283;  198,027; 6015,673;91,62221
1030,87; 5472,590;  210,950; 5917,365;92,20570
1031,42; 5379,667;  206,642; 5828,365;92,01850
1031,96; 5342,283;  238,565; 5783,365;92,04511
1032,51; 5250,206;  203,719; 5651,442;92,63478
1033,05; 5213,744;  218,873; 5613,519;92,58941
1033,60; 5092,975;  187,873; 5496,442;92,39970
1034,14; 5036,898;  215,796; 5412,596;92,77059
1034,69; 5013,437;  219,565; 5370,827;93,06208
1035,23; 4930,513;  215,950; 5260,212;93,46390
1035,77; 4887,206;  223,104; 5248,365;92,81312
1036,32; 4792,129;  189,950; 5121,981;93,31205
1036,86; 4795,590;  226,950; 5079,058;94,15785
1037,41; 4712,590;  231,719; 5010,442;93,76712
1037,95; 4628,206;  187,181; 4891,673;94,39967
1038,50; 4572,744;  205,950; 4864,904;93,72907
1039,04; 4546,667;  232,104; 4830,519;93,82718
1039,58; 4447,129;  188,181; 4698,519;94,42635
1040,13; 4453,744;  213,488; 4668,519;95,17905
1040,67; 4391,821;  243,027; 4628,750;94,59772
1041,21; 4327,744;  256,796; 4547,750;94,87280
1041,76; 4235,975;  210,950; 4455,442;94,82936
1042,30; 4191,437;  208,027; 4408,596;94,83023
1042,85; 4115,206;  208,412; 4337,596;94,61418
1043,39; 4076,667;  199,104; 4251,827;95,67798
1043,93; 4070,052;  237,719; 4235,827;95,85366
1044,48; 3986,129;  226,565; 4140,673;96,05161
1045,02; 3918,283;  215,873; 4101,596;95,28238
1045,56; 3900,437;  249,565; 4063,519;95,72405
1046,11; 3829,513;  211,565; 3975,750;96,11505
1046,65; 3767,129;  236,335; 3947,135;95,14914
1047,19; 3733,744;  206,335; 3840,365;97,06604
1047,74; 3673,744;  195,565; 3786,058;96,87192
1048,28; 3632,283;  219,719; 3747,288;96,73980
1048,82; 3612,360;  250,796; 3728,519;96,65989
1049,37; 3574,667;  226,104; 3685,596;96,79349
1049,91; 3531,052;  226,565; 3639,519;96,82189
1050,45; 3459,513;  231,873; 3582,442;96,33111
1050,99; 3415,513;  240,027; 3521,442;96,77186
1051,54; 3342,667;  212,335; 3462,827;96,30334
1052,08; 3352,898;  249,335; 3419,904;97,88663
1052,62; 3300,898;  229,796; 3371,904;97,74019
1053,16; 3204,360;  215,950; 3308,904;96,61992
1053,71; 3198,590;  229,258; 3285,519;97,15571
1054,25; 3159,975;  241,104; 3249,058;97,03843
1054,79; 3120,744;  232,181; 3195,981;97,46148
1055,33; 3047,206;  199,335; 3123,442;97,39283
1055,88; 3048,975;  230,258; 3130,750;97,18065
1056,42; 3005,744;  241,796; 3047,519;98,51108
1056,96; 2977,667;  250,565; 3039,596;97,77956
1057,50; 2945,052;  243,335; 2967,827;99,16406
1058,05; 2871,744;  229,412; 2925,365;98,01105
1058,59; 2867,052;  248,412; 2899,365;98,78106
1059,13; 2799,513;  204,565; 2818,365;99,27875
1059,67; 2783,667;  232,565; 2779,673;100,15681
1060,21; 2733,975;  227,335; 2747,981;99,44436
1060,76; 2728,206;  237,027; 2708,442;100,79968
1061,30; 2746,821;  249,719; 2704,288;101,73280
1061,84; 2622,513;  247,258; 2628,981;99,72846
1062,38; 2571,360;  212,104; 2586,212;99,37442
1062,92; 2590,283;  277,873; 2601,058;99,53620
1063,46; 2541,821;  246,642; 2509,442;101,43092
1064,01; 2494,360;  221,104; 2458,519;101,60187
1064,55; 2490,667;  240,335; 2459,212;101,41764
1065,09; 2417,437;  204,335; 2400,058;100,79149
1065,63; 2423,898;  257,719; 2402,827;100,98229
1066,17; 2423,129;  266,335; 2389,135;101,60139
1066,71; 2374,590;  256,335; 2352,596;101,04921
1067,25; 2310,052;  220,950; 2311,135;99,94820
1067,80; 2340,590;  244,027; 2286,442;102,65118
1068,34; 2291,360;  267,412; 2279,058;100,61154
1068,88; 2203,744;  225,950; 2208,596;99,75528
1069,42; 2233,513;  256,412; 2208,442;101,28436
1069,96; 2189,437;  229,565; 2160,288;101,50970
1070,50; 2212,667;  270,719; 2161,442;102,70928
1071,04; 2125,590;  221,642; 2100,981;101,30948
1071,58; 2104,744;  230,335; 2067,519;102,02620
1072,12; 2112,975;  238,104; 2066,442;102,54508
1072,66; 2099,052;  229,796; 2023,135;104,23330
1073,21; 2076,898;  251,104; 2028,442;102,72631
1073,75; 2034,437;  234,950; 1996,365;102,16140
1074,29; 2002,129;  240,719; 1960,519;102,41945
1074,83; 1989,975;  267,181; 1945,519;102,64880
1075,37; 1977,052;  270,258; 1953,212;101,41658
1075,91; 1975,052;  251,565; 1911,827;103,80813
1076,45; 1955,975;  238,873; 1886,750;104,20086
1076,99; 1919,821;  256,873; 1879,212;102,50315
1077,53; 1872,821;  229,642; 1820,750;103,27264
1078,07; 1876,052;  248,258; 1817,750;103,71470
1078,61; 1847,360;  239,181; 1778,058;104,50341
1079,15; 1815,437;  232,412; 1754,288;104,01794
1079,69; 1800,437;  239,488; 1741,904;103,89591
1080,23; 1819,744;  263,181; 1731,827;105,98628
1080,77; 1824,667;  314,335; 1769,750;103,77331
1081,31; 1750,513;  227,412; 1663,981;106,02357
1081,85; 1766,129;  260,565; 1681,212;105,97737
1082,39; 1706,975;  231,642; 1628,212;105,63978
1082,93; 1719,975;  248,412; 1642,365;105,56759
1083,47; 1664,437;  216,565; 1566,904;107,22283
1084,01; 1686,513;  252,719; 1585,904;107,54656
1084,55; 1646,437;  229,181; 1557,673;106,68152
1085,09; 1637,590;  256,258; 1563,981;105,62884
1085,63; 1616,590;  253,104; 1546,519;105,41753
1086,17; 1587,283;  237,488; 1493,981;107,42559
1086,71; 1569,898;  212,488; 1467,365;108,17074
1087,24; 1571,129;  253,873; 1506,212;105,18369
1087,78; 1569,283;  265,565; 1493,135;106,20316
1088,32; 1486,206;  231,335; 1426,442;105,00068
1088,86; 1532,821;  240,412; 1442,442;107,51885
1089,40; 1496,437;  249,104; 1424,442;106,12540
1089,94; 1441,052;  219,335; 1378,212;105,42252
1090,48; 1446,052;  250,104; 1378,673;105,97029
1091,02; 1446,360;  253,642; 1388,596;105,08950
1091,56; 1420,129;  243,181; 1350,904;106,24931
1092,10; 1396,590;  214,719; 1296,212;109,28151
1092,63; 1422,667;  271,873; 1345,750;107,16258
1093,17; 1372,129;  248,796; 1312,365;105,61914
1093,71; 1359,206;  232,719; 1282,135;107,34420
1094,25; 1354,975;  251,873; 1299,673;105,27791
1094,79; 1299,975;  238,335; 1255,135;104,40995
1095,33; 1314,206;  248,565; 1272,288;104,09459
1095,87; 1289,744;  237,488; 1246,135;104,32358
1096,40; 1255,744;  218,412; 1192,981;106,44012
1096,94; 1264,283;  244,258; 1190,904;107,75145
1097,48; 1249,052;  258,488; 1205,827;104,56278
1098,02; 1225,206;  234,873; 1177,365;105,07594
1098,56; 1198,206;  212,335; 1127,058;107,77810
1099,10; 1203,513;  213,335; 1134,135;107,53463
1099,63; 1185,283;  220,335; 1115,135;107,83953
1100,17; 1201,283;  257,412; 1133,673;107,71569
1100,71; 1191,744;  274,796; 1126,981;107,59970

