
Integration time [ms]: 160,000
Averaging Nr. [scans]: 13
Smoothing Nr. [pixels]: 0
Data measured with spectrometer [name]: 2009305U1
Wave   ;Sample   ;Dark     ;Reference;Reflectance
[nm]   ;[counts] ;[counts] ;[counts] ;[%]

 175,72;  220,275;  211,481;  218,198;130,91173
 176,32;  233,990;  242,342;  237,064; 0,00000
 176,92;  286,279;  274,024;  286,893;95,23529
 177,52;  271,784;  269,099;  274,399;50,65739
 178,12;  257,216;  242,726;  241,865; 0,00000
 178,72;  274,728;  285,192;  276,001; 0,00000
 179,32;  264,500;  271,804;  258,781; 0,00000
 179,92;  264,564;  271,952;  251,920; 0,00000
 180,52;  253,904;  247,166;  277,718;22,05570
 181,12;  265,809;  273,258;  268,649; 0,00000
 181,73;  292,807;  303,642;  290,175; 0,00000
 182,33;  411,306;  400,787;  408,394;138,28501
 182,93;  293,212;  285,176;  293,730;93,94217
 183,53;  254,926;  256,655;  235,234; 0,00000
 184,13;  252,491;  258,269;  234,768; 0,00000
 184,73;  299,855;  310,349;  296,521; 0,00000
 185,33;  317,504;  248,820;  394,412;47,17574
 185,93;  328,741;  245,368;  398,196;54,55331
 186,53;  340,777;  265,978;  408,744;52,39283
 187,13;  372,597;  290,044;  447,866;52,30773
 187,73;  330,926;  264,675;  415,930;43,80101
 188,33;  335,010;  245,219;  387,713;63,01391
 188,93;  337,314;  270,930;  405,484;49,33612
 189,53;  326,173;  269,175;  424,072;36,79707
 190,13;  356,020;  303,044;  440,384;38,57253
 190,73;  313,989;  239,106;  383,350;51,91395
 191,34;  353,080;  276,781;  434,912;48,25022
 191,94;  322,461;  252,456;  418,799;42,08478
 192,54;  344,816;  270,574;  439,983;43,82446
 193,14;  351,095;  271,430;  434,086;48,97757
 193,74;  348,710;  277,278;  439,295;44,08956
 194,34;  344,321;  276,273;  426,370;45,33596
 194,94;  316,600;  229,891;  407,340;48,86388
 195,54;  309,857;  215,357;  369,546;61,28826
 196,14;  313,338;  234,578;  405,012;46,21147
 196,74;  305,631;  242,129;  389,416;43,11417
 197,34;  304,554;  211,648;  390,907;51,82740
 197,94;  336,148;  241,044;  415,716;54,44705
 198,54;  347,618;  255,194;  430,267;52,79171
 199,14;  312,239;  222,722;  427,949;43,61883
 199,74;  318,196;  211,106;  431,925;48,49659
 200,34;  306,584;  201,105;  426,377;46,82316
 200,94;  336,615;  249,189;  481,453;37,64102
 201,54;  331,295;  222,339;  476,646;42,84423
 202,14;  381,136;  267,948;  536,358;42,16978
 202,74;  343,584;  230,799;  536,970;36,83739
 203,34;  343,626;  198,866;  546,256;41,67075
 203,94;  326,688;  181,101;  534,318;41,21748
 204,54;  399,924;  260,735;  653,213;35,46431
 205,14;  376,135;  215,491;  657,051;36,38099
 205,74;  440,251;  257,251;  756,379;36,66395
 206,34;  419,690;  225,486;  763,868;36,07174
 206,94;  452,268;  234,411;  851,748;35,28984
 207,54;  433,694;  197,564;  867,836;35,22899
 208,14;  480,670;  203,255;  963,005;36,51401
 208,74;  503,216;  220,107; 1048,173;34,18917
 209,34;  523,856;  220,336; 1146,059;32,78738
 209,94;  569,146;  228,106; 1279,593;32,43413
 210,54;  598,658;  212,945; 1358,793;33,66178
 211,14;  631,849;  222,029; 1514,178;31,71612
 211,73;  652,210;  224,494; 1640,996;30,19527
 212,33;  711,812;  246,343; 1758,938;30,77293
 212,93;  714,764;  221,030; 1894,450;29,50447
 213,53;  751,172;  196,107; 1929,919;32,01418
 214,13;  776,410;  220,170; 2031,963;30,70109
 214,73;  769,905;  189,409; 2041,666;31,33992
 215,33;  781,300;  185,183; 2081,131;31,44166
 215,93;  847,437;  212,405; 2230,476;31,46724
 216,53;  858,285;  181,492; 2297,215;31,98873
 217,13;  986,279;  224,715; 2533,410;32,98680
 217,73; 1064,196;  212,713; 2767,506;33,32885
 218,33; 1123,051;  155,092; 2966,387;34,43107
 218,93; 1277,936;  208,312; 3334,968;34,20985
 219,53; 1448,546;  213,092; 3666,979;35,76996
 220,13; 1571,893;  173,551; 4026,440;36,29332
 220,73; 1785,752;  189,106; 4398,392;37,93152
 221,32; 2006,600;  187,184; 4901,481;38,59359
 221,92; 2216,457;  213,705; 5372,536;38,82181
 222,52; 2415,653;  184,943; 5861,538;39,29663
 223,12; 2669,292;  189,173; 6366,852;40,14646
 223,72; 2935,787;  196,865; 6820,752;41,34917
 224,32; 3149,712;  206,941; 7315,632;41,39681
 224,92; 3358,811;  189,634; 7653,451;42,46054
 225,52; 3609,994;  211,103; 8058,109;43,31449
 226,12; 3783,603;  198,099; 8394,150;43,74672
 226,72; 3991,496;  172,716; 8818,142;44,17111
 227,31; 4221,518;  167,716; 9288,269;44,44689
 227,91; 4533,491;  207,181; 9795,790;45,11927
 228,51; 4808,321;  186,034;10198,182;46,16679
 229,11; 5086,424;  194,408;10644,726;46,81212
 229,71; 5253,829;  187,031;11067,447;46,56806
 230,31; 5552,081;  182,016;11517,374;47,37446
 230,91; 5781,296;  165,576;11911,197;47,81118
 231,51; 6021,141;  185,174;12242,326;48,40253
 232,10; 6255,645;  184,861;12643,414;48,72784
 232,70; 6421,859;  189,504;12859,370;49,19038
 233,30; 6655,490;  218,944;13193,393;49,60940
 233,90; 6796,281;  183,560;13313,674;50,36301
 234,50; 6882,805;  189,174;13436,659;50,52756
 235,10; 6953,503;  185,403;13455,913;51,00106
 235,70; 7105,661;  211,720;13468,454;52,00332
 236,29; 7090,737;  197,415;13436,168;52,06927
 236,89; 7032,556;  171,190;13193,436;52,68958
 237,49; 6950,960;  197,869;13088,252;52,38860
 238,09; 6782,921;  193,871;12729,099;52,56426
 238,69; 6616,987;  243,194;12505,680;51,97798
 239,29; 6409,446;  186,564;12046,908;52,46797
 239,89; 6162,535;  197,421;11575,386;52,42689
 240,48; 5864,789;  184,948;11134,687;51,87192
 241,08; 5558,059;  188,180;10682,952;51,16718
 241,68; 5276,785;  205,640;10272,873;50,37278
 242,28; 4959,494;  171,791; 9848,284;49,47767
 242,88; 4731,828;  233,708; 9478,401;48,65624
 243,48; 4446,388;  238,638; 9155,891;47,18661
 244,07; 4189,436;  198,566; 8855,609;46,09969
 244,67; 4001,583;  214,793; 8693,035;44,66480
 245,27; 3763,749;  209,494; 8466,303;43,04635
 245,87; 3596,968;  211,325; 8363,749;41,52929
 246,47; 3456,573;  203,032; 8352,176;39,92494
 247,06; 3260,341;  188,257; 8320,626;37,77601
 247,66; 3205,461;  188,793; 8410,748;36,69040
 248,26; 3142,636;  208,492; 8598,777;34,97073
 248,86; 3079,102;  217,262; 8812,360;33,29618
 249,46; 2978,569;  154,559; 9031,811;31,81176
 250,05; 2993,722;  213,487; 9546,119;29,79047
 250,65; 2975,350;  176,187; 9989,959;28,52281
 251,25; 2999,328;  188,796;10490,127;27,28319
 251,85; 3056,990;  188,190;11125,846;26,22866
 252,44; 3098,622;  155,645;11908,685;25,04013
 253,04; 3226,521;  203,875;12810,007;23,97759
 253,64; 3295,848;  153,034;13680,640;23,23259
 254,24; 3490,611;  220,718;14831,835;22,37949
 254,84; 3616,107;  188,867;15996,734;21,68060
 255,43; 3798,870;  185,953;17244,536;21,17947
 256,03; 3996,410;  203,726;18451,646;20,78420
 256,63; 4202,424;  201,036;19808,871;20,40709
 257,23; 4443,057;  181,113;20871,414;20,59875
 257,82; 4706,764;  205,733;22198,232;20,46621
 258,42; 4929,357;  151,813;23334,204;20,60850
 259,02; 5273,999;  220,798;24592,594;20,73380
 259,62; 5509,144;  179,814;25547,111;21,00866
 260,21; 5790,265;  196,953;26211,736;21,50051
 260,81; 5996,690;  186,715;26980,120;21,68434
 261,41; 6256,806;  176,580;27633,684;22,14445
 262,01; 6574,781;  227,047;28229,601;22,66841
 262,60; 6801,826;  177,805;28838,491;23,11187
 263,20; 7146,072;  187,494;29286,737;23,91326
 263,80; 7435,336;  201,432;29662,957;24,55373
 264,40; 7763,564;  170,123;29839,945;25,59315
 264,99; 8068,543;  199,048;30127,181;26,29464
 265,59; 8327,118;  189,670;30316,259;27,01085
 266,19; 8698,908;  176,970;30574,780;28,03471
 266,78; 9014,321;  233,205;30823,865;28,70522
 267,38; 9230,100;  208,823;30828,429;29,46242
 267,98; 9530,234;  196,743;30871,434;30,42733
 268,58; 9804,814;  195,438;30913,172;31,28283
 269,17;10117,861;  177,367;31023,779;32,22577
 269,77;10339,486;  199,577;30754,570;33,18577
 270,37;10488,866;  175,971;30671,922;33,81726
 270,96;10756,121;  228,656;30454,950;34,82883
 271,56;10861,830;  194,806;30122,767;35,64234
 272,16;11080,502;  187,735;29971,268;36,57312
 272,75;11257,366;  186,427;29859,965;37,30913
 273,35;11512,865;  192,425;29843,931;38,17830
 273,95;11672,784;  187,196;29778,711;38,81379
 274,54;11973,968;  167,718;29810,629;39,82824
 275,14;12374,289;  216,886;30186,602;40,56563
 275,74;12594,201;  167,427;30271,039;41,28001
 276,33;13063,557;  224,654;30851,261;41,92075
 276,93;13399,258;  201,793;31279,415;42,46613
 277,53;14027,308;  199,569;31882,683;43,64388
 278,12;14485,911;  183,727;32492,142;44,26767
 278,72;15049,796;  251,954;33285,317;44,79666
 279,32;15669,437;  181,955;33862,874;45,98296
 279,91;16369,378;  168,956;34771,549;46,81852
 280,51;16974,271;  184,107;35427,430;47,64069
 281,11;17655,707;  189,033;36405,369;48,22872
 281,70;18233,881;  173,342;36799,693;49,31023
 282,30;18887,830;  178,575;37647,075;49,93329
 282,90;19580,671;  188,114;38160,150;51,07063
 283,49;20164,744;  202,271;38818,062;51,69510
 284,09;20800,067;  225,496;39352,713;52,58378
 284,69;21411,551;  222,493;39716,819;53,65089
 285,28;21985,649;  212,727;40272,352;54,35129
 285,88;22609,573;  271,043;40575,343;55,42468
 286,47;23071,483;  191,806;40555,943;56,68318
 287,07;23528,250;  223,647;40682,282;57,60106
 287,67;24280,926;  218,254;40858,814;59,20852
 288,26;24675,084;  186,493;40795,817;60,30288
 288,86;25224,150;  184,727;40802,177;61,64696
 289,46;25985,676;  202,494;40964,118;63,25357
 290,05;26549,294;  189,873;40945,997;64,67598
 290,65;27353,273;  188,038;41352,190;65,99245
 291,24;28123,021;  196,646;41512,007;67,59320
 291,84;28718,040;  209,575;41660,409;68,77658
 292,44;29407,060;  200,560;41800,490;70,20805
 293,03;30246,993;  285,723;41934,340;71,93821
 293,63;30819,462;  190,960;42113,662;73,05947
 294,22;31498,274;  227,110;42371,190;74,20061
 294,82;31856,911;  185,815;42256,231;75,28116
 295,41;32094,650;  169,726;41928,693;76,45046
 296,01;32347,824;  224,197;41937,898;77,00977
 296,61;32378,190;  227,570;41649,594;77,61721
 297,20;32302,337;  196,197;41109,418;78,47375
 297,80;32387,787;  214,718;40879,116;79,11852
 298,39;32039,375;  172,344;40404,615;79,20764
 298,99;32094,484;  222,349;40273,823;79,57793
 299,58;31984,627;  207,947;39970,212;79,91667
 300,18;31798,466;  223,719;39835,925;79,70964
 300,78;31602,618;  184,183;39324,178;80,27194
 301,37;31607,600;  202,741;39327,758;80,26798
 301,97;31611,082;  204,802;39294,553;80,34403
 302,56;31498,180;  195,345;39240,911;80,17001
 303,16;31406,401;  176,193;39095,766;80,24294
 303,75;31302,967;  188,105;39022,882;80,12113
 304,35;31614,308;  185,712;39371,209;80,20466
 304,94;31451,583;  184,802;39363,454;79,80566
 305,54;31422,370;  225,799;39364,788;79,70714
 306,13;31217,480;  165,865;39235,829;79,47695
 306,73;30971,593;  175,714;38959,642;79,40371
 307,33;30684,727;  203,792;38958,373;78,65118
 307,92;30564,664;  206,415;38898,444;78,46125
 308,52;30947,230;  177,116;39535,145;78,18002
 309,11;31195,668;  188,506;40084,403;77,72018
 309,71;31368,117;  183,047;40497,883;77,35383
 310,30;31499,108;  171,416;40684,285;77,32775
 310,90;31591,954;  237,031;41231,208;76,48628
 311,49;31608,958;  205,417;41350,330;76,32424
 312,09;31618,521;  162,180;41476,721;76,13867
 312,68;31782,788;  261,414;41986,611;75,54518
 313,28;31745,510;  173,108;42091,290;75,31911
 313,87;31639,579;  158,339;42363,178;74,59154
 314,47;31611,057;  185,889;42609,624;74,07450
 315,06;31669,340;  168,492;42638,934;74,17123
 315,66;31502,828;  179,950;42994,336;73,15970
 316,25;31287,474;  152,577;42865,028;72,89419
 316,85;31038,736;  155,334;42884,519;72,27707
 317,44;30789,021;  176,890;43146,152;71,24193
 318,04;30485,957;  170,806;43057,638;70,68638
 318,63;30206,390;  157,253;43115,078;69,95032
 319,22;30097,981;  187,730;43434,931;69,16112
 319,82;29835,637;  191,112;43397,964;68,61070
 320,41;29379,768;  204,345;43284,244;67,72398
 321,01;29215,184;  200,104;43511,944;66,99110
 321,60;28928,753;  193,881;43642,096;66,13591
 322,20;28591,165;  165,031;43518,037;65,56900
 322,79;28281,291;  206,800;43654,986;64,61603
 323,39;28022,713;  180,790;43572,225;64,16456
 323,98;27664,370;  175,338;43633,481;63,25404
 324,58;27279,949;  167,655;43447,351;62,64437
 325,17;26790,772;  185,269;43201,366;61,85011
 325,76;26373,106;  201,186;43122,636;60,97632
 326,36;25797,178;  169,874;42593,788;60,40768
 326,95;25227,771;  218,649;42178,563;59,60241
 327,55;24654,010;  176,497;41915,346;58,64444
 328,14;24092,223;  172,794;41348,251;58,09147
 328,74;23523,992;  209,038;40829,011;57,39776
 329,33;22984,858;  190,105;40315,939;56,80817
 329,92;22207,477;  166,890;39660,305;55,80826
 330,52;21562,345;  192,178;38900,769;55,20781
 331,11;20961,473;  178,881;38444,687;54,31113
 331,71;20277,224;  186,110;37666,472;53,60438
 332,30;19738,506;  198,878;37106,531;52,94194
 332,89;19168,401;  266,490;36426,984;52,27227
 333,49;18527,875;  198,649;35823,230;51,45106
 334,08;17919,059;  181,497;35198,217;50,65455
 334,68;17393,526;  188,497;34737,295;49,79921
 335,27;16921,853;  194,100;34311,321;49,03023
 335,86;16545,396;  250,573;33898,764;48,42704
 336,46;16096,200;  202,792;33572,761;47,62788
 337,05;15773,879;  181,419;33453,737;46,86316
 337,65;15405,169;  169,650;33172,347;46,16447
 338,24;15270,287;  230,645;33140,248;45,69986
 338,83;14946,837;  221,260;33125,328;44,75306
 339,43;14682,975;  174,269;32976,622;44,23069
 340,02;14471,379;  181,270;32831,100;43,76779
 340,61;14223,774;  191,954;32885,805;42,91884
 341,21;14055,223;  210,653;32927,934;42,31577
 341,80;13764,773;  189,497;32862,882;41,54842
 342,40;13616,741;  195,332;33024,003;40,88319
 342,99;13449,324;  179,490;33101,753;40,30657
 343,58;13283,628;  178,105;33248,554;39,62910
 344,18;13110,371;  214,950;33488,535;38,75573
 344,77;12980,989;  179,885;33746,098;38,13687
 345,36;12938,309;  175,803;34210,255;37,49879
 345,96;12947,913;  212,105;34584,196;37,05276
 346,55;12864,060;  169,789;34774,204;36,68396
 347,14;12808,901;  173,101;35169,313;36,10619
 347,74;12724,390;  156,013;35698,813;35,36124
 348,33;12842,118;  186,707;36480,186;34,86965
 348,92;12897,503;  191,394;37188,955;34,34310
 349,52;12940,652;  153,550;37759,932;34,00248
 350,11;12838,399;  169,963;38005,963;33,48249
 350,70;12765,768;  176,954;38194,188;33,11344
 351,29;12471,035;  171,897;37901,223;32,59835
 351,89;12309,872;  200,659;37840,505;32,17126
 352,48;12179,070;  150,339;37923,879;31,84433
 353,07;11996,942;  197,408;37836,555;31,34910
 353,67;11909,121;  202,394;37818,604;31,12149
 354,26;11648,621;  190,255;37412,595;30,78357
 354,85;11515,203;  189,026;37287,366;30,53014
 355,45;11332,897;  162,959;36975,643;30,34263
 356,04;11181,686;  183,638;36930,767;29,92900
 356,63;11084,733;  217,111;36670,003;29,81279
 357,22;10917,553;  183,048;36525,690;29,53694
 357,82;10768,284;  180,892;36305,305;29,30814
 358,41;10700,731;  217,263;36129,991;29,19151
 359,00;10541,310;  167,500;35840,289;29,08046
 359,60;10495,259;  185,799;35775,735;28,96735
 360,19;10448,539;  208,098;35547,956;28,97703
 360,78;10326,037;  189,189;35462,705;28,73784
 361,37;10228,686;  180,958;35141,143;28,74049
 361,97;10171,784;  185,572;35077,292;28,62058
 362,56;10090,646;  190,040;34711,396;28,67965
 363,15;10119,866;  253,882;34372,239;28,91694
 363,74; 9883,887;  191,735;33926,345;28,73059
 364,34; 9783,018;  203,115;33405,107;28,85340
 364,93; 9640,463;  183,348;32948,157;28,86363
 365,52; 9582,781;  156,650;32451,071;29,18811
 366,11; 9541,799;  182,961;32152,418;29,27431
 366,71; 9411,904;  178,730;31649,470;29,33892
 367,30; 9308,716;  191,650;31259,152;29,34599
 367,89; 9353,757;  220,873;30917,492;29,75209
 368,48; 9338,723;  204,427;30607,452;30,04404
 369,07; 9205,076;  191,415;30016,803;30,22144
 369,67; 9120,835;  220,118;29658,538;30,23504
 370,26; 9160,604;  172,569;29287,910;30,87045
 370,85; 9156,369;  192,188;29025,096;31,09010
 371,44; 9128,542;  197,110;28760,135;31,26921
 372,03; 9134,123;  166,654;28417,774;31,74199
 372,63; 9170,370;  162,188;28050,514;32,30091
 373,22; 9170,003;  174,724;27649,618;32,74000
 373,81; 9113,879;  178,188;27247,045;33,01097
 374,40; 9140,789;  186,102;26994,687;33,40231
 374,99; 9184,189;  189,651;26691,749;33,93897
 375,59; 9223,738;  158,256;26274,783;34,71166
 376,18; 9278,284;  198,343;26161,600;34,97227
 376,77; 9320,258;  208,187;25873,834;35,50299
 377,36; 9480,440;  212,958;25865,787;36,12655
 377,95; 9479,894;  209,499;25474,807;36,69219
 378,55; 9491,876;  176,643;25254,559;37,14516
 379,14; 9626,643;  206,958;25162,581;37,74574
 379,73; 9731,115;  187,729;25007,145;38,45129
 380,32; 9893,966;  193,495;25112,805;38,92753
 380,91; 9994,873;  168,272;24888,560;39,75116
 381,50;10109,987;  195,732;24793,450;40,30559
 382,10;10212,581;  184,725;24709,574;40,88855
 382,69;10376,175;  160,343;24621,657;41,76322
 383,28;10508,945;  208,654;24566,383;42,28757
 383,87;10609,044;  175,424;24428,279;43,02017
 384,46;10716,148;  173,661;24306,925;43,68446
 385,05;10904,267;  212,886;24303,782;44,37934
 385,64;11054,492;  189,576;24339,572;44,98931
 386,24;11174,773;  167,661;24220,203;45,76278
 386,83;11408,557;  207,432;24279,449;46,53173
 387,42;11674,559;  206,730;24403,679;47,39370
 388,01;11973,641;  193,284;24638,078;48,19168
 388,60;12319,826;  192,737;24934,295;49,01506
 389,19;12565,703;  178,599;25258,789;49,38999
 389,78;12914,697;  182,443;25516,348;50,25776
 390,37;13398,419;  255,049;26044,630;50,96388
 390,96;13709,888;  187,662;26216,686;51,95057
 391,56;13963,219;  191,601;26377,838;52,59105
 392,15;14333,624;  174,826;26689,722;53,39941
 392,74;14560,720;  154,150;26904,368;53,85590
 393,33;15072,793;  193,679;27212,750;55,06893
 393,92;15529,492;  190,155;27681,721;55,79652
 394,51;15875,292;  164,218;27977,079;56,48852
 395,10;16297,909;  202,094;28227,249;57,43346
 395,69;16583,871;  206,168;28372,249;58,14690
 396,28;16845,587;  196,869;28554,213;58,71043
 396,87;17126,261;  205,421;28611,242;59,56821
 397,46;17463,397;  210,353;28729,041;60,49733
 398,06;17867,263;  225,287;29018,224;61,27189
 398,65;18110,239;  196,160;29080,013;62,02108
 399,24;18390,968;  217,088;29277,343;62,53861
 399,83;18582,777;  176,590;29253,316;63,30213
 400,42;18997,246;  224,626;29454,467;64,22416
 401,01;19276,783;  207,128;29571,044;64,94248
 401,60;19551,250;  217,799;29610,593;65,77616
 402,19;19728,900;  236,844;29605,829;66,36953
 402,78;19906,802;  226,835;29615,856;66,96367
 403,37;20081,993;  214,977;29390,074;68,09580
 403,96;20161,375;  227,976;29203,943;68,79287
 404,55;20291,004;  218,445;29138,663;69,40667
 405,14;20417,995;  211,599;28996,034;70,19903
 405,73;20583,550;  223,612;28785,954;71,28245
 406,32;20729,773;  237,134;28829,577;71,67152
 406,91;20720,149;  223,512;28451,200;72,61181
 407,50;20783,332;  238,163;28207,094;73,45711
 408,09;20759,558;  205,880;27879,689;74,27123
 408,68;20848,709;  230,129;27691,801;75,08130
 409,27;20889,093;  210,260;27477,721;75,83703
 409,86;20979,831;  208,898;27355,978;76,51259
 410,45;21139,372;  257,852;27271,554;77,29974
 411,04;21226,905;  244,189;27202,348;77,83438
 411,63;21086,320;  236,436;26878,885;78,25814
 412,22;21066,155;  252,227;26535,489;79,19081
 412,81;21021,595;  274,284;26290,545;79,74747
 413,40;20804,307;  262,336;25837,152;80,32109
 413,99;20681,343;  314,190;25452,504;81,02036
 414,58;20414,075;  235,339;25010,712;81,44675
 415,17;20348,320;  245,745;24729,214;82,10673
 415,76;20405,666;  231,536;24579,646;82,85707
 416,35;20349,013;  226,679;24283,150;83,64624
 416,94;20557,569;  260,762;24360,672;84,21943
 417,53;20969,924;  232,128;24573,694;85,19499
 418,12;21204,118;  243,123;24618,826;85,99135
 418,71;21695,309;  261,027;25197,185;85,95663
 419,30;21970,271;  230,429;25198,617;87,07017
 419,89;22353,365;  217,348;25463,049;87,68232
 420,48;22712,370;  256,643;25830,983;87,80570
 421,07;22954,151;  248,715;25884,029;88,57093
 421,66;23100,087;  215,550;25955,515;88,90664
 422,25;23248,720;  236,297;25951,341;89,49012
 422,84;23338,742;  261,754;25945,006;89,85228
 423,43;23113,273;  248,071;25663,928;89,96432
 424,02;23071,207;  265,221;25298,897;91,10122
 424,60;22640,121;  241,579;24734,056;91,45070
 425,19;22551,058;  256,131;24393,754;92,36588
 425,78;22598,447;  263,515;24327,975;92,81294
 426,37;22546,378;  258,967;24127,053;93,37745
 426,96;22582,334;  246,197;23974,029;94,13476
 427,55;22536,086;  250,336;23815,088;94,57240
 428,14;22367,339;  239,099;23559,774;94,88679
 428,73;22302,324;  238,727;23287,640;95,72511
 429,32;22431,269;  256,122;23272,549;96,34487
 429,91;22495,711;  277,187;23243,981;96,74195
 430,50;22406,802;  260,180;23069,501;97,09461
 431,08;22365,299;  264,480;22903,070;97,62454
 431,67;22363,394;  298,780;22792,481;98,09241
 432,26;22305,318;  316,158;22547,502;98,91062
 432,85;21906,159;  328,391;22187,710;98,71199
 433,44;21615,267;  329,612;21718,486;99,51742
 434,03;21259,385;  359,675;21306,430;99,77541
 434,62;20884,835;  302,227;20804,187;100,39337
 435,21;20794,514;  323,698;20490,492;101,50754
 435,79;20581,317;  317,373;20361,246;101,09794
 436,38;20539,703;  308,205;20228,135;101,56410
 436,97;20519,955;  310,434;20041,745;102,42361
 437,56;20302,676;  301,183;19805,014;102,55161
 438,15;20333,553;  279,881;19799,419;102,73641
 438,74;20431,503;  320,110;19760,262;103,45286
 439,33;20474,502;  281,189;19699,053;103,99348
 439,91;20640,157;  261,719;19851,305;104,02690
 440,50;20754,961;  314,333;19867,853;104,53682
 441,09;20906,474;  314,707;20012,283;104,53960
 441,68;21048,542;  285,387;20047,796;105,06389
 442,27;21089,250;  276,469;20008,998;105,47447
 442,86;21106,193;  251,675;20081,605;105,16688
 443,44;21210,817;  268,757;20002,114;106,12518
 444,03;21311,931;  343,520;20137,200;105,93488
 444,62;21260,518;  260,290;19968,456;106,55597
 445,21;21086,708;  284,677;19693,269;107,17950
 445,80;20965,650;  311,971;19650,624;106,79999
 446,39;20740,661;  367,974;19356,495;107,28948
 446,97;20488,261;  261,881;19073,511;107,52062
 447,56;20248,708;  266,485;18837,714;107,59775
 448,15;20107,277;  279,497;18571,175;108,39782
 448,74;19796,847;  291,880;18309,447;108,25527
 449,33;19694,318;  276,641;18160,537;108,57633
 449,91;19410,611;  276,473;17911,299;108,50199
 450,50;19156,428;  268,015;17637,654;108,74384
 451,09;19105,235;  285,090;17553,390;108,98667
 451,68;19010,013;  307,700;17358,424;109,68632
 452,26;18961,704;  311,232;17250,566;110,10157
 452,85;18774,052;  272,620;17151,501;109,61290
 453,44;18927,439;  288,679;17136,235;110,63183
 454,03;18863,879;  263,228;17099,659;110,47858
 454,61;18810,744;  262,294;17035,993;110,58056
 455,20;19142,952;  297,518;17301,084;110,83224
 455,79;19155,331;  303,298;17270,018;111,11183
 456,38;19227,587;  299,508;17334,704;111,11160
 456,97;19428,651;  281,973;17474,030;111,36932
 457,55;19538,588;  277,350;17483,395;111,94459
 458,14;19477,738;  317,283;17442,594;111,88384
 458,73;19355,124;  295,656;17325,922;111,91527
 459,31;19498,009;  316,722;17423,811;112,12479
 459,90;19597,598;  355,651;17490,156;112,29941
 460,49;19742,134;  402,039;17571,606;112,64172
 461,08;19937,194;  300,101;17691,511;112,91260
 461,66;19936,349;  301,800;17819,062;112,08686
 462,25;20164,640;  299,173;17869,693;113,06135
 462,84;20210,422;  321,254;17989,499;112,57014
 463,43;20122,930;  251,007;17879,081;112,72884
 464,01;20202,108;  296,233;17915,549;112,97757
 464,60;20213,820;  355,627;17826,061;113,66743
 465,19;19872,616;  282,845;17556,814;113,40631
 465,77;19871,154;  302,224;17580,033;113,26048
 466,36;19737,804;  326,315;17407,748;113,64086
 466,95;19281,961;  295,775;17026,046;113,48403
 467,53;18813,105;  314,525;16753,644;112,52780
 468,12;18512,400;  341,215;16387,586;113,24172
 468,71;18136,208;  307,998;16047,060;113,27365
 469,29;17781,921;  292,522;15741,525;113,20729
 469,88;17448,186;  304,978;15485,809;112,92668
 470,47;17535,217;  365,660;15586,201;112,80517
 471,06;17571,213;  324,429;15519,925;113,49932
 471,64;17627,382;  326,201;15704,611;112,50305
 472,23;17715,450;  295,565;15640,551;113,52168
 472,81;17817,667;  286,575;15786,318;113,10570
 473,40;17970,133;  296,719;15978,350;112,70137
 473,99;18209,650;  417,565;16199,915;112,73406
 474,57;18344,675;  316,181;16243,164;113,19466
 475,16;18542,365;  313,035;16521,341;112,46907
 475,75;18728,843;  331,635;16626,222;112,90380
 476,33;18896,029;  343,704;16768,516;112,95304
 476,92;18874,973;  333,871;16829,755;112,39835
 477,51;18971,811;  319,784;16902,322;112,47993
 478,09;19067,614;  327,553;16982,606;112,51877
 478,68;18841,122;  334,627;16808,872;112,33592
 479,27;18993,350;  351,788;16917,741;112,52937
 479,85;18969,615;  322,320;16913,123;112,39537
 480,44;19056,306;  309,393;17056,628;111,94035
 481,02;20758,039;  327,540;18513,781;112,34042
 481,61;23577,201;  360,389;21025,696;112,34681
 482,20;25179,946;  335,847;22425,425;112,46978
 482,78;26353,940;  368,240;23457,996;112,54212
 483,37;27078,210;  345,836;24077,235;112,64559
 483,95;27391,985;  386,219;24441,950;112,26333
 484,54;27657,511;  378,467;24717,477;112,07951
 485,13;27526,151;  335,441;24580,842;112,14790
 485,71;27236,488;  311,521;24299,731;112,24251
 486,30;26788,907;  374,213;24015,246;111,73240
 486,88;26259,127;  425,210;23631,682;111,32204
 487,47;25296,501;  376,670;22763,964;111,31239
 488,05;24097,220;  367,358;21754,751;110,95257
 488,64;22311,461;  368,042;20199,995;110,64679
 489,23;19918,330;  367,509;18030,057;110,69083
 489,81;16872,068;  370,045;15402,136;109,77863
 490,40;15922,852;  328,890;14590,975;109,33859
 490,98;15634,938;  321,809;14267,450;109,80585
 491,57;15464,707;  341,816;14131,813;109,66566
 492,15;15370,711;  324,423;14086,901;109,32834
 492,74;15202,711;  334,434;13926,221;109,39163
 493,32;15016,244;  346,425;13829,647;108,80055
 493,91;14835,947;  322,496;13679,484;108,65811
 494,50;14769,995;  322,943;13664,540;108,28578
 495,08;14655,224;  308,713;13605,891;107,89140
 495,67;14648,641;  342,805;13563,727;108,20605
 496,25;14459,141;  291,874;13466,176;107,53714
 496,84;14435,821;  285,267;13420,976;107,72585
 497,42;14279,483;  286,486;13343,746;107,16642
 498,01;14166,073;  309,265;13274,048;106,88037
 498,59;14061,789;  276,947;13162,195;106,98158
 499,18;13966,982;  288,341;13136,494;106,46387
 499,76;13927,586;  317,720;13043,589;106,94646
 500,35;13634,472;  306,324;12773,862;106,90280
 500,93;13551,103;  288,641;12779,560;106,17683
 501,52;13427,574;  286,178;12588,629;106,81933
 502,10;13361,289;  303,703;12636,336;105,87833
 502,69;13126,972;  279,852;12413,289;105,88196
 503,27;12856,607;  265,866;12229,110;105,24521
 503,86;12767,093;  300,392;12150,983;105,19898
 504,44;12650,589;  269,080;12010,806;105,44880
 505,03;12313,925;  255,156;11632,165;105,99243
 505,61;12112,254;  271,466;11502,732;105,42701
 506,19;11841,138;  282,695;11342,775;104,50595
 506,78;11702,506;  263,069;11183,407;104,75351
 507,36;11459,252;  268,465;10923,259;105,03054
 507,95;11176,332;  270,064;10747,971;104,08822
 508,53;11042,110;  262,839;10596,711;104,31009
 509,12;10860,113;  274,220;10401,645;104,52699
 509,70;10630,032;  290,602;10229,006;104,03511
 510,29;10430,518;  298,520;10023,243;104,18803
 510,87;10166,055;  255,146; 9835,838;103,44669
 511,46; 9914,451;  255,144; 9684,786;102,43556
 512,04; 9768,284;  269,292; 9522,309;102,65832
 512,62; 9558,638;  276,836; 9324,609;102,58659
 513,21; 9317,821;  246,981; 9118,737;102,24403
 513,79; 9112,562;  256,657; 8968,660;101,65176
 514,38; 8922,239;  243,124; 8798,316;101,44852
 514,96; 8767,918;  295,586; 8726,279;100,49390
 515,54; 8521,339;  246,813; 8437,575;101,02267
 516,13; 8472,436;  272,966; 8373,229;101,22474
 516,71; 8262,393;  259,805; 8248,457;100,17445
 517,30; 8053,112;  252,953; 8153,958;98,72362
 517,88; 7940,555;  274,415; 8019,184;98,98475
 518,46; 7744,135;  240,028; 7865,909;98,40314
 519,05; 7691,268;  262,869; 7837,551;98,06879
 519,63; 7617,300;  263,795; 7737,088;98,39712
 520,22; 7533,282;  275,631; 7659,763;98,28713
 520,80; 7442,345;  245,706; 7557,517;98,42485
 521,38; 7392,303;  300,253; 7530,946;98,08258
 521,97; 7336,863;  256,394; 7503,851;97,69591
 522,55; 7252,780;  269,779; 7471,465;96,96342
 523,13; 7200,053;  255,390; 7455,608;96,45074
 523,72; 7190,732;  243,720; 7425,904;96,72562
 524,30; 7287,224;  287,924; 7581,887;95,96018
 524,89; 7251,002;  250,008; 7519,759;96,30309
 525,47; 7389,740;  257,230; 7685,089;96,02377
 526,05; 7425,941;  232,306; 7762,102;95,53559
 526,64; 7525,465;  276,611; 7877,186;95,37245
 527,22; 7695,756;  261,846; 8028,138;95,72020
 527,80; 7782,596;  307,842; 8103,564;95,88277
 528,39; 7839,001;  257,838; 8200,041;95,45415
 528,97; 8013,715;  245,532; 8394,916;95,32234
 529,55; 8175,185;  272,083; 8561,096;95,34431
 530,14; 8361,079;  280,143; 8783,866;95,02822
 530,72; 8467,210;  253,917; 8925,662;94,71327
 531,30; 8573,912;  234,373; 9110,697;93,95262
 531,89; 8671,549;  255,604; 9167,824;94,43152
 532,47; 8716,160;  282,601; 9262,492;93,91604
 533,05; 8733,793;  286,073; 9352,202;93,17890
 533,63; 8754,828;  284,215; 9400,892;92,91338
 534,22; 8739,680;  253,215; 9447,509;92,30143
 534,80; 8838,852;  278,746; 9529,227;92,53687
 535,38; 8949,826;  374,064; 9710,376;91,85386
 535,97; 8807,171;  257,139; 9608,265;91,43318
 536,55; 8833,250;  300,053; 9692,187;90,85472
 537,13; 8770,657;  299,373; 9615,767;90,92879
 537,71; 8747,594;  327,067; 9695,551;89,88143
 538,30; 8791,165;  324,443; 9796,845;89,38305
 538,88; 8860,330;  360,355; 9909,605;89,01197
 539,46; 9011,538;  409,054;10099,918;88,76901
 540,05; 9050,236;  397,358;10193,732;88,32735
 540,63; 9205,814;  432,434;10448,326;87,59459
 541,21; 9310,880;  442,738;10683,091;86,59996
 541,79; 9319,825;  456,430;10800,526;85,68554
 542,38; 9452,942;  488,820;10982,670;85,42262
 542,96; 9609,153;  479,655;11143,102;85,61488
 543,54; 9744,921;  505,739;11346,235;85,22841
 544,12; 9891,004;  471,352;11547,335;85,04574
 544,70; 9911,330;  454,654;11663,109;84,37092
 545,29;10003,234;  463,589;11835,006;83,89143
 545,87;10015,440;  469,661;11863,603;83,77943
 546,45; 9968,309;  436,744;11875,588;83,32629
 547,03;10038,324;  419,048;11917,757;83,65527
 547,62;10112,497;  386,968;12101,509;83,02100
 548,20;10286,041;  418,579;12279,323;83,19429
 548,78;10285,446;  381,564;12405,865;82,36555
 549,36;10448,827;  363,720;12594,645;82,45580
 549,94;10515,238;  321,581;12759,556;81,95592
 550,53;10700,453;  347,876;13046,439;81,52557
 551,11;10848,349;  310,639;13202,562;81,73885
 551,69;11101,529;  332,489;13521,845;81,64947
 552,27;11230,944;  281,033;13820,327;80,87505
 552,85;11584,546;  294,562;14147,047;81,50150
 553,44;11765,699;  301,105;14551,817;80,44927
 554,02;11955,996;  319,180;14945,715;79,55962
 554,60;12236,999;  251,792;15256,803;79,87470
 555,18;12512,002;  297,412;15642,772;79,59794
 555,76;12735,101;  282,103;16070,228;78,87572
 556,34;13012,107;  288,325;16493,734;78,51565
 556,93;13314,586;  279,258;16897,367;78,44050
 557,51;13502,580;  262,786;17261,814;77,88559
 558,09;13777,734;  297,643;17660,827;77,63606
 558,67;14029,701;  283,935;18064,453;77,30802
 559,25;14239,189;  293,553;18379,680;77,10681
 559,83;14467,815;  289,239;18741,441;76,83948
 560,41;14621,728;  252,173;19102,714;76,22888
 561,00;14896,372;  280,089;19507,787;76,01681
 561,58;15010,606;  272,173;19840,119;75,31927
 562,16;15205,739;  251,638;20092,333;75,37085
 562,74;15395,002;  233,410;20508,024;74,78116
 563,32;15711,781;  238,239;21016,156;74,47109
 563,90;15947,344;  271,012;21474,043;73,93439
 564,48;16155,273;  260,713;21907,540;73,42674
 565,06;16566,924;  266,782;22562,956;73,10735
 565,65;17086,234;  271,386;23334,054;72,90938
 566,23;17542,378;  305,473;24195,019;72,15250
 566,81;18100,848;  257,784;25032,319;72,02179
 567,39;18637,418;  266,084;26019,305;71,33606
 567,97;19066,615;  288,860;26788,384;70,86072
 568,55;19589,407;  315,624;27659,588;70,48643
 569,13;19997,005;  282,012;28440,792;70,01366
 569,71;20670,936;  265,485;29502,434;69,79337
 570,29;21288,525;  316,643;30731,185;68,95347
 570,87;21767,576;  296,025;31492,880;68,82601
 571,45;22085,634;  278,782;32273,499;68,15767
 572,03;22314,939;  244,390;32821,783;67,74805
 572,61;22705,192;  234,779;33581,636;67,38390
 573,20;23088,416;  267,093;34325,998;67,00545
 573,78;23442,117;  249,086;35037,977;66,66792
 574,36;23607,557;  271,011;35670,059;65,92422
 574,94;23868,228;  339,235;36070,492;65,84989
 575,52;23805,609;  250,610;36282,643;65,37238
 576,10;24065,545;  308,152;36963,834;64,81230
 576,68;24274,548;  273,313;37532,704;64,41660
 577,26;24549,399;  290,914;38402,890;63,65056
 577,84;24865,531;  293,087;38976,887;63,52128
 578,42;24904,273;  352,924;39291,417;63,05162
 579,00;24848,067;  270,393;39393,952;62,82065
 579,58;24786,212;  335,696;39679,751;62,14539
 580,16;24621,018;  278,154;39659,662;61,81293
 580,74;24593,866;  273,768;39791,234;61,54266
 581,32;24462,281;  286,387;39900,661;61,02824
 581,90;24238,419;  303,385;39909,788;60,43223
 582,48;24179,354;  283,308;39897,022;60,32266
 583,06;24149,329;  285,080;40076,268;59,97370
 583,64;24048,711;  273,465;40149,927;59,62226
 584,22;23663,421;  270,608;39925,227;58,99140
 584,80;23405,362;  279,693;39600,651;58,81258
 585,38;22898,551;  298,710;39153,421;58,16499
 585,96;22777,351;  258,238;39216,506;57,80317
 586,54;22609,923;  285,841;39070,183;57,55952
 587,12;22593,051;  259,382;39233,583;57,30373
 587,70;22557,738;  297,007;39368,693;56,97407
 588,28;22315,941;  274,844;39446,530;56,26793
 588,86;22257,962;  274,150;39449,217;56,11685
 589,44;22029,718;  261,217;39444,321;55,55583
 590,02;22017,750;  268,681;39733,089;55,11059
 590,59;21994,169;  241,610;39836,924;54,93721
 591,17;21937,319;  256,746;40021,272;54,52240
 591,75;21811,963;  250,752;40263,182;53,88628
 592,33;21890,577;  269,908;40397,974;53,87917
 592,91;21851,176;  226,364;40687,067;53,44646
 593,49;21907,122;  244,975;41020,424;53,12546
 594,07;21890,214;  268,436;41229,934;52,78561
 594,65;21732,469;  271,609;41226,449;52,40128
 595,23;21705,557;  263,451;41679,496;51,77246
 595,81;21686,903;  246,756;41820,572;51,57127
 596,39;21593,927;  243,832;41948,117;51,19401
 596,97;21538,274;  248,287;42077,886;50,89694
 597,55;21282,892;  242,837;42066,449;50,30664
 598,12;21103,622;  230,357;41993,116;49,98057
 598,70;21058,625;  237,978;42164,393;49,65998
 599,28;20952,246;  260,054;42337,087;49,17693
 599,86;20773,349;  233,670;42309,566;48,81578
 600,44;20627,960;  210,052;42490,235;48,29191
 601,02;20547,983;  268,734;42543,075;47,97059
 601,60;20336,794;  244,059;42515,595;47,53254
 602,18;20223,368;  215,511;42408,879;47,41943
 602,75;20087,209;  210,988;42590,385;46,90067
 603,33;19883,840;  237,670;42588,806;46,38877
 603,91;19752,797;  209,276;42485,132;46,22856
 604,49;19599,473;  245,669;42728,426;45,55685
 605,07;19467,776;  242,060;42636,052;45,35010
 605,65;19388,001;  238,436;42830,708;44,96019
 606,23;19306,177;  274,765;42935,861;44,61070
 606,80;19170,615;  285,219;42912,743;44,30329
 607,38;19073,612;  286,662;42991,091;43,99298
 607,96;18831,862;  300,526;42986,330;43,41335
 608,54;18732,792;  363,128;43156,066;42,92686
 609,12;18564,467;  340,295;43191,052;42,52941
 609,70;18466,128;  340,594;43202,306;42,28841
 610,27;18342,519;  345,835;43276,705;41,92015
 610,85;18249,545;  361,825;43401,480;41,56102
 611,43;18039,751;  353,747;43288,725;41,19253
 612,01;17755,993;  316,830;43065,015;40,79510
 612,59;17640,870;  325,517;43091,254;40,48885
 613,16;17439,323;  306,762;42987,023;40,14165
 613,74;17236,154;  306,593;42923,730;39,72477
 614,32;17055,936;  292,743;42904,712;39,33917
 614,90;16892,226;  283,212;42768,301;39,09375
 615,48;16582,920;  261,530;42346,424;38,78206
 616,05;16504,100;  245,840;42366,190;38,59954
 616,63;16209,895;  268,150;42115,264;38,09521
 617,21;15997,953;  265,835;42047,576;37,65309
 617,79;15829,345;  244,602;41977,402;37,34411
 618,36;15620,952;  268,445;41777,871;36,98559
 618,94;15332,466;  213,144;41495,536;36,62414
 619,52;15100,937;  245,995;41185,045;36,28551
 620,10;14973,913;  215,218;41131,081;36,07084
 620,67;14734,132;  230,919;41037,035;35,54176
 621,25;14564,228;  251,675;40899,928;35,21075
 621,83;14411,032;  240,913;40822,972;34,91720
 622,41;14244,756;  289,837;40782,992;34,46241
 622,98;13971,527;  246,766;40504,620;34,09213
 623,56;13858,661;  254,229;40502,351;33,80141
 624,14;13694,097;  241,365;40371,341;33,52290
 624,72;13513,076;  235,990;40270,150;33,16439
 625,29;13382,974;  230,536;40358,353;32,77636
 625,87;13308,477;  265,371;40282,813;32,59355
 626,45;13104,525;  222,461;40096,950;32,30653
 627,02;12928,067;  246,370;39970,025;31,92480
 627,60;12814,360;  222,207;39961,053;31,68727
 628,18;12669,467;  205,449;39980,206;31,33650
 628,76;12569,836;  211,458;39942,192;31,10534
 629,33;12491,867;  250,839;40010,486;30,78757
 629,91;12347,682;  224,834;39990,235;30,48592
 630,49;12340,962;  253,148;40173,239;30,28003
 631,06;12200,250;  242,688;40285,739;29,86177
 631,64;12061,681;  238,460;40251,522;29,54840
 632,22;11930,616;  211,772;40109,559;29,37217
 632,79;11901,545;  253,310;40497,330;28,94402
 633,37;11812,005;  217,061;40489,172;28,79150
 633,95;11723,563;  233,307;40600,433;28,46439
 634,52;11565,784;  223,606;40657,660;28,05105
 635,10;11540,955;  236,219;40636,225;27,98202
 635,68;11485,952;  240,079;40879,534;27,67230
 636,25;11379,152;  214,623;40865,833;27,46420
 636,83;11284,913;  202,227;41155,346;27,06189
 637,41;11217,662;  228,542;41104,902;26,88380
 637,98;11191,562;  258,235;41412,510;26,56668
 638,56;11092,543;  233,010;41362,044;26,40357
 639,13;11012,355;  218,228;41408,000;26,20584
 639,71;11018,080;  290,687;41663,075;25,92887
 640,29;10742,177;  189,687;41416,880;25,59594
 640,86;10707,337;  215,072;41597,874;25,35417
 641,44;10611,575;  223,302;41674,714;25,06132
 642,02;10508,505;  232,994;41648,400;24,81084
 642,59;10440,281;  214,532;41768,856;24,60815
 643,17;10342,133;  212,532;41708,157;24,41125
 643,74;10291,756;  205,762;41839,074;24,22578
 644,32;10155,762;  240,916;41693,607;23,91846
 644,89;10101,923;  233,762;41793,985;23,74424
 645,47; 9987,776;  241,454;41750,364;23,48007
 646,05; 9916,706;  236,530;41647,204;23,37604
 646,62; 9736,712;  230,838;41632,352;22,96021
 647,20; 9639,642;  233,145;41912,576;22,56868
 647,77; 9564,495;  209,991;41661,262;22,56747
 648,35; 9429,117;  205,606;41558,564;22,30436
 648,92; 9346,124;  210,144;41568,558;22,08977
 649,50; 9251,823;  197,452;41435,244;21,95649
 650,08; 9123,445;  199,913;41342,700;21,68918
 650,65; 9069,067;  201,836;41655,540;21,39069
 651,23; 9118,843;  186,066;42456,149;21,13262
 651,80; 9278,004;  190,066;43651,758;20,91023
 652,38; 9273,242;  205,912;44067,290;20,67270
 652,95; 9294,787;  185,219;44492,438;20,56001
 653,53; 9273,486;  218,450;44825,355;20,29963
 654,10; 9250,416;  252,526;44913,503;20,14709
 654,68; 9097,115;  203,064;44812,497;19,93760
 655,25; 9055,737;  183,833;45006,568;19,79331
 655,83; 8963,974;  185,910;45010,100;19,58332
 656,40; 8947,750;  230,217;45074,863;19,43941
 656,98; 8819,680;  205,371;44870,934;19,28624
 657,55; 8749,533;  208,371;44806,620;19,15134
 658,13; 8548,694;  220,063;44368,691;18,86498
 658,70; 8436,854;  224,293;44015,300;18,75399
 659,28; 8156,553;  203,293;42999,756;18,58392
 659,85; 7931,483;  235,908;42135,903;18,36653
 660,43; 7912,798;  235,985;42116,820;18,33013
 661,00; 7810,035;  201,754;42242,045;18,09759
 661,58; 7789,042;  200,138;42595,193;17,90045
 662,15; 7800,203;  187,368;42820,879;17,85646
 662,73; 7831,825;  268,522;43137,796;17,64271
 663,30; 7761,370;  210,522;43324,944;17,51351
 663,88; 7728,530;  211,137;43483,476;17,37228
 664,45; 7658,845;  205,136;43745,778;17,11897
 665,03; 7683,236;  203,982;44151,541;17,01859
 665,60; 7767,782;  312,597;44532,842;16,85921
 666,17; 7667,173;  199,366;44733,375;16,76877
 666,75; 7678,103;  190,981;45084,753;16,67742
 667,32; 7732,802;  232,827;45466,286;16,58059
 667,90; 7673,655;  212,827;45814,818;16,36075
 668,47; 7663,123;  216,365;46034,812;16,25275
 669,05; 7702,668;  197,057;46393,652;16,24711
 669,62; 7621,367;  181,134;46427,800;16,08815
 670,19; 7583,297;  174,826;46592,409;15,96048
 670,77; 7561,765;  207,441;46742,326;15,80390
 671,34; 7482,926;  190,056;46687,474;15,68446
 671,92; 7471,240;  180,209;47078,391;15,54651
 672,49; 7466,247;  225,594;47184,615;15,41909
 673,06; 7394,177;  176,824;47107,994;15,37859
 673,64; 7343,261;  180,978;47107,526;15,26275
 674,21; 7307,498;  177,516;47029,135;15,21822
 674,79; 7277,351;  215,439;47384,514;14,97149
 675,36; 7268,666;  218,054;47427,277;14,93482
 675,93; 7214,903;  192,746;47219,425;14,93228
 676,51; 7226,910;  217,669;47490,726;14,82714
 677,08; 7148,378;  202,668;47441,028;14,70354
 677,65; 7134,462;  203,976;47746,253;14,57752
 678,23; 7149,084;  203,360;47852,708;14,57674
 678,80; 7113,706;  203,975;47992,471;14,45898
 679,38; 7131,021;  201,206;48148,696;14,45293
 679,95; 7155,489;  214,898;48439,228;14,39230
 680,52; 7112,034;  200,436;48748,607;14,23658
 681,10; 7197,964;  210,512;49157,370;14,27559
 681,67; 7178,971;  220,435;49519,441;14,11496
 682,24; 7198,824;  177,743;49480,742;14,24068
 682,82; 7186,830;  194,512;50159,044;13,99456
 683,39; 7285,145;  251,204;50406,269;14,02439
 683,96; 7242,536;  205,280;50721,878;13,93058
 684,54; 7283,543;  182,049;51152,949;13,93245
 685,11; 7333,319;  251,587;51550,635;13,80480
 685,68; 7380,095;  198,664;51875,936;13,89669
 686,25; 7280,871;  181,433;52115,315;13,67015
 686,83; 7318,108;  202,433;52100,847;13,71078
 687,40; 7338,038;  183,586;52541,457;13,66452
 687,97; 7413,353;  239,432;52955,143;13,60870
 688,55; 7367,359;  189,739;53129,521;13,55808
 689,12; 7372,905;  162,585;53432,054;13,53556
 689,69; 7376,604;  185,277;53480,201;13,49345
 690,26; 7378,303;  199,585;53416,503;13,48954
 690,84; 7413,540;  203,584;53664,574;13,48639
 691,41; 7379,624;  225,507;53752,798;13,36536
 691,98; 7414,554;  206,199;54093,331;13,37676
 692,56; 7406,253;  198,353;54188,786;13,35033
 693,13; 7459,106;  248,506;54337,780;13,33092
 693,70; 7412,805;  220,583;54451,851;13,26213
 694,27; 7412,273;  194,506;54675,076;13,24833
 694,84; 7433,280;  186,275;54652,223;13,30557
 695,42; 7480,133;  249,274;54733,140;13,27156
 695,99; 7449,909;  210,966;54942,288;13,22633
 696,56; 7457,146;  219,581;54864,744;13,24466
 697,13; 7544,307;  224,966;55168,276;13,32162
 697,71; 7500,544;  202,581;55269,501;13,25290
 698,28; 7507,320;  196,965;55665,648;13,17925
 698,85; 7559,404;  164,349;55652,873;13,32718
 699,42; 7561,026;  175,964;55837,175;13,26788
 699,99; 7622,033;  223,733;55935,707;13,27955
 700,57; 7648,270;  216,810;56009,085;13,31987
 701,14; 7646,739;  195,041;56150,541;13,31719
 701,71; 7676,053;  219,656;56429,842;13,26521
 702,28; 7689,983;  202,194;56409,529;13,32173
 702,85; 7721,682;  203,578;56510,523;13,35200
 703,43; 7795,227;  227,809;56596,978;13,42475
 704,00; 7801,465;  227,501;56979,357;13,34576
 704,57; 7790,856;  196,654;56899,427;13,39300
 705,14; 7853,632;  229,423;57299,114;13,35947
 705,71; 7870,716;  231,038;57249,569;13,39859
 706,28; 7888,723;  204,576;57169,871;13,48917
 706,86; 7955,422;  237,114;57404,249;13,50130
 707,43; 7942,505;  272,114;57388,089;13,42950
 708,00; 7922,281;  242,268;57321,698;13,45496
 708,57; 7951,673;  202,037;57222,846;13,59089
 709,14; 8044,526;  223,652;57421,071;13,67347
 709,71; 8047,763;  201,575;57612,603;13,66669
 710,28; 8135,924;  217,651;57759,136;13,76098
 710,86; 8161,315;  209,574;57813,745;13,80411
 711,43; 8199,783;  238,343;57849,277;13,81932
 712,00; 8159,790;  212,496;57968,963;13,76001
 712,57; 8301,874;  245,112;58123,650;13,92012
 713,14; 8272,958;  207,419;58235,182;13,89945
 713,71; 8286,734;  233,111;58138,637;13,90821
 714,28; 8351,048;  221,188;58170,324;14,02930
 714,85; 8323,209;  209,726;57925,241;14,05772
 715,42; 8389,677;  207,649;58101,234;14,13288
 716,00; 8530,068;  311,879;58248,382;14,18482
 716,57; 8488,690;  220,725;58306,761;14,23400
 717,14; 8504,543;  222,340;58310,908;14,25789
 717,71; 8527,627;  204,109;58327,210;14,32050
 718,28; 8617,711;  251,724;58485,589;14,36619
 718,85; 8624,794;  199,647;58430,429;14,46855
 719,42; 8690,570;  238,646;58705,422;14,45594
 719,99; 8677,192;  204,185;58397,109;14,56020
 720,56; 8797,738;  243,723;58726,256;14,62661
 721,13; 8875,668;  204,184;58891,173;14,77582
 721,70; 8910,520;  199,414;58717,244;14,88624
 722,27; 8961,835;  237,030;58728,084;14,91648
 722,84; 9152,765;  287,337;58954,847;15,11131
 723,41; 9097,925;  191,644;58861,226;15,18041
 723,98; 9190,086;  214,490;59115,527;15,23843
 724,55; 9291,477;  247,336;59227,291;15,33426
 725,12; 9271,715;  166,336;59275,669;15,40430
 725,69; 9422,183;  205,720;59482,432;15,54820
 726,27; 9529,805;  217,104;59381,580;15,74036
 726,84; 9656,043;  219,181;59790,728;15,84122
 727,41; 9732,357;  248,950;59758,260;15,93601
 727,98; 9782,133;  237,642;60177,562;15,92343
 728,55; 9894,832;  269,334;59999,633;16,11493
 729,12; 9953,762;  211,488;60105,857;16,26576
 729,69;10054,230;  233,641;60246,159;16,36423
 730,26;10129,083;  231,333;60551,153;16,40879
 730,82;10146,090;  226,717;60242,839;16,52785
 731,39;10253,635;  221,179;60448,448;16,65766
 731,96;10350,334;  202,563;60680,673;16,77925
 732,53;10553,495;  225,255;60965,205;17,00403
 733,10;10597,425;  238,101;61138,430;17,01029
 733,67;10726,047;  233,716;61312,962;17,17823
 734,24;10695,515;  208,946;60974,879;17,25732
 734,81;10835,830;  250,715;61014,565;17,42008
 735,38;10844,990;  223,177;60774,713;17,54177
 735,95;10899,459;  216,253;60544,707;17,70840
 736,52;11003,235;  228,714;60737,239;17,80661
 737,09;11018,164;  239,099;60437,156;17,90600
 737,66;11157,710;  282,868;60610,843;18,02620
 738,23;11240,332;  226,637;60659,913;18,22455
 738,80;11376,877;  312,713;61133,138;18,19153
 739,37;11420,576;  249,636;61151,440;18,34254
 739,94;11557,198;  224,174;61236,049;18,57511
 740,51;11768,589;  378,405;61342,350;18,68348
 741,07;11708,289;  233,404;61234,037;18,81109
 741,64;11857,372;  253,635;61475,954;18,95344
 742,21;11990,379;  243,096;61487,255;19,18107
 742,78;12029,463;  201,865;61203,557;19,38897
 743,35;12190,623;  228,788;61644,551;19,47682
 743,92;12361,245;  267,711;61799,852;19,65401
 744,49;12430,791;  273,095;61586,154;19,82888
 745,06;12449,105;  233,018;61602,532;19,90579
 745,63;12534,573;  211,710;61548,911;20,09036
 746,19;12650,349;  224,556;61547,828;20,26277
 746,76;12788,048;  241,401;61671,976;20,42411
 747,33;12855,824;  224,324;61610,893;20,57698
 747,90;12984,062;  253,939;61811,579;20,68000
 748,47;13117,376;  237,324;61720,880;20,94878
 749,04;13187,614;  236,477;61735,720;21,05902
 749,61;13322,159;  272,862;61687,022;21,24803
 750,17;13412,320;  274,169;61712,247;21,38438
 750,74;13493,480;  242,246;61661,702;21,57498
 751,31;13553,718;  219,014;61678,234;21,69683
 751,88;13622,802;  204,783;61478,690;21,89842
 752,45;13774,039;  225,860;61681,915;22,04531
 753,02;13848,584;  259,091;61501,755;22,18959
 753,58;13917,206;  226,244;61449,902;22,36221
 754,15;14108,752;  227,013;61555,666;22,63500
 754,72;14121,297;  220,090;61234,506;22,78348
 755,29;14188,842;  200,628;61164,653;22,94503
 755,86;14346,926;  235,320;61458,032;23,04963
 756,42;14439,471;  259,089;61205,564;23,26694
 756,99;14486,708;  195,550;61184,327;23,43244
 757,56;14646,946;  210,550;61123,552;23,70002
 758,13;14639,645;  183,396;61024,930;23,76049
 758,70;14870,344;  209,472;61085,078;24,08333
 759,26;14940,505;  206,241;61143,457;24,17942
 759,83;15108,819;  216,010;61259,835;24,39691
 760,40;15190,211;  193,856;60955,598;24,68059
 760,97;15278,602;  196,240;61145,669;24,74570
 761,53;15342,609;  191,855;60667,125;25,05281
 762,10;15394,615;  170,163;60646,965;25,17404
 762,67;15569,468;  212,701;60721,805;25,37927
 763,24;15504,244;  176,854;60169,491;25,54879
 763,80;15727,328;  215,239;60354,408;25,79365
 764,37;15778,873;  202,315;60257,786;25,93695
 764,94;15725,265;  190,084;59855,396;26,03721
 765,50;15810,656;  200,546;59891,774;26,15143
 766,07;16018,817;  221,468;59820,076;26,50624
 766,64;16036,362;  200,853;59542,147;26,68548
 767,21;16116,522;  207,160;59496,371;26,83349
 767,77;16190,221;  225,160;59327,596;27,01253
 768,34;16311,382;  227,390;59309,821;27,22297
 768,91;16388,927;  238,082;59146,353;27,41694
 769,47;16438,472;  230,620;59197,885;27,48619
 770,04;16663,095;  234,159;59072,802;27,92202
 770,61;16648,794;  210,158;58792,181;28,06089
 771,18;16740,723;  218,696;58710,329;28,24682
 771,74;16922,653;  226,312;58958,399;28,42797
 772,31;16988,737;  232,927;58739,701;28,63909
 772,88;17016,667;  192,542;58311,310;28,94783
 773,44;17138,904;  208,618;58177,304;29,20592
 774,01;17213,834;  237,387;58317,606;29,22931
 774,58;17250,764;  210,310;57905,061;29,53554
 775,14;17499,848;  201,079;58134,440;29,85977
 775,71;17594,931;  196,848;57962,664;30,11830
 776,27;17720,169;  281,694;57820,658;30,30725
 776,84;17893,329;  325,770;57942,729;30,49026
 777,41;17970,644;  228,309;57712,800;30,86456
 777,97;17926,958;  219,924;57490,563;30,91817
 778,54;18070,042;  228,077;57455,018;31,17756
 779,11;18248,587;  258,308;57537,012;31,40832
 779,67;18378,132;  220,769;57381,006;31,76572
 780,24;18423,216;  234,307;57179,616;31,94101
 780,80;18573,454;  252,538;57198,686;32,17235
 781,37;18659,460;  246,768;57157,911;32,35340
 781,94;18614,236;  233,922;56900,982;32,43562
 782,50;18850,012;  228,767;56857,360;32,88311
 783,07;18944,173;  256,690;56928,047;32,97518
 783,63;19008,411;  231,151;56640,963;33,28722
 784,20;19136,187;  261,997;56608,727;33,49651
 784,77;19083,347;  238,151;56367,105;33,57482
 785,33;19209,662;  207,228;56149,484;33,96794
 785,90;19337,207;  231,535;56080,016;34,20983
 786,46;19434,675;  257,381;56036,087;34,38103
 787,03;19393,220;  221,457;55744,850;34,52916
 787,59;19494,842;  224,149;55683,152;34,74764
 788,16;19582,234;  245,457;55596,915;34,93454
 788,73;19695,164;  250,303;55503,139;35,19251
 789,29;19666,786;  225,764;55116,133;35,41791
 789,86;19809,793;  276,379;54994,127;35,69850
 790,42;19916,569;  246,686;54897,890;35,99167
 790,99;19870,960;  245,840;54468,269;36,19373
 791,55;20055,736;  231,378;54523,263;36,51440
 792,12;20194,666;  265,762;54447,795;36,78139
 792,68;20196,826;  244,993;54199,635;36,97890
 793,25;20275,448;  260,531;53951,014;37,27833
 793,81;20337,609;  337,223;53469,931;37,64232
 794,38;20245,616;  214,069;53287,771;37,74289
 794,94;20375,007;  226,684;53089,995;38,11400
 795,51;20382,399;  252,068;52963,912;38,18939
 796,07;20381,405;  244,453;52556,214;38,49412
 796,64;20536,027;  270,914;52788,977;38,58694
 797,20;20463,650;  242,375;52175,894;38,93685
 797,77;20479,579;  219,452;51855,349;39,23652
 798,33;20481,048;  250,451;51727,651;39,30011
 798,90;20602,131;  264,143;51666,260;39,56644
 799,46;20509,292;  222,220;51127,408;39,85266
 800,03;20618,914;  239,220;51086,556;40,08016
 800,59;20579,767;  256,527;50791,934;40,21584
 801,15;20575,697;  262,373;50645,082;40,31805
 801,72;20552,319;  239,296;50239,922;40,62554
 802,28;20498,864;  260,757;49976,916;40,70730
 802,85;20571,948;  249,449;49804,602;41,00986
 803,41;20629,493;  226,987;49520,442;41,38989
 803,98;20501,115;  232,987;49081,128;41,49212
 804,54;20510,045;  247,064;48817,584;41,71868
 805,11;20483,360;  265,909;48568,578;41,85576
 805,67;20562,905;  265,294;48496,802;42,08372
 806,23;20424,912;  254,678;48113,642;42,14515
 806,80;20622,457;  270,909;47901,790;42,72763
 807,36;20700,925;  261,062;47824,015;42,97434
 807,93;20787,701;  285,446;47622,701;43,31103
 808,49;20663,785;  229,138;47175,464;43,52768
 809,05;20641,484;  230,830;47043,073;43,60110
 809,62;20742,644;  264,907;46914,375;43,89704
 810,18;20831,574;  251,907;46860,907;44,15385
 810,74;20797,350;  220,445;46486,132;44,47552
 811,31;20850,511;  222,522;46325,049;44,74373
 811,87;20885,748;  258,598;46123,812;44,97341
 812,44;20949,755;  266,290;46084,806;45,14215
 813,00;20918,146;  203,598;45838,492;45,39191
 813,56;21125,384;  257,213;45856,178;45,76457
 814,13;21158,391;  245,905;45853,095;45,85348
 814,69;21191,936;  241,597;45567,474;46,22159
 815,25;21164,020;  216,135;45001,699;46,77374
 815,82;21199,872;  254,904;44987,308;46,82281
 816,38;21278,187;  289,904;44849,609;47,10149
 816,94;21202,655;  234,980;44529,142;47,33733
 817,51;21242,431;  219,672;44262,443;47,73260
 818,07;21211,438;  232,287;43942,591;47,99589
 818,63;21236,983;  239,595;43801,893;48,20083
 819,20;21353,682;  249,441;43702,271;48,56816
 819,76;21206,766;  223,440;43231,188;48,78964
 820,32;21278,927;  275,209;43110,413;49,03377
 820,89;21385,779;  252,824;42955,022;49,48915
 821,45;21259,171;  234,516;42550,862;49,68448
 822,01;21309,562;  255,285;42356,702;50,00848
 822,57;21401,800;  257,208;42212,927;50,39740
 823,14;21303,883;  214,054;41866,998;50,63227
 823,70;21340,659;  240,361;41616,761;50,99597
 824,26;21271,589;  213,438;41400,678;51,12785
 824,82;21480,750;  265,976;41279,672;51,72607
 825,39;21262,141;  232,437;40941,666;51,65832
 825,95;21452,763;  242,129;41110,583;51,89977
 826,51;21380,847;  250,667;40510,961;52,48392
 827,08;21491,546;  286,283;40593,032;52,60971
 827,64;21468,245;  261,359;40360,026;52,88676
 828,20;21460,790;  221,743;40133,635;53,21483
 828,76;21536,182;  269,820;40193,398;53,26767
 829,32;21579,342;  276,358;39973,469;53,66381
 829,89;21524,503;  224,743;39838,232;53,76896
 830,45;21636,125;  247,742;39738,226;54,16085
 831,01;21712,132;  241,204;39576,143;54,58488
 831,57;21734,908;  237,126;39425,522;54,85752
 832,14;21833,453;  230,203;39358,285;55,21163
 832,70;21741,460;  213,433;39137,432;55,30785
 833,26;21830,697;  198,125;39029,811;55,70856
 833,82;21883,627;  243,510;38898,420;55,98284
 834,38;21918,634;  228,048;38980,568;55,97207
 834,95;21983,256;  215,278;38781,562;56,44303
 835,51;21969,186;  191,663;38626,402;56,66104
 836,07;22118,962;  238,124;38760,319;56,80060
 836,63;22213,969;  248,354;38652,005;57,19668
 837,19;22227,975;  252,970;38504,614;57,44853
 837,75;22116,290;  207,277;38093,608;57,82828
 838,32;22347,220;  253,123;38318,448;58,04258
 838,88;22491,842;  251,122;38316,135;58,42825
 839,44;22424,541;  252,122;38216,667;58,40296
 840,00;22543,240;  255,045;38089,507;58,90977
 840,56;22437,708;  223,660;37756,116;59,18624
 841,12;22515,792;  225,967;37779,802;59,35432
 841,68;22552,260;  208,967;37553,950;59,82944
 842,25;22622,728;  228,198;37652,636;59,83932
 842,81;22606,658;  205,120;37343,015;60,31989
 843,37;22764,127;  199,428;37319,624;60,78820
 843,93;22793,133;  227,274;37173,772;61,07713
 844,49;22981,755;  250,889;37314,843;61,32877
 845,05;22974,685;  191,427;37014,375;61,87245
 845,61;23191,000;  244,196;37150,600;62,17567
 846,17;23091,853;  212,965;36982,901;62,22172
 846,73;23204,090;  242,580;36912,203;62,61725
 847,29;23237,328;  225,733;36677,735;63,12848
 847,86;23215,719;  223,810;36606,268;63,19504
 848,42;23191,264;  218,656;36341,108;63,59648
 848,98;23264,425;  240,425;36353,025;63,75614
 849,54;23454,201;  230,040;36393,711;64,21959
 850,10;23468,131;  244,193;36184,012;64,61896
 850,66;23470,522;  222,732;35997,929;64,98298
 851,22;23518,683;  199,654;35966,385;65,19754
 851,78;23663,074;  263,270;35914,994;65,63443
 852,34;23642,542;  243,577;35736,219;65,92624
 852,90;23689,472;  227,730;35670,059;66,19695
 853,46;23629,787;  215,961;35368,130;66,60706
 854,02;23761,563;  240,499;35407,893;66,88316
 854,58;23682,492;  225,114;35108,425;67,24527
 855,14;23792,191;  222,806;35070,804;67,63483
 855,70;23679,660;  196,575;34870,336;67,72581
 856,26;23739,128;  228,113;34736,253;68,13179
 856,82;23769,366;  227,728;34633,093;68,42432
 857,38;23845,757;  282,728;34582,010;68,69832
 857,94;23802,610;  221,036;34393,465;69,00760
 858,50;23823,463;  246,343;34317,767;69,19910
 859,06;23711,239;  217,420;34104,146;69,33045
 859,62;23764,169;  248,727;34009,909;69,65231
 860,18;23747,868;  227,573;33889,672;69,87174
 860,74;23793,490;  201,265;33764,435;70,29200
 861,30;23691,727;  208,803;33450,352;70,64329
 861,86;23795,888;  284,803;33550,961;70,67568
 862,42;23718,741;  227,033;33349,032;70,92479
 862,98;23938,901;  257,956;33354,564;71,55097
 863,54;23863,293;  220,648;33068,020;71,97728
 864,10;24050,992;  224,878;33158,475;72,34592
 864,66;23865,152;  205,263;32801,777;72,58411
 865,22;23772,082;  230,186;32700,694;72,50240
 865,78;23776,166;  228,031;32483,534;73,00502
 866,34;23762,480;  216,416;32380,682;73,20566
 866,90;23767,564;  232,569;32365,983;73,24150
 867,45;23792,494;  233,877;32121,823;73,87938
 868,01;23717,578;  236,030;31924,817;74,10049
 868,57;23718,431;  233,414;31850,042;74,28059
 869,13;23718,668;  213,799;31633,266;74,80989
 869,69;23738,675;  231,491;31572,799;75,00384
 870,25;23718,835;  195,337;31446,023;75,27354
 870,81;23709,919;  225,183;31277,940;75,62850
 871,37;23734,234;  232,028;31215,396;75,85426
 871,93;23705,086;  248,259;31081,851;76,07556
 872,49;23734,247;  278,105;30774,999;76,91322
 873,04;23561,177;  202,720;30672,762;76,66040
 873,60;23628,030;  219,412;30479,371;77,35839
 874,16;23690,037;  231,335;30434,058;77,67082
 874,72;23720,498;  233,565;30331,365;78,03538
 875,28;23865,806;  240,950;30233,750;78,76842
 875,84;23899,267;  239,488;30124,288;79,16994
 876,40;23969,652;  219,642;30089,135;79,51260
 876,95;23965,190;  244,181;30094,596;79,46626
 877,51;24010,037;  262,258;29995,904;79,86837
 878,07;24058,267;  278,796;30104,904;79,72703
 878,63;24113,498;  230,027;30106,135;79,94171
 879,19;24224,729;  242,335;30152,519;80,18136
 879,75;24322,190;  231,796;30113,365;80,61958
 880,30;24430,652;  232,027;30041,827;81,17674
 880,86;24656,575;  272,181;30242,365;81,36218
 881,42;24923,421;  212,488;30266,058;82,22295
 881,98;25013,729;  235,412;30321,673;82,35758
 882,54;25234,421;  228,335;30386,904;82,91536
 883,09;25401,267;  243,796;30518,673;83,09686
 883,65;25610,344;  210,642;30670,750;83,38678
 884,21;25844,729;  253,335;30906,904;83,48585
 884,77;25968,037;  213,335;30947,519;83,79823
 885,32;26117,575;  229,873;31118,288;83,81039
 885,88;26415,421;  259,104;31227,212;84,46211
 886,44;26480,113;  236,565;31341,212;84,37179
 887,00;26644,113;  263,104;31300,596;84,99723
 887,56;26901,344;  225,335;31517,904;85,24711
 888,11;27028,652;  223,950;31516,212;85,65920
 888,67;27242,575;  257,565;31685,904;85,86203
 889,23;27372,498;  227,488;31733,135;86,15919
 889,79;27318,498;  212,719;31565,750;86,45346
 890,34;27358,960;  244,335;31564,365;86,57279
 890,90;27574,037;  319,335;31753,981;86,70275
 891,46;27489,344;  228,796;31630,442;86,81248
 892,01;27629,190;  246,335;31583,519;87,38135
 892,57;27598,113;  271,027;31485,519;87,54615
 893,13;27550,344;  249,488;31315,212;87,88096
 893,69;27489,267;  212,796;31272,673;87,81899
 894,24;27469,575;  237,950;31211,365;87,91935
 894,80;27431,883;  238,565;31004,058;88,38902
 895,36;27390,344;  228,796;30898,288;88,56211
 895,91;27283,421;  237,642;30537,827;89,25945
 896,47;27238,960;  260,027;30529,827;89,12822
 897,03;27120,960;  237,027;30303,904;89,41379
 897,58;27077,267;  241,642;30312,750;89,24056
 898,14;26963,960;  245,258;29990,442;89,82530
 898,70;26847,960;  205,181;29772,596;90,10858
 899,25;27137,037;  237,950;29750,288;91,14522
 899,81;26946,113;  246,950;29594,673;90,97525
 900,37;26708,113;  206,719;29340,827;90,96347
 900,92;26816,498;  221,796;29260,827;91,58261
 901,48;26746,267;  222,258;29132,135;91,74722
 902,03;26666,498;  231,950;29017,981;91,83117
 902,59;26556,113;  227,335;28905,673;91,80720
 903,15;26423,729;  250,873;28718,212;91,93995
 903,70;26286,575;  224,181;28494,519;92,18989
 904,26;26281,652;  230,873;28338,058;92,68370
 904,82;26364,421;  221,335;28354,596;92,92590
 905,37;26242,883;  228,796;28208,288;92,97555
 905,93;26047,344;  213,488;28030,365;92,87116
 906,48;26167,806;  245,796;27939,365;93,60299
 907,04;26200,037;  252,104;27864,827;93,97093
 907,60;26102,037;  245,796;27555,904;94,67645
 908,15;26060,652;  224,104;27562,596;94,50612
 908,71;26240,960;  241,873;27514,058;95,33188
 909,26;26038,652;  232,181;27271,135;95,44183
 909,82;26036,498;  245,950;27185,212;95,73591
 910,37;26052,575;  277,181;27060,750;96,23585
 910,93;25897,652;  225,950;26855,442;96,40327
 911,48;25921,806;  214,104;26728,904;96,95605
 912,04;25810,652;  219,950;26546,981;97,20315
 912,60;26009,267;  238,104;26595,135;97,77719
 913,15;25783,960;  238,873;26404,827;97,62719
 913,71;25673,575;  216,950;26202,827;97,96331
 914,26;25718,267;  200,719;26087,288;98,57447
 914,82;25671,498;  238,565;26018,519;98,65391
 915,37;25636,729;  211,488;25997,904;98,59936
 915,93;25583,806;  273,258;25806,673;99,12715
 916,48;25538,960;  208,412;25663,750;99,50977
 917,04;25483,037;  239,488;25524,673;99,83533
 917,59;25561,421;  256,104;25455,135;100,42179
 918,15;25401,113;  193,950;25229,673;100,68478
 918,70;25423,421;  217,335;25166,904;101,02814
 919,26;25407,344;  230,488;25054,212;101,42256
 919,81;25264,883;  205,335;24844,288;101,70703
 920,37;25344,575;  223,796;24869,212;101,92881
 920,92;25320,652;  240,181;24722,135;102,44473
 921,48;25146,960;  214,950;24481,212;102,74351
 922,03;25155,421;  224,719;24464,288;102,85126
 922,59;25047,806;  233,873;24275,135;103,21394
 923,14;24985,806;  233,565;24151,519;103,48812
 923,69;24990,421;  247,950;24129,827;103,60355
 924,25;24946,575;  257,488;24016,519;103,91454
 924,80;24810,267;  225,796;23773,058;104,40480
 925,36;24759,113;  213,796;23715,750;104,43948
 925,91;24633,883;  220,950;23554,596;104,62545
 926,47;24562,883;  206,565;23505,519;104,53824
 927,02;24676,498;  308,565;23399,212;105,53162
 927,57;24449,806;  224,488;23133,981;105,74358
 928,13;24509,267;  210,642;23119,058;106,06855
 928,68;24508,421;  223,642;23056,904;106,35703
 929,24;24301,267;  198,719;22802,135;106,63233
 929,79;24214,267;  198,335;22770,904;106,39433
 930,34;24113,575;  214,873;22576,365;106,87436
 930,90;24184,575;  205,950;22459,750;107,75070
 931,45;24131,037;  222,642;22482,288;107,40689
 932,01;23988,575;  226,104;22355,827;107,37808
 932,56;23835,652;  236,719;22221,212;107,34354
 933,11;23945,960;  254,719;22291,750;107,50650
 933,67;23724,267;  219,258;21968,750;108,07153
 934,22;23728,267;  234,565;21936,596;108,25578
 934,77;23635,344;  246,719;21783,442;108,59881
 935,33;23576,729;  225,027;21639,212;109,04782
 935,88;23520,575;  237,950;21579,519;109,09519
 936,43;23401,575;  232,335;21484,750;109,01933
 936,99;23403,575;  232,950;21357,212;109,68727
 937,54;23170,883;  213,181;21167,135;109,56263
 938,09;23263,652;  234,488;21117,596;110,27652
 938,65;23170,344;  230,565;20960,904;110,65800
 939,20;23093,883;  191,796;20899,135;110,59889
 939,75;23053,344;  205,642;20820,904;110,82907
 940,31;23033,190;  202,027;20736,135;111,18654
 940,86;23008,421;  224,565;20640,904;111,59619
 941,41;22901,344;  322,488;20687,058;110,87323
 941,96;22811,344;  210,104;20382,596;112,03990
 942,52;22622,267;  224,412;20334,212;111,37781
 943,07;22701,960;  201,796;20198,981;112,51666
 943,62;22695,729;  208,565;20065,365;113,24666
 944,18;22736,113;  207,642;20067,750;113,43580
 944,73;22594,652;  233,027;19904,519;113,67529
 945,28;22367,113;  182,181;19787,288;113,15894
 945,83;22540,498;  202,642;19727,981;114,40445
 946,39;22496,806;  210,412;19667,519;114,54115
 946,94;22473,575;  247,950;19561,519;115,07777
 947,49;22320,960;  216,796;19444,904;114,95756
 948,04;22338,498;  266,565;19358,135;115,61089
 948,59;22384,729;  234,796;19262,673;116,40780
 949,15;22226,883;  201,104;19211,058;115,86445
 949,70;22178,344;  213,027;19100,981;116,29273
 950,25;22117,498;  233,027;19043,904;116,33945
 950,80;22054,806;  188,642;18873,827;117,02407
 951,36;22015,344;  179,335;18800,288;117,26580
 951,91;22104,806;  233,412;18795,442;117,82867
 952,46;21909,806;  207,412;18571,981;118,17535
 953,01;21989,498;  223,950;18566,827;118,65940
 953,56;21755,421;  189,565;18417,058;118,31499
 954,11;21650,498;  224,642;18398,288;117,89520
 954,67;21617,113;  213,796;18288,827;118,41373
 955,22;21505,729;  194,181;18158,981;118,62948
 955,77;21475,037;  236,873;18057,981;119,17421
 956,32;21425,883;  277,950;18018,904;119,20403
 956,87;21409,190;  201,642;17865,519;120,06168
 957,42;21405,575;  216,181;17850,981;120,15670
 957,98;21345,652;  211,719;17736,365;120,59549
 958,53;21262,652;  239,950;17642,212;120,80442
 959,08;21146,037;  209,873;17533,750;120,85149
 959,63;21117,883;  219,335;17419,365;121,50297
 960,18;21132,652;  223,027;17410,288;121,65769
 960,73;21099,190;  222,335;17321,904;122,08995
 961,28;20998,729;  186,719;17229,673;122,11504
 961,83;21026,190;  243,950;17205,596;122,52490
 962,39;20828,190;  200,335;17013,981;122,68520
 962,94;20761,190;  221,950;16965,827;122,66717
 963,49;20545,344;  226,104;16777,750;122,76266
 964,04;20503,960;  232,335;16730,135;122,87472
 964,59;20435,190;  195,181;16633,212;123,12916
 965,14;20355,575;  249,335;16582,827;123,09823
 965,69;20236,960;  217,027;16489,750;123,02755
 966,24;20037,037;  210,412;16394,135;122,50967
 966,79;19972,113;  239,488;16254,904;123,21020
 967,34;19847,421;  185,181;16132,519;123,29481
 967,89;19764,267;  210,335;16050,442;123,44571
 968,44;19766,806;  216,104;16013,750;123,75706
 968,99;19665,652;  236,027;15961,135;123,55798
 969,55;19581,190;  219,412;15833,904;123,99877
 970,10;19567,190;  232,642;15723,904;124,80938
 970,65;19426,883;  241,796;15646,827;124,53780
 971,20;19370,344;  216,258;15527,673;125,09677
 971,75;19195,344;  195,104;15326,981;125,56433
 972,30;19261,113;  220,719;15239,596;126,77642
 972,85;19157,652;  203,796;15149,519;126,81792
 973,40;18975,190;  208,719;15022,288;126,68433
 973,95;18911,883;  221,181;15008,827;126,39403
 974,50;18939,190;  252,412;14953,596;127,11070
 975,05;18754,190;  223,335;14782,596;127,27882
 975,60;18653,806;  241,796;14703,981;127,31140
 976,15;18589,806;  212,873;14616,288;127,58733
 976,70;18549,575;  222,412;14529,981;128,09418
 977,25;18422,421;  243,027;14485,827;127,63919
 977,80;18305,190;  224,181;14321,904;128,25482
 978,35;18115,113;  243,027;14164,904;128,37412
 978,89;18095,652;  196,104;14069,596;129,01977
 979,44;18046,344;  234,258;14051,058;128,91615
 979,99;17707,421;  212,796;13923,981;127,59383
 980,54;17655,806;  238,104;13784,212;128,58086
 981,09;17656,267;  247,104;13719,365;129,22228
 981,64;17552,037;  231,950;13610,365;129,46292
 982,19;17502,729;  266,950;13503,827;130,21031
 982,74;17247,267;  230,950;13377,981;129,43088
 983,29;17085,960;  221,104;13220,519;129,73549
 983,84;16934,344;  218,873;13114,904;129,61718
 984,39;16981,498;  319,642;13130,442;130,06101
 984,94;16711,344;  194,873;12941,673;129,57347
 985,49;16614,190;  243,565;12824,981;130,11751
 986,03;16536,344;  246,719;12732,442;130,46601
 986,58;16399,267;  285,950;12591,904;130,93920
 987,13;16236,421;  229,642;12498,288;130,46899
 987,68;16135,498;  252,104;12396,365;130,78930
 988,23;16094,498;  234,258;12288,981;131,56868
 988,78;15942,652;  210,719;12097,058;132,35306
 989,33;15773,421;  246,412;12040,596;131,64971
 989,88;15741,267;  263,412;12016,519;131,69160
 990,42;15500,806;  214,873;11778,135;132,19395
 990,97;15365,883;  229,950;11706,981;131,88021
 991,52;15295,960;  246,335;11632,058;132,17979
 992,07;15135,729;  275,719;11520,442;132,15096
 992,62;15066,037;  238,719;11359,673;133,32775
 993,17;14939,960;  249,719;11261,827;133,40081
 993,71;14796,960;  243,258;11131,750;133,66131
 994,26;14617,883;  210,796;11031,442;133,14442
 994,81;14638,421;  254,565;10961,058;134,34704
 995,36;14472,113;  218,642;10804,288;134,64904
 995,91;14403,190;  228,027;10706,904;135,27369
 996,45;14201,806;  240,488;10601,673;134,74634
 997,00;14110,344;  219,873;10453,596;135,73233
 997,55;14008,960;  235,873;10425,288;135,17053
 998,10;13799,960;  258,719;10286,750;135,03389
 998,65;13785,652;  229,027;10223,750;135,63783
 999,19;13663,806;  245,412;10122,981;135,84713
 999,74;13543,498;  275,796;10010,827;136,28824
1000,29;13385,421;  229,642; 9896,442;136,09239
1000,84;13257,037;  224,565; 9747,519;136,85324
1001,38;13139,652;  231,488; 9658,519;136,92714
1001,93;13067,575;  257,104; 9600,596;137,10581
1002,48;12874,190;  213,488; 9385,365;138,03829
1003,03;12818,190;  247,027; 9390,519;137,48755
1003,57;12536,575;  241,027; 9279,673;136,03307
1004,12;12535,575;  287,258; 9162,288;138,00873
1004,67;12366,344;  236,104; 9069,904;137,31622
1005,22;12243,575;  225,181; 8908,212;138,41243
1005,76;12004,806;  219,027; 8775,904;137,73458
1006,31;12009,883;  248,335; 8757,135;138,22805
1006,86;11750,652;  221,104; 8563,212;138,20905
1007,40;11620,575;  205,796; 8430,827;138,78099
1007,95;11548,421;  235,488; 8365,596;139,14862
1008,50;11384,806;  237,873; 8197,827;140,03765
1009,04;11256,267;  220,412; 8126,058;139,59461
1009,59;11052,421;  236,873; 7965,288;139,94522
1010,14;10896,806;  212,796; 7876,442;139,41157
1010,68;10730,113;  229,258; 7739,827;139,81438
1011,23;10637,498;  245,796; 7677,981;139,82029
1011,78;10508,344;  241,181; 7525,596;140,94698
1012,32;10365,190;  270,258; 7462,827;140,35225
1012,87;10281,575;  263,719; 7386,673;140,64187
1013,42;10199,267;  212,258; 7261,058;141,68383
1013,96;10172,806;  267,565; 7279,212;141,26840
1014,51;10022,883;  191,335; 7170,750;140,86492
1015,06;10085,960;  204,565; 7161,981;142,02680
1015,60;10143,652;  272,181; 7212,442;142,23486
1016,15;10050,037;  230,488; 7164,596;141,61228
1016,69;10071,883;  243,488; 7178,750;141,71627
1017,24; 9989,498;  213,796; 7181,904;140,29206
1017,79;10137,421;  273,258; 7245,288;141,48193
1018,33;10126,344;  235,258; 7272,135;140,56074
1018,88;10205,575;  248,027; 7366,673;139,87980
1019,42;10210,575;  221,335; 7292,904;141,25918
1019,97;10223,652;  220,027; 7299,519;141,30427
1020,51;10310,960;  259,950; 7441,981;139,94662
1021,06;10246,190;  201,181; 7343,365;140,64338
1021,61;10177,113;  191,335; 7303,827;140,39775
1022,15;10166,652;  189,027; 7269,673;140,91405
1022,70;10194,037;  219,719; 7266,212;141,55011
1023,24;10059,575;  200,258; 7238,519;140,08171
1023,79;10063,575;  217,719; 7180,365;141,40968
1024,33; 9940,037;  221,412; 7083,750;141,62264
1024,88; 9821,190;  248,488; 7045,442;140,83812
1025,42; 9668,960;  243,642; 6925,135;141,06605
1025,97; 9574,113;  214,335; 6840,365;141,25770
1026,51; 9389,344;  190,488; 6693,288;141,45992
1027,06; 9344,729;  215,027; 6644,135;142,00574
1027,60; 9179,037;  230,104; 6497,827;142,77805
1028,15; 9065,344;  244,488; 6405,519;143,17175
1028,69; 8882,883;  193,335; 6264,904;143,11865
1029,24; 8809,883;  208,488; 6246,212;142,46089
1029,78; 8661,883;  199,027; 6111,288;143,14075
1030,33; 8527,421;  198,027; 6015,673;143,17465
1030,87; 8401,344;  210,950; 5917,365;143,52958
1031,42; 8302,421;  206,642; 5828,365;144,00885
1031,96; 8215,037;  238,565; 5783,365;143,85498
1032,51; 8065,729;  203,719; 5651,442;144,31735
1033,05; 7989,498;  218,873; 5613,519;144,04328
1033,60; 7895,960;  187,873; 5496,442;145,20083
1034,14; 7718,037;  215,796; 5412,596;144,36269
1034,69; 7675,729;  219,565; 5370,827;144,74442
1035,23; 7557,729;  215,950; 5260,212;145,54715
1035,77; 7458,190;  223,104; 5248,365;143,97433
1036,32; 7321,421;  189,950; 5121,981;144,59503
1036,86; 7315,498;  226,950; 5079,058;146,09214
1037,41; 7157,883;  231,719; 5010,442;144,93754
1037,95; 7078,267;  187,181; 4891,673;146,47886
1038,50; 6971,267;  205,950; 4864,904;145,21108
1039,04; 6925,806;  232,104; 4830,519;145,56540
1039,58; 6839,421;  188,181; 4698,519;147,46655
1040,13; 6743,883;  213,488; 4668,519;146,58472
1040,67; 6719,113;  243,027; 4628,750;147,66291
1041,21; 6566,729;  256,796; 4547,750;147,05198
1041,76; 6469,652;  210,950; 4455,442;147,45467
1042,30; 6412,883;  208,027; 4408,596;147,71464
1042,85; 6246,883;  208,412; 4337,596;146,23883
1043,39; 6188,729;  199,104; 4251,827;147,79260
1043,93; 6136,267;  237,719; 4235,827;147,53350
1044,48; 6027,344;  226,565; 4140,673;148,20182
1045,02; 5940,960;  215,873; 4101,596;147,33645
1045,56; 5916,344;  249,565; 4063,519;148,58016
1046,11; 5815,421;  211,565; 3975,750;148,87303
1046,65; 5740,421;  236,335; 3947,135;148,32614
1047,19; 5653,806;  206,335; 3840,365;149,90162
1047,74; 5565,729;  195,565; 3786,058;149,56622
1048,28; 5532,652;  219,719; 3747,288;150,61172
1048,82; 5448,113;  250,796; 3728,519;149,44598
1049,37; 5371,883;  226,104; 3685,596;148,74376
1049,91; 5309,037;  226,565; 3639,519;148,91708
1050,45; 5245,344;  231,873; 3582,442;149,63043
1050,99; 5122,421;  240,027; 3521,442;148,78928
1051,54; 5002,729;  212,335; 3462,827;147,37442
1052,08; 4977,883;  249,335; 3419,904;149,13877
1052,62; 4959,190;  229,796; 3371,904;150,51662
1053,16; 4864,883;  215,950; 3308,904;150,30721
1053,71; 4804,883;  229,258; 3285,519;149,71314
1054,25; 4740,575;  241,104; 3249,058;149,58578
1054,79; 4704,344;  232,181; 3195,981;150,89289
1055,33; 4571,883;  199,335; 3123,442;149,53444
1055,88; 4541,575;  230,258; 3130,750;148,64088
1056,42; 4528,806;  241,796; 3047,519;152,79518
1056,96; 4441,806;  250,565; 3039,596;150,27587
1057,50; 4351,960;  243,335; 2967,827;150,80333
1058,05; 4299,344;  229,412; 2925,365;150,96448
1058,59; 4278,113;  248,412; 2899,365;152,00951
1059,13; 4158,575;  204,565; 2818,365;151,27438
1059,67; 4145,883;  232,565; 2779,673;153,63769
1060,21; 4083,960;  227,335; 2747,981;153,00144
1060,76; 4031,883;  237,027; 2708,442;153,54990
1061,30; 3979,729;  249,719; 2704,288;151,96188
1061,84; 3934,421;  247,258; 2628,981;154,81075
1062,38; 3824,037;  212,104; 2586,212;152,13854
1062,92; 3820,421;  277,873; 2601,058;152,48672
1063,46; 3722,190;  246,642; 2509,442;153,59502
1064,01; 3657,344;  221,104; 2458,519;153,58080
1064,55; 3627,883;  240,335; 2459,212;152,66949
1065,09; 3562,960;  204,335; 2400,058;152,96214
1065,63; 3577,652;  257,719; 2402,827;154,76765
1066,17; 3539,267;  266,335; 2389,135;154,17998
1066,71; 3493,960;  256,335; 2352,596;154,44757
1067,25; 3389,960;  220,950; 2311,135;151,61386
1067,80; 3371,806;  244,027; 2286,442;153,14117
1068,34; 3390,190;  267,412; 2279,058;155,23500
1068,88; 3280,729;  225,950; 2208,596;154,07585
1069,42; 3271,652;  256,412; 2208,442;154,46685
1069,96; 3223,498;  229,565; 2160,288;155,06795
1070,50; 3245,113;  270,719; 2161,442;157,31517
1071,04; 3124,190;  221,642; 2100,981;154,44520
1071,58; 3088,575;  230,335; 2067,519;155,57720
1072,12; 3090,190;  238,104; 2066,442;155,99336
1072,66; 3065,498;  229,796; 2023,135;158,12419
1073,21; 3025,883;  251,104; 2028,442;156,11989
1073,75; 2961,267;  234,950; 1996,365;154,77992
1074,29; 2920,344;  240,719; 1960,519;155,81027
1074,83; 2892,113;  267,181; 1945,519;156,40068
1075,37; 2889,344;  270,258; 1953,212;155,62438
1075,91; 2866,113;  251,565; 1911,827;157,47809
1076,45; 2793,652;  238,873; 1886,750;155,03457
1076,99; 2760,498;  256,873; 1879,212;154,32199
1077,53; 2708,037;  229,642; 1820,750;155,76534
1078,07; 2711,113;  248,258; 1817,750;156,92054
1078,61; 2652,267;  239,181; 1778,058;156,80829
1079,15; 2614,960;  232,412; 1754,288;156,55327
1079,69; 2569,806;  239,488; 1741,904;155,10473
1080,23; 2578,883;  263,181; 1731,827;157,67596
1080,77; 2580,498;  314,335; 1769,750;155,70561
1081,31; 2484,806;  227,412; 1663,981;157,13787
1081,85; 2492,729;  260,565; 1681,212;157,12311
1082,39; 2426,267;  231,642; 1628,212;157,14402
1082,93; 2414,421;  248,412; 1642,365;155,38604
1083,47; 2349,729;  216,565; 1566,904;157,97250
1084,01; 2360,190;  252,719; 1585,904;158,07797
1084,55; 2298,113;  229,181; 1557,673;155,73539
1085,09; 2305,806;  256,258; 1563,981;156,72646
1085,63; 2284,037;  253,104; 1546,519;157,02092
1086,17; 2239,806;  237,488; 1493,981;159,35771
1086,71; 2198,421;  212,488; 1467,365;158,25717
1087,24; 2213,960;  253,873; 1506,212;156,51412
1087,78; 2183,806;  265,565; 1493,135;156,26332
1088,32; 2119,883;  231,335; 1426,442;158,02326
1088,86; 2143,037;  240,412; 1442,442;158,28422
1089,40; 2061,652;  249,104; 1424,442;154,21499
1089,94; 2019,652;  219,335; 1378,212;155,35017
1090,48; 2029,037;  250,104; 1378,673;157,62725
1091,02; 2017,113;  253,642; 1388,596;155,37823
1091,56; 1976,883;  243,181; 1350,904;156,51041
1092,10; 1940,498;  214,719; 1296,212;159,57384
1092,63; 1967,267;  271,873; 1345,750;157,87603
1093,17; 1906,883;  248,796; 1312,365;155,89832
1093,71; 1866,190;  232,719; 1282,135;155,65535
1094,25; 1878,729;  251,873; 1299,673;155,26396
1094,79; 1838,267;  238,335; 1255,135;157,34979
1095,33; 1820,113;  248,565; 1272,288;153,51301
1095,87; 1799,498;  237,488; 1246,135;154,86200
1096,40; 1719,421;  218,412; 1192,981;154,01775
1096,94; 1735,960;  244,258; 1190,904;157,57756
1097,48; 1741,421;  258,488; 1205,827;156,53673
1098,02; 1678,190;  234,873; 1177,365;153,13836
1098,56; 1655,575;  212,335; 1127,058;157,77894
1099,10; 1635,190;  213,335; 1134,135;154,41527
1099,63; 1622,960;  220,335; 1115,135;156,75291
1100,17; 1629,037;  257,412; 1133,673;156,53146
1100,71; 1628,037;  274,796; 1126,981;158,79662

