
Integration time [ms]: 160,000
Averaging Nr. [scans]: 13
Smoothing Nr. [pixels]: 0
Data measured with spectrometer [name]: 2009305U1
Wave   ;Sample   ;Dark     ;Reference;Reflectance
[nm]   ;[counts] ;[counts] ;[counts] ;[%]

 175,72;  212,315;  199,741;  200,777;1213,56320
 176,32;  238,243;  225,729;  223,979; 0,00000
 176,92;  277,090;  254,352;  256,468;1074,55254
 177,52;  267,096;  261,585;  265,454;142,44788
 178,12;  247,981;  246,191;  228,377; 0,00000
 178,72;  273,022;  256,803;  258,493;959,52000
 179,32;  274,309;  250,652;  234,314; 0,00000
 179,92;  272,932;  255,041;  253,110; 0,00000
 180,52;  246,000;  243,055;  255,886;22,95312
 181,12;  267,309;  258,888;  259,497; 0,00000
 181,73;  296,588;  266,427;  278,520;249,41713
 182,33;  383,484;  358,357;  354,615; 0,00000
 182,93;  287,360;  274,431;  274,023; 0,00000
 183,53;  248,465;  246,416;  233,568; 0,00000
 184,13;  252,296;  235,495;  227,035; 0,00000
 184,73;  297,910;  285,799;  287,378;766,97909
 185,33;  280,905;  228,805;  366,277;37,89871
 185,93;  284,452;  235,412;  372,564;35,75609
 186,53;  305,219;  256,186;  398,310;34,49982
 187,13;  329,543;  279,426;  434,595;32,29809
 187,73;  299,776;  244,875;  373,249;42,76653
 188,33;  296,042;  250,255;  386,995;33,48498
 188,93;  300,781;  255,162;  385,621;34,96781
 189,53;  301,721;  257,227;  401,302;30,88273
 190,13;  329,698;  280,670;  423,850;34,24203
 190,73;  267,323;  224,529;  378,443;27,80362
 191,34;  310,521;  264,081;  410,691;31,67578
 191,94;  289,439;  245,019;  377,905;33,42693
 192,54;  288,065;  247,664;  427,510;22,46457
 193,14;  302,001;  261,733;  418,542;25,67941
 193,74;  310,719;  262,654;  401,356;34,65340
 194,34;  302,866;  254,966;  402,972;32,36389
 194,94;  271,110;  221,040;  376,033;32,30419
 195,54;  254,402;  216,190;  352,702;27,99127
 196,14;  275,710;  226,891;  382,071;31,45953
 196,74;  268,921;  220,111;  382,041;30,14220
 197,34;  254,382;  197,127;  382,736;30,84677
 197,94;  274,610;  232,119;  400,126;25,29105
 198,54;  295,929;  246,429;  416,944;29,02983
 199,14;  267,526;  216,900;  396,880;28,12886
 199,74;  251,879;  199,515;  409,619;24,92255
 200,34;  242,268;  201,978;  416,946;18,74231
 200,94;  285,694;  239,588;  444,800;22,46784
 201,54;  261,113;  217,744;  468,718;17,28030
 202,14;  310,619;  243,442;  505,674;25,61736
 202,74;  272,448;  222,361;  498,991;18,10619
 203,34;  256,426;  195,523;  523,337;18,57862
 203,94;  230,304;  170,751;  524,984;16,81181
 204,54;  307,645;  249,427;  608,671;16,20581
 205,14;  276,207;  199,361;  622,984;18,14023
 205,74;  325,875;  246,446;  720,243;16,76448
 206,34;  283,563;  203,288;  737,115;15,03765
 206,94;  297,821;  212,364;  803,280;14,46189
 207,54;  286,133;  194,057;  837,333;14,31358
 208,14;  292,203;  211,443;  913,379;11,50541
 208,74;  315,931;  209,207; 1013,510;13,26912
 209,34;  316,067;  206,516; 1117,044;12,03163
 209,94;  347,198;  216,285; 1207,131;13,21223
 210,54;  353,572;  204,290; 1327,188;13,29431
 211,14;  361,108;  209,977; 1436,345;12,32350
 211,73;  376,847;  215,667; 1572,019;11,88334
 212,33;  400,804;  226,049; 1695,753;11,89046
 212,93;  396,842;  207,822; 1770,108;12,09890
 213,53;  370,052;  182,746; 1835,326;11,33420
 214,13;  418,626;  200,988; 1950,535;12,43967
 214,73;  395,234;  191,288; 1957,212;11,54897
 215,33;  386,274;  172,208; 1999,362;11,71585
 215,93;  433,379;  210,907; 2119,819;11,65440
 216,53;  409,356;  164,822; 2217,580;11,91250
 217,13;  487,528;  227,136; 2448,261;11,72342
 217,73;  493,468;  191,369; 2666,066;12,20754
 218,33;  490,300;  171,989; 2838,762;11,93621
 218,93;  580,173;  196,459; 3204,207;12,75750
 219,53;  605,883;  195,220; 3533,962;12,29996
 220,13;  605,705;  160,837; 3850,961;12,05563
 220,73;  680,364;  188,208; 4281,994;12,02202
 221,32;  755,162;  200,899; 4687,125;12,35476
 221,92;  812,790;  199,298; 5129,848;12,44268
 222,52;  833,053;  167,215; 5602,925;12,24932
 223,12;  918,187;  184,523; 6053,373;12,50097
 223,72;  972,924;  196,293; 6476,650;12,36603
 224,32; 1028,618;  194,370; 6900,583;12,43993
 224,92; 1058,596;  167,678; 7203,560;12,66249
 225,52; 1144,404;  207,748; 7625,096;12,62791
 226,12; 1163,318;  188,598; 7945,856;12,56527
 226,72; 1186,690;  159,674; 8322,566;12,58152
 227,31; 1227,052;  155,674; 8696,466;12,54425
 227,91; 1317,324;  194,671; 9121,351;12,57638
 228,51; 1353,610;  181,896; 9490,110;12,58795
 229,11; 1415,028;  195,135; 9947,630;12,50852
 229,71; 1439,082;  175,668;10228,115;12,56823
 230,31; 1511,648;  165,218;10718,251;12,75870
 230,91; 1538,192;  160,278;11047,928;12,65575
 231,51; 1600,369;  168,061;11349,350;12,80987
 232,10; 1655,707;  167,758;11737,016;12,86123
 232,70; 1687,866;  186,735;11999,664;12,70753
 233,30; 1760,476;  202,829;12239,986;12,94032
 233,90; 1771,069;  173,906;12300,963;13,17024
 234,50; 1798,281;  179,061;12417,146;13,23099
 235,10; 1814,750;  172,909;12458,944;13,36347
 235,70; 1844,268;  198,209;12575,100;13,29946
 236,29; 1837,907;  196,976;12452,520;13,38930
 236,89; 1833,975;  164,048;12281,757;13,78088
 237,49; 1854,461;  194,982;12162,422;13,86662
 238,09; 1786,179;  180,826;11817,192;13,79599
 238,69; 1817,908;  218,045;11505,502;14,17382
 239,29; 1769,032;  182,980;11125,113;14,49491
 239,89; 1738,613;  192,125;10743,781;14,65635
 240,48; 1693,618;  177,596;10312,169;14,95891
 241,08; 1668,030;  167,440; 9918,872;15,38840
 241,68; 1658,356;  195,442; 9593,874;15,56551
 242,28; 1602,661;  163,444; 9193,819;15,93751
 242,88; 1632,978;  214,834; 8861,428;16,40119
 243,48; 1607,955;  210,674; 8590,298;16,67474
 244,07; 1584,071;  180,671; 8300,943;17,28268
 244,67; 1583,293;  194,981; 8093,088;17,57777
 245,27; 1588,308;  194,667; 7997,019;17,86181
 245,87; 1597,293;  199,679; 7911,656;18,12264
 246,47; 1636,254;  196,590; 7831,043;18,85746
 247,06; 1638,406;  177,210; 7850,293;19,04313
 247,66; 1693,104;  186,904; 7992,433;19,29658
 248,26; 1777,312;  218,514; 8116,764;19,73599
 248,86; 1865,651;  202,129; 8336,982;20,44932
 249,46; 1866,632;  152,830; 8599,688;20,28923
 250,05; 2029,144;  204,365; 9042,229;20,64729
 250,65; 2118,316;  167,820; 9488,093;20,92745
 251,25; 2258,875;  178,286;10021,829;21,13658
 251,85; 2440,425;  182,894;10653,323;21,56102
 252,44; 2594,139;  149,515;11376,948;21,77367
 253,04; 2827,594;  198,362;12268,532;21,78290
 253,64; 2990,697;  144,588;13140,502;21,90003
 254,24; 3312,330;  200,287;14187,567;22,24909
 254,84; 3565,401;  176,522;15338,996;22,35044
 255,43; 3831,624;  181,361;16441,168;22,44961
 256,03; 4125,600;  189,358;17674,950;22,51135
 256,63; 4455,722;  192,278;18907,965;22,78005
 257,23; 4672,284;  171,663;19978,647;22,72239
 257,82; 5028,586;  194,582;21230,937;22,97928
 258,42; 5213,940;  155,042;22375,919;22,76642
 259,02; 5579,693;  208,977;23416,897;23,14174
 259,62; 5764,912;  174,348;24318,953;23,15451
 260,21; 5914,227;  184,976;25013,690;23,07510
 260,81; 6094,383;  183,213;25624,225;23,23481
 261,41; 6245,231;  171,889;26292,804;23,25088
 262,01; 6381,686;  211,654;26975,282;23,05379
 262,60; 6425,361;  174,663;27463,031;22,90609
 263,20; 6553,252;  171,974;27904,384;23,01018
 263,80; 6601,553;  201,654;28229,185;22,83433
 264,40; 6621,524;  169,732;28449,208;22,81440
 264,99; 6673,188;  192,961;28660,660;22,76344
 265,59; 6680,340;  179,340;28893,972;22,64003
 266,19; 6702,444;  161,270;29175,386;22,54480
 266,78; 6772,892;  219,651;29399,987;22,45773
 267,38; 6694,598;  190,264;29352,707;22,30380
 267,98; 6657,904;  179,959;29466,465;22,11922
 268,58; 6631,268;  183,957;29493,222;21,99752
 269,17; 6630,228;  177,337;29577,473;21,94851
 269,77; 6537,881;  189,123;29266,106;21,83431
 270,37; 6399,517;  153,346;29253,102;21,46469
 270,96; 6376,882;  224,736;29001,887;21,37858
 271,56; 6232,853;  177,971;28718,942;21,21470
 272,16; 6158,108;  183,427;28531,176;21,07639
 272,75; 6099,286;  179,735;28438,781;20,94745
 273,35; 5988,950;  180,968;28492,693;20,51441
 273,95; 5933,330;  188,813;28468,674;20,31310
 274,54; 5932,319;  176,134;28382,363;20,40750
 275,14; 5966,798;  205,122;28954,428;20,04110
 275,74; 5889,988;  158,504;28965,480;19,89617
 276,33; 5988,001;  207,123;29476,725;19,75045
 276,93; 6007,577;  178,596;29891,483;19,61768
 277,53; 6112,413;  181,053;30469,874;19,58267
 278,12; 6159,550;  160,510;31080,730;19,40167
 278,72; 6324,038;  219,668;31838,915;19,30587
 279,32; 6411,046;  182,590;32489,494;19,27903
 279,91; 6526,250;  161,127;33366,067;19,16920
 280,51; 6672,953;  184,899;34012,841;19,17957
 281,11; 6833,151;  170,358;34876,889;19,19752
 281,70; 6906,588;  155,050;35308,164;19,20609
 282,30; 7140,238;  166,125;36176,249;19,36709
 282,90; 7208,897;  178,201;36604,099;19,30136
 283,49; 7367,687;  190,583;37302,355;19,33916
 284,09; 7492,245;  212,588;37743,355;19,39651
 284,69; 7588,891;  211,128;38090,989;19,47674
 285,28; 7774,047;  192,818;38595,308;19,74150
 285,88; 7942,998;  248,197;38774,102;19,97306
 286,47; 7973,160;  190,509;39004,667;20,05106
 287,07; 8046,002;  210,590;38992,293;20,20389
 287,67; 8220,032;  196,367;39142,990;20,60170
 288,26; 8296,935;  173,974;39033,454;20,90342
 288,86; 8460,817;  181,973;39203,121;21,21630
 289,46; 8625,647;  208,974;39328,621;21,51521
 290,05; 8856,907;  171,440;39402,244;22,13941
 290,65; 9029,827;  184,662;39742,250;22,36022
 291,24; 9287,773;  189,206;39857,457;22,93665
 291,84; 9491,953;  190,586;39984,888;23,37361
 292,44; 9741,210;  193,367;40181,331;23,87679
 293,03;10059,147;  262,898;40338,407;24,44448
 293,63;10175,105;  185,047;40528,691;24,76241
 294,22;10416,316;  206,204;40706,632;25,20989
 294,82;10563,448;  185,271;40767,174;25,57341
 295,41;10638,588;  173,511;40305,933;26,07636
 296,01;10711,358;  219,196;40292,531;26,18240
 296,61;10796,871;  206,129;39981,129;26,62663
 297,20;10671,272;  193,504;39570,490;26,60886
 297,80;10727,923;  201,518;39286,775;26,93191
 298,39;10639,194;  173,586;38834,323;27,07038
 298,99;10710,212;  216,967;38727,141;27,24798
 299,58;10610,171;  203,981;38503,349;27,17066
 300,18;10577,777;  206,979;38361,926;27,18074
 300,78;10483,185;  181,823;37955,038;27,27161
 301,37;10499,316;  200,037;37824,584;27,37383
 301,97;10540,240;  195,051;37965,521;27,38962
 302,56;10460,806;  176,124;37860,577;27,29158
 303,16;10455,153;  171,738;37803,792;27,32621
 303,75;10441,573;  179,439;37750,475;27,31395
 304,35;10497,054;  174,062;38078,968;27,23392
 304,94;10536,626;  180,359;38045,641;27,35030
 305,54;10516,469;  205,438;37956,894;27,31294
 306,13;10452,308;  162,139;37817,650;27,32713
 306,73;10371,023;  169,060;37699,181;27,18340
 307,33;10432,613;  199,905;37580,566;27,37434
 307,92;10394,015;  196,668;37708,122;27,18462
 308,52;10428,821;  176,584;38301,649;26,89107
 309,11;10627,048;  177,426;38836,983;27,02985
 309,71;10653,928;  162,654;39062,178;26,97018
 310,30;10781,453;  175,206;39374,979;27,05691
 310,90;10914,607;  219,821;39805,209;27,01700
 311,49;10902,946;  186,205;40051,196;26,88259
 312,09;10934,568;  156,979;40225,718;26,89775
 312,68;11114,437;  238,592;40678,326;26,89396
 313,28;11076,938;  156,745;40746,738;26,90366
 313,87;11060,133;  143,744;40970,885;26,73807
 314,47;11147,206;  181,120;41423,848;26,58914
 315,06;11197,994;  166,822;41394,219;26,75690
 315,66;11195,414;  167,364;41750,334;26,52059
 316,25;11125,045;  144,431;41409,652;26,60985
 316,85;11105,393;  146,979;41637,354;26,41194
 317,44;11172,159;  169,580;41819,484;26,41682
 318,04;11145,227;  157,048;41725,507;26,43393
 318,63;11060,111;  161,060;41782,846;26,18593
 319,22;11088,387;  174,354;42126,384;26,01551
 319,82;11098,672;  175,741;42131,854;26,03418
 320,41;10989,564;  189,816;41995,758;25,83305
 321,01;11077,709;  194,978;42176,428;25,92271
 321,60;11024,827;  184,742;42249,743;25,76984
 322,20;10943,555;  164,283;42279,165;25,59492
 322,79;10949,236;  206,129;42434,961;25,44022
 323,39;10949,183;  178,753;42486,859;25,45713
 323,98;10880,854;  157,592;42432,433;25,36559
 324,58;10836,909;  167,199;42297,084;25,32575
 325,17;10821,288;  170,662;42200,899;25,34039
 325,76;10722,605;  190,897;41944,354;25,22356
 326,36;10582,060;  150,363;41454,047;25,25609
 326,95;10493,235;  195,973;41194,502;25,11618
 327,55;10354,836;  157,741;40819,014;25,07815
 328,14;10222,299;  166,365;40385,196;25,00305
 328,74;10104,223;  196,354;39859,146;24,98026
 329,33;10018,685;  187,286;39413,361;25,06343
 329,92; 9823,203;  163,811;38764,795;25,02369
 330,52; 9667,257;  188,673;37956,005;25,09731
 331,11; 9500,069;  175,665;37483,716;24,99301
 331,71; 9301,019;  179,589;36868,297;24,86168
 332,30; 9201,626;  196,436;36296,949;24,94477
 332,89; 9060,101;  235,285;35572,425;24,97320
 333,49; 8934,939;  192,588;34988,783;25,12444
 334,08; 8749,594;  185,510;34527,656;24,93753
 334,68; 8617,474;  175,126;34029,115;24,93753
 335,27; 8571,217;  193,366;33538,670;25,12453
 335,86; 8533,300;  232,972;33293,101;25,10676
 336,46; 8362,526;  193,213;32980,021;24,91646
 337,05; 8366,354;  175,126;32833,770;25,08135
 337,65; 8305,946;  162,433;32586,472;25,11566
 338,24; 8350,205;  204,976;32609,051;25,13643
 338,83; 8355,580;  200,976;32374,352;25,34581
 339,43; 8336,969;  165,277;32404,926;25,34671
 340,02; 8314,867;  179,430;32310,893;25,31922
 340,61; 8362,521;  178,976;32399,554;25,39851
 341,21; 8400,069;  206,277;32414,685;25,43992
 341,80; 8455,110;  180,356;32314,864;25,75037
 342,40; 8488,631;  173,058;32469,075;25,74798
 342,99; 8503,562;  169,747;32633,271;25,67132
 343,58; 8617,608;  175,363;32798,054;25,87845
 344,18; 8707,522;  192,209;32955,244;25,99061
 344,77; 8824,757;  168,969;33314,896;26,11418
 345,36; 8947,389;  161,434;33686,117;26,20742
 345,96; 9068,015;  196,516;34056,000;26,20093
 346,55; 9186,877;  179,446;34413,133;26,31160
 347,14; 9314,896;  157,519;34758,225;26,46586
 347,74; 9519,778;  152,451;35301,062;26,65063
 348,33; 9820,774;  178,912;36095,701;26,84500
 348,92;10059,724;  176,839;36779,699;27,00031
 349,52;10189,486;  153,145;37329,362;26,99667
 350,11;10326,919;  168,660;37571,706;27,15891
 350,70;10400,334;  172,514;37759,403;27,21114
 351,29;10394,485;  147,112;37369,117;27,53042
 351,89;10485,729;  194,426;37340,471;27,70498
 352,48;10459,378;  155,283;37439,253;27,63680
 353,07;10565,284;  184,136;37413,970;27,88395
 353,67;10540,265;  194,147;37241,401;27,92681
 354,26;10511,907;  178,212;36934,891;28,11379
 354,85;10540,811;  175,056;36891,581;28,23185
 355,45;10524,789;  153,894;36537,727;28,50413
 356,04;10498,583;  183,752;36509,930;28,39504
 356,63;10502,852;  202,358;36247,314;28,57680
 357,22;10510,945;  188,807;36150,798;28,70291
 357,82;10489,612;  181,040;35862,643;28,89044
 358,41;10545,592;  195,897;35670,414;29,17501
 359,00;10503,211;  157,816;35416,899;29,34108
 359,60;10484,886;  179,822;35389,155;29,26799
 360,19;10559,234;  200,060;35155,398;29,63546
 360,78;10526,770;  180,356;34966,295;29,74309
 361,37;10528,892;  184,972;34661,650;30,00266
 361,97;10544,920;  182,050;34589,889;30,11776
 362,56;10482,325;  172,660;34176,224;30,31937
 363,15;10496,823;  223,895;33867,536;30,53453
 363,74;10362,724;  187,504;33534,714;30,51296
 364,34;10310,463;  200,585;33058,417;30,76855
 364,93;10165,619;  170,352;32472,319;30,94322
 365,52;10094,300;  149,511;31996,178;31,22709
 366,11;10049,991;  182,200;31660,103;31,34831
 366,71; 9933,772;  175,508;31199,307;31,45412
 367,30; 9884,598;  171,665;30815,094;31,69662
 367,89; 9885,063;  214,748;30544,715;31,88370
 368,48; 9777,890;  193,582;30179,808;31,96237
 369,07; 9660,950;  187,052;29522,711;32,29482
 369,67; 9651,321;  206,198;29218,710;32,55535
 370,26; 9569,885;  177,360;28888,112;32,71431
 370,85; 9541,135;  185,126;28556,666;32,97674
 371,44; 9507,622;  184,896;28357,435;33,09154
 372,03; 9430,858;  154,200;28132,391;33,15675
 372,63; 9376,214;  157,973;27646,214;33,53522
 373,22; 9328,673;  171,206;27237,698;33,83323
 373,81; 9258,893;  153,280;26869,231;34,08306
 374,40; 9241,156;  173,288;26611,169;34,29877
 374,99; 9169,460;  165,664;26272,286;34,48855
 375,59; 9117,626;  165,980;25907,594;34,77500
 376,18; 9153,714;  201,664;25786,737;34,98935
 376,77; 9136,679;  198,205;25584,959;35,20921
 377,36; 9168,332;  204,203;25603,593;35,29269
 377,95; 9118,476;  194,739;25167,785;35,73348
 378,55; 9084,785;  172,440;24949,659;35,96992
 379,14; 9118,936;  193,434;24881,312;36,15338
 379,73; 9130,950;  174,355;24717,955;36,49259
 380,32; 9170,854;  194,589;24783,324;36,50560
 380,91; 9231,320;  174,967;24615,513;37,05463
 381,50; 9302,139;  190,814;24568,194;37,37614
 382,10; 9305,316;  168,589;24405,939;37,69689
 382,69; 9261,672;  152,972;24328,931;37,67669
 383,28; 9372,494;  203,276;24238,789;38,14862
 383,87; 9344,471;  172,661;24083,843;38,35783
 384,46; 9391,251;  175,425;24047,479;38,60508
 385,05; 9481,974;  202,199;24006,759;38,98318
 385,64; 9460,607;  195,123;24065,872;38,81522
 386,24; 9575,162;  159,501;23942,693;39,58956
 386,83; 9707,411;  203,193;24066,663;39,82748
 387,42; 9818,004;  199,431;24173,658;40,12047
 388,01; 9987,139;  184,111;24341,640;40,57960
 388,60;10128,540;  193,118;24709,739;40,52525
 389,19;10302,684;  175,259;24923,684;40,92149
 389,78;10526,163;  175,260;25264,489;41,25636
 390,37;10825,459;  238,806;25707,842;41,56676
 390,96;10977,391;  177,501;25862,265;42,04785
 391,56;11115,115;  179,103;26100,820;42,18861
 392,15;11359,783;  169,184;26383,893;42,68824
 392,74;11451,707;  156,633;26661,230;42,61553
 393,33;11711,112;  173,486;27021,151;42,97441
 393,92;12044,326;  184,859;27416,297;43,55065
 394,51;12173,341;  161,486;27625,647;43,73647
 395,10;12390,088;  204,385;27911,868;43,97983
 395,69;12584,602;  193,156;28069,635;44,45126
 396,28;12667,454;  203,303;28244,714;44,44908
 396,87;12791,352;  201,830;28278,280;44,84015
 397,46;12907,123;  202,977;28389,844;45,07115
 398,06;13176,997;  223,583;28684,409;45,51313
 398,65;13248,324;  186,330;28773,929;45,69112
 399,24;13469,450;  208,403;28930,889;46,16957
 399,83;13500,402;  189,754;28943,818;46,29136
 400,42;13742,874;  234,878;29129,852;46,74860
 401,01;13796,438;  199,152;29283,114;46,75183
 401,60;13892,293;  212,721;29237,521;47,13063
 402,19;13980,879;  226,300;29180,389;47,50479
 402,78;14072,955;  237,243;29238,004;47,70810
 403,37;14079,570;  229,421;29088,693;47,99203
 403,96;14054,621;  220,819;28866,323;48,29310
 404,55;14146,026;  224,826;28737,408;48,82476
 405,14;14057,041;  214,686;28590,262;48,78264
 405,73;14135,296;  223,688;28460,261;49,26805
 406,32;14200,134;  226,561;28439,831;49,52837
 406,91;14108,688;  222,888;28051,176;49,89815
 407,50;14091,138;  233,397;27885,955;50,11378
 408,09;14044,261;  199,914;27519,244;50,67601
 408,68;14040,848;  216,822;27407,573;50,84091
 409,27;14017,718;  203,611;27184,332;51,19992
 409,86;13980,650;  214,194;26963,467;51,46478
 410,45;14068,498;  245,386;26892,896;51,87393
 411,04;14094,130;  254,194;26825,042;52,08692
 411,63;13969,502;  239,245;26454,305;52,37546
 412,22;13876,306;  236,983;26181,055;52,57202
 412,81;13719,943;  248,845;25852,388;52,61419
 413,40;13621,380;  256,482;25492,080;52,96050
 413,99;13460,837;  300,244;25065,382;53,14161
 414,58;13261,481;  230,633;24623,115;53,42157
 415,17;13173,680;  237,999;24339,435;53,67183
 415,76;13128,013;  227,443;24224,896;53,75808
 416,35;13063,963;  228,683;23937,803;54,13647
 416,94;13170,140;  254,678;24051,686;54,27347
 417,53;13407,741;  227,770;24292,628;54,76854
 418,12;13527,692;  232,082;24383,438;55,05119
 418,71;13828,152;  256,790;24860,397;55,16005
 419,30;13917,819;  246,699;24968,470;55,29992
 419,89;14133,637;  223,010;25135,525;55,83791
 420,48;14350,438;  255,252;25478,878;55,88089
 421,07;14468,991;  247,640;25620,321;56,04986
 421,66;14554,009;  216,496;25646,264;56,38082
 422,25;14577,005;  228,590;25592,673;56,56982
 422,84;14631,856;  261,517;25527,800;56,87555
 423,43;14476,230;  236,509;25232,040;56,96907
 424,02;14417,629;  259,282;24872,944;57,52231
 424,60;14104,334;  237,766;24363,300;57,47673
 425,19;13962,046;  245,831;23974,682;57,80396
 425,78;13958,436;  255,679;23951,779;57,82706
 426,37;13959,754;  258,456;23789,385;58,22676
 426,96;13880,491;  245,302;23649,740;58,25899
 427,55;13853,442;  243,545;23412,611;58,74167
 428,14;13730,651;  224,243;23232,847;58,70155
 428,73;13663,247;  231,617;22975,895;59,05498
 429,32;13665,661;  262,608;22932,162;59,12358
 429,91;13684,634;  266,310;22943,828;59,17016
 430,50;13645,858;  261,778;22755,783;59,50065
 431,08;13572,982;  267,477;22570,407;59,65810
 431,67;13537,160;  310,329;22488,042;59,64020
 432,26;13432,622;  331,180;22151,918;60,04124
 432,85;13203,846;  348,563;21789,120;59,95778
 433,44;13034,528;  362,110;21347,251;60,38758
 434,03;12748,839;  365,506;20946,123;60,16988
 434,62;12557,773;  318,957;20417,157;60,89509
 435,21;12427,575;  340,333;20272,631;60,64149
 435,79;12330,415;  322,579;20002,340;61,01617
 436,38;12354,570;  326,897;19925,091;61,37133
 436,97;12219,367;  325,437;19817,408;61,01964
 437,56;12115,303;  314,992;19562,777;61,30737
 438,15;12101,473;  290,680;19476,971;61,55850
 438,74;12167,381;  313,605;19481,053;61,84326
 439,33;12194,481;  287,757;19497,165;61,98382
 439,91;12236,611;  245,303;19573,117;62,04172
 440,50;12305,196;  306,303;19638,558;62,06670
 441,09;12420,367;  288,544;19760,150;62,30520
 441,68;12386,637;  282,322;19706,655;62,31522
 442,27;12454,170;  270,011;19745,945;62,56007
 442,86;12460,837;  245,955;19721,175;62,72013
 443,44;12528,260;  261,104;19793,776;62,80326
 444,03;12629,872;  328,878;19820,061;63,11056
 444,62;12501,092;  264,647;19679,318;63,02679
 445,21;12424,422;  269,568;19445,079;63,38738
 445,80;12352,754;  289,118;19372,359;63,21587
 446,39;12211,768;  337,962;19011,849;63,58508
 446,97;11983,107;  250,821;18840,960;63,11026
 447,56;11869,882;  257,215;18524,084;63,57229
 448,15;11769,974;  260,282;18337,402;63,66994
 448,74;11616,452;  280,514;18026,394;63,87926
 449,33;11490,491;  259,983;17866,055;63,78770
 449,91;11387,163;  251,455;17570,442;64,29769
 450,50;11199,099;  259,991;17297,350;64,20659
 451,09;11185,994;  285,839;17226,339;64,34376
 451,68;11039,826;  300,997;17102,804;63,91473
 452,26;11001,594;  283,772;17030,593;63,99914
 452,85;10909,801;  268,230;16936,648;63,84272
 453,44;10855,291;  290,014;16939,936;63,45541
 454,03;10897,827;  256,390;16846,173;64,14452
 454,61;10806,570;  250,169;16820,266;63,70754
 455,20;11053,513;  277,174;17078,617;64,13937
 455,79;11005,455;  289,165;16986,449;64,17984
 456,38;11147,745;  296,567;17164,678;64,32953
 456,97;11133,471;  266,026;17172,028;64,28158
 457,55;11182,925;  273,725;17172,291;64,55696
 458,14;11186,946;  286,409;17167,825;64,57122
 458,73;11092,358;  283,264;17100,544;64,27373
 459,31;11203,846;  312,042;17137,143;64,73544
 459,90;11235,990;  316,422;17295,920;64,31032
 460,49;11334,012;  364,958;17361,483;64,53704
 461,08;11307,809;  279,970;17441,739;64,25817
 461,66;11413,196;  281,504;17518,719;64,57941
 462,25;11525,892;  282,128;17645,449;64,75584
 462,84;11550,858;  315,740;17659,377;64,77948
 463,43;11513,021;  252,676;17615,201;64,85431
 464,01;11539,259;  279,989;17602,723;64,99707
 464,60;11496,721;  335,211;17568,320;64,76783
 465,19;11304,193;  270,376;17198,651;65,17981
 465,77;11270,883;  283,765;17229,824;64,83583
 466,36;11237,571;  312,984;17093,712;65,10198
 466,95;10986,422;  293,062;16713,962;65,12042
 467,53;10767,895;  288,694;16421,750;64,95484
 468,12;10521,110;  316,849;16087,943;64,70230
 468,71;10388,186;  296,300;15790,389;65,13378
 469,29;10132,214;  272,850;15529,832;64,62198
 469,88; 9929,131;  273,316;15166,261;64,83483
 470,47;10050,506;  345,017;15330,777;64,76475
 471,06;10028,937;  297,402;15300,251;64,86458
 471,64;10085,751;  298,169;15390,728;64,85038
 472,23;10042,919;  275,262;15451,756;64,36043
 472,81;10122,952;  270,331;15582,845;64,34359
 473,40;10239,316;  278,186;15703,080;64,57827
 473,99;10415,723;  372,724;15886,104;64,73766
 474,57;10467,270;  285,724;16111,606;64,33478
 475,16;10600,729;  299,487;16293,259;64,40783
 475,75;10726,494;  322,884;16323,869;65,01856
 476,33;10752,895;  314,275;16490,199;64,53183
 476,92;10788,564;  308,033;16548,808;64,53221
 477,51;10867,553;  310,580;16611,204;64,76423
 478,09;10811,444;  306,503;16621,328;64,38893
 478,68;10774,301;  305,352;16593,948;64,27165
 479,27;10799,452;  338,884;16548,293;64,53392
 479,85;10815,728;  318,275;16619,600;64,39631
 480,44;10853,291;  302,355;16731,357;64,22140
 481,02;11780,908;  312,515;18562,738;62,83974
 481,61;13314,381;  343,127;20852,679;63,24494
 482,20;14296,964;  334,207;22219,373;63,80009
 482,78;14957,571;  356,507;23124,545;64,12965
 483,37;15337,264;  342,908;23711,206;64,16537
 483,95;15550,425;  374,295;24099,851;63,96533
 484,54;15746,486;  382,434;24269,195;64,32037
 485,13;15563,851;  355,841;24152,213;63,90894
 485,71;15425,148;  326,223;23848,593;64,18964
 486,30;15255,423;  377,915;23463,717;64,44441
 486,88;14987,794;  413,532;23027,458;64,44817
 487,47;14384,165;  387,919;22239,507;64,05139
 488,05;13758,123;  380,461;21146,391;64,42121
 488,64;12776,778;  369,775;19587,667;64,55965
 489,23;11416,065;  381,232;17362,008;64,98427
 489,81; 9695,689;  380,003;14888,772;64,20728
 490,40; 9133,530;  335,928;14300,400;62,99989
 490,98; 8945,850;  316,777;13995,218;63,08521
 491,57; 8858,080;  340,156;13902,419;62,80607
 492,15; 8754,085;  325,624;13829,391;62,41563
 492,74; 8673,599;  326,308;13651,066;62,64497
 493,32; 8555,386;  345,392;13579,669;62,03583
 493,91; 8501,605;  317,089;13407,144;62,52468
 494,50; 8444,797;  330,793;13387,330;62,14515
 495,08; 8355,487;  317,947;13341,859;61,71372
 495,67; 8338,172;  339,780;13260,352;61,90431
 496,25; 8219,991;  278,326;13179,140;61,55941
 496,84; 8170,411;  276,626;13171,008;61,21879
 497,42; 8144,858;  279,866;13083,075;61,42985
 498,01; 8090,824;  311,474;12980,017;61,40683
 498,59; 7962,906;  275,714;12968,559;60,56319
 499,18; 7972,652;  272,474;12887,124;61,04155
 499,76; 7882,355;  299,941;12776,083;60,77531
 500,35; 7693,996;  282,412;12581,990;60,25885
 500,93; 7659,812;  284,943;12532,293;60,21604
 501,52; 7592,697;  276,329;12419,462;60,25107
 502,10; 7544,829;  288,801;12366,037;60,08021
 502,69; 7384,715;  272,729;12183,358;59,71125
 503,27; 7235,458;  249,025;11948,958;59,71345
 503,86; 7147,619;  267,496;11872,356;59,28657
 504,44; 6984,691;  255,346;11743,246;58,57768
 505,03; 6799,317;  234,269;11415,450;58,71516
 505,61; 6723,937;  269,037;11260,394;58,72705
 506,19; 6543,294;  272,423;11047,691;58,19689
 506,78; 6427,836;  240,509;10842,267;58,36134
 507,36; 6278,447;  255,653;10682,725;57,76112
 507,95; 6141,501;  248,820;10513,057;57,40983
 508,53; 6045,231;  257,739;10371,812;57,22217
 509,12; 5979,825;  262,434;10229,633;57,36206
 509,70; 5818,383;  275,129;10006,678;56,96168
 510,29; 5720,005;  275,287; 9834,123;56,96005
 510,87; 5589,670;  250,508; 9618,789;56,99191
 511,46; 5470,634;  243,049; 9467,506;56,67092
 512,04; 5341,565;  245,669; 9264,610;56,50216
 512,62; 5229,140;  260,895; 9084,707;56,30497
 513,21; 5120,205;  236,057; 8856,213;56,65962
 513,79; 4974,832;  240,763; 8741,200;55,69207
 514,38; 4874,736;  234,527; 8571,585;55,65763
 514,96; 4776,513;  272,680; 8452,275;55,06181
 515,54; 4693,844;  231,914; 8307,988;55,24875
 516,13; 4602,331;  260,069; 8148,603;55,04524
 516,71; 4467,992;  242,536; 8028,371;54,27107
 517,30; 4371,617;  239,541; 7918,211;53,81239
 517,88; 4320,747;  264,310; 7867,913;53,34888
 518,46; 4175,724;  238,928; 7656,306;53,07531
 519,05; 4172,081;  246,470; 7638,173;53,10835
 519,63; 4130,304;  262,083; 7514,332;53,33822
 520,22; 4017,305;  262,784; 7445,821;52,26927
 520,80; 3963,748;  247,939; 7367,466;52,19180
 521,38; 3980,282;  286,317; 7353,614;52,26843
 521,97; 3880,874;  257,097; 7281,333;51,58963
 522,55; 3860,379;  259,558; 7301,951;51,13064
 523,13; 3798,513;  243,100; 7235,508;50,84676
 523,72; 3772,855;  239,927; 7222,778;50,59434
 524,30; 3832,099;  277,796; 7389,177;49,98049
 524,89; 3817,317;  238,405; 7373,054;50,16241
 525,47; 3828,711;  272,720; 7507,848;49,14896
 526,05; 3805,517;  212,414; 7542,206;49,02054
 526,64; 3854,395;  250,031; 7702,114;48,36720
 527,22; 3918,578;  264,105; 7826,905;48,32169
 527,80; 3936,107;  299,262; 7936,589;47,61935
 528,39; 3907,417;  236,726; 8079,245;46,80499
 528,97; 3972,806;  255,879; 8216,036;46,69414
 529,55; 4056,227;  264,792; 8398,070;46,61633
 530,14; 4122,086;  275,498; 8635,518;46,01170
 530,72; 4147,773;  244,110; 8740,621;45,94431
 531,30; 4141,144;  226,268; 8917,086;45,04611
 531,89; 4222,737;  253,576; 8952,678;45,62725
 532,47; 4211,756;  292,270; 9083,493;44,58409
 533,05; 4241,524;  280,646; 9093,388;44,94490
 533,63; 4255,289;  275,963; 9189,539;44,64342
 534,22; 4220,476;  262,887; 9244,228;44,06457
 534,80; 4244,654;  287,277; 9288,247;43,96611
 535,38; 4382,235;  364,423; 9440,343;44,26893
 535,97; 4239,977;  270,809; 9341,255;43,75935
 536,55; 4266,954;  311,509; 9435,865;43,35040
 537,13; 4236,471;  333,960; 9437,408;42,86850
 537,71; 4228,182;  379,190; 9454,224;42,41298
 538,30; 4262,122;  408,196; 9552,939;42,14362
 538,88; 4309,368;  442,052; 9663,564;41,93798
 539,46; 4392,467;  505,815; 9877,097;41,47406
 540,05; 4381,755;  521,434;10009,619;40,68556
 540,63; 4488,910;  584,127;10211,816;40,55785
 541,21; 4547,947;  616,131;10360,128;40,35116
 541,79; 4545,386;  666,284;10492,643;39,47649
 542,38; 4629,774;  694,510;10649,590;39,53021
 542,96; 4647,747;  715,597;10826,563;38,88995
 543,54; 4738,515;  723,514;11076,303;38,78183
 544,12; 4729,753;  690,747;11230,716;38,32086
 544,70; 4707,342;  678,597;11332,472;37,81483
 545,29; 4815,753;  691,895;11467,071;38,27184
 545,87; 4839,232;  657,515;11489,259;38,60613
 546,45; 4817,520;  609,972;11481,138;38,70374
 547,03; 4742,104;  562,667;11594,568;37,88501
 547,62; 4777,257;  537,593;11769,522;37,74654
 548,20; 4850,084;  539,442;12006,276;37,59226
 548,78; 4847,958;  483,377;12138,565;37,44753
 549,36; 4878,568;  441,684;12306,161;37,39637
 549,94; 4872,681;  400,210;12432,658;37,17009
 550,53; 4944,197;  414,451;12694,266;36,88774
 551,11; 4955,341;  380,149;12908,400;36,51900
 551,69; 5055,479;  393,683;13245,145;36,27444
 552,27; 5059,417;  344,679;13473,800;35,91054
 552,85; 5175,142;  355,302;13872,891;35,65606
 553,44; 5281,269;  351,529;14212,740;35,56500
 554,02; 5363,640;  353,916;14576,943;35,22263
 554,60; 5406,080;  295,842;14918,302;34,94787
 555,18; 5532,392;  330,914;15274,523;34,80737
 555,76; 5604,805;  312,301;15730,070;34,32730
 556,34; 5709,351;  318,539;16110,744;34,13591
 556,93; 5826,734;  304,453;16524,255;34,04654
 557,51; 5904,957;  287,693;16869,583;33,87590
 558,09; 6018,624;  304,761;17256,566;33,70652
 558,67; 6145,170;  307,158;17648,534;33,66522
 559,25; 6151,897;  323,310;18007,696;32,95895
 559,83; 6239,270;  302,546;18345,401;32,90346
 560,41; 6281,180;  289,229;18728,400;32,49577
 561,00; 6366,807;  307,235;19116,480;32,21593
 561,58; 6423,376;  290,921;19327,438;32,21417
 562,16; 6521,759;  272,303;19675,550;32,20830
 562,74; 6607,520;  278,839;20110,555;31,91192
 563,32; 6655,071;  265,930;20529,970;31,52945
 563,90; 6800,027;  287,004;20949,892;31,52039
 564,48; 6857,086;  296,613;21437,903;31,03157
 565,06; 7016,980;  306,927;22127,297;30,75133
 565,65; 7210,777;  292,628;22876,478;30,63317
 566,23; 7407,918;  340,697;23727,092;30,21937
 566,81; 7619,237;  287,617;24510,726;30,26705
 567,39; 7923,254;  300,932;25535,594;30,20576
 567,97; 8080,824;  314,234;26144,826;30,06741
 568,55; 8333,982;  336,622;27166,415;29,80776
 569,13; 8448,985;  283,697;27917,393;29,54830
 569,71; 8745,637;  294,687;29013,811;29,42621
 570,29; 9063,140;  334,992;30096,389;29,32708
 570,87; 9260,490;  325,225;30941,688;29,18451
 571,45; 9401,234;  325,235;31609,363;29,01151
 572,03; 9478,819;  293,548;32143,868;28,83887
 572,61; 9587,003;  281,699;32967,164;28,46924
 573,20; 9844,738;  314,924;33617,830;28,61556
 573,78; 9958,467;  289,699;34373,559;28,36759
 574,36;10022,054;  325,698;34919,934;28,02882
 574,94;10127,846;  382,550;35314,064;27,89829
 575,52;10110,943;  316,019;35552,524;27,79766
 576,10;10275,986;  373,554;36194,068;27,64458
 576,68;10357,170;  361,548;36853,640;27,39120
 577,26;10517,484;  385,714;37576,642;27,24258
 577,84;10557,969;  381,083;38161,201;26,93715
 578,42;10622,393;  431,244;38459,829;26,79866
 579,00;10552,632;  385,238;38593,378;26,61055
 579,58;10539,979;  424,627;38834,084;26,33558
 580,16;10398,925;  396,553;38808,644;26,03965
 580,74;10405,389;  389,476;39054,038;25,90463
 581,32;10312,686;  382,781;39009,879;25,70709
 581,90;10216,177;  424,399;38879,547;25,46285
 582,48;10191,167;  422,091;39172,617;25,21018
 583,06;10142,673;  416,473;39180,820;25,09058
 583,64;10029,747;  412,703;39283,271;24,74120
 584,22; 9883,642;  430,328;39106,817;24,44202
 584,80; 9748,229;  420,167;38681,591;24,37981
 585,38; 9519,405;  448,538;38295,908;23,96697
 585,96; 9423,857;  404,085;38219,578;23,85205
 586,54; 9357,054;  443,942;38282,212;23,55581
 587,12; 9258,021;  402,862;38389,415;23,31130
 587,70; 9251,321;  422,778;38481,587;23,19711
 588,28; 9157,130;  406,401;38511,753;22,96457
 588,86; 9140,004;  413,479;38590,685;22,85795
 589,44; 9037,806;  386,333;38608,623;22,63463
 590,02; 9051,413;  397,946;38838,781;22,51113
 590,59; 8955,921;  371,172;38986,654;22,23137
 591,17; 8996,070;  375,033;39198,637;22,20566
 591,75; 8858,313;  368,105;39290,821;21,81299
 592,33; 8928,799;  373,642;39535,318;21,84574
 592,91; 8853,930;  331,262;39761,511;21,61454
 593,49; 8892,626;  333,420;40143,947;21,49986
 594,07; 8884,032;  355,497;40314,081;21,34344
 594,65; 8824,321;  365,789;40319,988;21,17057
 595,23; 8881,566;  366,100;40693,046;21,11607
 595,81; 8813,541;  349,025;40809,044;20,92069
 596,39; 8727,598;  342,564;40992,723;20,62731
 596,97; 8776,292;  338,801;41258,565;20,61960
 597,55; 8663,680;  340,714;41009,756;20,46512
 598,12; 8594,601;  317,960;41111,099;20,28930
 598,70; 8553,298;  302,033;41148,397;20,20073
 599,28; 8533,793;  340,187;41411,393;19,94976
 599,86; 8500,109;  309,955;41385,203;19,93939
 600,44; 8407,975;  293,727;41535,941;19,67462
 601,02; 8403,519;  339,198;41604,867;19,54245
 601,60; 8335,215;  325,798;41550,610;19,42863
 602,18; 8302,852;  299,806;41552,575;19,40002
 602,75; 8221,385;  298,563;41554,189;19,20422
 603,33; 8253,892;  306,264;41695,494;19,20217
 603,91; 8151,757;  298,656;41529,371;19,04673
 604,49; 8137,916;  323,495;41744,637;18,86578
 605,07; 8115,423;  343,490;41730,390;18,77873
 605,65; 8082,363;  344,189;41855,071;18,64132
 606,23; 8049,522;  419,095;41953,782;18,37122
 606,80; 8013,670;  477,178;41965,396;18,16538
 607,38; 7959,588;  518,193;41963,994;17,95452
 607,96; 7970,537;  578,332;42048,453;17,82538
 608,54; 7942,572;  655,958;42069,663;17,59469
 609,12; 7880,626;  639,640;42163,546;17,43812
 609,70; 7893,636;  687,263;42148,033;17,38118
 610,27; 7870,336;  696,254;42161,704;17,30135
 610,85; 7849,524;  728,109;42298,070;17,13116
 611,43; 7797,287;  731,187;42209,423;17,03568
 612,01; 7637,430;  677,104;42004,002;16,84212
 612,59; 7679,240;  686,724;42054,983;16,90309
 613,16; 7534,049;  639,020;42004,917;16,66839
 613,74; 7503,156;  607,879;41892,490;16,70181
 614,32; 7489,507;  551,343;41874,679;16,78994
 614,90; 7358,945;  507,722;41710,583;16,62803
 615,48; 7278,845;  443,637;41340,037;16,71347
 616,05; 7214,188;  417,327;41362,814;16,59978
 616,63; 7172,761;  428,940;41107,745;16,57822
 617,21; 7121,402;  418,562;41058,193;16,49336
 617,79; 6995,719;  395,333;40977,077;16,26442
 618,36; 6967,246;  409,490;40879,443;16,20401
 618,94; 6855,343;  349,561;40506,197;16,20101
 619,52; 6811,765;  374,864;40246,952;16,14388
 620,10; 6743,067;  360,102;40224,335;16,01176
 620,67; 6699,256;  363,940;40124,050;15,93385
 621,25; 6651,435;  390,106;39896,483;15,84891
 621,83; 6590,200;  351,253;39866,016;15,78890
 622,41; 6597,858;  400,868;39882,361;15,69594
 622,98; 6510,321;  365,325;39627,033;15,65137
 623,56; 6474,449;  367,939;39583,188;15,57177
 624,14; 6458,389;  348,031;39486,502;15,61215
 624,72; 6421,386;  339,561;39336,969;15,59546
 625,29; 6365,559;  332,862;39395,800;15,44353
 625,87; 6381,049;  374,564;39315,101;15,42476
 626,45; 6282,729;  327,015;39105,145;15,35844
 627,02; 6254,579;  337,642;38977,060;15,31322
 627,60; 6189,766;  323,419;39002,921;15,16655
 628,18; 6152,011;  304,024;39022,700;15,10379
 628,76; 6151,939;  309,941;39026,274;15,08923
 629,33; 6155,775;  335,328;39137,683;15,00024
 629,91; 6106,144;  317,794;39047,566;14,94548
 630,49; 6127,055;  358,096;39197,640;14,85331
 631,06; 6117,721;  336,941;39275,641;14,84585
 631,64; 6083,809;  322,477;39242,001;14,80319
 632,22; 6033,928;  291,628;39338,237;14,70627
 632,79; 6049,115;  318,859;39573,157;14,59778
 633,37; 6035,805;  295,259;39474,226;14,65211
 633,95; 6044,805;  300,707;39608,333;14,61319
 634,52; 6028,176;  280,637;39778,026;14,55169
 635,10; 6010,789;  288,409;39761,510;14,49691
 635,68; 6049,555;  294,858;39941,518;14,51496
 636,25; 5967,360;  281,392;39949,384;14,33389
 636,83; 5995,554;  280,941;40174,351;14,32471
 637,41; 5984,912;  277,088;40236,322;14,28412
 637,98; 6027,547;  302,549;40428,874;14,26744
 638,56; 6000,728;  289,237;40563,656;14,18144
 639,13; 6012,451;  288,324;40587,813;14,20397
 639,71; 6081,623;  323,326;40792,815;14,22874
 640,29; 5933,016;  250,634;40492,388;14,12061
 640,86; 5957,927;  261,557;40670,603;14,09677
 641,44; 5964,223;  275,173;40661,895;14,08644
 642,02; 6010,134;  304,942;40628,879;14,14840
 642,59; 5951,814;  258,019;40850,632;14,02668
 643,17; 5949,264;  266,404;40893,616;13,98782
 643,74; 5897,482;  263,866;40884,446;13,86887
 644,32; 5937,163;  298,789;40771,276;13,93137
 644,89; 5893,766;  293,174;40824,414;13,81796
 645,47; 5919,754;  308,790;40873,860;13,83201
 646,05; 5913,434;  290,252;40709,459;13,91216
 646,62; 5838,192;  281,329;40667,597;13,75929
 647,20; 5880,641;  297,406;40834,043;13,77331
 647,77; 5780,937;  268,022;40700,488;13,63487
 648,35; 5768,310;  262,406;40662,934;13,62830
 648,92; 5788,759;  281,022;40673,072;13,63570
 649,50; 5744,363;  250,330;40562,748;13,62864
 650,08; 5746,274;  252,176;40433,501;13,67326
 650,65; 5748,877;  271,715;40672,485;13,55707
 651,23; 5846,096;  241,792;41625,239;13,54238
 651,80; 6009,161;  249,485;42686,530;13,57228
 652,38; 6067,918;  268,562;43115,284;13,53512
 652,95; 6108,906;  228,255;43540,806;13,57725
 653,53; 6183,740;  268,870;43811,713;13,58402
 654,10; 6220,113;  292,409;44030,774;13,55264
 654,68; 6158,332;  254,717;43932,066;13,51642
 655,25; 6170,550;  237,948;43918,511;13,58179
 655,83; 6158,692;  249,333;44067,880;13,48598
 656,40; 6197,373;  276,256;44095,710;13,51253
 656,98; 6128,976;  250,718;43958,925;13,44887
 657,55; 6133,733;  267,487;43774,294;13,48351
 658,13; 6072,491;  248,411;43248,124;13,54446
 658,70; 6021,786;  270,488;42924,415;13,48363
 659,28; 5899,236;  271,642;41800,015;13,55120
 659,85; 5770,993;  277,950;41111,307;13,45234
 660,43; 5744,289;  284,642;41146,444;13,36125
 661,00; 5753,892;  263,489;41329,352;13,36975
 661,58; 5796,419;  255,566;41576,259;13,40939
 662,15; 5822,868;  242,412;41733,166;13,44988
 662,73; 5943,472;  330,643;42125,765;13,42939
 663,30; 5944,921;  268,336;42366,595;13,48413
 663,88; 5972,909;  270,028;42426,887;13,52776
 664,45; 6004,436;  254,644;42750,025;13,53039
 665,03; 6102,193;  262,952;43118,394;13,62544
 665,60; 6229,412;  335,645;43618,839;13,61676
 666,17; 6145,554;  255,337;43668,285;13,56788
 666,75; 6152,926;  252,107;44082,730;13,46278
 667,32; 6244,530;  278,722;44412,945;13,51742
 667,90; 6294,287;  270,415;44652,775;13,57267
 668,47; 6308,429;  285,338;45028,605;13,46145
 669,05; 6362,647;  254,877;45230,974;13,58004
 669,62; 6378,405;  240,415;45445,266;13,57817
 670,19; 6364,316;  250,262;45426,788;13,53370
 670,77; 6369,842;  258,570;45669,388;13,45775
 671,34; 6425,753;  239,416;45574,449;13,64582
 671,92; 6465,280;  237,186;45965,125;13,61989
 672,49; 6502,191;  268,878;45987,032;13,63422
 673,06; 6446,102;  221,494;46023,093;13,59037
 673,64; 6500,167;  237,340;46026,385;13,67757
 674,21; 6456,386;  227,417;45941,215;13,62601
 674,79; 6553,912;  265,725;46187,584;13,69323
 675,36; 6559,900;  264,649;46322,644;13,66810
 675,93; 6537,811;  233,034;46178,859;13,72220
 676,51; 6584,492;  254,649;46308,997;13,74429
 677,08; 6598,095;  259,496;46503,827;13,70676
 677,65; 6602,160;  256,265;46552,888;13,70704
 678,23; 6630,071;  257,419;46751,334;13,70642
 678,80; 6687,521;  248,650;46858,087;13,81452
 679,38; 6674,432;  247,266;47109,840;13,71492
 679,95; 6752,574;  252,881;47317,747;13,81007
 680,52; 6817,331;  248,112;47656,885;13,85655
 681,10; 6875,396;  275,036;48104,254;13,79985
 681,67; 6929,153;  256,574;48320,699;13,88266
 682,24; 6956,295;  225,190;48404,530;13,97094
 682,82; 7032,898;  235,806;48952,668;13,95224
 683,39; 7168,425;  295,191;49430,421;13,98840
 683,96; 7197,874;  249,114;49508,405;14,10650
 684,54; 7225,093;  222,268;49864,004;14,10673
 685,11; 7321,312;  271,653;50262,527;14,10189
 685,68; 7342,608;  244,499;50754,895;14,05277
 686,25; 7367,519;  233,346;50844,418;14,09607
 686,83; 7405,045;  244,654;51055,017;14,09238
 687,40; 7491,649;  224,500;51346,694;14,21525
 687,97; 7621,944;  275,731;51750,139;14,27158
 688,55; 7547,086;  224,347;51804,892;14,19671
 689,12; 7597,074;  199,347;52041,107;14,26982
 689,69; 7612,908;  225,578;52085,783;14,24470
 690,26; 7631,281;  238,424;52170,768;14,23555
 690,84; 7679,038;  233,348;52441,982;14,26142
 691,41; 7726,642;  252,809;52486,197;14,30853
 691,98; 7793,245;  245,425;52829,643;14,35377
 692,56; 7796,618;  229,271;52997,857;14,34063
 693,13; 7828,606;  287,579;52920,534;14,32758
 693,70; 7921,363;  262,349;53043,979;14,51076
 694,27; 7945,351;  241,503;53282,963;14,52420
 694,84; 7948,724;  231,657;53357,640;14,52597
 695,42; 8027,942;  283,965;53472,855;14,55939
 695,99; 8028,853;  250,734;53747,223;14,53949
 696,56; 8029,380;  241,889;53559,361;14,60589
 697,13; 8063,137;  261,966;53951,114;14,53026
 697,71; 8118,048;  229,043;53976,483;14,67792
 698,28; 8140,575;  243,197;54357,159;14,59397
 698,85; 8188,332;  208,890;54387,066;14,72815
 699,42; 8207,705;  218,505;54574,973;14,69779
 699,99; 8285,385;  255,659;54751,188;14,73465
 700,57; 8323,450;  251,429;54712,941;14,82151
 701,14; 8361,746;  237,660;54894,310;14,86386
 701,71; 8425,503;  261,583;55089,140;14,89018
 702,28; 8419,876;  249,660;55203,124;14,86752
 702,85; 8428,556;  258,968;55134,724;14,88743
 703,43; 8464,390;  269,199;55389,092;14,86794
 704,00; 8557,301;  276,892;55671,230;14,94811
 704,57; 8517,443;  259,892;55673,368;14,90170
 705,14; 8636,662;  286,354;55892,198;15,01696
 705,71; 8632,188;  296,585;55932,028;14,98254
 706,28; 8623,022;  260,123;55763,397;15,06740
 706,86; 8709,857;  297,585;56023,227;15,09587
 707,43; 8751,768;  316,355;55914,288;15,17217
 708,00; 8787,371;  290,509;56106,503;15,22299
 708,57; 8769,128;  255,048;55978,949;15,27905
 709,14; 8802,039;  285,586;56030,394;15,27757
 709,71; 8849,874;  270,279;56060,917;15,37820
 710,28; 8860,554;  264,894;56358,516;15,32377
 710,86; 8877,850;  265,895;56390,423;15,34437
 711,43; 8976,838;  296,126;56437,638;15,46220
 712,00; 8964,133;  276,818;56659,237;15,40784
 712,57; 9059,044;  282,126;56759,375;15,54063
 713,14; 9036,494;  262,973;56867,513;15,49968
 713,71; 9085,328;  272,050;56818,343;15,58595
 714,28; 9084,085;  257,588;56919,404;15,57750
 714,85; 9027,227;  242,050;56565,004;15,59786
 715,42; 9076,138;  242,358;56728,757;15,63877
 716,00; 9194,588;  316,820;56924,125;15,68308
 716,57; 9137,807;  246,282;56951,802;15,68018
 717,14; 9153,333;  229,974;56936,170;15,73613
 717,71; 9151,244;  230,821;56957,693;15,72522
 718,28; 9221,002;  278,898;57090,138;15,74003
 718,85; 9233,913;  222,821;57116,123;15,83858
 719,42; 9301,285;  257,360;57282,953;15,85941
 719,99; 9234,658;  231,745;57033,706;15,84965
 720,56; 9357,954;  256,360;57311,613;15,95224
 721,13; 9315,249;  232,668;57520,982;15,85416
 721,70; 9319,391;  239,822;57310,581;15,90932
 722,27; 9380,456;  258,976;57399,027;15,96337
 722,84; 9501,598;  299,823;57566,780;16,06821
 723,41; 9389,894;  226,131;57493,072;16,00184
 723,98; 9434,805;  239,823;57758,517;15,98607
 724,55; 9549,639;  264,824;57882,194;16,11461
 725,12; 9519,781;  205,285;57881,947;16,14951
 725,69; 9586,307;  228,670;57941,777;16,21406
 726,27; 9618,834;  246,132;57932,069;16,24781
 726,84; 9690,745;  246,978;58437,283;16,22911
 727,41; 9778,810;  251,671;58343,037;16,40027
 727,98; 9834,182;  259,364;58616,559;16,40726
 728,55; 9883,017;  276,748;58480,851;16,50445
 729,12; 9869,620;  228,364;58644,450;16,50445
 729,69; 9904,454;  273,287;58787,204;16,45962
 730,26; 9963,365;  273,365;58986,572;16,50395
 730,82; 9910,584;  253,365;58801,325;16,49454
 731,39; 9991,111;  237,750;59025,694;16,59075
 731,96;10053,868;  226,058;59327,140;16,62882
 732,53;10098,317;  248,673;59445,739;16,63874
 733,10;10169,536;  270,904;59478,262;16,71858
 733,67;10168,909;  256,674;59837,399;16,63665
 734,24;10148,512;  234,982;59425,922;16,74839
 734,81;10222,346;  279,213;59498,291;16,79042
 735,38;10173,796;  257,136;59310,813;16,79262
 735,95;10184,169;  247,213;59091,028;16,88700
 736,52;10173,772;  265,598;59294,627;16,78526
 737,09;10214,914;  259,906;58937,919;16,96548
 737,66;10278,363;  308,368;59125,672;16,95079
 738,23;10315,890;  241,753;59219,425;17,08127
 738,80;10441,032;  325,753;59585,717;17,06933
 739,37;10437,789;  288,599;59725,470;17,07558
 739,94;10469,546;  264,676;59793,685;17,14268
 740,51;10576,765;  378,138;59844,131;17,15035
 741,07;10488,984;  253,908;59775,346;17,19561
 741,64;10544,510;  295,908;59983,022;17,17054
 742,21;10532,037;  261,600;60014,391;17,18821
 742,78;10595,717;  235,678;59743,298;17,40960
 743,35;10619,628;  248,986;60057,512;17,33974
 743,92;10723,232;  295,524;60245,266;17,39408
 744,49;10747,143;  282,063;60010,250;17,52117
 745,06;10673,823;  247,909;60085,464;17,42370
 745,63;10705,657;  238,217;60007,141;17,51318
 746,19;10758,491;  251,833;59962,356;17,59599
 746,76;10772,479;  256,602;60007,032;17,59967
 747,33;10757,467;  250,141;60026,247;17,57780
 747,90;10848,994;  280,911;60227,462;17,62918
 748,47;10883,366;  259,449;60168,984;17,73327
 749,04;10909,508;  265,296;60147,583;17,77523
 749,61;10954,496;  294,911;60038,337;17,84227
 750,17;10949,946;  285,758;60183,090;17,80411
 750,74;11001,934;  270,912;60067,997;17,94573
 751,31;10942,614;  243,835;60065,443;17,88447
 751,88;10914,756;  241,143;59910,196;17,88802
 752,45;10967,052;  258,143;60081,718;17,90082
 753,02;10996,578;  278,836;59896,625;17,97742
 753,58;10996,259;  233,913;59817,763;18,06252
 754,15;11054,247;  247,990;59950,286;18,10024
 754,72;10984,004;  240,375;59794,270;18,04018
 755,29;10936,761;  234,221;59679,792;18,00393
 755,86;11024,903;  253,222;59764,930;18,10010
 756,42;11071,968;  255,145;59646,837;18,21269
 756,99;11015,956;  217,299;59707,821;18,15189
 757,56;11022,021;  228,145;59525,421;18,20299
 758,13;11023,701;  191,300;59519,174;18,25854
 758,70;11117,766;  218,992;59516,312;18,37988
 759,26;11123,293;  204,069;59594,065;18,38563
 759,83;11141,588;  218,685;59743,126;18,35028
 760,40;11178,192;  204,608;59452,187;18,52157
 760,97;11157,718;  192,224;59546,094;18,47478
 761,53;11092,937;  191,609;59311,001;18,43951
 762,10;11131,233;  187,378;59170,831;18,55411
 762,67;11199,144;  214,148;59106,969;18,65252
 763,24;11146,901;  182,225;58661,107;18,74980
 763,80;11218,504;  201,687;58829,168;18,79122
 764,37;11187,877;  211,225;58747,614;18,75184
 764,94;11120,557;  187,379;58355,444;18,79584
 765,50;11147,776;  197,303;58250,889;18,86270
 766,07;11239,072;  233,226;58263,720;18,96563
 766,64;11160,214;  209,996;57982,396;18,95406
 767,21;11181,586;  222,150;57950,688;18,98443
 767,77;11206,728;  223,535;57757,210;19,09003
 768,34;11205,255;  243,996;57835,963;19,03262
 768,91;11199,089;  241,689;57543,101;19,12239
 769,47;11231,769;  240,920;57486,085;19,19961
 770,04;11263,603;  254,151;57440,992;19,25172
 770,61;11189,053;  231,382;57224,361;19,22635
 771,18;11227,656;  222,151;57047,268;19,36732
 771,74;11275,952;  237,459;57235,406;19,36647
 772,31;11251,863;  244,767;56999,467;19,39416
 772,88;11236,620;  209,152;56754,451;19,50201
 773,44;11155,916;  218,614;56536,589;19,42062
 774,01;11251,981;  239,537;56613,342;19,53468
 774,58;11196,354;  222,153;56296,711;19,57073
 775,14;11186,034;  210,999;56412,464;19,52802
 775,71;11195,099;  218,461;56348,294;19,55580
 776,27;11242,779;  280,615;56213,278;19,59886
 776,84;11388,460;  314,154;56304,493;19,77896
 777,41;11266,832;  242,077;55950,785;19,79000
 777,97;11182,666;  227,770;55718,922;19,74170
 778,54;11228,039;  244,924;55748,830;19,78800
 779,11;11262,873;  259,386;55763,506;19,82463
 779,67;11258,784;  220,540;55671,721;19,90624
 780,24;11181,772;  237,540;55375,551;19,84880
 780,80;11240,606;  255,694;55373,919;19,92973
 781,37;11198,979;  250,002;55541,980;19,80211
 781,94;11236,121;  240,156;55196,888;20,00840
 782,50;11176,263;  249,695;55052,718;19,93789
 783,07;11311,020;  262,003;55063,856;20,16176
 783,63;11246,854;  225,849;54920,070;20,15022
 784,20;11233,688;  263,003;54836,977;20,10241
 784,77;11161,292;  235,850;54660,731;20,07435
 785,33;11147,203;  219,773;54378,176;20,17680
 785,90;11220,268;  240,542;54360,622;20,28771
 786,46;11240,641;  260,466;54292,837;20,32148
 787,03;11211,244;  221,004;54110,744;20,39394
 787,59;11226,924;  240,235;53997,420;20,43762
 788,16;11216,297;  251,697;54021,404;20,39178
 788,73;11153,669;  247,697;53785,311;20,37067
 789,29;11134,350;  240,544;53423,988;20,48345
 789,86;11177,722;  258,544;53351,202;20,56627
 790,42;11171,941;  242,237;53140,956;20,66157
 790,99;11097,545;  254,929;52815,940;20,62863
 791,55;11163,763;  229,160;52792,924;20,80255
 792,12;11147,136;  262,160;52820,523;20,71026
 792,68;11077,432;  239,699;52524,738;20,72817
 793,25;11031,651;  254,469;52215,799;20,74077
 793,81;11097,408;  316,546;51916,398;20,89320
 794,38;10983,780;  210,469;51653,459;20,94223
 794,94;10928,076;  212,315;51481,059;20,90116
 795,51;10919,449;  247,854;51209,504;20,94044
 796,07;10844,668;  236,316;51034,488;20,88333
 796,64;10899,425;  265,162;51104,780;20,91727
 797,20;10868,797;  251,240;50573,379;21,09918
 797,77;10769,093;  217,317;50237,363;21,09510
 798,33;10759,081;  241,240;50048,270;21,11718
 798,90;10764,223;  271,240;49972,254;21,11221
 799,46;10694,057;  233,856;49438,238;21,25868
 800,03;10742,891;  238,318;49475,684;21,33456
 800,59;10700,418;  255,087;49325,899;21,28624
 801,15;10660,483;  262,241;48916,344;21,37177
 801,72;10548,471;  259,857;48572,636;21,29584
 802,28;10574,536;  271,011;48293,851;21,45547
 802,85;10537,755;  240,088;48018,143;21,55313
 803,41;10481,204;  234,242;47993,665;21,45537
 803,98;10406,269;  236,319;47385,880;21,56955
 804,54;10355,796;  234,089;47260,172;21,52360
 805,11;10373,937;  235,243;47031,079;21,66580
 805,67;10432,925;  264,243;47025,755;21,74584
 806,23;10265,990;  254,551;46493,662;21,65145
 806,80;10268,132;  264,474;46325,261;21,71838
 807,36;10277,505;  269,090;46274,245;21,75499
 807,93;10223,493;  264,552;46054,999;21,74895
 808,49;10146,558;  227,244;45652,137;21,83674
 809,05;10085,392;  226,399;45456,659;21,79734
 809,62;10063,765;  258,476;45281,566;21,77836
 810,18;10128,445;  243,476;45264,243;21,95647
 810,74;10082,202;  214,245;44941,150;22,06269
 811,31;10073,882;  224,323;44772,518;22,10990
 811,87;10080,409;  241,938;44580,810;22,18927
 812,44;10072,243;  268,631;44608,871;22,10997
 813,00; 9942,231;  180,939;44238,470;22,15579
 813,56; 9985,450;  245,477;44277,993;22,11995
 814,13; 9977,899;  238,632;44153,900;22,17741
 814,69;10008,811;  240,401;43940,730;22,35317
 815,25; 9877,260;  207,401;43580,714;22,29449
 815,82; 9888,940;  252,401;43491,775;22,28649
 816,38; 9962,313;  288,094;43235,682;22,52564
 816,94; 9779,455;  228,940;42973,512;22,34322
 817,51; 9777,135;  208,556;42691,958;22,52310
 818,07; 9730,200;  203,172;42410,711;22,57186
 818,63; 9716,573;  242,787;42231,541;22,56267
 819,20; 9742,792;  235,711;42167,756;22,67259
 819,76; 9629,241;  224,557;41715,125;22,66704
 820,32; 9663,460;  253,557;41683,032;22,71306
 820,89; 9615,679;  248,634;41346,401;22,79210
 821,45; 9558,898;  227,635;41066,692;22,84887
 822,01; 9583,809;  243,481;40818,830;23,01971
 822,57; 9519,643;  250,712;40752,814;22,88506
 823,14; 9426,631;  204,020;40358,567;22,96779
 823,70; 9443,850;  218,790;40197,013;23,07521
 824,26; 9373,915;  217,559;40033,074;22,99695
 824,82; 9400,518;  250,098;39788,058;23,14338
 825,39; 9375,044;  225,098;39508,580;23,29210
 825,95; 9352,879;  247,406;39592,411;23,14264
 826,51; 9284,174;  247,098;39127,164;23,24347
 827,08; 9376,393;  285,176;39188,840;23,36854
 827,64; 9303,381;  255,637;39035,286;23,33117
 828,20; 9248,985;  220,715;38672,270;23,47960
 828,76; 9226,742;  251,099;38728,408;23,32711
 829,32; 9255,807;  259,253;38534,853;23,50467
 829,89; 9182,641;  212,023;38430,529;23,47192
 830,45; 9214,552;  239,408;38338,590;23,55731
 831,01; 9184,155;  234,639;38215,421;23,56328
 831,57; 9162,913;  229,331;37967,635;23,67245
 832,14; 9141,285;  224,178;37938,696;23,64370
 832,70; 9113,966;  222,024;37751,296;23,69335
 833,26; 9087,261;  194,794;37680,434;23,72233
 833,82; 9143,326;  234,025;37455,802;23,93572
 834,38; 9129,160;  216,563;37564,786;23,86351
 834,95; 9077,610;  222,871;37492,463;23,75861
 835,51; 9094,675;  189,025;37183,600;24,07285
 836,07; 9110,432;  226,410;37249,431;23,99594
 836,63; 9135,343;  250,411;37352,261;23,94741
 837,19; 9136,716;  240,257;37063,322;24,16002
 837,75; 9051,319;  207,565;36846,460;24,13761
 838,32; 9130,692;  251,565;36923,751;24,21216
 838,88; 9159,449;  245,027;36891,043;24,32576
 839,44; 9109,360;  249,027;36809,258;24,23489
 840,00; 9078,733;  230,720;36704,011;24,25888
 840,56; 9050,029;  220,874;36469,611;24,35714
 841,12; 9017,632;  219,489;36309,287;24,37848
 841,68; 8963,005;  197,182;36230,194;24,32720
 842,25; 8981,377;  218,875;36164,255;24,37727
 842,81; 8953,442;  204,952;35981,393;24,45322
 843,37; 8894,661;  214,183;35979,454;24,27069
 843,93; 8946,803;  217,798;35781,669;24,54459
 844,49; 9012,099;  234,029;35855,729;24,64248
 845,05; 8872,471;  182,645;35711,329;24,45862
 845,61; 9001,690;  231,799;35821,621;24,64157
 846,17; 8924,063;  216,184;35575,143;24,62708
 846,73; 8937,128;  225,492;35471,973;24,71633
 847,29; 8883,731;  211,492;35325,880;24,69711
 847,86; 8881,873;  209,185;35293,941;24,71925
 848,42; 8861,245;  202,493;35106,310;24,80747
 848,98; 8888,233;  229,724;35013,140;24,89264
 849,54; 8914,760;  220,801;35013,663;24,98777
 850,10; 8859,671;  229,955;34945,108;24,85864
 850,66; 8826,813;  200,417;34694,015;25,00869
 851,22; 8825,955;  202,648;34618,692;25,05607
 851,78; 8835,327;  255,494;34686,676;24,91879
 852,34; 8781,854;  224,725;34413,198;25,02928
 852,90; 8747,227;  213,418;34318,567;25,02205
 853,46; 8677,138;  198,956;34122,935;24,99171
 854,02; 8721,356;  228,495;34106,766;25,06876
 854,58; 8663,883;  221,111;33866,134;25,09367
 855,14; 8655,332;  203,957;33739,580;25,20119
 855,70; 8586,167;  183,188;33581,641;25,15978
 856,26; 8592,924;  224,650;33626,086;25,05364
 856,82; 8533,912;  209,112;33341,916;25,12555
 857,38; 8564,208;  250,497;33316,516;25,14276
 857,94; 8505,811;  221,881;33181,808;25,13334
 858,50; 8509,722;  225,266;32960,484;25,30747
 859,06; 8431,249;  207,805;32807,083;25,22585
 859,62; 8447,775;  232,190;32650,837;25,34216
 860,18; 8420,686;  221,344;32590,590;25,33066
 860,74; 8351,828;  188,575;32362,112;25,37257
 861,30; 8321,354;  193,960;32227,481;25,37153
 861,86; 8401,958;  267,806;32294,542;25,39800
 862,42; 8283,715;  226,268;31965,757;25,38619
 862,98; 8325,011;  248,576;32078,125;25,37402
 863,54; 8240,768;  220,653;31793,032;25,40231
 864,10; 8269,756;  213,269;31937,093;25,39570
 864,66; 8158,283;  202,192;31644,693;25,30362
 865,22; 8188,117;  224,346;31435,984;25,51539
 865,78; 8120,259;  219,192;31266,353;25,44859
 866,34; 8129,554;  204,731;31362,106;25,43482
 866,90; 8099,542;  220,808;31083,475;25,52836
 867,45; 8066,223;  236,578;30929,151;25,50990
 868,01; 8038,288;  223,655;30790,597;25,56563
 868,57; 7965,045;  215,732;30619,966;25,48761
 869,13; 7957,110;  200,732;30401,565;25,68266
 869,69; 7937,867;  210,271;30320,241;25,66458
 870,25; 7920,932;  186,348;30246,302;25,73052
 870,81; 7941,305;  214,810;30184,209;25,78128
 871,37; 7926,908;  223,349;30086,809;25,79594
 871,93; 7903,127;  236,811;29867,716;25,87270
 872,49; 7901,730;  254,580;29613,854;26,04680
 873,04; 7792,795;  202,196;29450,145;25,95259
 873,60; 7762,322;  195,350;29270,822;26,02528
 874,16; 7771,156;  219,119;29224,883;26,03633
 874,72; 7782,079;  217,888;29149,498;26,14507
 875,28; 7760,002;  225,119;29078,806;26,11411
 875,84; 7753,310;  226,581;29020,498;26,14000
 876,40; 7732,387;  213,504;28867,960;26,23984
 876,95; 7758,848;  227,042;28836,113;26,32664
 877,51; 7734,617;  247,273;28855,267;26,17221
 878,07; 7825,002;  253,812;28901,729;26,42841
 878,63; 7815,310;  223,965;28900,037;26,47275
 879,19; 7811,463;  228,812;28924,267;26,42457
 879,75; 7864,925;  216,504;28921,729;26,64470
 880,30; 7846,156;  207,735;28891,883;26,62942
 880,86; 7931,848;  260,042;29039,883;26,65687
 881,42; 7896,771;  206,812;29044,113;26,66671
 881,98; 7930,848;  232,504;29123,190;26,64646
 882,54; 8018,233;  203,119;29288,498;26,86956
 883,09; 8059,156;  219,965;29421,113;26,84549
 883,65; 8069,848;  202,658;29500,883;26,85211
 884,21; 8159,310;  245,427;29732,037;26,83890
 884,77; 8163,540;  215,658;29681,806;26,97293
 885,32; 8181,002;  216,427;29980,883;26,75868
 885,88; 8290,002;  248,119;30130,960;26,91137
 886,44; 8311,617;  224,119;30121,344;27,05100
 887,00; 8321,540;  246,504;30179,498;26,97704
 887,56; 8388,002;  210,119;30411,498;27,07785
 888,11; 8425,002;  216,273;30340,498;27,24959
 888,67; 8487,771;  240,273;30523,960;27,23413
 889,23; 8446,617;  224,273;30494,960;27,16273
 889,79; 8427,079;  209,658;30424,113;27,19699
 890,34; 8470,233;  232,658;30343,883;27,35716
 890,90; 8540,848;  290,965;30495,883;27,31305
 891,46; 8413,387;  201,427;30323,883;27,26192
 892,01; 8479,848;  243,658;30357,652;27,35004
 892,57; 8426,002;  258,273;30260,883;27,22339
 893,13; 8366,771;  232,965;30047,883;27,28099
 893,69; 8347,617;  207,427;29994,344;27,32807
 894,24; 8329,848;  218,196;29892,037;27,33604
 894,80; 8264,617;  226,658;29773,037;27,20455
 895,36; 8260,156;  220,427;29661,729;27,30765
 895,91; 8192,925;  220,965;29475,190;27,25063
 896,47; 8145,156;  234,965;29274,113;27,23975
 897,03; 8126,925;  227,119;29118,037;27,34356
 897,58; 8106,463;  233,196;28943,960;27,42270
 898,14; 8088,310;  233,196;28747,498;27,54798
 898,70; 8008,002;  196,350;28606,421;27,49607
 899,25; 8026,617;  218,427;28578,113;27,53271
 899,81; 8007,771;  235,581;28370,960;27,62426
 900,37; 7920,540;  186,042;28129,421;27,67918
 900,92; 7984,156;  221,965;28086,883;27,85650
 901,48; 7924,540;  225,581;27998,344;27,72126
 902,03; 7831,233;  217,119;27810,344;27,59414
 902,59; 7879,617;  215,196;27764,498;27,82075
 903,15; 7848,002;  241,658;27546,113;27,85752
 903,70; 7780,848;  215,042;27327,883;27,90488
 904,26; 7720,925;  211,658;27219,267;27,80426
 904,82; 7744,002;  220,273;27155,883;27,93228
 905,37; 7720,848;  227,888;27043,498;27,94253
 905,93; 7662,002;  209,504;26857,729;27,96621
 906,48; 7683,925;  228,735;26871,113;27,98245
 907,04; 7692,233;  232,196;26694,498;28,19119
 907,60; 7622,463;  219,350;26502,421;28,16685
 908,15; 7613,310;  197,888;26350,190;28,35476
 908,71; 7578,925;  238,042;26385,037;28,07544
 909,26; 7553,925;  224,427;26125,652;28,29788
 909,82; 7490,848;  227,196;26128,729;28,04333
 910,37; 7539,079;  266,119;25979,190;28,28507
 910,93; 7456,387;  212,812;25777,421;28,33439
 911,48; 7449,156;  201,888;25659,806;28,46764
 912,04; 7408,002;  220,119;25480,806;28,45482
 912,60; 7435,848;  228,812;25513,729;28,50330
 913,15; 7353,156;  221,273;25329,498;28,40457
 913,71; 7291,463;  204,812;25161,498;28,39580
 914,26; 7274,925;  202,658;25003,344;28,51642
 914,82; 7286,002;  225,735;24906,652;28,60618
 915,37; 7263,848;  199,658;24883,575;28,61860
 915,93; 7286,771;  256,735;24693,344;28,76846
 916,48; 7173,848;  193,581;24655,344;28,53542
 917,04; 7143,463;  227,735;24440,037;28,56287
 917,59; 7236,694;  249,658;24525,113;28,78231
 918,15; 7117,002;  190,042;24173,960;28,88169
 918,70; 7052,617;  205,273;24166,113;28,57723
 919,26; 7075,463;  219,427;24042,652;28,77879
 919,81; 7024,694;  200,658;23895,575;28,79958
 920,37; 7012,848;  204,888;23822,421;28,82587
 920,92; 7015,540;  228,504;23654,498;28,97225
 921,48; 6958,002;  200,504;23530,729;28,96456
 922,03; 6927,310;  205,504;23463,575;28,90096
 922,59; 6919,925;  216,119;23292,575;29,05041
 923,14; 6885,463;  212,273;23113,729;29,13872
 923,69; 6863,310;  223,350;23059,652;29,07633
 924,25; 6896,387;  236,504;22986,344;29,27442
 924,80; 6810,771;  215,735;22825,960;29,16838
 925,36; 6781,002;  203,581;22760,883;29,15872
 925,91; 6762,925;  196,119;22596,498;29,31560
 926,47; 6689,156;  186,812;22550,806;29,07506
 927,02; 6773,848;  273,273;22458,190;29,30178
 927,57; 6665,540;  218,273;22275,421;29,22983
 928,13; 6677,925;  202,581;22197,037;29,44080
 928,68; 6651,002;  207,735;22179,729;29,32491
 929,24; 6528,617;  187,812;21897,806;29,20685
 929,79; 6515,233;  210,965;21808,960;29,18913
 930,34; 6500,463;  212,196;21625,652;29,36596
 930,90; 6449,694;  201,119;21634,190;29,15389
 931,45; 6526,387;  223,658;21562,267;29,53674
 932,01; 6504,694;  224,812;21431,883;29,61221
 932,56; 6466,771;  233,658;21278,729;29,61793
 933,11; 6468,002;  236,504;21355,190;29,50703
 933,67; 6392,463;  211,427;21081,421;29,61686
 934,22; 6366,694;  216,504;21017,267;29,56714
 934,77; 6330,463;  234,888;20884,960;29,51842
 935,33; 6301,694;  223,965;20760,652;29,59450
 935,88; 6311,617;  219,273;20625,113;29,85588
 936,43; 6300,387;  213,504;20572,190;29,89821
 936,99; 6265,848;  212,735;20439,729;29,92592
 937,54; 6177,463;  204,273;20285,652;29,74492
 938,09; 6188,002;  219,812;20243,806;29,80519
 938,65; 6163,694;  215,273;20138,498;29,85672
 939,20; 6141,848;  190,196;20034,344;29,99197
 939,75; 6099,617;  210,196;19952,883;29,83090
 940,31; 6058,233;  188,888;19821,575;29,89578
 940,86; 6126,002;  220,042;19795,960;30,16952
 941,41; 6116,848;  293,273;19672,652;30,05037
 941,96; 5974,463;  196,888;19552,652;29,84938
 942,52; 6014,925;  208,042;19358,498;30,32243
 943,07; 5890,694;  190,273;19329,883;29,78337
 943,62; 5947,079;  194,735;19270,806;30,15476
 944,18; 5885,848;  196,658;19146,806;30,02188
 944,73; 5874,387;  217,965;19028,960;30,06976
 945,28; 5820,002;  182,581;18910,113;30,10232
 945,83; 5821,694;  200,350;18902,267;30,05758
 946,39; 5814,310;  205,965;18762,037;30,22377
 946,94; 5836,079;  240,581;18793,113;30,16029
 947,49; 5755,463;  207,504;18619,652;30,13206
 948,04; 5838,079;  240,965;18558,113;30,55669
 948,59; 5775,848;  237,427;18520,421;30,29275
 949,15; 5741,156;  189,273;18325,652;30,61186
 949,70; 5718,694;  208,273;18289,575;30,47580
 950,25; 5684,617;  216,196;18151,729;30,48932
 950,80; 5615,463;  177,196;18029,498;30,46256
 951,36; 5625,540;  172,119;17948,037;30,67870
 951,91; 5698,771;  217,658;17940,113;30,92751
 952,46; 5569,848;  195,350;17714,267;30,67825
 953,01; 5631,002;  214,196;17756,190;30,87908
 953,56; 5571,617;  190,350;17610,652;30,89078
 954,11; 5582,771;  217,888;17566,421;30,92413
 954,67; 5536,540;  201,427;17494,652;30,85089
 955,22; 5485,156;  181,658;17318,421;30,94807
 955,77; 5515,310;  217,888;17317,037;30,98061
 956,32; 5523,771;  253,888;17234,267;31,03513
 956,87; 5445,002;  200,658;17057,806;31,11051
 957,42; 5407,156;  211,273;17000,344;30,94801
 957,98; 5421,463;  194,042;16885,729;31,31751
 958,53; 5428,156;  233,735;16905,344;31,15729
 959,08; 5359,848;  192,504;16733,421;31,23977
 959,63; 5332,617;  205,504;16589,498;31,29343
 960,18; 5283,694;  216,888;16566,960;30,98950
 960,73; 5307,848;  207,658;16534,960;31,23719
 961,28; 5259,310;  179,965;16409,806;31,29633
 961,83; 5270,079;  228,119;16367,575;31,23996
 962,39; 5225,771;  187,273;16232,190;31,40246
 962,94; 5187,002;  207,042;16179,344;31,17872
 963,49; 5148,617;  208,658;16006,729;31,26938
 964,04; 5172,387;  218,119;15901,267;31,58975
 964,59; 5143,540;  189,427;15873,652;31,58660
 965,14; 5152,156;  222,427;15785,190;31,67644
 965,69; 5125,233;  208,581;15683,421;31,77191
 966,24; 5077,463;  202,119;15562,267;31,74022
 966,79; 5077,463;  217,735;15553,652;31,68854
 967,34; 4987,617;  186,427;15374,960;31,61063
 967,89; 5021,233;  196,196;15330,575;31,88130
 968,44; 4977,925;  205,581;15273,421;31,67238
 968,99; 4999,002;  221,196;15182,729;31,93393
 969,55; 4956,540;  218,658;15098,344;31,84128
 970,10; 4908,694;  219,888;14978,037;31,77096
 970,65; 4912,617;  218,812;14927,960;31,91079
 971,20; 4817,387;  194,350;14764,267;31,73001
 971,75; 4785,540;  181,812;14686,652;31,73926
 972,30; 4833,002;  210,427;14581,267;32,16635
 972,85; 4739,310;  204,119;14492,267;31,74093
 973,40; 4691,233;  195,119;14341,190;31,78348
 973,95; 4737,694;  221,119;14313,344;32,05012
 974,50; 4729,540;  236,581;14226,729;32,11517
 975,05; 4631,002;  214,658;14143,037;31,70753
 975,60; 4625,387;  223,350;14038,344;31,86419
 976,15; 4549,771;  208,581;13907,960;31,68896
 976,70; 4594,002;  221,965;13842,113;32,09977
 977,25; 4533,925;  223,042;13793,652;31,76632
 977,80; 4467,848;  199,427;13662,421;31,70484
 978,35; 4443,079;  219,658;13468,267;31,87822
 978,89; 4434,617;  188,888;13409,806;32,11372
 979,44; 4444,771;  214,350;13393,960;32,09823
 979,99; 4360,771;  193,965;13277,498;31,84771
 980,54; 4362,694;  228,658;13134,344;32,03267
 981,09; 4364,694;  229,888;13020,960;32,32572
 981,64; 4298,156;  223,581;12872,960;32,21166
 982,19; 4319,771;  254,350;12828,113;32,33257
 982,74; 4273,387;  222,273;12694,883;32,48008
 983,29; 4214,925;  200,658;12585,729;32,41215
 983,84; 4187,079;  221,658;12477,806;32,35455
 984,39; 4274,463;  285,504;12405,113;32,91327
 984,94; 4120,925;  183,965;12212,421;32,73038
 985,49; 4160,848;  233,042;12224,037;32,75630
 986,03; 4110,002;  231,504;12074,037;32,75058
 986,58; 4091,233;  261,581;11949,037;32,76720
 987,13; 3984,771;  211,119;11819,037;32,50929
 987,68; 3983,771;  224,581;11701,575;32,75414
 988,23; 3972,002;  221,581;11654,575;32,80349
 988,78; 3883,079;  198,735;11528,421;32,51938
 989,33; 3913,079;  240,504;11380,652;32,96702
 989,88; 3925,848;  255,350;11359,806;33,05428
 990,42; 3810,233;  213,273;11216,883;32,68891
 990,97; 3799,387;  210,196;11052,883;33,10241
 991,52; 3799,925;  231,735;10994,421;33,15334
 992,07; 3763,617;  252,504;10966,113;32,77246
 992,62; 3715,079;  229,042;10832,960;32,87499
 993,17; 3709,848;  230,196;10679,113;33,30155
 993,71; 3697,310;  234,119;10622,037;33,33864
 994,26; 3609,771;  198,965;10405,267;33,41863
 994,81; 3619,387;  239,658;10404,344;33,24971
 995,36; 3537,310;  218,812;10233,190;33,13733
 995,91; 3528,771;  226,119;10173,652;33,20071
 996,45; 3525,771;  225,119;10071,421;33,52174
 997,00; 3481,310;  206,427; 9907,883;33,75661
 997,55; 3449,694;  238,658; 9872,190;33,33187
 998,10; 3412,540;  246,504; 9737,037;33,35995
 998,65; 3405,771;  216,273; 9673,960;33,72387
 999,19; 3331,079;  247,965; 9548,498;33,14986
 999,74; 3338,771;  241,581; 9464,113;33,58286
1000,29; 3295,310;  237,273; 9353,498;33,54499
1000,84; 3234,540;  212,888; 9203,190;33,61013
1001,38; 3235,694;  227,042; 9137,652;33,76483
1001,93; 3215,771;  246,888; 9059,806;33,68785
1002,48; 3121,694;  211,812; 8881,037;33,56566
1003,03; 3156,848;  232,196; 8874,498;33,84112
1003,57; 3112,002;  233,042; 8753,344;33,78941
1004,12; 3133,771;  262,504; 8678,729;34,11586
1004,67; 3021,310;  222,119; 8592,960;33,43978
1005,22; 3009,079;  216,658; 8405,729;34,09936
1005,76; 2941,463;  201,196; 8318,652;33,75771
1006,31; 2968,771;  230,581; 8234,575;34,21030
1006,86; 2878,233;  218,273; 8113,498;33,69074
1007,40; 2833,617;  195,196; 8020,806;33,71522
1007,95; 2822,771;  220,119; 7905,421;33,86532
1008,50; 2760,310;  231,196; 7753,960;33,61947
1009,04; 2743,156;  209,812; 7686,652;33,88255
1009,59; 2710,079;  229,042; 7556,190;33,86088
1010,14; 2672,233;  206,658; 7438,037;34,09550
1010,68; 2641,925;  220,504; 7320,806;34,10307
1011,23; 2609,463;  212,888; 7211,652;34,24283
1011,78; 2588,156;  229,888; 7119,344;34,23010
1012,32; 2590,079;  241,965; 7036,113;34,56082
1012,87; 2541,848;  257,581; 6974,806;34,00612
1013,42; 2487,463;  203,196; 6845,344;34,39049
1013,96; 2533,310;  257,350; 6877,806;34,37769
1014,51; 2451,387;  192,965; 6726,883;34,56458
1015,06; 2433,694;  187,812; 6776,190;34,08855
1015,60; 2518,771;  264,042; 6805,037;34,47074
1016,15; 2455,387;  209,965; 6771,037;34,22339
1016,69; 2473,002;  217,658; 6788,421;34,32393
1017,24; 2466,387;  199,196; 6784,960;34,42563
1017,79; 2523,925;  241,350; 6898,190;34,28917
1018,33; 2494,310;  207,888; 6841,113;34,46922
1018,88; 2556,925;  224,273; 6898,190;34,95177
1019,42; 2541,617;  217,427; 6885,652;34,85471
1019,97; 2514,540;  207,427; 6909,575;34,42349
1020,51; 2598,771;  242,196; 6946,421;35,15060
1021,06; 2508,694;  188,965; 6917,344;34,47679
1021,61; 2513,848;  190,042; 6892,883;34,66897
1022,15; 2488,156;  170,735; 6874,960;34,56658
1022,70; 2511,771;  209,965; 6875,960;34,53057
1023,24; 2507,463;  202,042; 6803,729;34,92170
1023,79; 2502,156;  213,427; 6726,960;35,13806
1024,33; 2459,771;  204,427; 6673,883;34,86142
1024,88; 2473,540;  225,812; 6619,883;35,15333
1025,42; 2428,617;  219,965; 6470,729;35,33411
1025,97; 2351,156;  206,504; 6409,498;34,57446
1026,51; 2279,310;  174,504; 6244,344;34,67646
1027,06; 2298,771;  202,658; 6224,960;34,80585
1027,60; 2304,463;  229,658; 6108,421;35,29323
1028,15; 2271,310;  224,427; 6049,652;35,13826
1028,69; 2139,540;  178,658; 5900,498;34,27014
1029,24; 2165,387;  190,888; 5858,652;34,83734
1029,78; 2129,694;  191,581; 5760,806;34,80042
1030,33; 2100,925;  183,812; 5600,190;35,39474
1030,87; 2082,463;  203,119; 5562,421;35,06696
1031,42; 2024,387;  186,888; 5474,960;34,74798
1031,96; 2036,002;  216,504; 5405,344;35,06560
1032,51; 1982,387;  193,350; 5354,652;34,66251
1033,05; 1988,387;  218,504; 5267,806;35,05203
1033,60; 1901,540;  181,581; 5145,267;34,65085
1034,14; 1914,540;  199,658; 5080,652;35,13388
1034,69; 1876,848;  204,735; 5045,652;34,54125
1035,23; 1859,233;  211,119; 4934,652;34,89154
1035,77; 1850,233;  199,042; 4887,037;35,22168
1036,32; 1774,848;  174,350; 4782,344;34,73307
1036,86; 1792,463;  210,427; 4749,344;34,85493
1037,41; 1755,310;  220,273; 4667,267;34,51852
1037,95; 1708,233;  179,196; 4579,729;34,74662
1038,50; 1696,617;  185,504; 4553,190;34,59757
1039,04; 1703,463;  220,427; 4509,575;34,57648
1039,58; 1645,079;  185,812; 4421,498;34,45173
1040,13; 1640,079;  202,581; 4362,806;34,55337
1040,67; 1668,233;  235,119; 4322,883;35,05862
1041,21; 1645,463;  231,273; 4245,883;35,22610
1041,76; 1587,387;  188,735; 4150,037;35,30788
1042,30; 1560,387;  200,581; 4087,960;34,98002
1042,85; 1539,771;  203,042; 4051,267;34,73624
1043,39; 1523,233;  185,812; 3954,113;35,49135
1043,93; 1551,771;  215,042; 3934,037;35,94329
1044,48; 1502,925;  210,273; 3906,806;34,96931
1045,02; 1484,233;  199,042; 3826,498;35,42953
1045,56; 1490,233;  226,042; 3777,113;35,60025
1046,11; 1454,387;  220,812; 3749,652;34,95695
1046,65; 1438,079;  204,273; 3688,883;35,40729
1047,19; 1404,540;  196,350; 3599,806;35,49893
1047,74; 1366,848;  186,042; 3537,113;35,23667
1048,28; 1376,079;  212,427; 3515,575;35,22857
1048,82; 1387,156;  226,735; 3507,883;35,36631
1049,37; 1357,156;  218,504; 3423,883;35,52316
1049,91; 1339,002;  211,042; 3355,652;35,86962
1050,45; 1327,925;  222,504; 3341,190;35,44509
1050,99; 1316,387;  212,042; 3292,267;35,85271
1051,54; 1275,387;  190,504; 3225,575;35,74488
1052,08; 1314,771;  237,119; 3201,421;36,35432
1052,62; 1264,387;  230,119; 3156,960;35,33733
1053,16; 1253,233;  211,812; 3111,883;35,91019
1053,71; 1257,848;  208,504; 3087,806;36,44440
1054,25; 1241,156;  216,581; 3010,421;36,67264
1054,79; 1217,002;  223,965; 2979,652;36,03590
1055,33; 1150,387;  188,196; 2892,344;35,58202
1055,88; 1188,540;  220,812; 2885,113;36,32204
1056,42; 1167,233;  230,965; 2875,190;35,40800
1056,96; 1162,310;  227,119; 2836,806;35,83535
1057,50; 1150,079;  220,427; 2793,344;36,13221
1058,05; 1133,694;  214,119; 2740,344;36,40115
1058,59; 1158,233;  243,888; 2702,960;37,18250
1059,13; 1073,156;  199,119; 2619,113;36,11730
1059,67; 1097,925;  222,658; 2601,113;36,79981
1060,21; 1087,002;  217,581; 2572,344;36,92180
1060,76; 1066,848;  228,119; 2535,729;36,34622
1061,30; 1072,540;  230,350; 2515,652;36,85248
1061,84; 1043,617;  208,196; 2445,883;37,33415
1062,38;  983,310;  208,581; 2374,344;35,77163
1062,92; 1052,079;  255,427; 2419,729;36,80872
1063,46; 1012,002;  224,119; 2353,421;37,00192
1064,01;  983,848;  216,504; 2333,113;36,25346
1064,55;  991,771;  223,965; 2281,883;37,30985
1065,09;  931,771;  194,735; 2227,806;36,25237
1065,63;  977,463;  250,658; 2235,421;36,61926
1066,17;  975,156;  250,812; 2233,267;36,53772
1066,71;  962,002;  239,735; 2178,806;37,24811
1067,25;  914,771;  214,042; 2134,652;36,48471
1067,80;  929,925;  240,735; 2131,421;36,45186
1068,34;  944,310;  241,350; 2115,190;37,51438
1068,88;  884,156;  218,965; 2031,344;36,70261
1069,42;  921,925;  250,273; 2060,960;37,09377
1069,96;  884,387;  218,581; 2041,421;36,52573
1070,50;  912,310;  251,735; 2038,267;36,97525
1071,04;  834,848;  206,273; 1965,421;35,73178
1071,58;  837,387;  217,042; 1958,267;35,62689
1072,12;  865,310;  219,581; 1920,729;37,95841
1072,66;  842,079;  220,119; 1898,883;37,04867
1073,21;  845,310;  233,427; 1906,806;36,56570
1073,75;  813,002;  238,196; 1855,190;35,54779
1074,29;  797,617;  231,581; 1827,190;35,47463
1074,83;  833,925;  239,581; 1820,190;37,60222
1075,37;  825,079;  239,042; 1805,498;37,41162
1075,91;  812,463;  234,888; 1783,344;37,30006
1076,45;  785,156;  231,504; 1762,421;36,16472
1076,99;  791,387;  240,350; 1738,344;36,78496
1077,53;  767,694;  224,042; 1674,575;37,47947
1078,07;  778,079;  239,812; 1680,575;37,35987
1078,61;  745,387;  222,888; 1656,037;36,45807
1079,15;  745,848;  229,427; 1636,421;36,70386
1079,69;  746,233;  226,735; 1619,344;37,30393
1080,23;  767,002;  248,273; 1642,960;37,19322
1080,77;  796,387;  278,196; 1640,037;38,05074
1081,31;  724,079;  215,888; 1551,498;38,04932
1081,85;  741,848;  239,427; 1559,267;38,06681
1082,39;  707,156;  230,812; 1535,498;36,51024
1082,93;  728,387;  237,427; 1526,421;38,08858
1083,47;  689,387;  208,504; 1501,883;37,18034
1084,01;  704,463;  238,350; 1494,113;37,11793
1084,55;  687,771;  225,119; 1450,652;37,75109
1085,09;  693,848;  247,658; 1436,344;37,53642
1085,63;  694,079;  223,427; 1433,652;38,88962
1086,17;  674,079;  214,273; 1409,037;38,48509
1086,71;  650,387;  226,042; 1363,960;37,29131
1087,24;  681,387;  255,042; 1414,575;36,76863
1087,78;  682,925;  246,735; 1389,037;38,18521
1088,32;  633,463;  202,273; 1326,652;38,34921
1088,86;  652,079;  243,504; 1357,421;36,67911
1089,40;  646,233;  233,812; 1338,267;37,34157
1089,94;  612,848;  203,888; 1270,421;38,34478
1090,48;  626,540;  235,196; 1269,498;37,83656
1091,02;  636,079;  243,735; 1276,113;38,00390
1091,56;  616,694;  228,504; 1258,267;37,69704
1092,10;  603,387;  214,965; 1212,421;38,94119
1092,63;  635,079;  248,658; 1234,190;39,20937
1093,17;  605,002;  239,812; 1216,113;37,40548
1093,71;  582,002;  217,965; 1210,729;36,66901
1094,25;  609,925;  261,888; 1200,190;37,09217
1094,79;  576,540;  224,812; 1174,575;37,03331
1095,33;  589,156;  227,735; 1160,267;38,75694
1095,87;  575,233;  226,965; 1149,960;37,73234
1096,40;  558,233;  210,350; 1115,575;38,43052
1096,94;  580,079;  228,119; 1111,652;39,83549
1097,48;  587,540;  244,196; 1122,267;39,10210
1098,02;  538,848;  223,196; 1093,421;36,27245
1098,56;  517,079;  196,427; 1057,421;37,24205
1099,10;  524,617;  205,196; 1047,806;37,90856
1099,63;  510,771;  206,196; 1042,113;36,43602
1100,17;  538,540;  234,581; 1050,344;37,26075
1100,71;  565,233;  254,042; 1052,190;38,98905

