
Integration time [ms]: 160,000
Averaging Nr. [scans]: 13
Smoothing Nr. [pixels]: 0
Data measured with spectrometer [name]: 2009305U1
Wave   ;Sample   ;Dark     ;Reference;Reflectance
[nm]   ;[counts] ;[counts] ;[counts] ;[%]

 175,72;  220,538;  211,481;  218,198;134,82777
 176,32;  244,509;  242,342;  237,064; 0,00000
 176,92;  277,764;  274,024;  286,893;29,06592
 177,52;  275,049;  269,099;  274,399;112,27112
 178,12;  248,517;  242,726;  241,865; 0,00000
 178,72;  272,507;  285,192;  276,001; 0,00000
 179,32;  261,956;  271,804;  258,781; 0,00000
 179,92;  265,900;  271,952;  251,920; 0,00000
 180,52;  256,225;  247,166;  277,718;29,65059
 181,12;  269,040;  273,258;  268,649; 0,00000
 181,73;  301,409;  303,642;  290,175; 0,00000
 182,33;  394,350;  400,787;  408,394;-84,63525
 182,93;  287,606;  285,176;  293,730;28,40300
 183,53;  256,566;  256,655;  235,234; 0,00000
 184,13;  243,078;  258,269;  234,768; 0,00000
 184,73;  307,497;  310,349;  296,521; 0,00000
 185,33;  292,862;  248,820;  394,412;30,25042
 185,93;  294,364;  245,368;  398,196;32,05971
 186,53;  311,063;  265,978;  408,744;31,57924
 187,13;  320,950;  290,044;  447,866;19,58259
 187,73;  302,176;  264,675;  415,930;24,79373
 188,33;  293,496;  245,219;  387,713;33,88034
 188,93;  306,073;  270,930;  405,484;26,11816
 189,53;  308,547;  269,175;  424,072;25,41821
 190,13;  339,427;  303,044;  440,384;26,49134
 190,73;  277,549;  239,106;  383,350;26,65171
 191,34;  311,742;  276,781;  434,912;22,10829
 191,94;  290,068;  252,456;  418,799;22,61133
 192,54;  311,213;  270,574;  439,983;23,98857
 193,14;  310,794;  271,430;  434,086;24,20102
 193,74;  306,219;  277,278;  439,295;17,86324
 194,34;  311,069;  276,273;  426,370;23,18252
 194,94;  281,812;  229,891;  407,340;29,25956
 195,54;  257,086;  215,357;  369,546;27,06347
 196,14;  281,238;  234,578;  405,012;27,37721
 196,74;  281,811;  242,129;  389,416;26,94181
 197,34;  262,935;  211,648;  390,907;28,61027
 197,94;  283,653;  241,044;  415,716;24,39416
 198,54;  300,377;  255,194;  430,267;25,80830
 199,14;  263,963;  222,722;  427,949;20,09565
 199,74;  267,099;  211,106;  431,925;25,35701
 200,34;  245,050;  201,105;  426,377;19,50784
 200,94;  293,203;  249,189;  481,453;18,95017
 201,54;  280,495;  222,339;  476,646;22,86842
 202,14;  322,843;  267,948;  536,358;20,45196
 202,74;  285,706;  230,799;  536,970;17,93355
 203,34;  276,367;  198,866;  546,256;22,30961
 203,94;  248,215;  181,101;  534,318;19,00077
 204,54;  319,366;  260,735;  653,213;14,93856
 205,14;  274,025;  215,491;  657,051;13,25633
 205,74;  338,172;  257,251;  756,379;16,21255
 206,34;  306,000;  225,486;  763,868;14,95473
 206,94;  322,067;  234,411;  851,748;14,19901
 207,54;  300,222;  197,564;  867,836;15,31594
 208,14;  324,005;  203,255;  963,005;15,89340
 208,74;  337,863;  220,107; 1048,173;14,22067
 209,34;  346,170;  220,336; 1146,059;13,59299
 209,94;  365,268;  228,106; 1279,593;13,04456
 210,54;  383,645;  212,945; 1358,793;14,89725
 211,14;  389,458;  222,029; 1514,178;12,95734
 211,73;  407,167;  224,494; 1640,996;12,89613
 212,33;  423,375;  246,343; 1758,938;11,70387
 212,93;  430,669;  221,030; 1894,450;12,52753
 213,53;  419,922;  196,107; 1929,919;12,90888
 214,13;  482,828;  220,170; 2031,963;14,49712
 214,73;  439,843;  189,409; 2041,666;13,52046
 215,33;  438,268;  185,183; 2081,131;13,34872
 215,93;  481,640;  212,405; 2230,476;13,34121
 216,53;  469,151;  181,492; 2297,215;13,59625
 217,13;  538,382;  224,715; 2533,410;13,58634
 217,73;  563,912;  212,713; 2767,506;13,74669
 218,33;  577,211;  155,092; 2966,387;15,01511
 218,93;  663,471;  208,312; 3334,968;14,55739
 219,53;  705,578;  213,092; 3666,979;14,25889
 220,13;  740,794;  173,551; 4026,440;14,72254
 220,73;  814,386;  189,106; 4398,392;14,85478
 221,32;  897,940;  187,184; 4901,481;15,07662
 221,92;  987,987;  213,705; 5372,536;15,00886
 222,52; 1049,920;  184,943; 5861,538;15,23761
 223,12; 1145,328;  189,173; 6366,852;15,47758
 223,72; 1235,079;  196,865; 6820,752;15,67379
 224,32; 1316,440;  206,941; 7315,632;15,60763
 224,92; 1350,872;  189,634; 7653,451;15,55823
 225,52; 1482,126;  211,103; 8058,109;16,19755
 226,12; 1521,770;  198,099; 8394,150;16,15010
 226,72; 1576,318;  172,716; 8818,142;16,23520
 227,31; 1673,288;  167,716; 9288,269;16,50747
 227,91; 1769,047;  207,181; 9795,790;16,28876
 228,51; 1834,882;  186,034;10198,182;16,46848
 229,11; 1963,771;  194,408;10644,726;16,93118
 229,71; 2027,965;  187,031;11067,447;16,91970
 230,31; 2118,626;  182,016;11517,374;17,08469
 230,91; 2188,540;  165,576;11911,197;17,22314
 231,51; 2275,421;  185,174;12242,326;17,33616
 232,10; 2368,933;  184,861;12643,414;17,53070
 232,70; 2453,608;  189,504;12859,370;17,86999
 233,30; 2559,310;  218,944;13193,393;18,03826
 233,90; 2590,203;  183,560;13313,674;18,32919
 234,50; 2628,714;  189,174;13436,659;18,41512
 235,10; 2669,333;  185,403;13455,913;18,71767
 235,70; 2734,281;  211,720;13468,454;19,02853
 236,29; 2746,500;  197,415;13436,168;19,25472
 236,89; 2699,299;  171,190;13193,436;19,41377
 237,49; 2719,909;  197,869;13088,252;19,56528
 238,09; 2676,000;  193,871;12729,099;19,80123
 238,69; 2678,605;  243,194;12505,680;19,86066
 239,29; 2610,321;  186,564;12046,908;20,43580
 239,89; 2531,175;  197,421;11575,386;20,51117
 240,48; 2449,740;  184,948;11134,687;20,68352
 241,08; 2358,422;  188,180;10682,952;20,67926
 241,68; 2341,979;  205,640;10272,873;21,22072
 242,28; 2233,686;  171,791; 9848,284;21,30829
 242,88; 2218,656;  233,708; 9478,401;21,47121
 243,48; 2131,004;  238,638; 9155,891;21,22139
 244,07; 2028,402;  198,566; 8855,609;21,13697
 244,67; 2009,123;  214,793; 8693,035;21,16394
 245,27; 1991,629;  209,494; 8466,303;21,58383
 245,87; 1976,669;  211,325; 8363,749;21,65422
 246,47; 1918,351;  203,032; 8352,176;21,04907
 247,06; 1922,690;  188,257; 8320,626;21,32753
 247,66; 1921,822;  188,793; 8410,748;21,07806
 248,26; 1999,477;  208,492; 8598,777;21,34593
 248,86; 2040,161;  217,262; 8812,360;21,20859
 249,46; 2030,978;  154,559; 9031,811;21,13738
 250,05; 2155,699;  213,487; 9546,119;20,81098
 250,65; 2182,642;  176,187; 9989,959;20,44530
 251,25; 2298,780;  188,796;10490,127;20,48264
 251,85; 2441,823;  188,190;11125,846;20,60435
 252,44; 2562,449;  155,645;11908,685;20,47814
 253,04; 2773,155;  203,875;12810,007;20,38119
 253,64; 2894,102;  153,034;13680,640;20,26277
 254,24; 3153,563;  220,718;14831,835;20,07270
 254,84; 3337,285;  188,867;15996,734;19,91678
 255,43; 3588,274;  185,953;17244,536;19,94493
 256,03; 3815,355;  203,726;18451,646;19,79201
 256,63; 4052,193;  201,036;19808,871;19,64091
 257,23; 4265,633;  181,113;20871,414;19,74123
 257,82; 4523,973;  205,733;22198,232;19,63506
 258,42; 4711,221;  151,813;23334,204;19,66755
 259,02; 5027,543;  220,798;24592,594;19,72257
 259,62; 5177,856;  179,814;25547,111;19,70270
 260,21; 5336,849;  196,953;26211,736;19,75760
 260,81; 5452,652;  186,715;26980,120;19,65385
 261,41; 5634,169;  176,580;27633,684;19,87678
 262,01; 5760,560;  227,047;28229,601;19,76074
 262,60; 5825,633;  177,805;28838,491;19,70584
 263,20; 5941,171;  187,494;29286,737;19,77260
 263,80; 6028,794;  201,432;29662,957;19,77957
 264,40; 6091,239;  170,123;29839,945;19,95670
 264,99; 6125,617;  199,048;30127,181;19,80267
 265,59; 6201,198;  189,670;30316,259;19,95423
 266,19; 6267,391;  176,970;30574,780;20,03572
 266,78; 6301,795;  233,205;30823,865;19,83805
 267,38; 6276,717;  208,823;30828,429;19,81702
 267,98; 6351,220;  196,743;30871,434;20,06370
 268,58; 6332,919;  195,438;30913,172;19,98025
 269,17; 6364,726;  177,367;31023,779;20,05860
 269,77; 6315,230;  199,577;30754,570;20,01524
 270,37; 6327,620;  175,971;30671,922;20,17202
 270,96; 6294,804;  228,656;30454,950;20,06911
 271,56; 6269,164;  194,806;30122,767;20,29660
 272,16; 6184,546;  187,735;29971,268;20,13465
 272,75; 6201,755;  186,427;29859,965;20,27169
 273,35; 6199,458;  192,425;29843,931;20,25878
 273,95; 6171,353;  187,196;29778,711;20,22254
 274,54; 6153,087;  167,718;29810,629;20,19157
 275,14; 6275,022;  216,886;30186,602;20,21419
 275,74; 6291,821;  167,427;30271,039;20,34438
 276,33; 6414,571;  224,654;30851,261;20,21091
 276,93; 6533,067;  201,793;31279,415;20,37245
 277,53; 6673,713;  199,569;31882,683;20,43405
 278,12; 6781,807;  183,727;32492,142;20,42217
 278,72; 7068,060;  251,954;33285,317;20,63401
 279,32; 7194,637;  181,955;33862,874;20,82094
 279,91; 7440,657;  168,956;34771,549;21,01490
 280,51; 7600,201;  184,107;35427,430;21,04255
 281,11; 7862,089;  189,033;36405,369;21,18673
 281,70; 8003,622;  173,342;36799,693;21,37882
 282,30; 8282,317;  178,575;37647,075;21,62815
 282,90; 8465,042;  188,114;38160,150;21,79743
 283,49; 8731,747;  202,271;38818,062;22,08805
 284,09; 8953,859;  225,496;39352,713;22,30765
 284,69; 9174,611;  222,493;39716,819;22,66685
 285,28; 9389,570;  212,727;40272,352;22,90796
 285,88; 9611,271;  271,043;40575,343;23,17427
 286,47; 9737,060;  191,806;40555,943;23,64786
 287,07; 9923,963;  223,647;40682,282;23,97589
 287,67;10162,234;  218,254;40858,814;24,46812
 288,26;10369,798;  186,493;40795,817;25,07627
 288,86;10607,673;  184,727;40802,177;25,66125
 289,46;10898,082;  202,494;40964,118;26,23936
 290,05;11255,644;  189,873;40945,997;27,15119
 290,65;11505,517;  188,038;41352,190;27,49353
 291,24;11839,092;  196,646;41512,007;28,17946
 291,84;12233,193;  209,575;41660,409;29,00694
 292,44;12551,624;  200,560;41800,490;29,69011
 293,03;12947,308;  285,723;41934,340;30,40097
 293,63;13178,013;  190,960;42113,662;30,97857
 294,22;13517,180;  227,110;42371,190;31,53485
 294,82;13744,496;  185,815;42256,231;32,22854
 295,41;13835,853;  169,726;41928,693;32,72621
 296,01;14022,112;  224,197;41937,898;33,07766
 296,61;14014,942;  227,570;41649,594;33,28512
 297,20;14020,765;  196,197;41109,418;33,78998
 297,80;14057,380;  214,718;40879,116;34,04123
 298,39;13958,977;  172,344;40404,615;34,26760
 298,99;13991,372;  222,349;40273,823;34,37832
 299,58;14046,141;  207,947;39970,212;34,80233
 300,18;14004,931;  223,719;39835,925;34,79032
 300,78;13818,919;  184,183;39324,178;34,83581
 301,37;13824,662;  202,741;39327,758;34,81640
 301,97;13870,745;  204,802;39294,553;34,96043
 302,56;13883,283;  195,345;39240,911;35,05632
 303,16;13829,364;  176,193;39095,766;35,08048
 303,75;13813,305;  188,105;39022,882;35,08505
 304,35;13951,254;  185,712;39371,209;35,12918
 304,94;13952,617;  184,802;39363,454;35,14112
 305,54;13857,248;  225,799;39364,788;34,82831
 306,13;13800,156;  165,865;39235,829;34,89712
 306,73;13707,503;  175,714;38959,642;34,89020
 307,33;13693,010;  203,792;38958,373;34,80677
 307,92;13688,415;  206,415;38898,444;34,84438
 308,52;13775,770;  177,116;39535,145;34,55116
 309,11;14015,828;  188,506;40084,403;34,65851
 309,71;14066,036;  183,047;40497,883;34,43643
 310,30;14089,051;  171,416;40684,285;34,35362
 310,90;14258,359;  237,031;41231,208;34,20322
 311,49;14278,658;  205,417;41350,330;34,20409
 312,09;14303,037;  162,180;41476,721;34,22731
 312,68;14396,461;  261,414;41986,611;33,87652
 313,28;14389,184;  173,108;42091,290;33,91387
 313,87;14353,857;  158,339;42363,178;33,63481
 314,47;14426,626;  185,889;42609,624;33,56785
 315,06;14372,412;  168,492;42638,934;33,44425
 315,66;14381,807;  179,950;42994,336;33,17076
 316,25;14270,219;  152,577;42865,028;33,05276
 316,85;14267,265;  155,334;42884,519;33,02645
 317,44;14246,976;  176,890;43146,152;32,74454
 318,04;14112,149;  170,806;43057,638;32,50728
 318,63;14029,902;  157,253;43115,078;32,29365
 319,22;14034,135;  187,730;43434,931;32,01688
 319,82;13926,943;  191,112;43397,964;31,79086
 320,41;13856,268;  204,345;43284,244;31,68977
 321,01;13759,970;  200,104;43511,944;31,30753
 321,60;13729,200;  193,881;43642,096;31,15276
 322,20;13558,518;  165,031;43518,037;30,89402
 322,79;13573,195;  206,800;43654,986;30,76399
 323,39;13478,480;  180,790;43572,225;30,64589
 323,98;13336,402;  175,338;43633,481;30,28446
 324,58;13227,170;  167,655;43447,351;30,17469
 325,17;13104,106;  185,269;43201,366;30,03256
 325,76;12927,153;  201,186;43122,636;29,64943
 326,36;12740,618;  169,874;42593,788;29,63127
 326,95;12640,179;  218,649;42178,563;29,60332
 327,55;12372,547;  176,497;41915,346;29,21990
 328,14;12181,802;  172,794;41348,251;29,16545
 328,74;12057,455;  209,038;40829,011;29,16894
 329,33;11844,068;  190,105;40315,939;29,04354
 329,92;11623,009;  166,890;39660,305;29,00767
 330,52;11352,872;  192,178;38900,769;28,83260
 331,11;11125,599;  178,881;38444,687;28,60705
 331,71;10895,887;  186,110;37666,472;28,57437
 332,30;10676,848;  198,878;37106,531;28,38969
 332,89;10515,368;  266,490;36426,984;28,34275
 333,49;10241,039;  198,649;35823,230;28,18950
 334,08;10114,147;  181,497;35198,217;28,36545
 334,68; 9875,730;  188,497;34737,295;28,03928
 335,27; 9775,226;  194,100;34311,321;28,08296
 335,86; 9684,368;  250,573;33898,764;28,03656
 336,46; 9516,252;  202,792;33572,761;27,90971
 337,05; 9449,108;  181,419;33453,737;27,85405
 337,65; 9374,437;  169,650;33172,347;27,89101
 338,24; 9395,511;  230,645;33140,248;27,84861
 338,83; 9303,600;  221,260;33125,328;27,60248
 339,43; 9253,322;  174,269;32976,622;27,67805
 340,02; 9226,317;  181,270;32831,100;27,70320
 340,61; 9286,089;  191,954;32885,805;27,81604
 341,21; 9297,916;  210,653;32927,934;27,77512
 341,80; 9246,579;  189,497;32862,882;27,72006
 342,40; 9307,961;  195,332;33024,003;27,75814
 342,99; 9390,445;  179,490;33101,753;27,97789
 343,58; 9442,684;  178,105;33248,554;28,01468
 344,18; 9541,337;  214,950;33488,535;28,02940
 344,77; 9638,811;  179,885;33746,098;28,17990
 345,36; 9805,486;  175,803;34210,255;28,29393
 345,96; 9894,944;  212,105;34584,196;28,17064
 346,55;10061,737;  169,789;34774,204;28,58580
 347,14;10199,851;  173,101;35169,313;28,65096
 347,74;10444,638;  156,013;35698,813;28,94714
 348,33;10665,713;  186,707;36480,186;28,87297
 348,92;10937,685;  191,394;37188,955;29,04594
 349,52;11141,604;  153,550;37759,932;29,21859
 350,11;11268,773;  169,963;38005,963;29,33400
 350,70;11323,045;  176,954;38194,188;29,31852
 351,29;11276,534;  171,897;37901,223;29,43238
 351,89;11350,198;  200,659;37840,505;29,62164
 352,48;11415,462;  150,339;37923,879;29,82279
 353,07;11404,314;  197,408;37836,555;29,77460
 353,67;11372,968;  202,394;37818,604;29,69617
 354,26;11358,327;  190,255;37412,595;30,00368
 354,85;11367,540;  189,026;37287,366;30,13211
 355,45;11336,204;  162,959;36975,643;30,35162
 356,04;11365,583;  183,638;36930,767;30,42944
 356,63;11373,128;  217,111;36670,003;30,60393
 357,22;11261,037;  183,048;36525,690;30,48207
 357,82;11324,023;  180,892;36305,305;30,84654
 358,41;11369,881;  217,263;36129,991;31,05478
 359,00;11209,875;  167,500;35840,289;30,95462
 359,60;11264,112;  185,799;35775,735;31,12766
 360,19;11260,526;  208,098;35547,956;31,27468
 360,78;11272,023;  189,189;35462,705;31,41970
 361,37;11205,543;  180,958;35141,143;31,53469
 361,97;11226,320;  185,572;35077,292;31,64289
 362,56;11135,777;  190,040;34711,396;31,70715
 363,15;11098,121;  253,882;34372,239;31,78418
 363,74;11006,776;  191,735;33926,345;32,05919
 364,34;10939,571;  203,115;33405,107;32,33678
 364,93;10786,786;  183,348;32948,157;32,36228
 365,52;10684,368;  156,650;32451,071;32,59919
 366,11;10624,198;  182,961;32152,418;32,66004
 366,71;10498,597;  178,730;31649,470;32,79194
 367,30;10439,918;  191,650;31259,152;32,98710
 367,89;10408,543;  220,873;30917,492;33,18825
 368,48;10298,664;  204,427;30607,452;33,20142
 369,07;10149,429;  191,415;30016,803;33,38771
 369,67;10079,006;  220,118;29658,538;33,48987
 370,26; 9982,086;  172,569;29287,910;33,69192
 370,85; 9950,431;  192,188;29025,096;33,84411
 371,44; 9889,693;  197,110;28760,135;33,93402
 372,03; 9786,662;  166,654;28417,774;34,05178
 372,63; 9721,868;  162,188;28050,514;34,27843
 373,22; 9625,652;  174,724;27649,618;34,39842
 373,81; 9547,800;  178,188;27247,045;34,61399
 374,40; 9465,663;  186,102;26994,687;34,61414
 374,99; 9403,740;  189,651;26691,749;34,76739
 375,59; 9301,163;  158,256;26274,783;35,00813
 376,18; 9306,103;  198,343;26161,600;35,07942
 376,77; 9270,946;  208,187;25873,834;35,31086
 377,36; 9272,233;  212,958;25865,787;35,31491
 377,95; 9220,253;  209,499;25474,807;35,66453
 378,55; 9117,739;  176,643;25254,559;35,65327
 379,14; 9142,525;  206,958;25162,581;35,80583
 379,73; 9174,294;  187,729;25007,145;36,20780
 380,32; 9226,411;  193,495;25112,805;36,24866
 380,91; 9154,441;  168,272;24888,560;36,35139
 381,50; 9201,913;  195,732;24793,450;36,61389
 382,10; 9170,103;  184,725;24709,574;36,63785
 382,69; 9272,020;  160,343;24621,657;37,24934
 383,28; 9272,870;  208,654;24566,383;37,21290
 383,87; 9217,302;  175,424;24428,279;37,28171
 384,46; 9249,925;  173,661;24306,925;37,60894
 385,05; 9305,975;  212,886;24303,782;37,74492
 385,64; 9382,582;  189,576;24339,572;38,06628
 386,24; 9349,961;  167,661;24220,203;38,17601
 386,83; 9488,527;  207,432;24279,449;38,55554
 387,42; 9529,777;  206,730;24403,679;38,52985
 388,01; 9690,462;  193,284;24638,078;38,85154
 388,60; 9895,897;  192,737;24934,295;39,21807
 389,19;10000,006;  178,599;25258,789;39,16002
 389,78;10163,690;  182,443;25516,348;39,39877
 390,37;10519,032;  255,049;26044,630;39,79895
 390,96;10575,396;  187,662;26216,686;39,90827
 391,56;10725,331;  191,601;26377,838;40,22621
 392,15;10926,565;  174,826;26689,722;40,54980
 392,74;11068,431;  154,150;26904,368;40,80072
 393,33;11292,560;  193,679;27212,750;41,07795
 393,92;11581,298;  190,155;27681,721;41,43505
 394,51;11706,073;  164,218;27977,079;41,49826
 395,10;11886,306;  202,094;28227,249;41,69187
 395,69;12049,445;  206,168;28372,249;42,04801
 396,28;12163,501;  196,869;28554,213;42,19941
 396,87;12286,661;  205,421;28611,242;42,53086
 397,46;12387,485;  210,353;28729,041;42,69878
 398,06;12567,476;  225,287;29018,224;42,86534
 398,65;12686,476;  196,160;29080,013;43,24325
 399,24;12862,940;  217,088;29277,343;43,51597
 399,83;12887,451;  176,590;29253,316;43,71490
 400,42;13054,336;  224,626;29454,467;43,89251
 401,01;13180,384;  207,128;29571,044;44,18094
 401,60;13247,400;  217,799;29610,593;44,32924
 402,19;13268,410;  236,844;29605,829;44,37186
 402,78;13332,987;  226,835;29615,856;44,59540
 403,37;13374,504;  214,977;29390,074;45,10534
 403,96;13334,761;  227,976;29203,943;45,23330
 404,55;13430,901;  218,445;29138,663;45,68588
 405,14;13406,369;  211,599;28996,034;45,83995
 405,73;13384,837;  223,612;28785,954;46,07894
 406,32;13473,178;  237,134;28829,577;46,29211
 406,91;13351,500;  223,512;28451,200;46,50749
 407,50;13322,663;  238,163;28207,094;46,78227
 408,09;13277,617;  205,880;27879,689;47,23505
 408,68;13269,015;  230,129;27691,801;47,48031
 409,27;13247,750;  210,260;27477,721;47,81336
 409,86;13170,428;  208,898;27355,978;47,74558
 410,45;13248,120;  257,852;27271,554;48,08770
 411,04;13251,906;  244,189;27202,348;48,25150
 411,63;13057,203;  236,436;26878,885;48,12158
 412,22;13043,451;  252,227;26535,489;48,66681
 412,81;12921,296;  274,284;26290,545;48,61195
 413,40;12802,961;  262,336;25837,152;49,03506
 413,99;12701,414;  314,190;25452,504;49,27627
 414,58;12479,873;  235,339;25010,712;49,42220
 415,17;12417,740;  245,745;24729,214;49,71516
 415,76;12344,630;  231,536;24579,646;49,74963
 416,35;12245,583;  226,679;24283,150;49,96121
 416,94;12372,939;  260,762;24360,672;50,25818
 417,53;12568,149;  232,128;24573,694;50,67883
 418,12;12624,685;  243,123;24618,826;50,79469
 418,71;12923,552;  261,027;25197,185;50,77978
 419,30;13031,106;  230,429;25198,617;51,26795
 419,89;13205,773;  217,348;25463,049;51,44807
 420,48;13445,549;  256,643;25830,983;51,57086
 421,07;13565,787;  248,715;25884,029;51,94815
 421,66;13591,777;  215,550;25955,515;51,96677
 422,25;13642,532;  236,297;25951,341;52,13382
 422,84;13647,243;  261,754;25945,006;52,11758
 423,43;13491,948;  248,071;25663,928;52,10872
 424,02;13417,802;  265,221;25298,897;52,53955
 424,60;13155,282;  241,579;24734,056;52,72518
 425,19;13027,578;  256,131;24393,754;52,91095
 425,78;13037,144;  263,515;24327,975;53,08089
 426,37;13010,439;  258,967;24127,053;53,42478
 426,96;12959,344;  246,197;23974,029;53,57905
 427,55;12868,878;  250,336;23815,088;53,54838
 428,14;12801,318;  239,099;23559,774;53,86730
 428,73;12691,275;  238,727;23287,640;54,02662
 429,32;12737,704;  256,122;23272,549;54,22901
 429,91;12802,020;  277,187;23243,981;54,53453
 430,50;12722,783;  260,180;23069,501;54,63821
 431,08;12635,210;  264,480;22903,070;54,64444
 431,67;12615,504;  298,780;22792,481;54,75632
 432,26;12574,973;  316,158;22547,502;55,14203
 432,85;12389,893;  328,391;22187,710;55,17785
 433,44;12213,518;  329,612;21718,486;55,56116
 434,03;11953,867;  359,675;21306,430;55,35078
 434,62;11748,585;  302,227;20804,187;55,83056
 435,21;11599,400;  323,698;20490,492;55,91222
 435,79;11555,470;  317,373;20361,246;56,06749
 436,38;11504,793;  308,205;20228,135;56,20797
 436,97;11460,261;  310,434;20041,745;56,50829
 437,56;11337,298;  301,183;19805,014;56,58435
 438,15;11302,411;  279,881;19799,419;56,46921
 438,74;11360,308;  320,110;19760,262;56,79070
 439,33;11381,450;  281,189;19699,053;57,16520
 439,91;11432,212;  261,719;19851,305;57,02261
 440,50;11530,708;  314,333;19867,853;57,36243
 441,09;11603,672;  314,707;20012,283;57,31144
 441,68;11590,077;  285,387;20047,796;57,20299
 442,27;11679,109;  276,469;20008,998;57,78600
 442,86;11582,389;  251,675;20081,605;57,13946
 443,44;11683,300;  268,757;20002,114;57,84390
 444,03;11820,229;  343,520;20137,200;57,98168
 444,62;11702,368;  260,290;19968,456;58,05755
 445,21;11652,791;  284,677;19693,269;58,57259
 445,80;11639,170;  311,971;19650,624;58,57284
 446,39;11492,016;  367,974;19356,495;58,58298
 446,97;11325,525;  261,881;19073,511;58,81279
 447,56;11209,039;  266,485;18837,714;58,92208
 448,15;11122,990;  279,497;18571,175;59,28102
 448,74;10978,187;  291,880;18309,447;59,31049
 449,33;10897,266;  276,641;18160,537;59,38653
 449,91;10782,355;  276,473;17911,299;59,57463
 450,50;10679,944;  268,015;17637,654;59,94327
 451,09;10584,031;  285,090;17553,390;59,64074
 451,68;10560,945;  307,700;17358,424;60,13378
 452,26;10529,054;  311,232;17250,566;60,32009
 452,85;10469,700;  272,620;17151,501;60,41324
 453,44;10508,302;  288,679;17136,235;60,65938
 454,03;10542,712;  263,228;17099,659;61,05501
 454,61;10520,055;  262,294;17035,993;61,15384
 455,20;10664,501;  297,518;17301,084;60,96946
 455,79;10704,607;  303,298;17270,018;61,30418
 456,38;10864,114;  299,508;17334,704;62,01635
 456,97;10882,552;  281,973;17474,030;61,65975
 457,55;10941,239;  277,350;17483,395;61,97757
 458,14;10950,475;  317,283;17442,594;62,09051
 458,73;10884,839;  295,656;17325,922;62,17861
 459,31;10971,407;  316,722;17423,811;62,28228
 459,90;11088,591;  355,651;17490,156;62,63933
 460,49;11173,680;  402,039;17571,606;62,73682
 461,08;11192,291;  300,101;17691,511;62,62971
 461,66;11249,413;  301,800;17819,062;62,49614
 462,25;11334,336;  299,173;17869,693;62,80499
 462,84;11403,813;  321,254;17989,499;62,72586
 463,43;11418,935;  251,007;17879,081;63,35308
 464,01;11443,699;  296,233;17915,549;63,26844
 464,60;11502,958;  355,627;17826,061;63,80683
 465,19;11290,627;  282,845;17556,814;63,72468
 465,77;11296,121;  302,224;17580,033;63,63016
 466,36;11244,335;  326,315;17407,748;63,91747
 466,95;11038,593;  295,775;17026,046;64,21186
 467,53;10814,835;  314,525;16753,644;63,87392
 468,12;10666,783;  341,215;16387,586;64,34831
 468,71;10415,564;  307,998;16047,060;64,21962
 469,29;10286,302;  292,522;15741,525;64,68884
 469,88;10114,794;  304,978;15485,809;64,61975
 470,47;10264,034;  365,660;15586,201;65,03300
 471,06;10157,735;  324,429;15519,925;64,71198
 471,64;10266,649;  326,201;15704,611;64,63899
 472,23;10350,252;  295,565;15640,551;65,52425
 472,81;10423,913;  286,575;15786,318;65,40327
 473,40;10557,523;  296,719;15978,350;65,43200
 473,99;10748,168;  417,565;16199,915;65,45668
 474,57;10848,207;  316,181;16243,164;66,12694
 475,16;10969,455;  313,035;16521,341;65,74666
 475,75;11093,433;  331,635;16626,222;66,04523
 476,33;11181,791;  343,704;16768,516;65,98606
 476,92;11226,900;  333,871;16829,755;66,03483
 477,51;11359,653;  319,784;16902,322;66,57526
 478,09;11337,019;  327,553;16982,606;66,10286
 478,68;11322,794;  334,627;16808,872;66,69906
 479,27;11391,503;  351,788;16917,741;66,64099
 479,85;11380,108;  322,320;16913,123;66,65011
 480,44;11500,488;  309,393;17056,628;66,82354
 481,02;12550,676;  327,540;18513,781;67,21090
 481,61;14218,623;  360,389;21025,696;67,06038
 482,20;15272,827;  335,847;22425,425;67,62003
 482,78;15973,123;  368,240;23457,996;67,58358
 483,37;16405,812;  345,836;24077,235;67,67395
 483,95;16646,354;  386,219;24441,950;67,59360
 484,54;16830,870;  378,467;24717,477;67,59685
 485,13;16774,871;  335,441;24580,842;67,80432
 485,71;16533,019;  311,521;24299,731;67,62280
 486,30;16364,617;  374,213;24015,246;67,63835
 486,88;16120,694;  425,210;23631,682;67,63408
 487,47;15585,156;  376,670;22763,964;67,93356
 488,05;14832,859;  367,358;21754,751;67,63564
 488,64;13802,400;  368,042;20199,995;67,74097
 489,23;12366,877;  367,509;18030,057;67,93679
 489,81;10549,676;  370,045;15402,136;67,71933
 490,40;10019,100;  328,890;14590,975;67,94385
 490,98; 9815,901;  321,809;14267,450;68,07928
 491,57; 9741,509;  341,816;14131,813;68,16312
 492,15; 9682,160;  324,423;14086,901;67,99456
 492,74; 9569,003;  334,434;13926,221;67,94227
 493,32; 9562,310;  346,425;13829,647;68,35076
 493,91; 9488,661;  322,496;13679,484;68,62449
 494,50; 9414,338;  322,943;13664,540;68,14323
 495,08; 9373,208;  308,713;13605,891;68,16856
 495,67; 9365,370;  342,805;13563,727;68,24460
 496,25; 9257,157;  291,874;13466,176;68,05129
 496,84; 9293,563;  285,267;13420,976;68,57868
 497,42; 9230,381;  286,486;13343,746;68,49749
 498,01; 9202,339;  309,265;13274,048;68,59408
 498,59; 9131,365;  276,947;13162,195;68,71748
 499,18; 9101,542;  288,341;13136,494;68,59508
 499,76; 9024,461;  317,720;13043,589;68,41766
 500,35; 8922,952;  306,324;12773,862;69,11251
 500,93; 8862,296;  288,641;12779,560;68,63911
 501,52; 8785,137;  286,178;12588,629;69,08347
 502,10; 8800,969;  303,703;12636,336;68,90066
 502,69; 8631,520;  279,852;12413,289;68,83184
 503,27; 8516,269;  265,866;12229,110;68,96460
 503,86; 8430,963;  300,392;12150,983;68,60899
 504,44; 8361,839;  269,080;12010,806;68,92309
 505,03; 8136,316;  255,156;11632,165;69,27268
 505,61; 8066,019;  271,466;11502,732;69,40048
 506,19; 7911,952;  282,695;11342,775;68,98012
 506,78; 7747,029;  263,069;11183,407;68,53232
 507,36; 7590,388;  268,465;10923,259;68,71952
 507,95; 7470,799;  270,064;10747,971;68,72303
 508,53; 7366,095;  262,839;10596,711;68,73760
 509,12; 7259,313;  274,220;10401,645;68,97205
 509,70; 7111,511;  290,602;10229,006;68,63183
 510,29; 7046,506;  298,520;10023,243;69,39000
 510,87; 6866,681;  255,146; 9835,838;69,00894
 511,46; 6695,190;  255,144; 9684,786;68,29576
 512,04; 6592,441;  269,292; 9522,309;68,33608
 512,62; 6477,249;  276,836; 9324,609;68,52971
 513,21; 6340,898;  246,981; 9118,737;68,68897
 513,79; 6219,227;  256,657; 8968,660;68,44086
 514,38; 6049,345;  243,124; 8798,316;67,86781
 514,96; 5984,666;  295,586; 8726,279;67,48057
 515,54; 5869,789;  246,813; 8437,575;68,65022
 516,13; 5745,205;  272,966; 8373,229;67,55632
 516,71; 5644,887;  259,805; 8248,457;67,40914
 517,30; 5560,241;  252,953; 8153,958;67,17232
 517,88; 5455,724;  274,415; 8019,184;66,90076
 518,46; 5370,301;  240,028; 7865,909;67,27449
 519,05; 5303,994;  262,869; 7837,551;66,55229
 519,63; 5263,810;  263,795; 7737,088;66,90511
 520,22; 5212,296;  275,631; 7659,763;66,85505
 520,80; 5134,730;  245,706; 7557,517;66,86474
 521,38; 5139,336;  300,253; 7530,946;66,92420
 521,97; 5057,192;  256,394; 7503,851;66,24114
 522,55; 5044,532;  269,779; 7471,465;66,30050
 523,13; 5018,161;  255,390; 7455,608;66,14760
 523,72; 4981,553;  243,720; 7425,904;65,96645
 524,30; 5087,521;  287,924; 7581,887;65,80231
 524,89; 5061,934;  250,008; 7519,759;66,19106
 525,47; 5162,432;  257,230; 7685,089;66,03790
 526,05; 5172,632;  232,306; 7762,102;65,61036
 526,64; 5294,026;  276,611; 7877,186;66,01362
 527,22; 5355,205;  261,846; 8028,138;65,58290
 527,80; 5467,464;  307,842; 8103,564;66,18531
 528,39; 5512,200;  257,838; 8200,041;66,15748
 528,97; 5609,672;  245,532; 8394,916;65,82264
 529,55; 5722,960;  272,083; 8561,096;65,76027
 530,14; 5893,750;  280,143; 8783,866;66,01352
 530,72; 5909,270;  253,917; 8925,662;65,21586
 531,30; 6035,030;  234,373; 9110,697;65,34977
 531,89; 6106,308;  255,604; 9167,824;65,64811
 532,47; 6150,276;  282,601; 9262,492;65,34238
 533,05; 6153,328;  286,073; 9352,202;64,71621
 533,63; 6180,212;  284,215; 9400,892;64,67266
 534,22; 6179,026;  253,215; 9447,509;64,45096
 534,80; 6234,550;  278,746; 9529,227;64,38372
 535,38; 6374,585;  374,064; 9710,376;64,27079
 535,97; 6192,595;  257,139; 9608,265;63,47317
 536,55; 6243,999;  300,053; 9692,187;63,28642
 537,13; 6160,545;  299,373; 9615,767;62,91246
 537,71; 6229,111;  327,067; 9695,551;62,99893
 538,30; 6206,085;  324,443; 9796,845;62,09240
 538,88; 6240,253;  360,355; 9909,605;61,57445
 539,46; 6402,583;  409,054;10099,918;61,84721
 540,05; 6455,469;  397,358;10193,732;61,84034
 540,63; 6538,265;  432,434;10448,326;60,96143
 541,21; 6633,686;  442,738;10683,091;60,45639
 541,79; 6689,118;  456,430;10800,526;60,25358
 542,38; 6761,497;  488,820;10982,670;59,77479
 542,96; 6831,967;  479,655;11143,102;59,57090
 543,54; 6934,190;  505,739;11346,235;59,30034
 544,12; 7044,578;  471,352;11547,335;59,34666
 544,70; 7072,759;  454,654;11663,109;59,04565
 545,29; 7129,109;  463,589;11835,006;58,61644
 545,87; 7117,733;  469,661;11863,603;58,34743
 546,45; 7117,903;  436,744;11875,588;58,40764
 547,03; 7135,594;  419,048;11917,757;58,41130
 547,62; 7217,661;  386,968;12101,509;58,30953
 548,20; 7300,701;  418,579;12279,323;58,02437
 548,78; 7289,978;  381,564;12405,865;57,45377
 549,36; 7464,181;  363,720;12594,645;58,05335
 549,94; 7489,837;  321,581;12759,556;57,63202
 550,53; 7635,950;  347,876;13046,439;57,39290
 551,11; 7697,020;  310,639;13202,562;57,29464
 551,69; 7854,140;  332,489;13521,845;57,02819
 552,27; 8030,022;  281,033;13820,327;57,23333
 552,85; 8197,576;  294,562;14147,047;57,05124
 553,44; 8345,759;  301,105;14551,817;56,45089
 554,02; 8564,528;  319,180;14945,715;56,37254
 554,60; 8687,900;  251,792;15256,803;56,22194
 555,18; 8960,306;  297,412;15642,772;56,45285
 555,76; 9114,620;  282,103;16070,228;55,94405
 556,34; 9320,477;  288,325;16493,734;55,73542
 556,93; 9541,145;  279,258;16897,367;55,73370
 557,51; 9642,797;  262,786;17261,814;55,17969
 558,09; 9905,332;  297,643;17660,827;55,33368
 558,67;10027,940;  283,935;18064,453;54,80158
 559,25;10177,327;  293,553;18379,680;54,64837
 559,83;10294,448;  289,239;18741,441;54,22230
 560,41;10419,870;  252,173;19102,714;53,93849
 561,00;10616,815;  280,089;19507,787;53,75956
 561,58;10685,492;  272,173;19840,119;53,21621
 562,16;10806,295;  251,638;20092,333;53,19701
 562,74;10972,573;  233,410;20508,024;52,96852
 563,32;11162,619;  238,239;21016,156;52,57688
 563,90;11276,801;  271,012;21474,043;51,90668
 564,48;11462,416;  260,713;21907,540;51,74755
 565,06;11724,689;  266,782;22562,956;51,38957
 565,65;11998,668;  271,386;23334,054;50,84963
 566,23;12381,244;  305,473;24195,019;50,54835
 566,81;12573,960;  257,784;25032,319;49,71305
 567,39;13110,242;  266,084;26019,305;49,87399
 567,97;13353,867;  288,860;26788,384;49,30280
 568,55;13753,348;  315,624;27659,588;49,14329
 569,13;13978,332;  282,012;28440,792;48,63961
 569,71;14374,928;  265,485;29502,434;48,25895
 570,29;14862,918;  316,643;30731,185;47,82671
 570,87;15171,069;  296,025;31492,880;47,68123
 571,45;15359,360;  278,782;32273,499;47,13459
 572,03;15498,530;  244,390;32821,783;46,82431
 572,61;15772,120;  234,779;33581,636;46,59312
 573,20;16076,299;  267,093;34325,998;46,41725
 573,78;16245,019;  249,086;35037,977;45,98000
 574,36;16406,089;  271,011;35670,059;45,58054
 574,94;16506,357;  339,235;36070,492;45,24644
 575,52;16488,101;  250,610;36282,643;45,06404
 576,10;16698,194;  308,152;36963,834;44,71351
 576,68;16837,639;  273,313;37532,704;44,45678
 577,26;17073,298;  290,914;38402,890;44,03441
 577,84;17141,280;  293,087;38976,887;43,55362
 578,42;17224,233;  352,924;39291,417;43,32810
 579,00;17177,418;  270,393;39393,952;43,21443
 579,58;17136,123;  335,696;39679,751;42,70131
 580,16;16974,861;  278,154;39659,662;42,39733
 580,74;16905,914;  273,768;39791,234;42,08809
 581,32;16844,293;  286,387;39900,661;41,79783
 581,90;16776,711;  303,385;39909,788;41,59258
 582,48;16740,414;  283,308;39897,022;41,54396
 583,06;16607,533;  285,080;40076,268;41,02027
 583,64;16604,404;  273,465;40149,927;40,95383
 584,22;16287,001;  270,608;39925,227;40,38973
 584,80;16133,629;  279,693;39600,651;40,31930
 585,38;15845,499;  298,710;39153,421;40,01262
 585,96;15710,739;  258,238;39216,506;39,66424
 586,54;15574,222;  285,841;39070,183;39,41895
 587,12;15516,110;  259,382;39233,583;39,14571
 587,70;15508,176;  297,007;39368,693;38,93144
 588,28;15355,051;  274,844;39446,530;38,49772
 588,86;15280,366;  274,150;39449,217;38,30553
 589,44;15192,690;  261,217;39444,321;38,10692
 590,02;15184,891;  268,681;39733,089;37,79661
 590,59;15081,610;  241,610;39836,924;37,47918
 591,17;15068,167;  256,746;40021,272;37,24783
 591,75;14934,996;  250,752;40263,182;36,69921
 592,33;14987,908;  269,908;40397,974;36,67757
 592,91;14941,706;  226,364;40687,067;36,36947
 593,49;14977,186;  244,975;41020,424;36,13010
 594,07;14961,497;  268,436;41229,934;35,87042
 594,65;14859,242;  271,609;41226,449;35,61883
 595,23;14822,634;  263,451;41679,496;35,15348
 595,81;14740,696;  246,756;41820,572;34,86315
 596,39;14709,565;  243,832;41948,117;34,68644
 596,97;14625,676;  248,287;42077,886;34,37133
 597,55;14478,997;  242,837;42066,449;34,03857
 598,12;14405,402;  230,357;41993,116;33,94183
 598,70;14361,269;  237,978;42164,393;33,68590
 599,28;14243,928;  260,054;42337,087;33,23398
 599,86;14188,121;  233,670;42309,566;33,16495
 600,44;14115,012;  210,052;42490,235;32,88765
 601,02;14034,423;  268,734;42543,075;32,56275
 601,60;13924,301;  244,059;42515,595;32,36277
 602,18;13816,456;  215,511;42408,879;32,23479
 602,75;13713,951;  210,988;42590,385;31,86209
 603,33;13598,881;  237,670;42588,806;31,54865
 603,91;13507,907;  209,276;42485,132;31,45680
 604,49;13470,475;  245,669;42728,426;31,12982
 605,07;13347,707;  242,060;42636,052;30,91392
 605,65;13200,168;  238,436;42830,708;30,43212
 606,23;13152,363;  274,765;42935,861;30,18581
 606,80;13069,845;  285,219;42912,743;29,99148
 607,38;12963,864;  286,662;42991,091;29,68592
 607,96;12831,387;  300,526;42986,330;29,35604
 608,54;12806,292;  363,128;43156,066;29,07761
 609,12;12777,428;  340,295;43191,052;29,02430
 609,70;12672,157;  340,594;43202,306;28,77058
 610,27;12574,045;  345,835;43276,705;28,48349
 610,85;12477,164;  361,825;43401,480;28,14925
 611,43;12405,023;  353,747;43288,725;28,06867
 612,01;12234,412;  316,830;43065,015;27,87857
 612,59;12115,450;  325,517;43091,254;27,56864
 613,16;11984,416;  306,762;42987,023;27,36078
 613,74;11858,925;  306,593;42923,730;27,10725
 614,32;11775,487;  292,743;42904,712;26,94723
 614,90;11672,193;  283,212;42768,301;26,80701
 615,48;11500,935;  261,530;42346,424;26,70651
 616,05;11369,553;  245,840;42366,190;26,40936
 616,63;11246,171;  268,150;42115,264;26,23364
 617,21;11179,568;  265,835;42047,576;26,12082
 617,79;10987,009;  244,602;41977,402;25,74092
 618,36;10957,754;  268,445;41777,871;25,75152
 618,94;10733,800;  213,144;41495,536;25,48461
 619,52;10610,327;  245,995;41185,045;25,31649
 620,10;10489,194;  215,218;41131,081;25,11001
 620,67;10399,600;  230,919;41037,035;24,91950
 621,25;10289,440;  251,675;40899,928;24,69421
 621,83;10168,046;  240,913;40822,972;24,46188
 622,41;10170,899;  289,837;40782,992;24,40181
 622,98; 9961,559;  246,766;40504,620;24,13142
 623,56; 9913,451;  254,229;40502,351;23,99919
 624,14; 9816,345;  241,365;40371,341;23,85992
 624,72; 9712,987;  235,990;40270,150;23,67228
 625,29; 9629,803;  230,536;40358,353;23,42332
 625,87; 9599,731;  265,371;40282,813;23,32573
 626,45; 9481,086;  222,461;40096,950;23,21942
 627,02; 9308,615;  246,370;39970,025;22,81322
 627,60; 9281,400;  222,207;39961,053;22,79682
 628,18; 9216,351;  205,449;39980,206;22,65483
 628,76; 9114,996;  211,458;39942,192;22,40970
 629,33; 9097,690;  250,839;40010,486;22,25083
 629,91; 9043,886;  224,834;39990,235;22,17770
 630,49; 9018,864;  253,148;40173,239;21,95816
 631,06; 9006,679;  242,688;40285,739;21,88642
 631,64; 8939,984;  238,460;40251,522;21,74671
 632,22; 8862,308;  211,772;40109,559;21,68174
 632,79; 8893,813;  253,310;40497,330;21,47028
 633,37; 8878,500;  217,061;40489,172;21,50729
 633,95; 8834,136;  233,307;40600,433;21,30652
 634,52; 8796,144;  223,606;40657,660;21,20128
 635,10; 8773,159;  236,219;40636,225;21,13104
 635,68; 8760,707;  240,079;40879,534;20,96639
 636,25; 8684,361;  214,623;40865,833;20,83514
 636,83; 8679,996;  202,227;41155,346;20,70116
 637,41; 8617,034;  228,542;41104,902;20,52162
 637,98; 8675,088;  258,235;41412,510;20,45195
 638,56; 8647,369;  233,010;41362,044;20,45844
 639,13; 8568,503;  218,228;41408,000;20,27269
 639,71; 8676,906;  290,687;41663,075;20,27009
 640,29; 8479,609;  189,687;41416,880;20,10790
 640,86; 8494,848;  215,072;41597,874;20,00777
 641,44; 8404,857;  223,302;41674,714;19,73770
 642,02; 8412,943;  232,994;41648,400;19,75098
 642,59; 8405,644;  214,532;41768,856;19,71182
 643,17; 8328,499;  212,532;41708,157;19,55861
 643,74; 8259,354;  205,762;41839,074;19,34411
 644,32; 8230,594;  240,916;41693,607;19,27421
 644,89; 8228,372;  233,762;41793,985;19,23621
 645,47; 8190,996;  241,454;41750,364;19,15141
 646,05; 8159,620;  236,530;41647,204;19,13297
 646,62; 8079,090;  230,838;41632,352;18,95644
 647,20; 8039,407;  233,145;41912,576;18,72929
 647,77; 7947,416;  209,991;41661,262;18,66631
 648,35; 7996,655;  205,606;41558,564;18,84037
 648,92; 7891,203;  210,144;41568,558;18,57194
 649,50; 7830,904;  197,452;41435,244;18,51082
 650,08; 7832,836;  199,913;41342,700;18,55227
 650,65; 7802,383;  201,836;41655,540;18,33503
 651,23; 7866,776;  186,066;42456,149;18,17056
 651,80; 8090,478;  190,066;43651,758;18,17787
 652,38; 8157,794;  205,912;44067,290;18,12958
 652,95; 8189,111;  185,219;44492,438;18,06453
 653,53; 8229,427;  218,450;44825,355;17,95905
 654,10; 8233,359;  252,526;44913,503;17,86981
 654,68; 8197,214;  203,064;44812,497;17,92031
 655,25; 8115,069;  183,833;45006,568;17,69467
 655,83; 8127,539;  185,910;45010,100;17,71728
 656,40; 8151,164;  230,217;45074,863;17,66308
 656,98; 8021,480;  205,371;44870,934;17,49918
 657,55; 7950,643;  208,371;44806,620;17,36004
 658,13; 7955,575;  220,063;44368,691;17,52152
 658,70; 7829,199;  224,293;44015,300;17,36636
 659,28; 7657,900;  203,293;42999,756;17,41875
 659,85; 7456,755;  235,908;42135,903;17,23353
 660,43; 7422,995;  235,985;42116,820;17,16062
 661,00; 7423,926;  201,754;42242,045;17,17917
 661,58; 7454,858;  200,138;42595,193;17,11219
 662,15; 7446,944;  187,368;42820,879;17,02786
 662,73; 7605,107;  268,522;43137,796;17,11385
 663,30; 7532,962;  210,522;43324,944;16,98374
 663,88; 7575,278;  211,137;43483,476;17,01813
 664,45; 7551,595;  205,136;43745,778;16,87265
 665,03; 7608,988;  203,982;44151,541;16,84964
 665,60; 7801,074;  312,597;44532,842;16,93450
 666,17; 7663,621;  199,366;44733,375;16,76080
 666,75; 7729,861;  190,981;45084,753;16,79271
 667,32; 7821,562;  232,827;45466,286;16,77682
 667,90; 7851,494;  212,827;45814,818;16,75073
 668,47; 7893,657;  216,365;46034,812;16,75590
 669,05; 7921,358;  197,057;46393,652;16,72050
 669,62; 7891,597;  181,134;46427,800;16,67247
 670,19; 7898,375;  174,826;46592,409;16,63928
 670,77; 7991,615;  207,441;46742,326;16,72761
 671,34; 7932,085;  190,056;46687,474;16,65045
 671,92; 7976,633;  180,209;47078,391;16,62415
 672,49; 7990,026;  225,594;47184,615;16,53448
 673,06; 7962,881;  176,824;47107,994;16,59037
 673,64; 7957,351;  180,978;47107,526;16,57137
 674,21; 7908,283;  177,516;47029,135;16,50053
 674,79; 7968,677;  215,439;47384,514;16,43712
 675,36; 8034,762;  218,054;47427,277;16,55759
 675,93; 7922,233;  192,746;47219,425;16,43639
 676,51; 8017,472;  217,669;47490,726;16,49947
 677,08; 8012,020;  202,668;47441,028;16,53180
 677,65; 7984,259;  203,976;47746,253;16,36498
 678,23; 8045,807;  203,360;47852,708;16,45866
 678,80; 8046,892;  203,975;47992,471;16,41173
 679,38; 8047,055;  201,206;48148,696;16,36342
 679,95; 8113,064;  214,898;48439,228;16,37797
 680,52; 8158,842;  200,436;48748,607;16,39280
 681,10; 8239,004;  210,512;49157,370;16,40247
 681,67; 8269,398;  220,435;49519,441;16,32683
 682,24; 8175,638;  177,743;49480,742;16,22192
 682,82; 8298,339;  194,512;50159,044;16,21916
 683,39; 8449,655;  251,204;50406,269;16,34621
 683,96; 8442,587;  205,280;50721,878;16,30614
 684,54; 8488,904;  182,049;51152,949;16,29725
 685,11; 8609,451;  251,587;51550,635;16,29243
 685,68; 8652,844;  198,664;51875,936;16,35957
 686,25; 8626,392;  181,433;52115,315;16,26098
 686,83; 8688,324;  202,433;52100,847;16,35096
 687,40; 8753,486;  183,586;52541,457;16,36793
 687,97; 8816,418;  239,432;52955,143;16,27027
 688,55; 8805,658;  189,739;53129,521;16,27494
 689,12; 8844,743;  162,585;53432,054;16,29856
 689,69; 8913,445;  185,277;53480,201;16,37711
 690,26; 8910,915;  199,585;53416,503;16,36948
 690,84; 8949,924;  203,584;53664,574;16,36023
 691,41; 8988,394;  225,507;53752,798;16,37088
 691,98; 9051,018;  206,199;54093,331;16,41360
 692,56; 9056,796;  198,353;54188,786;16,40743
 693,13; 9129,728;  248,506;54337,780;16,41956
 693,70; 9114,122;  220,583;54451,851;16,39928
 694,27; 9127,515;  194,506;54675,076;16,39669
 694,84; 9156,832;  186,275;54652,223;16,47003
 695,42; 9246,071;  249,274;54733,140;16,51277
 695,99; 9204,311;  210,966;54942,288;16,43181
 696,56; 9225,858;  219,581;54864,744;16,48138
 697,13; 9323,713;  224,966;55168,276;16,56025
 697,71; 9312,260;  202,581;55269,501;16,54293
 698,28; 9291,731;  196,965;55665,648;16,39622
 698,85; 9349,201;  164,349;55652,873;16,55271
 699,42; 9432,364;  175,964;55837,175;16,62989
 699,99; 9448,065;  223,733;55935,707;16,55718
 700,57; 9504,612;  216,810;56009,085;16,64711
 701,14; 9522,313;  195,041;56150,541;16,66909
 701,71; 9584,014;  219,656;56429,842;16,65954
 702,28; 9589,716;  202,194;56409,529;16,70160
 702,85; 9606,494;  203,578;56510,523;16,69939
 703,43; 9665,272;  227,809;56596,978;16,74224
 704,00; 9737,896;  227,501;56979,357;16,75786
 704,57; 9752,674;  196,654;56899,427;16,85283
 705,14; 9840,452;  229,423;57299,114;16,84086
 705,71; 9833,307;  231,038;57249,569;16,84061
 706,28; 9836,085;  204,576;57169,871;16,90768
 706,86; 9948,555;  237,114;57404,249;16,98780
 707,43; 9970,872;  272,114;57388,089;16,98081
 708,00; 9981,496;  242,268;57321,698;17,06259
 708,57; 9949,197;  202,037;57222,846;17,09404
 709,14; 9976,745;  223,652;57421,071;17,05163
 709,71;10024,369;  201,575;57612,603;17,10959
 710,28;10106,608;  217,651;57759,136;17,18579
 710,86;10129,848;  209,574;57813,745;17,22145
 711,43;10192,318;  238,343;57849,277;17,27793
 712,00;10225,173;  212,496;57968,963;17,33603
 712,57;10268,413;  245,112;58123,650;17,31782
 713,14;10294,652;  207,419;58235,182;17,38346
 713,71;10281,431;  233,111;58138,637;17,35295
 714,28;10295,978;  221,188;58170,324;17,38557
 714,85;10274,448;  209,726;57925,241;17,43850
 715,42;10333,611;  207,649;58101,234;17,49065
 716,00;10440,312;  311,879;58248,382;17,48195
 716,57;10379,321;  220,725;58306,761;17,48888
 717,14;10420,022;  222,340;58310,908;17,55540
 717,71;10455,415;  204,109;58327,210;17,63723
 718,28;10517,732;  251,724;58485,589;17,62893
 718,85;10459,971;  199,647;58430,429;17,62010
 719,42;10533,673;  238,646;58705,422;17,60834
 719,99;10527,989;  204,185;58397,109;17,74065
 720,56;10616,075;  243,723;58726,256;17,73581
 721,13;10672,161;  204,184;58891,173;17,83696
 721,70;10649,477;  199,414;58717,244;17,85791
 722,27;10685,794;  237,030;58728,084;17,86387
 722,84;10797,495;  287,337;58954,847;17,91478
 723,41;10719,119;  191,644;58861,226;17,94367
 723,98;10818,820;  214,490;59115,527;18,00364
 724,55;10857,060;  247,336;59227,291;17,98869
 725,12;10822,530;  166,336;59275,669;18,02794
 725,69;10972,077;  205,720;59482,432;18,16288
 726,27;11033,625;  217,104;59381,580;18,28212
 726,84;11084,095;  219,181;59790,728;18,23843
 727,41;11049,488;  248,950;59758,260;18,14933
 727,98;11137,497;  237,642;60177,562;18,18463
 728,55;11202,198;  269,334;59999,633;18,30372
 729,12;11183,438;  211,488;60105,857;18,31883
 729,69;11260,908;  233,641;60246,159;18,37495
 730,26;11325,686;  231,333;60551,153;18,39255
 730,82;11340,772;  226,717;60242,839;18,51845
 731,39;11389,319;  221,179;60448,448;18,54333
 731,96;11455,405;  202,563;60680,673;18,60647
 732,53;11543,645;  225,255;60965,205;18,63418
 733,10;11608,038;  238,101;61138,430;18,66975
 733,67;11660,816;  233,716;61312,962;18,70865
 734,24;11575,441;  208,946;60974,879;18,70537
 734,81;11715,449;  250,715;61014,565;18,86769
 735,38;11613,458;  223,177;60774,713;18,81089
 735,95;11637,390;  216,253;60544,707;18,93159
 736,52;11705,014;  228,714;60737,239;18,96642
 737,09;11642,254;  239,099;60437,156;18,94273
 737,66;11778,493;  282,868;60610,843;19,05522
 738,23;11853,502;  226,637;60659,913;19,23918
 738,80;11978,126;  312,713;61133,138;19,18009
 739,37;11976,905;  249,636;61151,440;19,25603
 739,94;11995,452;  224,174;61236,049;19,29342
 740,51;12170,922;  378,405;61342,350;19,34343
 741,07;12035,700;  233,404;61234,037;19,34783
 741,64;12177,017;  253,635;61475,954;19,47555
 742,21;12184,872;  243,096;61487,255;19,49864
 742,78;12165,650;  201,865;61203,557;19,61222
 743,35;12269,582;  228,788;61644,551;19,60538
 743,92;12379,975;  267,711;61799,852;19,68445
 744,49;12411,984;  273,095;61586,154;19,79821
 745,06;12347,377;  233,018;61602,532;19,74003
 745,63;12341,155;  211,710;61548,911;19,77502
 746,19;12417,318;  224,556;61547,828;19,88277
 746,76;12408,558;  241,401;61671,976;19,80635
 747,33;12496,874;  224,324;61610,893;19,99224
 747,90;12554,960;  253,939;61811,579;19,98293
 748,47;12593,123;  237,324;61720,880;20,09610
 749,04;12637,131;  236,477;61735,720;20,16391
 749,61;12642,294;  272,862;61687,022;20,14101
 750,17;12736,688;  274,169;61712,247;20,28468
 750,74;12694,158;  242,246;61661,702;20,27356
 751,31;12721,474;  219,014;61678,234;20,34269
 751,88;12699,791;  204,783;61478,690;20,39205
 752,45;12841,723;  225,860;61681,915;20,52827
 753,02;12842,193;  259,091;61501,755;20,54630
 753,58;12847,971;  226,244;61449,902;20,61577
 754,15;12894,365;  227,013;61555,666;20,65487
 754,72;12808,066;  220,090;61234,506;20,63115
 755,29;12821,844;  200,628;61164,653;20,70273
 755,86;12889,468;  235,320;61458,032;20,66904
 756,42;12963,938;  259,089;61205,564;20,84591
 756,99;12890,640;  195,550;61184,327;20,81545
 757,56;13019,725;  210,550;61123,552;21,02864
 758,13;12912,888;  183,396;61024,930;20,92237
 758,70;13025,435;  209,472;61085,078;21,05271
 759,26;13045,367;  206,241;61143,457;21,06943
 759,83;13113,530;  216,010;61259,835;21,12830
 760,40;13093,385;  193,856;60955,598;21,22969
 760,97;13075,471;  196,240;61145,669;21,13101
 761,53;13023,249;  191,855;60667,125;21,21759
 762,10;13144,719;  170,163;60646,965;21,45377
 762,67;13221,805;  212,701;60721,805;21,49942
 763,24;13098,583;  176,854;60169,491;21,53886
 763,80;13192,976;  215,239;60354,408;21,57951
 764,37;13200,985;  202,315;60257,786;21,64444
 764,94;13088,917;  190,084;59855,396;21,61865
 765,50;13160,310;  200,546;59891,774;21,71134
 766,07;13238,627;  221,468;59820,076;21,84138
 766,64;13214,251;  200,853;59542,147;21,92975
 767,21;13193,260;  207,160;59496,371;21,90297
 767,77;13245,807;  225,160;59327,596;22,03064
 768,34;13252,662;  227,390;59309,821;22,04593
 768,91;13284,440;  238,082;59146,353;22,14690
 769,47;13271,141;  230,620;59197,885;22,11485
 770,04;13339,766;  234,159;59072,802;22,27381
 770,61;13255,621;  210,158;58792,181;22,26871
 771,18;13324,629;  218,696;58710,329;22,40651
 771,74;13390,023;  226,312;58958,399;22,41315
 772,31;13355,724;  232,927;58739,701;22,42953
 772,88;13328,194;  192,542;58311,310;22,60140
 773,44;13251,511;  208,618;58177,304;22,49989
 774,01;13399,981;  237,387;58317,606;22,66278
 774,58;13364,605;  210,310;57905,061;22,79981
 775,14;13368,768;  201,079;58134,440;22,72903
 775,71;13405,546;  196,848;57962,664;22,86594
 776,27;13498,401;  281,694;57820,658;22,97001
 776,84;13524,025;  325,770;57942,729;22,90689
 777,41;13456,957;  228,309;57712,800;23,01255
 777,97;13396,505;  219,924;57490,563;23,00757
 778,54;13501,206;  228,077;57455,018;23,19385
 779,11;13525,138;  258,308;57537,012;23,16189
 779,67;13558,069;  220,769;57381,006;23,33318
 780,24;13563,924;  234,307;57179,616;23,40775
 780,80;13594,318;  252,538;57198,686;23,42877
 781,37;13630,865;  246,768;57157,911;23,51753
 781,94;13523,412;  233,922;56900,982;23,45188
 782,50;13620,498;  228,767;56857,360;23,64836
 783,07;13607,892;  256,690;56928,047;23,55899
 783,63;13654,439;  231,151;56640,963;23,79602
 784,20;13646,679;  261,997;56608,727;23,75414
 784,77;13589,841;  238,151;56367,105;23,78753
 785,33;13600,004;  207,228;56149,484;23,94036
 785,90;13648,167;  231,535;56080,016;24,02327
 786,46;13672,252;  257,381;56036,087;24,05017
 787,03;13612,953;  221,457;55744,850;24,11866
 787,59;13627,270;  224,149;55683,152;24,16762
 788,16;13693,817;  245,457;55596,915;24,29631
 788,73;13645,365;  250,303;55503,139;24,24321
 789,29;13619,066;  225,764;55116,133;24,40009
 789,86;13720,998;  276,379;54994,127;24,57086
 790,42;13655,776;  246,686;54897,890;24,53576
 790,99;13531,554;  245,840;54468,269;24,50225
 791,55;13576,024;  231,378;54523,263;24,57945
 792,12;13651,802;  265,762;54447,795;24,70568
 792,68;13569,965;  244,993;54199,635;24,69662
 793,25;13514,051;  260,531;53951,014;24,68504
 793,81;13603,598;  337,223;53469,931;24,96838
 794,38;13431,607;  214,069;53287,771;24,90412
 794,94;13482,692;  226,684;53089,995;25,07601
 795,51;13450,240;  252,068;52963,912;25,03834
 796,07;13420,018;  244,453;52556,214;25,18662
 796,64;13502,334;  270,914;52788,977;25,19404
 797,20;13404,958;  242,375;52175,894;25,34506
 797,77;13348,660;  219,452;51855,349;25,42651
 798,33;13325,284;  250,451;51727,651;25,39927
 798,90;13331,677;  264,143;51666,260;25,42217
 799,46;13245,071;  222,220;51127,408;25,58256
 800,03;13261,003;  239,220;51086,556;25,60957
 800,59;13288,011;  256,527;50791,934;25,78684
 801,15;13218,328;  262,373;50645,082;25,71508
 801,72;13178,106;  239,296;50239,922;25,87730
 802,28;13134,961;  260,757;49976,916;25,89541
 802,85;13119,508;  249,449;49804,602;25,97118
 803,41;13065,363;  226,987;49520,442;26,04479
 803,98;13018,141;  232,987;49081,128;26,17327
 804,54;12993,842;  247,064;48817,584;26,24386
 805,11;13001,082;  265,909;48568,578;26,36536
 805,67;12931,245;  265,294;48496,802;26,26074
 806,23;12844,484;  254,678;48113,642;26,30606
 806,80;12875,801;  270,909;47901,790;26,46370
 807,36;12877,040;  261,062;47824,015;26,52480
 807,93;12862,203;  285,446;47622,701;26,56841
 808,49;12762,981;  229,138;47175,464;26,69824
 809,05;12728,759;  230,830;47043,073;26,69799
 809,62;12739,153;  264,907;46914,375;26,74038
 810,18;12761,623;  251,907;46860,907;26,83970
 810,74;12662,939;  220,445;46486,132;26,89357
 811,31;12682,487;  222,522;46325,049;27,02664
 811,87;12634,419;  258,598;46123,812;26,98302
 812,44;12668,274;  266,290;46084,806;27,06762
 813,00;12518,975;  203,598;45838,492;26,98675
 813,56;12646,599;  257,213;45856,178;27,17032
 814,13;12584,069;  245,905;45853,095;27,05311
 814,69;12525,540;  241,597;45567,474;27,10139
 815,25;12461,395;  216,135;45001,699;27,34198
 815,82;12521,557;  254,904;44987,308;27,42230
 816,38;12530,182;  289,904;44849,609;27,46939
 816,94;12305,883;  234,980;44529,142;27,25168
 817,51;12349,199;  219,672;44262,443;27,54034
 818,07;12264,516;  232,287;43942,591;27,52721
 818,63;12249,217;  239,595;43801,893;27,56884
 819,20;12274,149;  249,441;43702,271;27,67301
 819,76;12153,773;  223,440;43231,188;27,73996
 820,32;12168,551;  275,209;43110,413;27,76534
 820,89;12091,021;  252,824;42955,022;27,72269
 821,45;12057,030;  234,516;42550,862;27,93841
 822,01;12093,731;  255,285;42356,702;28,11888
 822,57;12041,817;  257,208;42212,927;28,08821
 823,14;11969,749;  214,054;41866,998;28,22296
 823,70;11962,835;  240,361;41616,761;28,33130
 824,26;11904,844;  213,438;41400,678;28,38599
 824,82;11943,314;  265,976;41279,672;28,47180
 825,39;11909,015;  232,437;40941,666;28,68288
 825,95;11906,793;  242,129;41110,583;28,54198
 826,51;11910,340;  250,667;40510,961;28,96072
 827,08;11971,349;  286,283;40593,032;28,99035
 827,64;11939,358;  261,359;40360,026;29,12316
 828,20;11886,905;  221,743;40133,635;29,22728
 828,76;11962,145;  269,820;40193,398;29,28677
 829,32;11906,538;  276,358;39973,469;29,29730
 829,89;11859,778;  224,743;39838,232;29,37140
 830,45;11843,479;  247,742;39738,226;29,36337
 831,01;11872,103;  241,204;39576,143;29,56888
 831,57;11827,958;  237,126;39425,522;29,57720
 832,14;11843,275;  230,203;39358,285;29,67963
 832,70;11809,745;  213,433;39137,432;29,79219
 833,26;11753,831;  198,125;39029,811;29,75844
 833,82;11882,301;  243,510;38898,420;30,10948
 834,38;11832,156;  228,048;38980,568;29,94414
 834,95;11773,703;  215,278;38781,562;29,97029
 835,51;11775,251;  191,663;38626,402;30,13833
 836,07;11915,260;  238,124;38760,319;30,31275
 836,63;11880,961;  248,354;38652,005;30,29037
 837,19;11851,739;  252,970;38504,614;30,32228
 837,75;11785,517;  207,277;38093,608;30,56047
 838,32;11967,064;  253,123;38318,448;30,77326
 838,88;11958,073;  251,122;38316,135;30,75515
 839,44;11942,082;  252,122;38216,667;30,79178
 840,00;11926,091;  255,045;38089,507;30,84766
 840,56;11825,407;  223,660;37756,116;30,91124
 841,12;11861,262;  225,967;37779,802;30,98297
 841,68;11806,348;  208,967;37553,950;31,05472
 842,25;11843,972;  228,198;37652,636;31,03794
 842,81;11754,058;  205,120;37343,015;31,09745
 843,37;11788,836;  199,428;37319,624;31,22130
 843,93;11822,922;  227,274;37173,772;31,38497
 844,49;11890,930;  250,889;37314,843;31,40529
 845,05;11795,785;  191,427;37014,375;31,51393
 845,61;11953,333;  244,196;37150,600;31,72657
 846,17;11879,034;  212,965;36982,901;31,72719
 846,73;11862,350;  242,580;36912,203;31,68773
 847,29;11764,051;  225,733;36677,735;31,65346
 847,86;11773,830;  223,810;36606,268;31,74612
 848,42;11760,223;  218,656;36341,108;31,95123
 848,98;11792,463;  240,425;36353,025;31,98894
 849,54;11766,548;  230,040;36393,711;31,90082
 850,10;11745,326;  244,193;36184,012;32,00109
 850,66;11708,797;  222,732;35997,929;32,10622
 851,22;11712,652;  199,654;35966,385;32,18912
 851,78;11771,430;  263,270;35914,994;32,27939
 852,34;11670,131;  243,577;35736,219;32,19415
 852,90;11712,063;  227,730;35670,059;32,40287
 853,46;11596,149;  215,961;35368,130;32,37407
 854,02;11595,619;  240,499;35407,893;32,28877
 854,58;11559,089;  225,114;35108,425;32,49111
 855,14;11528,637;  222,806;35070,804;32,44327
 855,70;11504,415;  196,575;34870,336;32,61209
 856,26;11512,654;  228,113;34736,253;32,70110
 856,82;11465,125;  227,728;34633,093;32,66176
 857,38;11440,826;  282,728;34582,010;32,53158
 857,94;11417,296;  221,036;34393,465;32,76402
 858,50;11390,305;  246,343;34317,767;32,70765
 859,06;11313,621;  217,420;34104,146;32,74498
 859,62;11373,861;  248,727;34009,909;32,95244
 860,18;11292,331;  227,573;33889,672;32,87008
 860,74;11212,725;  201,265;33764,435;32,80816
 861,30;11240,426;  208,803;33450,352;33,18625
 861,86;11311,281;  284,803;33550,961;33,14623
 862,42;11198,059;  227,033;33349,032;33,12308
 862,98;11220,299;  257,956;33354,564;33,12225
 863,54;11153,077;  220,648;33068,020;33,28251
 864,10;11167,778;  224,878;33158,475;33,22716
 864,66;11088,325;  205,263;32801,777;33,38720
 865,22;11136,180;  230,186;32700,694;33,58738
 865,78;11087,881;  228,031;32483,534;33,66821
 866,34;11113,044;  216,416;32380,682;33,87806
 866,90;11071,437;  232,569;32365,983;33,73083
 867,45;10998,061;  233,877;32121,823;33,75628
 868,01;11003,070;  236,030;31924,817;33,97744
 868,57;10928,848;  233,414;31850,042;33,82851
 869,13;10897,857;  213,799;31633,266;34,00458
 869,69;10893,712;  231,491;31572,799;34,01971
 870,25;10886,952;  195,337;31446,023;34,21242
 870,81;10900,961;  225,183;31277,940;34,37948
 871,37;10808,508;  232,028;31215,396;34,13599
 871,93;10880,824;  248,259;31081,851;34,48371
 872,49;10794,064;  278,105;30774,999;34,48207
 873,04;10743,227;  202,720;30672,762;34,59302
 873,60;10690,466;  219,412;30479,371;34,60366
 874,16;10681,860;  231,335;30434,058;34,60127
 874,72;10682,860;  233,565;30331,365;34,71780
 875,28;10710,783;  240,950;30233,750;34,90782
 875,84;10657,475;  239,488;30124,288;34,86049
 876,40;10662,013;  219,642;30089,135;34,95999
 876,95;10745,398;  244,181;30094,596;35,17947
 877,51;10751,244;  262,258;29995,904;35,27649
 878,07;10789,167;  278,796;30104,904;35,23883
 878,63;10834,398;  230,027;30106,135;35,49449
 879,19;10827,706;  242,335;30152,519;35,39052
 879,75;10809,706;  231,796;30113,365;35,39944
 880,30;10841,552;  232,027;30041,827;35,59073
 880,86;10903,552;  272,181;30242,365;35,47316
 881,42;10983,013;  212,488;30266,058;35,83776
 881,98;10986,629;  235,412;30321,673;35,73464
 882,54;11065,937;  228,335;30386,904;35,93540
 883,09;11158,937;  243,796;30518,673;36,05346
 883,65;11194,321;  210,642;30670,750;36,05923
 884,21;11333,860;  253,335;30906,904;36,14759
 884,77;11342,013;  213,335;30947,519;36,20945
 885,32;11442,244;  229,873;31118,288;36,29960
 885,88;11557,783;  259,104;31227,212;36,48489
 886,44;11554,090;  236,565;31341,212;36,38532
 887,00;11592,013;  263,104;31300,596;36,50072
 887,56;11661,398;  225,335;31517,904;36,54562
 888,11;11721,244;  223,950;31516,212;36,74165
 888,67;11824,013;  257,565;31685,904;36,80261
 889,23;11898,090;  227,488;31733,135;37,04289
 889,79;11800,783;  212,719;31565,750;36,95995
 890,34;11855,706;  244,335;31564,365;37,07331
 890,90;11959,706;  319,335;31753,981;37,03039
 891,46;11877,475;  228,796;31630,442;37,09576
 892,01;11837,090;  246,335;31583,519;36,98723
 892,57;11818,167;  271,027;31485,519;36,99288
 893,13;11753,629;  249,488;31315,212;37,03162
 893,69;11722,321;  212,796;31272,673;37,05593
 894,24;11705,629;  237,950;31211,365;37,02426
 894,80;11785,552;  238,565;31004,058;37,53227
 895,36;11694,475;  228,796;30898,288;37,38464
 895,91;11606,552;  237,642;30537,827;37,52093
 896,47;11576,321;  260,027;30529,827;37,38477
 897,03;11520,090;  237,027;30303,904;37,52656
 897,58;11452,475;  241,642;30312,750;37,28108
 898,14;11480,937;  245,258;29990,442;37,77310
 898,70;11386,783;  205,181;29772,596;37,81731
 899,25;11506,167;  237,950;29750,288;38,18138
 899,81;11400,321;  246,950;29594,673;38,00421
 900,37;11310,321;  206,719;29340,827;38,11204
 900,92;11403,783;  221,796;29260,827;38,50675
 901,48;11320,937;  222,258;29132,135;38,39061
 902,03;11242,552;  231,950;29017,981;38,24981
 902,59;11337,167;  227,335;28905,673;38,73946
 903,15;11249,552;  250,873;28718,212;38,63613
 903,70;11129,090;  224,181;28494,519;38,57368
 904,26;11094,552;  230,873;28338,058;38,65090
 904,82;11101,321;  221,335;28354,596;38,67304
 905,37;11026,090;  228,796;28208,288;38,59003
 905,93;10984,090;  213,488;28030,365;38,71967
 906,48;10984,783;  245,796;27939,365;38,77791
 907,04;10994,937;  252,104;27864,827;38,90537
 907,60;10897,321;  245,796;27555,904;39,00213
 908,15;10953,475;  224,104;27562,596;39,24639
 908,71;10866,244;  241,873;27514,058;38,95680
 909,26;10860,013;  232,181;27271,135;39,30564
 909,82;10800,629;  245,950;27185,212;39,17954
 910,37;10862,398;  277,181;27060,750;39,52131
 910,93;10755,860;  225,950;26855,442;39,54228
 911,48;10684,090;  214,104;26728,904;39,48733
 912,04;10665,783;  219,950;26546,981;39,67722
 912,60;10651,629;  238,104;26595,135;39,50948
 913,15;10570,167;  238,873;26404,827;39,48373
 913,71;10585,321;  216,950;26202,827;39,90002
 914,26;10487,244;  200,719;26087,288;39,73692
 914,82;10528,706;  238,565;26018,519;39,91528
 915,37;10489,783;  211,488;25997,904;39,85934
 915,93;10500,475;  273,258;25806,673;40,05425
 916,48;10445,167;  208,412;25663,750;40,21457
 917,04;10433,398;  239,488;25524,673;40,31574
 917,59;10428,475;  256,104;25455,135;40,36810
 918,15;10266,552;  193,950;25229,673;40,23292
 918,70;10350,167;  217,335;25166,904;40,61326
 919,26;10342,475;  230,488;25054,212;40,73517
 919,81;10275,783;  205,335;24844,288;40,87206
 920,37;10297,552;  223,796;24869,212;40,87477
 920,92;10184,783;  240,181;24722,135;40,62013
 921,48;10084,475;  214,950;24481,212;40,67180
 922,03;10137,398;  224,719;24464,288;40,89462
 922,59;10141,629;  233,873;24275,135;41,21146
 923,14;10087,937;  233,565;24151,519;41,20073
 923,69;10063,244;  247,950;24129,827;41,09934
 924,25;10038,244;  257,488;24016,519;41,16648
 924,80; 9948,783;  225,796;23773,058;41,29137
 925,36; 9976,783;  213,796;23715,750;41,54117
 925,91; 9925,783;  220,950;23554,596;41,59158
 926,47; 9910,321;  206,565;23505,519;41,64889
 927,02; 9923,398;  308,565;23399,212;41,63951
 927,57; 9820,706;  224,488;23133,981;41,88752
 928,13; 9807,783;  210,642;23119,058;41,89351
 928,68; 9806,244;  223,642;23056,904;41,96773
 929,24; 9730,937;  198,719;22802,135;42,17158
 929,79; 9641,937;  198,335;22770,904;41,83663
 930,34; 9651,321;  214,873;22576,365;42,19955
 930,90; 9622,244;  205,950;22459,750;42,31320
 931,45; 9607,783;  222,642;22482,288;42,16213
 932,01; 9560,244;  226,104;22355,827;42,17920
 932,56; 9537,167;  236,719;22221,212;42,30458
 933,11; 9542,552;  254,719;22291,750;42,14648
 933,67; 9392,937;  219,258;21968,750;42,17882
 934,22; 9418,244;  234,565;21936,596;42,31714
 934,77; 9447,244;  246,719;21783,442;42,72017
 935,33; 9336,475;  225,027;21639,212;42,54866
 935,88; 9383,629;  237,950;21579,519;42,85383
 936,43; 9304,860;  232,335;21484,750;42,68938
 936,99; 9270,167;  232,950;21357,212;42,78122
 937,54; 9202,398;  213,181;21167,135;42,89986
 938,09; 9192,398;  234,488;21117,596;42,89548
 938,65; 9106,706;  230,565;20960,904;42,81715
 939,20; 9080,860;  191,796;20899,135;42,92712
 939,75; 9058,398;  205,642;20820,904;42,94273
 940,31; 9021,398;  202,027;20736,135;42,94986
 940,86; 9060,783;  224,565;20640,904;43,28013
 941,41; 9105,706;  322,488;20687,058;43,12989
 941,96; 8951,167;  210,104;20382,596;43,33160
 942,52; 8969,013;  224,412;20334,212;43,48428
 943,07; 8876,629;  201,796;20198,981;43,38027
 943,62; 8840,244;  208,565;20065,365;43,46964
 944,18; 8778,244;  207,642;20067,750;43,15486
 944,73; 8825,475;  233,027;19904,519;43,67970
 945,28; 8690,860;  182,181;19787,288;43,40032
 945,83; 8754,321;  202,642;19727,981;43,79785
 946,39; 8700,244;  210,412;19667,519;43,63358
 946,94; 8715,398;  247,950;19561,519;43,84196
 947,49; 8629,167;  216,796;19444,904;43,75039
 948,04; 8706,244;  266,565;19358,135;44,20631
 948,59; 8721,244;  234,796;19262,673;44,60008
 949,15; 8599,937;  201,104;19211,058;44,18124
 949,70; 8587,629;  213,027;19100,981;44,33832
 950,25; 8559,937;  233,027;19043,904;44,26646
 950,80; 8522,629;  188,642;18873,827;44,60211
 951,36; 8452,860;  179,335;18800,288;44,43126
 951,91; 8469,629;  233,412;18795,442;44,37132
 952,46; 8390,013;  207,412;18571,981;44,55646
 953,01; 8441,244;  223,950;18566,827;44,79828
 953,56; 8318,629;  189,565;18417,058;44,59782
 954,11; 8264,167;  224,642;18398,288;44,23727
 954,67; 8293,552;  213,796;18288,827;44,70120
 955,22; 8212,706;  194,181;18158,981;44,63465
 955,77; 8226,244;  236,873;18057,981;44,83095
 956,32; 8247,629;  277,950;18018,904;44,92249
 956,87; 8089,398;  201,642;17865,519;44,65473
 957,42; 8121,167;  216,181;17850,981;44,82606
 957,98; 8110,321;  211,719;17736,365;45,07139
 958,53; 8111,013;  239,950;17642,212;45,23012
 959,08; 8030,321;  209,873;17533,750;45,14260
 959,63; 8002,629;  219,335;17419,365;45,25163
 960,18; 8029,013;  223,027;17410,288;45,41728
 960,73; 7989,937;  222,335;17321,904;45,42572
 961,28; 7928,398;  186,719;17229,673;45,42451
 961,83; 7947,783;  243,950;17205,596;45,41913
 962,39; 7870,321;  200,335;17013,981;45,61763
 962,94; 7828,937;  221,950;16965,827;45,43145
 963,49; 7771,321;  226,104;16777,750;45,58590
 964,04; 7777,475;  232,335;16730,135;45,73422
 964,59; 7718,244;  195,181;16633,212;45,76621
 965,14; 7714,321;  249,335;16582,827;45,70355
 965,69; 7658,629;  217,027;16489,750;45,73053
 966,24; 7596,706;  210,412;16394,135;45,64027
 966,79; 7550,706;  239,488;16254,904;45,65113
 967,34; 7452,783;  185,181;16132,519;45,57251
 967,89; 7496,783;  210,335;16050,442;45,99999
 968,44; 7457,090;  216,104;16013,750;45,83586
 968,99; 7432,937;  236,027;15961,135;45,76700
 969,55; 7398,244;  219,412;15833,904;45,97545
 970,10; 7357,398;  232,642;15723,904;45,99210
 970,65; 7339,552;  241,796;15646,827;46,07427
 971,20; 7258,013;  216,258;15527,673;45,99023
 971,75; 7178,090;  195,104;15326,981;46,14752
 972,30; 7252,552;  220,719;15239,596;46,81996
 972,85; 7162,783;  203,796;15149,519;46,56173
 973,40; 7148,013;  208,719;15022,288;46,84417
 973,95; 7138,090;  221,181;15008,827;46,77492
 974,50; 7103,706;  252,412;14953,596;46,60369
 975,05; 7070,629;  223,335;14782,596;47,03051
 975,60; 7062,860;  241,796;14703,981;47,16482
 976,15; 6990,167;  212,873;14616,288;47,05338
 976,70; 6935,860;  222,412;14529,981;46,92235
 977,25; 6946,783;  243,027;14485,827;47,06768
 977,80; 6882,167;  224,181;14321,904;47,22739
 978,35; 6830,552;  243,027;14164,904;47,31779
 978,89; 6809,552;  196,104;14069,596;47,66967
 979,44; 6817,475;  234,258;14051,058;47,64647
 979,99; 6682,013;  212,796;13923,981;47,18205
 980,54; 6694,783;  238,104;13784,212;47,66446
 981,09; 6646,860;  247,104;13719,365;47,50320
 981,64; 6577,244;  231,950;13610,365;47,42934
 982,19; 6534,552;  266,950;13503,827;47,34955
 982,74; 6534,090;  230,950;13377,981;47,94345
 983,29; 6434,321;  221,104;13220,519;47,79613
 983,84; 6398,937;  218,873;13114,904;47,92221
 984,39; 6486,937;  319,642;13130,442;48,14137
 984,94; 6315,013;  194,873;12941,673;48,01315
 985,49; 6318,321;  243,565;12824,981;48,28356
 986,03; 6297,013;  246,719;12732,442;48,45770
 986,58; 6242,552;  285,950;12591,904;48,40423
 987,13; 6156,706;  229,642;12498,288;48,31066
 987,68; 6099,783;  252,104;12396,365;48,15179
 988,23; 6062,090;  234,258;12288,981;48,34481
 988,78; 6003,167;  210,719;12097,058;48,73198
 989,33; 6012,629;  246,412;12040,596;48,89034
 989,88; 5985,013;  263,412;12016,519;48,68161
 990,42; 5872,013;  214,873;11778,135;48,92340
 990,97; 5808,706;  229,950;11706,981;48,60801
 991,52; 5802,629;  246,335;11632,058;48,80054
 992,07; 5775,552;  275,719;11520,442;48,91034
 992,62; 5700,552;  238,719;11359,673;49,11299
 993,17; 5693,013;  249,719;11261,827;49,43009
 993,71; 5625,937;  243,258;11131,750;49,43457
 994,26; 5543,706;  210,796;11031,442;49,28458
 994,81; 5605,013;  254,565;10961,058;49,97387
 995,36; 5452,706;  218,642;10804,288;49,44491
 995,91; 5470,475;  228,027;10706,904;50,02872
 996,45; 5406,013;  240,488;10601,673;49,85458
 997,00; 5336,167;  219,873;10453,596;49,99446
 997,55; 5334,090;  235,873;10425,288;50,03444
 998,10; 5269,706;  258,719;10286,750;49,96980
 998,65; 5258,398;  229,027;10223,750;50,32027
 999,19; 5158,783;  245,412;10122,981;49,74272
 999,74; 5180,090;  275,796;10010,827;50,37780
1000,29; 5103,629;  229,642; 9896,442;50,41985
1000,84; 4985,013;  224,565; 9747,519;49,98920
1001,38; 4981,552;  231,488; 9658,519;50,38769
1001,93; 4941,475;  257,104; 9600,596;50,13512
1002,48; 4826,013;  213,488; 9385,365;50,28987
1003,03; 4832,937;  247,027; 9390,519;50,15490
1003,57; 4774,167;  241,027; 9279,673;50,15287
1004,12; 4798,244;  287,258; 9162,288;50,82784
1004,67; 4670,552;  236,104; 9069,904;50,19865
1005,22; 4602,783;  225,181; 8908,212;50,41560
1005,76; 4533,244;  219,027; 8775,904;50,41813
1006,31; 4549,090;  248,335; 8757,135;50,54480
1006,86; 4475,475;  221,104; 8563,212;50,99876
1007,40; 4391,629;  205,796; 8430,827;50,89139
1007,95; 4358,398;  235,488; 8365,596;50,71162
1008,50; 4276,321;  237,873; 8197,827;50,73457
1009,04; 4269,860;  220,412; 8126,058;51,22223
1009,59; 4176,321;  236,873; 7965,288;50,97356
1010,14; 4076,860;  212,796; 7876,442;50,42069
1010,68; 4075,244;  229,258; 7739,827;51,20766
1011,23; 4014,937;  245,796; 7677,981;50,71376
1011,78; 3968,629;  241,181; 7525,596;51,17017
1012,32; 3940,244;  270,258; 7462,827;51,02470
1012,87; 3925,860;  263,719; 7386,673;51,41323
1013,42; 3835,090;  212,258; 7261,058;51,39645
1013,96; 3869,629;  267,565; 7279,212;51,37258
1014,51; 3797,090;  191,335; 7170,750;51,66272
1015,06; 3801,629;  204,565; 7161,981;51,70115
1015,60; 3846,013;  272,181; 7212,442;51,49421
1016,15; 3787,398;  230,488; 7164,596;51,29585
1016,69; 3816,321;  243,488; 7178,750;51,51691
1017,24; 3801,629;  213,796; 7181,904;51,48934
1017,79; 3918,629;  273,258; 7245,288;52,28564
1018,33; 3865,090;  235,258; 7272,135;51,58301
1018,88; 3922,475;  248,027; 7366,673;51,61723
1019,42; 3910,783;  221,335; 7292,904;52,17298
1019,97; 3905,090;  220,027; 7299,519;52,05265
1020,51; 4017,860;  259,950; 7441,981;52,32377
1021,06; 3898,783;  201,181; 7343,365;51,77130
1021,61; 3898,013;  191,335; 7303,827;52,11505
1022,15; 3872,783;  189,027; 7269,673;52,02570
1022,70; 3903,783;  219,719; 7266,212;52,28223
1023,24; 3900,552;  200,258; 7238,519;52,57398
1023,79; 3878,167;  217,719; 7180,365;52,57266
1024,33; 3841,090;  221,412; 7083,750;52,74702
1024,88; 3818,860;  248,488; 7045,442;52,52899
1025,42; 3712,706;  243,642; 6925,135;51,92049
1025,97; 3693,321;  214,335; 6840,365;52,50484
1026,51; 3610,090;  190,488; 6693,288;52,58661
1027,06; 3580,475;  215,027; 6644,135;52,34705
1027,60; 3534,937;  230,104; 6497,827;52,72780
1028,15; 3519,629;  244,488; 6405,519;53,15897
1028,69; 3426,629;  193,335; 6264,904;53,25302
1029,24; 3356,475;  208,488; 6246,212;52,13864
1029,78; 3315,783;  199,027; 6111,288;52,71681
1030,33; 3253,629;  198,027; 6015,673;52,52299
1030,87; 3240,167;  210,950; 5917,365;53,08442
1031,42; 3174,552;  206,642; 5828,365;52,79359
1031,96; 3190,398;  238,565; 5783,365;53,23605
1032,51; 3124,090;  203,719; 5651,442;53,60719
1033,05; 3075,167;  218,873; 5613,519;52,94683
1033,60; 2992,552;  187,873; 5496,442;52,83305
1034,14; 2963,013;  215,796; 5412,596;52,86363
1034,69; 2927,244;  219,565; 5370,827;52,56341
1035,23; 2898,321;  215,950; 5260,212;53,17669
1035,77; 2874,090;  223,104; 5248,365;52,75321
1036,32; 2801,706;  189,950; 5121,981;52,95498
1036,86; 2796,706;  226,950; 5079,058;52,96164
1037,41; 2755,552;  231,719; 5010,442;52,81396
1037,95; 2677,244;  187,181; 4891,673;52,92948
1038,50; 2662,552;  205,950; 4864,904;52,72862
1039,04; 2670,475;  232,104; 4830,519;53,02634
1039,58; 2586,475;  188,181; 4698,519;53,17327
1040,13; 2575,321;  213,488; 4668,519;53,01496
1040,67; 2599,167;  243,027; 4628,750;53,72296
1041,21; 2555,013;  256,796; 4547,750;53,55959
1041,76; 2487,783;  210,950; 4455,442;53,64205
1042,30; 2462,013;  208,027; 4408,596;53,65907
1042,85; 2426,860;  208,412; 4337,596;53,72606
1043,39; 2382,090;  199,104; 4251,827;53,86469
1043,93; 2362,244;  237,719; 4235,827;53,13826
1044,48; 2354,321;  226,565; 4140,673;54,36120
1045,02; 2311,013;  215,873; 4101,596;53,91893
1045,56; 2300,860;  249,565; 4063,519;53,78393
1046,11; 2254,244;  211,565; 3975,750;54,26617
1046,65; 2218,629;  236,335; 3947,135;53,41959
1047,19; 2190,629;  206,335; 3840,365;54,60312
1047,74; 2130,860;  195,565; 3786,058;53,90053
1048,28; 2134,244;  219,719; 3747,288;54,27321
1048,82; 2138,783;  250,796; 3728,519;54,28801
1049,37; 2104,321;  226,104; 3685,596;54,29170
1049,91; 2072,244;  226,565; 3639,519;54,07863
1050,45; 2052,706;  231,873; 3582,442;54,34398
1050,99; 2001,475;  240,027; 3521,442;53,67952
1051,54; 1972,552;  212,335; 3462,827;54,15233
1052,08; 1965,013;  249,335; 3419,904;54,11264
1052,62; 1950,167;  229,796; 3371,904;54,75214
1053,16; 1904,321;  215,950; 3308,904;54,58766
1053,71; 1904,860;  229,258; 3285,519;54,82521
1054,25; 1869,090;  241,104; 3249,058;54,12272
1054,79; 1844,398;  232,181; 3195,981;54,39697
1055,33; 1771,013;  199,335; 3123,442;53,74901
1055,88; 1794,321;  230,258; 3130,750;53,92407
1056,42; 1788,013;  241,796; 3047,519;55,10941
1056,96; 1775,937;  250,565; 3039,596;54,69180
1057,50; 1745,013;  243,335; 2967,827;55,11775
1058,05; 1713,090;  229,412; 2925,365;55,03354
1058,59; 1708,629;  248,412; 2899,365;55,08271
1059,13; 1640,783;  204,565; 2818,365;54,94748
1059,67; 1640,398;  232,565; 2779,673;55,27182
1060,21; 1612,321;  227,335; 2747,981;54,94569
1060,76; 1595,013;  237,027; 2708,442;54,94773
1061,30; 1592,321;  249,719; 2704,288;54,69807
1061,84; 1571,167;  247,258; 2628,981;55,58621
1062,38; 1515,244;  212,104; 2586,212;54,88969
1062,92; 1553,090;  277,873; 2601,058;54,89092
1063,46; 1510,244;  246,642; 2509,442;55,84240
1064,01; 1480,090;  221,104; 2458,519;56,26968
1064,55; 1455,706;  240,335; 2459,212;54,77416
1065,09; 1417,860;  204,335; 2400,058;55,26767
1065,63; 1449,321;  257,719; 2402,827;55,54975
1066,17; 1446,398;  266,335; 2389,135;55,58995
1066,71; 1409,706;  256,335; 2352,596;55,02038
1067,25; 1349,475;  220,950; 2311,135;53,99164
1067,80; 1378,552;  244,027; 2286,442;55,54820
1068,34; 1377,552;  267,412; 2279,058;55,18567
1068,88; 1314,244;  225,950; 2208,596;54,89100
1069,42; 1339,398;  256,412; 2208,442;55,47999
1069,96; 1299,629;  229,565; 2160,288;55,42294
1070,50; 1323,552;  270,719; 2161,442;55,68413
1071,04; 1252,629;  221,642; 2100,981;54,85901
1071,58; 1257,552;  230,335; 2067,519;55,91258
1072,12; 1233,783;  238,104; 2066,442;54,45813
1072,66; 1220,629;  229,796; 2023,135;55,25074
1073,21; 1256,167;  251,104; 2028,442;56,54879
1073,75; 1210,321;  234,950; 1996,365;55,37428
1074,29; 1179,706;  240,719; 1960,519;54,59859
1074,83; 1181,321;  267,181; 1945,519;54,46699
1075,37; 1201,783;  270,258; 1953,212;55,35060
1075,91; 1170,783;  251,565; 1911,827;55,36581
1076,45; 1149,321;  238,873; 1886,750;55,24976
1076,99; 1156,013;  256,873; 1879,212;55,42249
1077,53; 1105,167;  229,642; 1820,750;55,02613
1078,07; 1116,321;  248,258; 1817,750;55,30855
1078,61; 1091,937;  239,181; 1778,058;55,41416
1079,15; 1082,860;  232,412; 1754,288;55,88153
1079,69; 1087,629;  239,488; 1741,904;56,45179
1080,23; 1077,475;  263,181; 1731,827;55,44523
1080,77; 1135,013;  314,335; 1769,750;56,38795
1081,31; 1055,860;  227,412; 1663,981;57,66851
1081,85; 1063,398;  260,565; 1681,212;56,51180
1082,39; 1037,244;  231,642; 1628,212;57,68435
1082,93; 1030,552;  248,412; 1642,365;56,10949
1083,47;  980,629;  216,565; 1566,904;56,58311
1084,01; 1002,013;  252,719; 1585,904;56,20334
1084,55;  980,552;  229,181; 1557,673;56,55819
1085,09;  984,398;  256,258; 1563,981;55,68001
1085,63;  960,321;  253,104; 1546,519;54,67828
1086,17;  943,937;  237,488; 1493,981;56,22383
1086,71;  916,167;  212,488; 1467,365;56,07553
1087,24;  957,706;  253,873; 1506,212;56,20148
1087,78;  944,860;  265,565; 1493,135;55,33653
1088,32;  899,783;  231,335; 1426,442;55,93204
1088,86;  930,937;  240,412; 1442,442;57,44653
1089,40;  894,475;  249,104; 1424,442;54,90939
1089,94;  865,398;  219,335; 1378,212;55,74910
1090,48;  878,321;  250,104; 1378,673;55,66493
1091,02;  887,629;  253,642; 1388,596;55,86012
1091,56;  845,398;  243,181; 1350,904;54,36533
1092,10;  822,398;  214,719; 1296,212;56,18892
1092,63;  879,475;  271,873; 1345,750;56,58022
1093,17;  842,321;  248,796; 1312,365;55,80502
1093,71;  821,706;  232,719; 1282,135;56,12521
1094,25;  835,398;  251,873; 1299,673;55,69049
1094,79;  814,321;  238,335; 1255,135;56,64698
1095,33;  799,629;  248,565; 1272,288;53,82935
1095,87;  818,090;  237,488; 1246,135;57,56250
1096,40;  763,167;  218,412; 1192,981;55,89708
1096,94;  793,552;  244,258; 1190,904;58,02530
1097,48;  790,860;  258,488; 1205,827;56,19651
1098,02;  748,398;  234,873; 1177,365;54,48586
1098,56;  725,244;  212,335; 1127,058;56,07267
1099,10;  731,475;  213,335; 1134,135;56,27068
1099,63;  727,321;  220,335; 1115,135;56,65920
1100,17;  738,629;  257,412; 1133,673;54,91709
1100,71;  770,860;  274,796; 1126,981;58,21080

