
Integration time [ms]: 160,000
Averaging Nr. [scans]: 13
Smoothing Nr. [pixels]: 0
Data measured with spectrometer [name]: 2009305U1
Wave   ;Sample   ;Dark     ;Reference;Reflectance
[nm]   ;[counts] ;[counts] ;[counts] ;[%]

 175,72;  214,896;  211,481;  218,198;50,83511
 176,32;  232,366;  242,342;  237,064; 0,00000
 176,92;  280,436;  274,024;  286,893;49,82311
 177,52;  269,117;  269,099;  274,399; 0,33487
 178,12;  249,402;  242,726;  241,865; 0,00000
 178,72;  281,345;  285,192;  276,001; 0,00000
 179,32;  270,503;  271,804;  258,781; 0,00000
 179,92;  261,650;  271,952;  251,920; 0,00000
 180,52;  266,965;  247,166;  277,718;64,80602
 181,12;  277,227;  273,258;  268,649; 0,00000
 181,73;  302,043;  303,642;  290,175; 0,00000
 182,33;  422,550;  400,787;  408,394;286,11598
 182,93;  294,894;  285,176;  293,730;113,60549
 183,53;  252,680;  256,655;  235,234; 0,00000
 184,13;  257,755;  258,269;  234,768; 0,00000
 184,73;  308,596;  310,349;  296,521; 0,00000
 185,33;  296,163;  248,820;  394,412;32,51751
 185,93;  311,913;  245,368;  398,196;43,54203
 186,53;  318,043;  265,978;  408,744;36,46880
 187,13;  328,723;  290,044;  447,866;24,50820
 187,73;  315,875;  264,675;  415,930;33,85030
 188,33;  307,829;  245,219;  387,713;43,93888
 188,93;  315,627;  270,930;  405,484;33,21901
 189,53;  325,159;  269,175;  424,072;36,14269
 190,13;  355,343;  303,044;  440,384;38,08003
 190,73;  296,484;  239,106;  383,350;39,77826
 191,34;  344,335;  276,781;  434,912;42,72011
 191,94;  307,243;  252,456;  418,799;32,93645
 192,54;  322,402;  270,574;  439,983;30,59340
 193,14;  323,515;  271,430;  434,086;32,02153
 193,74;  334,841;  277,278;  439,295;35,52912
 194,34;  328,301;  276,273;  426,370;34,66301
 194,94;  286,215;  229,891;  407,340;31,74068
 195,54;  267,797;  215,357;  369,546;34,00995
 196,14;  291,822;  234,578;  405,012;33,58736
 196,74;  285,087;  242,129;  389,416;29,16626
 197,34;  265,556;  211,648;  390,907;30,07239
 197,94;  293,519;  241,044;  415,716;30,04237
 198,54;  299,497;  255,194;  430,267;25,30571
 199,14;  281,005;  222,722;  427,949;28,39948
 199,74;  263,151;  211,106;  431,925;23,56906
 200,34;  274,635;  201,105;  426,377;32,64054
 200,94;  308,661;  249,189;  481,453;25,60549
 201,54;  287,289;  222,339;  476,646;25,54005
 202,14;  346,346;  267,948;  536,358;29,20833
 202,74;  298,961;  230,799;  536,970;22,26274
 203,34;  287,490;  198,866;  546,256;25,51155
 203,94;  258,461;  181,101;  534,318;21,90153
 204,54;  343,428;  260,735;  653,213;21,06955
 205,14;  306,911;  215,491;  657,051;20,70387
 205,74;  362,122;  257,251;  756,379;21,01073
 206,34;  317,183;  225,486;  763,868;17,03182
 206,94;  353,476;  234,411;  851,748;19,28688
 207,54;  323,531;  197,564;  867,836;18,79343
 208,14;  352,382;  203,255;  963,005;19,62845
 208,74;  362,952;  220,107; 1048,173;17,25041
 209,34;  379,708;  220,336; 1146,059;17,21596
 209,94;  403,091;  228,106; 1279,593;16,64172
 210,54;  404,721;  212,945; 1358,793;16,73659
 211,14;  432,107;  222,029; 1514,178;16,25801
 211,73;  454,072;  224,494; 1640,996;16,20745
 212,33;  480,361;  246,343; 1758,938;15,47132
 212,93;  476,506;  221,030; 1894,450;15,26667
 213,53;  466,482;  196,107; 1929,919;15,59429
 214,13;  512,597;  220,170; 2031,963;16,14022
 214,73;  490,577;  189,409; 2041,666;16,25949
 215,33;  471,553;  185,183; 2081,131;15,10432
 215,93;  506,487;  212,405; 2230,476;14,57243
 216,53;  485,120;  181,492; 2297,215;14,35100
 217,13;  567,235;  224,715; 2533,410;14,83609
 217,73;  575,164;  212,713; 2767,506;14,18710
 218,33;  586,431;  155,092; 2966,387;15,34308
 218,93;  663,623;  208,312; 3334,968;14,56225
 219,53;  718,962;  213,092; 3666,979;14,64640
 220,13;  749,064;  173,551; 4026,440;14,93718
 220,73;  850,153;  189,106; 4398,392;15,70449
 221,32;  887,798;  187,184; 4901,481;14,86148
 221,92;  995,378;  213,705; 5372,536;15,15213
 222,52; 1059,046;  184,943; 5861,538;15,39837
 223,12; 1167,946;  189,173; 6366,852;15,84370
 223,72; 1261,630;  196,865; 6820,752;16,07463
 224,32; 1373,026;  206,941; 7315,632;16,40365
 224,92; 1411,376;  189,634; 7653,451;16,36886
 225,52; 1539,391;  211,103; 8058,109;16,92732
 226,12; 1621,456;  198,099; 8394,150;17,36637
 226,72; 1686,889;  172,716; 8818,142;17,51416
 227,31; 1790,624;  167,716; 9288,269;17,79397
 227,91; 1958,336;  207,181; 9795,790;18,26287
 228,51; 2031,776;  186,034;10198,182;18,43502
 229,11; 2154,545;  194,408;10644,726;18,75672
 229,71; 2266,325;  187,031;11067,447;19,11043
 230,31; 2420,786;  182,016;11517,374;19,75032
 230,91; 2508,499;  165,576;11911,197;19,94721
 231,51; 2630,129;  185,174;12242,326;20,27805
 232,10; 2820,773;  184,861;12643,414;21,15745
 232,70; 2875,686;  189,504;12859,370;21,20134
 233,30; 3010,895;  218,944;13193,393;21,51884
 233,90; 3091,861;  183,560;13313,674;22,14985
 234,50; 3217,881;  189,174;13436,659;22,86251
 235,10; 3291,145;  185,403;13455,913;23,40334
 235,70; 3387,865;  211,720;13468,454;23,95873
 236,29; 3437,258;  197,415;13436,168;24,47242
 236,89; 3469,912;  171,190;13193,436;25,33144
 237,49; 3505,900;  197,869;13088,252;25,66278
 238,09; 3454,798;  193,871;12729,099;26,01410
 238,69; 3533,738;  243,194;12505,680;26,83423
 239,29; 3416,068;  186,564;12046,908;27,22943
 239,89; 3353,870;  197,421;11575,386;27,74177
 240,48; 3255,840;  184,948;11134,687;28,04535
 241,08; 3196,980;  188,180;10682,952;28,66951
 241,68; 3131,953;  205,640;10272,873;29,06770
 242,28; 3023,475;  171,791; 9848,284;29,47022
 242,88; 2977,590;  233,708; 9478,401;29,68061
 243,48; 2923,062;  238,638; 9155,891;30,10371
 244,07; 2778,609;  198,566; 8855,609;29,80283
 244,67; 2772,751;  214,793; 8693,035;30,17085
 245,27; 2702,611;  209,494; 8466,303;30,19468
 245,87; 2626,090;  211,325; 8363,749;29,62022
 246,47; 2630,184;  203,032; 8352,176;29,78413
 247,06; 2568,358;  188,257; 8320,626;29,26702
 247,66; 2601,271;  188,793; 8410,748;29,34189
 248,26; 2635,589;  208,492; 8598,777;28,92746
 248,86; 2645,014;  217,262; 8812,360;28,24578
 249,46; 2627,599;  154,559; 9031,811;27,85817
 250,05; 2702,318;  213,487; 9546,119;26,66805
 250,65; 2773,342;  176,187; 9989,959;26,46440
 251,25; 2852,013;  188,796;10490,127;25,85313
 251,85; 2974,126;  188,190;11125,846;25,47105
 252,44; 3081,686;  155,645;11908,685;24,89604
 253,04; 3209,614;  203,875;12810,007;23,84347
 253,64; 3282,826;  153,034;13680,640;23,13633
 254,24; 3519,018;  220,718;14831,835;22,57391
 254,84; 3653,445;  188,867;15996,734;21,91680
 255,43; 3821,611;  185,953;17244,536;21,31278
 256,03; 4013,879;  203,726;18451,646;20,87993
 256,63; 4173,339;  201,036;19808,871;20,25875
 257,23; 4295,648;  181,113;20871,414;19,88630
 257,82; 4471,819;  205,733;22198,232;19,39791
 258,42; 4542,785;  151,813;23334,204;18,94098
 259,02; 4728,682;  220,798;24592,594;18,49631
 259,62; 4787,036;  179,814;25547,111;18,16205
 260,21; 4840,088;  196,953;26211,736;17,84806
 260,81; 4870,548;  186,715;26980,120;17,48129
 261,41; 4887,431;  176,580;27633,684;17,15713
 262,01; 4975,712;  227,047;28229,601;16,95797
 262,60; 4959,495;  177,805;28838,491;16,68379
 263,20; 4975,524;  187,494;29286,737;16,45414
 263,80; 5014,087;  201,432;29662,957;16,33539
 264,40; 4978,673;  170,123;29839,945;16,20687
 264,99; 4981,034;  199,048;30127,181;15,97823
 265,59; 4988,266;  189,670;30316,259;15,92811
 266,19; 5003,157;  176,970;30574,780;15,87676
 266,78; 5032,211;  233,205;30823,865;15,68782
 267,38; 5020,246;  208,823;30828,429;15,71354
 267,98; 5001,888;  196,743;30871,434;15,66485
 268,58; 5020,673;  195,438;30913,172;15,70830
 269,17; 5032,363;  177,367;31023,779;15,73926
 269,77; 5044,521;  199,577;30754,570;15,85647
 270,37; 5002,717;  175,971;30671,922;15,82750
 270,96; 5064,648;  228,656;30454,950;15,99929
 271,56; 5005,843;  194,806;30122,767;16,07539
 272,16; 4988,165;  187,735;29971,268;16,11773
 272,75; 5047,243;  186,427;29859,965;16,38098
 273,35; 5066,334;  192,425;29843,931;16,43731
 273,95; 5131,466;  187,196;29778,711;16,70841
 274,54; 5153,462;  167,718;29810,629;16,81935
 275,14; 5296,455;  216,886;30186,602;16,94901
 275,74; 5333,139;  167,427;30271,039;17,15978
 276,33; 5521,623;  224,654;30851,261;17,29532
 276,93; 5647,134;  201,793;31279,415;17,52174
 277,53; 5803,404;  199,569;31882,683;17,68713
 278,12; 6000,096;  183,727;32492,142;18,00264
 278,72; 6321,948;  251,954;33285,317;18,37535
 279,32; 6466,724;  181,955;33862,874;18,65973
 279,91; 6730,975;  168,956;34771,549;18,96395
 280,51; 6965,909;  184,107;35427,430;19,24280
 281,11; 7274,479;  189,033;36405,369;19,56423
 281,70; 7514,356;  173,342;36799,693;20,04299
 282,30; 7774,305;  178,575;37647,075;20,27231
 282,90; 8039,714;  188,114;38160,150;20,67732
 283,49; 8308,557;  202,271;38818,062;20,99215
 284,09; 8565,645;  225,496;39352,713;21,31547
 284,69; 8871,295;  222,493;39716,819;21,89885
 285,28; 9178,115;  212,727;40272,352;22,38011
 285,88; 9510,574;  271,043;40575,343;22,92443
 286,47; 9713,953;  191,806;40555,943;23,59061
 287,07; 9954,424;  223,647;40682,282;24,05117
 287,67;10313,677;  218,254;40858,814;24,84076
 288,26;10540,013;  186,493;40795,817;25,49542
 288,86;10873,543;  184,727;40802,177;26,31582
 289,46;11244,575;  202,494;40964,118;27,08940
 290,05;11643,713;  189,873;40945,997;28,10336
 290,65;12168,369;  188,038;41352,190;29,10380
 291,24;12584,974;  196,646;41512,007;29,98480
 291,84;13096,185;  209,575;41660,409;31,08890
 292,44;13553,184;  200,560;41800,490;32,09771
 293,03;14085,264;  285,723;41934,340;33,13325
 293,63;14470,449;  190,960;42113,662;34,06147
 294,22;14980,419;  227,110;42371,190;35,00684
 294,82;15350,255;  185,815;42256,231;36,04538
 295,41;15453,126;  169,726;41928,693;36,59908
 296,01;15861,683;  224,197;41937,898;37,48765
 296,61;16038,118;  227,570;41649,594;38,16942
 297,20;16088,522;  196,197;41109,418;38,84399
 297,80;16303,445;  214,718;40879,116;39,56465
 298,39;16308,818;  172,344;40404,615;40,10828
 298,99;16466,837;  222,349;40273,823;40,55903
 299,58;16576,990;  207,947;39970,212;41,16728
 300,18;16628,945;  223,719;39835,925;41,41457
 300,78;16633,415;  184,183;39324,178;42,02666
 301,37;16796,098;  202,741;39327,758;42,41112
 301,97;16893,002;  204,802;39294,553;42,69201
 302,56;16964,840;  195,345;39240,911;42,94853
 303,16;17022,612;  176,193;39095,766;43,28521
 303,75;17145,547;  188,105;39022,882;43,66561
 304,35;17373,013;  185,712;39371,209;43,86138
 304,94;17447,200;  184,802;39363,454;44,06072
 305,54;17503,875;  225,799;39364,788;44,14543
 306,13;17487,169;  165,865;39235,829;44,33407
 306,73;17427,286;  175,714;38959,642;44,48124
 307,33;17475,966;  203,792;38958,373;44,56808
 307,92;17580,222;  206,415;38898,444;44,90281
 308,52;17863,918;  177,116;39535,145;44,93823
 309,11;18161,595;  188,506;40084,403;45,04997
 309,71;18371,191;  183,047;40497,883;45,11526
 310,30;18559,220;  171,416;40684,285;45,38756
 310,90;18779,374;  237,031;41231,208;45,23165
 311,49;18833,722;  205,417;41350,330;45,27487
 312,09;18997,826;  162,180;41476,721;45,59084
 312,68;19258,021;  261,414;41986,611;45,52790
 313,28;19305,683;  173,108;42091,290;45,64266
 313,87;19363,543;  158,339;42363,178;45,50474
 314,47;19543,309;  185,889;42609,624;45,62875
 315,06;19561,308;  168,492;42638,934;45,66191
 315,66;19622,903;  179,950;42994,336;45,41220
 316,25;19520,110;  152,577;42865,028;45,34400
 316,85;19510,528;  155,334;42884,519;45,29736
 317,44;19578,460;  176,890;43146,152;45,15221
 318,04;19497,364;  170,806;43057,638;45,06408
 318,63;19479,150;  157,253;43115,078;44,97876
 319,22;19462,436;  187,730;43434,931;44,56868
 319,82;19411,165;  191,112;43397,964;44,48381
 320,41;19247,823;  204,345;43284,244;44,20502
 321,01;19214,798;  200,104;43511,944;43,90184
 321,60;19142,593;  193,881;43642,096;43,61218
 322,20;19047,804;  165,031;43518,037;43,55586
 322,79;19013,402;  206,800;43654,986;43,28513
 323,39;18959,275;  180,790;43572,225;43,27694
 323,98;18811,567;  175,338;43633,481;42,88317
 324,58;18688,859;  167,655;43447,351;42,79421
 325,17;18480,940;  185,269;43201,366;42,53215
 325,76;18287,747;  201,186;43122,636;42,13875
 326,36;18013,438;  169,874;42593,788;42,06016
 326,95;17766,287;  218,649;42178,563;41,82001
 327,55;17477,677;  176,497;41915,346;41,45102
 328,14;17138,823;  172,794;41348,251;41,20423
 328,74;16850,925;  209,038;40829,011;40,96971
 329,33;16657,104;  190,105;40315,939;41,03840
 329,92;16199,177;  166,890;39660,305;40,59484
 330,52;15817,380;  192,178;38900,769;40,36624
 331,11;15460,072;  178,881;38444,687;39,93433
 331,71;15060,821;  186,110;37666,472;39,68668
 332,30;14754,892;  198,878;37106,531;39,43901
 332,89;14496,299;  266,490;36426,984;39,35181
 333,49;14076,458;  198,649;35823,230;38,95571
 334,08;13795,506;  181,497;35198,217;38,87859
 334,68;13413,634;  188,497;34737,295;38,27959
 335,27;13209,333;  194,100;34311,321;38,14857
 335,86;13043,918;  250,573;33898,764;38,02090
 336,46;12777,223;  202,792;33572,761;37,68188
 337,05;12550,499;  181,419;33453,737;37,17529
 337,65;12404,498;  169,650;33172,347;37,07227
 338,24;12371,438;  230,645;33140,248;36,89134
 338,83;12182,773;  221,260;33125,328;36,35269
 339,43;12154,769;  174,269;32976,622;36,52330
 340,02;11969,185;  181,270;32831,100;36,10406
 340,61;11925,752;  191,954;32885,805;35,88992
 341,21;11896,617;  210,653;32927,934;35,71802
 341,80;11758,086;  189,497;32862,882;35,40677
 342,40;11700,946;  195,332;33024,003;35,04745
 342,99;11667,914;  179,490;33101,753;34,89561
 343,58;11627,719;  178,105;33248,554;34,62189
 344,18;11684,098;  214,950;33488,535;34,46923
 344,77;11711,595;  179,885;33746,098;34,35511
 345,36;11730,518;  175,803;34210,255;33,95005
 345,96;11856,523;  212,105;34584,196;33,87754
 346,55;11828,704;  169,789;34774,204;33,69199
 347,14;11887,690;  173,101;35169,313;33,47388
 347,74;12001,470;  156,013;35698,813;33,32730
 348,33;12236,262;  186,707;36480,186;33,20033
 348,92;12363,081;  191,394;37188,955;32,89862
 349,52;12513,971;  153,550;37759,932;32,86788
 350,11;12541,755;  169,963;38005,963;32,69847
 350,70;12527,470;  176,954;38194,188;32,48662
 351,29;12326,869;  171,897;37901,223;32,21624
 351,89;12240,500;  200,659;37840,505;31,98696
 352,48;12193,341;  150,339;37923,879;31,88211
 353,07;12096,591;  197,408;37836,555;31,61385
 353,67;11997,246;  202,394;37818,604;31,35577
 354,26;11808,092;  190,255;37412,595;31,21200
 354,85;11737,657;  189,026;37287,366;31,12978
 355,45;11584,366;  162,959;36975,643;31,02574
 356,04;11526,662;  183,638;36930,767;30,86778
 356,63;11383,716;  217,111;36670,003;30,63298
 357,22;11214,742;  183,048;36525,690;30,35468
 357,82;11129,306;  180,892;36305,305;30,30752
 358,41;11064,148;  217,263;36129,991;30,20345
 359,00;10883,017;  167,500;35840,289;30,03835
 359,60;10866,190;  185,799;35775,735;30,00958
 360,19;10722,109;  208,098;35547,956;29,75114
 360,78;10648,540;  189,189;35462,705;29,65214
 361,37;10574,840;  180,958;35141,143;29,73063
 361,97;10446,940;  185,572;35077,292;29,40918
 362,56;10273,746;  190,040;34711,396;29,21005
 363,15;10300,846;  253,882;34372,239;29,44739
 363,74;10030,165;  191,735;33926,345;29,16420
 364,34; 9896,085;  203,115;33405,107;29,19394
 364,93; 9671,410;  183,348;32948,157;28,95808
 365,52; 9550,303;  156,650;32451,071;29,08754
 366,11; 9408,419;  182,961;32152,418;28,85710
 366,71; 9251,282;  178,730;31649,470;28,82853
 367,30; 9105,330;  191,650;31259,152;28,69133
 367,89; 9075,416;  220,873;30917,492;28,84534
 368,48; 8959,995;  204,427;30607,452;28,79835
 369,07; 8772,085;  191,415;30016,803;28,76968
 369,67; 8666,767;  220,118;29658,538;28,69260
 370,26; 8524,608;  172,569;29287,910;28,68604
 370,85; 8453,055;  192,188;29025,096;28,65083
 371,44; 8381,991;  197,110;28760,135;28,65551
 372,03; 8274,487;  166,654;28417,774;28,69916
 372,63; 8160,681;  162,188;28050,514;28,68044
 373,22; 8076,280;  174,724;27649,618;28,75919
 373,81; 7934,730;  178,188;27247,045;28,65486
 374,40; 7898,840;  186,102;26994,687;28,76966
 374,99; 7796,837;  189,651;26691,749;28,70409
 375,59; 7746,077;  158,256;26274,783;29,05371
 376,18; 7685,838;  198,343;26161,600;28,83881
 376,77; 7697,044;  208,187;25873,834;29,17853
 377,36; 7664,849;  212,958;25865,787;29,04900
 377,95; 7576,113;  209,499;25474,807;29,15703
 378,55; 7538,721;  176,643;25254,559;29,35682
 379,14; 7496,524;  206,958;25162,581;29,21012
 379,73; 7530,097;  187,729;25007,145;29,58316
 380,32; 7584,419;  193,495;25112,805;29,65943
 380,91; 7541,262;  168,272;24888,560;29,82566
 381,50; 7557,430;  195,732;24793,450;29,92838
 382,10; 7528,804;  184,725;24709,574;29,94546
 382,69; 7607,473;  160,343;24621,657;30,44452
 383,28; 7663,741;  208,654;24566,383;30,60666
 383,87; 7586,168;  175,424;24428,279;30,55617
 384,46; 7643,077;  173,661;24306,925;30,95071
 385,05; 7674,336;  212,886;24303,782;30,97207
 385,64; 7702,573;  189,576;24339,572;31,10972
 386,24; 7718,092;  167,661;24220,203;31,39141
 386,83; 7791,456;  207,432;24279,449;31,50556
 387,42; 7868,942;  206,730;24403,679;31,66603
 388,01; 8050,411;  193,284;24638,078;32,14233
 388,60; 8144,789;  192,737;24934,295;32,14047
 389,19; 8298,264;  178,599;25258,789;32,37482
 389,78; 8457,655;  182,443;25516,348;32,66457
 390,37; 8790,158;  255,049;26044,630;33,09518
 390,96; 8841,510;  187,662;26216,686;33,24692
 391,56; 8949,153;  191,601;26377,838;33,44334
 392,15; 9097,293;  174,826;26689,722;33,65077
 392,74; 9213,972;  154,150;26904,368;33,86822
 393,33; 9429,636;  193,679;27212,750;34,18310
 393,92; 9706,116;  190,155;27681,721;34,61411
 394,51; 9824,438;  164,218;27977,079;34,73292
 395,10; 9992,063;  202,094;28227,249;34,93279
 395,69;10188,627;  206,168;28372,249;35,44142
 396,28;10261,591;  196,869;28554,213;35,49247
 396,87;10422,910;  205,421;28611,242;35,96970
 397,46;10547,511;  210,353;28729,041;36,24696
 398,06;10713,318;  225,287;29018,224;36,42570
 398,65;10795,610;  196,160;29080,013;36,69680
 399,24;10988,669;  217,088;29277,343;37,06637
 399,83;11028,949;  176,590;29253,316;37,32318
 400,42;11215,055;  224,626;29454,467;37,60003
 401,01;11399,280;  207,128;29571,044;38,11532
 401,60;11426,138;  217,799;29610,593;38,13295
 402,19;11516,095;  236,844;29605,829;38,40531
 402,78;11706,268;  226,835;29615,856;39,06028
 403,37;11651,478;  214,977;29390,074;39,19953
 403,96;11752,189;  227,976;29203,943;39,77163
 404,55;11737,801;  218,445;29138,663;39,83150
 405,14;11775,372;  211,599;28996,034;40,17370
 405,73;11870,436;  223,612;28785,954;40,77685
 406,32;11940,601;  237,134;28829,577;40,93203
 406,91;11823,743;  223,512;28451,200;41,09522
 407,50;11882,046;  238,163;28207,094;41,63149
 408,09;11872,274;  205,880;27879,689;42,15680
 408,68;11907,468;  230,129;27691,801;42,52231
 409,27;11867,976;  210,260;27477,721;42,75321
 409,86;11970,438;  208,898;27355,978;43,32525
 410,45;12020,880;  257,852;27271,554;43,54467
 411,04;12042,855;  244,189;27202,348;43,76659
 411,63;11954,974;  236,436;26878,885;43,98446
 412,22;11951,372;  252,227;26535,489;44,51177
 412,81;11931,721;  274,284;26290,545;44,80827
 413,40;11818,253;  262,336;25837,152;45,18475
 413,99;11748,012;  314,190;25452,504;45,48365
 414,58;11573,876;  235,339;25010,712;45,76535
 415,17;11538,790;  245,745;24729,214;46,12518
 415,76;11572,143;  231,536;24579,646;46,57695
 416,35;11538,565;  226,679;24283,150;47,02222
 416,94;11681,151;  260,762;24360,672;47,38768
 417,53;11849,053;  232,128;24573,694;47,72464
 418,12;12050,070;  243,123;24618,826;48,43736
 418,71;12345,649;  261,027;25197,185;48,46224
 419,30;12441,359;  230,429;25198,617;48,90595
 419,89;12699,400;  217,348;25463,049;49,44229
 420,48;12914,889;  256,643;25830,983;49,49589
 421,07;13044,263;  248,715;25884,029;49,91375
 421,66;13175,679;  215,550;25955,515;50,35022
 422,25;13225,823;  236,297;25951,341;50,51333
 422,84;13302,070;  261,754;25945,006;50,77362
 423,43;13253,301;  248,071;25663,928;51,16975
 424,02;13165,368;  265,221;25298,897;51,53117
 424,60;12967,006;  241,579;24734,056;51,95647
 425,19;12914,933;  256,131;24393,754;52,44428
 425,78;12930,571;  263,515;24327,975;52,63802
 426,37;12876,185;  258,967;24127,053;52,86230
 426,96;12913,408;  246,197;23974,029;53,38545
 427,55;12890,836;  250,336;23815,088;53,64156
 428,14;12861,217;  239,099;23559,774;54,12415
 428,73;12798,867;  238,727;23287,640;54,49341
 429,32;12837,607;  256,122;23272,549;54,66307
 429,91;12924,493;  277,187;23243,981;55,06779
 430,50;12908,332;  260,180;23069,501;55,45168
 431,08;12803,213;  264,480;22903,070;55,38654
 431,67;12858,246;  298,780;22792,481;55,83548
 432,26;12786,816;  316,158;22547,502;56,09494
 432,85;12644,245;  328,391;22187,710;56,34143
 433,44;12470,297;  329,612;21718,486;56,76168
 434,03;12239,866;  359,675;21306,430;56,71614
 434,62;12016,248;  302,227;20804,187;57,13611
 435,21;11969,505;  323,698;20490,492;57,74744
 435,79;11905,908;  317,373;20361,246;57,81585
 436,38;11836,202;  308,205;20228,135;57,87167
 436,97;11867,303;  310,434;20041,745;58,57121
 437,56;11795,492;  301,183;19805,014;58,93359
 438,15;11767,499;  279,881;19799,419;58,85190
 438,74;11834,267;  320,110;19760,262;59,22874
 439,33;11876,737;  281,189;19699,053;59,71588
 439,91;11956,563;  261,719;19851,305;59,69929
 440,50;12061,335;  314,333;19867,853;60,07615
 441,09;12218,169;  314,707;20012,283;60,43110
 441,68;12281,774;  285,387;20047,796;60,70306
 442,27;12311,945;  276,469;20008,998;60,99307
 442,86;12303,784;  251,675;20081,605;60,77737
 443,44;12437,442;  268,757;20002,114;61,66556
 444,03;12592,649;  343,520;20137,200;61,88404
 444,62;12535,478;  260,290;19968,456;62,28478
 445,21;12505,673;  284,677;19693,269;62,96694
 445,80;12434,199;  311,971;19650,624;62,68393
 446,39;12322,772;  367,974;19356,495;62,95803
 446,97;12156,057;  261,881;19073,511;63,22778
 447,56;12020,610;  266,485;18837,714;63,29212
 448,15;11933,586;  279,497;18571,175;63,71252
 448,74;11792,702;  291,880;18309,447;63,83116
 449,33;11713,577;  276,641;18160,537;63,95103
 449,91;11606,573;  276,473;17911,299;64,24843
 450,50;11444,256;  268,015;17637,654;64,34354
 451,09;11406,808;  285,090;17553,390;64,40540
 451,68;11329,845;  307,700;17358,424;64,64326
 452,26;11366,481;  311,232;17250,566;65,26377
 452,85;11254,101;  272,620;17151,501;65,06048
 453,44;11371,061;  288,679;17136,235;65,78035
 454,03;11334,639;  263,228;17099,659;65,75866
 454,61;11296,415;  262,294;17035,993;65,78228
 455,20;11525,855;  297,518;17301,084;66,03519
 455,79;11541,886;  303,298;17270,018;66,23901
 456,38;11665,419;  299,508;17334,704;66,72017
 456,97;11723,554;  281,973;17474,030;66,55155
 457,55;11746,162;  277,350;17483,395;66,65571
 458,14;11763,204;  317,283;17442,594;66,83628
 458,73;11729,132;  295,656;17325,922;67,13622
 459,31;11785,094;  316,722;17423,811;67,03871
 459,90;11913,056;  355,651;17490,156;67,45106
 460,49;12003,898;  402,039;17571,606;67,57223
 461,08;12070,711;  300,101;17691,511;67,68059
 461,66;12111,305;  301,800;17819,062;67,41639
 462,25;12247,847;  299,173;17869,693;68,00410
 462,84;12283,066;  321,254;17989,499;67,70232
 463,43;12250,591;  251,007;17879,081;68,07087
 464,01;12305,079;  296,233;17915,549;68,15728
 464,60;12315,097;  355,627;17826,061;68,45548
 465,19;12084,782;  282,845;17556,814;68,32209
 465,77;12120,726;  302,224;17580,033;68,40278
 466,36;12091,531;  326,315;17407,748;68,87722
 466,95;11878,553;  295,775;17026,046;69,23246
 467,53;11626,467;  314,525;16753,644;68,81112
 468,12;11382,345;  341,215;16387,586;68,80765
 468,71;11264,941;  307,998;16047,060;69,61624
 469,29;11017,402;  292,522;15741,525;69,42118
 469,88;10841,137;  304,978;15485,809;69,40436
 470,47;10938,573;  365,660;15586,201;69,46477
 471,06;10912,994;  324,429;15519,925;69,68226
 471,64;11031,531;  326,201;15704,611;69,61272
 472,23;10973,764;  295,565;15640,551;69,58755
 472,81;11162,483;  286,575;15786,318;70,16831
 473,40;11220,441;  296,719;15978,350;69,65935
 473,99;11451,245;  417,565;16199,915;69,91151
 474,57;11576,405;  316,181;16243,164;70,69904
 475,16;11706,131;  313,035;16521,341;70,29172
 475,75;11867,166;  331,635;16626,222;70,79364
 476,33;11966,853;  343,704;16768,516;70,76580
 476,92;11952,447;  333,871;16829,755;70,43318
 477,51;12047,609;  319,784;16902,322;70,72394
 478,09;12036,601;  327,553;16982,606;70,30328
 478,68;12042,766;  334,627;16808,872;71,06935
 479,27;12104,108;  351,788;16917,741;70,94262
 479,85;12118,209;  322,320;16913,123;71,09896
 480,44;12173,941;  309,393;17056,628;70,84482
 481,02;13275,632;  327,540;18513,781;71,19719
 481,61;15046,578;  360,389;21025,696;71,06688
 482,20;16184,334;  335,847;22425,425;71,74644
 482,78;16910,269;  368,240;23457,996;71,64229
 483,37;17373,012;  345,836;24077,235;71,74957
 483,95;17702,891;  386,219;24441,950;71,98564
 484,54;17838,531;  378,467;24717,477;71,73695
 485,13;17753,931;  335,441;24580,842;71,84245
 485,71;17549,689;  311,521;24299,731;71,86100
 486,30;17326,451;  374,213;24015,246;71,70684
 486,88;17064,878;  425,210;23631,682;71,70270
 487,47;16444,459;  376,670;22763,964;71,77191
 488,05;15720,900;  367,358;21754,751;71,78781
 488,64;14653,159;  368,042;20199,995;72,03082
 489,23;13058,950;  367,509;18030,057;71,85510
 489,81;11238,335;  370,045;15402,136;72,30059
 490,40;10579,768;  328,890;14590,975;71,87503
 490,98;10302,977;  321,809;14267,450;71,57196
 491,57;10225,330;  341,816;14131,813;71,67162
 492,15;10174,076;  324,423;14086,901;71,56889
 492,74;10138,544;  334,434;13926,221;72,13260
 493,32;10110,274;  346,425;13829,647;72,41480
 493,91; 9963,552;  322,496;13679,484;72,17987
 494,50; 9925,645;  322,943;13664,540;71,97566
 495,08; 9889,942;  308,713;13605,891;72,05461
 495,67; 9909,197;  342,805;13563,727;72,35798
 496,25; 9774,243;  291,874;13466,176;71,97626
 496,84; 9763,434;  285,267;13420,976;72,15573
 497,42; 9710,920;  286,486;13343,746;72,17773
 498,01; 9660,919;  309,265;13274,048;72,13121
 498,59; 9566,275;  276,947;13162,195;72,09273
 499,18; 9574,940;  288,341;13136,494;72,27964
 499,76; 9442,483;  317,720;13043,589;71,70248
 500,35; 9271,675;  306,324;12773,862;71,90956
 500,93; 9220,422;  288,641;12779,560;71,50620
 501,52; 9164,958;  286,178;12588,629;72,17082
 502,10; 9152,217;  303,703;12636,336;71,74878
 502,69; 8957,713;  279,852;12413,289;71,52023
 503,27; 8785,374;  265,866;12229,110;71,21403
 503,86; 8712,048;  300,392;12150,983;70,98089
 504,44; 8617,937;  269,080;12010,806;71,10417
 505,03; 8380,185;  255,156;11632,165;71,41621
 505,61; 8285,400;  271,466;11502,732;71,35378
 506,19; 8184,029;  282,695;11342,775;71,44011
 506,78; 7960,110;  263,069;11183,407;70,48354
 507,36; 7801,062;  268,465;10923,259;70,69679
 507,95; 7709,887;  270,064;10747,971;71,00485
 508,53; 7548,775;  262,839;10596,711;70,50539
 509,12; 7459,932;  274,220;10401,645;70,95300
 509,70; 7298,642;  290,602;10229,006;70,51474
 510,29; 7210,284;  298,520;10023,243;71,07415
 510,87; 7041,587;  255,146; 9835,838;70,83456
 511,46; 6883,210;  255,144; 9684,786;70,28969
 512,04; 6728,589;  269,292; 9522,309;69,80747
 512,62; 6661,664;  276,836; 9324,609;70,56795
 513,21; 6459,705;  246,981; 9118,737;70,02813
 513,79; 6358,626;  256,657; 8968,660;70,04094
 514,38; 6262,845;  243,124; 8798,316;70,36337
 514,96; 6157,808;  295,586; 8726,279;69,53428
 515,54; 6022,111;  246,813; 8437,575;70,50990
 516,13; 5972,508;  272,966; 8373,229;70,36243
 516,71; 5816,532;  259,805; 8248,457;69,55775
 517,30; 5703,339;  252,953; 8153,958;68,98345
 517,88; 5631,876;  274,415; 8019,184;69,17522
 518,46; 5513,143;  240,028; 7865,909;69,14761
 519,05; 5471,228;  262,869; 7837,551;68,76010
 519,63; 5390,382;  263,795; 7737,088;68,59876
 520,22; 5374,374;  275,631; 7659,763;69,05000
 520,80; 5287,548;  245,706; 7557,517;68,95477
 521,38; 5258,846;  300,253; 7530,946;68,57702
 521,97; 5195,556;  256,394; 7503,851;68,15029
 522,55; 5148,428;  269,779; 7471,465;67,74315
 523,13; 5130,013;  255,390; 7455,608;67,70105
 523,72; 5122,372;  243,720; 7425,904;67,92713
 524,30; 5200,285;  287,924; 7581,887;67,34832
 524,89; 5155,038;  250,008; 7519,759;67,47178
 525,47; 5236,993;  257,230; 7685,089;67,04171
 526,05; 5252,946;  232,306; 7762,102;66,67698
 526,64; 5346,102;  276,611; 7877,186;66,69879
 527,22; 5418,907;  261,846; 8028,138;66,40314
 527,80; 5472,048;  307,842; 8103,564;66,24411
 528,39; 5499,284;  257,838; 8200,041;65,99486
 528,97; 5603,653;  245,532; 8394,916;65,74878
 529,55; 5763,740;  272,083; 8561,096;66,25225
 530,14; 5863,969;  280,143; 8783,866;65,66331
 530,72; 5901,722;  253,917; 8925,662;65,12882
 531,30; 5997,220;  234,373; 9110,697;64,92380
 531,89; 6084,262;  255,604; 9167,824;65,40075
 532,47; 6165,510;  282,601; 9262,492;65,51203
 533,05; 6163,749;  286,073; 9352,202;64,83115
 533,63; 6155,131;  284,215; 9400,892;64,39754
 534,22; 6180,490;  253,215; 9447,509;64,46689
 534,80; 6208,985;  278,746; 9529,227;64,10735
 535,38; 6364,600;  374,064; 9710,376;64,16384
 535,97; 6240,614;  257,139; 9608,265;63,98668
 536,55; 6314,330;  300,053; 9692,187;64,03526
 537,13; 6249,320;  299,373; 9615,767;63,86535
 537,71; 6331,531;  327,067; 9695,551;64,09216
 538,30; 6289,371;  324,443; 9796,845;62,97165
 538,88; 6390,853;  360,355; 9909,605;63,15154
 539,46; 6465,779;  409,054;10099,918;62,49933
 540,05; 6527,563;  397,358;10193,732;62,57626
 540,63; 6659,222;  432,434;10448,326;62,16908
 541,21; 6780,169;  442,738;10683,091;61,88684
 541,79; 6809,519;  456,430;10800,526;61,41754
 542,38; 6908,004;  488,820;10982,670;61,17091
 542,96; 7000,736;  479,655;11143,102;61,15359
 543,54; 7101,473;  505,739;11346,235;60,84348
 544,12; 7194,814;  471,352;11547,335;60,70307
 544,70; 7151,943;  454,654;11663,109;59,75212
 545,29; 7314,090;  463,589;11835,006;60,24316
 545,87; 7322,288;  469,661;11863,603;60,14273
 546,45; 7253,848;  436,744;11875,588;59,59609
 547,03; 7303,571;  419,048;11917,757;59,87214
 547,62; 7356,411;  386,968;12101,509;59,49395
 548,20; 7469,194;  418,579;12279,323;59,44497
 548,78; 7547,193;  381,564;12405,865;59,59289
 549,36; 7662,864;  363,720;12594,645;59,67777
 549,94; 7678,759;  321,581;12759,556;59,15093
 550,53; 7790,206;  347,876;13046,439;58,60765
 551,11; 7816,989;  310,639;13202,562;58,22522
 551,69; 8021,418;  332,489;13521,845;58,29647
 552,27; 8114,425;  281,033;13820,327;57,85672
 552,85; 8314,690;  294,562;14147,047;57,89667
 553,44; 8519,639;  301,105;14551,817;57,67104
 554,02; 8680,451;  319,180;14945,715;57,16508
 554,60; 8751,069;  251,792;15256,803;56,64293
 555,18; 8977,983;  297,412;15642,772;56,56805
 555,76; 9150,622;  282,103;16070,228;56,17209
 556,34; 9339,994;  288,325;16493,734;55,85585
 556,93; 9588,925;  279,258;16897,367;56,02122
 557,51; 9705,021;  262,786;17261,814;55,54573
 558,09; 9912,411;  297,643;17660,827;55,37446
 558,67;10124,849;  283,935;18064,453;55,34661
 559,25;10252,797;  293,553;18379,680;55,06565
 559,83;10407,536;  289,239;18741,441;54,83518
 560,41;10512,834;  252,173;19102,714;54,43165
 561,00;10740,575;  280,089;19507,787;54,40322
 561,58;10849,661;  272,173;19840,119;54,05518
 562,16;11008,733;  251,638;20092,333;54,21733
 562,74;11155,118;  233,410;20508,024;53,86888
 563,32;11394,390;  238,239;21016,156;53,69235
 563,90;11583,327;  271,012;21474,043;53,35235
 564,48;11742,751;  260,713;21907,540;53,04259
 565,06;12088,863;  266,782;22562,956;53,02291
 565,65;12452,252;  271,386;23334,054;52,81638
 566,23;12803,320;  305,473;24195,019;52,31513
 566,81;13216,266;  257,784;25032,319;52,30565
 567,39;13694,722;  266,084;26019,305;52,14353
 567,97;13994,544;  288,860;26788,384;51,72049
 568,55;14456,714;  315,624;27659,588;51,71558
 569,13;14786,192;  282,012;28440,792;51,50855
 569,71;15191,587;  265,485;29502,434;51,05219
 570,29;15823,992;  316,643;30731,185;50,98663
 570,87;16178,429;  296,025;31492,880;50,91027
 571,45;16384,557;  278,782;32273,499;50,33886
 572,03;16600,547;  244,390;32821,783;50,20708
 572,61;16901,550;  234,779;33581,636;49,98004
 573,20;17247,313;  267,093;34325,998;49,85545
 573,78;17572,485;  249,086;35037,977;49,79578
 574,36;17753,076;  271,011;35670,059;49,38569
 574,94;17926,681;  339,235;36070,492;49,22146
 575,52;17902,807;  250,610;36282,643;48,99029
 576,10;18149,256;  308,152;36963,834;48,67214
 576,68;18334,496;  273,313;37532,704;48,47417
 577,26;18660,889;  290,914;38402,890;48,20001
 577,84;18876,532;  293,087;38976,887;48,03935
 578,42;18952,912;  352,924;39291,417;47,76761
 579,00;18896,348;  270,393;39393,952;47,60803
 579,58;18944,998;  335,696;39679,751;47,29889
 580,16;18886,224;  278,154;39659,662;47,25078
 580,74;18869,928;  273,768;39791,234;47,05808
 581,32;18715,609;  286,387;39900,661;46,52167
 581,90;18684,676;  303,385;39909,788;46,40990
 582,48;18578,318;  283,308;39897,022;46,18353
 583,06;18492,811;  285,080;40076,268;45,75820
 583,64;18466,108;  273,465;40149,927;45,62251
 584,22;18245,411;  270,608;39925,227;45,32840
 584,80;17933,015;  279,693;39600,651;44,89545
 585,38;17573,531;  298,710;39153,421;44,46004
 585,96;17524,122;  258,238;39216,506;44,31892
 586,54;17392,474;  285,841;39070,183;44,10706
 587,12;17348,967;  259,382;39233,583;43,84845
 587,70;17293,210;  297,007;39368,693;43,50005
 588,28;17134,206;  274,844;39446,530;43,03966
 588,86;17118,537;  274,150;39449,217;42,99772
 589,44;16966,493;  261,217;39444,321;42,63388
 590,02;16893,878;  268,681;39733,089;42,12706
 590,59;16910,849;  241,610;39836,924;42,09902
 591,17;16904,065;  256,746;40021,272;41,86475
 591,75;16797,831;  250,752;40263,182;41,35485
 592,33;16860,762;  269,908;40397,974;41,34476
 592,91;16780,177;  226,364;40687,067;40,91331
 593,49;16899,115;  244,975;41020,424;40,84355
 594,07;16910,260;  268,436;41229,934;40,62797
 594,65;16814,383;  271,609;41226,449;40,39272
 595,23;16879,757;  263,451;41679,496;40,12046
 595,81;16829,398;  246,756;41820,572;39,88722
 596,39;16751,143;  243,832;41948,117;39,58181
 596,97;16684,142;  248,287;42077,886;39,29240
 597,55;16574,254;  242,837;42066,449;39,04832
 598,12;16484,141;  230,357;41993,116;38,91932
 598,70;16459,670;  237,978;42164,393;38,69086
 599,28;16418,721;  260,054;42337,087;38,40258
 599,86;16355,112;  233,670;42309,566;38,31515
 600,44;16262,360;  210,052;42490,235;37,96651
 601,02;16259,177;  268,734;42543,075;37,82541
 601,60;16096,456;  244,059;42515,595;37,50135
 602,18;16021,164;  215,511;42408,879;37,46004
 602,75;15876,463;  210,988;42590,385;36,96484
 603,33;15819,064;  237,670;42588,806;36,79097
 603,91;15686,069;  209,276;42485,132;36,60906
 604,49;15627,834;  245,669;42728,426;36,20802
 605,07;15534,685;  242,060;42636,052;36,07262
 605,65;15486,492;  238,436;42830,708;35,80005
 606,23;15503,777;  274,765;42935,861;35,69766
 606,80;15391,890;  285,219;42912,743;35,43877
 607,38;15261,106;  286,662;42991,091;35,06532
 607,96;15225,035;  300,526;42986,330;34,96363
 608,54;15178,458;  363,128;43156,066;34,62097
 609,12;15097,404;  340,295;43191,052;34,43838
 609,70;15030,743;  340,594;43202,306;34,27336
 610,27;14954,339;  345,835;43276,705;34,02797
 610,85;14894,878;  361,825;43401,480;33,76666
 611,43;14792,960;  353,747;43288,725;33,63042
 612,01;14558,724;  316,830;43065,015;33,31579
 612,59;14474,957;  325,517;43091,254;33,08593
 613,16;14366,754;  306,762;42987,023;32,94261
 613,74;14208,808;  306,593;42923,730;32,62118
 614,32;14117,288;  292,743;42904,712;32,44287
 614,90;13986,255;  283,212;42768,301;32,25377
 615,48;13809,887;  261,530;42346,424;32,19292
 616,05;13700,604;  245,840;42366,190;31,94362
 616,63;13545,168;  268,150;42115,264;31,72744
 617,21;13410,322;  265,835;42047,576;31,45988
 617,79;13306,058;  244,602;41977,402;31,29782
 618,36;13218,958;  268,445;41777,871;31,19897
 618,94;12988,565;  213,144;41495,536;30,94642
 619,52;12838,992;  245,995;41185,045;30,76035
 620,10;12763,490;  215,218;41131,081;30,66848
 620,67;12625,989;  230,919;41037,035;30,37552
 621,25;12504,285;  251,675;40899,928;30,14302
 621,83;12367,121;  240,913;40822,972;29,88071
 622,41;12398,025;  289,837;40782,992;29,90181
 622,98;12178,005;  246,766;40504,620;29,63705
 623,56;12132,915;  254,229;40502,351;29,51364
 624,14;11975,935;  241,365;40371,341;29,24141
 624,72;11831,744;  235,990;40270,150;28,96465
 625,29;11827,736;  230,536;40358,353;28,90065
 625,87;11777,478;  265,371;40282,813;28,76772
 626,45;11612,551;  222,461;40096,950;28,56485
 627,02;11478,087;  246,370;39970,025;28,27463
 627,60;11385,659;  222,207;39961,053;28,09204
 628,18;11323,096;  205,449;39980,206;27,95151
 628,76;11347,170;  211,458;39942,192;28,02795
 629,33;11194,421;  250,839;40010,486;27,52434
 629,91;11141,029;  224,834;39990,235;27,45149
 630,49;11149,441;  253,148;40173,239;27,29526
 631,06;11066,967;  242,688;40285,739;27,03161
 631,64;11025,716;  238,460;40251,522;26,95934
 632,22;10892,318;  211,772;40109,559;26,76977
 632,79;10966,909;  253,310;40497,330;26,62159
 633,37;10848,366;  217,061;40489,172;26,39868
 633,95;10816,815;  233,307;40600,433;26,21813
 634,52;10821,120;  223,606;40657,660;26,20938
 635,10;10736,256;  236,219;40636,225;25,99019
 635,68;10724,797;  240,079;40879,534;25,79936
 636,25;10677,103;  214,623;40865,833;25,73719
 636,83;10597,554;  202,227;41155,346;25,38348
 637,41;10582,741;  228,542;41104,902;25,33053
 637,98;10535,072;  258,235;41412,510;24,97149
 638,56;10566,020;  233,010;41362,044;25,12340
 639,13;10457,695;  218,228;41408,000;24,85925
 639,71;10498,130;  290,687;41663,075;24,67212
 640,29;10296,065;  189,687;41416,880;24,51386
 640,86;10254,935;  215,072;41597,874;24,26096
 641,44;10275,651;  223,302;41674,714;24,25092
 642,02;10190,136;  232,994;41648,400;24,04212
 642,59;10195,621;  214,532;41768,856;24,01938
 643,17;10093,029;  212,532;41708,157;23,81094
 643,74;10012,361;  205,762;41839,074;23,55469
 644,32;10018,307;  240,916;41693,607;23,58687
 644,89; 9934,946;  233,762;41793,985;23,34247
 645,47; 9911,201;  241,454;41750,364;23,29559
 646,05; 9848,993;  236,530;41647,204;23,21253
 646,62; 9767,786;  230,838;41632,352;23,03526
 647,20; 9721,964;  233,145;41912,576;22,76619
 647,77; 9626,756;  209,991;41661,262;22,71768
 648,35; 9505,011;  205,606;41558,564;22,48788
 648,92; 9515,265;  210,144;41568,558;22,49874
 649,50; 9443,058;  197,452;41435,244;22,42023
 650,08; 9352,928;  199,913;41342,700;22,24695
 650,65; 9336,643;  201,836;41655,540;22,03617
 651,23; 9457,744;  186,066;42456,149;21,93437
 651,80; 9675,460;  190,066;43651,758;21,82472
 652,38; 9774,868;  205,912;44067,290;21,81636
 652,95; 9752,507;  185,219;44492,438;21,59307
 653,53; 9836,377;  218,450;44825,355;21,56152
 654,10; 9824,785;  252,526;44913,503;21,43316
 654,68; 9718,270;  203,064;44812,497;21,33003
 655,25; 9666,832;  183,833;45006,568;21,15667
 655,83; 9658,240;  185,910;45010,100;21,13218
 656,40; 9646,571;  230,217;45074,863;20,99772
 656,98; 9549,595;  205,371;44870,934;20,92042
 657,55; 9506,157;  208,371;44806,620;20,84787
 658,13; 9338,873;  220,063;44368,691;20,65480
 658,70; 9187,589;  224,293;44015,300;20,46835
 659,28; 8968,458;  203,293;42999,756;20,48105
 659,85; 8684,790;  235,908;42135,903;20,16440
 660,43; 8671,429;  235,985;42116,820;20,14154
 661,00; 8572,068;  201,754;42242,045;19,91022
 661,58; 8651,014;  200,138;42595,193;19,93364
 662,15; 8654,115;  187,368;42820,879;19,85937
 662,73; 8720,446;  268,522;43137,796;19,71558
 663,30; 8644,623;  210,522;43324,944;19,56214
 663,88; 8665,878;  211,137;43483,476;19,53844
 664,45; 8643,055;  205,136;43745,778;19,37941
 665,03; 8691,309;  203,982;44151,541;19,31240
 665,60; 8774,718;  312,597;44532,842;19,13630
 666,17; 8694,203;  199,366;44733,375;19,07494
 666,75; 8674,380;  190,981;45084,753;18,89660
 667,32; 8744,788;  232,827;45466,286;18,81784
 667,90; 8739,889;  212,827;45814,818;18,69888
 668,47; 8748,220;  216,365;46034,812;18,62100
 669,05; 8776,244;  197,057;46393,652;18,57104
 669,62; 8764,036;  181,134;46427,800;18,55897
 670,19; 8717,906;  174,826;46592,409;18,40484
 670,77; 8734,083;  207,441;46742,326;18,32312
 671,34; 8688,799;  190,056;46687,474;18,27788
 671,92; 8709,208;  180,209;47078,391;18,18620
 672,49; 8687,846;  225,594;47184,615;18,02050
 673,06; 8675,870;  176,824;47107,994;18,10960
 673,64; 8637,124;  180,978;47107,526;18,01996
 674,21; 8555,071;  177,516;47029,135;17,88104
 674,79; 8661,018;  215,439;47384,514;17,90491
 675,36; 8672,810;  218,054;47427,277;17,90912
 675,93; 8524,142;  192,746;47219,425;17,71632
 676,51; 8566,704;  217,669;47490,726;17,66130
 677,08; 8535,189;  202,668;47441,028;17,63931
 677,65; 8569,212;  203,976;47746,253;17,59536
 678,23; 8548,082;  203,360;47852,708;17,51277
 678,80; 8545,413;  203,975;47992,471;17,45491
 679,38; 8506,975;  201,206;48148,696;17,32264
 679,95; 8578,384;  214,898;48439,228;17,34288
 680,52; 8599,022;  200,436;48748,607;17,29949
 681,10; 8620,815;  210,512;49157,370;17,18252
 681,67; 8624,377;  220,435;49519,441;17,04688
 682,24; 8605,785;  177,743;49480,742;17,09438
 682,82; 8704,040;  194,512;50159,044;17,03114
 683,39; 8787,679;  251,204;50406,269;17,02017
 683,96; 8825,318;  205,280;50721,878;17,06377
 684,54; 8808,726;  182,049;51152,949;16,92471
 685,11; 8865,596;  251,587;51550,635;16,79175
 685,68; 8920,235;  198,664;51875,936;16,87699
 686,25; 8894,566;  181,433;52115,315;16,77736
 686,83; 8938,282;  202,433;52100,847;16,83259
 687,40; 8960,459;  183,586;52541,457;16,76324
 687,97; 9032,329;  239,432;52955,143;16,67984
 688,55; 8989,660;  189,739;53129,521;16,62251
 689,12; 8992,376;  162,585;53432,054;16,57571
 689,69; 9018,246;  185,277;53480,201;16,57375
 690,26; 8969,038;  199,585;53416,503;16,47870
 690,84; 8988,370;  203,584;53664,574;16,43214
 691,41; 9048,855;  225,507;53752,798;16,48383
 691,98; 9040,648;  206,199;54093,331;16,39436
 692,56; 9063,748;  198,353;54188,786;16,42031
 693,13; 9074,387;  248,506;54337,780;16,31725
 693,70; 9090,564;  220,583;54451,851;16,35584
 694,27; 9015,896;  194,506;54675,076;16,19181
 694,84; 9031,073;  186,275;54652,223;16,23913
 695,42; 9067,020;  249,274;54733,140;16,18414
 695,99; 9053,659;  210,966;54942,288;16,15655
 696,56; 9026,759;  219,581;54864,744;16,11703
 697,13; 9107,552;  224,966;55168,276;16,16682
 697,71; 9023,191;  202,581;55269,501;16,01798
 698,28; 9059,830;  196,965;55665,648;15,97814
 698,85; 9058,392;  164,349;55652,873;16,02862
 699,42; 9093,492;  175,964;55837,175;16,02108
 699,99; 9110,208;  223,733;55935,707;15,95074
 700,57; 9109,078;  216,810;56009,085;15,93817
 701,14; 9143,255;  195,041;56150,541;15,99166
 701,71; 9140,048;  219,656;56429,842;15,86971
 702,28; 9109,072;  202,194;56409,529;15,84647
 702,85; 9183,557;  203,578;56510,523;15,94826
 703,43; 9211,196;  227,809;56596,978;15,93670
 704,00; 9254,527;  227,501;56979,357;15,90613
 704,57; 9172,397;  196,654;56899,427;15,82946
 705,14; 9342,113;  229,423;57299,114;15,96765
 705,71; 9289,905;  231,038;57249,569;15,88758
 706,28; 9195,314;  204,576;57169,871;15,78283
 706,86; 9304,722;  237,114;57404,249;15,86157
 707,43; 9299,361;  272,114;57388,089;15,80512
 708,00; 9323,384;  242,268;57321,698;15,90961
 708,57; 9230,946;  202,037;57222,846;15,83441
 709,14; 9308,201;  223,652;57421,071;15,88280
 709,71; 9309,609;  201,575;57612,603;15,86461
 710,28; 9339,325;  217,651;57759,136;15,85234
 710,86; 9364,348;  209,574;57813,745;15,89255
 711,43; 9416,987;  238,343;57849,277;15,93212
 712,00; 9342,549;  212,496;57968,963;15,80784
 712,57; 9424,419;  245,112;58123,650;15,85960
 713,14; 9414,827;  207,419;58235,182;15,86725
 713,71; 9414,620;  233,111;58138,637;15,85601
 714,28; 9365,259;  221,188;58170,324;15,77948
 714,85; 9392,436;  209,726;57925,241;15,91030
 715,42; 9383,614;  207,649;58101,234;15,84971
 716,00; 9516,406;  311,879;58248,382;15,88727
 716,57; 9408,199;  220,725;58306,761;15,81701
 717,14; 9353,684;  222,340;58310,908;15,71969
 717,71; 9397,093;  204,109;58327,210;15,81640
 718,28; 9524,270;  251,724;58485,589;15,92294
 718,85; 9409,601;  199,647;58430,429;15,81630
 719,42; 9447,548;  238,646;58705,422;15,75066
 719,99; 9475,264;  204,185;58397,109;15,93163
 720,56; 9548,133;  243,723;58726,256;15,90973
 721,13; 9502,080;  204,184;58891,173;15,84320
 721,70; 9540,027;  199,414;58717,244;15,96199
 722,27; 9559,358;  237,030;58728,084;15,93804
 722,84; 9709,305;  287,337;58954,847;16,05994
 723,41; 9558,097;  191,644;58861,226;15,96475
 723,98; 9658,967;  214,490;59115,527;16,03448
 724,55; 9734,452;  247,336;59227,291;16,08532
 725,12; 9651,860;  166,336;59275,669;16,04742
 725,69; 9737,576;  205,720;59482,432;16,08027
 726,27; 9760,677;  217,104;59381,580;16,13058
 726,84; 9865,085;  219,181;59790,728;16,19213
 727,41; 9953,339;  248,950;59758,260;16,30735
 727,98; 9954,363;  237,642;60177,562;16,21077
 728,55;10002,771;  269,334;59999,633;16,29564
 729,12;10047,795;  211,488;60105,857;16,42276
 729,69;10110,818;  233,641;60246,159;16,45853
 730,26;10123,380;  231,333;60551,153;16,39933
 730,82;10136,865;  226,717;60242,839;16,51248
 731,39;10168,043;  221,179;60448,448;16,51555
 731,96;10220,066;  202,563;60680,673;16,56385
 732,53;10301,474;  225,255;60965,205;16,58911
 733,10;10390,036;  238,101;61138,430;16,66975
 733,67;10434,137;  233,716;61312,962;16,70031
 734,24;10327,699;  208,946;60974,879;16,65202
 734,81;10387,646;  250,715;61014,565;16,68250
 735,38;10393,900;  223,177;60774,713;16,79680
 735,95;10393,154;  216,253;60544,707;16,86916
 736,52;10413,870;  228,714;60737,239;16,83260
 737,09;10450,586;  239,099;60437,156;16,96315
 737,66;10491,148;  282,868;60610,843;16,92130
 738,23;10505,787;  226,637;60659,913;17,00909
 738,80;10723,349;  312,713;61133,138;17,11701
 739,37;10683,680;  249,636;61151,440;17,13257
 739,94;10648,935;  224,174;61236,049;17,08644
 740,51;10846,958;  378,405;61342,350;17,17171
 741,07;10755,366;  233,404;61234,037;17,24894
 741,64;10803,005;  253,635;61475,954;17,23125
 742,21;10855,413;  243,096;61487,255;17,32788
 742,78;10787,052;  201,865;61203,557;17,35228
 743,35;10910,384;  228,788;61644,551;17,39227
 743,92;11037,715;  267,711;61799,852;17,50305
 744,49;10996,508;  273,095;61586,154;17,48961
 745,06;10979,762;  233,018;61602,532;17,51154
 745,63;11019,555;  211,710;61548,911;17,62038
 746,19;11093,732;  224,556;61547,828;17,72439
 746,76;11046,756;  241,401;61671,976;17,58954
 747,33;11108,856;  224,324;61610,893;17,73113
 747,90;11207,264;  253,939;61811,579;17,79361
 748,47;11224,288;  237,324;61720,880;17,86976
 749,04;11280,850;  236,477;61735,720;17,95855
 749,61;11366,181;  272,862;61687,022;18,06313
 750,17;11372,666;  274,169;61712,247;18,06453
 750,74;11398,844;  242,246;61661,702;18,16460
 751,31;11439,175;  219,014;61678,234;18,25627
 751,88;11449,199;  204,783;61478,690;18,35107
 752,45;11530,684;  225,860;61681,915;18,39497
 753,02;11610,784;  259,091;61501,755;18,53560
 753,58;11600,808;  226,244;61449,902;18,57871
 754,15;11687,139;  227,013;61555,666;18,68641
 754,72;11688,393;  220,090;61234,506;18,79606
 755,29;11681,109;  200,628;61164,653;18,83157
 755,86;11793,979;  235,320;61458,032;18,87969
 756,42;11801,464;  259,089;61205,564;18,93854
 756,99;11776,718;  195,550;61184,327;18,98902
 757,56;11849,511;  210,550;61123,552;19,10752
 758,13;11845,458;  183,396;61024,930;19,16793
 758,70;11967,866;  209,472;61085,078;19,31544
 759,26;12044,351;  206,241;61143,457;19,42673
 759,83;12068,759;  216,010;61259,835;19,41679
 760,40;12109,552;  193,856;60955,598;19,61052
 760,97;12095,806;  196,240;61145,669;19,52367
 761,53;12149,599;  191,855;60667,125;19,77295
 762,10;12123,084;  170,163;60646,965;19,76447
 762,67;12196,492;  212,701;60721,805;19,80494
 763,24;12148,362;  176,854;60169,491;19,95496
 763,80;12229,309;  215,239;60354,408;19,97711
 764,37;12286,794;  202,315;60257,786;20,12219
 764,94;12145,279;  190,084;59855,396;20,03709
 765,50;12224,379;  200,546;59891,774;20,14338
 766,07;12365,249;  221,468;59820,076;20,37595
 766,64;12328,965;  200,853;59542,147;20,43790
 767,21;12312,065;  207,160;59496,371;20,41671
 767,77;12420,858;  225,160;59327,596;20,63485
 768,34;12363,190;  227,390;59309,821;20,54045
 768,91;12411,828;  238,082;59146,353;20,66560
 769,47;12456,314;  230,620;59197,885;20,73302
 770,04;12492,491;  234,159;59072,802;20,83381
 770,61;12531,515;  210,158;58792,181;21,03266
 771,18;12513,384;  218,696;58710,329;21,01957
 771,74;12590,408;  226,312;58958,399;21,05169
 772,31;12636,970;  232,927;58739,701;21,20104
 772,88;12579,916;  192,542;58311,310;21,31390
 773,44;12590,248;  208,618;58177,304;21,35917
 774,01;12721,733;  237,387;58317,606;21,49500
 774,58;12681,603;  210,310;57905,061;21,61599
 775,14;12751,318;  201,079;58134,440;21,66323
 775,71;12770,265;  196,848;57962,664;21,76619
 776,27;12882,750;  281,694;57820,658;21,90004
 776,84;13000,466;  325,770;57942,729;21,99820
 777,41;12957,182;  228,309;57712,800;22,14314
 777,97;12925,898;  219,924;57490,563;22,18584
 778,54;12991,229;  228,077;57455,018;22,30270
 779,11;13123,330;  258,308;57537,012;22,46039
 779,67;13121,738;  220,769;57381,006;22,56983
 780,24;13142,684;  234,307;57179,616;22,66803
 780,80;13200,631;  252,538;57198,686;22,73743
 781,37;13258,578;  246,768;57157,911;22,86338
 781,94;13293,755;  233,922;56900,982;23,04660
 782,50;13319,086;  228,767;56857,360;23,11609
 783,07;13385,879;  256,690;56928,047;23,16724
 783,63;13379,518;  231,151;56640,963;23,30865
 784,20;13398,772;  261,997;56608,727;23,31417
 784,77;13438,719;  238,151;56367,105;23,51829
 785,33;13407,127;  207,228;56149,484;23,59558
 785,90;13443,458;  231,535;56080,016;23,65673
 786,46;13521,713;  257,381;56036,087;23,78028
 787,03;13535,352;  221,457;55744,850;23,97889
 787,59;13592,221;  224,149;55683,152;24,10442
 788,16;13614,399;  245,457;55596,915;24,15283
 788,73;13651,422;  250,303;55503,139;24,25418
 789,29;13574,600;  225,764;55116,133;24,31909
 789,86;13605,393;  276,379;54994,127;24,35958
 790,42;13649,878;  246,686;54897,890;24,52497
 790,99;13590,517;  245,840;54468,269;24,61099
 791,55;13593,540;  231,378;54523,263;24,61171
 792,12;13718,718;  265,762;54447,795;24,82918
 792,68;13606,280;  244,993;54199,635;24,76392
 793,25;13647,611;  260,531;53951,014;24,93380
 793,81;13695,096;  337,223;53469,931;25,14058
 794,38;13512,812;  214,069;53287,771;25,05712
 794,94;13612,605;  226,684;53089,995;25,32176
 795,51;13592,167;  252,068;52963,912;25,30759
 796,07;13530,575;  244,453;52556,214;25,39796
 796,64;13678,137;  270,914;52788,977;25,52878
 797,20;13581,853;  242,375;52175,894;25,68568
 797,77;13527,799;  219,452;51855,349;25,77344
 798,33;13614,054;  250,451;51727,651;25,96024
 798,90;13649,231;  264,143;51666,260;26,03995
 799,46;13520,562;  222,220;51127,408;26,12375
 800,03;13535,663;  239,220;51086,556;26,14973
 800,59;13577,994;  256,527;50791,934;26,36066
 801,15;13637,325;  262,373;50645,082;26,54671
 801,72;13484,964;  239,296;50239,922;26,49101
 802,28;13472,603;  260,757;49976,916;26,57455
 802,85;13432,165;  249,449;49804,602;26,60211
 803,41;13439,881;  226,987;49520,442;26,80456
 803,98;13421,135;  232,987;49081,128;26,99826
 804,54;13341,621;  247,064;48817,584;26,95989
 805,11;13343,106;  265,909;48568,578;27,07344
 805,67;13407,975;  265,294;48496,802;27,24916
 806,23;13352,537;  254,678;48113,642;27,36762
 806,80;13429,099;  270,909;47901,790;27,62534
 807,36;13358,123;  261,062;47824,015;27,53627
 807,93;13425,377;  285,446;47622,701;27,75812
 808,49;13303,709;  229,138;47175,464;27,85004
 809,05;13281,732;  230,830;47043,073;27,87925
 809,62;13379,833;  264,907;46914,375;28,11377
 810,18;13382,241;  251,907;46860,907;28,17124
 810,74;13338,418;  220,445;46486,132;28,35357
 811,31;13316,749;  222,522;46325,049;28,40241
 811,87;13403,465;  258,598;46123,812;28,65978
 812,44;13408,104;  266,290;46084,806;28,68232
 813,00;13353,359;  203,598;45838,492;28,81514
 813,56;13506,844;  257,213;45856,178;29,05687
 814,13;13432,406;  245,905;45853,095;28,91321
 814,69;13471,968;  241,597;45567,474;29,18944
 815,25;13341,684;  216,135;45001,699;29,30754
 815,82;13388,784;  254,904;44987,308;29,36100
 816,38;13382,500;  289,904;44849,609;29,38214
 816,94;13270,754;  234,980;44529,142;29,43001
 817,51;13298,009;  219,672;44262,443;29,69463
 818,07;13318,648;  232,287;43942,591;29,93885
 818,63;13333,133;  239,595;43801,893;30,05704
 819,20;13276,926;  249,441;43702,271;29,98075
 819,76;13225,641;  223,440;43231,188;30,23223
 820,32;13281,973;  275,209;43110,413;30,36466
 820,89;13271,842;  252,824;42955,022;30,48793
 821,45;13155,404;  234,516;42550,862;30,53404
 822,01;13154,505;  255,285;42356,702;30,63845
 822,57;13151,759;  257,208;42212,927;30,73372
 823,14;13112,167;  214,054;41866,998;30,96567
 823,70;13065,883;  240,361;41616,761;30,99719
 824,26;13065,215;  213,438;41400,678;31,20330
 824,82;13077,007;  265,976;41279,672;31,23598
 825,39;13039,108;  232,437;40941,666;31,45889
 825,95;13028,285;  242,129;41110,583;31,28613
 826,51;13028,078;  250,667;40510,961;31,73700
 827,08;13050,948;  286,283;40593,032;31,66880
 827,64;13052,664;  261,359;40360,026;31,89958
 828,20;13001,072;  221,743;40133,635;32,01885
 828,76;13044,095;  269,820;40193,398;31,99682
 829,32;13063,042;  276,358;39973,469;32,21062
 829,89;13018,681;  224,743;39838,232;32,29692
 830,45;13087,089;  247,742;39738,226;32,51251
 831,01;13062,036;  241,204;39576,143;32,59401
 831,57;13104,367;  237,126;39425,522;32,83431
 832,14;13073,160;  230,203;39358,285;32,82286
 832,70;13021,414;  213,433;39137,432;32,90510
 833,26;13095,899;  198,125;39029,811;33,21456
 833,82;13081,000;  243,510;38898,420;33,21050
 834,38;13152,792;  228,048;38980,568;33,35201
 834,95;13053,508;  215,278;38781,562;33,28874
 835,51;13145,840;  191,663;38626,402;33,70434
 836,07;13221,479;  238,124;38760,319;33,70357
 836,63;13292,117;  248,354;38652,005;33,96490
 837,19;13256,680;  252,970;38504,614;33,99517
 837,75;13181,165;  207,277;38093,608;34,24424
 838,32;13261,111;  253,123;38318,448;34,17280
 838,88;13366,135;  251,122;38316,135;34,45424
 839,44;13344,697;  252,122;38216,667;34,48632
 840,00;13436,567;  255,045;38089,507;34,83999
 840,56;13411,282;  223,660;37756,116;35,13658
 841,12;13383,229;  225,967;37779,802;35,03573
 841,68;13351,330;  208,967;37553,950;35,19177
 842,25;13405,584;  228,198;37652,636;35,21064
 842,81;13384,607;  205,120;37343,015;35,48798
 843,37;13400,093;  199,428;37319,624;35,56195
 843,93;13443,962;  227,274;37173,772;35,77251
 844,49;13512,447;  250,889;37314,843;35,78020
 845,05;13420,779;  191,427;37014,375;35,92692
 845,61;13564,879;  244,196;37150,600;36,09315
 846,17;13578,826;  212,965;36982,901;36,34997
 846,73;13604,311;  242,580;36912,203;36,43815
 847,29;13544,950;  225,733;36677,735;36,53905
 847,86;13552,589;  223,810;36606,268;36,63518
 848,42;13516,074;  218,656;36341,108;36,81206
 848,98;13618,559;  240,425;36353,025;37,04561
 849,54;13664,275;  230,040;36393,711;37,14843
 850,10;13684,145;  244,193;36184,012;37,39571
 850,66;13641,860;  222,732;35997,929;37,50959
 851,22;13685,653;  199,654;35966,385;37,70543
 851,78;13715,984;  263,270;35914,994;37,73370
 852,34;13639,854;  243,577;35736,219;37,74382
 852,90;13699,647;  227,730;35670,059;38,01081
 853,46;13642,978;  215,961;35368,130;38,19684
 854,02;13738,848;  240,499;35407,893;38,38314
 854,58;13659,256;  225,114;35108,425;38,51166
 855,14;13659,664;  222,806;35070,804;38,55848
 855,70;13641,303;  196,575;34870,336;38,77493
 856,26;13680,865;  228,113;34736,253;38,98429
 856,82;13655,196;  227,728;34633,093;39,02725
 857,38;13685,528;  282,728;34582,010;39,07604
 857,94;13756,474;  221,036;34393,465;39,60924
 858,50;13756,344;  246,343;34317,767;39,65200
 859,06;13698,675;  217,420;34104,146;39,78329
 859,62;13691,468;  248,727;34009,909;39,81715
 860,18;13685,876;  227,573;33889,672;39,98058
 860,74;13651,823;  201,265;33764,435;40,07535
 861,30;13610,077;  208,803;33450,352;40,31483
 861,86;13744,870;  284,803;33550,961;40,46174
 862,42;13625,971;  227,033;33349,032;40,45329
 862,98;13725,148;  257,956;33354,564;40,69055
 863,54;13662,864;  220,648;33068,020;40,92326
 864,10;13695,580;  224,878;33158,475;40,90261
 864,66;13536,603;  205,263;32801,777;40,89806
 865,22;13591,011;  230,186;32700,694;41,14757
 865,78;13595,958;  228,031;32483,534;41,44386
 866,34;13616,059;  216,416;32380,682;41,66003
 866,90;13602,621;  232,569;32365,983;41,60794
 867,45;13586,106;  233,877;32121,823;41,87234
 868,01;13480,129;  236,030;31924,817;41,79428
 868,57;13525,691;  233,414;31850,042;42,04205
 869,13;13475,715;  213,799;31633,266;42,20923
 869,69;13514,200;  231,491;31572,799;42,38084
 870,25;13423,685;  195,337;31446,023;42,32978
 870,81;13521,478;  225,183;31277,940;42,81840
 871,37;13537,578;  232,028;31215,396;42,94417
 871,93;13479,525;  248,259;31081,851;42,91185
 872,49;13464,779;  278,105;30774,999;43,23940
 873,04;13406,341;  202,720;30672,762;43,33312
 873,60;13376,673;  219,412;30479,371;43,48076
 874,16;13395,465;  231,335;30434,058;43,58591
 874,72;13429,542;  233,565;30331,365;43,84366
 875,28;13375,235;  240,950;30233,750;43,79146
 875,84;13451,388;  239,488;30124,288;44,20943
 876,40;13463,773;  219,642;30089,135;44,33999
 876,95;13476,850;  244,181;30094,596;44,32993
 877,51;13554,773;  262,258;29995,904;44,70530
 878,07;13582,388;  278,796;30104,904;44,60385
 878,63;13578,542;  230,027;30106,135;44,67957
 879,19;13619,004;  242,335;30152,519;44,72279
 879,75;13719,542;  231,796;30113,365;45,13734
 880,30;13753,004;  232,027;30041,827;45,35749
 880,86;13888,619;  272,181;30242,365;45,43328
 881,42;13867,773;  212,488;30266,058;45,43648
 881,98;14013,619;  235,412;30321,673;45,79568
 882,54;14089,081;  228,335;30386,904;45,95956
 883,09;14184,388;  243,796;30518,673;46,04673
 883,65;14287,235;  210,642;30670,750;46,21321
 884,21;14416,158;  253,335;30906,904;46,20285
 884,77;14421,619;  213,335;30947,519;46,22958
 885,32;14586,927;  229,873;31118,288;46,48038
 885,88;14675,465;  259,104;31227,212;46,55228
 886,44;14782,850;  236,565;31341,212;46,76563
 887,00;14843,004;  263,104;31300,596;46,97512
 887,56;14949,696;  225,335;31517,904;47,05386
 888,11;14954,081;  223,950;31516,212;47,07276
 888,67;15083,312;  257,565;31685,904;47,17318
 889,23;15149,619;  227,488;31733,135;47,36335
 889,79;15095,850;  212,719;31565,750;47,46951
 890,34;15114,619;  244,335;31564,365;47,47851
 890,90;15264,004;  319,335;31753,981;47,54203
 891,46;15222,081;  228,796;31630,442;47,74681
 892,01;15240,235;  246,335;31583,519;47,84699
 892,57;15225,542;  271,027;31485,519;47,90889
 893,13;15177,773;  249,488;31315,212;48,05388
 893,69;15180,081;  212,796;31272,673;48,18849
 894,24;15136,619;  237,950;31211,365;48,10147
 894,80;15112,312;  238,565;31004,058;48,34555
 895,36;15160,312;  228,796;30898,288;48,68524
 895,91;15035,773;  237,642;30537,827;48,83842
 896,47;15054,158;  260,027;30529,827;48,87423
 897,03;15064,773;  237,027;30303,904;49,31588
 897,58;15035,850;  241,642;30312,750;49,19742
 898,14;14967,465;  245,258;29990,442;49,49442
 898,70;14881,542;  205,181;29772,596;49,63694
 899,25;14907,465;  237,950;29750,288;49,70638
 899,81;14867,158;  246,950;29594,673;49,81718
 900,37;14813,696;  206,719;29340,827;50,13703
 900,92;14825,696;  221,796;29260,827;50,29059
 901,48;14772,388;  222,258;29132,135;50,32927
 902,03;14755,004;  231,950;29017,981;50,45174
 902,59;14725,773;  227,335;28905,673;50,55536
 903,15;14771,773;  250,873;28718,212;51,00898
 903,70;14649,004;  224,181;28494,519;51,02459
 904,26;14676,235;  230,873;28338,058;51,39384
 904,82;14743,388;  221,335;28354,596;51,61881
 905,37;14694,158;  228,796;28208,288;51,69987
 905,93;14565,696;  213,488;28030,365;51,59532
 906,48;14640,465;  245,796;27939,365;51,97838
 907,04;14639,619;  252,104;27864,827;52,10466
 907,60;14543,004;  245,796;27555,904;52,35134
 908,15;14582,850;  224,104;27562,596;52,52208
 908,71;14588,004;  241,873;27514,058;52,60353
 909,26;14569,388;  232,181;27271,135;53,02427
 909,82;14508,388;  245,950;27185,212;52,94295
 910,37;14501,004;  277,181;27060,750;53,10653
 910,93;14355,696;  225,950;26855,442;53,06052
 911,48;14336,235;  214,104;26728,904;53,26131
 912,04;14368,619;  219,950;26546,981;53,74199
 912,60;14410,158;  238,104;26595,135;53,76954
 913,15;14313,773;  238,873;26404,827;53,79089
 913,71;14236,312;  216,950;26202,827;53,94993
 914,26;14191,158;  200,719;26087,288;54,04516
 914,82;14226,081;  238,565;26018,519;54,25733
 915,37;14184,465;  211,488;25997,904;54,18736
 915,93;14131,696;  273,258;25806,673;54,27569
 916,48;14057,235;  208,412;25663,750;54,40440
 917,04;14041,927;  239,488;25524,673;54,58706
 917,59;14002,235;  256,104;25455,135;54,55024
 918,15;13910,081;  193,950;25229,673;54,78624
 918,70;13919,081;  217,335;25166,904;54,91777
 919,26;13836,696;  230,488;25054,212;54,81131
 919,81;13764,388;  205,335;24844,288;55,03096
 920,37;13774,850;  223,796;24869,212;54,98408
 920,92;13768,235;  240,181;24722,135;55,25725
 921,48;13643,619;  214,950;24481,212;55,33885
 922,03;13710,158;  224,719;24464,288;55,63399
 922,59;13622,850;  233,873;24275,135;55,69166
 923,14;13602,773;  233,565;24151,519;55,89612
 923,69;13591,235;  247,950;24129,827;55,87201
 924,25;13560,850;  257,488;24016,519;55,99286
 924,80;13472,312;  225,796;23773,058;56,25501
 925,36;13498,927;  213,796;23715,750;56,52777
 925,91;13465,081;  220,950;23554,596;56,75980
 926,47;13435,312;  206,565;23505,519;56,77828
 927,02;13458,004;  308,565;23399,212;56,94704
 927,57;13391,235;  224,488;23133,981;57,47288
 928,13;13332,696;  210,642;23119,058;57,28050
 928,68;13297,158;  223,642;23056,904;57,25645
 929,24;13201,619;  198,719;22802,135;57,52626
 929,79;13177,312;  198,335;22770,904;57,49889
 930,34;13193,927;  214,873;22576,365;58,04198
 930,90;13048,081;  205,950;22459,750;57,70759
 931,45;13186,465;  222,642;22482,288;58,23912
 932,01;13077,081;  226,104;22355,827;58,07111
 932,56;13092,850;  236,719;22221,212;58,47818
 933,11;13088,312;  254,719;22291,750;58,23649
 933,67;12988,312;  219,258;21968,750;58,70966
 934,22;12965,004;  234,565;21936,596;58,66013
 934,77;12908,619;  246,719;21783,442;58,79214
 935,33;12827,927;  225,027;21639,212;58,85305
 935,88;12863,235;  237,950;21579,519;59,15818
 936,43;12854,773;  232,335;21484,750;59,39296
 936,99;12859,696;  232,950;21357,212;59,77367
 937,54;12786,158;  213,181;21167,135;60,00289
 938,09;12796,081;  234,488;21117,596;60,15193
 938,65;12739,312;  230,565;20960,904;60,34029
 939,20;12789,388;  191,796;20899,135;60,83637
 939,75;12717,388;  205,642;20820,904;60,69167
 940,31;12580,619;  202,027;20736,135;60,28308
 940,86;12701,312;  224,565;20640,904;61,11158
 941,41;12713,773;  322,488;20687,058;60,84727
 941,96;12635,388;  210,104;20382,596;61,59519
 942,52;12582,927;  224,412;20334,212;61,45519
 943,07;12526,004;  201,796;20198,981;61,62971
 943,62;12534,235;  208,565;20065,365;62,07279
 944,18;12525,927;  207,642;20067,750;62,02527
 944,73;12516,465;  233,027;19904,519;62,44284
 945,28;12361,542;  182,181;19787,288;62,12341
 945,83;12381,235;  202,642;19727,981;62,37327
 946,39;12373,696;  210,412;19667,519;62,51332
 946,94;12354,312;  247,950;19561,519;62,68319
 947,49;12294,696;  216,796;19444,904;62,81377
 948,04;12336,542;  266,565;19358,135;63,22150
 948,59;12250,773;  234,796;19262,673;63,14933
 949,15;12192,542;  201,104;19211,058;63,07979
 949,70;12166,004;  213,027;19100,981;63,28360
 950,25;12132,850;  233,027;19043,904;63,26033
 950,80;12044,696;  188,642;18873,827;63,45163
 951,36;11972,158;  179,335;18800,288;63,33093
 951,91;12071,004;  233,412;18795,442;63,77315
 952,46;11919,619;  207,412;18571,981;63,77611
 953,01;12016,235;  223,950;18566,827;64,28809
 953,56;11894,081;  189,565;18417,058;64,21353
 954,11;11912,004;  224,642;18398,288;64,30939
 954,67;11875,004;  213,796;18288,827;64,51556
 955,22;11759,004;  194,181;18158,981;64,37491
 955,77;11797,927;  236,873;18057,981;64,87281
 956,32;11703,773;  277,950;18018,904;64,40366
 956,87;11712,004;  201,642;17865,519;65,16328
 957,42;11672,081;  216,181;17850,981;64,96189
 957,98;11621,773;  211,719;17736,365;65,10861
 958,53;11660,773;  239,950;17642,212;65,62838
 959,08;11570,927;  209,873;17533,750;65,58032
 959,63;11509,158;  219,335;17419,365;65,63839
 960,18;11529,158;  223,027;17410,288;65,78204
 960,73;11525,388;  222,335;17321,904;66,10140
 961,28;11427,850;  186,719;17229,673;65,95764
 961,83;11424,850;  243,950;17205,596;65,91872
 962,39;11376,850;  200,335;17013,981;66,47288
 962,94;11371,542;  221,950;16965,827;66,58907
 963,49;11270,158;  226,104;16777,750;66,72481
 964,04;11340,312;  232,335;16730,135;67,33005
 964,59;11264,619;  195,181;16633,212;67,34042
 965,14;11227,619;  249,335;16582,827;67,21333
 965,69;11172,004;  217,027;16489,750;67,32110
 966,24;11119,619;  210,412;16394,135;67,40852
 966,79;11055,081;  239,488;16254,904;67,53239
 967,34;11022,773;  185,181;16132,519;67,95863
 967,89;10951,004;  210,335;16050,442;67,80679
 968,44;10940,773;  216,104;16013,750;67,88777
 968,99;10912,081;  236,027;15961,135;67,89177
 969,55;10877,696;  219,412;15833,904;68,25893
 970,10;10834,004;  232,642;15723,904;68,43446
 970,65;10806,004;  241,796;15646,827;68,57635
 971,20;10685,465;  216,258;15527,673;68,37518
 971,75;10616,619;  195,104;15326,981;68,87127
 972,30;10602,388;  220,719;15239,596;69,12414
 972,85;10524,004;  203,796;15149,519;69,05124
 973,40;10435,312;  208,719;15022,288;69,03530
 973,95;10435,542;  221,181;15008,827;69,07361
 974,50;10437,158;  252,412;14953,596;69,27840
 975,05;10409,542;  223,335;14782,596;69,96377
 975,60;10271,312;  241,796;14703,981;69,34993
 976,15;10269,158;  212,873;14616,288;69,81875
 976,70;10251,696;  222,412;14529,981;70,09775
 977,25;10188,696;  243,027;14485,827;69,82945
 977,80;10127,081;  224,181;14321,904;70,24468
 978,35;10072,388;  243,027;14164,904;70,60371
 978,89;10044,542;  196,104;14069,596;70,98745
 979,44;10046,465;  234,258;14051,058;71,01650
 979,99; 9907,235;  212,796;13923,981;70,70460
 980,54; 9888,312;  238,104;13784,212;71,23971
 981,09; 9875,773;  247,104;13719,365;71,47033
 981,64; 9813,465;  231,950;13610,365;71,61921
 982,19; 9761,388;  266,950;13503,827;71,72718
 982,74; 9630,696;  230,950;13377,981;71,49710
 983,29; 9579,927;  221,104;13220,519;71,99418
 983,84; 9509,388;  218,873;13114,904;72,04167
 984,39; 9523,619;  319,642;13130,442;71,84545
 984,94; 9392,388;  194,873;12941,673;72,15549
 985,49; 9372,850;  243,565;12824,981;72,56167
 986,03; 9298,388;  246,719;12732,442;72,49616
 986,58; 9255,004;  285,950;12591,904;72,88386
 987,13; 9147,158;  229,642;12498,288;72,68541
 987,68; 9114,542;  252,104;12396,365;72,97635
 988,23; 9019,850;  234,258;12288,981;72,88091
 988,78; 8943,850;  210,719;12097,058;73,47200
 989,33; 8912,004;  246,412;12040,596;73,47343
 989,88; 8902,696;  263,412;12016,519;73,50639
 990,42; 8749,927;  214,873;11778,135;73,81182
 990,97; 8674,158;  229,950;11706,981;73,57485
 991,52; 8656,158;  246,335;11632,058;73,86288
 992,07; 8616,542;  275,719;11520,442;74,17544
 992,62; 8499,158;  238,719;11359,673;74,27815
 993,17; 8534,850;  249,719;11261,827;75,23656
 993,71; 8415,465;  243,258;11131,750;75,05362
 994,26; 8299,235;  210,796;11031,442;74,75005
 994,81; 8276,158;  254,565;10961,058;74,92269
 995,36; 8174,927;  218,642;10804,288;75,16107
 995,91; 8103,388;  228,027;10706,904;75,15463
 996,45; 8075,081;  240,488;10601,673;75,61483
 997,00; 7914,004;  219,873;10453,596;75,18408
 997,55; 7982,235;  235,873;10425,288;76,02361
 998,10; 7896,773;  258,719;10286,750;76,16704
 998,65; 7814,004;  229,027;10223,750;75,88982
 999,19; 7743,388;  245,412;10122,981;75,90913
 999,74; 7671,850;  275,796;10010,827;75,97361
1000,29; 7642,850;  229,642; 9896,442;76,68730
1000,84; 7550,542;  224,565; 9747,519;76,92967
1001,38; 7454,388;  231,488; 9658,519;76,61903
1001,93; 7491,312;  257,104; 9600,596;77,42509
1002,48; 7351,927;  213,488; 9385,365;77,82964
1003,03; 7293,388;  247,027; 9390,519;77,06423
1003,57; 7259,927;  241,027; 9279,673;77,65433
1004,12; 7196,004;  287,258; 9162,288;77,84476
1004,67; 7199,465;  236,104; 9069,904;78,82634
1005,22; 7020,235;  225,181; 8908,212;78,25671
1005,76; 6936,927;  219,027; 8775,904;78,50878
1006,31; 6973,312;  248,335; 8757,135;79,03555
1006,86; 6808,696;  221,104; 8563,212;78,96796
1007,40; 6701,312;  205,796; 8430,827;78,97254
1007,95; 6660,773;  235,488; 8365,596;79,03074
1008,50; 6507,081;  237,873; 8197,827;78,75935
1009,04; 6473,081;  220,412; 8126,058;79,09119
1009,59; 6365,927;  236,873; 7965,288;79,30544
1010,14; 6241,850;  212,796; 7876,442;78,67083
1010,68; 6209,388;  229,258; 7739,827;79,62287
1011,23; 6112,235;  245,796; 7677,981;78,93289
1011,78; 6063,235;  241,181; 7525,596;79,92479
1012,32; 6019,158;  270,258; 7462,827;79,92832
1012,87; 5996,081;  263,719; 7386,673;80,47731
1013,42; 5862,388;  212,258; 7261,058;80,15734
1013,96; 5894,927;  267,565; 7279,212;80,25735
1014,51; 5824,158;  191,335; 7170,750;80,70623
1015,06; 5807,004;  204,565; 7161,981;80,52471
1015,60; 5836,773;  272,181; 7212,442;80,17842
1016,15; 5796,850;  230,488; 7164,596;80,27510
1016,69; 5869,312;  243,488; 7178,750;81,11912
1017,24; 5853,850;  213,796; 7181,904;80,94097
1017,79; 5925,388;  273,258; 7245,288;81,06864
1018,33; 5947,542;  235,258; 7272,135;81,17642
1018,88; 6014,158;  248,027; 7366,673;81,00038
1019,42; 5988,850;  221,335; 7292,904;81,55920
1019,97; 5942,235;  220,027; 7299,519;80,82794
1020,51; 6028,388;  259,950; 7441,981;80,31765
1021,06; 5991,773;  201,181; 7343,365;81,07593
1021,61; 5961,004;  191,335; 7303,827;81,12022
1022,15; 5930,927;  189,027; 7269,673;81,09288
1022,70; 5948,004;  219,719; 7266,212;81,29271
1023,24; 5899,081;  200,258; 7238,519;80,96919
1023,79; 5876,312;  217,719; 7180,365;81,27071
1024,33; 5818,542;  221,412; 7083,750;81,56302
1024,88; 5782,158;  248,488; 7045,442;81,41396
1025,42; 5691,773;  243,642; 6925,135;81,54063
1025,97; 5614,081;  214,335; 6840,365;81,49292
1026,51; 5532,696;  190,488; 6693,288;82,15242
1027,06; 5462,158;  215,027; 6644,135;81,61523
1027,60; 5415,235;  230,104; 6497,827;82,72750
1028,15; 5375,773;  244,488; 6405,519;83,28614
1028,69; 5238,619;  193,335; 6264,904;83,09688
1029,24; 5210,465;  208,488; 6246,212;82,84542
1029,78; 5089,312;  199,027; 6111,288;82,71428
1030,33; 5029,927;  198,027; 6015,673;83,05593
1030,87; 4964,927;  210,950; 5917,365;83,30934
1031,42; 4861,927;  206,642; 5828,365;82,80886
1031,96; 4828,081;  238,565; 5783,365;82,77152
1032,51; 4754,235;  203,719; 5651,442;83,53059
1033,05; 4731,850;  218,873; 5613,519;83,65659
1033,60; 4620,927;  187,873; 5496,442;83,50751
1034,14; 4604,696;  215,796; 5412,596;84,45389
1034,69; 4526,388;  219,565; 5370,827;83,60715
1035,23; 4467,158;  215,950; 5260,212;84,27810
1035,77; 4439,542;  223,104; 5248,365;83,90486
1036,32; 4359,619;  189,950; 5121,981;84,54264
1036,86; 4335,696;  226,950; 5079,058;84,67962
1037,41; 4285,465;  231,719; 5010,442;84,82907
1037,95; 4171,235;  187,181; 4891,673;84,68616
1038,50; 4155,158;  205,950; 4864,904;84,76598
1039,04; 4129,004;  232,104; 4830,519;84,74441
1039,58; 4065,312;  188,181; 4698,519;85,96097
1040,13; 3980,619;  213,488; 4668,519;84,55903
1040,67; 4013,696;  243,027; 4628,750;85,97600
1041,21; 3953,081;  256,796; 4547,750;86,14133
1041,76; 3832,312;  210,950; 4455,442;85,31907
1042,30; 3829,927;  208,027; 4408,596;86,22403
1042,85; 3759,388;  208,412; 4337,596;85,99705
1043,39; 3710,158;  199,104; 4251,827;86,63444
1043,93; 3691,235;  237,719; 4235,827;86,37875
1044,48; 3639,773;  226,565; 4140,673;87,20270
1045,02; 3614,388;  215,873; 4101,596;87,46160
1045,56; 3586,388;  249,565; 4063,519;87,48987
1046,11; 3528,773;  211,565; 3975,750;88,12553
1046,65; 3479,927;  236,335; 3947,135;87,40952
1047,19; 3441,158;  206,335; 3840,365;89,01474
1047,74; 3351,004;  195,565; 3786,058;87,88317
1048,28; 3317,850;  219,719; 3747,288;87,82622
1048,82; 3343,619;  250,796; 3728,519;88,93241
1049,37; 3260,542;  226,104; 3685,596;87,71340
1049,91; 3231,158;  226,565; 3639,519;88,03495
1050,45; 3164,696;  231,873; 3582,442;87,53208
1050,99; 3152,312;  240,027; 3521,442;88,75087
1051,54; 3068,850;  212,335; 3462,827;87,87947
1052,08; 3044,850;  249,335; 3419,904;88,17077
1052,62; 3022,850;  229,796; 3371,904;88,89109
1053,16; 2970,388;  215,950; 3308,904;89,05527
1053,71; 2943,388;  229,258; 3285,519;88,80558
1054,25; 2877,773;  241,104; 3249,058;87,65657
1054,79; 2874,619;  232,181; 3195,981;89,15711
1055,33; 2794,312;  199,335; 3123,442;88,74423
1055,88; 2772,388;  230,258; 3130,750;87,64480
1056,42; 2761,927;  241,796; 3047,519;89,82108
1056,96; 2743,927;  250,565; 3039,596;89,39885
1057,50; 2697,465;  243,335; 2967,827;90,07663
1058,05; 2638,235;  229,412; 2925,365;89,34957
1058,59; 2638,312;  248,412; 2899,365;90,15246
1059,13; 2547,388;  204,565; 2818,365;89,63284
1059,67; 2556,081;  232,565; 2779,673;91,22172
1060,21; 2510,081;  227,335; 2747,981;90,56194
1060,76; 2467,542;  237,027; 2708,442;90,25255
1061,30; 2458,619;  249,719; 2704,288;89,99135
1061,84; 2393,158;  247,258; 2628,981;90,09864
1062,38; 2332,465;  212,104; 2586,212;89,31194
1062,92; 2383,619;  277,873; 2601,058;90,64050
1063,46; 2296,927;  246,642; 2509,442;90,60830
1064,01; 2226,773;  221,104; 2458,519;89,64224
1064,55; 2246,850;  240,335; 2459,212;90,42932
1065,09; 2199,542;  204,335; 2400,058;90,86791
1065,63; 2205,465;  257,719; 2402,827;90,79946
1066,17; 2210,465;  266,335; 2389,135;91,58332
1066,71; 2153,927;  256,335; 2352,596;90,52269
1067,25; 2106,773;  220,950; 2311,135;90,22280
1067,80; 2078,465;  244,027; 2286,442;89,81711
1068,34; 2079,465;  267,412; 2279,058;90,07816
1068,88; 2033,158;  225,950; 2208,596;91,15130
1069,42; 2026,773;  256,412; 2208,442;90,69332
1069,96; 2003,542;  229,565; 2160,288;91,88148
1070,50; 1992,542;  270,719; 2161,442;91,06691
1071,04; 1930,235;  221,642; 2100,981;90,91456
1071,58; 1927,696;  230,335; 2067,519;92,38927
1072,12; 1879,158;  238,104; 2066,442;89,75657
1072,66; 1880,465;  229,796; 2023,135;92,04449
1073,21; 1872,542;  251,104; 2028,442;91,22846
1073,75; 1830,312;  234,950; 1996,365;90,57270
1074,29; 1809,850;  240,719; 1960,519;91,23914
1074,83; 1806,850;  267,181; 1945,519;91,73771
1075,37; 1801,312;  270,258; 1953,212;90,97420
1075,91; 1766,312;  251,565; 1911,827;91,23539
1076,45; 1752,312;  238,873; 1886,750;91,84172
1076,99; 1735,542;  256,873; 1879,212;91,14431
1077,53; 1686,542;  229,642; 1820,750;91,56514
1078,07; 1692,850;  248,258; 1817,750;92,04201
1078,61; 1663,312;  239,181; 1778,058;92,54351
1079,15; 1633,619;  232,412; 1754,288;92,07103
1079,69; 1614,927;  239,488; 1741,904;91,54848
1080,23; 1639,542;  263,181; 1731,827;93,71635
1080,77; 1659,927;  314,335; 1769,750;92,45418
1081,31; 1564,312;  227,412; 1663,981;93,06200
1081,85; 1575,004;  260,565; 1681,212;92,52399
1082,39; 1528,465;  231,642; 1628,212;92,85777
1082,93; 1537,773;  248,412; 1642,365;92,49672
1083,47; 1474,312;  216,565; 1566,904;93,14303
1084,01; 1500,773;  252,719; 1585,904;93,61448
1084,55; 1448,388;  229,181; 1557,673;91,77379
1085,09; 1452,850;  256,258; 1563,981;91,50196
1085,63; 1446,850;  253,104; 1546,519;92,29411
1086,17; 1430,927;  237,488; 1493,981;94,98176
1086,71; 1409,235;  212,488; 1467,365;95,36761
1087,24; 1415,927;  253,873; 1506,212;92,79072
1087,78; 1400,773;  265,565; 1493,135;92,47606
1088,32; 1364,850;  231,335; 1426,442;94,84630
1088,86; 1367,465;  240,412; 1442,442;93,76248
1089,40; 1343,465;  249,104; 1424,442;93,11033
1089,94; 1292,696;  219,335; 1378,212;92,62084
1090,48; 1290,850;  250,104; 1378,673;92,21819
1091,02; 1319,235;  253,642; 1388,596;93,88860
1091,56; 1287,004;  243,181; 1350,904;94,23141
1092,10; 1254,850;  214,719; 1296,212;96,17551
1092,63; 1279,081;  271,873; 1345,750;93,79173
1093,17; 1250,465;  248,796; 1312,365;94,17997
1093,71; 1221,927;  232,719; 1282,135;94,26274
1094,25; 1221,465;  251,873; 1299,673;92,53601
1094,79; 1204,081;  238,335; 1255,135;94,97897
1095,33; 1193,619;  248,565; 1272,288;92,31538
1095,87; 1195,696;  237,488; 1246,135;94,99939
1096,40; 1148,773;  218,412; 1192,981;95,46387
1096,94; 1157,004;  244,258; 1190,904;96,41894
1097,48; 1170,388;  258,488; 1205,827;96,25916
1098,02; 1124,388;  234,873; 1177,365;94,37906
1098,56; 1087,312;  212,335; 1127,058;95,65484
1099,10; 1079,542;  213,335; 1134,135;94,07121
1099,63; 1095,388;  220,335; 1115,135;97,79323
1100,17; 1097,312;  257,412; 1133,673;95,85038
1100,71; 1108,619;  274,796; 1126,981;97,84536

