
Integration time [ms]: 160,000
Averaging Nr. [scans]: 13
Smoothing Nr. [pixels]: 0
Data measured with spectrometer [name]: 2009305U1
Wave   ;Sample   ;Dark     ;Reference;Reflectance
[nm]   ;[counts] ;[counts] ;[counts] ;[%]

 175,72;  205,714;  190,196;  190,611; 0,00000
 176,32;  227,208;  220,808;  214,863; 0,00000
 176,92;  253,354;  230,195;  230,188; 0,00000
 177,52;  250,711;  248,580;  258,697;21,06519
 178,12;  229,999;  231,962;  210,641; 0,00000
 178,72;  253,016;  254,115;  247,099; 0,00000
 179,32;  265,485;  231,116;  228,583; 0,00000
 179,92;  244,735;  234,963;  235,715; 0,00000
 180,52;  241,700;  233,966;  240,193;124,19862
 181,12;  260,334;  247,502;  241,248; 0,00000
 181,73;  283,544;  262,502;  257,259; 0,00000
 182,33;  350,967;  313,119;  315,976;1324,83951
 182,93;  263,283;  242,964;  258,729;128,89132
 183,53;  229,343;  234,730;  223,193; 0,00000
 184,13;  236,619;  240,269;  208,950; 0,00000
 184,73;  275,418;  257,730;  258,096; 0,00000
 185,33;  306,019;  228,331;  353,732;61,95129
 185,93;  325,692;  232,714;  366,417;69,54079
 186,53;  339,373;  235,638;  378,269;72,72969
 187,13;  350,794;  274,870;  419,071;52,65134
 187,73;  321,176;  232,406;  358,474;70,41479
 188,33;  311,222;  230,559;  374,577;56,00890
 188,93;  325,965;  245,479;  372,134;63,54706
 189,53;  323,698;  237,399;  386,092;58,03870
 190,13;  366,543;  263,472;  395,379;78,13935
 190,73;  311,708;  220,706;  350,374;70,18105
 191,34;  343,481;  262,093;  376,943;70,86429
 191,94;  309,536;  237,789;  352,157;62,73421
 192,54;  349,862;  245,641;  406,376;64,84035
 193,14;  336,703;  245,793;  399,720;59,06063
 193,74;  324,458;  241,408;  390,705;55,62725
 194,34;  329,817;  244,409;  388,666;59,20518
 194,94;  301,968;  206,947;  357,290;63,20269
 195,54;  279,934;  201,792;  321,922;65,04769
 196,14;  316,101;  217,025;  377,667;61,67511
 196,74;  303,589;  217,330;  354,898;62,70284
 197,34;  276,176;  200,257;  357,042;48,42273
 197,94;  312,897;  220,793;  384,139;56,38577
 198,54;  322,610;  226,409;  404,002;54,16905
 199,14;  309,962;  208,642;  402,616;52,23402
 199,74;  302,159;  194,258;  393,968;54,02891
 200,34;  312,152;  188,104;  413,437;55,05099
 200,94;  334,619;  217,872;  451,352;50,00308
 201,54;  326,930;  208,949;  455,238;47,90353
 202,14;  365,766;  217,258;  483,677;55,74225
 202,74;  341,060;  204,719;  495,806;46,83862
 203,34;  352,168;  190,490;  521,068;48,90768
 203,94;  337,288;  162,335;  531,440;47,39928
 204,54;  410,022;  234,563;  608,830;46,88068
 205,14;  380,163;  195,873;  617,874;43,67059
 205,74;  456,236;  222,490;  723,593;46,64626
 206,34;  447,770;  206,489;  745,813;44,73767
 206,94;  474,196;  219,181;  811,530;43,05141
 207,54;  470,902;  180,797;  820,574;45,34473
 208,14;  518,788;  202,258;  937,146;43,07179
 208,74;  549,295;  186,873; 1036,173;42,67304
 209,34;  572,843;  197,873; 1096,081;41,74651
 209,94;  621,727;  208,719; 1196,710;41,80284
 210,54;  663,238;  205,105; 1329,940;40,72892
 211,14;  710,257;  199,027; 1467,082;40,31609
 211,73;  768,036;  204,795; 1572,086;41,19396
 212,33;  825,269;  220,410; 1695,615;41,00165
 212,93;  852,748;  199,334; 1783,698;41,24136
 213,53;  848,492;  174,950; 1836,449;40,53821
 214,13;  925,201;  179,875; 1915,696;42,93798
 214,73;  928,304;  177,028; 1945,984;42,47005
 215,33;  936,958;  150,719; 2007,095;42,35345
 215,93; 1014,859;  190,413; 2149,635;42,08030
 216,53; 1069,786;  157,103; 2243,251;43,74964
 217,13; 1219,251;  206,951; 2484,397;44,44892
 217,73; 1342,561;  191,259; 2686,648;46,13716
 218,33; 1424,673;  145,106; 2930,834;45,93293
 218,93; 1639,068;  168,493; 3243,262;47,82719
 219,53; 1827,408;  171,798; 3540,572;49,14577
 220,13; 2008,863;  155,799; 3895,473;49,55149
 220,73; 2233,198;  174,642; 4282,492;50,11273
 221,32; 2471,757;  180,257; 4748,711;50,15918
 221,92; 2757,012;  180,799; 5193,058;51,39825
 222,52; 3020,890;  172,490; 5655,579;51,94882
 223,12; 3268,096;  180,798; 6127,868;51,91293
 223,72; 3505,293;  180,259; 6511,836;52,51509
 224,32; 3751,481;  181,336; 6982,532;52,49291
 224,92; 3910,652;  166,259; 7316,894;52,36449
 225,52; 4173,546;  190,873; 7673,960;53,22233
 226,12; 4319,332;  183,720; 7984,687;53,01409
 226,72; 4555,113;  154,489; 8392,095;53,42115
 227,31; 4782,515;  153,797; 8790,227;53,59527
 227,91; 4969,379;  179,104; 9192,916;53,14372
 228,51; 5178,526;  176,718; 9637,577;52,86844
 229,11; 5439,015;  178,412;10078,703;53,13584
 229,71; 5594,799;  171,026;10383,939;53,10701
 230,31; 5840,569;  155,952;10866,795;53,07348
 230,91; 6016,425;  170,872;11260,500;52,71189
 231,51; 6177,193;  151,413;11515,548;53,02454
 232,10; 6305,579;  161,106;11881,088;52,42733
 232,70; 6454,048;  175,332;12103,897;52,63597
 233,30; 6502,731;  193,643;12351,038;51,89506
 233,90; 6570,671;  164,490;12566,939;51,65255
 234,50; 6604,009;  170,951;12611,960;51,70849
 235,10; 6519,729;  165,182;12659,432;50,85977
 235,70; 6474,306;  181,873;12654,129;50,45144
 236,29; 6396,718;  181,950;12526,341;50,34487
 236,89; 6256,951;  162,564;12387,938;49,85031
 237,49; 6122,456;  181,951;12255,560;49,20239
 238,09; 5845,924;  165,181;11930,351;48,28441
 238,69; 5642,990;  192,179;11638,020;47,62264
 239,29; 5346,478;  164,258;11229,819;46,83197
 239,89; 5035,242;  187,026;10858,961;45,42959
 240,48; 4705,479;  168,489;10364,636;44,49710
 241,08; 4440,674;  166,796; 9960,508;43,63900
 241,68; 4148,655;  175,797; 9621,722;42,05896
 242,28; 3867,093;  162,182; 9276,338;40,65008
 242,88; 3621,937;  207,491; 8899,587;39,28219
 243,48; 3365,182;  197,105; 8561,516;37,87568
 244,07; 3160,934;  180,950; 8342,355;36,51312
 244,67; 2985,643;  184,720; 8174,621;35,05579
 245,27; 2844,652;  192,103; 8008,470;33,93583
 245,87; 2694,799;  200,798; 7950,901;32,18023
 246,47; 2621,019;  171,795; 7926,723;31,58281
 247,06; 2530,910;  170,181; 7926,769;30,43514
 247,66; 2494,266;  162,105; 8072,585;29,48192
 248,26; 2508,589;  198,026; 8262,899;28,64971
 248,86; 2493,798;  186,796; 8523,429;27,67307
 249,46; 2527,996;  147,182; 8774,580;27,59597
 250,05; 2623,778;  188,181; 9268,854;26,82176
 250,65; 2708,360;  166,411; 9626,322;26,87075
 251,25; 2883,849;  177,719;10220,467;26,94611
 251,85; 3040,075;  178,410;10960,965;26,53977
 252,44; 3266,235;  141,257;11740,074;26,94221
 253,04; 3551,198;  182,335;12664,031;26,99043
 253,64; 3771,423;  140,180;13515,894;27,14803
 254,24; 4189,735;  184,412;14646,963;27,69444
 254,84; 4625,689;  168,028;15756,965;28,59502
 255,43; 5041,274;  175,873;16864,213;29,15449
 256,03; 5512,860;  174,872;18100,106;29,77918
 256,63; 6059,968;  179,179;19448,839;30,51838
 257,23; 6530,238;  159,872;20532,671;31,26898
 257,82; 7113,254;  177,563;21667,619;32,27396
 258,42; 7577,803;  145,024;22671,007;32,99647
 259,02; 8229,817;  179,719;23820,705;34,05145
 259,62; 8697,750;  167,870;24705,978;34,76177
 260,21; 9218,957;  174,873;25381,739;35,87945
 260,81; 9723,323;  164,105;26084,597;36,87900
 261,41;10169,176;  164,871;26626,340;37,80707
 262,01;10670,291;  204,947;27207,863;38,75635
 262,60;11199,007;  158,487;27736,363;40,03397
 263,20;11652,656;  166,488;28089,299;41,13543
 263,80;11984,372;  191,793;28417,307;41,77986
 264,40;12435,044;  157,332;28707,396;43,00415
 264,99;12837,166;  162,716;28819,788;44,22800
 265,59;13203,570;  167,330;29119,006;45,02758
 266,19;13523,953;  160,024;29358,121;45,76986
 266,78;13899,185;  198,408;29469,987;46,80573
 267,38;14094,238;  173,330;29544,035;47,39725
 267,98;14377,578;  165,100;29527,846;48,40310
 268,58;14545,947;  180,330;29572,705;48,87532
 269,17;14829,972;  169,560;29574,541;49,85690
 269,77;14900,180;  178,871;29339,610;50,48332
 270,37;15055,632;  157,562;29243,001;51,22175
 270,96;15167,455;  199,948;29093,954;51,80143
 271,56;15207,293;  168,641;28792,893;52,53815
 272,16;15258,770;  174,332;28625,793;53,01815
 272,75;15356,270;  175,717;28489,394;53,61562
 273,35;15512,075;  175,256;28425,600;54,28897
 273,95;15631,929;  172,255;28524,208;54,52772
 274,54;15757,705;  154,720;28486,298;55,07277
 275,14;16142,131;  194,563;29034,179;55,29744
 275,74;16362,091;  148,563;29126,788;55,95073
 276,33;16733,321;  200,410;29542,461;56,34545
 276,93;17147,604;  178,258;30030,251;56,84494
 277,53;17633,222;  180,719;30751,001;57,08977
 278,12;18167,132;  162,103;31327,823;57,77190
 278,72;18699,448;  194,180;31967,509;58,24151
 279,32;19245,674;  171,180;32791,940;58,47348
 279,91;19931,544;  151,103;33601,603;59,13347
 280,51;20449,509;  167,257;34225,503;59,55166
 281,11;21156,100;  185,411;35093,888;60,07334
 281,70;21586,005;  156,564;35568,477;60,51478
 282,30;22328,908;  154,102;36380,047;61,21250
 282,90;22767,972;  167,179;36743,206;61,79127
 283,49;23371,426;  183,871;37456,799;62,21018
 284,09;23933,244;  195,641;37989,057;62,80883
 284,69;24432,233;  186,411;38259,823;63,68177
 285,28;24996,585;  185,257;38858,320;64,15662
 285,88;25429,757;  212,255;38964,644;65,07341
 286,47;25709,160;  169,718;39071,084;65,65179
 287,07;26145,862;  197,949;39161,280;66,59572
 287,67;26695,875;  181,028;39330,592;67,72705
 288,26;26934,143;  176,411;39270,674;68,44414
 288,86;27427,564;  172,026;39370,668;69,53184
 289,46;27990,245;  187,872;39449,462;70,81316
 290,05;28519,729;  163,258;39555,269;71,98534
 290,65;29015,373;  170,333;39901,673;72,60022
 291,24;29639,281;  178,180;39999,668;73,98292
 291,84;30097,276;  190,256;40187,069;74,77351
 292,44;30651,585;  166,490;40259,695;76,03556
 293,03;31091,713;  231,488;40461,541;76,70938
 293,63;31593,681;  170,179;40693,798;77,54367
 294,22;31955,668;  184,565;40932,784;77,96930
 294,82;32296,408;  178,870;40782,436;79,10029
 295,41;32204,543;  154,564;40531,401;79,37714
 296,01;32355,739;  214,255;40504,772;79,77432
 296,61;32183,208;  186,257;40158,958;80,04701
 297,20;31794,436;  184,178;39735,495;79,92214
 297,80;31708,906;  182,181;39461,171;80,26358
 298,39;31314,844;  162,025;39083,811;80,03954
 298,99;31082,669;  183,717;38877,746;79,85457
 299,58;30928,831;  183,335;38761,961;79,69567
 300,18;30616,768;  199,950;38590,870;79,22920
 300,78;30185,949;  155,411;38134,928;79,07035
 301,37;30079,169;  192,100;38095,798;78,85001
 301,97;29884,647;  187,488;38151,670;78,22415
 302,56;29741,984;  170,102;38116,768;77,93012
 303,16;29418,440;  163,025;38102,535;77,11068
 303,75;29346,271;  172,488;38106,818;76,90602
 304,35;29405,408;  159,413;38427,389;76,42420
 304,94;29180,472;  174,872;38359,557;75,96134
 305,54;28905,372;  192,027;38322,019;75,30383
 306,13;28634,985;  155,336;38286,067;74,68949
 306,73;28282,110;  160,413;37995,162;74,32770
 307,33;28075,883;  188,412;37866,711;74,01468
 307,92;27850,926;  173,719;38074,179;73,02605
 308,52;27968,247;  162,102;38620,626;72,30164
 309,11;28321,166;  180,793;39167,614;72,17919
 309,71;28283,936;  156,024;39592,144;71,32525
 310,30;28291,426;  159,796;39745,116;71,06581
 310,90;28361,118;  186,873;40175,116;70,45632
 311,49;28083,327;  168,565;40331,493;69,50380
 312,09;28118,443;  146,181;40469,200;69,37046
 312,68;28191,876;  213,180;40943,064;68,69329
 313,28;27909,926;  145,642;41024,487;67,91847
 313,87;27752,032;  137,257;41322,180;67,05069
 314,47;27665,543;  162,794;41550,852;66,45093
 315,06;27381,384;  150,026;41687,889;65,55792
 315,66;27366,367;  149,489;42083,815;64,90358
 316,25;26833,308;  140,487;41887,851;63,93894
 316,85;26616,055;  133,027;41939,756;63,34633
 317,44;26377,081;  159,332;42153,265;62,43223
 318,04;25960,570;  148,333;42125,613;61,49097
 318,63;25714,602;  137,105;42248,519;60,73768
 319,22;25482,685;  159,025;42391,886;59,96198
 319,82;25052,175;  173,564;42447,022;58,85161
 320,41;24715,493;  174,102;42458,026;58,03953
 321,01;24465,456;  172,873;42530,301;57,35141
 321,60;24063,769;  167,257;42608,678;56,30469
 322,20;23692,367;  163,488;42633,988;55,40052
 322,79;23464,260;  201,257;42677,554;54,76702
 323,39;23141,236;  160,951;42791,901;53,90517
 323,98;22725,526;  145,488;42704,173;53,05624
 324,58;22384,200;  160,102;42745,522;52,18711
 325,17;22029,086;  165,333;42412,094;51,75250
 325,76;21648,776;  184,180;42236,344;51,04279
 326,36;21008,596;  143,719;41797,075;50,09171
 326,95;20553,346;  187,872;41357,433;49,46731
 327,55;20073,841;  156,718;40996,955;48,76838
 328,14;19536,911;  160,258;40530,202;47,99772
 328,74;19122,557;  190,718;40028,569;47,52224
 329,33;18609,109;  176,181;39560,161;46,80311
 329,92;18048,760;  153,947;38869,578;46,22116
 330,52;17430,595;  166,643;38026,930;45,59911
 331,11;16890,799;  173,872;37649,266;44,60774
 331,71;16385,852;  160,411;36828,911;44,24899
 332,30;15935,626;  190,026;36326,480;43,57262
 332,89;15504,241;  202,181;35672,922;43,13995
 333,49;14988,146;  165,487;35101,636;42,42785
 334,08;14576,426;  167,410;34653,751;41,78181
 334,68;14170,286;  168,795;34118,515;41,24184
 335,27;13850,622;  176,951;33748,969;40,72937
 335,86;13570,107;  204,564;33409,266;40,25196
 336,46;13292,370;  185,566;33116,240;39,80120
 337,05;13031,354;  174,026;32908,628;39,27749
 337,65;12806,546;  150,718;32778,642;38,78833
 338,24;12665,128;  211,642;32766,485;38,25387
 338,83;12478,769;  188,719;32730,630;37,76684
 339,43;12351,595;  153,948;32656,045;37,52880
 340,02;12246,423;  159,794;32490,788;37,38403
 340,61;12111,354;  163,026;32561,070;36,87978
 341,21;12031,172;  205,333;32694,492;36,39934
 341,80;11935,290;  165,641;32654,498;36,22672
 342,40;11852,698;  175,181;32629,382;35,98153
 342,99;11834,625;  172,642;32889,230;35,64548
 343,58;11864,263;  165,335;33038,776;35,58778
 344,18;11809,037;  182,950;33200,422;35,21192
 344,77;11905,333;  155,563;33550,639;35,18414
 345,36;11936,962;  148,180;33983,356;34,84179
 345,96;12001,553;  178,950;34320,107;34,62860
 346,55;12146,753;  156,490;34593,018;34,81844
 347,14;12194,403;  155,720;35020,146;34,52999
 347,74;12344,311;  133,260;35609,353;34,42051
 348,33;12577,989;  164,875;36283,924;34,36722
 348,92;12841,208;  176,415;37066,266;34,33137
 349,52;13016,718;  148,645;37602,332;34,35729
 350,11;13066,636;  156,794;37697,685;34,38875
 350,70;13093,264;  162,642;37771,459;34,38189
 351,29;13004,048;  157,023;37552,657;34,35434
 351,89;12986,597;  176,101;37613,949;34,21804
 352,48;13016,020;  145,257;37509,464;34,44677
 353,07;13022,263;  160,335;37406,190;34,53251
 353,67;13042,781;  181,876;37388,654;34,56603
 354,26;12961,818;  171,874;37003,888;34,72507
 354,85;12911,991;  173,720;36791,213;34,78739
 355,45;12879,686;  146,487;36537,291;34,99016
 356,04;12973,807;  164,720;36517,067;35,23593
 356,63;13002,402;  186,949;36286,242;35,50057
 357,22;12970,542;  172,408;36112,313;35,60982
 357,82;12929,613;  170,024;35836,984;35,77425
 358,41;12931,767;  186,872;35698,638;35,88922
 359,00;13051,548;  156,487;35476,710;36,50900
 359,60;13104,175;  177,719;35442,282;36,65565
 360,19;13131,393;  172,182;35093,989;37,10922
 360,78;13143,948;  170,333;35045,620;37,20002
 361,37;13157,452;  170,103;34689,049;37,62383
 361,97;13240,176;  178,718;34609,657;37,93524
 362,56;13165,101;  157,102;34199,360;38,21133
 363,15;13223,371;  194,256;33822,249;38,74485
 363,74;13169,693;  159,178;33411,408;39,12674
 364,34;13150,244;  181,333;32994,923;39,52299
 364,93;13081,190;  155,948;32325,768;40,17816
 365,52;12950,568;  144,949;31933,189;40,28414
 366,11;13016,039;  169,333;31585,452;40,89209
 366,71;12998,300;  147,641;31182,117;41,40769
 367,30;12894,979;  158,641;30714,487;41,68216
 367,89;12999,149;  198,643;30466,580;42,29065
 368,48;12993,240;  174,332;30077,729;42,86773
 369,07;12877,495;  167,642;29537,229;43,27556
 369,67;12897,626;  193,563;29190,547;43,81167
 370,26;12883,888;  165,796;28885,703;44,28320
 370,85;12948,692;  168,410;28578,524;44,98497
 371,44;12956,689;  173,795;28140,359;45,70777
 372,03;12928,120;  153,025;27949,511;45,95939
 372,63;12888,035;  144,641;27601,219;46,41290
 373,22;12941,011;  163,796;27326,374;47,03977
 373,81;12879,739;  147,718;26869,012;47,64747
 374,40;12969,633;  157,181;26564,944;48,51775
 374,99;12866,682;  161,026;26242,539;48,71518
 375,59;12970,013;  165,720;25904,760;49,74658
 376,18;13045,029;  180,026;25821,525;50,17259
 376,77;13095,125;  171,257;25510,955;51,00246
 377,36;13206,679;  191,180;25502,605;51,42144
 377,95;13200,924;  169,871;25181,668;52,09963
 378,55;13277,840;  153,489;24978,531;52,86739
 379,14;13402,265;  173,410;24834,248;53,64317
 379,73;13500,856;  166,179;24713,912;54,32142
 380,32;13731,745;  177,257;24766,707;55,12318
 380,91;13828,878;  161,332;24640,122;55,83424
 381,50;13949,144;  175,179;24579,558;56,44055
 382,10;13978,976;  145,334;24417,630;56,99354
 382,69;14172,252;  146,333;24365,637;57,91214
 383,28;14314,837;  176,871;24298,068;58,61221
 383,87;14331,239;  155,564;24180,508;59,00399
 384,46;14490,651;  150,255;24047,124;60,00952
 385,05;14662,191;  185,717;24078,816;60,58851
 385,64;14807,501;  165,179;24033,913;61,34520
 386,24;14987,027;  142,639;23992,187;62,24180
 386,83;15146,919;  179,485;24061,397;62,67268
 387,42;15384,587;  177,487;24209,696;63,27799
 388,01;15722,503;  177,715;24514,193;63,87444
 388,60;16215,836;  164,639;24795,222;65,16775
 389,19;16474,286;  156,714;25053,688;65,54038
 389,78;16840,904;  169,637;25296,400;66,34864
 390,37;17395,216;  215,023;25806,903;67,13142
 390,96;17690,202;  170,178;26032,301;67,74395
 391,56;17970,758;  173,790;26257,000;68,23151
 392,15;18272,281;  160,253;26514,561;68,72511
 392,74;18597,321;  145,250;26681,422;69,53554
 393,33;19106,437;  157,328;27045,341;70,47419
 393,92;19640,773;  177,787;27567,611;71,05919
 394,51;19926,996;  148,098;27797,377;71,53495
 395,10;20353,643;  187,016;28058,157;72,35666
 395,69;20613,791;  170,862;28154,982;73,05189
 396,28;20774,825;  186,476;28286,360;73,26845
 396,87;21103,782;  187,628;28391,969;74,15934
 397,46;21317,495;  187,472;28471,995;74,70525
 398,06;21670,753;  203,163;28767,659;75,15480
 398,65;22017,958;  175,312;28875,101;76,10734
 399,24;22292,223;  189,619;29063,796;76,54800
 399,83;22411,320;  175,919;28978,610;77,19904
 400,42;22790,978;  207,067;29270,952;77,70438
 401,01;23114,369;  176,598;29319,107;78,70898
 401,60;23188,404;  203,743;29363,301;78,82376
 402,19;23380,844;  206,120;29215,859;79,88601
 402,78;23568,341;  216,185;29180,986;80,62253
 403,37;23556,060;  201,712;29043,850;80,97301
 403,96;23635,691;  198,468;28875,055;81,72947
 404,55;23654,925;  212,992;28776,948;82,06823
 405,14;23703,816;  193,440;28588,694;82,79685
 405,73;23766,501;  201,117;28445,237;83,43466
 406,32;23852,677;  208,645;28338,330;84,05367
 406,91;23775,878;  200,326;28007,970;84,78083
 407,50;23714,014;  195,473;27823,289;85,12631
 408,09;23651,062;  171,084;27439,797;86,10593
 408,68;23697,147;  202,466;27328,050;86,61447
 409,27;23644,533;  176,393;27109,685;87,13431
 409,86;23663,487;  198,479;26895,199;87,89472
 410,45;23677,622;  227,718;26847,385;88,09240
 411,04;23716,185;  237,341;26735,280;88,60630
 411,63;23507,446;  204,044;26415,476;88,90549
 412,22;23318,474;  207,746;26136,748;89,13081
 412,81;23265,737;  216,980;25854,453;89,90261
 413,40;22963,001;  226,600;25382,850;90,38072
 413,99;22803,523;  257,675;24974,142;91,21792
 414,58;22471,028;  201,446;24573,447;91,37363
 415,17;22336,857;  210,057;24298,652;91,85592
 415,76;22331,430;  201,823;24171,299;92,32412
 416,35;22210,979;  193,440;23936,880;92,73104
 416,94;22405,400;  221,823;24041,201;93,13248
 417,53;22855,999;  201,673;24319,907;93,93029
 418,12;22958,812;  191,058;24465,135;93,79452
 418,71;23468,266;  215,831;24866,777;94,32675
 419,30;23729,057;  202,059;24960,996;95,02427
 419,89;24056,203;  200,059;25179,166;95,50439
 420,48;24427,724;  232,908;25526,410;95,65625
 421,07;24652,779;  217,447;25613,046;96,21877
 421,66;24668,795;  195,295;25639,735;96,18408
 422,25;24669,590;  204,530;25493,880;96,74056
 422,84;24747,517;  237,300;25451,738;97,20707
 423,43;24523,222;  214,375;25083,290;97,74792
 424,02;24312,739;  230,376;24809,080;97,98060
 424,60;23841,875;  197,149;24372,594;97,80472
 425,19;23662,337;  218,070;23940,401;98,82784
 425,78;23633,406;  221,993;23936,793;98,72069
 426,37;23511,394;  228,303;23769,010;98,90566
 426,96;23553,668;  220,764;23592,285;99,83477
 427,55;23401,264;  215,459;23368,413;100,14189
 428,14;23137,129;  209,076;23122,670;100,06310
 428,73;23104,232;  212,227;22921,978;100,80254
 429,32;23168,602;  225,918;22936,568;101,02170
 429,91;23178,960;  249,074;22896,597;101,24677
 430,50;23080,792;  228,690;22737,717;101,52417
 431,08;22928,949;  255,538;22496,122;101,94611
 431,67;22917,221;  294,231;22411,541;102,28635
 432,26;22714,069;  302,310;22068,052;102,96804
 432,85;22245,041;  316,771;21756,888;102,27682
 433,44;21911,158;  326,695;21243,932;103,18984
 434,03;21542,372;  344,544;20858,224;103,33508
 434,62;21125,377;  303,465;20376,293;103,73183
 435,21;20935,837;  325,694;20135,004;104,04271
 435,79;20768,222;  307,466;19984,562;103,98260
 436,38;20662,380;  308,238;19903,583;103,87233
 436,97;20629,258;  311,930;19761,807;104,45993
 437,56;20347,141;  305,318;19553,773;104,12172
 438,15;20314,623;  283,010;19481,088;104,34176
 438,74;20329,360;  288,933;19468,153;104,49031
 439,33;20410,387;  252,779;19509,904;104,67611
 439,91;20539,691;  227,088;19593,008;104,88840
 440,50;20619,307;  273,550;19608,518;105,22778
 441,09;20801,421;  262,552;19748,782;105,40196
 441,68;20919,497;  260,938;19794,724;105,75809
 442,27;20840,744;  233,784;19751,365;105,58153
 442,86;20857,469;  214,557;19705,378;105,91094
 443,44;21015,704;  231,172;19702,639;106,74353
 444,03;21127,384;  279,711;19794,337;106,83102
 444,62;20936,277;  238,327;19625,595;106,76053
 445,21;20702,095;  253,557;19416,843;106,70684
 445,80;20629,677;  258,559;19260,543;107,20522
 446,39;20267,730;  272,867;18932,130;107,15784
 446,97;20063,130;  230,485;18758,107;107,04366
 447,56;19780,039;  237,871;18434,285;107,39571
 448,15;19578,749;  239,100;18260,782;107,31323
 448,74;19357,772;  243,639;17964,839;107,86027
 449,33;19133,242;  236,717;17824,044;107,44398
 449,91;18824,857;  236,181;17520,467;107,54668
 450,50;18640,009;  232,104;17292,784;107,89667
 451,09;18504,891;  255,488;17166,297;107,91561
 451,68;18345,310;  262,182;17080,099;107,52300
 452,26;18228,586;  257,413;16962,683;107,57786
 452,85;18148,073;  232,490;16864,462;107,71773
 453,44;18230,219;  254,877;16908,517;107,93642
 454,03;18116,555;  234,337;16909,537;107,23840
 454,61;18172,507;  235,801;16853,529;107,93717
 455,20;18378,842;  256,186;16998,289;108,24599
 455,79;18336,643;  251,492;17033,984;107,76201
 456,38;18448,086;  265,880;17100,651;108,00389
 456,97;18550,088;  236,803;17132,026;108,39327
 457,55;18596,997;  240,497;17180,146;108,36411
 458,14;18554,372;  266,341;17108,459;108,58510
 458,73;18493,515;  258,035;17096,927;108,29383
 459,31;18514,218;  275,883;17122,277;108,26254
 459,90;18658,683;  278,113;17248,644;108,30875
 460,49;18812,983;  303,882;17347,468;108,59863
 461,08;18913,194;  234,346;17474,595;108,34442
 461,66;18985,457;  255,422;17504,165;108,58783
 462,25;18985,177;  244,962;17614,493;107,89131
 462,84;19096,789;  270,269;17641,069;108,38027
 463,43;18964,108;  228,733;17571,064;108,03262
 464,01;19017,609;  260,734;17617,925;108,06400
 464,60;18910,189;  285,810;17527,142;108,02170
 465,19;18635,266;  228,504;17235,594;108,22993
 465,77;18567,848;  265,890;17223,871;107,92534
 466,36;18425,907;  260,964;17067,421;108,08312
 466,95;17999,208;  239,811;16644,889;108,25548
 467,53;17588,034;  255,891;16346,969;107,71275
 468,12;17284,254;  277,430;15969,302;108,37983
 468,71;16952,075;  248,043;15672,628;108,29485
 469,29;16584,615;  239,584;15371,177;108,01923
 469,88;16332,337;  240,123;15182,948;107,69191
 470,47;16457,454;  300,356;15341,993;107,41582
 471,06;16378,707;  253,971;15269,539;107,38678
 471,64;16504,430;  256,586;15373,272;107,48284
 472,23;16464,754;  249,513;15385,202;107,13249
 472,81;16567,907;  236,049;15594,297;106,33933
 473,40;16780,455;  250,282;15722,138;106,84027
 473,99;16958,207;  322,128;15924,083;106,62817
 474,57;17076,664;  243,282;16082,129;106,27908
 475,16;17305,780;  255,973;16287,231;106,35352
 475,75;17390,650;  268,514;16361,634;106,39413
 476,33;17462,444;  282,515;16476,432;106,08878
 476,92;17517,457;  277,282;16561,773;105,86867
 477,51;17552,517;  274,592;16616,085;105,73040
 478,09;17550,868;  268,822;16597,976;105,83553
 478,68;17352,987;  264,207;16472,491;105,43238
 479,27;17435,642;  278,975;16579,362;105,25313
 479,85;17404,379;  267,746;16611,456;104,85155
 480,44;17531,024;  258,747;16835,871;104,19345
 481,02;19633,544;  265,671;19069,960;102,99710
 481,61;21844,101;  293,593;21203,313;103,06454
 482,20;23189,155;  295,363;22431,363;103,42335
 482,78;24039,125;  318,208;23356,918;102,96113
 483,37;24650,230;  302,442;23830,641;103,48343
 483,95;24909,027;  338,827;24163,959;103,12723
 484,54;25180,505;  339,670;24343,763;103,48583
 485,13;24981,454;  311,444;24146,860;103,50149
 485,71;24680,720;  305,905;23814,806;103,68335
 486,30;24239,994;  332,443;23527,620;103,07122
 486,88;23883,864;  364,136;22940,725;104,17751
 487,47;22917,734;  353,521;22006,292;104,20936
 488,05;21780,639;  333,676;20952,987;104,01397
 488,64;20099,648;  332,677;19321,962;104,09539
 489,23;17619,620;  341,676;16682,047;105,73777
 489,81;15197,165;  341,292;14676,175;103,63442
 490,40;14469,492;  288,831;14151,557;102,29345
 490,98;14212,820;  278,293;13934,651;102,03692
 491,57;14069,433;  313,061;13863,372;101,52072
 492,15;13946,044;  294,678;13751,043;101,44913
 492,74;13823,166;  293,060;13627,117;101,47028
 493,32;13677,016;  304,523;13535,186;101,07198
 493,91;13530,548;  284,524;13437,838;100,70484
 494,50;13453,271;  284,758;13349,667;100,79299
 495,08;13292,544;  259,219;13302,895;99,92065
 495,67;13241,645;  304,832;13234,749;100,05333
 496,25;13092,452;  234,372;13162,696;99,45666
 496,84;13040,717;  246,986;13128,719;99,31685
 497,42;12887,006;  236,065;13077,760;98,51457
 498,01;12824,595;  266,371;12988,788;98,70942
 498,59;12690,678;  225,834;12857,310;98,68082
 499,18;12622,087;  241,063;12786,117;98,69247
 499,76;12481,756;  246,218;12692,560;98,30629
 500,35;12222,766;  254,220;12507,295;97,67790
 500,93;12105,830;  237,218;12461,060;97,09396
 501,52;12079,221;  233,603;12373,985;97,57204
 502,10;11981,165;  241,529;12331,676;97,10086
 502,69;11689,393;  226,837;12076,184;96,73575
 503,27;11488,216;  212,450;11857,599;96,82802
 503,86;11395,258;  236,760;11766,740;96,77812
 504,44;11234,750;  219,761;11629,203;96,54275
 505,03;10926,395;  201,376;11364,253;96,07756
 505,61;10719,936;  206,299;11203,215;95,60532
 506,19;10539,972;  247,607;11027,498;95,47745
 506,78;10285,615;  205,686;10753,364;95,56538
 507,36;10012,070;  219,684;10593,535;94,39490
 507,95; 9863,124;  220,071;10439,651;94,35860
 508,53; 9687,358;  219,070;10277,220;94,13548
 509,12; 9501,904;  227,917;10112,165;93,82592
 509,70; 9300,787;  243,148; 9944,573;93,36400
 510,29; 9145,519;  245,534; 9798,896;93,16076
 510,87; 8888,221;  214,916; 9572,274;92,68968
 511,46; 8688,570;  210,840; 9368,511;92,57517
 512,04; 8519,126;  215,918; 9242,335;91,98787
 512,62; 8315,920;  219,994; 9082,479;91,35052
 513,21; 8105,002;  201,918; 8827,212;91,62684
 513,79; 7964,971;  209,844; 8694,672;91,39994
 514,38; 7774,615;  186,920; 8532,567;90,91800
 514,96; 7624,708;  237,305; 8439,573;90,06537
 515,54; 7445,143;  201,767; 8252,486;89,97179
 516,13; 7296,679;  218,229; 8105,937;89,74026
 516,71; 7120,878;  217,076; 8022,877;88,44450
 517,30; 7005,337;  202,308; 7863,511;88,79844
 517,88; 6894,759;  226,154; 7770,525;88,39180
 518,46; 6719,788;  208,616; 7636,123;87,66296
 519,05; 6596,451;  212,617; 7578,718;86,66504
 519,63; 6529,367;  212,001; 7487,128;86,83513
 520,22; 6425,821;  219,541; 7415,684;86,24454
 520,80; 6386,160;  206,310; 7350,243;86,50486
 521,38; 6352,067;  228,155; 7323,074;86,31405
 521,97; 6227,823;  218,542; 7268,992;85,23258
 522,55; 6181,502;  219,081; 7222,920;85,13076
 523,13; 6159,950;  209,543; 7255,213;84,45481
 523,72; 6121,672;  207,154; 7223,214;84,29971
 524,30; 6232,865;  229,543; 7385,845;83,88861
 524,89; 6234,623;  211,311; 7356,090;84,30368
 525,47; 6241,863;  215,082; 7476,190;83,00084
 526,05; 6299,274;  187,082; 7549,075;83,02360
 526,64; 6405,089;  218,237; 7674,342;82,97699
 527,22; 6497,636;  232,313; 7880,326;81,92092
 527,80; 6556,268;  258,929; 7958,361;81,78965
 528,39; 6601,084;  207,160; 8051,292;81,51218
 528,97; 6737,393;  218,545; 8222,408;81,44627
 529,55; 6851,010;  227,773; 8414,389;80,90323
 530,14; 7038,287;  240,238; 8626,388;81,06281
 530,72; 7097,975;  213,006; 8745,838;80,68797
 531,30; 7179,702;  194,315; 8907,332;80,17185
 531,89; 7189,181;  218,469; 8973,310;79,62123
 532,47; 7288,295;  243,546; 9089,641;79,63682
 533,05; 7265,533;  236,006; 9155,393;78,81177
 533,63; 7302,719;  247,085; 9245,598;78,40889
 534,22; 7301,963;  209,239; 9221,440;78,70135
 534,80; 7307,158;  250,394; 9329,936;77,72158
 535,38; 7348,208;  308,623; 9380,503;77,59787
 535,97; 7206,936;  242,623; 9404,170;76,01678
 536,55; 7273,988;  288,471; 9473,699;76,05164
 537,13; 7200,189;  294,469; 9407,582;75,77784
 537,71; 7179,004;  345,622; 9534,868;74,36281
 538,30; 7234,029;  370,547; 9542,205;74,83361
 538,88; 7263,241;  414,010; 9751,429;73,35251
 539,46; 7432,760;  483,701; 9945,787;73,44109
 540,05; 7436,495;  495,241;10125,120;72,08039
 540,63; 7586,705;  562,010;10299,314;72,14209
 541,21; 7620,820;  582,780;10485,742;71,07005
 541,79; 7674,222;  640,088;10635,258;70,37533
 542,38; 7761,695;  658,702;10826,330;69,85890
 542,96; 7848,668;  677,858;10940,358;69,87390
 543,54; 7972,204;  683,703;11138,771;69,71261
 544,12; 8028,308;  656,242;11366,704;68,83052
 544,70; 7990,412;  640,089;11431,801;68,11081
 545,29; 8124,999;  637,010;11550,040;68,61512
 545,87; 8091,222;  598,011;11603,797;68,08429
 546,45; 8015,425;  562,933;11632,882;67,32183
 547,03; 8046,382;  523,703;11727,895;67,14165
 547,62; 8073,086;  490,703;11820,053;66,92690
 548,20; 8215,282;  490,473;12038,079;66,89533
 548,78; 8182,745;  434,783;12178,628;65,97466
 549,36; 8305,829;  389,629;12392,390;65,95316
 549,94; 8384,378;  367,857;12539,788;65,86072
 550,53; 8489,421;  375,167;12824,516;65,17814
 551,11; 8538,316;  337,784;13020,592;64,65865
 551,69; 8749,743;  338,475;13313,993;64,82414
 552,27; 8854,841;  298,090;13626,539;64,19915
 552,85; 9075,735;  296,091;14068,932;63,74606
 553,44; 9208,209;  294,937;14307,667;63,60839
 554,02; 9414,694;  304,476;14700,619;63,28236
 554,60; 9519,471;  263,476;15027,641;62,69230
 555,18; 9775,154;  280,706;15453,060;62,57729
 555,76; 9923,109;  264,168;15803,591;62,15765
 556,34;10153,062;  271,016;16256,728;61,81799
 556,93;10383,453;  247,091;16667,788;61,72919
 557,51;10502,318;  236,093;17021,103;61,16306
 558,09;10669,517;  262,245;17452,177;60,54284
 558,67;10896,186;  268,093;17853,169;60,43814
 559,25;11014,859;  270,401;18112,584;60,21941
 559,83;11141,467;  249,171;18437,851;59,88503
 560,41;11310,598;  239,785;18884,554;59,37758
 561,00;11434,246;  262,478;19258,730;58,81038
 561,58;11493,222;  236,015;19518,980;58,37902
 562,16;11645,867;  232,015;19833,741;58,22881
 562,74;11849,245;  214,783;20294,998;57,93993
 563,32;11997,117;  218,248;20721,114;57,44986
 563,90;12173,293;  233,709;21175,680;57,01270
 564,48;12316,289;  243,246;21675,149;56,33211
 565,06;12648,215;  245,401;22393,093;56,00048
 565,65;12953,589;  234,634;23133,561;55,54389
 566,23;13312,797;  281,247;23997,417;54,94795
 566,81;13617,277;  236,247;24780,616;54,51772
 567,39;14032,994;  242,787;25859,568;53,83271
 567,97;14326,180;  257,785;26531,013;53,54650
 568,55;14728,646;  269,709;27484,178;53,12959
 569,13;15081,669;  236,170;28229,100;53,03303
 569,71;15500,209;  236,245;29344,235;52,43909
 570,29;15955,688;  273,629;30418,847;52,02171
 570,87;16265,477;  266,014;31153,432;51,79929
 571,45;16488,023;  270,862;31923,464;51,23484
 572,03;16639,970;  228,171;32438,829;50,95146
 572,61;16886,265;  228,171;33210,545;50,50605
 573,20;17138,866;  251,862;34103,577;49,88522
 573,78;17371,839;  242,863;34648,241;49,78575
 574,36;17478,576;  254,709;35193,479;49,29729
 574,94;17580,485;  297,479;35653,012;48,88345
 575,52;17604,908;  263,558;35857,007;48,72062
 576,10;17834,828;  322,250;36544,660;48,34736
 576,68;17951,496;  306,941;37238,141;47,77683
 577,26;18175,185;  330,789;37986,015;47,38890
 577,84;18291,120;  326,094;38476,971;47,08942
 578,42;18297,337;  374,172;38769,524;46,68056
 579,00;18170,715;  326,325;38827,521;46,34763
 579,58;18220,404;  361,172;38954,799;46,27508
 580,16;18021,993;  349,249;39027,635;45,69152
 580,74;18023,335;  343,019;39189,254;45,51359
 581,32;17876,140;  348,095;39273,508;45,02982
 581,90;17741,151;  367,711;39226,771;44,70885
 582,48;17644,023;  368,634;39356,916;44,30918
 583,06;17565,075;  369,941;39423,224;44,02993
 583,64;17517,963;  368,479;39445,682;43,88616
 584,22;17240,418;  365,712;39175,747;43,48027
 584,80;16993,594;  391,480;38879,515;43,13578
 585,38;16659,176;  373,708;38274,434;42,96875
 585,96;16546,370;  349,786;38506,171;42,44790
 586,54;16470,152;  383,635;38583,387;42,11157
 587,12;16376,743;  348,557;38561,234;41,94468
 587,70;16328,097;  380,556;38734,174;41,58028
 588,28;16196,700;  350,557;38764,727;41,25077
 588,86;16136,962;  360,481;38863,028;40,97516
 589,44;16016,241;  338,559;38845,267;40,71416
 590,02;15980,926;  336,020;39109,447;40,34956
 590,59;15945,002;  310,173;39312,139;40,08728
 591,17;15916,827;  310,176;39543,814;39,77875
 591,75;15823,890;  310,483;39541,434;39,54380
 592,33;15839,148;  326,636;39891,261;39,20803
 592,91;15757,111;  284,945;40052,171;38,90683
 593,49;15776,116;  271,792;40377,028;38,65910
 594,07;15801,658;  288,638;40606,934;38,47638
 594,65;15673,200;  296,481;40686,771;38,07034
 595,23;15672,717;  307,482;41016,945;37,74364
 595,81;15582,403;  291,252;41133,539;37,43951
 596,39;15565,608;  284,636;41225,751;37,32427
 596,97;15495,590;  285,099;41483,071;36,92048
 597,55;15296,963;  276,789;41299,518;36,61427
 598,12;15142,494;  255,869;41427,622;36,15737
 598,70;15141,177;  255,022;41524,349;36,07075
 599,28;15087,190;  280,176;41673,267;35,77170
 599,86;14960,723;  268,407;41677,391;35,48099
 600,44;14842,914;  237,100;41728,953;35,20164
 601,02;14837,921;  285,409;41872,013;34,99327
 601,60;14549,655;  253,637;41721,759;34,47472
 602,18;14533,288;  245,869;41663,795;34,49574
 602,75;14359,368;  252,559;41893,536;33,87723
 603,33;14285,019;  265,715;41822,752;33,73509
 603,91;14151,002;  243,947;41929,245;33,36201
 604,49;14142,135;  268,946;41892,737;33,32995
 605,07;13986,539;  276,175;41965,389;32,88708
 605,65;13913,005;  297,254;42137,842;32,54197
 606,23;13798,189;  378,250;42211,507;32,07959
 606,80;13699,462;  438,790;42197,206;31,75569
 607,38;13599,133;  498,639;42309,266;31,33293
 607,96;13571,158;  539,405;42424,419;31,11316
 608,54;13503,099;  624,177;42467,743;30,77874
 609,12;13396,321;  614,790;42477,124;30,53229
 609,70;13289,945;  646,868;42485,301;30,21881
 610,27;13220,926;  668,328;42601,140;29,93503
 610,85;13105,876;  690,022;42628,419;29,60498
 611,43;12928,147;  689,022;42548,838;29,23836
 612,01;12751,017;  650,175;42272,395;29,07303
 612,59;12713,915;  635,022;42383,789;28,93233
 613,16;12566,786;  596,866;42290,231;28,70941
 613,74;12426,724;  567,099;42102,439;28,55309
 614,32;12308,108;  500,638;42000,448;28,45186
 614,90;12178,297;  454,022;41961,260;28,24634
 615,48;11949,916;  396,866;41565,337;28,06286
 616,05;11862,204;  380,404;41557,061;27,88424
 616,63;11713,569;  384,865;41351,169;27,65371
 617,21;11596,512;  360,097;41256,628;27,47523
 617,79;11426,190;  342,790;41118,642;27,18128
 618,36;11359,633;  353,637;41024,597;27,06107
 618,94;11125,041;  293,020;40813,259;26,73237
 619,52;11001,044;  322,019;40483,520;26,59020
 620,10;10881,932;  302,021;40323,834;26,43536
 620,67;10783,428;  322,404;40267,241;26,18868
 621,25;10686,087;  326,791;40095,017;26,04918
 621,83;10562,070;  315,866;40078,847;25,76820
 622,41;10508,232;  343,174;39919,043;25,68499
 622,98;10315,419;  316,942;39774,997;25,33951
 623,56;10276,268;  320,019;39647,392;25,31633
 624,14;10124,846;  308,022;39527,859;25,03025
 624,72;10059,643;  296,174;39581,879;24,85247
 625,29; 9997,204;  277,327;39600,542;24,71791
 625,87; 9919,250;  318,636;39555,972;24,46806
 626,45; 9806,754;  271,403;39309,825;24,42555
 627,02; 9766,793;  287,790;39277,157;24,31176
 627,60; 9652,226;  271,792;39256,473;24,06185
 628,18; 9587,936;  252,405;39339,201;23,88410
 628,76; 9540,146;  266,096;39321,924;23,74562
 629,33; 9490,568;  291,635;39291,149;23,58730
 629,91; 9421,471;  273,559;39180,757;23,51213
 630,49; 9448,900;  287,481;39402,812;23,42156
 631,06; 9334,749;  282,481;39580,361;23,03500
 631,64; 9283,712;  283,865;39601,059;22,89036
 632,22; 9167,785;  244,787;39393,173;22,79276
 632,79; 9219,183;  262,710;39742,860;22,68601
 633,37; 9158,274;  252,329;39779,231;22,53135
 633,95; 9127,852;  252,634;39893,938;22,38881
 634,52; 9065,416;  239,097;39880,477;22,26542
 635,10; 9040,854;  241,251;39961,247;22,15409
 635,68; 9073,661;  250,941;40204,530;22,08242
 636,25; 8982,686;  239,248;40145,366;21,91002
 636,83; 8992,377;  228,558;40389,847;21,82156
 637,41; 8913,301;  233,710;40466,885;21,57322
 637,98; 8948,941;  253,018;40584,212;21,56128
 638,56; 8921,069;  246,478;40654,269;21,46762
 639,13; 8860,918;  232,173;40817,781;21,26060
 639,71; 8878,284;  266,942;40859,456;21,21411
 640,29; 8749,689;  217,789;40632,952;21,11064
 640,86; 8717,171;  226,404;40870,934;20,89031
 641,44; 8731,500;  226,789;40861,146;20,92985
 642,02; 8671,982;  254,789;40916,743;20,70041
 642,59; 8695,310;  227,327;41038,955;20,74895
 643,17; 8626,484;  230,481;41028,321;20,57953
 643,74; 8568,505;  221,481;41136,226;20,40102
 644,32; 8551,525;  248,789;41013,900;20,36726
 644,89; 8526,084;  239,635;40967,573;20,34586
 645,47; 8509,643;  267,020;41087,170;20,19254
 646,05; 8430,664;  239,404;40918,690;20,13619
 646,62; 8373,222;  238,635;40991,749;19,96065
 647,20; 8397,089;  248,405;41090,961;19,95146
 647,77; 8288,956;  220,943;40967,250;19,80060
 648,35; 8228,361;  215,866;40785,924;19,74977
 648,92; 8262,381;  243,097;40971,290;19,68976
 649,50; 8124,863;  203,789;40772,810;19,52493
 650,08; 8105,345;  204,020;40660,945;19,53022
 650,65; 8108,520;  215,020;40987,311;19,35996
 651,23; 8276,925;  194,866;42080,754;19,29542
 651,80; 8394,407;  216,482;43057,428;19,08904
 652,38; 8503,889;  228,405;43389,025;19,17369
 652,95; 8496,448;  195,174;43809,699;19,03328
 653,53; 8518,776;  219,328;44027,680;18,94490
 654,10; 8551,027;  255,713;44137,892;18,90361
 654,68; 8475,202;  207,021;44039,874;18,86298
 655,25; 8466,914;  197,405;44184,855;18,79970
 655,83; 8440,243;  202,944;44298,606;18,68052
 656,40; 8425,802;  237,175;44162,434;18,64218
 656,98; 8389,514;  215,175;44094,646;18,62908
 657,55; 8387,843;  235,482;43847,858;18,69277
 658,13; 8228,786;  209,252;43345,532;18,59116
 658,70; 8190,191;  223,713;42975,513;18,63425
 659,28; 7946,981;  215,790;41871,956;18,55954
 659,85; 7787,002;  215,406;41208,169;18,47057
 660,43; 7794,330;  230,175;41275,381;18,42884
 661,00; 7786,427;  212,637;41378,055;18,39843
 661,58; 7813,063;  215,329;41784,959;18,27713
 662,15; 7839,391;  202,406;42055,710;18,24703
 662,73; 7949,412;  263,098;42371,307;18,25372
 663,30; 7958,124;  217,483;42662,134;18,23702
 663,88; 7966,991;  226,483;42862,962;18,15466
 664,45; 7992,319;  209,098;42987,328;18,19435
 665,03; 8093,417;  217,406;43393,463;18,24162
 665,60; 8185,591;  273,560;43853,906;18,15504
 666,17; 8144,612;  217,176;43972,119;18,11781
 666,75; 8176,478;  215,022;44405,023;18,01642
 667,32; 8250,729;  241,560;44667,082;18,02831
 667,90; 8331,519;  220,560;44930,217;18,14140
 668,47; 8342,924;  239,099;45249,583;18,00431
 669,05; 8432,791;  215,868;45531,411;18,13268
 669,62; 8360,042;  195,791;45570,315;17,99303
 670,19; 8417,832;  201,022;45767,604;18,03254
 670,77; 8498,006;  216,561;45905,586;18,12568
 671,34; 8460,642;  206,253;45801,798;18,10350
 671,92; 8532,816;  204,484;46193,779;18,10929
 672,49; 8530,683;  217,868;46163,838;18,09259
 673,06; 8535,550;  179,099;46164,589;18,17193
 673,64; 8514,724;  191,330;46127,262;18,11957
 674,21; 8535,052;  184,099;46115,475;18,18137
 674,79; 8611,611;  218,715;46377,764;18,18256
 675,36; 8581,555;  216,330;46463,438;18,08810
 675,93; 8577,652;  199,099;46308,111;18,17118
 676,51; 8657,134;  222,253;46651,554;18,16715
 677,08; 8669,847;  219,869;46685,997;18,18524
 677,65; 8682,098;  214,100;46764,210;18,19115
 678,23; 8770,657;  202,484;47044,114;18,29179
 678,80; 8762,062;  203,023;47186,557;18,21710
 679,38; 8761,929;  199,023;47309,462;18,17624
 679,95; 8901,257;  215,715;47559,059;18,34586
 680,52; 8924,432;  203,100;47923,809;18,27578
 681,10; 9041,991;  213,792;48328,714;18,34815
 681,67; 9109,319;  217,869;48570,618;18,38872
 682,24; 9126,724;  192,023;48705,446;18,41697
 682,82; 9231,590;  208,408;49303,966;18,37882
 683,39; 9396,380;  245,639;49683,024;18,50976
 683,96; 9407,016;  209,562;49866,621;18,52195
 684,54; 9471,729;  200,716;50280,987;18,51231
 685,11; 9597,596;  228,716;50464,276;18,64990
 685,68; 9644,154;  206,254;51016,489;18,57480
 686,25; 9652,867;  189,947;51151,162;18,56887
 686,83; 9766,119;  197,485;51293,298;18,72684
 687,40; 9855,985;  191,639;51519,741;18,82857
 687,97; 9952,929;  231,024;52037,491;18,76581
 688,55; 9957,949;  181,485;52073,473;18,84003
 689,12;10018,585;  179,408;52305,839;18,87560
 689,69;10058,452;  193,101;52450,128;18,87852
 690,26;10132,626;  192,870;52511,494;18,99850
 690,84;10215,262;  196,716;52630,860;19,10691
 691,41;10221,667;  203,947;52716,688;19,07674
 691,98;10408,995;  208,947;53095,823;19,28654
 692,56;10373,016;  197,562;53117,805;19,22790
 693,13;10454,190;  252,870;53225,017;19,25789
 693,70;10508,211;  217,101;53373,152;19,36018
 694,27;10550,539;  195,409;53438,672;19,44871
 694,84;10620,944;  195,870;53580,885;19,52809
 695,42;10765,657;  228,794;53772,020;19,67917
 695,99;10755,908;  213,178;53933,001;19,62540
 696,56;10750,852;  198,332;53748,829;19,70574
 697,13;10915,487;  210,332;54180,503;19,83532
 697,71;10922,277;  178,640;54240,715;19,87278
 698,28;10990,375;  189,794;54616,850;19,84414
 698,85;11056,703;  167,255;54590,063;20,00898
 699,42;11184,262;  173,717;54824,429;20,14712
 699,99;11233,590;  216,486;54767,564;20,19594
 700,57;11277,687;  208,948;54890,007;20,24236
 701,14;11315,939;  205,256;55054,296;20,25684
 701,71;11387,190;  216,871;55360,355;20,25682
 702,28;11435,980;  204,717;55273,951;20,39480
 702,85;11542,077;  212,179;55337,010;20,55317
 703,43;11608,713;  215,640;55681,530;20,54068
 704,00;11724,349;  244,717;55832,742;20,65127
 704,57;11702,908;  223,487;55768,493;20,66688
 705,14;11826,005;  243,487;56074,628;20,74562
 705,71;11968,949;  240,487;56105,840;20,99416
 706,28;11940,892;  216,641;56015,899;21,01148
 706,86;12070,144;  248,641;56298,649;21,09099
 707,43;12170,779;  256,718;56113,631;21,32961
 708,00;12199,492;  242,795;56150,766;21,38639
 708,57;12221,282;  212,872;56044,825;21,50813
 709,14;12287,687;  256,025;56299,806;21,46833
 709,71;12325,323;  227,872;56352,326;21,55469
 710,28;12427,882;  210,564;56579,230;21,67395
 710,86;12523,672;  229,641;56655,058;21,78811
 711,43;12585,692;  244,180;56635,040;21,88566
 712,00;12658,790;  219,410;56838,252;21,97039
 712,57;12760,810;  221,795;56843,541;22,14523
 713,14;12853,215;  204,795;57009,676;22,26643
 713,71;12823,466;  228,026;56904,504;22,22340
 714,28;12898,795;  209,487;56970,639;22,35562
 714,85;12939,969;  190,718;56684,082;22,56770
 715,42;13048,297;  197,565;56937,141;22,64862
 716,00;13162,779;  244,334;57021,738;22,75279
 716,57;13211,492;  203,565;57092,565;22,86545
 717,14;13248,435;  202,719;57090,624;22,93232
 717,71;13302,148;  183,103;57055,605;23,06747
 718,28;13429,169;  213,026;57124,817;23,22215
 718,85;13474,266;  196,411;57226,953;23,28201
 719,42;13561,825;  211,488;57222,934;23,41694
 719,99;13583,230;  203,642;57086,685;23,52122
 720,56;13690,943;  203,103;57435,128;23,56694
 721,13;13811,194;  204,257;57535,186;23,73403
 721,70;13804,830;  193,180;57437,321;23,77824
 722,27;13846,851;  211,719;57421,764;23,83346
 722,84;14029,487;  239,565;57653,823;24,01829
 723,41;14064,892;  192,565;57481,266;24,21477
 723,98;14212,528;  199,104;57759,170;24,34574
 724,55;14284,779;  219,181;57773,460;24,43884
 725,12;14329,184;  169,412;57777,980;24,57928
 725,69;14516,051;  196,642;58016,423;24,76559
 726,27;14584,456;  203,719;58054,327;24,85840
 726,84;14780,399;  206,950;58371,924;25,05537
 727,41;14845,343;  207,335;58265,059;25,21285
 727,98;14950,363;  216,643;58690,348;25,19717
 728,55;15020,922;  221,643;58516,484;25,38695
 729,12;15082,020;  175,643;58677,542;25,48016
 729,69;15215,886;  223,797;58919,293;25,54215
 730,26;15363,445;  231,720;59051,659;25,72550
 730,82;15390,235;  202,258;58868,179;25,88893
 731,39;15508,409;  206,797;58973,622;26,03784
 731,96;15732,276;  191,335;59370,757;26,26072
 732,53;15748,373;  212,181;59529,431;26,19169
 733,10;15874,702;  226,105;59500,336;26,40034
 733,67;16045,261;  227,566;59947,932;26,48626
 734,24;16005,050;  198,797;59458,452;26,67287
 734,81;16200,148;  228,182;59670,895;26,86951
 735,38;16141,476;  200,720;59276,261;26,98368
 735,95;16180,496;  194,336;59088,320;27,14396
 736,52;16357,363;  222,797;59340,071;27,29247
 737,09;16353,460;  210,720;58986,129;27,46513
 737,66;16457,096;  254,413;59063,034;27,55155
 738,23;16592,963;  187,567;59049,553;27,87095
 738,80;16846,522;  248,720;59406,996;28,05660
 739,37;16891,773;  229,259;59627,901;28,05201
 739,94;16986,794;  211,336;59763,036;28,16957
 740,51;17110,968;  298,182;59765,018;28,27254
 741,07;17151,912;  205,182;59732,615;28,46877
 741,64;17322,086;  236,798;59973,442;28,60102
 742,21;17413,876;  209,798;60078,039;28,73657
 742,78;17408,742;  191,798;59765,021;28,90048
 743,35;17583,224;  209,875;59994,925;29,05969
 743,92;17752,322;  236,413;60110,753;29,25445
 744,49;17800,342;  228,721;59996,888;29,39963
 745,06;17866,286;  210,259;59967,023;29,54649
 745,63;17936,306;  197,336;60016,159;29,65450
 746,19;18028,096;  203,952;60052,448;29,78211
 746,76;18185,501;  224,952;60094,583;29,99943
 747,33;18193,214;  209,337;59963,334;30,09653
 747,90;18368,619;  223,029;60152,008;30,27849
 748,47;18460,332;  223,260;60038,451;30,48903
 749,04;18502,737;  223,414;59988,048;30,58552
 749,61;18606,604;  237,414;60035,183;30,71885
 750,17;18790,932;  226,568;60126,011;30,99255
 750,74;18813,029;  229,875;59996,146;31,09305
 751,31;18773,742;  203,260;59962,589;31,07545
 751,88;18850,763;  187,799;59765,955;31,32518
 752,45;18927,321;  209,183;59956,706;31,32873
 753,02;19001,188;  222,568;59724,764;31,55954
 753,58;19064,747;  196,414;59735,746;31,69054
 754,15;19189,460;  207,491;59899,727;31,79973
 754,72;19149,403;  202,260;59571,093;31,91429
 755,29;19179,655;  181,414;59555,844;31,99734
 755,86;19253,829;  215,414;59606,287;32,05613
 756,42;19422,696;  225,414;59578,884;32,34399
 756,99;19510,024;  185,568;59460,481;32,60141
 757,56;19529,506;  201,645;59517,308;32,58475
 758,13;19640,142;  168,799;59363,213;32,89389
 758,70;19815,624;  180,491;59339,963;33,19018
 759,26;19905,260;  183,030;59428,868;33,28880
 759,83;19961,434;  188,184;59567,696;33,29979
 760,40;20057,378;  178,799;59306,985;33,61946
 760,97;20072,937;  173,415;59394,966;33,60182
 761,53;20041,803;  168,722;58987,025;33,78724
 762,10;20116,901;  167,646;58951,468;33,93664
 762,67;20277,844;  193,030;59018,757;34,14291
 763,24;20239,865;  157,261;58488,507;34,42855
 763,80;20396,731;  179,569;58742,258;34,52226
 764,37;20398,521;  177,569;58588,317;34,61855
 764,94;20361,926;  168,261;58114,913;34,84872
 765,50;20401,870;  173,184;58069,895;34,93927
 766,07;20557,967;  207,108;58155,030;35,11922
 766,64;20537,218;  173,877;57753,319;35,36565
 767,21;20502,700;  177,569;57698,762;35,33503
 767,77;20659,567;  202,569;57592,975;35,64533
 768,34;20730,126;  205,954;57624,033;35,74514
 768,91;20807,993;  202,108;57349,091;36,05769
 769,47;20936,936;  201,108;57426,227;36,23554
 770,04;20893,188;  208,416;57209,977;36,28808
 770,61;20994,977;  194,646;56990,036;36,62327
 771,18;20972,690;  175,877;56880,710;36,67556
 771,74;21177,941;  193,877;56977,691;36,95431
 772,31;21159,808;  198,493;56724,134;37,08284
 772,88;21266,752;  182,339;56494,193;37,44223
 773,44;21265,003;  182,724;56290,943;37,57432
 774,01;21432,331;  196,877;56440,925;37,75591
 774,58;21448,428;  184,108;55982,060;38,10950
 775,14;21584,910;  182,570;56141,041;38,24683
 775,71;21671,623;  181,801;56143,331;38,40106
 776,27;21768,644;  233,493;55958,774;38,64521
 776,84;21886,895;  244,416;55957,832;38,84608
 777,41;21844,300;  200,724;55784,198;38,93887
 777,97;21774,782;  196,262;55585,257;38,95814
 778,54;21909,880;  207,109;55557,084;39,21008
 779,11;22017,900;  214,724;55625,835;39,34802
 779,67;22112,228;  184,570;55452,278;39,67535
 780,24;22158,556;  201,647;55296,721;39,85276
 780,80;22223,731;  226,878;55326,702;39,92182
 781,37;22341,213;  203,186;55200,761;40,25273
 781,94;22307,772;  199,186;54977,358;40,36021
 782,50;22443,946;  203,571;54938,185;40,63311
 783,07;22441,890;  228,724;54978,398;40,57223
 783,63;22460,064;  192,186;54739,302;40,82320
 784,20;22604,469;  225,186;54656,976;41,11436
 784,77;22590,259;  210,955;54484,573;41,23422
 785,33;22624,279;  182,494;54207,323;41,53976
 785,90;22751,146;  200,725;54230,151;41,73730
 786,46;22730,474;  220,879;54116,594;41,76509
 787,03;22813,033;  196,263;53894,576;42,11821
 787,59;22869,746;  194,648;53812,788;42,28998
 788,16;22936,689;  211,110;53761,077;42,43808
 788,73;22938,556;  218,802;53550,905;42,60052
 789,29;22940,807;  208,033;53154,501;42,93539
 789,86;23014,289;  223,264;53030,560;43,15886
 790,42;23096,387;  213,879;52940,464;43,39843
 790,99;22955,407;  226,879;52570,907;43,42144
 791,55;23040,351;  203,571;52554,966;43,62210
 792,12;23170,064;  212,802;52582,024;43,83732
 792,68;23084,238;  206,264;52168,929;44,02772
 793,25;23086,182;  210,187;51994,910;44,17518
 793,81;23033,971;  254,648;51568,199;44,39241
 794,38;23013,146;  185,725;51320,181;44,64195
 794,94;23154,782;  185,187;51222,085;45,00586
 795,51;23076,956;  211,418;50860,221;45,14527
 796,07;22958,438;  209,956;50686,202;45,06770
 796,64;23059,920;  229,649;50757,491;45,18355
 797,20;23004,556;  215,187;50174,396;45,61595
 797,77;22945,192;  189,418;49875,454;45,79913
 798,33;23029,828;  206,341;49774,743;46,04443
 798,90;23081,540;  233,034;49724,494;46,16656
 799,46;22949,176;  206,726;49100,322;46,51417
 800,03;23021,812;  209,034;49080,149;46,67947
 800,59;22999,756;  222,264;48763,362;46,92414
 801,15;22938,315;  228,418;48620,728;46,92873
 801,72;22965,874;  219,880;48234,555;47,37300
 802,28;22826,433;  238,188;47968,152;47,32508
 802,85;22857,453;  217,265;47728,826;47,65196
 803,41;22831,320;  215,649;47496,269;47,83286
 803,98;22759,571;  202,034;47048,097;48,15247
 804,54;22729,515;  206,803;46901,540;48,23394
 805,11;22673,458;  216,188;46594,444;48,42198
 805,67;22709,094;  236,034;46530,964;48,54324
 806,23;22603,499;  221,265;46115,330;48,76934
 806,80;22702,520;  237,188;45995,619;49,09550
 807,36;22718,079;  240,265;45897,524;49,23163
 807,93;22647,099;  239,727;45659,582;49,33387
 808,49;22655,581;  207,342;45210,795;49,88115
 809,05;22643,294;  197,881;45048,161;50,04520
 809,62;22669,622;  232,881;45033,527;50,08129
 810,18;22714,796;  227,650;44947,201;50,28482
 810,74;22746,432;  192,727;44570,720;50,82182
 811,31;22662,453;  202,958;44352,471;50,87144
 811,87;22687,319;  210,573;44203,222;51,09205
 812,44;22737,955;  240,881;44250,973;51,11799
 813,00;22646,514;  177,112;43940,262;51,34320
 813,56;22792,689;  227,266;43925,166;51,63960
 814,13;22793,940;  216,881;43841,609;51,75289
 814,69;22868,730;  207,804;43638,898;52,17673
 815,25;22639,827;  183,343;43212,341;52,18919
 815,82;22690,463;  231,958;43176,400;52,29665
 816,38;22764,176;  237,574;42958,458;52,72972
 816,94;22683,735;  203,574;42525,824;53,11665
 817,51;22570,140;  195,804;42458,344;52,94129
 818,07;22619,853;  198,343;42081,941;53,53291
 818,63;22684,027;  226,497;41908,230;53,87859
 819,20;22664,355;  209,805;41773,443;54,02451
 819,76;22523,991;  198,882;41306,039;54,30954
 820,32;22627,242;  243,882;41325,559;54,48502
 820,89;22558,417;  232,805;41078,925;54,65785
 821,45;22431,514;  198,113;40632,215;54,98676
 822,01;22504,381;  225,497;40460,427;55,37200
 822,57;22556,478;  214,497;40355,485;55,65877
 823,14;22445,960;  184,267;40116,236;55,74905
 823,70;22417,058;  205,190;39802,756;56,09402
 824,26;22394,001;  209,574;39682,584;56,20151
 824,82;22395,329;  223,113;39485,257;56,47225
 825,39;22365,273;  214,497;39172,623;56,85791
 825,95;22436,755;  230,728;39266,605;56,88620
 826,51;22328,775;  223,575;38820,509;57,27191
 827,08;22505,488;  257,498;38952,645;57,49556
 827,64;22433,201;  231,805;38690,395;57,72805
 828,20;22333,221;  201,882;38397,531;57,94204
 828,76;22489,703;  221,190;38328,743;58,43596
 829,32;22478,955;  233,652;38126,186;58,70630
 829,89;22433,668;  190,498;38111,860;58,65604
 830,45;22560,765;  206,652;38030,610;59,10041
 831,01;22449,247;  205,113;37722,284;59,29054
 831,57;22564,267;  217,729;37617,727;59,75011
 832,14;22686,826;  198,883;37692,709;59,97772
 832,70;22659,001;  204,037;37307,613;60,51968
 833,26;22714,329;  179,191;37317,902;60,67830
 833,82;22703,965;  205,421;37142,576;60,91033
 834,38;22870,062;  201,037;37198,327;61,27212
 834,95;22931,621;  191,575;36947,539;61,86764
 835,51;22942,642;  163,729;36838,213;62,11107
 836,07;22988,278;  211,268;36955,118;61,98863
 836,63;23164,683;  222,191;36963,714;62,44295
 837,19;23223,011;  210,729;36849,311;62,80888
 837,75;23093,108;  172,114;36450,139;63,18148
 838,32;23239,052;  224,268;36537,197;63,37903
 838,88;23329,765;  216,499;36500,256;63,70141
 839,44;23363,170;  204,114;36559,468;63,70191
 840,00;23341,267;  209,576;36392,757;63,92940
 840,56;23344,980;  188,960;36187,046;64,32570
 841,12;23463,847;  195,268;36058,258;64,88187
 841,68;23379,098;  184,345;35778,240;65,16498
 842,25;23538,426;  185,576;35913,375;65,36325
 842,81;23496,293;  183,807;35694,895;65,64847
 843,37;23587,698;  178,115;35578,800;66,12749
 843,93;23627,411;  193,268;35427,166;66,51022
 844,49;23713,970;  209,038;35531,840;66,54323
 845,05;23604,913;  177,115;35335,975;66,63412
 845,61;23824,472;  210,730;35427,879;67,05183
 846,17;23757,570;  195,653;35242,630;67,22953
 846,73;23824,282;  208,730;35127,458;67,63005
 847,29;23778,995;  178,115;35024,824;67,72772
 847,86;23793,477;  192,038;34892,959;68,01387
 848,42;23841,959;  178,423;34646,556;68,65337
 848,98;23844,980;  206,500;34603,307;68,72289
 849,54;24028,616;  206,115;34727,134;69,00868
 850,10;23897,405;  198,423;34609,654;68,86991
 850,66;23854,195;  182,731;34318,559;69,34492
 851,22;23891,831;  183,038;34269,848;69,55416
 851,78;24070,390;  231,577;34292,214;69,98933
 852,34;24002,257;  201,654;34021,042;70,37562
 852,90;24028,815;  189,885;33930,869;70,65274
 853,46;24029,067;  196,115;33696,543;71,14223
 854,02;24046,856;  205,423;33844,602;70,87401
 854,58;23995,877;  187,269;33464,660;71,54590
 855,14;24091,513;  180,731;33482,334;71,80069
 855,70;24005,226;  164,885;33303,315;71,94167
 856,26;24059,785;  217,731;33189,451;72,31062
 856,82;23962,805;  195,731;33000,432;72,45021
 857,38;24124,056;  216,731;32892,337;73,16567
 857,94;24001,000;  191,962;32791,241;73,03547
 858,50;24056,020;  204,808;32721,607;73,35043
 859,06;24163,349;  192,424;32436,589;74,34190
 859,62;24196,831;  205,885;32462,032;74,37635
 860,18;24157,774;  197,039;32233,705;74,79160
 860,74;24080,025;  167,424;31992,610;75,13735
 861,30;23967,277;  173,039;31885,976;75,03007
 861,86;24097,066;  231,193;31916,111;75,32250
 862,42;23986,318;  197,424;31619,016;75,70875
 862,98;24218,261;  226,424;31708,997;76,20672
 863,54;24061,051;  210,193;31429,364;76,39812
 864,10;24241,148;  196,116;31583,499;76,60732
 864,66;24013,938;  179,886;31252,019;76,70556
 865,22;24060,112;  195,963;31120,077;77,17003
 865,78;23996,748;  212,578;30975,828;77,31358
 866,34;24042,077;  183,347;30863,809;77,76522
 866,90;24066,866;  211,424;30786,637;78,02216
 867,45;24036,271;  209,732;30603,080;78,39393
 868,01;23952,523;  198,578;30345,369;78,79427
 868,57;23925,774;  199,424;30190,966;79,11014
 869,13;23931,948;  179,194;30059,178;79,49386
 869,69;23897,200;  191,578;29977,775;79,58593
 870,25;23872,528;  182,425;29802,680;79,97940
 870,81;23979,471;  192,040;29779,584;80,39677
 871,37;23895,569;  198,809;29672,489;80,39973
 871,93;23895,666;  211,040;29467,778;80,95443
 872,49;23711,456;  203,348;29227,529;80,99491
 873,04;23716,553;  186,579;29072,972;81,45695
 873,60;23668,497;  184,579;29020,415;81,44005
 874,16;23665,825;  205,117;28906,088;81,74186
 874,72;23682,671;  193,733;28815,627;82,06633
 875,28;23701,671;  205,425;28750,704;82,31220
 875,84;23730,056;  197,348;28576,473;82,92260
 876,40;23800,440;  203,963;28639,704;82,98176
 876,95;23843,594;  206,887;28566,550;83,34622
 877,51;23981,902;  213,810;28619,165;83,67469
 878,07;23987,056;  239,887;28596,473;83,74481
 878,63;23949,440;  188,271;28632,550;83,53585
 879,19;24018,210;  216,887;28548,242;84,01053
 879,75;24134,979;  199,963;28573,396;84,35714
 880,30;24226,210;  198,194;28644,012;84,46941
 880,86;24447,594;  221,887;28644,319;85,23446
 881,42;24649,902;  182,887;28720,396;85,73634
 881,98;24879,671;  217,040;28888,088;86,01929
 882,54;24942,825;  192,271;28968,319;86,01096
 883,09;25157,133;  207,502;29062,242;86,46632
 883,65;25321,825;  186,656;29171,935;86,71702
 884,21;25619,671;  216,348;29334,627;87,24184
 884,77;25669,902;  190,733;29363,627;87,33850
 885,32;25841,979;  191,040;29538,935;87,40299
 885,88;26107,210;  222,502;29729,088;87,72519
 886,44;26269,056;  200,271;29848,550;87,92681
 887,00;26396,056;  222,271;29780,781;88,54907
 887,56;26623,594;  203,963;29923,319;88,89705
 888,11;26692,979;  202,887;29903,550;89,19024
 888,67;26948,979;  227,656;30061,858;89,56607
 889,23;27194,979;  209,194;30121,627;90,21595
 889,79;27106,133;  184,810;30004,165;90,28137
 890,34;27202,902;  207,194;29866,242;91,02014
 890,90;27401,825;  248,348;30086,704;91,00192
 891,46;27272,902;  203,733;29926,858;91,07107
 892,01;27387,748;  220,117;29967,935;91,32647
 892,57;27423,825;  230,887;29852,935;91,79966
 893,13;27370,594;  201,348;29626,012;92,33494
 893,69;27326,748;  197,733;29570,627;92,36072
 894,24;27294,210;  210,579;29460,473;92,59394
 894,80;27267,363;  221,040;29294,088;93,02885
 895,36;27281,363;  202,656;29185,165;93,43120
 895,91;27181,979;  201,502;29076,858;93,43773
 896,47;27216,056;  205,040;28958,550;93,93989
 897,03;27074,133;  200,502;28707,781;94,26937
 897,58;26986,287;  215,963;28487,088;94,69140
 898,14;26965,825;  203,425;28289,012;95,28873
 898,70;26827,287;  182,656;28093,012;95,46503
 899,25;26913,133;  204,810;28166,242;95,51844
 899,81;26831,594;  218,887;28013,704;95,74701
 900,37;26716,210;  178,502;27662,319;96,55758
 900,92;26793,056;  202,502;27768,550;96,46125
 901,48;26753,979;  193,271;27619,935;96,84265
 902,03;26637,287;  199,040;27431,319;97,08422
 902,59;26687,748;  201,887;27311,242;97,70008
 903,15;26636,671;  210,117;27128,242;98,17383
 903,70;26381,671;  205,117;26903,396;98,04585
 904,26;26410,056;  185,887;26797,012;98,54589
 904,82;26440,748;  206,271;26789,088;98,68960
 905,37;26386,594;  212,579;26610,627;99,15133
 905,93;26182,363;  183,040;26431,858;99,04950
 906,48;26342,825;  201,733;26375,781;99,87409
 907,04;26369,825;  222,656;26349,550;100,07760
 907,60;26159,363;  197,887;26149,242;100,03900
 908,15;26243,748;  186,194;25946,012;101,15582
 908,71;26262,979;  230,963;25985,627;101,07690
 909,26;26085,210;  196,963;25748,704;101,31696
 909,82;25985,363;  219,271;25680,319;101,19808
 910,37;25915,594;  237,502;25520,858;101,56125
 910,93;25825,133;  199,271;25373,627;101,79351
 911,48;25733,440;  187,348;25161,242;102,29118
 912,04;25721,902;  198,887;25064,627;102,64330
 912,60;25734,594;  212,348;25142,319;102,37575
 913,15;25756,517;  204,194;24909,627;103,42795
 913,71;25580,210;  197,963;24695,242;103,61251
 914,26;25585,979;  188,887;24590,473;104,07968
 914,82;25583,440;  202,656;24554,627;104,22476
 915,37;25537,748;  195,502;24383,165;104,77344
 915,93;25360,210;  232,887;24263,088;104,56559
 916,48;25238,133;  194,810;24121,704;104,66600
 917,04;25064,363;  208,810;24022,935;104,37316
 917,59;25105,979;  222,733;23936,550;104,93142
 918,15;24906,133;  180,117;23719,858;105,03946
 918,70;24903,287;  197,963;23682,781;105,19700
 919,26;24931,210;  205,194;23613,935;105,62728
 919,81;24821,133;  187,194;23453,473;105,87829
 920,37;24851,210;  190,348;23302,627;106,70026
 920,92;24929,133;  213,117;23274,935;107,17289
 921,48;24688,133;  178,040;23010,781;107,34626
 922,03;24710,056;  185,425;22983,012;107,57556
 922,59;24764,287;  185,502;22879,165;108,30682
 923,14;24716,210;  191,425;22735,012;108,78830
 923,69;24698,517;  208,579;22682,704;108,96949
 924,25;24628,594;  207,117;22665,858;108,73930
 924,80;24437,748;  206,656;22368,781;109,33560
 925,36;24469,517;  192,271;22349,396;109,56858
 925,91;24350,902;  186,810;22157,319;109,98421
 926,47;24437,979;  178,271;22081,012;110,76106
 927,02;24432,133;  224,810;22034,473;110,99357
 927,57;24370,133;  200,348;21868,627;111,54455
 928,13;24383,133;  188,348;21773,319;112,09088
 928,68;24357,133;  197,117;21651,781;112,60962
 929,24;24097,517;  162,579;21440,935;112,48491
 929,79;24041,594;  199,271;21308,627;112,94671
 930,34;24073,671;  194,117;21157,012;113,91344
 930,90;24068,902;  192,271;21170,396;113,81680
 931,45;24077,210;  210,194;21113,935;114,17581
 932,01;23939,133;  214,348;20992,935;114,17901
 932,56;23887,594;  212,579;20911,473;114,37816
 933,11;23978,056;  209,656;20788,935;115,49676
 933,67;23845,594;  196,733;20679,550;115,45707
 934,22;23798,825;  202,040;20566,319;115,87341
 934,77;23760,979;  226,425;20470,781;116,25242
 935,33;23649,287;  204,963;20404,319;116,06471
 935,88;23569,671;  205,963;20250,550;116,55869
 936,43;23408,287;  191,194;20158,935;116,27301
 936,99;23403,671;  197,579;20138,012;116,37707
 937,54;23204,825;  192,194;19903,396;116,74900
 938,09;23262,133;  208,963;19897,550;117,08900
 938,65;23199,902;  209,194;19727,396;117,79112
 939,20;23202,287;  181,502;19554,704;118,82798
 939,75;23064,594;  186,810;19473,242;118,62113
 940,31;23008,979;  185,502;19369,473;118,97160
 940,86;23067,902;  209,271;19460,012;118,74157
 941,41;22950,594;  260,425;19257,473;119,44050
 941,96;22880,748;  196,502;19153,858;119,65934
 942,52;22844,825;  196,887;19042,088;120,17880
 943,07;22699,056;  177,271;18909,242;120,23179
 943,62;22587,133;  197,733;18786,012;120,44902
 944,18;22589,748;  183,348;18717,242;120,89418
 944,73;22584,210;  197,579;18656,242;121,27980
 945,28;22392,979;  166,271;18430,627;121,69445
 945,83;22393,517;  194,887;18436,858;121,68987
 946,39;22370,594;  193,348;18448,012;121,48811
 946,94;22221,671;  213,887;18275,781;121,84649
 947,49;22151,825;  198,733;18224,550;121,78695
 948,04;22181,594;  208,425;18156,319;122,42756
 948,59;22029,902;  210,656;18075,012;122,13844
 949,15;22090,517;  186,040;17929,473;123,45118
 949,70;21916,517;  193,348;17860,473;122,95815
 950,25;21894,133;  204,271;17713,319;123,87802
 950,80;21778,671;  166,117;17698,704;123,27077
 951,36;21879,594;  166,733;17559,242;124,84030
 951,91;21850,748;  210,810;17509,935;125,09268
 952,46;21669,671;  172,963;17336,627;125,24545
 953,01;21814,210;  200,733;17339,858;126,10607
 953,56;21707,210;  183,502;17212,165;126,39693
 954,11;21617,133;  201,040;17124,165;126,54928
 954,67;21618,133;  195,194;17055,550;127,06101
 955,22;21497,825;  170,271;16944,781;127,14264
 955,77;21512,517;  208,040;16938,088;127,34259
 956,32;21466,748;  242,040;16779,550;128,34283
 956,87;21328,671;  178,348;16650,012;128,40429
 957,42;21374,287;  182,579;16580,704;129,23250
 957,98;21339,133;  188,348;16506,781;129,61284
 958,53;21337,902;  202,579;16464,165;129,97086
 959,08;21203,133;  185,963;16320,781;130,25973
 959,63;21051,056;  198,194;16254,088;129,87667
 960,18;21121,594;  202,810;16157,627;131,11266
 960,73;21010,210;  198,656;16124,858;130,67493
 961,28;20898,979;  173,194;15976,396;131,14927
 961,83;20896,133;  211,579;16002,396;130,99103
 962,39;20814,056;  181,502;15885,319;131,38560
 962,94;20748,902;  213,810;15735,165;132,30218
 963,49;20677,825;  192,810;15576,396;133,16151
 964,04;20696,748;  203,348;15577,627;133,29666
 964,59;20510,825;  171,348;15518,012;132,53354
 965,14;20561,210;  210,194;15419,781;133,80387
 965,69;20454,594;  194,425;15307,858;134,05405
 966,24;20406,056;  184,271;15227,319;134,42611
 966,79;20367,287;  199,271;15055,781;135,75204
 967,34;20243,979;  178,194;14961,935;135,72874
 967,89;20297,056;  186,733;14977,858;135,96209
 968,44;20152,133;  189,656;14863,319;136,04290
 968,99;20157,133;  196,733;14780,242;136,86966
 969,55;20018,056;  198,271;14676,396;136,89469
 970,10;19867,440;  209,733;14566,550;136,92246
 970,65;19735,671;  209,502;14533,319;136,31959
 971,20;19601,287;  186,348;14402,935;136,56540
 971,75;19462,517;  179,117;14194,012;137,59219
 972,30;19440,902;  196,271;14152,935;137,88848
 972,85;19298,594;  188,887;14044,781;137,91753
 973,40;19225,902;  186,733;13914,704;138,68888
 973,95;19200,979;  202,502;13907,935;138,62004
 974,50;19144,748;  220,579;13814,396;139,21159
 975,05;19038,671;  199,733;13705,627;139,48679
 975,60;19041,363;  203,425;13629,473;140,30889
 976,15;18796,979;  194,040;13549,935;139,28636
 976,70;18710,363;  197,579;13435,858;139,84284
 977,25;18674,440;  208,348;13392,704;140,06063
 977,80;18446,902;  191,887;13189,704;140,44678
 978,35;18302,287;  205,579;13034,012;141,06718
 978,89;18183,133;  186,194;13015,165;140,28357
 979,44;18286,287;  193,348;12934,627;142,00253
 979,99;17937,902;  181,425;12762,935;141,13153
 980,54;17856,517;  221,963;12770,396;140,53192
 981,09;17672,979;  212,733;12629,473;140,61860
 981,64;17505,440;  208,194;12536,012;140,31070
 982,19;17483,748;  249,194;12427,165;141,52237
 982,74;17399,287;  209,887;12265,473;142,58452
 983,29;17280,748;  183,194;12156,935;142,79209
 983,84;17091,363;  205,887;12052,165;142,53824
 984,39;17077,671;  226,656;11990,473;143,24445
 984,94;16905,902;  176,733;11904,550;142,64521
 985,49;16898,133;  219,810;11813,396;143,85818
 986,03;16888,979;  215,810;11696,781;145,22438
 986,58;16681,517;  238,502;11563,704;145,18960
 987,13;16482,440;  206,271;11472,396;144,46999
 987,68;16439,748;  223,425;11362,858;145,57584
 988,23;16330,056;  207,502;11298,550;145,36547
 988,78;16138,287;  201,887;11167,242;145,33409
 989,33;15998,287;  202,963;11052,396;145,58663
 989,88;15971,440;  222,810;10979,704;146,40500
 990,42;15883,594;  202,194;10865,473;147,05983
 990,97;15625,287;  198,348;10741,319;146,32439
 991,52;15505,517;  219,040;10607,473;147,14902
 992,07;15404,979;  232,194;10517,012;147,52605
 992,62;15276,594;  209,810;10439,627;147,28303
 993,17;15159,594;  214,810;10330,627;147,73680
 993,71;15041,979;  208,810;10243,781;147,81477
 994,26;14816,902;  180,194;10077,627;147,88388
 994,81;14736,287;  223,194;10031,012;147,97474
 995,36;14513,440;  195,348; 9867,165;148,03932
 995,91;14487,748;  204,579; 9807,704;148,73460
 996,45;14276,210;  209,887; 9706,012;148,12698
 997,00;14135,902;  184,348; 9588,165;148,36054
 997,55;14109,056;  202,271; 9541,319;148,91009
 998,10;13963,287;  229,963; 9395,012;149,84453
 998,65;13921,594;  197,502; 9292,935;150,88993
 999,19;13689,056;  218,348; 9195,704;150,05206
 999,74;13554,594;  234,271; 9084,473;150,50869
1000,29;13573,902;  219,194; 9015,396;151,82357
1000,84;13345,517;  199,348; 8899,088;151,10990
1001,38;13223,133;  204,810; 8750,858;152,33150
1001,93;13134,440;  224,117; 8772,781;151,02154
1002,48;12966,825;  192,348; 8523,704;153,33011
1003,03;12984,210;  212,810; 8510,858;153,90848
1003,57;12832,671;  213,040; 8434,319;153,49961
1004,12;12722,440;  235,117; 8333,473;154,19578
1004,67;12592,671;  201,348; 8217,165;154,58590
1005,22;12395,133;  194,425; 8108,473;154,16520
1005,76;12175,287;  197,425; 7977,012;153,96527
1006,31;12144,902;  225,348; 7937,319;154,55911
1006,86;12082,825;  197,348; 7798,473;156,36471
1007,40;11783,748;  188,425; 7636,396;155,68432
1007,95;11707,748;  205,963; 7567,550;156,24057
1008,50;11430,210;  213,810; 7449,704;155,01056
1009,04;11370,594;  208,887; 7371,858;155,82511
1009,59;11149,133;  216,194; 7204,781;156,43991
1010,14;10936,748;  189,040; 7142,627;154,56351
1010,68;10840,133;  206,271; 6986,242;156,84228
1011,23;10775,363;  195,810; 6919,550;157,34626
1011,78;10642,671;  210,963; 6842,627;157,30152
1012,32;10528,594;  208,194; 6707,165;158,80052
1012,87;10524,902;  233,502; 6705,627;159,01114
1013,42;10322,825;  202,579; 6568,165;158,98372
1013,96;10340,056;  224,194; 6614,704;158,29507
1014,51;10240,056;  176,579; 6475,627;159,76187
1015,06;10248,440;  172,348; 6479,165;159,76509
1015,60;10349,902;  245,887; 6533,935;160,68604
1016,15;10268,671;  197,425; 6518,627;159,32486
1016,69;10313,210;  201,810; 6552,550;159,21608
1017,24;10402,440;  172,502; 6506,858;161,49927
1017,79;10517,902;  225,117; 6620,242;160,94736
1018,33;10478,056;  198,502; 6595,012;160,70567
1018,88;10566,594;  207,425; 6625,473;161,40685
1019,42;10569,363;  202,579; 6661,935;160,49255
1019,97;10529,287;  202,810; 6624,012;160,81844
1020,51;10630,594;  208,810; 6662,550;161,48441
1021,06;10629,133;  183,887; 6649,242;161,55718
1021,61;10567,363;  180,425; 6599,935;161,80268
1022,15;10482,210;  161,271; 6557,781;161,35266
1022,70;10498,902;  203,733; 6576,165;161,55791
1023,24;10452,210;  199,963; 6505,165;162,59981
1023,79;10452,825;  203,194; 6449,319;164,09583
1024,33;10315,056;  191,194; 6382,704;163,51201
1024,88;10185,979;  206,194; 6296,627;163,86003
1025,42;10075,210;  193,502; 6186,088;164,89887
1025,97; 9990,517;  192,348; 6128,242;165,06644
1026,51; 9823,440;  165,117; 6003,319;165,43318
1027,06; 9697,287;  185,194; 5922,473;165,79449
1027,60; 9495,210;  213,117; 5810,242;165,83679
1028,15; 9387,979;  206,733; 5733,088;166,13563
1028,69; 9190,287;  168,271; 5602,396;166,02517
1029,24; 9114,825;  191,887; 5581,935;165,54469
1029,78; 9036,594;  183,117; 5456,935;167,87606
1030,33; 8861,133;  184,733; 5368,396;167,37969
1030,87; 8752,902;  193,117; 5270,242;168,59511
1031,42; 8619,594;  175,194; 5197,012;168,15427
1031,96; 8485,671;  201,425; 5167,858;166,80476
1032,51; 8373,210;  187,733; 5066,242;167,78643
1033,05; 8384,363;  201,656; 5011,704;170,11696
1033,60; 8214,979;  169,810; 4895,242;170,25254
1034,14; 8059,440;  193,271; 4822,396;169,92778
1034,69; 7944,056;  188,502; 4739,627;170,40960
1035,23; 7851,594;  188,348; 4689,473;170,25180
1035,77; 7784,133;  192,733; 4637,319;170,80104
1036,32; 7683,210;  171,656; 4575,704;170,56021
1036,86; 7612,056;  194,425; 4512,935;171,76367
1037,41; 7458,517;  209,579; 4451,319;170,89538
1037,95; 7340,210;  168,733; 4362,858;170,98863
1038,50; 7242,517;  183,425; 4315,550;170,83443
1039,04; 7194,056;  199,271; 4230,935;173,49624
1039,58; 7083,594;  176,810; 4179,781;172,54145
1040,13; 6952,210;  194,117; 4108,627;172,64212
1040,67; 6907,133;  211,579; 4116,012;171,48596
1041,21; 6804,056;  225,579; 4019,935;173,37533
1041,76; 6738,594;  174,117; 3944,088;174,12539
1042,30; 6646,517;  195,887; 3907,627;173,78992
1042,85; 6541,594;  186,656; 3852,704;173,34575
1043,39; 6434,210;  177,502; 3762,165;174,54101
1043,93; 6428,825;  200,733; 3716,935;177,12556
1044,48; 6289,210;  206,194; 3644,088;176,94016
1045,02; 6234,133;  182,963; 3618,473;176,13600
1045,56; 6132,671;  207,194; 3571,935;176,10503
1046,11; 6066,825;  199,887; 3518,242;176,80258
1046,65; 5946,594;  198,887; 3500,473;174,08926
1047,19; 5792,748;  183,656; 3419,858;173,32331
1047,74; 5739,594;  170,425; 3338,550;175,78755
1048,28; 5690,363;  197,810; 3357,396;173,83774
1048,82; 5610,902;  210,579; 3288,165;175,47266
1049,37; 5595,287;  197,348; 3244,242;177,16199
1049,91; 5491,902;  195,887; 3185,704;177,13508
1050,45; 5393,825;  212,733; 3158,858;175,86125
1050,99; 5331,210;  192,963; 3101,088;176,68588
1051,54; 5212,594;  187,963; 3015,627;177,69550
1052,08; 5186,440;  214,425; 3014,088;177,59332
1052,62; 5149,056;  198,963; 2964,704;178,97892
1053,16; 5030,748;  183,733; 2909,627;177,81377
1053,71; 4980,825;  192,810; 2875,088;178,50550
1054,25; 4890,594;  214,040; 2822,012;179,31770
1054,79; 4836,748;  206,502; 2786,550;179,46356
1055,33; 4743,440;  169,579; 2717,088;179,54246
1055,88; 4705,056;  207,502; 2717,088;179,21493
1056,42; 4687,287;  214,502; 2693,012;180,46267
1056,96; 4586,210;  207,040; 2618,858;181,57135
1057,50; 4499,056;  196,194; 2606,781;178,49853
1058,05; 4411,594;  198,810; 2548,550;179,28724
1058,59; 4387,671;  217,194; 2530,858;180,25426
1059,13; 4282,210;  188,194; 2442,627;181,59847
1059,67; 4235,979;  215,194; 2432,704;181,31983
1060,21; 4191,287;  191,271; 2407,627;180,47713
1060,76; 4126,133;  213,733; 2382,858;180,36766
1061,30; 4103,825;  216,502; 2371,627;180,37576
1061,84; 3998,133;  216,425; 2271,781;183,99285
1062,38; 3956,748;  191,271; 2251,242;182,79270
1062,92; 3928,979;  238,425; 2255,088;183,00296
1063,46; 3864,979;  212,117; 2215,396;182,34414
1064,01; 3808,594;  196,194; 2183,165;181,80435
1064,55; 3750,748;  197,425; 2168,473;180,27582
1065,09; 3688,133;  173,040; 2099,627;182,45183
1065,63; 3712,056;  231,963; 2123,550;183,97743
1066,17; 3635,210;  233,117; 2073,396;184,86830
1066,71; 3630,594;  224,963; 2058,704;185,72044
1067,25; 3517,979;  195,271; 1997,319;184,38507
1067,80; 3517,517;  219,502; 2006,088;184,59869
1068,34; 3463,748;  234,963; 2000,088;182,92102
1068,88; 3361,671;  216,271; 1924,627;184,11856
1069,42; 3391,671;  237,963; 1954,088;183,76911
1069,96; 3347,517;  202,810; 1902,550;185,01106
1070,50; 3316,517;  231,887; 1903,781;184,49916
1071,04; 3225,902;  194,040; 1841,165;184,06991
1071,58; 3201,440;  207,810; 1823,165;185,32331
1072,12; 3152,825;  205,502; 1820,858;182,45659
1072,66; 3121,133;  200,502; 1777,396;185,21412
1073,21; 3101,210;  221,656; 1775,012;185,37633
1073,75; 3039,902;  217,963; 1756,242;183,44778
1074,29; 3012,287;  210,502; 1733,242;183,99621
1074,83; 2993,902;  231,502; 1709,396;186,91459
1075,37; 2923,287;  216,810; 1680,627;184,89171
1075,91; 2902,594;  218,040; 1674,473;184,32392
1076,45; 2829,440;  209,656; 1644,088;182,63559
1076,99; 2830,517;  226,963; 1617,704;187,20632
1077,53; 2752,671;  195,963; 1574,012;185,53110
1078,07; 2740,902;  213,579; 1569,935;186,33187
1078,61; 2724,133;  215,656; 1558,550;186,79631
1079,15; 2661,748;  214,887; 1531,396;185,85975
1079,69; 2661,979;  220,117; 1503,088;190,32864
1080,23; 2656,671;  226,963; 1519,781;187,93898
1080,77; 2631,671;  247,040; 1522,165;187,01153
1081,31; 2562,902;  198,348; 1453,935;188,32265
1081,85; 2526,210;  219,887; 1463,012;185,52624
1082,39; 2490,056;  213,040; 1452,319;183,73713
1082,93; 2490,825;  214,271; 1421,935;188,50896
1083,47; 2435,440;  195,963; 1395,781;186,65149
1084,01; 2452,287;  231,810; 1396,396;190,66655
1084,55; 2394,287;  207,271; 1376,935;186,97817
1085,09; 2344,363;  223,887; 1367,627;185,39845
1085,63; 2339,210;  212,656; 1331,935;189,99321
1086,17; 2290,056;  201,887; 1336,550;184,03424
1086,71; 2279,287;  198,194; 1299,550;188,95732
1087,24; 2249,517;  233,502; 1325,396;184,63468
1087,78; 2233,825;  221,271; 1289,473;188,40575
1088,32; 2177,056;  204,963; 1239,396;190,64482
1088,86; 2175,363;  239,425; 1272,242;187,44249
1089,40; 2143,902;  211,963; 1239,165;188,07777
1089,94; 2113,440;  198,117; 1211,473;189,00796
1090,48; 2085,748;  219,502; 1215,550;187,36507
1091,02; 2069,210;  227,117; 1198,858;189,56630
1091,56; 2027,671;  213,502; 1179,242;187,85268
1092,10; 1972,210;  198,579; 1159,935;184,49265
1092,63; 1991,594;  230,656; 1167,627;187,93945
1093,17; 1964,133;  213,810; 1152,012;186,56145
1093,71; 1913,825;  204,810; 1127,935;185,13369
1094,25; 1933,594;  238,963; 1122,396;191,82342
1094,79; 1890,056;  216,425; 1097,781;189,89276
1095,33; 1868,594;  208,887; 1093,627;187,59262
1095,87; 1842,210;  207,733; 1076,627;188,11000
1096,40; 1787,287;  199,348; 1044,473;187,89392
1096,94; 1788,287;  211,963; 1041,627;189,99548
1097,48; 1807,825;  221,348; 1047,012;192,14571
1098,02; 1766,363;  212,963; 1011,242;194,59366
1098,56; 1716,748;  181,733;  987,242;190,56450
1099,10; 1692,902;  193,963;  983,858;189,76445
1099,63; 1677,287;  197,271;  965,012;192,77550
1100,17; 1694,517;  216,656;  984,550;192,45639
1100,71; 1666,440;  223,194;  984,935;189,46693

