
Integration time [ms]: 160,000
Averaging Nr. [scans]: 13
Smoothing Nr. [pixels]: 0
Data measured with spectrometer [name]: 2009305U1
Wave   ;Sample   ;Dark     ;Reference;Reflectance
[nm]   ;[counts] ;[counts] ;[counts] ;[%]

 175,72;  228,838;  211,481;  218,198;258,39278
 176,32;  241,770;  242,342;  237,064; 0,00000
 176,92;  279,224;  274,024;  286,893;40,40712
 177,52;  275,553;  269,099;  274,399;121,77906
 178,12;  252,691;  242,726;  241,865; 0,00000
 178,72;  283,753;  285,192;  276,001; 0,00000
 179,32;  263,371;  271,804;  258,781; 0,00000
 179,92;  277,442;  271,952;  251,920; 0,00000
 180,52;  258,461;  247,166;  277,718;36,97219
 181,12;  269,026;  273,258;  268,649; 0,00000
 181,73;  298,987;  303,642;  290,175; 0,00000
 182,33;  407,930;  400,787;  408,394;93,90900
 182,93;  281,960;  285,176;  293,730;-37,60467
 183,53;  253,160;  256,655;  235,234; 0,00000
 184,13;  259,712;  258,269;  234,768; 0,00000
 184,73;  307,893;  310,349;  296,521; 0,00000
 185,33;  295,434;  248,820;  394,412;32,01685
 185,93;  298,897;  245,368;  398,196;35,02518
 186,53;  309,800;  265,978;  408,744;30,69509
 187,13;  332,097;  290,044;  447,866;26,64574
 187,73;  298,220;  264,675;  415,930;22,17804
 188,33;  295,184;  245,219;  387,713;35,06481
 188,93;  310,871;  270,930;  405,484;29,68423
 189,53;  308,375;  269,175;  424,072;25,30724
 190,13;  355,372;  303,044;  440,384;38,10070
 190,73;  284,820;  239,106;  383,350;31,69258
 191,34;  319,023;  276,781;  434,912;26,71283
 191,94;  306,101;  252,456;  418,799;32,24964
 192,54;  316,362;  270,574;  439,983;27,02797
 193,14;  308,576;  271,430;  434,086;22,83747
 193,74;  317,730;  277,278;  439,295;24,96779
 194,34;  313,728;  276,273;  426,370;24,95393
 194,94;  283,752;  229,891;  407,340;30,35264
 195,54;  254,880;  215,357;  369,546;25,63229
 196,14;  267,160;  234,578;  405,012;19,11708
 196,74;  270,112;  242,129;  389,416;18,99891
 197,34;  255,269;  211,648;  390,907;24,33397
 197,94;  292,257;  241,044;  415,716;29,31951
 198,54;  287,146;  255,194;  430,267;18,25095
 199,14;  270,843;  222,722;  427,949;23,44812
 199,74;  252,591;  211,106;  431,925;18,78687
 200,34;  248,516;  201,105;  426,377;21,04637
 200,94;  276,415;  249,189;  481,453;11,72219
 201,54;  272,102;  222,339;  476,646;19,56801
 202,14;  321,716;  267,948;  536,358;20,03197
 202,74;  276,516;  230,799;  536,970;14,93188
 203,34;  251,154;  198,866;  546,256;15,05161
 203,94;  240,069;  181,101;  534,318;16,69459
 204,54;  309,568;  260,735;  653,213;12,44233
 205,14;  258,753;  215,491;  657,051; 9,79751
 205,74;  316,428;  257,251;  756,379;11,85604
 206,34;  265,262;  225,486;  763,868; 7,38797
 206,94;  294,282;  234,411;  851,748; 9,69818
 207,54;  251,725;  197,564;  867,836; 8,08052
 208,14;  294,406;  203,255;  963,005;11,99751
 208,74;  300,755;  220,107; 1048,173; 9,73930
 209,34;  302,114;  220,336; 1146,059; 8,83391
 209,94;  310,451;  228,106; 1279,593; 7,83130
 210,54;  321,477;  212,945; 1358,793; 9,47174
 211,14;  338,879;  222,029; 1514,178; 9,04304
 211,73;  361,021;  224,494; 1640,996; 9,63834
 212,33;  361,975;  246,343; 1758,938; 7,64465
 212,93;  372,336;  221,030; 1894,450; 9,04173
 213,53;  347,041;  196,107; 1929,919; 8,70533
 214,13;  390,547;  220,170; 2031,963; 9,40375
 214,73;  361,254;  189,409; 2041,666; 9,27759
 215,33;  350,066;  185,183; 2081,131; 8,69663
 215,93;  391,828;  212,405; 2230,476; 8,89081
 216,53;  378,597;  181,492; 2297,215; 9,31618
 217,13;  449,288;  224,715; 2533,410; 9,72728
 217,73;  438,477;  212,713; 2767,506; 8,83690
 218,33;  417,983;  155,092; 2966,387; 9,35123
 218,93;  501,966;  208,312; 3334,968; 9,39195
 219,53;  537,192;  213,092; 3666,979; 9,38363
 220,13;  517,750;  173,551; 4026,440; 8,93353
 220,73;  571,715;  189,106; 4398,392; 9,08966
 221,32;  618,062;  187,184; 4901,481; 9,13983
 221,92;  684,801;  213,705; 5372,536; 9,13184
 222,52;  690,014;  184,943; 5861,538; 8,89743
 223,12;  753,564;  189,173; 6366,852; 9,13597
 223,72;  783,081;  196,865; 6820,752; 8,85003
 224,32;  828,351;  206,941; 7315,632; 8,74155
 224,92;  843,785;  189,634; 7653,451; 8,76430
 225,52;  903,568;  211,103; 8058,109; 8,82457
 226,12;  895,757;  198,099; 8394,150; 8,51212
 226,72;  896,319;  172,716; 8818,142; 8,36979
 227,31;  938,984;  167,716; 9288,269; 8,45638
 227,91; 1012,739;  207,181; 9795,790; 8,40120
 228,51; 1038,922;  186,034;10198,182; 8,51853
 229,11; 1082,860;  194,408;10644,726; 8,50167
 229,71; 1091,946;  187,031;11067,447; 8,31692
 230,31; 1126,113;  182,016;11517,374; 8,32878
 230,91; 1139,717;  165,576;11911,197; 8,29365
 231,51; 1156,911;  185,174;12242,326; 8,05942
 232,10; 1213,087;  184,861;12643,414; 8,25317
 232,70; 1219,190;  189,504;12859,370; 8,12705
 233,30; 1288,816;  218,944;13193,393; 8,24599
 233,90; 1292,789;  183,560;13313,674; 8,44798
 234,50; 1299,743;  189,174;13436,659; 8,38325
 235,10; 1321,939;  185,403;13455,913; 8,56437
 235,70; 1374,747;  211,720;13468,454; 8,77310
 236,29; 1357,323;  197,415;13436,168; 8,76146
 236,89; 1321,616;  171,190;13193,436; 8,83431
 237,49; 1363,820;  197,869;13088,252; 9,04513
 238,09; 1367,723;  193,871;12729,099; 9,36443
 238,69; 1395,523;  243,194;12505,680; 9,39719
 239,29; 1365,216;  186,564;12046,908; 9,93776
 239,89; 1345,259;  197,421;11575,386;10,08826
 240,48; 1350,619;  184,948;11134,687;10,64565
 241,08; 1337,869;  188,180;10682,952;10,95487
 241,68; 1360,694;  205,640;10272,873;11,47340
 242,28; 1369,741;  171,791; 9848,284;12,38000
 242,88; 1424,833;  233,708; 9478,401;12,88441
 243,48; 1422,534;  238,638; 9155,891;13,27647
 244,07; 1425,481;  198,566; 8855,609;14,17245
 244,67; 1484,593;  214,793; 8693,035;14,97717
 245,27; 1488,559;  209,494; 8466,303;15,49104
 245,87; 1566,018;  211,325; 8363,749;16,61706
 246,47; 1582,125;  203,032; 8352,176;16,92317
 247,06; 1641,433;  188,257; 8320,626;17,86905
 247,66; 1679,763;  188,793; 8410,748;18,13400
 248,26; 1822,080;  208,492; 8598,777;19,23162
 248,86; 1879,697;  217,262; 8812,360;19,34167
 249,46; 1971,856;  154,559; 9031,811;20,47139
 250,05; 2155,355;  213,487; 9546,119;20,80729
 250,65; 2249,822;  176,187; 9989,959;21,12984
 251,25; 2408,542;  188,796;10490,127;21,54814
 251,85; 2593,910;  188,190;11125,846;21,99484
 252,44; 2802,496;  155,645;11908,685;22,52057
 253,04; 3070,715;  203,875;12810,007;22,74163
 253,64; 3275,378;  153,034;13680,640;23,08127
 254,24; 3638,992;  220,718;14831,835;23,39502
 254,84; 3876,317;  188,867;15996,734;23,32668
 255,43; 4176,313;  185,953;17244,536;23,39210
 256,03; 4501,466;  203,726;18451,646;23,55195
 256,63; 4827,512;  201,036;19808,871;23,59503
 257,23; 5135,944;  181,113;20871,414;23,94760
 257,82; 5443,373;  205,733;22198,232;23,81557
 258,42; 5648,130;  151,813;23334,204;23,70902
 259,02; 5978,954;  220,798;24592,594;23,62631
 259,62; 6197,870;  179,814;25547,111;23,72368
 260,21; 6360,664;  196,953;26211,736;23,69311
 260,81; 6516,262;  186,715;26980,120;23,62353
 261,41; 6629,278;  176,580;27633,684;23,50102
 262,01; 6782,535;  227,047;28229,601;23,41032
 262,60; 6799,559;  177,805;28838,491;23,10396
 263,20; 6953,183;  187,494;29286,737;23,25039
 263,80; 6895,850;  201,432;29662,957;22,72258
 264,40; 6879,888;  170,123;29839,945;22,61478
 264,99; 6931,607;  199,048;30127,181;22,49575
 265,59; 6845,548;  189,670;30316,259;22,09303
 266,19; 6832,751;  176,970;30574,780;21,89559
 266,78; 6868,534;  233,205;30823,865;21,69070
 267,38; 6730,808;  208,823;30828,429;21,30003
 267,98; 6694,952;  196,743;30871,434;21,18427
 268,58; 6622,396;  195,438;30913,172;20,92263
 269,17; 6504,764;  177,367;31023,779;20,51259
 269,77; 6402,811;  199,577;30754,570;20,30187
 270,37; 6288,923;  175,971;30671,922;20,04513
 270,96; 6227,898;  228,656;30454,950;19,84776
 271,56; 6045,407;  194,806;30122,767;19,54895
 272,16; 5940,511;  187,735;29971,268;19,31529
 272,75; 5812,559;  186,427;29859,965;18,96010
 273,35; 5743,308;  192,425;29843,931;18,72041
 273,95; 5615,768;  187,196;29778,711;18,34503
 274,54; 5580,824;  167,718;29810,629;18,26105
 275,14; 5606,636;  216,886;30186,602;17,98399
 275,74; 5474,630;  167,427;30271,039;17,62979
 276,33; 5538,616;  224,654;30851,261;17,35080
 276,93; 5537,315;  201,793;31279,415;17,16837
 277,53; 5589,532;  199,569;31882,683;17,01210
 278,12; 5581,332;  183,727;32492,142;16,70650
 278,72; 5753,891;  251,954;33285,317;16,65570
 279,32; 5781,403;  181,955;33862,874;16,62499
 279,91; 5877,605;  168,956;34771,549;16,49775
 280,51; 5991,552;  184,107;35427,430;16,47814
 281,11; 6063,885;  189,033;36405,369;16,22155
 281,70; 6171,202;  173,342;36799,693;16,37581
 282,30; 6304,792;  178,575;37647,075;16,35031
 282,90; 6285,750;  188,114;38160,150;16,05823
 283,49; 6466,517;  202,271;38818,062;16,22198
 284,09; 6621,064;  225,496;39352,713;16,34557
 284,69; 6699,538;  222,493;39716,819;16,39994
 285,28; 6782,316;  212,727;40272,352;16,39953
 285,88; 6951,701;  271,043;40575,343;16,57555
 286,47; 6925,695;  191,806;40555,943;16,68285
 287,07; 7047,733;  223,647;40682,282;16,86682
 287,67; 7205,073;  218,254;40858,814;17,19174
 288,26; 7290,727;  186,493;40795,817;17,49409
 288,86; 7506,182;  184,727;40802,177;18,02540
 289,46; 7652,407;  202,494;40964,118;18,27678
 290,05; 7837,794;  189,873;40945,997;18,76508
 290,65; 8031,089;  188,038;41352,190;19,05311
 291,24; 8302,542;  196,646;41512,007;19,61957
 291,84; 8542,204;  209,575;41660,409;20,10244
 292,44; 8825,678;  200,560;41800,490;20,73349
 293,03; 9111,759;  285,723;41934,340;21,19166
 293,63; 9227,876;  190,960;42113,662;21,55614
 294,22; 9512,898;  227,110;42371,190;22,03344
 294,82; 9631,446;  185,815;42256,231;22,45196
 295,41; 9679,587;  169,726;41928,693;22,77322
 296,01; 9888,787;  224,197;41937,898;23,16886
 296,61; 9880,396;  227,570;41649,594;23,30361
 297,20; 9798,121;  196,197;41109,418;23,46900
 297,80; 9921,041;  214,718;40879,116;23,86934
 298,39; 9809,679;  172,344;40404,615;23,95424
 298,99; 9853,464;  222,349;40273,823;24,04684
 299,58; 9837,077;  207,947;39970,212;24,21675
 300,18; 9807,996;  223,719;39835,925;24,19526
 300,78; 9710,956;  184,183;39324,178;24,34025
 301,37; 9686,213;  202,741;39327,758;24,23889
 301,97; 9721,226;  204,802;39294,553;24,34506
 302,56; 9725,082;  195,345;39240,911;24,40671
 303,16; 9657,038;  176,193;39095,766;24,36010
 303,75; 9713,092;  188,105;39022,882;24,52695
 304,35; 9769,649;  185,712;39371,209;24,45787
 304,94; 9783,707;  184,802;39363,454;24,50035
 305,54; 9841,755;  225,799;39364,788;24,56874
 306,13; 9755,312;  165,865;39235,829;24,54429
 306,73; 9731,021;  175,714;38959,642;24,63729
 307,33; 9765,935;  203,792;38958,373;24,67358
 307,92; 9805,940;  206,415;38898,444;24,81008
 308,52; 9912,068;  177,116;39535,145;24,73435
 309,11;10139,671;  188,506;40084,403;24,94283
 309,71;10209,779;  183,047;40497,883;24,87107
 310,30;10362,431;  171,416;40684,285;25,15501
 310,90;10496,816;  237,031;41231,208;25,02742
 311,49;10527,279;  205,417;41350,330;25,08661
 312,09;10569,177;  162,180;41476,721;25,18967
 312,68;10859,502;  261,414;41986,611;25,39973
 313,28;10868,094;  173,108;42091,290;25,51395
 313,87;10897,167;  158,339;42363,178;25,44454
 314,47;11030,750;  185,889;42609,624;25,56319
 315,06;11082,240;  168,492;42638,934;25,69728
 315,66;11209,254;  179,950;42994,336;25,76074
 316,25;11202,113;  152,577;42865,028;25,86959
 316,85;11231,708;  155,334;42884,519;25,92227
 317,44;11378,809;  176,890;43146,152;26,06961
 318,04;11380,162;  170,806;43057,638;26,13706
 318,63;11372,805;  157,253;43115,078;26,10829
 319,22;11527,867;  187,730;43434,931;26,22167
 319,82;11622,772;  191,112;43397,964;26,45798
 320,41;11578,529;  204,345;43284,244;26,40253
 321,01;11653,662;  200,104;43511,944;26,44440
 321,60;11704,561;  193,881;43642,096;26,49287
 322,20;11681,883;  165,031;43518,037;26,56529
 322,79;11753,331;  206,800;43654,986;26,57540
 323,39;11835,120;  180,790;43572,225;26,85860
 323,98;11887,755;  175,338;43633,481;26,95103
 324,58;11830,389;  167,655;43447,351;26,94736
 325,17;11834,070;  185,269;43201,366;27,08010
 325,76;11866,007;  201,186;43122,636;27,17714
 326,36;11737,851;  169,874;42593,788;27,26759
 326,95;11643,378;  218,649;42178,563;27,22772
 327,55;11569,228;  176,497;41915,346;27,29527
 328,14;11501,605;  172,794;41348,251;27,51350
 328,74;11464,334;  209,038;40829,011;27,70877
 329,33;11363,153;  190,105;40315,939;27,84503
 329,92;11165,691;  166,890;39660,305;27,84971
 330,52;11019,820;  192,178;38900,769;27,97219
 331,11;10823,267;  178,881;38444,687;27,81697
 331,71;10688,681;  186,110;37666,472;28,02153
 332,30;10635,092;  198,878;37106,531;28,27656
 332,89;10477,694;  266,490;36426,984;28,23856
 333,49;10252,853;  198,649;35823,230;28,22266
 334,08;10129,060;  181,497;35198,217;28,40804
 334,68; 9951,563;  188,497;34737,295;28,25877
 335,27; 9902,998;  194,100;34311,321;28,45747
 335,86; 9854,729;  250,573;33898,764;28,54286
 336,46; 9768,941;  202,792;33572,761;28,66694
 337,05; 9674,932;  181,419;33453,737;28,53277
 337,65; 9643,961;  169,650;33172,347;28,70769
 338,24; 9701,944;  230,645;33140,248;28,77974
 338,83; 9687,411;  221,260;33125,328;28,76894
 339,43; 9725,133;  174,269;32976,622;29,11640
 340,02; 9713,681;  181,270;32831,100;29,19590
 340,61; 9763,611;  191,954;32885,805;29,27663
 341,21; 9833,796;  210,653;32927,934;29,41303
 341,80; 9846,648;  189,497;32862,882;29,55663
 342,40; 9864,134;  195,332;33024,003;29,45231
 342,99; 9918,694;  179,490;33101,753;29,58242
 343,58; 9993,769;  178,105;33248,554;29,68107
 344,18;10090,717;  214,950;33488,535;29,68050
 344,77;10240,870;  179,885;33746,098;29,97355
 345,36;10372,455;  175,803;34210,255;29,95979
 345,96;10557,412;  212,105;34584,196;30,09799
 346,55;10680,755;  169,789;34774,204;30,37464
 347,14;10838,867;  173,101;35169,313;30,47692
 347,74;11010,845;  156,013;35698,813;30,54017
 348,33;11267,016;  186,707;36480,186;30,52975
 348,92;11630,056;  191,394;37188,955;30,91734
 349,52;11816,553;  153,550;37759,932;31,01336
 350,11;11995,922;  169,963;38005,963;31,25584
 350,70;12093,646;  176,954;38194,188;31,34550
 351,29;12027,507;  171,897;37901,223;31,42280
 351,89;12150,426;  200,659;37840,505;31,74765
 352,48;12218,989;  150,339;37923,879;31,95001
 353,07;12285,619;  197,408;37836,555;32,11606
 353,67;12326,634;  202,394;37818,604;32,23142
 354,26;12345,727;  190,255;37412,595;32,65639
 354,85;12334,903;  189,026;37287,366;32,73968
 355,45;12366,056;  162,959;36975,643;33,14916
 356,04;12417,414;  183,638;36930,767;33,29179
 356,63;12455,936;  217,111;36670,003;33,57436
 357,22;12458,112;  183,048;36525,690;33,77593
 357,82;12498,132;  180,892;36305,305;34,09672
 358,41;12644,820;  217,263;36129,991;34,60488
 359,00;12584,377;  167,500;35840,289;34,80770
 359,60;12682,699;  185,799;35775,735;35,11358
 360,19;12764,187;  208,098;35547,956;35,52954
 360,78;12814,780;  189,189;35462,705;35,79340
 361,37;12805,143;  180,958;35141,143;36,11018
 361,97;12916,346;  185,572;35077,292;36,48652
 362,56;13012,930;  190,040;34711,396;37,14480
 363,15;13036,271;  253,882;34372,239;37,46484
 363,74;12936,742;  191,735;33926,345;37,78021
 364,34;12963,231;  203,115;33405,107;38,43178
 364,93;12838,338;  183,348;32948,157;38,62372
 365,52;12824,959;  156,650;32451,071;39,22755
 366,11;12877,083;  182,961;32152,418;39,70703
 366,71;12834,559;  178,730;31649,470;40,21459
 367,30;12800,350;  191,650;31259,152;40,58485
 367,89;12865,757;  220,873;30917,492;41,19308
 368,48;12851,545;  204,427;30607,452;41,59822
 369,07;12708,415;  191,415;30016,803;41,96760
 369,67;12789,639;  220,118;29658,538;42,69768
 370,26;12734,372;  172,569;29287,910;43,14496
 370,85;12711,484;  192,188;29025,096;43,42016
 371,44;12779,186;  197,110;28760,135;44,05022
 372,03;12804,784;  166,654;28417,774;44,73497
 372,63;12813,370;  162,188;28050,514;45,36372
 373,22;12800,033;  174,724;27649,618;45,95217
 373,81;12794,701;  178,188;27247,045;46,60896
 374,40;12845,004;  186,102;26994,687;47,21958
 374,99;12805,740;  189,651;26691,749;47,60412
 375,59;12803,901;  158,256;26274,783;48,42009
 376,18;12898,326;  198,343;26161,600;48,91522
 376,77;12981,737;  208,187;25873,834;49,76906
 377,36;13023,212;  212,958;25865,787;49,93700
 377,95;13030,977;  209,499;25474,807;50,74736
 378,55;13071,124;  176,643;25254,559;51,41767
 379,14;13139,737;  206,958;25162,581;51,82310
 379,73;13291,549;  187,729;25007,145;52,79665
 380,32;13408,975;  193,495;25112,805;53,03309
 380,91;13523,851;  168,272;24888,560;54,02679
 381,50;13555,600;  195,732;24793,450;54,31345
 382,10;13636,668;  184,725;24709,574;54,85026
 382,69;13769,464;  160,343;24621,657;55,63529
 383,28;13839,926;  208,654;24566,383;55,96282
 383,87;13910,590;  175,424;24428,279;56,63319
 384,46;13981,872;  173,661;24306,925;57,21651
 385,05;14197,432;  212,886;24303,782;58,04909
 385,64;14233,853;  189,576;24339,572;58,15436
 386,24;14345,223;  167,661;24220,203;58,94413
 386,83;14466,807;  207,432;24279,449;59,23631
 387,42;14664,732;  206,730;24403,679;59,75135
 388,01;14960,925;  193,284;24638,078;60,41221
 388,60;15244,519;  192,737;24934,295;60,83603
 389,19;15530,685;  178,599;25258,789;61,21200
 389,78;15817,567;  182,443;25516,348;61,71620
 390,37;16285,199;  255,049;26044,630;62,15747
 390,96;16470,665;  187,662;26216,686;62,55710
 391,56;16683,135;  191,601;26377,838;62,97787
 392,15;16930,569;  174,826;26689,722;63,19370
 392,74;17215,499;  154,150;26904,368;63,78023
 393,33;17491,230;  193,679;27212,750;64,01978
 393,92;17872,923;  190,155;27681,721;64,32070
 394,51;18147,441;  164,218;27977,079;64,65794
 395,10;18371,206;  202,094;28227,249;64,83144
 395,69;18580,149;  206,168;28372,249;65,23442
 396,28;18750,967;  196,869;28554,213;65,42960
 396,87;18896,993;  205,421;28611,242;65,80191
 397,46;19043,214;  210,353;28729,041;66,03691
 398,06;19215,030;  225,287;29018,224;65,95278
 398,65;19395,974;  196,160;29080,013;66,47248
 399,24;19489,992;  217,088;29277,343;66,32049
 399,83;19577,390;  176,590;29253,316;66,72278
 400,42;19672,387;  224,626;29454,467;66,53393
 401,01;19795,033;  207,128;29571,044;66,70740
 401,60;19942,219;  217,799;29610,593;67,10631
 402,19;19900,959;  236,844;29605,829;66,95538
 402,78;19993,552;  226,835;29615,856;67,25885
 403,37;19879,175;  214,977;29390,074;67,40063
 403,96;19735,738;  227,976;29203,943;67,32394
 404,55;19769,038;  218,445;29138,663;67,60182
 405,14;19628,827;  211,599;28996,034;67,45739
 405,73;19657,628;  223,612;28785,954;68,04069
 406,32;19623,383;  237,134;28829,577;67,80200
 406,91;19394,751;  223,512;28451,200;67,91643
 407,50;19197,798;  238,163;28207,094;67,78820
 408,09;18973,368;  205,880;27879,689;67,81679
 408,68;18946,864;  230,129;27691,801;68,15584
 409,27;18760,406;  210,260;27477,721;68,03034
 409,86;18616,169;  208,898;27355,978;67,80571
 410,45;18535,332;  257,852;27271,554;67,66003
 411,04;18382,952;  244,189;27202,348;67,28488
 411,63;18131,671;  236,436;26878,885;67,16813
 412,22;17940,828;  252,227;26535,489;67,29987
 412,81;17756,244;  274,284;26290,545;67,19628
 413,40;17362,989;  262,336;25837,152;66,86521
 413,99;17151,659;  314,190;25452,504;66,97931
 414,58;16746,103;  235,339;25010,712;66,64184
 415,17;16571,222;  245,745;24729,214;66,67959
 415,76;16335,737;  231,536;24579,646;66,14148
 416,35;16163,028;  226,679;24283,150;66,24558
 416,94;16155,112;  260,762;24360,672;65,95191
 417,53;16240,370;  232,128;24573,694;65,76505
 418,12;16268,660;  243,123;24618,826;65,74390
 418,71;16493,721;  261,027;25197,185;65,09701
 419,30;16507,045;  230,429;25198,617;65,18942
 419,89;16614,939;  217,348;25463,049;64,95201
 420,48;16772,867;  256,643;25830,983;64,58123
 421,07;16843,489;  248,715;25884,029;64,73404
 421,66;16762,036;  215,550;25955,515;64,28325
 422,25;16700,702;  236,297;25951,341;64,02635
 422,84;16643,099;  261,754;25945,006;63,78221
 423,43;16375,439;  248,071;25663,928;63,45396
 424,02;16119,445;  265,221;25298,897;63,33159
 424,60;15714,291;  241,579;24734,056;63,17333
 425,19;15440,912;  256,131;24393,754;62,90918
 425,78;15264,606;  263,515;24327,975;62,33712
 426,37;15042,727;  258,967;24127,053;61,93945
 426,96;14923,475;  246,197;23974,029;61,85680
 427,55;14734,892;  250,336;23815,088;61,46704
 428,14;14553,596;  239,099;23559,774;61,38114
 428,73;14313,548;  238,727;23287,640;61,06501
 429,32;14262,173;  256,122;23272,549;60,85241
 429,91;14191,126;  277,187;23243,981;60,58285
 430,50;14022,288;  260,180;23069,501;60,33546
 431,08;13812,808;  264,480;22903,070;59,84616
 431,67;13672,895;  298,780;22792,481;59,45716
 432,26;13445,012;  316,158;22547,502;59,05560
 432,85;13178,047;  328,391;22187,710;58,78342
 433,44;12874,103;  329,612;21718,486;58,64961
 434,03;12522,587;  359,675;21306,430;58,06585
 434,62;12161,003;  302,227;20804,187;57,84216
 435,21;11932,225;  323,698;20490,492;57,56258
 435,79;11777,591;  317,373;20361,246;57,17567
 436,38;11699,671;  308,205;20228,135;57,18627
 436,97;11492,412;  310,434;20041,745;56,67124
 437,56;11310,238;  301,183;19805,014;56,44560
 438,15;11148,214;  279,881;19799,419;55,67925
 438,74;11155,997;  320,110;19760,262;55,73973
 439,33;11088,035;  281,189;19699,053;55,65414
 439,91;11044,402;  261,719;19851,305;55,04294
 440,50;11049,343;  314,333;19867,853;54,90065
 441,09;11063,178;  314,707;20012,283;54,56748
 441,68;11019,599;  285,387;20047,796;54,31631
 442,27;10958,260;  276,469;20008,998;54,13290
 442,86;10902,313;  251,675;20081,605;53,70991
 443,44;10933,624;  268,757;20002,114;54,04487
 444,03;10912,066;  343,520;20137,200;53,39354
 444,62;10748,052;  260,290;19968,456;53,21531
 445,21;10596,916;  284,677;19693,269;53,13234
 445,80;10514,274;  311,971;19650,624;52,75602
 446,39;10340,471;  367,974;19356,495;52,51856
 446,97;10103,928;  261,881;19073,511;52,31895
 447,56; 9841,076;  266,485;18837,714;51,55605
 448,15; 9753,782;  279,497;18571,175;51,79560
 448,74; 9547,105;  291,880;18309,447;51,36779
 449,33; 9426,804;  276,641;18160,537;51,16426
 449,91; 9228,107;  276,473;17911,299;50,76111
 450,50; 9044,361;  268,015;17637,654;50,52693
 451,09; 8932,649;  285,090;17553,390;50,07765
 451,68; 8879,770;  307,700;17358,424;50,27393
 452,26; 8816,847;  311,232;17250,566;50,21222
 452,85; 8675,943;  272,620;17151,501;49,78602
 453,44; 8611,832;  288,679;17136,235;49,40273
 454,03; 8551,743;  263,228;17099,659;49,22964
 454,61; 8504,562;  262,294;17035,993;49,13805
 455,20; 8616,283;  297,518;17301,084;48,92365
 455,79; 8537,355;  303,298;17270,018;48,53063
 456,38; 8590,256;  299,508;17334,704;48,66834
 456,97; 8618,056;  281,973;17474,030;48,48799
 457,55; 8557,372;  277,350;17483,395;48,12275
 458,14; 8579,946;  317,283;17442,594;48,24825
 458,73; 8471,410;  295,656;17325,922;48,00720
 459,31; 8488,777;  316,722;17423,811;47,76999
 459,90; 8498,225;  355,651;17490,156;47,52150
 460,49; 8564,146;  402,039;17571,606;47,53822
 461,08; 8526,947;  300,101;17691,511;47,30408
 461,66; 8491,024;  301,800;17819,062;46,74945
 462,25; 8535,133;  299,173;17869,693;46,87374
 462,84; 8537,677;  321,254;17989,499;46,50390
 463,43; 8408,049;  251,007;17879,081;46,27302
 464,01; 8476,793;  296,233;17915,549;46,42950
 464,60; 8434,378;  355,627;17826,061;46,24242
 465,19; 8248,894;  282,845;17556,814;46,11591
 465,77; 8221,202;  302,224;17580,033;45,83323
 466,36; 8141,909;  326,315;17407,748;45,75491
 466,95; 7927,911;  295,775;17026,046;45,61872
 467,53; 7821,717;  314,525;16753,644;45,66663
 468,12; 7608,481;  341,215;16387,586;45,28915
 468,71; 7429,575;  307,998;16047,060;45,24778
 469,29; 7268,126;  292,522;15741,525;45,15245
 469,88; 7082,452;  304,978;15485,809;44,64494
 470,47; 7148,123;  365,660;15586,201;44,56125
 471,06; 7083,506;  324,429;15519,925;44,48079
 471,64; 7136,012;  326,201;15704,611;44,28163
 472,23; 7088,243;  295,565;15640,551;44,26643
 472,81; 7101,849;  286,575;15786,318;43,97024
 473,40; 7162,584;  296,719;15978,350;43,78285
 473,99; 7343,611;  417,565;16199,915;43,88476
 474,57; 7283,432;  316,181;16243,164;43,74495
 475,16; 7360,814;  313,035;16521,341;43,48252
 475,75; 7418,440;  331,635;16626,222;43,49178
 476,33; 7460,727;  343,704;16768,516;43,33093
 476,92; 7465,542;  333,871;16829,755;43,23304
 477,51; 7452,809;  319,784;16902,322;43,01528
 478,09; 7444,172;  327,553;16982,606;42,72949
 478,68; 7423,350;  334,627;16808,872;43,02912
 479,27; 7420,271;  351,788;16917,741;42,66874
 479,85; 7359,904;  322,320;16913,123;42,41859
 480,44; 7425,520;  309,393;17056,628;42,49136
 481,02; 8007,580;  327,540;18513,781;42,22995
 481,61; 8956,199;  360,389;21025,696;41,59537
 482,20; 9592,341;  335,847;22425,425;41,90435
 482,78;10003,567;  368,240;23457,996;41,72988
 483,37;10238,744;  345,836;24077,235;41,68700
 483,95;10400,401;  386,219;24441,950;41,62909
 484,54;10503,007;  378,467;24717,477;41,59800
 485,13;10397,062;  335,441;24580,842;41,49909
 485,71;10226,269;  311,521;24299,731;41,33176
 486,30;10079,632;  374,213;24015,246;41,05328
 486,88; 9984,127;  425,210;23631,682;41,19074
 487,47; 9565,623;  376,670;22763,964;41,04539
 488,05; 9116,406;  367,358;21754,751;40,90750
 488,64; 8491,336;  368,042;20199,995;40,96063
 489,23; 7567,308;  367,509;18030,057;40,76308
 489,81; 6445,215;  370,045;15402,136;40,41467
 490,40; 6054,146;  328,890;14590,975;40,14319
 490,98; 5916,344;  321,809;14267,450;40,11673
 491,57; 5814,073;  341,816;14131,813;39,68280
 492,15; 5801,192;  324,423;14086,901;39,79493
 492,74; 5748,305;  334,434;13926,221;39,83193
 493,32; 5699,612;  346,425;13829,647;39,70258
 493,91; 5607,772;  322,496;13679,484;39,56937
 494,50; 5586,183;  322,943;13664,540;39,44985
 495,08; 5537,605;  308,713;13605,891;39,32332
 495,67; 5529,427;  342,805;13563,727;39,23041
 496,25; 5410,524;  291,874;13466,176;38,85329
 496,84; 5392,247;  285,267;13420,976;38,87860
 497,42; 5379,234;  286,486;13343,746;39,00319
 498,01; 5324,604;  309,265;13274,048;38,68433
 498,59; 5289,272;  276,947;13162,195;38,89972
 499,18; 5236,713;  288,341;13136,494;38,51426
 499,76; 5189,285;  317,720;13043,589;38,28081
 500,35; 5087,653;  306,324;12773,862;38,35023
 500,93; 5042,698;  288,641;12779,560;38,06010
 501,52; 4995,357;  286,178;12588,629;38,27838
 502,10; 4991,563;  303,703;12636,336;38,01183
 502,69; 4890,328;  279,852;12413,289;37,99811
 503,27; 4741,027;  265,866;12229,110;37,40759
 503,86; 4735,427;  300,392;12150,983;37,42458
 504,44; 4653,983;  269,080;12010,806;37,34463
 505,03; 4517,074;  255,156;11632,165;37,46079
 505,61; 4460,969;  271,466;11502,732;37,30214
 506,19; 4365,796;  282,695;11342,775;36,91746
 506,78; 4275,213;  263,069;11183,407;36,74011
 507,36; 4198,161;  268,465;10923,259;36,88195
 507,95; 4113,434;  270,064;10747,971;36,68070
 508,53; 4049,361;  262,839;10596,711;36,64185
 509,12; 3987,132;  274,220;10401,645;36,66196
 509,70; 3924,361;  290,602;10229,006;36,56280
 510,29; 3855,028;  298,520;10023,243;36,57182
 510,87; 3711,333;  255,146; 9835,838;36,07450
 511,46; 3615,262;  255,144; 9684,786;35,63357
 512,04; 3567,257;  269,292; 9522,309;35,64204
 512,62; 3506,702;  276,836; 9324,609;35,69791
 513,21; 3398,257;  246,981; 9118,737;35,52032
 513,79; 3331,207;  256,657; 8968,660;35,29097
 514,38; 3287,814;  243,124; 8798,316;35,58880
 514,96; 3248,153;  295,586; 8726,279;35,02164
 515,54; 3140,134;  246,813; 8437,575;35,32419
 516,13; 3100,451;  272,966; 8373,229;34,90609
 516,71; 3043,777;  259,805; 8248,457;34,84908
 517,30; 2970,638;  252,953; 8153,958;34,39669
 517,88; 2934,129;  274,415; 8019,184;34,34206
 518,46; 2855,496;  240,028; 7865,909;34,29725
 519,05; 2818,409;  262,869; 7837,551;33,73792
 519,63; 2780,348;  263,795; 7737,088;33,67395
 520,22; 2762,956;  275,631; 7659,763;33,68474
 520,80; 2711,449;  245,706; 7557,517;33,72274
 521,38; 2731,735;  300,253; 7530,946;33,62723
 521,97; 2659,671;  256,394; 7503,851;33,16027
 522,55; 2651,398;  269,779; 7471,465;33,07031
 523,13; 2611,113;  255,390; 7455,608;32,71737
 523,72; 2614,525;  243,720; 7425,904;33,00953
 524,30; 2684,545;  287,924; 7581,887;32,85759
 524,89; 2614,471;  250,008; 7519,759;32,52468
 525,47; 2650,188;  257,230; 7685,089;32,21598
 526,05; 2653,596;  232,306; 7762,102;32,15612
 526,64; 2691,782;  276,611; 7877,186;31,77617
 527,22; 2716,273;  261,846; 8028,138;31,60359
 527,80; 2789,232;  307,842; 8103,564;31,83015
 528,39; 2778,974;  257,838; 8200,041;31,74353
 528,97; 2778,561;  245,532; 8394,916;31,08246
 529,55; 2860,679;  272,083; 8561,096;31,22924
 530,14; 2913,859;  280,143; 8783,866;30,97133
 530,72; 2913,001;  253,917; 8925,662;30,66377
 531,30; 2962,968;  234,373; 9110,697;30,74015
 531,89; 2976,402;  255,604; 9167,824;30,52885
 532,47; 3024,554;  282,601; 9262,492;30,53436
 533,05; 2995,869;  286,073; 9352,202;29,88922
 533,63; 3017,773;  284,215; 9400,892;29,98415
 534,22; 3020,507;  253,215; 9447,509;30,09792
 534,80; 3032,671;  278,746; 9529,227;29,77061
 535,38; 3130,272;  374,064; 9710,376;29,52138
 535,97; 3014,252;  257,139; 9608,265;29,48429
 536,55; 3026,639;  300,053; 9692,187;29,03053
 537,13; 3019,725;  299,373; 9615,767;29,19962
 537,71; 3020,924;  327,067; 9695,551;28,75446
 538,30; 3022,596;  324,443; 9796,845;28,48435
 538,88; 3049,411;  360,355; 9909,605;28,15986
 539,46; 3097,322;  409,054;10099,918;27,74023
 540,05; 3153,825;  397,358;10193,732;28,13763
 540,63; 3173,845;  432,434;10448,326;27,37061
 541,21; 3219,725;  442,738;10683,091;27,11808
 541,79; 3237,697;  456,430;10800,526;26,88748
 542,38; 3286,332;  488,820;10982,670;26,65858
 542,96; 3319,285;  479,655;11143,102;26,62957
 543,54; 3364,630;  505,739;11346,235;26,37233
 544,12; 3383,287;  471,352;11547,335;26,29053
 544,70; 3365,759;  454,654;11663,109;25,97240
 545,29; 3447,632;  463,589;11835,006;26,24160
 545,87; 3463,005;  469,661;11863,603;26,27136
 546,45; 3401,746;  436,744;11875,588;25,92047
 547,03; 3389,677;  419,048;11917,757;25,83446
 547,62; 3411,918;  386,968;12101,509;25,82218
 548,20; 3446,267;  418,579;12279,323;25,52697
 548,78; 3472,588;  381,564;12405,865;25,70647
 549,36; 3462,894;  363,720;12594,645;25,33883
 549,94; 3488,981;  321,581;12759,556;25,46556
 550,53; 3550,244;  347,876;13046,439;25,21835
 551,11; 3554,886;  310,639;13202,562;25,16496
 551,69; 3603,552;  332,489;13521,845;24,80078
 552,27; 3643,759;  281,033;13820,327;24,83679
 552,85; 3670,908;  294,562;14147,047;24,37357
 553,44; 3810,945;  301,105;14551,817;24,62922
 554,02; 3837,671;  319,180;14945,715;24,05553
 554,60; 3875,211;  251,792;15256,803;24,14806
 555,18; 3991,097;  297,412;15642,772;24,07037
 555,76; 4029,531;  282,103;16070,228;23,73574
 556,34; 4136,304;  288,325;16493,734;23,74503
 556,93; 4201,312;  279,258;16897,367;23,60108
 557,51; 4230,618;  262,786;17261,814;23,34152
 558,09; 4312,732;  297,643;17660,827;23,12415
 558,67; 4383,295;  283,935;18064,453;23,05535
 559,25; 4435,269;  293,553;18379,680;22,89996
 559,83; 4454,660;  289,239;18741,441;22,57411
 560,41; 4525,038;  252,173;19102,714;22,66707
 561,00; 4590,476;  280,089;19507,787;22,41760
 561,58; 4593,669;  272,173;19840,119;22,08457
 562,16; 4638,389;  251,638;20092,333;22,10986
 562,74; 4672,097;  233,410;20508,024;21,89283
 563,32; 4760,528;  238,239;21016,156;21,76488
 563,90; 4851,770;  271,012;21474,043;21,60426
 564,48; 4910,079;  260,713;21907,540;21,47828
 565,06; 5034,137;  266,782;22562,956;21,38194
 565,65; 5151,832;  271,386;23334,054;21,16167
 566,23; 5315,518;  305,473;24195,019;20,97170
 566,81; 5397,137;  257,784;25032,319;20,74450
 567,39; 5592,193;  266,084;26019,305;20,68133
 567,97; 5704,944;  288,860;26788,384;20,43842
 568,55; 5905,110;  315,624;27659,588;20,44139
 569,13; 5973,755;  282,012;28440,792;20,21303
 569,71; 6166,103;  265,485;29502,434;20,18206
 570,29; 6411,089;  316,643;30731,185;20,03793
 570,87; 6513,038;  296,025;31492,880;19,92833
 571,45; 6593,954;  278,782;32273,499;19,73817
 572,03; 6600,761;  244,390;32821,783;19,51160
 572,61; 6758,195;  234,779;33581,636;19,56231
 573,20; 6846,729;  267,093;34325,998;19,31840
 573,78; 6924,311;  249,086;35037,977;19,18781
 574,36; 6994,800;  271,011;35670,059;18,99427
 574,94; 7084,944;  339,235;36070,492;18,87902
 575,52; 7048,829;  250,610;36282,643;18,86715
 576,10; 7156,834;  308,152;36963,834;18,68382
 576,68; 7210,335;  273,313;37532,704;18,61818
 577,26; 7290,109;  290,914;38402,890;18,36482
 577,84; 7346,287;  293,087;38976,887;18,23296
 578,42; 7431,698;  352,924;39291,417;18,17937
 579,00; 7282,017;  270,393;39393,952;17,92174
 579,58; 7340,167;  335,696;39679,751;17,80313
 580,16; 7239,071;  278,154;39659,662;17,67560
 580,74; 7231,572;  273,768;39791,234;17,60691
 581,32; 7179,933;  286,387;39900,661;17,40167
 581,90; 7176,540;  303,385;39909,788;17,35365
 582,48; 7169,085;  283,308;39897,022;17,38231
 583,06; 7084,264;  285,080;40076,268;17,08716
 583,64; 7080,763;  273,465;40149,927;17,07097
 584,22; 6981,235;  270,608;39925,227;16,92269
 584,80; 6857,781;  279,693;39600,651;16,72922
 585,38; 6773,719;  298,710;39153,421;16,66467
 585,96; 6652,467;  258,238;39216,506;16,41302
 586,54; 6674,639;  285,841;39070,183;16,47262
 587,12; 6591,280;  259,382;39233,583;16,24638
 587,70; 6632,660;  297,007;39368,693;16,21546
 588,28; 6562,533;  274,844;39446,530;16,05162
 588,86; 6551,659;  274,150;39449,217;16,02425
 589,44; 6461,884;  261,217;39444,321;15,82485
 590,02; 6454,054;  268,681;39733,089;15,67329
 590,59; 6446,109;  241,610;39836,924;15,66978
 591,17; 6456,725;  256,746;40021,272;15,59173
 591,75; 6434,277;  250,752;40263,182;15,45401
 592,33; 6441,084;  269,908;40397,974;15,37870
 592,91; 6394,999;  226,364;40687,067;15,24599
 593,49; 6398,396;  244,975;41020,424;15,09100
 594,07; 6436,481;  268,436;41229,934;15,05815
 594,65; 6418,259;  271,609;41226,449;15,00836
 595,23; 6434,342;  263,451;41679,496;14,89976
 595,81; 6423,362;  246,756;41820,572;14,85696
 596,39; 6345,912;  243,832;41948,117;14,63178
 596,97; 6368,818;  248,287;42077,886;14,63206
 597,55; 6289,202;  242,837;42066,449;14,45682
 598,12; 6252,801;  230,357;41993,116;14,42061
 598,70; 6258,224;  237,978;42164,393;14,35908
 599,28; 6238,958;  260,054;42337,087;14,20942
 599,86; 6231,009;  233,670;42309,566;14,25362
 600,44; 6155,469;  210,052;42490,235;14,06195
 601,02; 6212,290;  268,734;42543,075;14,05949
 601,60; 6126,423;  244,059;42515,595;13,91566
 602,18; 6092,250;  215,511;42408,879;13,92811
 602,75; 6017,245;  210,988;42590,385;13,70066
 603,33; 6025,832;  237,670;42588,806;13,66708
 603,91; 5999,312;  209,276;42485,132;13,69584
 604,49; 6016,572;  245,669;42728,426;13,58411
 605,07; 5957,145;  242,060;42636,052;13,48088
 605,65; 5954,221;  238,436;42830,708;13,41977
 606,23; 5942,497;  274,765;42935,861;13,28548
 606,80; 5967,449;  285,219;42912,743;13,32996
 607,38; 5935,373;  286,662;42991,091;13,22746
 607,96; 5910,303;  300,526;42986,330;13,14202
 608,54; 5940,347;  363,128;43156,066;13,03303
 609,12; 5875,875;  340,295;43191,052;12,91828
 609,70; 5885,360;  340,594;43202,306;12,93641
 610,27; 5892,669;  345,835;43276,705;12,92039
 610,85; 5874,838;  361,825;43401,480;12,80915
 611,43; 5859,980;  353,747;43288,725;12,82459
 612,01; 5743,177;  316,830;43065,015;12,69375
 612,59; 5699,500;  325,517;43091,254;12,56610
 613,16; 5660,878;  306,762;42987,023;12,54471
 613,74; 5626,335;  306,593;42923,730;12,48264
 614,32; 5625,534;  292,743;42904,712;12,51477
 614,90; 5568,601;  283,212;42768,301;12,44057
 615,48; 5539,908;  261,530;42346,424;12,54222
 616,05; 5436,959;  245,840;42366,190;12,32449
 616,63; 5460,241;  268,150;42115,264;12,40728
 617,21; 5404,348;  265,835;42047,576;12,29846
 617,79; 5370,352;  244,602;41977,402;12,28231
 618,36; 5350,579;  268,445;41777,871;12,24333
 618,94; 5235,296;  213,144;41495,536;12,16536
 619,52; 5191,992;  245,995;41185,045;12,08137
 620,10; 5159,559;  215,218;41131,081;12,08417
 620,67; 5160,590;  230,919;41037,035;12,08072
 621,25; 5103,486;  251,675;40899,928;11,93609
 621,83; 5106,310;  240,913;40822,972;11,98903
 622,41; 5149,634;  289,837;40782,992;12,00153
 622,98; 5014,095;  246,766;40504,620;11,84198
 623,56; 5029,546;  254,229;40502,351;11,86470
 624,14; 5014,960;  241,365;40371,341;11,89534
 624,72; 4977,332;  235,990;40270,150;11,84324
 625,29; 4939,511;  230,536;40358,353;11,73494
 625,87; 4984,995;  265,371;40282,813;11,79392
 626,45; 4946,901;  222,461;40096,950;11,84828
 627,02; 4890,559;  246,370;39970,025;11,69124
 627,60; 4861,400;  222,207;39961,053;11,67420
 628,18; 4838,798;  205,449;39980,206;11,64897
 628,76; 4847,596;  211,458;39942,192;11,66890
 629,33; 4853,381;  250,839;40010,486;11,57591
 629,91; 4830,405;  224,834;39990,235;11,58186
 630,49; 4886,505;  253,148;40173,239;11,60658
 631,06; 4876,649;  242,688;40285,739;11,57245
 631,64; 4847,864;  238,460;40251,522;11,51975
 632,22; 4805,870;  211,772;40109,559;11,51467
 632,79; 4889,142;  253,310;40497,330;11,51931
 633,37; 4878,952;  217,061;40489,172;11,57598
 633,95; 4872,420;  233,307;40600,433;11,49230
 634,52; 4854,417;  223,606;40657,660;11,45275
 635,10; 4901,080;  236,219;40636,225;11,54668
 635,68; 4927,422;  240,079;40879,534;11,53397
 636,25; 4876,944;  214,623;40865,833;11,46908
 636,83; 4903,827;  202,227;41155,346;11,48044
 637,41; 4901,623;  228,542;41104,902;11,43223
 637,98; 4963,226;  258,235;41412,510;11,43257
 638,56; 4927,293;  233,010;41362,044;11,41355
 639,13; 4946,509;  218,228;41408,000;11,47926
 639,71; 5046,949;  290,687;41663,075;11,49622
 640,29; 4921,036;  189,687;41416,880;11,47628
 640,86; 4935,270;  215,072;41597,874;11,40618
 641,44; 4903,504;  223,302;41674,714;11,29081
 642,02; 4979,430;  232,994;41648,400;11,46056
 642,59; 4964,819;  214,532;41768,856;11,43151
 643,17; 4964,360;  212,532;41708,157;11,45140
 643,74; 4969,133;  205,762;41839,074;11,44125
 644,32; 4966,367;  240,916;41693,607;11,39963
 644,89; 4984,448;  233,762;41793,985;11,43085
 645,47; 5005,913;  241,454;41750,364;11,47816
 646,05; 4999,070;  236,530;41647,204;11,50075
 646,62; 4992,304;  230,838;41632,352;11,50071
 647,20; 4987,154;  233,145;41912,576;11,40613
 647,77; 4969,849;  209,991;41661,262;11,48302
 648,35; 4962,853;  205,606;41558,564;11,50401
 648,92; 4978,395;  210,144;41568,558;11,52909
 649,50; 4940,629;  197,452;41435,244;11,50202
 650,08; 4949,555;  199,913;41342,700;11,54429
 650,65; 4973,020;  201,836;41655,540;11,50967
 651,23; 5073,178;  186,066;42456,149;11,56163
 651,80; 5185,643;  190,066;43651,758;11,49421
 652,38; 5277,800;  205,912;44067,290;11,56345
 652,95; 5328,803;  185,219;44492,438;11,60891
 653,53; 5383,653;  218,450;44825,355;11,57938
 654,10; 5452,810;  252,526;44913,503;11,64391
 654,68; 5388,660;  203,064;44812,497;11,62444
 655,25; 5390,509;  183,833;45006,568;11,61615
 655,83; 5451,128;  185,910;45010,100;11,74638
 656,40; 5434,978;  230,217;45074,863;11,60620
 656,98; 5439,366;  205,371;44870,934;11,71819
 657,55; 5418,446;  208,371;44806,620;11,68224
 658,13; 5366,603;  220,063;44368,691;11,65731
 658,70; 5371,376;  224,293;44015,300;11,75374
 659,28; 5274,303;  203,293;42999,756;11,84913
 659,85; 5143,921;  235,908;42135,903;11,71364
 660,43; 5189,232;  235,985;42116,820;11,82700
 661,00; 5160,159;  201,754;42242,045;11,79441
 661,58; 5213,855;  200,138;42595,193;11,82618
 662,15; 5266,550;  187,368;42820,879;11,91359
 662,73; 5435,477;  268,522;43137,796;12,05282
 663,30; 5399,480;  210,522;43324,944;12,03532
 663,88; 5386,868;  211,137;43483,476;11,96083
 664,45; 5475,410;  205,136;43745,778;12,10426
 665,03; 5491,568;  203,982;44151,541;12,03158
 665,60; 5661,879;  312,597;44532,842;12,09691
 666,17; 5590,190;  199,366;44733,375;12,10496
 666,75; 5657,270;  190,981;45084,753;12,17605
 667,32; 5740,658;  232,827;45466,286;12,17645
 667,90; 5761,277;  212,827;45814,818;12,16712
 668,47; 5822,511;  216,365;46034,812;12,23557
 669,05; 5853,053;  197,057;46393,652;12,24332
 669,62; 5895,518;  181,134;46427,800;12,35632
 670,19; 5913,906;  174,826;46592,409;12,36402
 670,77; 5933,679;  207,441;46742,326;12,30526
 671,34; 5968,913;  190,056;46687,474;12,42834
 671,92; 6000,224;  180,209;47078,391;12,40989
 672,49; 6042,074;  225,594;47184,615;12,38629
 673,06; 6059,923;  176,824;47107,994;12,53559
 673,64; 6039,542;  180,978;47107,526;12,48454
 674,21; 6055,546;  177,516;47029,135;12,54605
 674,79; 6193,164;  215,439;47384,514;12,67298
 675,36; 6167,706;  218,054;47427,277;12,60273
 675,93; 6165,479;  192,746;47219,425;12,70073
 676,51; 6215,482;  217,669;47490,726;12,68759
 677,08; 6280,870;  202,668;47441,028;12,86709
 677,65; 6276,489;  203,976;47746,253;12,77287
 678,23; 6337,339;  203,360;47852,708;12,87316
 678,80; 6347,035;  203,975;47992,471;12,85468
 679,38; 6377,115;  201,206;48148,696;12,88057
 679,95; 6473,349;  214,898;48439,228;12,97779
 680,52; 6451,429;  200,436;48748,607;12,87586
 681,10; 6583,356;  210,512;49157,370;13,01992
 681,67; 6654,744;  220,435;49519,441;13,05160
 682,24; 6650,055;  177,743;49480,742;13,12762
 682,82; 6748,366;  194,512;50159,044;13,11701
 683,39; 6904,600;  251,204;50406,269;13,26565
 683,96; 6889,604;  205,280;50721,878;13,23194
 684,54; 6961,992;  182,049;51152,949;13,30160
 685,11; 7102,303;  251,587;51550,635;13,35447
 685,68; 7137,768;  198,664;51875,936;13,42777
 686,25; 7115,233;  181,433;52115,315;13,35121
 686,83; 7261,313;  202,433;52100,847;13,60134
 687,40; 7293,778;  183,586;52541,457;13,57999
 687,97; 7378,474;  239,432;52955,143;13,54253
 688,55; 7357,708;  189,739;53129,521;13,53985
 689,12; 7424,481;  162,585;53432,054;13,63238
 689,69; 7483,561;  185,277;53480,201;13,69414
 690,26; 7571,795;  199,585;53416,503;13,85313
 690,84; 7589,953;  203,584;53664,574;13,81637
 691,41; 7699,418;  225,507;53752,798;13,96280
 691,98; 7701,806;  206,199;54093,331;13,90983
 692,56; 7759,271;  198,353;54188,786;14,00418
 693,13; 7835,120;  248,506;54337,780;14,02610
 693,70; 7868,431;  220,583;54451,851;14,10229
 694,27; 7897,666;  194,506;54675,076;14,13928
 694,84; 7918,207;  186,275;54652,223;14,19590
 695,42; 8034,365;  249,274;54733,140;14,28880
 695,99; 8031,599;  210,966;54942,288;14,28914
 696,56; 8075,372;  219,581;54864,744;14,37600
 697,13; 8139,529;  224,966;55168,276;14,40496
 697,71; 8186,148;  202,581;55269,501;14,49794
 698,28; 8266,536;  196,965;55665,648;14,54798
 698,85; 8282,924;  164,349;55652,873;14,63109
 699,42; 8303,081;  175,964;55837,175;14,60104
 699,99; 8398,931;  223,733;55935,707;14,67404
 700,57; 8444,703;  216,810;56009,085;14,74737
 701,14; 8486,861;  195,041;56150,541;14,81860
 701,71; 8563,249;  219,656;56429,842;14,84356
 702,28; 8612,637;  202,194;56409,529;14,96325
 702,85; 8626,948;  203,578;56510,523;14,95973
 703,43; 8731,643;  227,809;56596,978;15,08597
 704,00; 8808,878;  227,501;56979,357;15,12087
 704,57; 8775,573;  196,654;56899,427;15,12963
 705,14; 8901,269;  229,423;57299,114;15,19519
 705,71; 8928,042;  231,038;57249,569;15,25294
 706,28; 8961,661;  204,576;57169,871;15,37267
 706,86; 8990,741;  237,114;57404,249;15,31234
 707,43; 9048,591;  272,114;57388,089;15,36606
 708,00; 9038,902;  242,268;57321,698;15,41122
 708,57; 9027,290;  202,037;57222,846;15,47725
 709,14; 9174,139;  223,652;57421,071;15,64841
 709,71; 9195,604;  201,575;57612,603;15,66603
 710,28; 9245,531;  217,651;57759,136;15,68934
 710,86; 9301,611;  209,574;57813,745;15,78364
 711,43; 9323,768;  238,343;57849,277;15,77031
 712,00; 9356,310;  212,496;57968,963;15,83167
 712,57; 9481,237;  245,112;58123,650;15,95777
 713,14; 9488,240;  207,419;58235,182;15,99376
 713,71; 9558,782;  233,111;58138,637;16,10498
 714,28; 9569,247;  221,188;58170,324;16,13149
 714,85; 9475,404;  209,726;57925,241;16,05405
 715,42; 9588,869;  207,649;58101,234;16,20425
 716,00; 9731,565;  311,879;58248,382;16,25864
 716,57; 9702,876;  220,725;58306,761;16,32432
 717,14; 9681,649;  222,340;58310,908;16,28429
 717,71; 9767,806;  204,109;58327,210;16,45421
 718,28; 9859,886;  251,724;58485,589;16,49927
 718,85; 9819,813;  199,647;58430,429;16,52076
 719,42; 9933,124;  238,646;58705,422;16,58117
 719,99; 9893,820;  204,185;58397,109;16,65088
 720,56;10000,285;  243,723;58726,256;16,68286
 721,13;10026,750;  204,184;58891,173;16,73721
 721,70;10062,907;  199,414;58717,244;16,85553
 722,27;10150,141;  237,030;58728,084;16,94808
 722,84;10250,529;  287,337;58954,847;16,98247
 723,41;10201,071;  191,644;58861,226;17,06068
 723,98;10263,382;  214,490;59115,527;17,06064
 724,55;10338,386;  247,336;59227,291;17,10929
 725,12;10346,235;  166,336;59275,669;17,22215
 725,69;10474,700;  205,720;59482,432;17,32380
 726,27;10515,396;  217,104;59381,580;17,40621
 726,84;10613,015;  219,181;59790,728;17,44765
 727,41;10651,172;  248,950;59758,260;17,47999
 727,98;10727,560;  237,642;60177,562;17,50072
 728,55;10777,871;  269,334;59999,633;17,59331
 729,12;10831,105;  211,488;60105,857;17,73058
 729,69;10878,186;  233,641;60246,159;17,73721
 730,26;10939,420;  231,333;60551,153;17,75219
 730,82;10921,808;  226,717;60242,839;17,82036
 731,39;11005,042;  221,179;60448,448;17,90528
 731,96;11080,738;  202,563;60680,673;17,98696
 732,53;11258,818;  225,255;60965,205;18,16525
 733,10;11281,283;  238,101;61138,430;18,13321
 733,67;11314,517;  233,716;61312,962;18,14168
 734,24;11275,136;  208,946;60974,879;18,21117
 734,81;11356,294;  250,715;61014,565;18,27662
 735,38;11337,989;  223,177;60774,713;18,35595
 735,95;11364,916;  216,253;60544,707;18,47994
 736,52;11437,765;  228,714;60737,239;18,52475
 737,09;11371,692;  239,099;60437,156;18,49328
 737,66;11545,695;  282,868;60610,843;18,66933
 738,23;11546,699;  226,637;60659,913;18,73150
 738,80;11712,933;  312,713;61133,138;18,74406
 739,37;11757,244;  249,636;61151,440;18,89535
 739,94;11749,940;  224,174;61236,049;18,89102
 740,51;11892,020;  378,405;61342,350;18,88594
 741,07;11793,408;  233,404;61234,037;18,95063
 741,64;11908,104;  253,635;61475,954;19,03631
 742,21;11916,107;  243,096;61487,255;19,05980
 742,78;11939,111;  201,865;61203,557;19,24085
 743,35;11983,576;  228,788;61644,551;19,13969
 743,92;12110,271;  267,711;61799,852;19,24614
 744,49;12142,967;  273,095;61586,154;19,35945
 745,06;12130,125;  233,018;61602,532;19,38602
 745,63;12184,359;  211,710;61548,911;19,51939
 746,19;12260,901;  224,556;61547,828;19,62770
 746,76;12241,212;  241,401;61671,976;19,53394
 747,33;12293,677;  224,324;61610,893;19,66123
 747,90;12370,680;  253,939;61811,579;19,68357
 748,47;12429,530;  237,324;61720,880;19,83003
 749,04;12463,149;  236,477;61735,720;19,88101
 749,61;12485,306;  272,862;61687,022;19,88539
 750,17;12493,386;  274,169;61712,247;19,88867
 750,74;12539,313;  242,246;61661,702;20,02145
 751,31;12506,624;  219,014;61678,234;19,99311
 751,88;12509,473;  204,783;61478,690;20,08145
 752,45;12568,938;  225,860;61681,915;20,08440
 753,02;12665,019;  259,091;61501,755;20,25700
 753,58;12652,330;  226,244;61449,902;20,29622
 754,15;12683,487;  227,013;61555,666;20,31102
 754,72;12661,798;  220,090;61234,506;20,39142
 755,29;12576,725;  200,628;61164,653;20,30066
 755,86;12697,343;  235,320;61458,032;20,35523
 756,42;12759,962;  259,089;61205,564;20,51123
 756,99;12676,197;  195,550;61184,327;20,46384
 757,56;12709,277;  210,550;61123,552;20,51898
 758,13;12749,203;  183,396;61024,930;20,65334
 758,70;12906,668;  209,472;61085,078;20,85761
 759,26;12941,595;  206,241;61143,457;20,89914
 759,83;12997,137;  216,010;61259,835;20,93762
 760,40;13006,602;  193,856;60955,598;21,08686
 760,97;13053,836;  196,240;61145,669;21,09551
 761,53;13018,762;  191,855;60667,125;21,21017
 762,10;12984,304;  170,163;60646,965;21,18852
 762,67;13075,154;  212,701;60721,805;21,25705
 763,24;12956,465;  176,854;60169,491;21,30197
 763,80;13075,391;  215,239;60354,408;21,38399
 764,37;13136,087;  202,315;60257,786;21,53638
 764,94;13006,321;  190,084;59855,396;21,48021
 765,50;13060,709;  200,546;59891,774;21,54448
 766,07;13187,713;  221,468;59820,076;21,75595
 766,64;13112,409;  200,853;59542,147;21,75813
 767,21;13160,258;  207,160;59496,371;21,84731
 767,77;13172,108;  225,160;59327,596;21,90595
 768,34;13127,804;  227,390;59309,821;21,83460
 768,91;13170,653;  238,082;59146,353;21,95374
 769,47;13166,810;  230,620;59197,885;21,93792
 770,04;13211,506;  234,159;59072,802;22,05582
 770,61;13196,740;  210,158;58792,181;22,16820
 771,18;13197,590;  218,696;58710,329;22,18932
 771,74;13241,055;  226,312;58958,399;22,15951
 772,31;13239,520;  232,927;58739,701;22,23092
 772,88;13232,369;  192,542;58311,310;22,43652
 773,44;13157,681;  208,618;58177,304;22,33803
 774,01;13265,453;  237,387;58317,606;22,43116
 774,58;13241,764;  210,310;57905,061;22,58690
 775,14;13265,614;  201,079;58134,440;22,55097
 775,71;13261,002;  196,848;57962,664;22,61572
 776,27;13359,544;  281,694;57820,658;22,72869
 776,84;13493,932;  325,770;57942,729;22,85466
 777,41;13419,705;  228,309;57712,800;22,94775
 777,97;13324,939;  219,924;57490,563;22,88261
 778,54;13344,404;  228,077;57455,018;22,91985
 779,11;13388,330;  258,308;57537,012;22,92304
 779,67;13432,487;  220,769;57381,006;23,11348
 780,24;13372,645;  234,307;57179,616;23,07185
 780,80;13397,725;  252,538;57198,686;23,08354
 781,37;13400,344;  246,768;57157,911;23,11248
 781,94;13387,809;  233,922;56900,982;23,21258
 782,50;13367,351;  228,767;56857,360;23,20132
 783,07;13363,354;  256,690;56928,047;23,12749
 783,63;13301,050;  231,151;56640,963;23,16955
 784,20;13372,361;  261,997;56608,727;23,26730
 784,77;13300,595;  238,151;56367,105;23,27220
 785,33;13302,522;  207,228;56149,484;23,40859
 785,90;13302,910;  231,535;56080,016;23,40507
 786,46;13336,913;  257,381;56036,087;23,44897
 787,03;13338,455;  221,457;55744,850;23,62427
 787,59;13382,920;  224,149;55683,152;23,72702
 788,16;13373,539;  245,457;55596,915;23,71768
 788,73;13368,158;  250,303;55503,139;23,74151
 789,29;13328,315;  225,764;55116,133;23,87040
 789,86;13381,395;  276,379;54994,127;23,95021
 790,42;13282,476;  246,686;54897,890;23,85270
 790,99;13242,402;  245,840;54468,269;23,96898
 791,55;13279,406;  231,378;54523,263;24,03311
 792,12;13380,717;  265,762;54447,795;24,20536
 792,68;13298,259;  244,993;54199,635;24,19304
 793,25;13314,570;  260,531;53951,014;24,31351
 793,81;13287,573;  337,223;53469,931;24,37359
 794,38;13191,115;  214,069;53287,771;24,45099
 794,94;13163,503;  226,684;53089,995;24,47221
 795,51;13144,968;  252,068;52963,912;24,45921
 796,07;13113,279;  244,453;52556,214;24,60025
 796,64;13182,513;  270,914;52788,977;24,58506
 797,20;13042,363;  242,375;52175,894;24,64687
 797,77;12990,059;  219,452;51855,349;24,73203
 798,33;13038,908;  250,451;51727,651;24,84295
 798,90;13052,758;  264,143;51666,260;24,87955
 799,46;12923,223;  222,220;51127,408;24,95031
 800,03;12923,534;  239,220;51086,556;24,94588
 800,59;12922,537;  256,527;50791,934;25,06364
 801,15;12879,695;  262,373;50645,082;25,04296
 801,72;12795,621;  239,296;50239,922;25,11234
 802,28;12799,548;  260,757;49976,916;25,22075
 802,85;12622,551;  249,449;49804,602;24,96835
 803,41;12661,170;  226,987;49520,442;25,22481
 803,98;12612,558;  232,987;49081,128;25,34297
 804,54;12528,254;  247,064;48817,584;25,28528
 805,11;12523,334;  265,909;48568,578;25,37629
 805,67;12528,722;  265,294;48496,802;25,42618
 806,23;12414,341;  254,678;48113,642;25,40728
 806,80;12466,883;  270,909;47901,790;25,60518
 807,36;12496,271;  261,062;47824,015;25,72424
 807,93;12440,967;  285,446;47622,701;25,67855
 808,49;12372,893;  229,138;47175,464;25,86732
 809,05;12262,435;  230,830;47043,073;25,70183
 809,62;12272,438;  264,907;46914,375;25,73991
 810,18;12299,596;  251,907;46860,907;25,84842
 810,74;12218,676;  220,445;46486,132;25,93333
 811,31;12231,372;  222,522;46325,049;26,04814
 811,87;12236,375;  258,598;46123,812;26,11517
 812,44;12247,763;  266,290;46084,806;26,14985
 813,00;12234,844;  203,598;45838,492;26,36414
 813,56;12300,078;  257,213;45856,178;26,41039
 814,13;12329,620;  245,905;45853,095;26,49520
 814,69;12270,777;  241,597;45567,474;26,53932
 815,25;12115,319;  216,135;45001,699;26,56924
 815,82;12236,245;  254,904;44987,308;26,78448
 816,38;12157,018;  289,904;44849,609;26,63194
 816,94;12034,868;  234,980;44529,142;26,63983
 817,51;12076,640;  219,672;44262,443;26,92149
 818,07;11964,874;  232,287;43942,591;26,84170
 818,63;11926,878;  239,595;43801,893;26,82890
 819,20;11936,881;  249,441;43702,271;26,89685
 819,76;11860,654;  223,440;43231,188;27,05841
 820,32;11887,196;  275,209;43110,413;27,10851
 820,89;11822,045;  252,824;42955,022;27,09280
 821,45;11725,972;  234,516;42550,862;27,15607
 822,01;11658,591;  255,285;42356,702;27,08532
 822,57;11668,056;  257,208;42212,927;27,19736
 823,14;11599,675;  214,054;41866,998;27,33449
 823,70;11521,678;  240,361;41616,761;27,26510
 824,26;11510,681;  213,438;41400,678;27,42899
 824,82;11519,993;  265,976;41279,672;27,43965
 825,39;11416,765;  232,437;40941,666;27,47369
 825,95;11434,615;  242,129;41110,583;27,38661
 826,51;11337,464;  250,667;40510,961;27,53779
 827,08;11365,468;  286,283;40593,032;27,48717
 827,64;11364,856;  261,359;40360,026;27,69044
 828,20;11261,090;  221,743;40133,635;27,65929
 828,76;11266,632;  269,820;40193,398;27,54465
 829,32;11260,943;  276,358;39973,469;27,67099
 829,89;11161,716;  224,743;39838,232;27,60921
 830,45;11220,335;  247,742;39738,226;27,78541
 831,01;11118,261;  241,204;39576,143;27,65241
 831,57;11179,649;  237,126;39425,522;27,92287
 832,14;11146,037;  230,203;39358,285;27,89770
 832,70;11082,194;  213,433;39137,432;27,92303
 833,26;11082,198;  198,125;39029,811;28,02884
 833,82;11135,817;  243,510;38898,420;28,17833
 834,38;11114,435;  228,048;38980,568;28,09208
 834,95;11070,516;  215,278;38781,562;28,14696
 835,51;11041,827;  191,663;38626,402;28,23010
 836,07;11071,138;  238,124;38760,319;28,12149
 836,63;11165,680;  248,354;38652,005;28,42783
 837,19;11106,068;  252,970;38504,614;28,37289
 837,75;10961,071;  207,277;38093,608;28,38436
 838,32;11091,229;  253,123;38318,448;28,47238
 838,88;11128,847;  251,122;38316,135;28,57670
 839,44;11091,543;  252,122;38216,667;28,55143
 840,00;11105,316;  255,045;38089,507;28,67827
 840,56;11056,935;  223,660;37756,116;28,86375
 841,12;11093,630;  225,967;37779,802;28,93889
 841,68;10988,942;  208,967;37553,950;28,86592
 842,25;11101,714;  228,198;37652,636;29,05459
 842,81;10965,025;  205,120;37343,015;28,97285
 843,37;11017,952;  199,428;37319,624;29,14458
 843,93;11026,955;  227,274;37173,772;29,23060
 844,49;11093,420;  250,889;37314,843;29,25357
 845,05;11031,116;  191,427;37014,375;29,43732
 845,61;11113,966;  244,196;37150,600;29,45226
 846,17;11032,815;  212,965;36982,901;29,42581
 846,73;11050,742;  242,580;36912,203;29,47443
 847,29;10984,437;  225,733;36677,735;29,51471
 847,86;10929,748;  223,810;36606,268;29,42610
 848,42;10933,444;  218,656;36341,108;29,66241
 848,98;10990,755;  240,425;36353,025;29,76892
 849,54;11001,297;  230,040;36393,711;29,78475
 850,10;10957,839;  244,193;36184,012;29,80996
 850,66;10910,612;  222,732;35997,929;29,87511
 851,22;10932,231;  199,654;35966,385;30,00715
 851,78;10924,311;  263,270;35914,994;29,90330
 852,34;10854,314;  243,577;35736,219;29,89560
 852,90;10901,318;  227,730;35670,059;30,11537
 853,46;10866,937;  215,961;35368,130;30,29963
 854,02;10917,786;  240,499;35407,893;30,36133
 854,58;10801,482;  225,114;35108,425;30,31928
 855,14;10784,178;  222,806;35070,804;30,30697
 855,70;10778,489;  196,575;34870,336;30,51851
 856,26;10771,415;  228,113;34736,253;30,55309
 856,82;10753,880;  227,728;34633,093;30,59451
 857,38;10767,345;  282,728;34582,010;30,56804
 857,94;10706,964;  221,036;34393,465;30,68535
 858,50;10716,814;  246,343;34317,767;30,73095
 859,06;10599,586;  217,420;34104,146;30,63786
 859,62;10653,590;  248,727;34009,909;30,81901
 860,18;10586,747;  227,573;33889,672;30,77400
 860,74;10575,981;  201,265;33764,435;30,91101
 861,30;10506,292;  208,803;33450,352;30,97777
 861,86;10618,680;  284,803;33550,961;31,06424
 862,42;10508,991;  227,033;33349,032;31,04269
 862,98;10551,149;  257,956;33354,564;31,10045
 863,54;10472,306;  220,648;33068,020;31,20998
 864,10;10500,233;  224,878;33158,475;31,20022
 864,66;10460,159;  205,263;32801,777;31,46010
 865,22;10401,316;  230,186;32700,694;31,32421
 865,78;10384,474;  228,031;32483,534;31,48747
 866,34;10460,015;  216,416;32380,682;31,84776
 866,90;10374,942;  232,569;32365,983;31,56332
 867,45;10328,099;  233,877;32121,823;31,65529
 868,01;10343,949;  236,030;31924,817;31,89746
 868,57;10301,106;  233,414;31850,042;31,84303
 869,13;10223,879;  213,799;31633,266;31,85948
 869,69;10221,267;  231,491;31572,799;31,87415
 870,25;10214,501;  195,337;31446,023;32,06062
 870,81;10264,274;  225,183;31277,940;32,32914
 871,37;10207,662;  232,028;31215,396;32,19674
 871,93;10125,204;  248,259;31081,851;32,03307
 872,49;10126,284;  278,105;30774,999;32,29240
 873,04; 9998,057;  202,720;30672,762;32,14743
 873,60; 9994,598;  219,412;30479,371;32,30403
 874,16; 9973,294;  231,335;30434,058;32,25524
 874,72; 9967,756;  233,565;30331,365;32,34187
 875,28; 9973,756;  240,950;30233,750;32,45047
 875,84; 9969,294;  239,488;30124,288;32,55771
 876,40;10006,910;  219,642;30089,135;32,76677
 876,95; 9993,910;  244,181;30094,596;32,66195
 877,51;10060,063;  262,258;29995,904;32,95191
 878,07;10026,833;  278,796;30104,904;32,68290
 878,63;10011,679;  230,027;30106,135;32,74072
 879,19; 9991,140;  242,335;30152,519;32,59360
 879,75;10057,756;  231,796;30113,365;32,88301
 880,30;10094,679;  232,027;30041,827;33,08527
 880,86;10159,525;  272,181;30242,365;32,99060
 881,42;10203,756;  212,488;30266,058;33,24486
 881,98;10238,371;  235,412;30321,673;33,24760
 882,54;10212,140;  228,335;30386,904;33,10437
 883,09;10323,756;  243,796;30518,673;33,29480
 883,65;10308,371;  210,642;30670,750;33,15067
 884,21;10464,525;  253,335;30906,904;33,31159
 884,77;10492,140;  213,335;30947,519;33,44421
 885,32;10554,525;  229,873;31118,288;33,42564
 885,88;10653,679;  259,104;31227,212;33,56542
 886,44;10672,679;  236,565;31341,212;33,55162
 887,00;10763,756;  263,104;31300,596;33,83215
 887,56;10795,140;  225,335;31517,904;33,77737
 888,11;10817,602;  223,950;31516,212;33,85390
 888,67;10904,756;  257,565;31685,904;33,87768
 889,23;10906,679;  227,488;31733,135;33,89612
 889,79;10789,448;  212,719;31565,750;33,73431
 890,34;10850,602;  244,335;31564,365;33,86417
 890,90;10984,756;  319,335;31753,981;33,92887
 891,46;10790,063;  228,796;31630,442;33,63285
 892,01;10834,833;  246,335;31583,519;33,78893
 892,57;10867,525;  271,027;31485,519;33,94737
 893,13;10834,910;  249,488;31315,212;34,07428
 893,69;10788,679;  212,796;31272,673;34,04998
 894,24;10729,910;  237,950;31211,365;33,87408
 894,80;10729,910;  238,565;31004,058;34,10101
 895,36;10676,525;  228,796;30898,288;34,06554
 895,91;10664,371;  237,642;30537,827;34,41144
 896,47;10682,294;  260,027;30529,827;34,43124
 897,03;10627,063;  237,027;30303,904;34,55642
 897,58;10654,217;  241,642;30312,750;34,62651
 898,14;10604,910;  245,258;29990,442;34,82800
 898,70;10470,602;  205,181;29772,596;34,71870
 899,25;10516,371;  237,950;29750,288;34,82754
 899,81;10504,448;  246,950;29594,673;34,95160
 900,37;10390,217;  206,719;29340,827;34,95387
 900,92;10464,294;  221,796;29260,827;35,27149
 901,48;10402,679;  222,258;29132,135;35,21434
 902,03;10358,525;  231,950;29017,981;35,17878
 902,59;10410,063;  227,335;28905,673;35,50669
 903,15;10295,217;  250,873;28718,212;35,28375
 903,70;10190,833;  224,181;28494,519;35,25480
 904,26;10199,525;  230,873;28338,058;35,46656
 904,82;10175,294;  221,335;28354,596;35,38146
 905,37;10199,525;  228,796;28208,288;35,63585
 905,93;10104,987;  213,488;28030,365;35,55934
 906,48;10103,833;  245,796;27939,365;35,59684
 907,04;10121,217;  252,104;27864,827;35,74118
 907,60;10070,679;  245,796;27555,904;35,97526
 908,15; 9957,910;  224,104;27562,596;35,60476
 908,71;10009,833;  241,873;27514,058;35,81656
 909,26; 9912,756;  232,181;27271,135;35,80233
 909,82; 9901,294;  245,950;27185,212;35,84116
 910,37; 9936,217;  277,181;27060,750;36,06329
 910,93; 9826,525;  225,950;26855,442;36,05241
 911,48; 9787,140;  214,104;26728,904;36,10450
 912,04; 9697,448;  219,950;26546,981;35,99911
 912,60; 9762,140;  238,104;26595,135;36,13471
 913,15; 9683,217;  238,873;26404,827;36,09402
 913,71; 9608,294;  216,950;26202,827;36,14019
 914,26; 9558,833;  200,719;26087,288;36,15046
 914,82; 9578,294;  238,565;26018,519;36,22865
 915,37; 9497,063;  211,488;25997,904;36,00956
 915,93; 9556,679;  273,258;25806,673;36,35793
 916,48; 9472,602;  208,412;25663,750;36,39390
 917,04; 9396,602;  239,488;25524,673;36,21533
 917,59; 9409,833;  256,104;25455,135;36,32572
 918,15; 9335,833;  193,950;25229,673;36,51535
 918,70; 9292,602;  217,335;25166,904;36,37444
 919,26; 9323,294;  230,488;25054,212;36,62950
 919,81; 9204,833;  205,335;24844,288;36,52549
 920,37; 9196,910;  223,796;24869,212;36,40885
 920,92; 9171,602;  240,181;24722,135;36,48165
 921,48; 9117,063;  214,950;24481,212;36,68515
 922,03; 9133,448;  224,719;24464,288;36,75283
 922,59; 9096,140;  233,873;24275,135;36,86274
 923,14; 9052,602;  233,565;24151,519;36,87204
 923,69; 9040,525;  247,950;24129,827;36,81693
 924,25; 9099,756;  257,488;24016,519;37,21645
 924,80; 8995,525;  225,796;23773,058;37,24309
 925,36; 8982,602;  213,796;23715,750;37,31096
 925,91; 8929,525;  220,950;23554,596;37,32196
 926,47; 8903,833;  206,565;23505,519;37,32900
 927,02; 8965,140;  308,565;23399,212;37,48953
 927,57; 8826,217;  224,488;23133,981;37,54657
 928,13; 8810,217;  210,642;23119,058;37,53893
 928,68; 8777,910;  223,642;23056,904;37,46406
 929,24; 8708,217;  198,719;22802,135;37,64696
 929,79; 8720,602;  198,335;22770,904;37,75497
 930,34; 8676,217;  214,873;22576,365;37,83891
 930,90; 8645,756;  205,950;22459,750;37,92523
 931,45; 8706,140;  222,642;22482,288;38,11156
 932,01; 8712,756;  226,104;22355,827;38,34956
 932,56; 8597,294;  236,719;22221,212;38,02942
 933,11; 8672,987;  254,719;22291,750;38,20055
 933,67; 8521,063;  219,258;21968,750;38,17011
 934,22; 8510,294;  234,565;21936,596;38,13343
 934,77; 8493,525;  246,719;21783,442;38,29183
 935,33; 8470,987;  225,027;21639,212;38,50700
 935,88; 8438,833;  237,950;21579,519;38,42680
 936,43; 8410,140;  232,335;21484,750;38,47942
 936,99; 8359,910;  232,950;21357,212;38,47216
 937,54; 8276,448;  213,181;21167,135;38,48089
 938,09; 8300,602;  234,488;21117,596;38,62506
 938,65; 8252,833;  230,565;20960,904;38,69820
 939,20; 8229,679;  191,796;20899,135;38,81659
 939,75; 8215,063;  205,642;20820,904;38,85190
 940,31; 8144,448;  202,027;20736,135;38,67916
 940,86; 8176,833;  224,565;20640,904;38,95051
 941,41; 8213,140;  322,488;20687,058;38,74696
 941,96; 8091,371;  210,104;20382,596;39,06938
 942,52; 8016,833;  224,412;20334,212;38,74937
 943,07; 8002,371;  201,796;20198,981;39,00837
 943,62; 7962,833;  208,565;20065,365;39,05094
 944,18; 7945,987;  207,642;20067,750;38,96426
 944,73; 7950,063;  233,027;19904,519;39,22954
 945,28; 7856,602;  182,181;19787,288;39,14501
 945,83; 7859,140;  202,642;19727,981;39,21314
 946,39; 7841,525;  210,412;19667,519;39,22018
 946,94; 7849,217;  247,950;19561,519;39,35713
 947,49; 7758,756;  216,796;19444,904;39,22362
 948,04; 7831,679;  266,565;19358,135;39,62541
 948,59; 7792,063;  234,796;19262,673;39,71682
 949,15; 7696,063;  201,104;19211,058;39,42650
 949,70; 7757,371;  213,027;19100,981;39,94262
 950,25; 7687,910;  233,027;19043,904;39,63070
 950,80; 7630,679;  188,642;18873,827;39,82854
 951,36; 7625,910;  179,335;18800,288;39,99030
 951,91; 7683,756;  233,412;18795,442;40,13755
 952,46; 7588,756;  207,412;18571,981;40,19340
 953,01; 7640,602;  223,950;18566,827;40,43342
 953,56; 7555,833;  189,565;18417,058;40,41295
 954,11; 7602,679;  224,642;18398,288;40,59745
 954,67; 7522,371;  213,796;18288,827;40,43465
 955,22; 7486,833;  194,181;18158,981;40,59412
 955,77; 7528,756;  236,873;18057,981;40,91711
 956,32; 7431,371;  277,950;18018,904;40,32151
 956,87; 7372,833;  201,642;17865,519;40,59805
 957,42; 7385,987;  216,181;17850,981;40,65714
 957,98; 7363,525;  211,719;17736,365;40,80999
 958,53; 7347,063;  239,950;17642,212;40,84017
 959,08; 7323,448;  209,873;17533,750;41,06226
 959,63; 7279,679;  219,335;17419,365;41,04844
 960,18; 7261,448;  223,027;17410,288;40,95138
 960,73; 7237,679;  222,335;17321,904;41,02644
 961,28; 7162,294;  186,719;17229,673;40,92938
 961,83; 7167,294;  243,950;17205,596;40,81764
 962,39; 7117,448;  200,335;17013,981;41,13988
 962,94; 7131,910;  221,950;16965,827;41,26858
 963,49; 7087,833;  226,104;16777,750;41,45647
 964,04; 7059,140;  232,335;16730,135;41,38010
 964,59; 6992,910;  195,181;16633,212;41,35367
 965,14; 7057,525;  249,335;16582,827;41,68239
 965,69; 6971,525;  217,027;16489,750;41,50810
 966,24; 6876,756;  210,412;16394,135;41,19166
 966,79; 6868,294;  239,488;16254,904;41,39016
 967,34; 6795,371;  185,181;16132,519;41,45012
 967,89; 6812,756;  210,335;16050,442;41,68167
 968,44; 6819,217;  216,104;16013,750;41,79808
 968,99; 6814,833;  236,027;15961,135;41,83632
 969,55; 6776,679;  219,412;15833,904;41,99475
 970,10; 6735,448;  232,642;15723,904;41,97725
 970,65; 6700,602;  241,796;15646,827;41,92660
 971,20; 6613,987;  216,258;15527,673;41,78405
 971,75; 6517,602;  195,104;15326,981;41,78264
 972,30; 6506,294;  220,719;15239,596;41,85117
 972,85; 6495,833;  203,796;15149,519;42,09924
 973,40; 6445,910;  208,719;15022,288;42,10458
 973,95; 6448,371;  221,181;15008,827;42,11076
 974,50; 6394,756;  252,412;14953,596;41,78129
 975,05; 6343,987;  223,335;14782,596;42,03958
 975,60; 6320,910;  241,796;14703,981;42,03454
 976,15; 6245,294;  212,873;14616,288;41,88188
 976,70; 6248,294;  222,412;14529,981;42,11675
 977,25; 6241,140;  243,027;14485,827;42,11330
 977,80; 6154,910;  224,181;14321,904;42,06870
 978,35; 6098,833;  243,027;14164,904;42,06190
 978,89; 6053,602;  196,104;14069,596;42,22079
 979,44; 6050,063;  234,258;14051,058;42,09228
 979,99; 5977,602;  212,796;13923,981;42,04455
 980,54; 5975,910;  238,104;13784,212;42,35760
 981,09; 5959,217;  247,104;13719,365;42,39907
 981,64; 5929,217;  231,950;13610,365;42,58552
 982,19; 5899,525;  266,950;13503,827;42,55214
 982,74; 5846,140;  230,950;13377,981;42,71071
 983,29; 5784,756;  221,104;13220,519;42,79925
 983,84; 5706,063;  218,873;13114,904;42,54945
 984,39; 5810,063;  319,642;13130,442;42,85775
 984,94; 5674,679;  194,873;12941,673;42,98966
 985,49; 5666,063;  243,565;12824,981;43,09927
 986,03; 5610,294;  246,719;12732,442;42,95766
 986,58; 5553,602;  285,950;12591,904;42,80572
 987,13; 5520,294;  229,642;12498,288;43,12336
 987,68; 5439,371;  252,104;12396,365;42,71373
 988,23; 5462,140;  234,258;12288,981;43,36792
 988,78; 5370,371;  210,719;12097,058;43,40825
 989,33; 5407,525;  246,412;12040,596;43,75982
 989,88; 5344,448;  263,412;12016,519;43,23143
 990,42; 5233,679;  214,873;11778,135;43,40303
 990,97; 5199,602;  229,950;11706,981;43,30085
 991,52; 5228,756;  246,335;11632,058;43,76025
 992,07; 5167,294;  275,719;11520,442;43,50107
 992,62; 5136,217;  238,719;11359,673;44,03847
 993,17; 5083,679;  249,719;11261,827;43,89677
 993,71; 5053,371;  243,258;11131,750;44,17612
 994,26; 4937,063;  210,796;11031,442;43,67824
 994,81; 4954,987;  254,565;10961,058;43,90253
 995,36; 4869,140;  218,642;10804,288;43,93211
 995,91; 4829,371;  228,027;10706,904;43,91066
 996,45; 4806,294;  240,488;10601,673;44,06645
 997,00; 4736,756;  219,873;10453,596;44,13724
 997,55; 4755,910;  235,873;10425,288;44,36012
 998,10; 4679,371;  258,719;10286,750;44,08295
 998,65; 4655,294;  229,027;10223,750;44,28604
 999,19; 4577,987;  245,412;10122,981;43,86277
 999,74; 4555,448;  275,796;10010,827;43,96136
1000,29; 4503,987;  229,642; 9896,442;44,21674
1000,84; 4410,602;  224,565; 9747,519;43,95733
1001,38; 4439,294;  231,488; 9658,519;44,63554
1001,93; 4403,448;  257,104; 9600,596;44,37681
1002,48; 4315,371;  213,488; 9385,365;44,72239
1003,03; 4300,448;  247,027; 9390,519;44,33121
1003,57; 4204,217;  241,027; 9279,673;43,84717
1004,12; 4255,063;  287,258; 9162,288;44,70752
1004,67; 4151,910;  236,104; 9069,904;44,32753
1005,22; 4070,217;  225,181; 8908,212;44,28219
1005,76; 4019,525;  219,027; 8775,904;44,41455
1006,31; 4013,679;  248,335; 8757,135;44,25235
1006,86; 3942,448;  221,104; 8563,212;44,60916
1007,40; 3885,987;  205,796; 8430,827;44,74379
1007,95; 3867,294;  235,488; 8365,596;44,67107
1008,50; 3813,525;  237,873; 8197,827;44,92051
1009,04; 3748,756;  220,412; 8126,058;44,63069
1009,59; 3730,448;  236,873; 7965,288;45,20429
1010,14; 3690,525;  212,796; 7876,442;45,37956
1010,68; 3657,833;  229,258; 7739,827;45,65000
1011,23; 3600,140;  245,796; 7677,981;45,13268
1011,78; 3572,140;  241,181; 7525,596;45,72721
1012,32; 3504,756;  270,258; 7462,827;44,97000
1012,87; 3502,217;  263,719; 7386,673;45,46566
1013,42; 3429,756;  212,258; 7261,058;45,64604
1013,96; 3436,294;  267,565; 7279,212;45,19237
1014,51; 3395,756;  191,335; 7170,750;45,91246
1015,06; 3370,910;  204,565; 7161,981;45,51035
1015,60; 3442,679;  272,181; 7212,442;45,68269
1016,15; 3402,987;  230,488; 7164,596;45,75207
1016,69; 3411,833;  243,488; 7178,750;45,68457
1017,24; 3418,217;  213,796; 7181,904;45,98696
1017,79; 3440,679;  273,258; 7245,288;45,43040
1018,33; 3431,217;  235,258; 7272,135;45,41730
1018,88; 3494,448;  248,027; 7366,673;45,60447
1019,42; 3474,063;  221,335; 7292,904;45,99727
1019,97; 3454,910;  220,027; 7299,519;45,69371
1020,51; 3521,294;  259,950; 7441,981;45,40978
1021,06; 3471,602;  201,181; 7343,365;45,79021
1021,61; 3450,140;  191,335; 7303,827;45,81806
1022,15; 3418,448;  189,027; 7269,673;45,60913
1022,70; 3436,987;  219,719; 7266,212;45,65771
1023,24; 3416,679;  200,258; 7238,519;45,69909
1023,79; 3395,525;  217,719; 7180,365;45,64078
1024,33; 3361,602;  221,412; 7083,750;45,75977
1024,88; 3356,910;  248,488; 7045,442;45,73256
1025,42; 3310,756;  243,642; 6925,135;45,90462
1025,97; 3241,140;  214,335; 6840,365;45,68053
1026,51; 3222,525;  190,488; 6693,288;46,62663
1027,06; 3200,140;  215,027; 6644,135;46,43123
1027,60; 3147,217;  230,104; 6497,827;46,54184
1028,15; 3123,140;  244,488; 6405,519;46,72354
1028,69; 3018,217;  193,335; 6264,904;46,52640
1029,24; 2992,679;  208,488; 6246,212;46,11325
1029,78; 2946,371;  199,027; 6111,288;46,46858
1030,33; 2887,294;  198,027; 6015,673;46,22604
1030,87; 2862,910;  210,950; 5917,365;46,47330
1031,42; 2800,371;  206,642; 5828,365;46,13761
1031,96; 2803,448;  238,565; 5783,365;46,25744
1032,51; 2755,371;  203,719; 5651,442;46,83887
1033,05; 2754,217;  218,873; 5613,519;46,99741
1033,60; 2653,602;  187,873; 5496,442;46,44809
1034,14; 2673,833;  215,796; 5412,596;47,29904
1034,69; 2672,679;  219,565; 5370,827;47,62161
1035,23; 2609,063;  215,950; 5260,212;47,44230
1035,77; 2593,910;  223,104; 5248,365;47,17776
1036,32; 2538,371;  189,950; 5121,981;47,61570
1036,86; 2525,679;  226,950; 5079,058;47,37588
1037,41; 2502,833;  231,719; 5010,442;47,52553
1037,95; 2436,371;  187,181; 4891,673;47,80942
1038,50; 2422,602;  205,950; 4864,904;47,57832
1039,04; 2410,371;  232,104; 4830,519;47,36996
1039,58; 2330,448;  188,181; 4698,519;47,49682
1040,13; 2337,294;  213,488; 4668,519;47,67208
1040,67; 2341,987;  243,027; 4628,750;47,85892
1041,21; 2304,756;  256,796; 4547,750;47,72737
1041,76; 2233,140;  210,950; 4455,442;47,64269
1042,30; 2211,602;  208,027; 4408,596;47,69770
1042,85; 2174,294;  208,412; 4337,596;47,60946
1043,39; 2117,294;  199,104; 4251,827;47,33090
1043,93; 2131,602;  237,719; 4235,827;47,36948
1044,48; 2110,217;  226,565; 4140,673;48,12468
1045,02; 2068,063;  215,873; 4101,596;47,66656
1045,56; 2079,602;  249,565; 4063,519;47,98266
1046,11; 2039,448;  211,565; 3975,750;48,55986
1046,65; 1994,525;  236,335; 3947,135;47,38036
1047,19; 1968,294;  206,335; 3840,365;48,48499
1047,74; 1935,987;  195,565; 3786,058;48,47305
1048,28; 1906,987;  219,719; 3747,288;47,83088
1048,82; 1941,602;  250,796; 3728,519;48,61818
1049,37; 1895,448;  226,104; 3685,596;48,25402
1049,91; 1896,217;  226,565; 3639,519;48,92102
1050,45; 1854,371;  231,873; 3582,442;48,42455
1050,99; 1829,294;  240,027; 3521,442;48,43237
1051,54; 1786,756;  212,335; 3462,827;48,43639
1052,08; 1802,602;  249,335; 3419,904;48,99017
1052,62; 1775,217;  229,796; 3371,904;49,18422
1053,16; 1711,140;  215,950; 3308,904;48,34183
1053,71; 1713,294;  229,258; 3285,519;48,55725
1054,25; 1704,756;  241,104; 3249,058;48,65939
1054,79; 1675,910;  232,181; 3195,981;48,71209
1055,33; 1614,679;  199,335; 3123,442;48,40260
1055,88; 1623,602;  230,258; 3130,750;48,03820
1056,42; 1630,294;  241,796; 3047,519;49,48807
1056,96; 1608,063;  250,565; 3039,596;48,67275
1057,50; 1578,217;  243,335; 2967,827;48,99565
1058,05; 1550,679;  229,412; 2925,365;49,00927
1058,59; 1543,756;  248,412; 2899,365;48,86333
1059,13; 1473,525;  204,565; 2818,365;48,54846
1059,67; 1492,448;  232,565; 2779,673;49,46327
1060,21; 1464,217;  227,335; 2747,981;49,07006
1060,76; 1449,987;  237,027; 2708,442;49,07955
1061,30; 1442,140;  249,719; 2704,288;48,57965
1061,84; 1424,217;  247,258; 2628,981;49,41631
1062,38; 1364,833;  212,104; 2586,212;48,55419
1062,92; 1421,910;  277,873; 2601,058;49,24432
1063,46; 1347,987;  246,642; 2509,442;48,67174
1064,01; 1337,371;  221,104; 2458,519;49,89093
1064,55; 1347,217;  240,335; 2459,212;49,88482
1065,09; 1276,602;  204,335; 2400,058;48,83436
1065,63; 1312,910;  257,719; 2402,827;49,19056
1066,17; 1325,140;  266,335; 2389,135;49,87779
1066,71; 1300,371;  256,335; 2352,596;49,80469
1067,25; 1246,371;  220,950; 2311,135;49,05888
1067,80; 1253,525;  244,027; 2286,442;49,42668
1068,34; 1264,756;  267,412; 2279,058;49,57851
1068,88; 1213,294;  225,950; 2208,596;49,79932
1069,42; 1256,371;  256,412; 2208,442;51,22663
1069,96; 1204,756;  229,565; 2160,288;50,50908
1070,50; 1216,987;  270,719; 2161,442;50,04791
1071,04; 1153,833;  221,642; 2100,981;49,60205
1071,58; 1159,371;  230,335; 2067,519;50,56849
1072,12; 1144,525;  238,104; 2066,442;49,57622
1072,66; 1125,756;  229,796; 2023,135;49,96043
1073,21; 1136,217;  251,104; 2028,442;49,79994
1073,75; 1104,217;  234,950; 1996,365;49,35050
1074,29; 1088,910;  240,719; 1960,519;49,31913
1074,83; 1099,063;  267,181; 1945,519;49,56585
1075,37; 1095,679;  270,258; 1953,212;49,04598
1075,91; 1084,140;  251,565; 1911,827;50,14722
1076,45; 1067,987;  238,873; 1886,750;50,31404
1076,99; 1044,679;  256,873; 1879,212;48,55989
1077,53; 1014,679;  229,642; 1820,750;49,33899
1078,07; 1015,063;  248,258; 1817,750;48,85693
1078,61; 1031,063;  239,181; 1778,058;51,45848
1079,15;  995,525;  232,412; 1754,288;50,14292
1079,69; 1005,063;  239,488; 1741,904;50,95628
1080,23; 1010,140;  263,181; 1731,827;50,86042
1080,77; 1033,602;  314,335; 1769,750;49,42007
1081,31;  949,063;  227,412; 1663,981;50,23440
1081,85;  970,987;  260,565; 1681,212;50,00690
1082,39;  942,371;  231,642; 1628,212;50,89106
1082,93;  947,371;  248,412; 1642,365;50,14224
1083,47;  909,756;  216,565; 1566,904;51,33457
1084,01;  927,140;  252,719; 1585,904;50,58723
1084,55;  906,448;  229,181; 1557,673;50,98015
1085,09;  906,448;  256,258; 1563,981;49,71927
1085,63;  887,294;  253,104; 1546,519;49,03223
1086,17;  872,910;  237,488; 1493,981;50,57103
1086,71;  857,525;  212,488; 1467,365;51,40237
1087,24;  884,448;  253,873; 1506,212;50,35180
1087,78;  861,910;  265,565; 1493,135;48,57927
1088,32;  836,217;  231,335; 1426,442;50,61324
1088,86;  845,371;  240,412; 1442,442;50,32813
1089,40;  841,217;  249,104; 1424,442;50,37812
1089,94;  807,602;  219,335; 1378,212;50,76185
1090,48;  812,448;  250,104; 1378,673;49,82807
1091,02;  825,217;  253,642; 1388,596;50,36108
1091,56;  787,756;  243,181; 1350,904;49,16166
1092,10;  767,756;  214,719; 1296,212;51,13643
1092,63;  806,294;  271,873; 1345,750;49,76559
1093,17;  778,217;  248,796; 1312,365;49,77778
1093,71;  764,756;  232,719; 1282,135;50,69837
1094,25;  776,833;  251,873; 1299,673;50,10113
1094,79;  748,063;  238,335; 1255,135;50,13069
1095,33;  742,525;  248,565; 1272,288;48,25129
1095,87;  741,140;  237,488; 1246,135;49,93346
1096,40;  714,371;  218,412; 1192,981;50,89014
1096,94;  729,833;  244,258; 1190,904;51,29425
1097,48;  735,602;  258,488; 1205,827;50,36357
1098,02;  706,679;  234,873; 1177,365;50,05938
1098,56;  672,217;  212,335; 1127,058;50,27562
1099,10;  679,371;  213,335; 1134,135;50,61213
1099,63;  661,833;  220,335; 1115,135;49,34042
1100,17;  694,140;  257,412; 1133,673;49,84001
1100,71;  716,371;  274,796; 1126,981;51,81682

