
Integration time [ms]: 160,000
Averaging Nr. [scans]: 13
Smoothing Nr. [pixels]: 0
Data measured with spectrometer [name]: 2009305U1
Wave   ;Sample   ;Dark     ;Reference;Reflectance
[nm]   ;[counts] ;[counts] ;[counts] ;[%]

 175,72;  216,836;  211,481;  218,198;79,71354
 176,32;  231,170;  242,342;  237,064; 0,00000
 176,92;  280,269;  274,024;  286,893;48,52684
 177,52;  279,780;  269,099;  274,399;201,53419
 178,12;  254,383;  242,726;  241,865; 0,00000
 178,72;  284,787;  285,192;  276,001; 0,00000
 179,32;  278,927;  271,804;  258,781; 0,00000
 179,92;  269,151;  271,952;  251,920; 0,00000
 180,52;  255,634;  247,166;  277,718;27,71701
 181,12;  284,861;  273,258;  268,649; 0,00000
 181,73;  286,633;  303,642;  290,175; 0,00000
 182,33;  405,349;  400,787;  408,394;59,97844
 182,93;  286,115;  285,176;  293,730;10,97654
 183,53;  250,637;  256,655;  235,234; 0,00000
 184,13;  253,826;  258,269;  234,768; 0,00000
 184,73;  308,421;  310,349;  296,521; 0,00000
 185,33;  282,995;  248,820;  394,412;23,47339
 185,93;  292,514;  245,368;  398,196;30,84877
 186,53;  311,111;  265,978;  408,744;31,61292
 187,13;  344,252;  290,044;  447,866;34,34755
 187,73;  288,797;  264,675;  415,930;15,94812
 188,33;  285,766;  245,219;  387,713;28,45525
 188,93;  315,965;  270,930;  405,484;33,47006
 189,53;  302,091;  269,175;  424,072;21,25027
 190,13;  334,801;  303,044;  440,384;23,12238
 190,73;  282,816;  239,106;  383,350;30,30328
 191,34;  311,495;  276,781;  434,912;21,95241
 191,94;  293,854;  252,456;  418,799;24,88711
 192,54;  307,904;  270,574;  439,983;22,03549
 193,14;  331,684;  271,430;  434,086;37,04383
 193,74;  321,276;  277,278;  439,295;27,15670
 194,34;  323,074;  276,273;  426,370;31,18032
 194,94;  282,095;  229,891;  407,340;29,41932
 195,54;  263,273;  215,357;  369,546;31,07600
 196,14;  281,978;  234,578;  405,012;27,81095
 196,74;  280,268;  242,129;  389,416;25,89396
 197,34;  243,128;  211,648;  390,907;17,56092
 197,94;  263,019;  241,044;  415,716;12,58088
 198,54;  300,119;  255,194;  430,267;25,66068
 199,14;  258,444;  222,722;  427,949;17,40626
 199,74;  260,340;  211,106;  431,925;22,29597
 200,34;  254,841;  201,105;  426,377;23,85416
 200,94;  283,475;  249,189;  481,453;14,76179
 201,54;  274,292;  222,339;  476,646;20,42934
 202,14;  318,266;  267,948;  536,358;18,74690
 202,74;  280,819;  230,799;  536,970;16,33715
 203,34;  274,267;  198,866;  546,256;21,70513
 203,94;  235,207;  181,101;  534,318;15,31818
 204,54;  317,615;  260,735;  653,213;14,49245
 205,14;  270,201;  215,491;  657,051;12,39015
 205,74;  326,168;  257,251;  756,379;13,80746
 206,34;  295,973;  225,486;  763,868;13,09239
 206,94;  305,038;  234,411;  851,748;11,44051
 207,54;  303,914;  197,564;  867,836;15,86666
 208,14;  312,788;  203,255;  963,005;14,41693
 208,74;  316,372;  220,107; 1048,173;11,62529
 209,34;  327,387;  220,336; 1146,059;11,56402
 209,94;  356,891;  228,106; 1279,593;12,24787
 210,54;  355,736;  212,945; 1358,793;12,46155
 211,14;  367,099;  222,029; 1514,178;11,22701
 211,73;  382,004;  224,494; 1640,996;11,11968
 212,33;  410,195;  246,343; 1758,938;10,83250
 212,93;  407,657;  221,030; 1894,450;11,15242
 213,53;  382,652;  196,107; 1929,919;10,75928
 214,13;  436,789;  220,170; 2031,963;11,95607
 214,73;  398,805;  189,409; 2041,666;11,30489
 215,33;  402,891;  185,183; 2081,131;11,48279
 215,93;  439,813;  212,405; 2230,476;11,26857
 216,53;  417,468;  181,492; 2297,215;11,15346
 217,13;  498,850;  224,715; 2533,410;11,87404
 217,73;  507,528;  212,713; 2767,506;11,53968
 218,33;  487,112;  155,092; 2966,387;11,81023
 218,93;  577,871;  208,312; 3334,968;11,81965
 219,53;  631,854;  213,092; 3666,979;12,12438
 220,13;  629,041;  173,551; 4026,440;11,82204
 220,73;  723,605;  189,106; 4398,392;12,69811
 221,32;  774,141;  187,184; 4901,481;12,45058
 221,92;  848,879;  213,705; 5372,536;12,31237
 222,52;  892,049;  184,943; 5861,538;12,45652
 223,12;  979,275;  189,173; 6366,852;12,78962
 223,72; 1067,863;  196,865; 6820,752;13,14935
 224,32; 1126,883;  206,941; 7315,632;12,94109
 224,92; 1158,628;  189,634; 7653,451;12,98255
 225,52; 1262,857;  211,103; 8058,109;13,40324
 226,12; 1307,942;  198,099; 8394,150;13,54118
 226,72; 1350,755;  172,716; 8818,142;13,62616
 227,31; 1397,115;  167,716; 9288,269;13,47944
 227,91; 1505,750;  207,181; 9795,790;13,54282
 228,51; 1557,723;  186,034;10198,182;13,70025
 229,11; 1643,157;  194,408;10644,726;13,86320
 229,71; 1707,352;  187,031;11067,447;13,97301
 230,31; 1786,430;  182,016;11517,374;14,15406
 230,91; 1828,147;  165,576;11911,197;14,15482
 231,51; 1901,272;  185,174;12242,326;14,23303
 232,10; 1990,522;  184,861;12643,414;14,49334
 232,70; 2055,689;  189,504;12859,370;14,72932
 233,30; 2127,510;  218,944;13193,393;14,71019
 233,90; 2147,178;  183,560;13313,674;14,95507
 234,50; 2182,567;  189,174;13436,659;15,04733
 235,10; 2189,397;  185,403;13455,913;15,10111
 235,70; 2239,764;  211,720;13468,454;15,29822
 236,29; 2237,645;  197,415;13436,168;15,41104
 236,89; 2235,641;  171,190;13193,436;15,85326
 237,49; 2260,083;  197,869;13088,252;15,99808
 238,09; 2207,435;  193,871;12729,099;16,06324
 238,69; 2244,335;  243,194;12505,680;16,31921
 239,29; 2131,340;  186,564;12046,908;16,39730
 239,89; 2080,358;  197,421;11575,386;16,54898
 240,48; 2015,795;  184,948;11134,687;16,72046
 241,08; 1956,705;  188,180;10682,952;16,85148
 241,68; 1949,931;  205,640;10272,873;17,32642
 242,28; 1873,143;  171,791; 9848,284;17,58232
 242,88; 1861,608;  233,708; 9478,401;17,60902
 243,48; 1802,572;  238,638; 9155,891;17,53829
 244,07; 1736,802;  198,566; 8855,609;17,76860
 244,67; 1744,964;  214,793; 8693,035;18,04821
 245,27; 1696,158;  209,494; 8466,303;18,00531
 245,87; 1713,206;  211,325; 8363,749;18,42251
 246,47; 1702,414;  203,032; 8352,176;18,39925
 247,06; 1679,867;  188,257; 8320,626;18,34164
 247,66; 1735,686;  188,793; 8410,748;18,81417
 248,26; 1781,650;  208,492; 8598,777;18,74975
 248,86; 1809,667;  217,262; 8812,360;18,52689
 249,46; 1819,069;  154,559; 9031,811;18,75028
 250,05; 1922,465;  213,487; 9546,119;18,31185
 250,65; 1982,294;  176,187; 9989,959;18,40380
 251,25; 2133,926;  188,796;10490,127;18,88231
 251,85; 2247,936;  188,190;11125,846;18,83170
 252,44; 2366,347;  155,645;11908,685;18,80962
 253,04; 2577,990;  203,875;12810,007;18,83302
 253,64; 2680,033;  153,034;13680,640;18,68031
 254,24; 2943,953;  220,718;14831,835;18,63811
 254,84; 3101,684;  188,867;15996,734;18,42638
 255,43; 3359,151;  185,953;17244,536;18,60177
 256,03; 3601,721;  203,726;18451,646;18,62127
 256,63; 3882,154;  201,036;19808,871;18,77371
 257,23; 4051,651;  181,113;20871,414;18,70702
 257,82; 4312,831;  205,733;22198,232;18,67499
 258,42; 4490,198;  151,813;23334,204;18,71414
 259,02; 4801,159;  220,798;24592,594;18,79369
 259,62; 4925,748;  179,814;25547,111;18,70887
 260,21; 5085,744;  196,953;26211,736;18,79236
 260,81; 5204,535;  186,715;26980,120;18,72782
 261,41; 5341,761;  176,580;27633,684;18,81182
 262,01; 5479,547;  227,047;28229,601;18,75722
 262,60; 5540,574;  177,805;28838,491;18,71124
 263,20; 5638,096;  187,494;29286,737;18,73108
 263,80; 5705,177;  201,432;29662,957;18,68113
 264,40; 5774,410;  170,123;29839,945;18,88885
 264,99; 5826,797;  199,048;30127,181;18,80421
 265,59; 5797,468;  189,670;30316,259;18,61411
 266,19; 5836,688;  176,970;30574,780;18,61883
 266,78; 5950,655;  233,205;30823,865;18,69018
 267,38; 5893,841;  208,823;30828,429;18,56659
 267,98; 5882,985;  196,743;30871,434;18,53724
 268,58; 5875,893;  195,438;30913,172;18,49243
 269,17; 5908,102;  177,367;31023,779;18,57829
 269,77; 5829,809;  199,577;30754,570;18,42655
 270,37; 5779,889;  175,971;30671,922;18,37594
 270,96; 5788,357;  228,656;30454,950;18,39359
 271,56; 5710,591;  194,806;30122,767;18,43021
 272,16; 5592,855;  187,735;29971,268;18,14802
 272,75; 5617,736;  186,427;29859,965;18,30355
 273,35; 5574,441;  192,425;29843,931;18,15090
 273,95; 5547,171;  187,196;29778,711;18,11322
 274,54; 5537,172;  167,718;29810,629;18,11379
 275,14; 5657,528;  216,886;30186,602;18,15380
 275,74; 5565,123;  167,427;30271,039;17,93040
 276,33; 5689,772;  224,654;30851,261;17,84435
 276,93; 5765,083;  201,793;31279,415;17,90127
 277,53; 5882,387;  199,569;31882,683;17,93643
 278,12; 5969,554;  183,727;32492,142;17,90811
 278,72; 6168,225;  251,954;33285,317;17,90999
 279,32; 6274,141;  181,955;33862,874;18,08795
 279,91; 6430,153;  168,956;34771,549;18,09459
 280,51; 6615,551;  184,107;35427,430;18,24869
 281,11; 6813,282;  189,033;36405,369;18,29078
 281,70; 6887,468;  173,342;36799,693;18,33141
 282,30; 7119,822;  178,575;37647,075;18,52555
 282,90; 7195,015;  188,114;38160,150;18,45279
 283,49; 7415,876;  202,271;38818,062;18,68045
 284,09; 7652,728;  225,496;39352,713;18,98227
 284,69; 7772,515;  222,493;39716,819;19,11673
 285,28; 7936,217;  212,727;40272,352;19,27999
 285,88; 8184,357;  271,043;40575,343;19,63392
 286,47; 8213,043;  191,806;40555,943;19,87219
 287,07; 8383,399;  223,647;40682,282;20,16813
 287,67; 8513,649;  218,254;40858,814;20,41162
 288,26; 8648,017;  186,493;40795,817;20,83640
 288,86; 8869,458;  184,727;40802,177;21,38177
 289,46; 9094,252;  202,494;40964,118;21,81404
 290,05; 9346,492;  189,873;40945,997;22,46685
 290,65; 9643,306;  188,038;41352,190;22,96966
 291,24; 9863,034;  196,646;41512,007;23,39660
 291,84;10195,154;  209,575;41660,409;24,09018
 292,44;10495,232;  200,560;41800,490;24,74685
 293,03;10786,868;  285,723;41934,340;25,21367
 293,63;11002,760;  190,960;42113,662;25,78985
 294,22;11312,756;  227,110;42371,190;26,30416
 294,82;11468,420;  185,815;42256,231;26,81838
 295,41;11546,006;  169,726;41928,693;27,24272
 296,01;11764,543;  224,197;41937,898;27,66560
 296,61;11812,972;  227,570;41649,594;27,96918
 297,20;11766,473;  196,197;41109,418;28,28004
 297,80;11818,698;  214,718;40879,116;28,53597
 298,39;11789,398;  172,344;40404,615;28,87496
 298,99;11790,151;  222,349;40273,823;28,88234
 299,58;11789,991;  207,947;39970,212;29,12823
 300,18;11731,219;  223,719;39835,925;29,05039
 300,78;11696,714;  184,183;39324,178;29,41373
 301,37;11701,204;  202,741;39327,758;29,38903
 301,97;11739,843;  204,802;39294,553;29,50912
 302,56;11702,983;  195,345;39240,911;29,47233
 303,16;11706,752;  176,193;39095,766;29,62663
 303,75;11700,898;  188,105;39022,882;29,64558
 304,35;11771,521;  185,712;39371,209;29,56657
 304,94;11843,545;  184,802;39363,454;29,75790
 305,54;11833,141;  225,799;39364,788;29,65672
 306,13;11773,709;  165,865;39235,829;29,71040
 306,73;11673,887;  175,714;38959,642;29,64675
 307,33;11697,063;  203,792;38958,373;29,65655
 307,92;11765,970;  206,415;38898,444;29,87580
 308,52;11880,179;  177,116;39535,145;29,73488
 309,11;12034,369;  188,506;40084,403;29,69193
 309,71;12153,405;  183,047;40497,883;29,69219
 310,30;12199,781;  171,416;40684,285;29,69023
 310,90;12423,935;  237,031;41231,208;29,72838
 311,49;12384,567;  205,417;41350,330;29,60062
 312,09;12400,782;  162,180;41476,721;29,62299
 312,68;12612,883;  261,414;41986,611;29,60194
 313,28;12597,354;  173,108;42091,290;29,63928
 313,87;12544,682;  158,339;42363,178;29,34816
 314,47;12660,563;  185,889;42609,624;29,40494
 315,06;12695,570;  168,492;42638,934;29,49599
 315,66;12754,705;  179,950;42994,336;29,37040
 316,25;12667,735;  152,577;42865,028;29,30096
 316,85;12688,536;  155,334;42884,519;29,33171
 317,44;12614,647;  176,890;43146,152;28,94571
 318,04;12628,117;  170,806;43057,638;29,04694
 318,63;12553,592;  157,253;43115,078;28,85700
 319,22;12566,859;  187,730;43434,931;28,62412
 319,82;12579,373;  191,112;43397,964;28,67198
 320,41;12466,432;  204,345;43284,244;28,46359
 321,01;12467,750;  200,104;43511,944;28,32400
 321,60;12445,076;  193,881;43642,096;28,19723
 322,20;12302,364;  165,031;43518,037;27,99652
 322,79;12354,890;  206,800;43654,986;27,95995
 323,39;12306,860;  180,790;43572,225;27,94577
 323,98;12227,064;  175,338;43633,481;27,73180
 324,58;12143,268;  167,655;43447,351;27,67028
 325,17;12075,834;  185,269;43201,366;27,64213
 325,76;11985,684;  201,186;43122,636;27,45596
 326,36;11836,174;  169,874;42593,788;27,49935
 326,95;11720,572;  218,649;42178,563;27,41169
 327,55;11538,760;  176,497;41915,346;27,22227
 328,14;11316,552;  172,794;41348,251;27,06408
 328,74;11218,395;  209,038;40829,011;27,10331
 329,33;11035,407;  190,105;40315,939;27,02823
 329,92;10800,994;  166,890;39660,305;26,92627
 330,52;10551,983;  192,178;38900,769;26,76358
 331,11;10437,088;  178,881;38444,687;26,80776
 331,71;10205,999;  186,110;37666,472;26,73370
 332,30;10057,314;  198,878;37106,531;26,71109
 332,89; 9904,886;  266,490;36426,984;26,65449
 333,49; 9632,046;  198,649;35823,230;26,48002
 334,08; 9406,671;  181,497;35198,217;26,34505
 334,68; 9263,862;  188,497;34737,295;26,26825
 335,27; 9181,358;  194,100;34311,321;26,34229
 335,86; 9141,396;  250,573;33898,764;26,42288
 336,46; 8934,907;  202,792;33572,761;26,16758
 337,05; 8836,909;  181,419;33453,737;26,01409
 337,65; 8805,874;  169,650;33172,347;26,16824
 338,24; 8806,027;  230,645;33140,248;26,05738
 338,83; 8759,948;  221,260;33125,328;25,95025
 339,43; 8715,206;  174,269;32976,622;26,03758
 340,02; 8735,700;  181,270;32831,100;26,20053
 340,61; 8697,481;  191,954;32885,805;26,01568
 341,21; 8721,241;  210,653;32927,934;26,01252
 341,80; 8691,338;  189,497;32862,882;26,02069
 342,40; 8714,520;  195,332;33024,003;25,95045
 342,99; 8774,578;  179,490;33101,753;26,10722
 343,58; 8783,022;  178,105;33248,554;26,01996
 344,18; 8877,338;  214,950;33488,535;26,03383
 344,77; 8936,278;  179,885;33746,098;26,08692
 345,36; 9050,957;  175,803;34210,255;26,07697
 345,96; 9132,970;  212,105;34584,196;25,95381
 346,55; 9222,870;  169,789;34774,204;26,16164
 347,14; 9374,711;  173,101;35169,313;26,29316
 347,74; 9476,472;  156,013;35698,813;26,22320
 348,33; 9738,288;  186,707;36480,186;26,31762
 348,92; 9930,662;  191,394;37188,955;26,32408
 349,52;10094,448;  153,550;37759,932;26,43407
 350,11;10204,809;  169,963;38005,963;26,52195
 350,70;10228,059;  176,954;38194,188;26,43829
 351,29;10152,707;  171,897;37901,223;26,45372
 351,89;10230,356;  200,659;37840,505;26,64649
 352,48;10211,329;  150,339;37923,879;26,63502
 353,07;10272,741;  197,408;37836,555;26,76823
 353,67;10228,682;  202,394;37818,604;26,65417
 354,26;10207,338;  190,255;37412,595;26,91148
 354,85;10177,035;  189,026;37287,366;26,92306
 355,45;10117,767;  162,959;36975,643;27,04179
 356,04;10102,902;  183,638;36930,767;26,99330
 356,63;10100,428;  217,111;36670,003;27,11257
 357,22;10052,544;  183,048;36525,690;27,15679
 357,82;10020,500;  180,892;36305,305;27,23811
 358,41;10071,585;  217,263;36129,991;27,43964
 359,00; 9997,296;  167,500;35840,289;27,55545
 359,60;10002,784;  185,799;35775,735;27,58360
 360,19; 9983,190;  208,098;35547,956;27,66025
 360,78; 9958,234;  189,189;35462,705;27,69513
 361,37; 9901,130;  180,958;35141,143;27,80355
 361,97; 9928,282;  185,572;35077,292;27,92270
 362,56; 9810,516;  190,040;34711,396;27,86819
 363,15; 9830,507;  253,882;34372,239;28,06883
 363,74; 9691,471;  191,735;33926,345;28,16021
 364,34; 9641,926;  203,115;33405,107;28,42845
 364,93; 9543,945;  183,348;32948,157;28,56906
 365,52; 9416,473;  156,650;32451,071;28,67313
 366,11; 9381,770;  182,961;32152,418;28,77374
 366,71; 9238,859;  178,730;31649,470;28,78906
 367,30; 9193,701;  191,650;31259,152;28,97578
 367,89; 9153,588;  220,873;30917,492;29,10000
 368,48; 9176,878;  204,427;30607,452;29,51171
 369,07; 8985,521;  191,415;30016,803;29,48530
 369,67; 8958,178;  220,118;29658,538;29,68250
 370,26; 8869,620;  172,569;29287,910;29,87103
 370,85; 8833,922;  192,188;29025,096;29,97177
 371,44; 8837,515;  197,110;28760,135;30,25031
 372,03; 8742,015;  166,654;28417,774;30,35406
 372,63; 8705,711;  162,188;28050,514;30,63476
 373,22; 8653,922;  174,724;27649,618;30,86162
 373,81; 8570,294;  178,188;27247,045;31,00281
 374,40; 8551,333;  186,102;26994,687;31,20355
 374,99; 8518,753;  189,651;26691,749;31,42808
 375,59; 8465,403;  158,256;26274,783;31,80801
 376,18; 8473,095;  198,343;26161,600;31,87101
 376,77; 8479,972;  208,187;25873,834;32,22901
 377,36; 8499,807;  212,958;25865,787;32,30384
 377,95; 8443,727;  209,499;25474,807;32,59105
 378,55; 8432,134;  176,643;25254,559;32,91937
 379,14; 8464,410;  206,958;25162,581;33,08854
 379,73; 8524,904;  187,729;25007,145;33,59134
 380,32; 8590,987;  193,495;25112,805;33,69873
 380,91; 8573,245;  168,272;24888,560;34,00030
 381,50; 8622,719;  195,732;24793,450;34,25922
 382,10; 8657,140;  184,725;24709,574;34,54625
 382,69; 8680,604;  160,343;24621,657;34,83158
 383,28; 8796,635;  208,654;24566,383;35,25773
 383,87; 8768,611;  175,424;24428,279;35,43165
 384,46; 8817,150;  173,661;24306,925;35,81566
 385,05; 8916,476;  212,886;24303,782;36,12813
 385,64; 8993,308;  189,576;24339,572;36,45438
 386,24; 9010,743;  167,661;24220,203;36,76568
 386,83; 9137,353;  207,432;24279,449;37,09669
 387,42; 9202,484;  206,730;24403,679;37,17723
 388,01; 9444,014;  193,284;24638,078;37,84336
 388,60; 9610,540;  192,737;24934,295;38,06471
 389,19; 9824,832;  178,599;25258,789;38,46156
 389,78;10012,817;  182,443;25516,348;38,80323
 390,37;10300,191;  255,049;26044,630;38,95039
 390,96;10437,118;  187,662;26216,686;39,37703
 391,56;10574,583;  191,601;26377,838;39,65053
 392,15;10796,242;  174,826;26689,722;40,05830
 392,74;10978,151;  154,150;26904,368;40,46323
 393,33;11250,630;  193,679;27212,750;40,92276
 393,92;11505,334;  190,155;27681,721;41,15873
 394,51;11695,543;  164,218;27977,079;41,46040
 395,10;11941,338;  202,094;28227,249;41,88824
 395,69;12168,294;  206,168;28372,249;42,46997
 396,28;12331,793;  196,869;28554,213;42,79288
 396,87;12417,351;  205,421;28611,242;42,99094
 397,46;12672,436;  210,353;28729,041;43,69795
 398,06;12806,411;  225,287;29018,224;43,69517
 398,65;12969,544;  196,160;29080,013;44,22327
 399,24;13184,776;  217,088;29277,343;44,62345
 399,83;13208,042;  176,590;29253,316;44,81747
 400,42;13404,709;  224,626;29454,467;45,09119
 401,01;13583,100;  207,128;29571,044;45,55241
 401,60;13706,271;  217,799;29610,593;45,89040
 402,19;13766,147;  236,844;29605,829;46,06663
 402,78;13923,303;  226,835;29615,856;46,60403
 403,37;13886,469;  214,977;29390,074;46,86014
 403,96;13905,877;  227,976;29203,943;47,20429
 404,55;13996,572;  218,445;29138,663;47,64185
 405,14;13982,999;  211,599;28996,034;47,84322
 405,73;14037,724;  223,612;28785,954;48,36477
 406,32;14188,370;  237,134;28829,577;48,79344
 406,91;14076,962;  223,512;28451,200;49,07752
 407,50;14113,297;  238,163;28207,094;49,60910
 408,09;14068,100;  205,880;27879,689;50,09148
 408,68;14065,089;  230,129;27691,801;50,37916
 409,27;14060,225;  210,260;27477,721;50,79301
 409,86;14113,654;  208,898;27355,978;51,22008
 410,45;14117,483;  257,852;27271,554;51,30593
 411,04;14218,432;  244,189;27202,348;51,83679
 411,63;14134,704;  236,436;26878,885;52,16588
 412,22;14057,418;  252,227;26535,489;52,52465
 412,81;14025,534;  274,284;26290,545;52,85637
 413,40;13884,669;  262,336;25837,152;53,26464
 413,99;13813,397;  314,190;25452,504;53,69973
 414,58;13652,626;  235,339;25010,712;54,15574
 415,17;13556,199;  245,745;24729,214;54,36507
 415,76;13533,691;  231,536;24579,646;54,63321
 416,35;13454,142;  226,679;24283,150;54,98505
 416,94;13664,012;  260,762;24360,672;55,61535
 417,53;13845,455;  232,128;24573,694;55,92626
 418,12;14027,916;  243,123;24618,826;56,55136
 418,71;14371,151;  261,027;25197,185;56,58499
 419,30;14512,015;  230,429;25198,617;57,19913
 419,89;14719,634;  217,348;25463,049;57,44458
 420,48;14977,751;  256,643;25830,983;57,56203
 421,07;15152,179;  248,715;25884,029;58,13646
 421,66;15215,176;  215,550;25955,515;58,27369
 422,25;15316,094;  236,297;25951,341;58,64193
 422,84;15409,289;  261,754;25945,006;58,97826
 423,43;15317,582;  248,071;25663,928;59,29177
 424,02;15254,010;  265,221;25298,897;59,87450
 424,60;14998,520;  241,579;24734,056;60,25091
 425,19;14871,435;  256,131;24393,754;60,54989
 425,78;14870,167;  263,515;24327,975;60,69803
 426,37;14892,951;  258,967;24127,053;61,31193
 426,96;14825,539;  246,197;23974,029;61,44405
 427,55;14774,088;  250,336;23815,088;61,63338
 428,14;14678,921;  239,099;23559,774;61,91854
 428,73;14651,903;  238,727;23287,640;62,53300
 429,32;14740,898;  256,122;23272,549;62,93234
 429,91;14827,616;  277,187;23243,981;63,35420
 430,50;14788,875;  260,180;23069,501;63,69631
 431,08;14702,033;  264,480;22903,070;63,77408
 431,67;14707,926;  298,780;22792,481;64,05858
 432,26;14609,629;  316,158;22547,502;64,29423
 432,85;14468,569;  328,391;22187,710;64,68719
 433,44;14267,118;  329,612;21718,486;65,16241
 434,03;14003,612;  359,675;21306,430;65,13628
 434,62;13742,227;  302,227;20804,187;65,55471
 435,21;13679,867;  323,698;20490,492;66,22852
 435,79;13635,601;  317,373;20361,246;66,44538
 436,38;13548,547;  308,205;20228,135;66,46781
 436,97;13541,852;  310,434;20041,745;67,05798
 437,56;13367,053;  301,183;19805,014;66,99130
 438,15;13365,248;  279,881;19799,419;67,03728
 438,74;13459,668;  320,110;19760,262;67,58979
 439,33;13539,086;  281,189;19699,053;68,27681
 439,91;13633,284;  261,719;19851,305;68,25854
 440,50;13708,200;  314,333;19867,853;68,49850
 441,09;13882,496;  314,707;20012,283;68,88050
 441,68;13906,672;  285,387;20047,796;68,92523
 442,27;13954,006;  276,469;20008,998;69,31467
 442,86;13980,987;  251,675;20081,605;69,23530
 443,44;14061,745;  268,757;20002,114;69,89682
 444,03;14188,188;  343,520;20137,200;69,94489
 444,62;14136,868;  260,290;19968,456;70,41029
 445,21;14035,738;  284,677;19693,269;70,85038
 445,80;13924,026;  311,971;19650,624;70,38782
 446,39;13833,673;  367,974;19356,495;70,91495
 446,97;13668,858;  261,881;19073,511;71,26962
 447,56;13507,382;  266,485;18837,714;71,29790
 448,15;13365,642;  279,497;18571,175;71,54153
 448,74;13227,695;  291,880;18309,447;71,79557
 449,33;13157,168;  276,641;18160,537;72,02305
 449,91;12934,560;  276,473;17911,299;71,77892
 450,50;12792,428;  268,015;17637,654;72,10520
 451,09;12788,595;  285,090;17553,390;72,40727
 451,68;12697,949;  307,700;17358,424;72,66699
 452,26;12617,171;  311,232;17250,566;72,64712
 452,85;12589,597;  272,620;17151,501;72,97271
 453,44;12590,301;  288,679;17136,235;73,01724
 454,03;12606,576;  263,228;17099,659;73,31333
 454,61;12609,688;  262,294;17035,993;73,61164
 455,20;12874,396;  297,518;17301,084;73,96612
 455,79;12845,841;  303,298;17270,018;73,92438
 456,38;12937,255;  299,508;17334,704;74,18610
 456,97;13025,060;  281,973;17474,030;74,12195
 457,55;13066,320;  277,350;17483,395;74,32835
 458,14;13055,015;  317,283;17442,594;74,37957
 458,73;12933,015;  295,656;17325,922;74,20530
 459,31;13062,313;  316,722;17423,811;74,50473
 459,90;13134,309;  355,651;17490,156;74,57851
 460,49;13323,631;  402,039;17571,606;75,25870
 461,08;13342,796;  300,101;17691,511;74,99504
 461,66;13402,727;  301,800;17819,062;74,78867
 462,25;13513,923;  299,173;17869,693;75,20979
 462,84;13587,491;  321,254;17989,499;75,08520
 463,43;13594,507;  251,007;17879,081;75,69460
 464,01;13569,337;  296,233;17915,549;75,33268
 464,60;13604,181;  355,627;17826,061;75,83414
 465,19;13358,042;  282,845;17556,814;75,69307
 465,77;13344,418;  302,224;17580,033;75,48523
 466,36;13290,288;  326,315;17407,748;75,89511
 466,95;13050,790;  295,775;17026,046;76,23914
 467,53;12799,750;  314,525;16753,644;75,94826
 468,12;12508,467;  341,215;16387,586;75,82557
 468,71;12286,839;  307,998;16047,060;76,10899
 469,29;12033,455;  292,522;15741,525;75,99800
 469,88;11787,186;  304,978;15485,809;75,63622
 470,47;11917,426;  365,660;15586,201;75,89590
 471,06;11843,409;  324,429;15519,925;75,80522
 471,64;11924,458;  326,201;15704,611;75,41909
 472,23;11932,822;  295,565;15640,551;75,83752
 472,81;12097,386;  286,575;15786,318;76,20005
 473,40;12200,152;  296,719;15978,350;75,90686
 473,99;12400,177;  417,565;16199,915;75,92413
 474,57;12433,631;  316,181;16243,164;76,08126
 475,16;12515,446;  313,035;16521,341;75,28493
 475,75;12676,045;  331,635;16626,222;75,75773
 476,33;12786,878;  343,704;16768,516;75,75840
 476,92;12747,830;  333,871;16829,755;75,25489
 477,51;12925,368;  319,784;16902,322;76,01722
 478,09;12904,726;  327,553;16982,606;75,51565
 478,68;12830,431;  334,627;16808,872;75,85054
 479,27;12841,938;  351,788;16917,741;75,39651
 479,85;12857,307;  322,320;16913,123;75,55383
 480,44;12921,506;  309,393;17056,628;75,30863
 481,02;14082,451;  327,540;18513,781;75,63361
 481,61;15949,078;  360,389;21025,696;75,43410
 482,20;17031,282;  335,847;22425,425;75,58060
 482,78;17842,749;  368,240;23457,996;75,68079
 483,37;18318,389;  345,836;24077,235;75,73322
 483,95;18587,372;  386,219;24441,950;75,66244
 484,54;18769,537;  378,467;24717,477;75,56211
 485,13;18618,250;  335,441;24580,842;75,40733
 485,71;18444,544;  311,521;24299,731;75,59140
 486,30;18142,517;  374,213;24015,246;75,15875
 486,88;17845,562;  425,210;23631,682;75,06679
 487,47;17190,685;  376,670;22763,964;75,10517
 488,05;16401,896;  367,358;21754,751;74,97191
 488,64;15240,216;  368,042;20199,995;74,99097
 489,23;13587,661;  367,509;18030,057;74,84850
 489,81;11553,193;  370,045;15402,136;74,39516
 490,40;10912,615;  328,890;14590,975;74,20882
 490,98;10670,100;  321,809;14267,450;74,20448
 491,57;10517,319;  341,816;14131,813;73,78901
 492,15;10429,447;  324,423;14086,901;73,42445
 492,74;10362,775;  334,434;13926,221;73,78236
 493,32;10277,618;  346,425;13829,647;73,65593
 493,91;10192,145;  322,496;13679,484;73,89128
 494,50;10132,312;  322,943;13664,540;73,52470
 495,08;10041,369;  308,713;13605,891;73,19340
 495,67;10050,835;  342,805;13563,727;73,42930
 496,25; 9917,551;  291,874;13466,176;73,06404
 496,84; 9868,443;  285,267;13420,976;72,95515
 497,42; 9839,106;  286,486;13343,746;73,15945
 498,01; 9742,825;  309,265;13274,048;72,76296
 498,59; 9644,801;  276,947;13162,195;72,70216
 499,18; 9583,138;  288,341;13136,494;72,34345
 499,76; 9530,767;  317,720;13043,589;72,39622
 500,35; 9341,527;  306,324;12773,862;72,46982
 500,93; 9237,815;  288,641;12779,560;71,64544
 501,52; 9160,354;  286,178;12588,629;72,13340
 502,10; 9165,352;  303,703;12636,336;71,85529
 502,69; 8954,209;  279,852;12413,289;71,49134
 503,27; 8742,834;  265,866;12229,110;70,85844
 503,86; 8684,367;  300,392;12150,983;70,74732
 504,44; 8602,406;  269,080;12010,806;70,97190
 505,03; 8369,418;  255,156;11632,165;71,32157
 505,61; 8243,755;  271,466;11502,732;70,98299
 506,19; 8119,460;  282,695;11342,775;70,85631
 506,78; 7881,118;  263,069;11183,407;69,76019
 507,36; 7699,835;  268,465;10923,259;69,74673
 507,95; 7547,439;  270,064;10747,971;69,45447
 508,53; 7501,582;  262,839;10596,711;70,04870
 509,12; 7279,875;  274,220;10401,645;69,17509
 509,70; 7185,881;  290,602;10229,006;69,38014
 510,29; 7049,942;  298,520;10023,243;69,42533
 510,87; 6870,634;  255,146; 9835,838;69,05021
 511,46; 6728,577;  255,144; 9684,786;68,64983
 512,04; 6596,109;  269,292; 9522,309;68,37572
 512,62; 6461,627;  276,836; 9324,609;68,35705
 513,21; 6326,770;  246,981; 9118,737;68,52972
 513,79; 6158,114;  256,657; 8968,660;67,73939
 514,38; 6015,569;  243,124; 8798,316;67,47301
 514,96; 5944,244;  295,586; 8726,279;67,00111
 515,54; 5774,895;  246,813; 8437,575;67,49167
 516,13; 5720,181;  272,966; 8373,229;67,24738
 516,71; 5572,703;  259,805; 8248,457;66,50556
 517,30; 5463,092;  252,953; 8153,958;65,94273
 517,88; 5405,288;  274,415; 8019,184;66,24952
 518,46; 5215,340;  240,028; 7865,909;65,24246
 519,05; 5208,508;  262,869; 7837,551;65,29170
 519,63; 5146,668;  263,795; 7737,088;65,33764
 520,22; 5034,229;  275,631; 7659,763;64,44357
 520,80; 4974,388;  245,706; 7557,517;64,67183
 521,38; 5001,347;  300,253; 7530,946;65,01582
 521,97; 4850,863;  256,394; 7503,851;63,39423
 522,55; 4872,980;  269,779; 7471,465;63,91838
 523,13; 4822,822;  255,390; 7455,608;63,43463
 523,72; 4757,690;  243,720; 7425,904;62,84954
 524,30; 4853,287;  287,924; 7581,887;62,59098
 524,89; 4824,638;  250,008; 7519,759;62,92691
 525,47; 4892,257;  257,230; 7685,089;62,40058
 526,05; 4863,248;  232,306; 7762,102;61,50156
 526,64; 4981,737;  276,611; 7877,186;61,90488
 527,22; 5046,657;  261,846; 8028,138;61,60998
 527,80; 5097,819;  307,842; 8103,564;61,44366
 528,39; 5087,378;  257,838; 8200,041;60,80857
 528,97; 5192,561;  245,532; 8394,916;60,70433
 529,55; 5354,231;  272,083; 8561,096;61,31186
 530,14; 5457,575;  280,143; 8783,866;60,88430
 530,72; 5457,149;  253,917; 8925,662;60,00214
 531,30; 5544,503;  234,373; 9110,697;59,82353
 531,89; 5615,863;  255,604; 9167,824;60,14505
 532,47; 5672,330;  282,601; 9262,492;60,01998
 533,05; 5639,154;  286,073; 9352,202;59,04483
 533,63; 5696,358;  284,215; 9400,892;59,36530
 534,22; 5670,626;  253,215; 9447,509;58,92144
 534,80; 5700,826;  278,746; 9529,227;58,61403
 535,38; 5831,392;  374,064; 9710,376;58,45272
 535,97; 5695,712;  257,139; 9608,265;58,15955
 536,55; 5751,689;  300,053; 9692,187;58,04470
 537,13; 5654,277;  299,373; 9615,767;57,47829
 537,71; 5683,580;  327,067; 9695,551;57,17587
 538,30; 5724,182;  324,443; 9796,845;57,00496
 538,88; 5746,929;  360,355; 9909,605;56,40834
 539,46; 5846,019;  409,054;10099,918;56,10403
 540,05; 5911,640;  397,358;10193,732;56,28902
 540,63; 6013,727;  432,434;10448,326;55,72438
 541,21; 6060,872;  442,738;10683,091;54,86270
 541,79; 6094,847;  456,430;10800,526;54,50856
 542,38; 6208,558;  488,820;10982,670;54,50562
 542,96; 6231,891;  479,655;11143,102;53,94349
 543,54; 6378,341;  505,739;11346,235;54,17282
 544,12; 6394,632;  471,352;11547,335;53,47859
 544,70; 6432,117;  454,654;11663,109;53,32994
 545,29; 6515,928;  463,589;11835,006;53,22414
 545,87; 6485,309;  469,661;11863,603;52,79690
 546,45; 6439,293;  436,744;11875,588;52,47513
 547,03; 6429,045;  419,048;11917,757;52,26672
 547,62; 6511,123;  386,968;12101,509;52,27823
 548,20; 6568,590;  418,579;12279,323;51,85182
 548,78; 6585,053;  381,564;12405,865;51,59126
 549,36; 6687,474;  363,720;12594,645;51,70300
 549,94; 6692,595;  321,581;12759,556;51,22228
 550,53; 6791,352;  347,876;13046,439;50,74177
 551,11; 6838,659;  310,639;13202,562;50,63651
 551,69; 6981,606;  332,489;13521,845;50,41274
 552,27; 7074,108;  281,033;13820,327;50,17304
 552,85; 7214,455;  294,562;14147,047;49,95417
 553,44; 7386,774;  301,105;14551,817;49,72151
 554,02; 7490,127;  319,180;14945,715;49,02697
 554,60; 7640,344;  251,792;15256,803;49,24056
 555,18; 7860,603;  297,412;15642,772;49,28650
 555,76; 7971,370;  282,103;16070,228;48,70285
 556,34; 8188,519;  288,325;16493,734;48,75035
 556,93; 8339,497;  279,258;16897,367;48,50274
 557,51; 8438,670;  262,786;17261,814;48,09619
 558,09; 8609,152;  297,643;17660,827;47,86858
 558,67; 8742,994;  283,935;18064,453;47,57487
 559,25; 8823,425;  293,553;18379,680;47,16251
 559,83; 8966,029;  289,239;18741,441;47,02306
 560,41; 9093,072;  252,173;19102,714;46,89997
 561,00; 9242,942;  280,089;19507,787;46,61428
 561,58; 9344,948;  272,173;19840,119;46,36549
 562,16; 9385,619;  251,638;20092,333;46,03660
 562,74; 9512,934;  233,410;20508,024;45,76918
 563,32; 9684,826;  238,239;21016,156;45,46455
 563,90; 9828,468;  271,012;21474,043;45,07589
 564,48;10015,625;  260,713;21907,540;45,06393
 565,06;10254,090;  266,782;22562,956;44,79382
 565,65;10520,552;  271,386;23334,054;44,44050
 566,23;10829,133;  305,473;24195,019;44,05132
 566,81;11111,837;  257,784;25032,319;43,81133
 567,39;11483,055;  266,084;26019,305;43,55560
 567,97;11702,070;  288,860;26788,384;43,06949
 568,55;12114,419;  315,624;27659,588;43,14954
 569,13;12295,592;  282,012;28440,792;42,66371
 569,71;12677,262;  265,485;29502,434;42,45237
 570,29;13134,127;  316,643;30731,185;42,14262
 570,87;13378,080;  296,025;31492,880;41,93389
 571,45;13602,202;  278,782;32273,499;41,64256
 572,03;13739,966;  244,390;32821,783;41,42620
 572,61;13971,280;  234,779;33581,636;41,19279
 573,20;14187,154;  267,093;34325,998;40,87055
 573,78;14404,761;  249,086;35037,977;40,69022
 574,36;14559,456;  271,011;35670,059;40,36392
 574,94;14680,107;  339,235;36070,492;40,13537
 575,52;14586,355;  250,610;36282,643;39,78611
 576,10;14870,538;  308,152;36963,834;39,72750
 576,68;15042,698;  273,313;37532,704;39,63936
 577,26;15202,683;  290,914;38402,890;39,12620
 577,84;15310,386;  293,087;38976,887;38,82064
 578,42;15317,100;  352,924;39291,417;38,43029
 579,00;15249,774;  270,393;39393,952;38,28737
 579,58;15282,631;  335,696;39679,751;37,99033
 580,16;15163,667;  278,154;39659,662;37,79823
 580,74;15115,456;  273,768;39791,234;37,55729
 581,32;15023,520;  286,387;39900,661;37,20157
 581,90;14927,681;  303,385;39909,788;36,92407
 582,48;14866,064;  283,308;39897,022;36,81239
 583,06;14840,179;  285,080;40076,268;36,57870
 583,64;14754,159;  273,465;40149,927;36,31389
 584,22;14579,944;  270,608;39925,227;36,08491
 584,80;14362,867;  279,693;39600,651;35,81595
 585,38;14098,638;  298,710;39153,421;35,51674
 585,96;13972,878;  258,238;39216,506;35,20341
 586,54;13927,931;  285,841;39070,183;35,17422
 587,12;13806,277;  259,382;39233,583;34,75862
 587,70;13802,514;  297,007;39368,693;34,56597
 588,28;13676,074;  274,844;39446,530;34,21152
 588,86;13685,995;  274,150;39449,217;34,23567
 589,44;13518,342;  261,217;39444,321;33,83378
 590,02;13524,580;  268,681;39733,089;33,58950
 590,59;13500,484;  241,610;39836,924;33,48597
 591,17;13518,304;  256,746;40021,272;33,35022
 591,75;13409,710;  250,752;40263,182;32,88718
 592,33;13397,513;  269,908;40397,974;32,71427
 592,91;13368,259;  226,364;40687,067;32,48064
 593,49;13401,300;  244,975;41020,424;32,26531
 594,07;13360,623;  268,436;41229,934;31,96218
 594,65;13270,757;  271,609;41226,449;31,74020
 595,23;13372,185;  263,451;41679,496;31,65134
 595,81;13254,372;  246,756;41820,572;31,28800
 596,39;13174,290;  243,832;41948,117;31,00511
 596,97;13126,773;  248,287;42077,886;30,78797
 597,55;13040,021;  242,837;42066,449;30,59799
 598,12;12860,564;  230,357;41993,116;30,24275
 598,70;12837,823;  237,978;42164,393;30,05228
 599,28;12847,168;  260,054;42337,087;29,91445
 599,86;12746,699;  233,670;42309,566;29,73918
 600,44;12669,473;  210,052;42490,235;29,46870
 601,02;12669,603;  268,734;42543,075;29,33427
 601,60;12523,311;  244,059;42515,595;29,04851
 602,18;12428,645;  215,511;42408,879;28,94563
 602,75;12336,275;  210,988;42590,385;28,61128
 603,33;12270,500;  237,670;42588,806;28,41206
 603,91;12125,046;  209,276;42485,132;28,18576
 604,49;12144,381;  245,669;42728,426;28,00833
 605,07;11990,199;  242,060;42636,052;27,71180
 605,65;11992,504;  238,436;42830,708;27,59671
 606,23;11918,365;  274,765;42935,861;27,29325
 606,80;11891,865;  285,219;42912,743;27,22806
 607,38;11760,609;  286,662;42991,091;26,86828
 607,96;11701,265;  300,526;42986,330;26,70850
 608,54;11693,709;  363,128;43156,066;26,47769
 609,12;11624,672;  340,295;43191,052;26,33414
 609,70;11545,753;  340,594;43202,306;26,14258
 610,27;11454,041;  345,835;43276,705;25,87464
 610,85;11414,937;  361,825;43401,480;25,68123
 611,43;11322,272;  353,747;43288,725;25,54683
 612,01;11149,104;  316,830;43065,015;25,33973
 612,59;11103,433;  325,517;43091,254;25,20222
 613,16;10937,122;  306,762;42987,023;24,90697
 613,74;10885,615;  306,593;42923,730;24,82340
 614,32;10799,732;  292,743;42904,712;24,65736
 614,90;10631,763;  283,212;42768,301;24,35808
 615,48;10578,418;  261,530;42346,424;24,51447
 616,05;10469,157;  245,840;42366,190;24,27168
 616,63;10352,973;  268,150;42115,264;24,09921
 617,21;10237,875;  265,835;42047,576;23,86698
 617,79;10158,032;  244,602;41977,402;23,75453
 618,36;10060,020;  268,445;41777,871;23,58880
 618,94; 9898,552;  213,144;41495,536;23,46135
 619,52; 9792,156;  245,995;41185,045;23,31798
 620,10; 9643,503;  215,218;41131,081;23,04310
 620,67; 9579,625;  230,919;41037,035;22,91006
 621,25; 9493,683;  251,675;40899,928;22,73654
 621,83; 9435,718;  240,913;40822,972;22,65732
 622,41; 9390,902;  289,837;40782,992;22,47556
 622,98; 9242,064;  246,766;40504,620;22,34421
 623,56; 9178,548;  254,229;40502,351;22,17326
 624,14; 9088,778;  241,365;40371,341;22,04689
 624,72; 9013,746;  235,990;40270,150;21,92566
 625,29; 8942,816;  230,536;40358,353;21,71132
 625,87; 8901,057;  265,371;40282,813;21,57981
 626,45; 8764,714;  222,461;40096,950;21,42285
 627,02; 8718,680;  246,370;39970,025;21,32812
 627,60; 8654,411;  222,207;39961,053;21,21905
 628,18; 8608,364;  205,449;39980,206;21,12625
 628,76; 8559,546;  211,458;39942,192;21,01166
 629,33; 8536,160;  250,839;40010,486;20,83852
 629,91; 8432,811;  224,834;39990,235;20,64100
 630,49; 8454,325;  253,148;40173,239;20,54399
 631,06; 8359,271;  242,688;40285,739;20,26964
 631,64; 8340,734;  238,460;40251,522;20,24907
 632,22; 8259,378;  211,772;40109,559;20,17056
 632,79; 8314,646;  253,310;40497,330;20,03114
 633,37; 8237,487;  217,061;40489,172;19,91558
 633,95; 8225,550;  233,307;40600,433;19,79889
 634,52; 8224,914;  223,606;40657,660;19,78854
 635,10; 8107,280;  236,219;40636,225;19,48282
 635,68; 8167,314;  240,079;40879,534;19,50625
 636,25; 8097,293;  214,623;40865,833;19,39098
 636,83; 8126,084;  202,227;41155,346;19,34861
 637,41; 8085,556;  228,542;41104,902;19,22141
 637,98; 8078,100;  258,235;41412,510;19,00134
 638,56; 8046,538;  233,010;41362,044;18,99760
 639,13; 7970,029;  218,228;41408,000;18,81972
 639,71; 8018,717;  290,687;41663,075;18,67920
 640,29; 7887,803;  189,687;41416,880;18,67242
 640,86; 7928,567;  215,072;41597,874;18,63938
 641,44; 7851,178;  223,302;41674,714;18,40197
 642,02; 7844,250;  232,994;41648,400;18,37784
 642,59; 7813,169;  214,532;41768,856;18,28603
 643,17; 7743,318;  212,532;41708,157;18,14839
 643,74; 7727,006;  205,762;41839,074;18,06545
 644,32; 7697,078;  240,916;41693,607;17,98716
 644,89; 7681,842;  233,762;41793,985;17,92118
 645,47; 7632,992;  241,454;41750,364;17,80711
 646,05; 7594,141;  236,530;41647,204;17,76743
 646,62; 7557,752;  230,838;41632,352;17,69721
 647,20; 7540,516;  233,145;41912,576;17,53232
 647,77; 7466,665;  209,991;41661,262;17,50652
 648,35; 7394,968;  205,606;41558,564;17,38536
 648,92; 7383,656;  210,144;41568,558;17,34475
 649,50; 7314,959;  197,452;41435,244;17,25967
 650,08; 7276,185;  199,913;41342,700;17,19930
 650,65; 7306,411;  201,836;41655,540;17,13858
 651,23; 7380,099;  186,066;42456,149;17,01921
 651,80; 7575,248;  190,066;43651,758;16,99239
 652,38; 7585,397;  205,912;44067,290;16,82456
 652,95; 7637,931;  185,219;44492,438;16,82054
 653,53; 7693,926;  218,450;44825,355;16,75856
 654,10; 7741,152;  252,526;44913,503;16,76772
 654,68; 7576,378;  203,064;44812,497;16,52860
 655,25; 7601,835;  183,833;45006,568;16,54964
 655,83; 7563,908;  185,910;45010,100;16,45986
 656,40; 7592,441;  230,217;45074,863;16,41717
 656,98; 7511,975;  205,371;44870,934;16,35847
 657,55; 7441,894;  208,371;44806,620;16,21930
 658,13; 7355,427;  220,063;44368,691;16,16214
 658,70; 7281,192;  224,293;44015,300;16,11495
 659,28; 7105,495;  203,293;42999,756;16,12797
 659,85; 6953,183;  235,908;42135,903;16,03168
 660,43; 6952,870;  235,985;42116,820;16,03809
 661,00; 6866,404;  201,754;42242,045;15,85301
 661,58; 6945,476;  200,138;42595,193;15,91067
 662,15; 6942,702;  187,368;42820,879;15,84513
 662,73; 7032,621;  268,522;43137,796;15,77843
 663,30; 6997,616;  210,522;43324,944;15,74205
 663,88; 7011,458;  211,137;43483,476;15,71517
 664,45; 7040,838;  205,136;43745,778;15,69959
 665,03; 7079,294;  203,982;44151,541;15,64436
 665,60; 7242,828;  312,597;44532,842;15,67208
 666,17; 7143,439;  199,366;44733,375;15,59274
 666,75; 7157,203;  190,981;45084,753;15,51712
 667,32; 7262,737;  232,827;45466,286;15,54139
 667,90; 7254,271;  212,827;45814,818;15,44109
 668,47; 7306,728;  216,365;46034,812;15,47491
 669,05; 7303,646;  197,057;46393,652;15,38336
 669,62; 7270,872;  181,134;46427,800;15,33027
 670,19; 7298,483;  174,826;46592,409;15,34689
 670,77; 7293,863;  207,441;46742,326;15,22819
 671,34; 7287,397;  190,056;46687,474;15,26395
 671,92; 7304,623;  180,209;47078,391;15,19124
 672,49; 7334,080;  225,594;47184,615;15,13764
 673,06; 7310,691;  176,824;47107,994;15,20070
 673,64; 7268,455;  180,978;47107,526;15,10334
 674,21; 7246,066;  177,516;47029,135;15,08710
 674,79; 7314,446;  215,439;47384,514;15,05013
 675,36; 7302,287;  218,054;47427,277;15,00604
 675,93; 7274,744;  192,746;47219,425;15,05953
 676,51; 7295,124;  217,669;47490,726;14,97144
 677,08; 7263,581;  202,668;47441,028;14,94741
 677,65; 7303,269;  203,976;47746,253;14,93259
 678,23; 7303,033;  203,360;47852,708;14,89983
 678,80; 7284,798;  203,975;47992,471;14,81700
 679,38; 7328,947;  201,206;48148,696;14,86572
 679,95; 7351,942;  214,898;48439,228;14,79968
 680,52; 7412,476;  200,436;48748,607;14,85543
 681,10; 7484,471;  210,512;49157,370;14,86093
 681,67; 7513,928;  220,435;49519,441;14,79440
 682,24; 7488,308;  177,743;49480,742;14,82783
 682,82; 7549,996;  194,512;50159,044;14,72141
 683,39; 7676,068;  251,204;50406,269;14,80382
 683,96; 7704,909;  205,280;50721,878;14,84587
 684,54; 7689,213;  182,049;51152,949;14,72833
 685,11; 7818,746;  251,587;51550,635;14,75107
 685,68; 7837,588;  198,664;51875,936;14,78198
 686,25; 7840,045;  181,433;52115,315;14,74685
 686,83; 7876,578;  202,433;52100,847;14,78686
 687,40; 7885,343;  183,586;52541,457;14,70984
 687,97; 7996,261;  239,432;52955,143;14,71445
 688,55; 7971,026;  189,739;53129,521;14,69837
 689,12; 7970,637;  162,585;53432,054;14,65765
 689,69; 8003,786;  185,277;53480,201;14,67027
 690,26; 8006,935;  199,585;53416,503;14,67081
 690,84; 8037,777;  203,584;53664,574;14,65404
 691,41; 8067,156;  225,507;53752,798;14,64982
 691,98; 8144,613;  206,199;54093,331;14,73156
 692,56; 8099,609;  198,353;54188,786;14,63455
 693,13; 8193,527;  248,506;54337,780;14,68872
 693,70; 8173,138;  220,583;54451,851;14,66415
 694,27; 8171,056;  194,506;54675,076;14,64109
 694,84; 8197,128;  186,275;54652,223;14,70800
 695,42; 8304,278;  249,274;54733,140;14,78420
 695,99; 8298,196;  210,966;54942,288;14,77624
 696,56; 8273,807;  219,581;54864,744;14,73914
 697,13; 8348,648;  224,966;55168,276;14,78557
 697,71; 8377,413;  202,581;55269,501;14,84527
 698,28; 8341,639;  196,965;55665,648;14,68337
 698,85; 8350,942;  164,349;55652,873;14,75367
 699,42; 8384,783;  175,964;55837,175;14,74783
 699,99; 8413,702;  223,733;55935,707;14,70055
 700,57; 8402,236;  216,810;56009,085;14,67125
 701,14; 8481,616;  195,041;56150,541;14,80922
 701,71; 8445,457;  219,656;56429,842;14,63400
 702,28; 8550,375;  202,194;56409,529;14,85248
 702,85; 8506,678;  203,578;56510,523;14,74614
 703,43; 8550,443;  227,809;56596,978;14,76451
 704,00; 8621,977;  227,501;56979,357;14,79154
 704,57; 8587,741;  196,654;56899,427;14,79837
 705,14; 8651,506;  229,423;57299,114;14,75754
 705,71; 8686,424;  231,038;57249,569;14,82919
 706,28; 8660,343;  204,576;57169,871;14,84372
 706,86; 8729,184;  237,114;57404,249;14,85481
 707,43; 8740,333;  272,114;57388,089;14,82636
 708,00; 8757,790;  242,268;57321,698;14,91872
 708,57; 8690,324;  202,037;57222,846;14,88630
 709,14; 8745,166;  223,652;57421,071;14,89842
 709,71; 8773,392;  201,575;57612,603;14,93061
 710,28; 8801,541;  217,651;57759,136;14,91774
 710,86; 8804,998;  209,574;57813,745;14,92153
 711,43; 8885,224;  238,343;57849,277;15,00910
 712,00; 8880,681;  212,496;57968,963;15,00816
 712,57; 8936,676;  245,112;58123,650;15,01690
 713,14; 8974,594;  207,419;58235,182;15,10859
 713,71; 8930,821;  233,111;58138,637;15,02052
 714,28; 8936,124;  221,188;58170,324;15,03894
 714,85; 8963,503;  209,726;57925,241;15,16711
 715,42; 9019,114;  207,649;58101,234;15,22011
 716,00; 9117,263;  311,879;58248,382;15,19834
 716,57; 9079,797;  220,725;58306,761;15,25164
 717,14; 9061,023;  222,340;58310,908;15,21587
 717,71; 9071,557;  204,109;58327,210;15,25632
 718,28; 9161,168;  251,724;58485,589;15,29942
 718,85; 9135,086;  199,647;58430,429;15,34487
 719,42; 9203,005;  238,646;58705,422;15,33240
 719,99; 9202,385;  204,185;58397,109;15,46270
 720,56; 9246,918;  243,723;58726,256;15,39467
 721,13; 9245,144;  204,184;58891,173;15,40539
 721,70; 9243,524;  199,414;58717,244;15,45531
 722,27; 9268,827;  237,030;58728,084;15,44133
 722,84; 9364,053;  287,337;58954,847;15,47145
 723,41; 9320,433;  191,644;58861,226;15,55966
 723,98; 9308,967;  214,490;59115,527;15,44027
 724,55; 9412,039;  247,336;59227,291;15,53867
 725,12; 9321,112;  166,336;59275,669;15,48787
 725,69; 9448,107;  205,720;59482,432;15,59194
 726,27; 9466,795;  217,104;59381,580;15,63386
 726,84; 9568,482;  219,181;59790,728;15,69424
 727,41; 9621,093;  248,950;59758,260;15,74904
 727,98; 9689,319;  237,642;60177,562;15,76858
 728,55; 9720,238;  269,334;59999,633;15,82263
 729,12; 9712,848;  211,488;60105,857;15,86353
 729,69; 9795,613;  233,641;60246,159;15,93330
 730,26; 9844,377;  231,333;60551,153;15,93679
 730,82; 9832,757;  226,717;60242,839;16,00577
 731,39; 9860,599;  221,179;60448,448;16,00508
 731,96;10020,210;  202,563;60680,673;16,23339
 732,53;10037,436;  225,255;60965,205;16,15441
 733,10;10070,892;  238,101;61138,430;16,14571
 733,67;10094,657;  233,716;61312,962;16,14450
 734,24;10056,037;  208,946;60974,879;16,20495
 734,81;10172,417;  250,715;61014,565;16,32830
 735,38;10172,566;  223,177;60774,713;16,43128
 735,95;10072,177;  216,253;60544,707;16,33711
 736,52;10131,634;  228,714;60737,239;16,36616
 737,09;10122,937;  239,099;60437,156;16,41887
 737,66;10254,624;  282,868;60610,843;16,52924
 738,23;10254,081;  226,637;60659,913;16,59259
 738,80;10426,384;  312,713;61133,138;16,62874
 739,37;10387,995;  249,636;61151,440;16,64706
 739,94;10437,221;  224,174;61236,049;16,73944
 740,51;10593,909;  378,405;61342,350;16,75663
 741,07;10413,981;  233,404;61234,037;16,68930
 741,64;10546,669;  253,635;61475,954;16,81255
 742,21;10572,818;  243,096;61487,255;16,86646
 742,78;10572,736;  201,865;61203,557;17,00096
 743,35;10609,347;  228,788;61644,551;16,90211
 743,92;10682,035;  267,711;61799,852;16,92501
 744,49;10715,414;  273,095;61586,154;17,03115
 745,06;10682,333;  233,018;61602,532;17,02688
 745,63;10662,636;  211,710;61548,911;17,03848
 746,19;10720,862;  224,556;61547,828;17,11635
 746,76;10800,780;  241,401;61671,976;17,18913
 747,33;10804,545;  224,324;61610,893;17,23540
 747,90;10849,925;  253,939;61811,579;17,21311
 748,47;10885,920;  237,324;61720,880;17,31942
 749,04;10913,993;  236,477;61735,720;17,36203
 749,61;10991,219;  272,862;61687,022;17,45258
 750,17;10981,214;  274,169;61712,247;17,42738
 750,74;11023,594;  242,246;61661,702;17,55364
 751,31;10968,358;  219,014;61678,234;17,49021
 751,88;10948,046;  204,783;61478,690;17,53318
 752,45;11034,041;  225,860;61681,915;17,58685
 753,02;11050,191;  259,091;61501,755;17,62023
 753,58;11072,263;  226,244;61449,902;17,71540
 754,15;11070,104;  227,013;61555,666;17,68030
 754,72;11029,946;  220,090;61234,506;17,71689
 755,29;11000,172;  200,628;61164,653;17,71462
 755,86;11100,321;  235,320;61458,032;17,74668
 756,42;11198,624;  259,089;61205,564;17,94941
 756,99;11096,927;  195,550;61184,327;17,87440
 757,56;11207,922;  210,550;61123,552;18,05423
 758,13;11192,072;  183,396;61024,930;18,09401
 758,70;11238,836;  209,472;61085,078;18,11787
 759,26;11254,678;  206,241;61143,457;18,13085
 759,83;11315,442;  216,010;61259,835;18,18273
 760,40;11344,207;  193,856;60955,598;18,35094
 760,97;11324,818;  196,240;61145,669;18,25871
 761,53;11253,044;  191,855;60667,125;18,29043
 762,10;11261,270;  170,163;60646,965;18,33944
 762,67;11350,573;  212,701;60721,805;18,40694
 763,24;11246,953;  176,854;60169,491;18,45243
 763,80;11340,256;  215,239;60354,408;18,49879
 764,37;11312,943;  202,315;60257,786;18,50061
 764,94;11249,400;  190,084;59855,396;18,53559
 765,50;11347,934;  200,546;59891,774;18,67509
 766,07;11389,929;  221,468;59820,076;18,73947
 766,64;11347,540;  200,853;59542,147;18,78403
 767,21;11325,766;  207,160;59496,371;18,75317
 767,77;11372,454;  225,160;59327,596;18,86097
 768,34;11333,449;  227,390;59309,821;18,79757
 768,91;11376,752;  238,082;59146,353;18,90850
 769,47;11437,978;  230,620;59197,885;19,00607
 770,04;11416,743;  234,159;59072,802;19,00551
 770,61;11354,815;  210,158;58792,181;19,02402
 771,18;11435,041;  218,696;58710,329;19,17598
 771,74;11480,267;  226,312;58958,399;19,16151
 772,31;11480,801;  232,927;58739,701;19,22491
 772,88;11465,181;  192,542;58311,310;19,39587
 773,44;11427,407;  208,618;58177,304;19,35319
 774,01;11480,325;  237,387;58317,606;19,35760
 774,58;11468,629;  210,310;57905,061;19,51359
 775,14;11492,470;  201,079;58134,440;19,49031
 775,71;11575,927;  196,848;57962,664;19,69864
 776,27;11604,307;  281,694;57820,658;19,67817
 776,84;11670,687;  325,770;57942,729;19,69024
 777,41;11599,913;  228,309;57712,800;19,78204
 777,97;11512,447;  219,924;57490,563;19,71782
 778,54;11581,057;  228,077;57455,018;19,83852
 779,11;11593,360;  258,308;57537,012;19,78930
 779,67;11587,740;  220,769;57381,006;19,88615
 780,24;11642,351;  234,307;57179,616;20,03333
 780,80;11694,885;  252,538;57198,686;20,09328
 781,37;11649,265;  246,768;57157,911;20,03561
 781,94;11652,952;  233,922;56900,982;20,15109
 782,50;11706,025;  228,767;56857,360;20,26760
 783,07;11735,020;  256,690;56928,047;20,25420
 783,63;11668,246;  231,151;56640,963;20,27501
 784,20;11673,088;  261,997;56608,727;20,25156
 784,77;11708,391;  238,151;56367,105;20,43551
 785,33;11659,540;  207,228;56149,484;20,47167
 785,90;11713,689;  231,535;56080,016;20,55947
 786,46;11712,761;  257,381;56036,087;20,53719
 787,03;11679,833;  221,457;55744,850;20,63702
 787,59;11733,829;  224,149;55683,152;20,75349
 788,16;11771,209;  245,457;55596,915;20,82285
 788,73;11706,281;  250,303;55503,139;20,73374
 789,29;11667,815;  225,764;55116,133;20,84528
 789,86;11733,502;  276,379;54994,127;20,93859
 790,42;11640,036;  246,686;54897,890;20,84739
 790,99;11553,108;  245,840;54468,269;20,85349
 791,55;11573,181;  231,378;54523,263;20,89042
 792,12;11646,330;  265,762;54447,795;21,00432
 792,68;11548,402;  244,993;54199,635;20,94984
 793,25;11468,705;  260,531;53951,014;20,87553
 793,81;11573,547;  337,223;53469,931;21,14766
 794,38;11372,388;  214,069;53287,771;21,02420
 794,94;11460,999;  226,684;53089,995;21,25163
 795,51;11473,071;  252,068;52963,912;21,28744
 796,07;11417,913;  244,453;52556,214;21,35936
 796,64;11484,523;  270,914;52788,977;21,35191
 797,20;11437,980;  242,375;52175,894;21,55757
 797,77;11343,975;  219,452;51855,349;21,54417
 798,33;11316,125;  250,451;51727,651;21,49626
 798,90;11340,428;  264,143;51666,260;21,54830
 799,46;11298,731;  222,220;51127,408;21,75910
 800,03;11261,880;  239,220;51086,556;21,67795
 800,59;11237,798;  256,527;50791,934;21,72986
 801,15;11246,794;  262,373;50645,082;21,80197
 801,72;11165,635;  239,296;50239,922;21,85240
 802,28;11119,554;  260,757;49976,916;21,84158
 802,85;11118,780;  249,449;49804,602;21,93380
 803,41;11057,929;  226,987;49520,442;21,97237
 803,98;11009,155;  232,987;49081,128;22,06055
 804,54;11027,843;  247,064;48817,584;22,19614
 805,11;10927,684;  265,909;48568,578;22,07285
 805,67;10937,526;  265,294;48496,802;22,12710
 806,23;10870,367;  254,678;48113,642;22,18119
 806,80;10893,824;  270,909;47901,790;22,30258
 807,36;10905,127;  261,062;47824,015;22,37890
 807,93;10872,276;  285,446;47622,701;22,36469
 808,49;10796,964;  229,138;47175,464;22,51044
 809,05;10764,882;  230,830;47043,073;22,50277
 809,62;10774,647;  264,907;46914,375;22,52917
 810,18;10808,642;  251,907;46860,907;22,64956
 810,74;10674,407;  220,445;46486,132;22,59550
 811,31;10724,094;  222,522;46325,049;22,77874
 811,87;10766,320;  258,598;46123,812;22,91000
 812,44;10747,854;  266,290;46084,806;22,87626
 813,00;10620,003;  203,598;45838,492;22,82553
 813,56;10732,460;  257,213;45856,178;22,97255
 814,13;10722,532;  245,905;45853,095;22,97144
 814,69;10682,605;  241,597;45567,474;23,03542
 815,25;10642,600;  216,135;45001,699;23,28086
 815,82;10620,672;  254,904;44987,308;23,17284
 816,38;10658,206;  289,904;44849,609;23,26834
 816,94;10507,432;  234,980;44529,142;23,19144
 817,51;10544,658;  219,672;44262,443;23,44309
 818,07;10518,730;  232,287;43942,591;23,53322
 818,63;10428,495;  239,595;43801,893;23,38926
 819,20;10444,644;  249,441;43702,271;23,46269
 819,76;10314,024;  223,440;43231,188;23,46225
 820,32;10394,096;  275,209;43110,413;23,62283
 820,89;10322,015;  252,824;42955,022;23,58003
 821,45;10282,395;  234,516;42550,862;23,74467
 822,01;10252,159;  255,285;42356,702;23,74474
 822,57;10225,078;  257,208;42212,927;23,75807
 823,14;10211,765;  214,054;41866,998;24,00241
 823,70;10190,222;  240,361;41616,761;24,04719
 824,26;10153,141;  213,438;41400,678;24,13297
 824,82;10214,521;  265,976;41279,672;24,25664
 825,39;10092,747;  232,437;40941,666;24,22131
 825,95;10125,973;  242,129;41110,583;24,18453
 826,51;10028,891;  250,667;40510,961;24,28751
 827,08;10095,194;  286,283;40593,032;24,33566
 827,64;10066,805;  261,359;40360,026;24,45330
 828,20; 9974,108;  221,743;40133,635;24,43473
 828,76;10052,257;  269,820;40193,398;24,50291
 829,32; 9995,868;  276,358;39973,469;24,48417
 829,89; 9934,325;  224,743;39838,232;24,51080
 830,45; 9988,782;  247,742;39738,226;24,66680
 831,01; 9925,238;  241,204;39576,143;24,61942
 831,57; 9905,926;  237,126;39425,522;24,67261
 832,14; 9948,537;  230,203;39358,285;24,83724
 832,70; 9913,994;  213,433;39137,432;24,92180
 833,26; 9946,912;  198,125;39029,811;25,10524
 833,82; 9908,292;  243,510;38898,420;25,00273
 834,38; 9941,441;  228,048;38980,568;25,06519
 834,95; 9879,437;  215,278;38781,562;25,05857
 835,51; 9889,355;  191,663;38626,402;25,23158
 836,07; 9924,119;  238,124;38760,319;25,14393
 836,63; 9992,653;  248,354;38652,005;25,37337
 837,19;10004,495;  252,970;38504,614;25,49309
 837,75; 9909,875;  207,277;38093,608;25,60976
 838,32; 9923,178;  253,123;38318,448;25,40384
 838,88; 9987,404;  251,122;38316,135;25,57803
 839,44; 9987,553;  252,122;38216,667;25,64348
 840,00; 9942,933;  255,045;38089,507;25,60599
 840,56; 9919,851;  223,660;37756,116;25,83415
 841,12; 9936,231;  225,967;37779,802;25,85692
 841,68; 9884,457;  208,967;37553,950;25,90841
 842,25; 9899,991;  228,198;37652,636;25,84352
 842,81; 9863,140;  205,120;37343,015;26,00584
 843,37; 9903,751;  199,428;37319,624;26,14297
 843,93; 9927,746;  227,274;37173,772;26,25546
 844,49; 9985,049;  250,889;37314,843;26,26315
 845,05; 9945,660;  191,427;37014,375;26,48955
 845,61;10031,040;  244,196;37150,600;26,51801
 846,17; 9974,805;  212,965;36982,901;26,54843
 846,73; 9932,723;  242,580;36912,203;26,42553
 847,29; 9970,488;  225,733;36677,735;26,73311
 847,86; 9966,483;  223,810;36606,268;26,77849
 848,42; 9914,632;  218,656;36341,108;26,84197
 848,98; 9955,243;  240,425;36353,025;26,90146
 849,54; 9905,700;  230,040;36393,711;26,75519
 850,10; 9957,003;  244,193;36184,012;27,02520
 850,66; 9841,998;  222,732;35997,929;26,88809
 851,22; 9881,224;  199,654;35966,385;27,06865
 851,78; 9918,681;  263,270;35914,994;27,08259
 852,34; 9906,830;  243,577;35736,219;27,22607
 852,90; 9847,749;  227,730;35670,059;27,14274
 853,46; 9852,975;  215,961;35368,130;27,41513
 854,02; 9904,355;  240,499;35407,893;27,47959
 854,58; 9839,350;  225,114;35108,425;27,56113
 855,14; 9824,961;  222,806;35070,804;27,55439
 855,70; 9774,341;  196,575;34870,336;27,62252
 856,26; 9785,336;  228,113;34736,253;27,69556
 856,82; 9766,947;  227,728;34633,093;27,72596
 857,38; 9817,327;  282,728;34582,010;27,79825
 857,94; 9776,322;  221,036;34393,465;27,96198
 858,50; 9778,548;  246,343;34317,767;27,97713
 859,06; 9761,928;  217,420;34104,146;28,16592
 859,62; 9752,231;  248,727;34009,909;28,14920
 860,18; 9669,149;  227,573;33889,672;28,04809
 860,74; 9654,222;  201,265;33764,435;28,16467
 861,30; 9624,832;  208,803;33450,352;28,32609
 861,86; 9691,212;  284,803;33550,961;28,27621
 862,42; 9570,438;  227,033;33349,032;28,20906
 862,98; 9664,126;  257,956;33354,564;28,42034
 863,54; 9522,198;  220,648;33068,020;28,31749
 864,10; 9530,886;  224,878;33158,475;28,25688
 864,66; 9495,958;  205,263;32801,777;28,50211
 865,22; 9526,184;  230,186;32700,694;28,62905
 865,78; 9496,334;  228,031;32483,534;28,73402
 866,34; 9461,790;  216,416;32380,682;28,74424
 866,90; 9451,478;  232,569;32365,983;28,68948
 867,45; 9397,473;  233,877;32121,823;28,73687
 868,01; 9309,853;  236,030;31924,817;28,63418
 868,57; 9248,541;  233,414;31850,042;28,51388
 869,13; 9247,229;  213,799;31633,266;28,75106
 869,69; 9257,685;  231,491;31572,799;28,79967
 870,25; 9232,988;  195,337;31446,023;28,91985
 870,81; 9221,522;  225,183;31277,940;28,97115
 871,37; 9215,671;  232,028;31215,396;28,99505
 871,93; 9178,744;  248,259;31081,851;28,96349
 872,49; 9173,354;  278,105;30774,999;29,16772
 873,04; 9102,042;  202,720;30672,762;29,20679
 873,60; 9001,499;  219,412;30479,371;29,02214
 874,16; 9038,417;  231,335;30434,058;29,15990
 874,72; 8955,494;  233,565;30331,365;28,97863
 875,28; 9007,956;  240,950;30233,750;29,23037
 875,84; 9012,725;  239,488;30124,288;29,35685
 876,40; 8968,340;  219,642;30089,135;29,28974
 876,95; 8999,417;  244,181;30094,596;29,33037
 877,51; 9073,263;  262,258;29995,904;29,63312
 878,07; 9063,033;  278,796;30104,904;29,45150
 878,63; 9035,725;  230,027;30106,135;29,47405
 879,19; 9104,417;  242,335;30152,519;29,62898
 879,75; 9075,187;  231,796;30113,365;29,59480
 880,30; 9061,340;  232,027;30041,827;29,61883
 880,86; 9161,879;  272,181;30242,365;29,66181
 881,42; 9123,802;  212,488;30266,058;29,65143
 881,98; 9226,956;  235,412;30321,673;29,88588
 882,54; 9255,571;  228,335;30386,904;29,93258
 883,09; 9333,725;  243,796;30518,673;30,02466
 883,65; 9318,648;  210,642;30670,750;29,90142
 884,21; 9453,033;  253,335;30906,904;30,01183
 884,77; 9480,340;  213,335;30947,519;30,15211
 885,32; 9525,187;  229,873;31118,288;30,09320
 885,88; 9597,417;  259,104;31227,212;30,15461
 886,44; 9603,879;  236,565;31341,212;30,11548
 887,00; 9660,494;  263,104;31300,596;30,27754
 887,56; 9711,571;  225,335;31517,904;30,31466
 888,11; 9743,494;  223,950;31516,212;30,42140
 888,67; 9874,187;  257,565;31685,904;30,59857
 889,23; 9874,187;  227,488;31733,135;30,61895
 889,79; 9862,033;  212,719;31565,750;30,77633
 890,34; 9832,802;  244,335;31564,365;30,61449
 890,90; 9977,187;  319,335;31753,981;30,72359
 891,46; 9818,956;  228,796;31630,442;30,54031
 892,01; 9899,956;  246,335;31583,519;30,80564
 892,57; 9898,956;  271,027;31485,519;30,84442
 893,13; 9836,033;  249,488;31315,212;30,85891
 893,69; 9848,879;  212,796;31272,673;31,02421
 894,24; 9814,033;  237,950;31211,365;30,91710
 894,80; 9832,725;  238,565;31004,058;31,18481
 895,36; 9817,110;  228,796;30898,288;31,26336
 895,91; 9727,802;  237,642;30537,827;31,32047
 896,47; 9757,879;  260,027;30529,827;31,37732
 897,03; 9696,263;  237,027;30303,904;31,46066
 897,58; 9681,571;  241,642;30312,750;31,39202
 898,14; 9607,571;  245,258;29990,442;31,47506
 898,70; 9559,033;  205,181;29772,596;31,63568
 899,25; 9558,956;  237,950;29750,288;31,58342
 899,81; 9553,340;  246,950;29594,673;31,71077
 900,37; 9490,494;  206,719;29340,827;31,86566
 900,92; 9528,725;  221,796;29260,827;32,04972
 901,48; 9475,033;  222,258;29132,135;32,00558
 902,03; 9406,956;  231,950;29017,981;31,87312
 902,59; 9415,802;  227,335;28905,673;32,03975
 903,15; 9350,033;  250,873;28718,212;31,96351
 903,70; 9242,110;  224,181;28494,519;31,89891
 904,26; 9199,417;  230,873;28338,058;31,90837
 904,82; 9255,571;  221,335;28354,596;32,11230
 905,37; 9257,033;  228,796;28208,288;32,26734
 905,93; 9172,110;  213,488;28030,365;32,20570
 906,48; 9162,110;  245,796;27939,365;32,19633
 907,04; 9216,648;  252,104;27864,827;32,46527
 907,60; 9130,340;  245,796;27555,904;32,53207
 908,15; 9076,802;  224,104;27562,596;32,38181
 908,71; 9086,802;  241,873;27514,058;32,43205
 909,26; 9090,648;  232,181;27271,135;32,76187
 909,82; 9004,340;  245,950;27185,212;32,51162
 910,37; 9064,263;  277,181;27060,750;32,80774
 910,93; 9001,648;  225,950;26855,442;32,95481
 911,48; 8969,494;  214,104;26728,904;33,02077
 912,04; 8912,340;  219,950;26546,981;33,01698
 912,60; 8942,648;  238,104;26595,135;33,02551
 913,15; 8872,802;  238,873;26404,827;32,99681
 913,71; 8834,571;  216,950;26202,827;33,16271
 914,26; 8831,340;  200,719;26087,288;33,34015
 914,82; 8848,879;  238,565;26018,519;33,39926
 915,37; 8794,340;  211,488;25997,904;33,28439
 915,93; 8818,648;  273,258;25806,673;33,46748
 916,48; 8746,340;  208,412;25663,750;33,54082
 917,04; 8753,802;  239,488;25524,673;33,67313
 917,59; 8791,648;  256,104;25455,135;33,87251
 918,15; 8598,340;  193,950;25229,673;33,56959
 918,70; 8606,802;  217,335;25166,904;33,62570
 919,26; 8664,802;  230,488;25054,212;33,97683
 919,81; 8559,879;  205,335;24844,288;33,90787
 920,37; 8542,648;  223,796;24869,212;33,75416
 920,92; 8560,110;  240,181;24722,135;33,98393
 921,48; 8443,802;  214,950;24481,212;33,91067
 922,03; 8511,340;  224,719;24464,288;34,18634
 922,59; 8444,187;  233,873;24275,135;34,15093
 923,14; 8416,033;  233,565;24151,519;34,21057
 923,69; 8378,802;  247,950;24129,827;34,04612
 924,25; 8420,033;  257,488;24016,519;34,35554
 924,80; 8310,187;  225,796;23773,058;34,33261
 925,36; 8283,879;  213,796;23715,750;34,33792
 925,91; 8270,494;  220,950;23554,596;34,49758
 926,47; 8227,879;  206,565;23505,519;34,42778
 927,02; 8272,956;  308,565;23399,212;34,49185
 927,57; 8181,879;  224,488;23133,981;34,73403
 928,13; 8148,494;  210,642;23119,058;34,65038
 928,68; 8170,494;  223,642;23056,904;34,80384
 929,24; 8107,725;  198,719;22802,135;34,99031
 929,79; 8060,648;  198,335;22770,904;34,83127
 930,34; 8007,340;  214,873;22576,365;34,84771
 930,90; 8025,417;  205,950;22459,750;35,13767
 931,45; 8012,956;  222,642;22482,288;34,99747
 932,01; 7999,187;  226,104;22355,827;35,12508
 932,56; 7957,494;  236,719;22221,212;35,11919
 933,11; 7954,033;  254,719;22291,750;34,93807
 933,67; 7873,879;  219,258;21968,750;35,19448
 934,22; 7879,417;  234,565;21936,596;35,22644
 934,77; 7807,571;  246,719;21783,442;35,10679
 935,33; 7745,879;  225,027;21639,212;35,12089
 935,88; 7766,033;  237,950;21579,519;35,27427
 936,43; 7714,110;  232,335;21484,750;35,20435
 936,99; 7717,494;  232,950;21357,212;35,43103
 937,54; 7661,648;  213,181;21167,135;35,54683
 938,09; 7641,340;  234,488;21117,596;35,46815
 938,65; 7613,648;  230,565;20960,904;35,61487
 939,20; 7553,956;  191,796;20899,135;35,55338
 939,75; 7502,571;  205,642;20820,904;35,39576
 940,31; 7486,110;  202,027;20736,135;35,47309
 940,86; 7536,263;  224,565;20640,904;35,81297
 941,41; 7586,879;  322,488;20687,058;35,67171
 941,96; 7433,494;  210,104;20382,596;35,80812
 942,52; 7423,263;  224,412;20334,212;35,79773
 943,07; 7360,571;  201,796;20198,981;35,79891
 943,62; 7338,879;  208,565;20065,365;35,90867
 944,18; 7296,725;  207,642;20067,750;35,69509
 944,73; 7309,263;  233,027;19904,519;35,97204
 945,28; 7204,879;  182,181;19787,288;35,82076
 945,83; 7197,263;  202,642;19727,981;35,82330
 946,39; 7206,956;  210,412;19667,519;35,95881
 946,94; 7213,956;  247,950;19561,519;36,06794
 947,49; 7137,033;  216,796;19444,904;35,99021
 948,04; 7173,648;  266,565;19358,135;36,17871
 948,59; 7159,571;  234,796;19262,673;36,39279
 949,15; 7058,802;  201,104;19211,058;36,07425
 949,70; 7055,571;  213,027;19100,981;36,22703
 950,25; 7021,494;  233,027;19043,904;36,08799
 950,80; 6968,571;  188,642;18873,827;36,28505
 951,36; 6950,879;  179,335;18800,288;36,36518
 951,91; 6997,956;  233,412;18795,442;36,44291
 952,46; 6919,802;  207,412;18571,981;36,55076
 953,01; 6902,725;  223,950;18566,827;36,41073
 953,56; 6819,956;  189,565;18417,058;36,37577
 954,11; 6864,263;  224,642;18398,288;36,53434
 954,67; 6861,263;  213,796;18288,827;36,77707
 955,22; 6775,648;  194,181;18158,981;36,63535
 955,77; 6782,263;  236,873;18057,981;36,72830
 956,32; 6806,648;  277,950;18018,904;36,80015
 956,87; 6731,571;  201,642;17865,519;36,96770
 957,42; 6688,879;  216,181;17850,981;36,70412
 957,98; 6664,033;  211,719;17736,365;36,81851
 958,53; 6673,648;  239,950;17642,212;36,97047
 959,08; 6619,802;  209,873;17533,750;37,00054
 959,63; 6604,494;  219,335;17419,365;37,12295
 960,18; 6584,956;  223,027;17410,288;37,01537
 960,73; 6556,187;  222,335;17321,904;37,04100
 961,28; 6497,879;  186,719;17229,673;37,03090
 961,83; 6553,110;  243,950;17205,596;37,19662
 962,39; 6488,956;  200,335;17013,981;37,40189
 962,94; 6461,263;  221,950;16965,827;37,26325
 963,49; 6460,187;  226,104;16777,750;37,66443
 964,04; 6429,648;  232,335;16730,135;37,56448
 964,59; 6396,263;  195,181;16633,212;37,72400
 965,14; 6397,033;  249,335;16582,827;37,63860
 965,69; 6348,110;  217,027;16489,750;37,67705
 966,24; 6297,956;  210,412;16394,135;37,61523
 966,79; 6313,725;  239,488;16254,904;37,92744
 967,34; 6228,725;  185,181;16132,519;37,89688
 967,89; 6235,187;  210,335;16050,442;38,03542
 968,44; 6221,033;  216,104;16013,750;38,01154
 968,99; 6212,187;  236,027;15961,135;38,00393
 969,55; 6162,571;  219,412;15833,904;38,06182
 970,10; 6121,494;  232,642;15723,904;38,01402
 970,65; 6119,263;  241,796;15646,827;38,15291
 971,20; 6049,033;  216,258;15527,673;38,09429
 971,75; 6013,802;  195,104;15326,981;38,45325
 972,30; 6027,571;  220,719;15239,596;38,66369
 972,85; 5948,956;  203,796;15149,519;38,44016
 973,40; 5933,033;  208,719;15022,288;38,64236
 973,95; 5937,956;  221,181;15008,827;38,65913
 974,50; 5913,802;  252,412;14953,596;38,50976
 975,05; 5823,494;  223,335;14782,596;38,46459
 975,60; 5815,033;  241,796;14703,981;38,53662
 976,15; 5779,879;  212,873;14616,288;38,65060
 976,70; 5723,725;  222,412;14529,981;38,45037
 977,25; 5741,725;  243,027;14485,827;38,60686
 977,80; 5691,648;  224,181;14321,904;38,78263
 978,35; 5639,187;  243,027;14164,904;38,76029
 978,89; 5615,417;  196,104;14069,596;39,06236
 979,44; 5632,110;  234,258;14051,058;39,06731
 979,99; 5551,494;  212,796;13923,981;38,93681
 980,54; 5562,956;  238,104;13784,212;39,30909
 981,09; 5496,802;  247,104;13719,365;38,96672
 981,64; 5449,187;  231,950;13610,365;38,99742
 982,19; 5460,571;  266,950;13503,827;39,23600
 982,74; 5367,187;  230,950;13377,981;39,06765
 983,29; 5293,187;  221,104;13220,519;39,01778
 983,84; 5271,956;  218,873;13114,904;39,18324
 984,39; 5373,187;  319,642;13130,442;39,44753
 984,94; 5175,110;  194,873;12941,673;39,07048
 985,49; 5133,802;  243,565;12824,981;38,86873
 986,03; 5156,340;  246,719;12732,442;39,32188
 986,58; 5087,110;  285,950;12591,904;39,01493
 987,13; 5016,879;  229,642;12498,288;39,02009
 987,68; 4997,494;  252,104;12396,365;39,07517
 988,23; 4950,956;  234,258;12288,981;39,12739
 988,78; 4902,494;  210,719;12097,058;39,47200
 989,33; 4886,956;  246,412;12040,596;39,34604
 989,88; 4896,648;  263,412;12016,519;39,42137
 990,42; 4766,648;  214,873;11778,135;39,36411
 990,97; 4742,417;  229,950;11706,981;39,31738
 991,52; 4744,571;  246,335;11632,058;39,50769
 992,07; 4711,802;  275,719;11520,442;39,45035
 992,62; 4645,187;  238,719;11359,673;39,62311
 993,17; 4616,494;  249,719;11261,827;39,65431
 993,71; 4575,648;  243,258;11131,750;39,78871
 994,26; 4521,879;  210,796;11031,442;39,84127
 994,81; 4529,417;  254,565;10961,058;39,92766
 995,36; 4471,187;  218,642;10804,288;40,17274
 995,91; 4462,417;  228,027;10706,904;40,40882
 996,45; 4404,879;  240,488;10601,673;40,19222
 997,00; 4343,571;  219,873;10453,596;40,29519
 997,55; 4377,033;  235,873;10425,288;40,64178
 998,10; 4322,187;  258,719;10286,750;40,52109
 998,65; 4272,110;  229,027;10223,750;40,45217
 999,19; 4245,956;  245,412;10122,981;40,50130
 999,74; 4210,956;  275,796;10010,827;40,42267
1000,29; 4175,802;  229,642; 9896,442;40,82178
1000,84; 4103,571;  224,565; 9747,519;40,73322
1001,38; 4094,494;  231,488; 9658,519;40,97797
1001,93; 4051,494;  257,104; 9600,596;40,60998
1002,48; 3957,956;  213,488; 9385,365;40,82553
1003,03; 3954,648;  247,027; 9390,519;40,54929
1003,57; 3924,033;  241,027; 9279,673;40,74732
1004,12; 3954,187;  287,258; 9162,288;41,31736
1004,67; 3849,802;  236,104; 9069,904;40,90763
1005,22; 3776,956;  225,181; 8908,212;40,90478
1005,76; 3701,033;  219,027; 8775,904;40,69248
1006,31; 3716,494;  248,335; 8757,135;40,75968
1006,86; 3642,571;  221,104; 8563,212;41,01442
1007,40; 3582,571;  205,796; 8430,827;41,05486
1007,95; 3566,802;  235,488; 8365,596;40,97502
1008,50; 3528,340;  237,873; 8197,827;41,33777
1009,04; 3485,571;  220,412; 8126,058;41,30162
1009,59; 3433,648;  236,873; 7965,288;41,36391
1010,14; 3375,725;  212,796; 7876,442;41,27185
1010,68; 3335,263;  229,258; 7739,827;41,35513
1011,23; 3297,494;  245,796; 7677,981;41,06058
1011,78; 3292,263;  241,181; 7525,596;41,88507
1012,32; 3269,956;  270,258; 7462,827;41,70552
1012,87; 3222,956;  263,719; 7386,673;41,54508
1013,42; 3158,879;  212,258; 7261,058;41,80316
1013,96; 3211,340;  267,565; 7279,212;41,98408
1014,51; 3119,571;  191,335; 7170,750;41,95533
1015,06; 3129,033;  204,565; 7161,981;42,03382
1015,60; 3208,340;  272,181; 7212,442;42,30618
1016,15; 3147,110;  230,488; 7164,596;42,06195
1016,69; 3133,879;  243,488; 7178,750;41,67673
1017,24; 3139,340;  213,796; 7181,904;41,98477
1017,79; 3240,494;  273,258; 7245,288;42,55914
1018,33; 3204,648;  235,258; 7272,135;42,19756
1018,88; 3220,648;  248,027; 7366,673;41,75824
1019,42; 3219,494;  221,335; 7292,904;42,39737
1019,97; 3200,110;  220,027; 7299,519;42,09458
1020,51; 3284,033;  259,950; 7441,981;42,10623
1021,06; 3212,956;  201,181; 7343,365;42,16882
1021,61; 3176,802;  191,335; 7303,827;41,97498
1022,15; 3159,956;  189,027; 7269,673;41,95844
1022,70; 3184,417;  219,719; 7266,212;42,07339
1023,24; 3162,725;  200,258; 7238,519;42,09090
1023,79; 3120,187;  217,719; 7180,365;41,68627
1024,33; 3115,725;  221,412; 7083,750;42,17678
1024,88; 3080,648;  248,488; 7045,442;41,66807
1025,42; 3025,494;  243,642; 6925,135;41,63519
1025,97; 2994,725;  214,335; 6840,365;41,96163
1026,51; 2925,802;  190,488; 6693,288;42,06363
1027,06; 2921,187;  215,027; 6644,135;42,09230
1027,60; 2865,110;  230,104; 6497,827;42,04088
1028,15; 2874,571;  244,488; 6405,519;42,68900
1028,69; 2767,571;  193,335; 6264,904;42,39821
1029,24; 2749,571;  208,488; 6246,212;42,08677
1029,78; 2702,263;  199,027; 6111,288;42,33975
1030,33; 2651,956;  198,027; 6015,673;42,18079
1030,87; 2649,263;  210,950; 5917,365;42,72934
1031,42; 2591,725;  206,642; 5828,365;42,42619
1031,96; 2606,033;  238,565; 5783,365;42,69707
1032,51; 2565,033;  203,719; 5651,442;43,34496
1033,05; 2534,494;  218,873; 5613,519;42,92443
1033,60; 2451,110;  187,873; 5496,442;42,63364
1034,14; 2456,648;  215,796; 5412,596;43,11984
1034,69; 2440,494;  219,565; 5370,827;43,11427
1035,23; 2412,187;  215,950; 5260,212;43,53931
1035,77; 2408,802;  223,104; 5248,365;43,49422
1036,32; 2322,956;  189,950; 5121,981;43,24802
1036,86; 2331,110;  226,950; 5079,058;43,36589
1037,41; 2296,802;  231,719; 5010,442;43,21411
1037,95; 2245,571;  187,181; 4891,673;43,75372
1038,50; 2234,187;  205,950; 4864,904;43,53416
1039,04; 2232,417;  232,104; 4830,519;43,50006
1039,58; 2171,417;  188,181; 4698,519;43,97090
1040,13; 2137,340;  213,488; 4668,519;43,18381
1040,67; 2147,879;  243,027; 4628,750;43,43302
1041,21; 2134,571;  256,796; 4547,750;43,76125
1041,76; 2065,033;  210,950; 4455,442;43,68208
1042,30; 2054,956;  208,027; 4408,596;43,96854
1042,85; 2002,571;  208,412; 4337,596;43,45070
1043,39; 1975,110;  199,104; 4251,827;43,82253
1043,93; 1999,417;  237,719; 4235,827;44,06330
1044,48; 1945,263;  226,565; 4140,673;43,91034
1045,02; 1911,494;  215,873; 4101,596;43,63721
1045,56; 1912,110;  249,565; 4063,519;43,59109
1046,11; 1866,802;  211,565; 3975,750;43,97331
1046,65; 1835,648;  236,335; 3947,135;43,09889
1047,19; 1816,110;  206,335; 3840,365;44,29723
1047,74; 1786,879;  195,565; 3786,058;44,32020
1048,28; 1770,725;  219,719; 3747,288;43,96812
1048,82; 1788,110;  250,796; 3728,519;44,20460
1049,37; 1761,340;  226,104; 3685,596;44,37751
1049,91; 1707,494;  226,565; 3639,519;43,39141
1050,45; 1687,648;  231,873; 3582,442;43,44859
1050,99; 1679,879;  240,027; 3521,442;43,87899
1051,54; 1625,648;  212,335; 3462,827;43,47998
1052,08; 1651,417;  249,335; 3419,904;44,22180
1052,62; 1630,956;  229,796; 3371,904;44,59299
1053,16; 1583,725;  215,950; 3308,904;44,22229
1053,71; 1577,033;  229,258; 3285,519;44,09881
1054,25; 1551,648;  241,104; 3249,058;43,56929
1054,79; 1535,187;  232,181; 3195,981;43,96402
1055,33; 1471,879;  199,335; 3123,442;43,51906
1055,88; 1484,879;  230,258; 3130,750;43,25546
1056,42; 1495,263;  241,796; 3047,519;44,67538
1056,96; 1458,033;  250,565; 3039,596;43,29344
1057,50; 1452,494;  243,335; 2967,827;44,38110
1058,05; 1411,802;  229,412; 2925,365;43,85796
1058,59; 1410,263;  248,412; 2899,365;43,82769
1059,13; 1355,187;  204,565; 2818,365;44,02101
1059,67; 1363,879;  232,565; 2779,673;44,41561
1060,21; 1349,033;  227,335; 2747,981;44,50042
1060,76; 1334,417;  237,027; 2708,442;44,40332
1061,30; 1342,110;  249,719; 2704,288;44,50436
1061,84; 1284,417;  247,258; 2628,981;43,54661
1062,38; 1266,263;  212,104; 2586,212;44,40235
1062,92; 1296,494;  277,873; 2601,058;43,84590
1063,46; 1253,033;  246,642; 2509,442;44,47545
1064,01; 1222,956;  221,104; 2458,519;44,77720
1064,55; 1230,110;  240,335; 2459,212;44,60703
1065,09; 1171,879;  204,335; 2400,058;44,06495
1065,63; 1211,725;  257,719; 2402,827;44,47356
1066,17; 1219,879;  266,335; 2389,135;44,91917
1066,71; 1183,571;  256,335; 2352,596;44,23287
1067,25; 1148,187;  220,950; 2311,135;44,36147
1067,80; 1161,494;  244,027; 2286,442;44,92070
1068,34; 1180,956;  267,412; 2279,058;45,41277
1068,88; 1104,417;  225,950; 2208,596;44,30782
1069,42; 1125,725;  256,412; 2208,442;44,53380
1069,96; 1093,110;  229,565; 2160,288;44,72647
1070,50; 1120,340;  270,719; 2161,442;44,93631
1071,04; 1060,494;  221,642; 2100,981;44,63549
1071,58; 1050,340;  230,335; 2067,519;44,63383
1072,12; 1037,956;  238,104; 2066,442;43,74748
1072,66; 1037,956;  229,796; 2023,135;45,06453
1073,21; 1056,648;  251,104; 2028,442;45,32306
1073,75; 1020,110;  234,950; 1996,365;44,57549
1074,29; 1010,571;  240,719; 1960,519;44,76404
1074,83; 1031,879;  267,181; 1945,519;45,56280
1075,37; 1003,494;  270,258; 1953,212;43,56843
1075,91;  987,417;  251,565; 1911,827;44,32145
1076,45;  983,263;  238,873; 1886,750;45,17269
1076,99;  969,263;  256,873; 1879,212;43,91133
1077,53;  940,571;  229,642; 1820,750;44,68138
1078,07;  959,110;  248,258; 1817,750;45,29184
1078,61;  930,263;  239,181; 1778,058;44,90825
1079,15;  912,110;  232,412; 1754,288;44,66183
1079,69;  920,956;  239,488; 1741,904;45,35812
1080,23;  918,110;  263,181; 1731,827;44,59405
1080,77;  966,340;  314,335; 1769,750;44,79860
1081,31;  884,340;  227,412; 1663,981;45,72901
1081,85;  896,879;  260,565; 1681,212;44,79043
1082,39;  870,648;  231,642; 1628,212;45,75540
1082,93;  869,033;  248,412; 1642,365;44,52236
1083,47;  834,571;  216,565; 1566,904;45,76673
1084,01;  856,033;  252,719; 1585,904;45,25356
1084,55;  824,648;  229,181; 1557,673;44,82279
1085,09;  842,263;  256,258; 1563,981;44,81115
1085,63;  825,648;  253,104; 1546,519;44,26608
1086,17;  799,340;  237,488; 1493,981;44,71591
1086,71;  789,340;  212,488; 1467,365;45,96880
1087,24;  822,879;  253,873; 1506,212;45,43546
1087,78;  807,417;  265,565; 1493,135;44,14023
1088,32;  766,571;  231,335; 1426,442;44,78563
1088,86;  777,879;  240,412; 1442,442;44,71327
1089,40;  777,725;  249,104; 1424,442;44,97608
1089,94;  748,879;  219,335; 1378,212;45,69460
1090,48;  758,187;  250,104; 1378,673;45,02007
1091,02;  758,110;  253,642; 1388,596;44,44827
1091,56;  738,571;  243,181; 1350,904;44,72150
1092,10;  720,263;  214,719; 1296,212;46,74506
1092,63;  756,648;  271,873; 1345,750;45,14251
1093,17;  733,187;  248,796; 1312,365;45,54385
1093,71;  711,187;  232,719; 1282,135;45,59370
1094,25;  726,417;  251,873; 1299,673;45,28958
1094,79;  703,571;  238,335; 1255,135;45,75497
1095,33;  697,187;  248,565; 1272,288;43,82251
1095,87;  691,340;  237,488; 1246,135;44,99615
1096,40;  669,263;  218,412; 1192,981;46,26166
1096,94;  689,033;  244,258; 1190,904;46,98429
1097,48;  690,802;  258,488; 1205,827;45,63453
1098,02;  654,956;  234,873; 1177,365;44,57147
1098,56;  622,571;  212,335; 1127,058;44,84817
1099,10;  637,956;  213,335; 1134,135;46,11437
1099,63;  631,110;  220,335; 1115,135;45,90691
1100,17;  646,571;  257,412; 1133,673;44,41135
1100,71;  663,110;  274,796; 1126,981;45,56682

