
Integration time [ms]: 120,000
Averaging Nr. [scans]: 13
Smoothing Nr. [pixels]: 0
Data measured with spectrometer [name]: 2009305U1
Wave   ;Sample   ;Dark     ;Reference;Reflectance
[nm]   ;[counts] ;[counts] ;[counts] ;[%]

 175,72;  192,746;  192,633;  188,459; 0,00000
 176,32;  216,580;  209,248;  192,506; 0,00000
 176,92;  218,759;  228,171;  226,553; 0,00000
 177,52;  244,713;  238,248;  234,952; 0,00000
 178,12;  219,528;  209,786;  211,662;519,45906
 178,72;  241,857;  239,786;  229,023; 0,00000
 179,32;  245,410;  238,479;  252,002;51,25182
 179,92;  237,832;  234,402;  227,528; 0,00000
 180,52;  233,974;  228,326;  231,902;157,92218
 181,12;  236,235;  237,325;  236,294; 0,00000
 181,73;  272,488;  256,556;  249,579; 0,00000
 182,33;  329,372;  282,710;  295,912;353,43459
 182,93;  246,263;  240,633;  250,245;58,58098
 183,53;  229,849;  224,786;  219,287; 0,00000
 184,13;  225,039;  228,632;  221,820; 0,00000
 184,73;  258,494;  239,632;  250,923;167,04893
 185,33;  258,419;  218,398;  320,011;39,38517
 185,93;  260,526;  222,090;  330,249;35,53677
 186,53;  279,240;  227,244;  334,348;48,54732
 187,13;  298,854;  258,245;  379,400;33,51880
 187,73;  257,075;  218,783;  332,548;33,65929
 188,33;  268,989;  230,167;  338,588;35,80628
 188,93;  258,151;  229,090;  342,227;25,68716
 189,53;  269,423;  229,243;  349,226;33,48786
 190,13;  299,444;  271,627;  365,959;29,48882
 190,73;  249,123;  203,012;  314,071;41,51926
 191,34;  279,195;  242,705;  352,758;33,15676
 191,94;  257,448;  221,782;  328,172;33,52348
 192,54;  283,986;  237,014;  361,237;37,81246
 193,14;  276,205;  242,629;  361,822;28,16911
 193,74;  276,878;  233,168;  350,562;37,23330
 194,34;  280,096;  233,630;  363,161;35,87269
 194,94;  235,524;  200,476;  311,346;31,61253
 195,54;  227,504;  192,091;  296,355;33,96522
 196,14;  255,031;  211,476;  326,723;37,79304
 196,74;  245,921;  199,321;  314,478;40,46641
 197,34;  234,091;  185,476;  327,226;34,29662
 197,94;  245,721;  220,706;  334,037;22,07255
 198,54;  250,861;  215,014;  350,758;26,40776
 199,14;  247,389;  207,168;  358,849;26,51678
 199,74;  227,378;  185,630;  363,403;23,48368
 200,34;  236,680;  178,938;  343,814;35,02133
 200,94;  257,461;  222,553;  391,639;20,64521
 201,54;  245,325;  200,938;  402,366;22,03649
 202,14;  265,025;  208,399;  429,378;25,62477
 202,74;  241,814;  213,553;  440,939;12,42857
 203,34;  243,846;  169,938;  450,453;26,34742
 203,94;  215,658;  162,707;  446,914;18,63112
 204,54;  285,921;  227,937;  533,985;18,94609
 205,14;  260,219;  191,707;  539,269;19,71227
 205,74;  297,870;  223,707;  641,885;17,73477
 206,34;  277,866;  190,399;  636,398;19,61149
 206,94;  287,192;  199,861;  697,434;17,55134
 207,54;  261,149;  170,322;  734,704;16,09309
 208,14;  288,973;  189,553;  828,688;15,55537
 208,74;  300,194;  192,938;  873,882;15,75112
 209,34;  309,233;  183,553;  960,363;16,17894
 209,94;  343,009;  197,168; 1061,983;16,86381
 210,54;  349,972;  194,630; 1170,618;15,91635
 211,14;  366,648;  200,168; 1256,261;15,76374
 211,73;  375,587;  196,630; 1354,342;15,45784
 212,33;  406,165;  203,399; 1447,931;16,29255
 212,93;  419,833;  191,245; 1534,545;17,01688
 213,53;  396,259;  168,245; 1571,127;16,25324
 214,13;  417,958;  172,784; 1637,377;16,74006
 214,73;  430,486;  174,092; 1688,147;16,93429
 215,33;  397,086;  139,938; 1709,522;16,38322
 215,93;  470,092;  180,246; 1832,540;17,54204
 216,53;  432,686;  151,784; 1917,011;15,91311
 217,13;  518,944;  199,399; 2118,437;16,65128
 217,73;  543,068;  188,861; 2304,570;16,74178
 218,33;  538,535;  125,784; 2496,165;17,41285
 218,93;  624,590;  165,015; 2753,964;17,75140
 219,53;  670,523;  172,015; 3057,488;17,27648
 220,13;  679,272;  141,092; 3339,966;16,82405
 220,73;  762,447;  173,553; 3689,397;16,74972
 221,32;  818,425;  170,707; 4050,267;16,69565
 221,92;  898,445;  181,246; 4442,033;16,83255
 222,52;  929,093;  165,553; 4827,495;16,37816
 223,12; 1006,750;  168,553; 5229,616;16,56168
 223,72; 1068,585;  176,938; 5562,170;16,55726
 224,32; 1111,582;  178,630; 5973,145;16,10060
 224,92; 1161,857;  151,938; 6253,137;16,55280
 225,52; 1198,334;  176,784; 6543,064;16,04626
 226,12; 1237,555;  179,246; 6821,149;15,93382
 226,72; 1238,233;  137,938; 7142,055;15,70927
 227,31; 1279,124;  144,784; 7465,278;15,49540
 227,91; 1345,222;  168,861; 7770,102;15,47592
 228,51; 1363,402;  171,245; 8122,020;14,99422
 229,11; 1390,054;  166,707; 8500,207;14,67987
 229,71; 1428,274;  159,707; 8763,369;14,74450
 230,31; 1485,529;  157,938; 9066,307;14,90274
 230,91; 1469,036;  152,784; 9328,972;14,34422
 231,51; 1495,651;  147,707; 9661,178;14,16879
 232,10; 1530,183;  152,092; 9909,173;14,12401
 232,70; 1547,327;  179,783;10116,699;13,76225
 233,30; 1580,204;  181,784;10333,496;13,77521
 233,90; 1562,941;  166,399;10412,258;13,63030
 234,50; 1544,404;  168,707;10439,751;13,39393
 235,10; 1524,780;  152,476;10513,368;13,24503
 235,70; 1506,603;  173,245;10501,968;12,90922
 236,29; 1484,509;  183,399;10427,118;12,70154
 236,89; 1446,973;  158,937;10362,143;12,62383
 237,49; 1428,846;  171,861;10225,261;12,50308
 238,09; 1396,020;  163,861; 9939,937;12,60382
 238,69; 1390,789;  179,399; 9752,122;12,65460
 239,29; 1330,156;  157,092; 9446,017;12,62864
 239,89; 1307,620;  168,322; 9107,227;12,74539
 240,48; 1265,911;  161,245; 8762,468;12,84312
 241,08; 1237,544;  151,630; 8411,272;13,14722
 241,68; 1237,551;  186,399; 8142,624;13,21169
 242,28; 1187,333;  158,861; 7837,571;13,39381
 242,88; 1228,100;  189,015; 7553,776;14,10888
 243,48; 1215,242;  195,169; 7309,707;14,33788
 244,07; 1207,421;  181,015; 7133,171;14,76385
 244,67; 1251,257;  178,322; 6993,872;15,74245
 245,27; 1262,818;  182,784; 6864,650;16,16366
 245,87; 1329,851;  192,246; 6758,702;17,32450
 246,47; 1358,081;  176,553; 6778,657;17,89624
 247,06; 1434,063;  163,707; 6809,359;19,11560
 247,66; 1495,633;  164,476; 6859,527;19,88269
 248,26; 1578,544;  204,245; 7030,689;20,13199
 248,86; 1682,827;  179,476; 7173,764;21,49398
 249,46; 1760,201;  148,553; 7392,471;22,24829
 250,05; 1938,165;  182,015; 7742,284;23,22867
 250,65; 2069,492;  150,168; 8058,037;24,27106
 251,25; 2231,199;  159,245; 8533,670;24,74144
 251,85; 2414,879;  175,707; 9087,178;25,12686
 252,44; 2602,854;  137,707; 9637,951;25,94825
 253,04; 2916,755;  179,092;10310,859;27,02059
 253,64; 3125,843;  132,937;10994,460;27,55512
 254,24; 3466,408;  177,476;11813,885;28,26415
 254,84; 3780,663;  162,246;12648,163;28,97999
 255,43; 4103,385;  169,168;13613,715;29,26254
 256,03; 4417,115;  171,553;14370,735;29,90005
 256,63; 4797,248;  175,245;15429,520;30,29972
 257,23; 5116,240;  162,476;16196,361;30,89560
 257,82; 5420,584;  179,476;17059,810;31,04861
 258,42; 5694,677;  139,629;17736,429;31,56851
 259,02; 6038,212;  177,092;18626,956;31,76782
 259,62; 6258,035;  153,937;19238,626;31,98427
 260,21; 6527,332;  175,245;19667,071;32,58846
 260,81; 6702,963;  171,476;20110,119;32,75793
 261,41; 6857,599;  157,091;20588,282;32,79548
 262,01; 7017,367;  197,629;20985,359;32,80656
 262,60; 7076,933;  147,168;21219,977;32,88486
 263,20; 7228,352;  166,245;21594,131;32,95755
 263,80; 7320,209;  181,014;21742,764;33,11046
 264,40; 7321,385;  155,168;21874,356;32,99487
 264,99; 7443,398;  175,860;22059,488;33,20993
 265,59; 7434,382;  158,629;22162,901;33,06518
 266,19; 7509,197;  149,552;22378,701;33,10808
 266,78; 7588,867;  192,783;22401,840;33,30211
 267,38; 7492,640;  166,552;22464,166;32,85593
 267,98; 7449,997;  160,245;22480,331;32,66005
 268,58; 7442,377;  175,475;22545,082;32,48560
 269,17; 7399,327;  173,629;22548,340;32,29404
 269,77; 7289,771;  177,937;22218,318;32,26729
 270,37; 7155,394;  148,091;22129,278;31,87864
 270,96; 7185,414;  205,937;22046,076;31,95711
 271,56; 6972,677;  153,476;21848,667;31,43185
 272,16; 6934,343;  158,783;21674,511;31,49119
 272,75; 6818,182;  168,630;21639,813;30,96966
 273,35; 6765,318;  165,937;21632,931;30,74199
 273,95; 6710,324;  174,091;21506,905;30,63934
 274,54; 6653,314;  140,861;21570,843;30,38945
 275,14; 6721,894;  181,168;21997,303;29,98114
 275,74; 6633,469;  146,322;22046,791;29,62104
 276,33; 6719,491;  191,168;22486,499;29,28112
 276,93; 6828,187;  176,322;22777,492;29,43151
 277,53; 6900,420;  168,476;23264,902;29,14713
 278,12; 7010,286;  155,784;23713,001;29,09725
 278,72; 7129,747;  184,553;24239,738;28,87192
 279,32; 7239,074;  158,245;24752,421;28,79067
 279,91; 7391,047;  156,476;25397,002;28,66252
 280,51; 7493,534;  166,553;25968,428;28,39709
 281,11; 7732,630;  167,322;26603,457;28,61730
 281,70; 7772,908;  141,168;26971,705;28,44423
 282,30; 7883,446;  152,476;27555,128;28,21249
 282,90; 8046,089;  160,476;27877,232;28,45071
 283,49; 8185,922;  183,399;28390,562;28,37053
 284,09; 8339,976;  193,091;28765,822;28,51280
 284,69; 8426,268;  185,245;28991,741;28,60821
 285,28; 8595,603;  192,861;29418,038;28,75172
 285,88; 8733,525;  196,245;29544,230;29,08983
 286,47; 8771,947;  174,168;29594,987;29,22345
 287,07; 8894,624;  198,707;29572,252;29,60459
 287,67; 9004,089;  191,784;29813,630;29,74934
 288,26; 9115,834;  162,476;29639,615;30,37390
 288,86; 9196,409;  160,399;29693,179;30,59654
 289,46; 9443,716;  178,476;29782,109;31,29764
 290,05; 9590,441;  165,938;29886,424;31,71046
 290,65; 9788,456;  170,168;30124,697;32,10963
 291,24;10003,467;  174,784;30247,304;32,68327
 291,84;10212,094;  194,091;30351,905;33,21860
 292,44;10425,657;  164,553;30411,843;33,92404
 293,03;10637,759;  221,015;30532,416;34,36576
 293,63;10758,364;  167,707;30676,917;34,71299
 294,22;10953,415;  185,861;30784,268;35,18992
 294,82;10989,730;  173,014;30631,574;35,51289
 295,41;11010,523;  159,322;30405,474;35,87630
 296,01;11038,187;  217,014;30330,710;35,93439
 296,61;10976,463;  178,861;30135,709;36,04385
 297,20;10838,091;  175,706;29716,181;36,09416
 297,80;10802,914;  182,476;29679,185;36,00550
 298,39;10669,572;  163,168;29242,947;36,12959
 298,99;10603,908;  162,245;29073,160;36,11668
 299,58;10469,577;  176,784;28989,549;35,72303
 300,18;10396,511;  191,707;28857,804;35,59886
 300,78;10159,340;  167,399;28550,031;35,20442
 301,37;10150,024;  183,706;28489,365;35,20963
 301,97;10068,837;  178,014;28456,025;34,97708
 302,56; 9980,230;  175,322;28378,369;34,76542
 303,16; 9910,494;  166,245;28297,293;34,63877
 303,75; 9824,605;  168,245;28462,454;34,12840
 304,35; 9807,054;  167,092;28654,021;33,83995
 304,94; 9758,489;  169,553;28587,320;33,74275
 305,54; 9628,040;  190,861;28536,882;33,29278
 306,13; 9535,508;  144,092;28414,785;33,21962
 306,73; 9331,685;  155,476;28197,486;32,72308
 307,33; 9318,695;  188,861;28209,901;32,58207
 307,92; 9215,330;  169,245;28305,039;32,15152
 308,52; 9263,117;  156,707;28673,298;31,93373
 309,11; 9348,498;  169,783;29131,119;31,69299
 309,71; 9298,922;  145,552;29352,016;31,34022
 310,30; 9308,876;  157,322;29495,275;31,19357
 310,90; 9338,183;  172,399;29797,736;30,93900
 311,49; 9274,466;  170,630;29934,811;30,58655
 312,09; 9255,697;  143,784;30172,965;30,34353
 312,68; 9298,644;  198,015;30429,051;30,10360
 313,28; 9151,407;  155,630;30530,808;29,61555
 313,87; 9133,669;  141,784;30589,707;29,53201
 314,47; 9148,492;  161,553;30835,915;29,29789
 315,06; 9106,642;  154,476;30935,019;29,08385
 315,66; 9088,236;  147,476;31114,349;28,87201
 316,25; 8942,673;  131,937;30991,372;28,55119
 316,85; 8885,087;  142,553;31008,560;28,32415
 317,44; 8859,661;  155,014;31159,464;28,07548
 318,04; 8774,660;  142,399;31143,701;27,84483
 318,63; 8734,778;  143,246;31146,682;27,71155
 319,22; 8679,913;  167,168;31318,948;27,32667
 319,82; 8670,351;  153,014;31304,631;27,34156
 320,41; 8528,598;  172,784;31212,327;26,91990
 321,01; 8512,146;  174,707;31347,255;26,74609
 321,60; 8467,850;  160,937;31342,388;26,64056
 322,20; 8372,444;  146,784;31280,103;26,42076
 322,79; 8393,043;  195,707;31382,292;26,28482
 323,39; 8342,101;  161,861;31403,500;26,18377
 323,98; 8248,425;  156,938;31341,959;25,94671
 324,58; 8219,979;  159,707;31195,110;25,97122
 325,17; 8159,650;  163,707;31072,248;25,86969
 325,76; 8102,186;  175,938;30830,761;25,85645
 326,36; 7948,020;  142,707;30506,975;25,70559
 326,95; 7915,227;  176,476;30215,690;25,76216
 327,55; 7824,023;  153,399;29913,532;25,77483
 328,14; 7693,510;  144,707;29532,810;25,68659
 328,74; 7636,165;  184,937;29144,585;25,72969
 329,33; 7522,614;  175,168;28775,568;25,69001
 329,92; 7392,689;  152,553;28312,568;25,71070
 330,52; 7237,211;  155,092;27684,693;25,72547
 331,11; 7085,482;  166,322;27316,815;25,48447
 331,71; 6991,816;  160,553;26723,233;25,71752
 332,30; 6969,566;  179,707;26328,397;25,96635
 332,89; 6844,897;  181,861;25922,335;25,88544
 333,49; 6676,090;  176,784;25363,809;25,80418
 334,08; 6603,622;  169,399;25043,413;25,86725
 334,68; 6551,132;  168,245;24616,386;26,10786
 335,27; 6505,140;  173,399;24417,321;26,11682
 335,86; 6424,636;  198,707;24067,276;26,08421
 336,46; 6446,716;  180,169;23925,077;26,39112
 337,05; 6365,526;  165,399;23784,961;26,24997
 337,65; 6407,380;  144,937;23626,505;26,66961
 338,24; 6494,145;  207,399;23718,294;26,73971
 338,83; 6493,627;  187,168;23585,085;26,95308
 339,43; 6477,480;  161,630;23533,975;27,02275
 340,02; 6542,065;  163,091;23450,531;27,39234
 340,61; 6556,626;  154,245;23437,823;27,49741
 341,21; 6593,934;  200,630;23488,124;27,45381
 341,80; 6741,897;  158,630;23410,406;28,31297
 342,40; 6769,463;  166,707;23537,100;28,25265
 342,99; 6838,128;  165,245;23603,105;28,47053
 343,58; 6944,461;  166,784;23759,107;28,72831
 344,18; 7112,365;  170,092;23859,655;29,30520
 344,77; 7222,170;  168,937;24178,636;29,37660
 345,36; 7341,535;  140,784;24414,383;29,66495
 345,96; 7545,416;  190,784;24733,960;29,96610
 346,55; 7729,522;  159,938;24919,565;30,57229
 347,14; 7852,435;  138,784;25212,150;30,76432
 347,74; 8080,776;  137,938;25687,311;31,08819
 348,33; 8364,896;  166,169;26237,118;31,44775
 348,92; 8656,471;  180,708;26796,689;31,84464
 349,52; 8855,941;  141,631;27234,149;32,16501
 350,11; 9022,574;  154,783;27284,088;32,68713
 350,70; 9065,577;  158,707;27335,696;32,77357
 351,29; 9143,988;  154,014;27158,678;33,29045
 351,89; 9225,251;  176,553;27113,231;33,59248
 352,48; 9294,759;  143,322;27210,647;33,80990
 353,07; 9386,084;  163,861;27085,958;34,25522
 353,67; 9498,314;  177,554;27112,971;34,60411
 354,26; 9531,912;  161,938;26877,576;35,07299
 354,85; 9603,905;  170,476;26743,840;35,49956
 355,45; 9624,961;  158,476;26523,389;35,90562
 356,04; 9724,757;  161,246;26489,122;36,32466
 356,63; 9761,880;  185,091;26331,909;36,62698
 357,22; 9860,576;  167,552;26172,459;37,27382
 357,82; 9885,094;  171,091;26074,398;37,50101
 358,41; 9977,671;  172,784;25919,270;38,08243
 359,00; 9990,957;  153,014;25748,633;38,43604
 359,60;10116,898;  172,399;25672,483;38,99791
 360,19;10181,649;  165,399;25558,761;39,44436
 360,78;10262,193;  168,553;25469,267;39,89469
 361,37;10208,797;  159,476;25195,281;40,13979
 361,97;10300,630;  166,861;25071,610;40,69011
 362,56;10303,954;  145,553;24792,646;41,21541
 363,15;10325,662;  181,553;24556,733;41,61655
 363,74;10349,112;  164,168;24311,664;42,17805
 364,34;10291,799;  185,014;23974,576;42,48412
 364,93;10214,479;  160,553;23631,937;42,83483
 365,52;10180,097;  145,553;23157,584;43,60564
 366,11;10176,051;  164,014;23012,598;43,81907
 366,71;10082,221;  164,399;22691,255;44,02666
 367,30;10057,272;  166,784;22351,606;44,58223
 367,89;10119,054;  195,553;22201,245;45,09515
 368,48;10007,165;  178,476;21895,463;45,25807
 369,07; 9968,962;  177,630;21496,927;45,92708
 369,67; 9950,228;  185,860;21234,299;46,38998
 370,26; 9908,169;  176,168;21015,110;46,70103
 370,85; 9869,235;  166,784;20829,080;46,95727
 371,44; 9902,609;  158,938;20624,204;47,61077
 372,03; 9870,431;  161,476;20387,002;48,00347
 372,63; 9775,309;  145,476;20125,440;48,19745
 373,22; 9711,706;  172,630;19894,386;48,36829
 373,81; 9661,757;  149,553;19640,653;48,80281
 374,40; 9700,911;  154,476;19467,391;49,43031
 374,99; 9654,811;  153,784;19249,830;49,75390
 375,59; 9596,699;  155,938;18966,150;50,18955
 376,18; 9633,343;  186,553;18915,286;50,44009
 376,77; 9582,112;  179,168;18659,710;50,88024
 377,36; 9636,417;  186,553;18690,415;51,06968
 377,95; 9578,197;  176,399;18413,439;51,55331
 378,55; 9584,069;  152,784;18301,332;51,96716
 379,14; 9588,939;  166,861;18214,065;52,20796
 379,73; 9571,635;  164,322;18181,161;52,21401
 380,32; 9739,185;  185,861;18198,883;53,03565
 380,91; 9691,652;  157,706;18080,312;53,19509
 381,50; 9747,865;  176,860;17985,353;53,74405
 382,10; 9720,415;  149,322;17923,191;53,84924
 382,69; 9750,736;  145,399;17867,631;54,19936
 383,28; 9794,928;  180,476;17789,727;54,59887
 383,87; 9749,203;  169,476;17665,258;54,75449
 384,46; 9801,240;  151,860;17646,239;55,15703
 385,05; 9851,926;  186,707;17675,849;55,26411
 385,64; 9920,205;  162,399;17646,906;55,80830
 386,24; 9919,649;  150,476;17650,748;55,82298
 386,83;10036,570;  181,168;17699,870;56,25646
 387,42;10111,873;  192,399;17807,320;56,31291
 388,01;10238,945;  169,937;18002,987;56,46262
 388,60;10418,319;  168,706;18166,502;56,94927
 389,19;10578,486;  148,398;18353,236;57,29295
 389,78;10720,688;  165,090;18572,446;57,34445
 390,37;11038,777;  203,860;19029,323;57,55458
 390,96;11130,458;  174,322;19142,914;57,75935
 391,56;11225,964;  167,783;19240,471;57,97914
 392,15;11442,605;  169,706;19490,934;58,34463
 392,74;11528,983;  146,705;19614,031;58,46862
 393,33;11707,853;  163,860;19934,662;58,38910
 393,92;12018,075;  172,244;20358,535;58,68256
 394,51;12096,508;  152,244;20532,521;58,60698
 395,10;12248,394;  197,474;20657,167;58,90079
 395,69;12364,451;  169,705;20688,568;59,43188
 396,28;12450,724;  180,089;20821,138;59,44773
 396,87;12539,620;  184,166;20996,328;59,36651
 397,46;12661,475;  183,242;20987,089;59,98041
 398,06;12743,812;  196,549;21204,295;59,72684
 398,65;12801,468;  188,164;21302,211;59,73892
 399,24;12922,779;  195,702;21330,037;60,21991
 399,83;12931,687;  174,316;21377,038;60,16855
 400,42;13085,489;  206,161;21529,288;60,40075
 401,01;13182,517;  183,775;21658,712;60,52982
 401,60;13159,767;  197,850;21686,470;60,31991
 402,19;13188,202;  207,849;21587,595;60,71332
 402,78;13239,245;  219,615;21666,855;60,70538
 403,37;13104,641;  203,152;21513,101;60,54209
 403,96;13044,829;  206,534;21383,933;60,62262
 404,55;13080,014;  205,300;21282,772;61,08282
 405,14;13036,540;  197,528;21192,041;61,15413
 405,73;12998,202;  212,679;21031,306;61,41386
 406,32;12967,549;  212,523;20984,933;61,40369
 406,91;12830,285;  206,059;20662,032;61,71413
 407,50;12762,439;  209,058;20552,044;61,70865
 408,09;12626,392;  180,980;20243,622;62,03277
 408,68;12548,475;  217,749;20191,082;61,73595
 409,27;12489,761;  201,980;20060,349;61,87709
 409,86;12419,242;  206,674;19937,494;61,89589
 410,45;12466,943;  226,291;19877,180;62,29057
 411,04;12342,233;  243,216;19756,870;62,00282
 411,63;12188,543;  232,757;19535,596;61,93797
 412,22;12047,859;  216,758;19281,942;62,05605
 412,81;11914,754;  225,759;19137,775;61,80724
 413,40;11761,720;  240,914;18788,832;62,11374
 413,99;11560,861;  265,452;18552,962;61,76570
 414,58;11363,934;  217,683;18250,906;61,80953
 415,17;11270,050;  213,990;18050,020;61,98723
 415,76;11207,977;  222,297;17923,179;62,06290
 416,35;11075,801;  200,990;17743,747;61,99032
 416,94;11159,661;  235,297;17851,834;62,01198
 417,53;11228,664;  218,913;18020,796;61,84599
 418,12;11306,276;  211,913;18102,893;62,01093
 418,71;11509,102;  225,068;18433,346;61,97200
 419,30;11551,680;  221,221;18501,691;61,98123
 419,89;11686,866;  210,067;18659,205;62,20778
 420,48;11839,952;  248,837;18894,403;62,16553
 421,07;11860,320;  240,452;18965,098;62,05654
 421,66;11851,048;  212,914;18944,137;62,13227
 422,25;11850,384;  217,531;18915,524;62,21445
 422,84;11824,003;  236,915;18909,857;62,05283
 423,43;11718,420;  220,069;18581,358;62,62279
 424,02;11580,634;  239,684;18379,745;62,51881
 424,60;11309,990;  224,070;17906,969;62,69289
 425,19;11189,720;  229,839;17758,250;62,52638
 425,78;11123,715;  243,146;17800,046;61,97318
 426,37;11044,374;  238,301;17603,161;62,22955
 426,96;10941,747;  231,608;17523,253;61,93823
 427,55;10859,578;  220,070;17382,794;61,99195
 428,14;10737,217;  205,378;17201,233;61,96710
 428,73;10708,953;  234,685;16981,372;62,54531
 429,32;10654,825;  232,377;16984,784;62,21463
 429,91;10623,719;  247,609;16950,886;62,12021
 430,50;10538,870;  241,378;16817,021;62,12424
 431,08;10424,373;  259,994;16731,149;61,71018
 431,67;10378,190;  301,763;16692,282;61,47717
 432,26;10264,323;  293,994;16476,421;61,61208
 432,85;10084,793;  315,533;16097,496;61,90143
 433,44; 9894,264;  315,148;15809,732;61,82235
 434,03; 9652,720;  338,918;15524,919;61,33150
 434,62; 9428,892;  295,764;15148,057;61,49305
 435,21; 9347,953;  322,686;15054,200;61,26503
 435,79; 9205,784;  300,302;14848,549;61,21344
 436,38; 9210,511;  295,611;14772,211;61,58145
 436,97; 9145,883;  289,995;14742,770;61,27465
 437,56; 9008,605;  300,073;14489,305;61,37423
 438,15; 8942,175;  276,996;14487,696;60,97644
 438,74; 8968,749;  287,611;14546,844;60,88082
 439,33; 8963,194;  261,457;14518,148;61,03616
 439,91; 8950,076;  239,150;14570,380;60,78282
 440,50; 9024,061;  269,073;14542,370;61,33823
 441,09; 9103,291;  270,920;14656,883;61,39576
 441,68; 9072,051;  255,074;14705,853;61,01386
 442,27; 9031,934;  249,535;14773,763;60,46723
 442,86; 9036,745;  235,613;14659,282;61,01868
 443,44; 9015,040;  244,382;14721,220;60,58407
 444,03; 9062,447;  289,767;14732,781;60,73995
 444,62; 8977,353;  243,536;14585,354;60,89756
 445,21; 8903,838;  258,767;14465,978;60,84988
 445,80; 8844,789;  268,306;14441,635;60,51142
 446,39; 8711,946;  272,459;14150,884;60,81012
 446,97; 8545,159;  234,460;13972,092;60,49586
 447,56; 8428,948;  238,076;13803,013;60,38268
 448,15; 8313,078;  245,691;13657,805;60,15000
 448,74; 8205,550;  259,845;13426,258;60,34829
 449,33; 8066,956;  248,768;13344,934;59,69830
 449,91; 7958,380;  251,153;13131,960;59,83497
 450,50; 7876,655;  231,307;12895,760;60,36856
 451,09; 7763,791;  263,999;12832,109;59,67319
 451,68; 7762,873;  282,846;12787,013;59,82028
 452,26; 7713,470;  269,846;12717,253;59,80060
 452,85; 7588,161;  251,384;12611,106;59,36037
 453,44; 7612,770;  268,846;12614,261;59,48706
 454,03; 7577,400;  253,154;12532,996;59,64447
 454,61; 7548,639;  247,462;12588,161;59,16340
 455,20; 7646,499;  272,308;12704,563;59,31499
 455,79; 7585,894;  272,231;12725,471;58,72899
 456,38; 7656,026;  267,924;12806,392;58,92348
 456,97; 7666,450;  257,616;12850,828;58,83196
 457,55; 7647,985;  256,078;12827,425;58,79964
 458,14; 7676,761;  278,539;12830,692;58,93987
 458,73; 7588,854;  270,232;12766,786;58,56512
 459,31; 7635,370;  295,540;12818,970;58,60879
 459,90; 7662,834;  294,155;12832,687;58,76827
 460,49; 7739,897;  309,770;12948,939;58,78651
 461,08; 7719,881;  255,848;13048,019;58,34845
 461,66; 7759,592;  264,309;13130,625;58,25508
 462,25; 7769,307;  265,925;13210,647;57,96479
 462,84; 7806,058;  301,002;13282,304;57,81435
 463,43; 7723,659;  245,156;13219,031;57,64279
 464,01; 7758,275;  273,079;13134,724;58,19782
 464,60; 7750,093;  290,925;13092,651;58,26690
 465,19; 7579,532;  242,541;12903,764;57,94851
 465,77; 7515,898;  268,003;12835,774;57,67049
 466,36; 7504,983;  283,233;12722,689;58,05519
 466,95; 7318,131;  261,310;12466,638;57,81755
 467,53; 7163,893;  259,618;12208,724;57,78069
 468,12; 6998,430;  292,080;12042,038;57,07553
 468,71; 6877,587;  274,156;11800,133;57,29172
 469,29; 6700,919;  255,695;11587,534;56,87712
 469,88; 6598,866;  264,080;11386,196;56,95666
 470,47; 6664,952;  296,926;11494,201;56,87121
 471,06; 6581,285;  271,234;11430,588;56,54495
 471,64; 6658,495;  282,311;11545,297;56,61184
 472,23; 6639,254;  265,158;11595,511;56,25682
 472,81; 6730,315;  261,004;11680,731;56,65031
 473,40; 6750,461;  269,235;11837,771;56,02460
 473,99; 6890,417;  324,312;11971,394;56,37554
 474,57; 6830,282;  265,542;12141,692;55,27667
 475,16; 6974,768;  285,235;12187,502;56,20385
 475,75; 7008,586;  283,004;12283,750;56,04303
 476,33; 7038,422;  299,774;12373,650;55,81181
 476,92; 7006,509;  285,773;12474,981;55,13677
 477,51; 7043,481;  291,004;12487,230;55,36530
 478,09; 7035,777;  272,774;12523,321;55,20572
 478,68; 7009,110;  292,158;12427,285;55,35131
 479,27; 7037,288;  306,620;12449,480;55,42902
 479,85; 6963,870;  285,851;12471,787;54,80104
 480,44; 7058,140;  275,005;12655,767;54,78770
 481,02; 7794,541;  288,851;14348,509;53,38458
 481,61; 8691,240;  306,389;15935,860;53,64769
 482,20; 9268,776;  306,082;16932,719;53,90563
 482,78; 9640,805;  328,928;17581,964;53,97240
 483,37; 9877,551;  314,313;17999,930;54,07353
 483,95;10022,312;  341,544;18217,778;54,15440
 484,54;10088,140;  340,851;18283,114;54,32587
 485,13; 9989,869;  317,006;18159,890;54,21132
 485,71; 9836,075;  300,083;17960,696;53,99582
 486,30; 9718,140;  332,159;17723,941;53,96790
 486,88; 9504,290;  353,775;17320,461;53,93224
 487,47; 9145,285;  348,852;16635,289;54,01079
 488,05; 8645,264;  335,391;15825,696;53,64564
 488,64; 8024,363;  345,929;14497,680;54,25783
 489,23; 7090,810;  348,237;12624,971;54,92156
 489,81; 6110,069;  332,698;11145,114;53,43275
 490,40; 5828,238;  291,237;10686,009;53,26718
 490,98; 5695,763;  285,775;10477,883;53,08016
 491,57; 5718,937;  317,621;10429,514;53,41548
 492,15; 5612,988;  289,929;10349,448;52,91564
 492,74; 5578,047;  301,698;10268,713;52,93810
 493,32; 5509,919;  312,083;10178,985;52,67952
 493,91; 5441,075;  291,314;10106,632;52,46658
 494,50; 5420,424;  301,468;10051,382;52,50257
 495,08; 5376,273;  282,622;10034,792;52,23095
 495,67; 5376,899;  295,006;10035,886;52,17078
 496,25; 5292,938;  246,545; 9886,989;52,34606
 496,84; 5262,303;  258,545; 9887,569;51,96537
 497,42; 5254,866;  249,468; 9841,546;52,18262
 498,01; 5195,367;  276,545; 9813,590;51,57595
 498,59; 5107,349;  248,391; 9767,215;51,04578
 499,18; 5101,676;  265,314; 9682,160;51,35862
 499,76; 5069,557;  267,391; 9594,430;51,48650
 500,35; 4929,766;  265,084; 9457,691;50,74385
 500,93; 4913,763;  243,853; 9392,774;51,04329
 501,52; 4890,268;  255,084; 9383,466;50,77772
 502,10; 4846,962;  267,084; 9321,120;50,58383
 502,69; 4720,975;  248,238; 9212,643;49,89441
 503,27; 4657,295;  231,161; 9016,461;50,38114
 503,86; 4608,044;  255,238; 8969,753;49,94892
 504,44; 4525,069;  231,084; 8841,801;49,86791
 505,03; 4400,931;  213,315; 8589,612;49,99364
 505,61; 4335,879;  235,315; 8544,576;49,34932
 506,19; 4272,708;  259,854; 8418,156;49,18737
 506,78; 4175,884;  221,700; 8233,793;49,35269
 507,36; 4085,132;  239,161; 8064,630;49,14684
 507,95; 4045,953;  244,085; 7971,603;49,19908
 508,53; 3947,863;  232,162; 7836,694;48,86167
 509,12; 3885,954;  232,777; 7727,365;48,74420
 509,70; 3811,076;  247,470; 7609,319;48,40639
 510,29; 3748,230;  258,316; 7479,166;48,33108
 510,87; 3643,831;  228,469; 7307,379;48,24699
 511,46; 3577,640;  224,623; 7165,276;48,30982
 512,04; 3499,832;  224,470; 7058,341;47,92836
 512,62; 3434,705;  243,316; 6916,060;47,82724
 513,21; 3361,102;  208,701; 6776,168;48,00026
 513,79; 3313,008;  231,317; 6683,793;47,75983
 514,38; 3230,416;  212,316; 6505,763;47,95622
 514,96; 3193,705;  258,778; 6439,305;47,48669
 515,54; 3073,784;  213,932; 6286,836;47,09200
 516,13; 3046,851;  232,393; 6219,960;47,00503
 516,71; 2982,126;  244,317; 6133,113;46,49183
 517,30; 2915,585;  217,009; 6020,319;46,50064
 517,88; 2878,285;  252,625; 5941,862;46,15136
 518,46; 2801,646;  217,471; 5848,930;45,88820
 519,05; 2788,331;  225,394; 5810,047;45,89249
 519,63; 2761,071;  233,163; 5772,828;45,63287
 520,22; 2743,097;  248,933; 5710,567;45,66698
 520,80; 2686,021;  229,625; 5628,830;45,49552
 521,38; 2670,624;  258,317; 5606,652;45,10388
 521,97; 2639,705;  230,702; 5579,793;45,03575
 522,55; 2633,195;  247,548; 5586,743;44,68177
 523,13; 2612,169;  213,395; 5574,479;44,74421
 523,72; 2586,500;  223,548; 5551,013;44,35416
 524,30; 2621,047;  242,087; 5725,300;43,38624
 524,89; 2594,784;  223,548; 5671,748;43,52329
 525,47; 2644,638;  249,164; 5800,106;43,15436
 526,05; 2642,413;  214,856; 5846,348;43,10681
 526,64; 2639,126;  239,626; 5972,640;41,85409
 527,22; 2721,710;  240,856; 6060,664;42,62776
 527,80; 2745,623;  274,241; 6163,749;41,96245
 528,39; 2715,014;  226,472; 6203,723;41,63356
 528,97; 2786,885;  233,780; 6406,379;41,36192
 529,55; 2816,279;  245,549; 6572,332;40,63250
 530,14; 2899,262;  257,395; 6736,034;40,77811
 530,72; 2882,566;  232,703; 6807,701;40,30211
 531,30; 2896,571;  212,395; 6936,758;39,91718
 531,89; 2955,693;  230,549; 7005,597;40,22324
 532,47; 2969,507;  257,626; 7068,936;39,81438
 533,05; 2985,712;  249,933; 7111,273;39,87237
 533,63; 2997,485;  273,780; 7182,997;39,42132
 534,22; 2946,149;  234,395; 7187,585;39,00014
 534,80; 2997,043;  263,626; 7271,718;39,00373
 535,38; 3034,929;  306,703; 7317,224;38,91617
 535,97; 2967,681;  259,242; 7292,035;38,51158
 536,55; 3016,907;  294,396; 7356,638;38,55024
 537,13; 2981,914;  303,934; 7324,098;38,14698
 537,71; 3015,528;  340,318; 7384,528;37,97743
 538,30; 3035,441;  369,319; 7491,504;37,43404
 538,88; 3040,633;  382,627; 7556,569;37,05085
 539,46; 3135,995;  445,011; 7764,361;36,76534
 540,05; 3168,083;  462,627; 7865,776;36,54466
 540,63; 3228,735;  499,242; 8031,994;36,23500
 541,21; 3270,212;  535,011; 8159,158;35,87550
 541,79; 3313,949;  580,473; 8262,843;35,58115
 542,38; 3357,542;  595,934; 8415,206;35,31797
 542,96; 3375,975;  599,088; 8555,307;34,90209
 543,54; 3432,688;  630,627; 8746,861;34,52416
 544,12; 3421,526;  584,242; 8892,170;34,15152
 544,70; 3459,862;  574,550; 8928,890;34,53669
 545,29; 3494,932;  563,550; 9109,493;34,30144
 545,87; 3494,026;  542,627; 9096,536;34,50351
 546,45; 3427,781;  498,319; 9126,903;33,95066
 547,03; 3434,892;  484,319; 9142,596;34,07806
 547,62; 3475,363;  464,473; 9344,364;33,90684
 548,20; 3527,374;  456,165; 9505,702;33,93774
 548,78; 3531,475;  423,781; 9602,102;33,85907
 549,36; 3530,635;  387,704; 9792,152;33,41962
 549,94; 3538,366;  360,781; 9906,351;33,28859
 550,53; 3581,870;  359,550;10086,325;33,12834
 551,11; 3634,448;  344,320;10255,806;33,19510
 551,69; 3654,197;  344,397;10558,738;32,40346
 552,27; 3706,383;  321,935;10774,899;32,37787
 552,85; 3824,306;  311,166;11107,868;32,53901
 553,44; 3846,731;  295,858;11402,835;31,96975
 554,02; 3926,419;  324,781;11672,047;31,74014
 554,60; 3972,356;  275,551;11956,026;31,64944
 555,18; 4052,141;  307,012;12281,991;31,27462
 555,76; 4080,666;  280,243;12620,628;30,79664
 556,34; 4185,944;  286,474;12935,383;30,82851
 556,93; 4259,304;  280,166;13250,413;30,67897
 557,51; 4313,196;  275,474;13594,636;30,31513
 558,09; 4417,486;  288,474;13929,594;30,26886
 558,67; 4493,859;  297,628;14272,731;30,02648
 559,25; 4532,320;  291,935;14477,462;29,89233
 559,83; 4578,477;  273,705;14735,801;29,76589
 560,41; 4641,743;  271,551;15005,865;29,65996
 561,00; 4710,276;  278,166;15387,354;29,33387
 561,58; 4705,349;  267,781;15587,444;28,96648
 562,16; 4765,804;  260,781;15870,932;28,85957
 562,74; 4834,622;  247,397;16255,789;28,65513
 563,32; 4912,104;  246,551;16615,940;28,50169
 563,90; 4976,029;  279,705;16952,388;28,16778
 564,48; 5037,157;  273,628;17305,579;27,96819
 565,06; 5227,582;  268,705;17902,399;28,12160
 565,65; 5359,751;  266,244;18439,877;28,02691
 566,23; 5512,402;  314,705;19140,403;27,60959
 566,81; 5622,024;  264,551;19746,293;27,49997
 567,39; 5840,475;  275,936;20593,039;27,38845
 567,97; 5962,585;  281,782;21133,270;27,24412
 568,55; 6094,127;  281,166;21950,295;26,82600
 569,13; 6264,654;  268,936;22517,502;26,94878
 569,71; 6460,047;  270,243;23412,456;26,74681
 570,29; 6698,761;  309,858;24323,587;26,60521
 570,87; 6822,223;  300,320;24926,702;26,48340
 571,45; 6921,037;  290,089;25475,471;26,32856
 572,03; 6988,118;  251,397;25860,842;26,30561
 572,61; 7061,892;  252,013;26487,315;25,95693
 573,20; 7242,557;  288,859;27109,281;25,92688
 573,78; 7349,889;  269,628;27641,598;25,86683
 574,36; 7382,518;  283,782;28059,576;25,55727
 574,94; 7446,914;  325,090;28409,337;25,35879
 575,52; 7478,937;  281,090;28565,045;25,44852
 576,10; 7619,073;  327,705;29191,317;25,26145
 576,68; 7647,607;  318,936;29601,254;25,02763
 577,26; 7772,559;  333,629;30309,711;24,81622
 577,84; 7828,191;  344,166;30677,894;24,67229
 578,42; 7867,865;  378,398;30917,557;24,52415
 579,00; 7805,752;  326,628;31061,640;24,33421
 579,58; 7800,611;  356,628;31166,856;24,16075
 580,16; 7783,690;  348,936;31253,465;24,05717
 580,74; 7754,302;  347,859;31459,747;23,80583
 581,32; 7714,584;  355,705;31409,553;23,69716
 581,90; 7644,454;  363,782;31468,177;23,40721
 582,48; 7590,629;  359,551;31538,891;23,19189
 583,06; 7569,955;  363,936;31677,074;23,01277
 583,64; 7569,343;  367,397;31739,099;22,95682
 584,22; 7443,430;  376,013;31577,675;22,65077
 584,80; 7322,963;  371,859;31340,733;22,44545
 585,38; 7159,259;  377,858;31069,312;22,09540
 585,96; 7125,345;  362,782;31135,240;21,97603
 586,54; 7083,755;  377,475;31164,095;21,78310
 587,12; 7057,774;  349,167;31304,739;21,67173
 587,70; 6984,035;  369,936;31469,061;21,26780
 588,28; 6944,632;  369,628;31431,263;21,16760
 588,86; 6891,004;  356,398;31530,130;20,96190
 589,44; 6854,850;  351,244;31598,637;20,81327
 590,02; 6863,514;  343,013;31888,879;20,66990
 590,59; 6851,213;  332,936;31984,269;20,59400
 591,17; 6819,465;  336,552;32163,836;20,36904
 591,75; 6778,038;  316,398;32250,099;20,23455
 592,33; 6789,714;  331,398;32514,326;20,06752
 592,91; 6764,239;  291,937;32683,470;19,98146
 593,49; 6787,242;  297,091;32940,341;19,88206
 594,07; 6793,392;  309,245;33256,207;19,68056
 594,65; 6743,263;  317,475;33184,196;19,55105
 595,23; 6757,092;  315,706;33574,507;19,36746
 595,81; 6689,379;  310,860;33637,831;19,13921
 596,39; 6717,267;  306,090;33822,798;19,12830
 596,97; 6711,975;  298,783;33854,770;19,11192
 597,55; 6663,166;  288,244;33839,828;19,00036
 598,12; 6566,068;  291,552;33895,511;18,67195
 598,70; 6558,699;  284,321;34017,938;18,59978
 599,28; 6588,440;  300,091;34110,603;18,59880
 599,86; 6548,998;  284,552;34083,593;18,53439
 600,44; 6483,427;  267,629;34239,778;18,29675
 601,02; 6479,333;  330,937;34294,249;18,10305
 601,60; 6409,427;  282,629;34301,541;18,00998
 602,18; 6380,334;  269,937;34268,544;17,97249
 602,75; 6324,152;  274,321;34310,317;17,77480
 603,33; 6299,242;  286,091;34330,380;17,66273
 603,91; 6277,844;  268,091;34373,485;17,62112
 604,49; 6281,850;  300,475;34471,374;17,50429
 605,07; 6260,281;  289,706;34433,854;17,48638
 605,65; 6222,538;  322,937;34511,664;17,25598
 606,23; 6249,085;  367,167;34698,495;17,13280
 606,80; 6228,888;  413,090;34757,079;16,93396
 607,38; 6225,910;  459,706;34743,031;16,81927
 607,96; 6192,422;  503,859;34821,253;16,57632
 608,54; 6198,198;  560,091;34840,195;16,44717
 609,12; 6186,014;  530,321;34946,206;16,43338
 609,70; 6166,944;  601,244;34939,795;16,20831
 610,27; 6152,283;  583,859;34916,033;16,21926
 610,85; 6174,320;  598,706;35029,835;16,19353
 611,43; 6121,683;  596,783;35010,973;16,05413
 612,01; 6051,417;  565,398;34824,703;16,01322
 612,59; 6044,005;  561,475;34835,522;15,99616
 613,16; 5952,924;  540,244;34684,298;15,85248
 613,74; 5918,522;  512,706;34580,891;15,86764
 614,32; 5890,790;  469,014;34567,455;15,90036
 614,90; 5861,664;  435,091;34462,245;15,94777
 615,48; 5764,413;  370,782;34170,255;15,95774
 616,05; 5688,489;  371,013;34162,678;15,73606
 616,63; 5673,566;  360,628;34057,332;15,76694
 617,21; 5648,113;  362,321;33896,375;15,76246
 617,79; 5600,409;  341,475;33903,582;15,66926
 618,36; 5545,018;  358,090;33739,000;15,53860
 618,94; 5448,920;  296,859;33508,356;15,51288
 619,52; 5411,985;  322,782;33206,371;15,47642
 620,10; 5392,942;  304,936;33196,647;15,46896
 620,67; 5364,692;  315,475;33120,689;15,39151
 621,25; 5321,796;  325,783;33071,653;15,25693
 621,83; 5308,937;  320,167;32953,706;15,28725
 622,41; 5292,005;  351,706;32885,900;15,18494
 622,98; 5257,023;  327,013;32670,890;15,24248
 623,56; 5208,264;  322,705;32683,690;15,09706
 624,14; 5173,857;  299,398;32605,341;15,08843
 624,72; 5155,564;  308,936;32450,076;15,07920
 625,29; 5150,159;  273,244;32467,739;15,14829
 625,87; 5153,211;  324,860;32472,590;15,01926
 626,45; 5112,083;  287,321;32404,655;15,02230
 627,02; 5039,807;  293,398;32353,445;14,80475
 627,60; 5048,730;  288,398;32271,875;14,88372
 628,18; 5034,860;  276,398;32301,360;14,85860
 628,76; 5030,866;  280,321;32341,711;14,81703
 629,33; 5038,742;  292,936;32349,039;14,80469
 629,91; 5031,711;  289,090;32379,340;14,77901
 630,49; 5020,331;  315,552;32581,390;14,58130
 631,06; 5055,649;  310,398;32536,574;14,72483
 631,64; 5014,926;  289,013;32579,476;14,63563
 632,22; 4988,139;  253,474;32517,364;14,67481
 632,79; 5042,034;  283,782;32729,644;14,66520
 633,37; 5051,745;  268,321;32724,494;14,73810
 633,95; 5022,738;  280,859;32873,207;14,54906
 634,52; 5057,636;  259,244;33030,019;14,64229
 635,10; 5031,033;  259,475;32900,273;14,61839
 635,68; 5056,001;  262,936;33149,483;14,57455
 636,25; 5062,875;  259,013;33224,280;14,57250
 636,83; 5063,097;  248,013;33308,326;14,56454
 637,41; 5079,513;  254,705;33345,372;14,58057
 637,98; 5120,010;  278,397;33568,635;14,54364
 638,56; 5121,981;  279,782;33621,070;14,52313
 639,13; 5134,338;  255,628;33659,049;14,60542
 639,71; 5185,038;  281,859;33809,400;14,62433
 640,29; 5109,280;  246,321;33660,891;14,55341
 640,86; 5117,067;  249,705;33802,983;14,50637
 641,44; 5134,008;  252,167;33880,151;14,51720
 642,02; 5167,026;  277,321;33788,704;14,59118
 642,59; 5162,505;  253,782;33907,334;14,58605
 643,17; 5160,369;  247,244;33894,349;14,60193
 643,74; 5161,695;  242,705;33958,132;14,58973
 644,32; 5167,328;  275,936;33810,916;14,58594
 644,89; 5202,576;  265,167;33931,854;14,66556
 645,47; 5256,517;  278,629;33873,945;14,81721
 646,05; 5226,920;  263,013;33792,652;14,80453
 646,62; 5223,091;  269,552;33811,128;14,76836
 647,20; 5255,648;  265,782;33957,296;14,81045
 647,77; 5196,127;  237,475;33814,311;14,76807
 648,35; 5194,452;  217,321;33633,172;14,89452
 648,92; 5243,316;  263,013;33807,263;14,84697
 649,50; 5207,719;  238,090;33626,662;14,88422
 650,08; 5203,890;  227,475;33696,215;14,86885
 650,65; 5258,370;  242,783;33912,460;14,89645
 651,23; 5392,387;  226,244;34674,629;14,99677
 651,80; 5548,098;  235,090;35443,028;15,09037
 652,38; 5627,654;  244,244;35773,735;15,15195
 652,95; 5699,902;  220,398;36156,442;15,24793
 653,53; 5756,382;  249,936;36303,456;15,27298
 654,10; 5793,630;  265,706;36407,778;15,29499
 654,68; 5776,725;  224,860;36276,562;15,39973
 655,25; 5791,281;  227,783;36302,269;15,42225
 655,83; 5810,299;  231,706;36514,976;15,37511
 656,40; 5863,009;  247,398;36407,067;15,53004
 656,98; 5843,565;  240,321;36276,236;15,54906
 657,55; 5830,737;  236,860;36190,712;15,55849
 658,13; 5760,832;  220,398;35822,803;15,56196
 658,70; 5739,234;  264,475;35575,741;15,50429
 659,28; 5601,483;  236,398;34649,217;15,59037
 659,85; 5500,347;  241,475;34064,154;15,54836
 660,43; 5572,518;  251,706;34264,092;15,64375
 661,00; 5549,690;  235,937;34345,953;15,57828
 661,58; 5644,246;  224,937;34643,198;15,74545
 662,15; 5663,341;  224,167;34851,520;15,70774
 662,73; 5736,051;  271,090;35154,612;15,66631
 663,30; 5752,992;  240,706;35399,934;15,67806
 663,88; 5810,087;  247,244;35554,333;15,75560
 664,45; 5829,258;  235,321;35695,886;15,77509
 665,03; 5913,507;  244,398;36017,824;15,84726
 665,60; 6066,140;  281,398;36549,531;15,94993
 666,17; 6047,773;  248,244;36517,314;15,99029
 666,75; 6130,637;  240,090;36891,021;16,07203
 667,32; 6188,194;  259,552;37209,343;16,04513
 667,90; 6292,211;  247,552;37437,358;16,25354
 668,47; 6338,383;  256,014;37596,911;16,28876
 669,05; 6405,016;  237,014;37894,002;16,37944
 669,62; 6387,111;  213,629;38049,555;16,31646
 670,19; 6436,283;  227,937;38140,493;16,37543
 670,77; 6477,454;  242,244;38302,892;16,38230
 671,34; 6534,318;  240,168;38265,214;16,55264
 671,92; 6608,874;  229,091;38587,844;16,63189
 672,49; 6631,277;  252,475;38568,166;16,64801
 673,06; 6638,987;  210,168;38603,258;16,74473
 673,64; 6671,236;  227,398;38541,888;16,81828
 674,21; 6685,023;  214,860;38523,979;16,88935
 674,79; 6724,963;  237,860;38697,840;16,86715
 675,36; 6771,981;  247,783;38771,931;16,93535
 675,93; 6763,230;  223,475;38632,869;17,02645
 676,51; 6860,401;  253,860;38824,883;17,12825
 677,08; 6878,958;  247,629;38818,975;17,19237
 677,65; 6930,975;  234,475;38969,836;17,28782
 678,23; 7002,609;  243,091;39144,619;17,37597
 678,80; 7071,473;  229,706;39197,865;17,55733
 679,38; 7075,567;  216,937;39476,648;17,46990
 679,95; 7170,431;  234,475;39625,817;17,60782
 680,52; 7229,372;  232,552;39859,370;17,65678
 681,10; 7362,775;  232,860;40365,461;17,76589
 681,67; 7415,177;  246,091;40600,322;17,76539
 682,24; 7445,656;  223,783;40562,567;17,90305
 682,82; 7536,751;  222,860;41196,351;17,85030
 683,39; 7702,923;  253,860;41451,596;18,08124
 683,96; 7728,402;  229,937;41835,842;18,02260
 684,54; 7828,497;  220,860;42144,087;18,14659
 685,11; 7948,592;  233,629;42374,101;18,30773
 685,68; 8004,148;  230,475;42814,501;18,25490
 686,25; 8054,550;  220,629;42845,361;18,37882
 686,83; 8090,799;  223,937;43093,991;18,35048
 687,40; 8249,432;  200,783;43333,929;18,66001
 687,97; 8385,373;  246,399;43764,866;18,70235
 688,55; 8378,775;  199,091;43761,958;18,77674
 689,12; 8457,485;  194,629;44011,126;18,85787
 689,69; 8490,195;  204,629;44078,602;18,88492
 690,26; 8607,367;  221,937;44168,309;19,08105
 690,84; 8591,462;  223,245;44287,939;18,99075
 691,41; 8722,172;  233,322;44337,646;19,24721
 691,98; 8760,497;  223,860;44635,814;19,22149
 692,56; 8850,746;  207,399;44761,367;19,39972
 693,13; 8937,995;  278,860;44814,997;19,44294
 693,70; 8969,243;  239,783;44999,627;19,50288
 694,27; 8997,799;  228,706;45029,565;19,57349
 694,84; 9080,817;  217,245;45176,810;19,71454
 695,42; 9149,681;  262,629;45200,440;19,77633
 695,99; 9202,160;  238,399;45436,454;19,83218
 696,56; 9172,794;  221,091;45253,469;19,87837
 697,13; 9404,965;  240,783;45638,637;20,18638
 697,71; 9414,675;  197,014;45661,498;20,27442
 698,28; 9528,693;  226,399;46003,743;20,32074
 698,85; 9569,249;  203,322;45920,142;20,48683
 699,42; 9677,652;  200,783;46172,542;20,61454
 699,99; 9732,977;  235,553;46205,248;20,66019
 700,57; 9781,841;  238,706;46156,955;20,78288
 701,14; 9783,398;  213,630;46431,201;20,70591
 701,71; 9878,185;  231,707;46570,830;20,81714
 702,28; 9974,895;  231,937;46557,614;21,03144
 702,85;10050,143;  239,630;46695,706;21,11783
 703,43;10139,623;  236,630;46877,336;21,23251
 704,00;10253,871;  256,553;47110,427;21,33723
 704,57;10260,812;  237,630;47050,365;21,41123
 705,14;10384,445;  259,707;47202,225;21,56838
 705,71;10403,078;  275,860;47296,701;21,53772
 706,28;10419,481;  243,476;47120,947;21,70767
 706,86;10562,037;  270,091;47452,500;21,81310
 707,43;10653,286;  278,091;47396,206;22,01954
 708,00;10640,073;  261,630;47491,144;21,97449
 708,57;10690,860;  236,937;47389,466;22,17044
 709,14;10809,801;  262,014;47408,558;22,37234
 709,71;10847,357;  249,860;47482,957;22,43659
 710,28;10930,221;  239,091;47765,741;22,49502
 710,86;11001,546;  250,399;47900,601;22,56265
 711,43;11073,872;  255,476;47990,539;22,66342
 712,00;11138,351;  253,476;47938,630;22,82655
 712,57;11181,907;  243,322;48089,953;22,86177
 713,14;11278,771;  243,553;48201,967;23,00997
 713,71;11281,097;  257,937;48067,751;23,05627
 714,28;11372,807;  238,784;48156,919;23,23551
 714,85;11295,979;  226,784;47798,088;23,26864
 715,42;11449,150;  237,399;48060,333;23,44430
 716,00;11513,476;  273,091;48067,501;23,51820
 716,57;11569,878;  234,630;48242,208;23,61137
 717,14;11584,896;  221,399;48091,684;23,73810
 717,71;11600,529;  212,784;48238,160;23,71193
 718,28;11692,239;  246,245;48321,329;23,80858
 718,85;11725,026;  223,861;48279,882;23,93283
 719,42;11827,121;  243,015;48421,973;24,04391
 719,99;11780,447;  218,553;48239,603;24,07672
 720,56;11923,541;  226,015;48519,771;24,22161
 721,13;11940,944;  226,553;48524,017;24,25467
 721,70;11987,192;  217,938;48456,108;24,39822
 722,27;12070,210;  239,630;48550,277;24,48856
 722,84;12170,228;  268,784;48640,829;24,60397
 723,41;12183,938;  219,938;48564,844;24,74718
 723,98;12205,571;  234,092;48799,705;24,65012
 724,55;12288,512;  244,092;48976,642;24,71535
 725,12;12285,453;  199,553;48797,657;24,86908
 725,69;12385,471;  224,092;48972,902;24,94703
 726,27;12472,027;  223,399;49115,455;25,05239
 726,84;12540,891;  234,092;49280,008;25,09240
 727,41;12632,524;  232,938;49317,869;25,26149
 727,98;12759,465;  242,092;49605,191;25,35775
 728,55;12730,329;  255,553;49457,129;25,35442
 729,12;12798,270;  210,015;49647,835;25,46280
 729,69;12917,134;  254,322;49753,773;25,58172
 730,26;13005,152;  250,322;49962,557;25,65732
 730,82;13064,862;  222,553;49850,187;25,87733
 731,39;13085,495;  234,630;49816,278;25,91859
 731,96;13268,359;  219,322;50163,062;26,12747
 732,53;13420,223;  241,399;50357,153;26,29677
 733,10;13523,856;  250,322;50522,091;26,40355
 733,67;13584,643;  250,015;50676,029;26,44395
 734,24;13573,815;  226,784;50330,889;26,63860
 734,81;13631,832;  264,707;50432,058;26,64507
 735,38;13622,850;  240,246;50267,072;26,75086
 735,95;13612,099;  228,784;50113,702;26,82838
 736,52;13726,347;  250,630;50226,332;26,96454
 737,09;13667,519;  240,861;49921,270;27,02606
 737,66;13833,768;  279,784;50098,669;27,20652
 738,23;13863,785;  240,169;50154,068;27,29423
 738,80;14013,649;  263,938;50414,236;27,41701
 739,37;14116,129;  257,015;50601,405;27,52862
 739,94;14177,377;  249,015;50644,881;27,63791
 740,51;14310,626;  302,861;50688,511;27,80110
 741,07;14279,028;  235,784;50668,294;27,84562
 741,64;14409,431;  269,861;50922,309;27,91488
 742,21;14476,064;  231,476;50853,323;28,13921
 742,78;14490,697;  222,938;50692,723;28,26990
 743,35;14529,176;  224,707;50855,737;28,25238
 743,92;14695,348;  261,400;51007,982;28,44319
 744,49;14733,058;  239,477;50943,151;28,58487
 745,06;14717,307;  232,861;51001,242;28,53045
 745,63;14787,324;  224,477;50902,026;28,73629
 746,19;14803,650;  228,707;50930,348;28,74649
 746,76;14861,206;  255,553;50968,747;28,80050
 747,33;14974,147;  229,784;50905,531;29,09550
 747,90;15067,549;  258,400;51071,007;29,14464
 748,47;15092,644;  249,246;51065,329;29,21004
 749,04;15106,200;  245,169;50956,729;29,30502
 749,61;15179,372;  256,169;50944,128;29,44132
 750,17;15187,851;  242,707;51023,142;29,43091
 750,74;15242,177;  256,477;50913,234;29,58283
 751,31;15287,425;  233,554;50880,248;29,72331
 751,88;15338,213;  214,477;50717,494;29,94620
 752,45;15477,692;  235,169;50994,431;30,02905
 753,02;15455,017;  247,861;50649,215;30,17212
 753,58;15472,266;  222,015;50671,768;30,22859
 754,15;15577,822;  232,707;50812,090;30,33868
 754,72;15529,917;  220,323;50637,105;30,36607
 755,29;15559,781;  213,015;50426,504;30,56303
 755,86;15620,568;  233,631;50544,826;30,58353
 756,42;15689,586;  234,400;50527,533;30,73021
 756,99;15635,680;  198,554;50505,547;30,68585
 757,56;15719,698;  216,631;50361,793;30,91638
 758,13;15733,793;  182,938;50253,192;31,05807
 758,70;15835,734;  203,861;50276,437;31,21843
 759,26;15822,059;  200,246;50461,913;31,08097
 759,83;15863,385;  199,169;50451,543;31,17110
 760,40;15891,480;  192,169;50317,558;31,32008
 760,97;15928,651;  193,400;50289,572;31,41009
 761,53;15891,669;  167,400;49973,510;31,57096
 762,10;15881,225;  173,631;49908,293;31,58279
 762,67;15935,628;  205,631;49960,154;31,61521
 763,24;15855,415;  168,554;49558,015;31,76156
 763,80;15908,509;  197,861;49772,183;31,69110
 764,37;15894,450;  203,323;49732,198;31,68077
 764,94;15772,622;  187,169;49316,828;31,72310
 765,50;15818,947;  182,631;49164,688;31,92254
 766,07;15962,734;  222,785;49319,472;32,05909
 766,64;15827,521;  200,785;48949,410;32,05575
 767,21;15841,001;  197,554;48985,578;32,06411
 767,77;15839,557;  219,938;48824,054;32,13641
 768,34;15908,113;  230,169;48763,069;32,30374
 768,91;15817,746;  226,862;48671,160;32,18312
 769,47;15880,072;  213,246;48647,713;32,34644
 770,04;15894,321;  224,862;48582,958;32,40297
 770,61;15882,723;  209,015;48406,204;32,51996
 771,18;15825,895;  203,169;48330,449;32,46127
 771,74;15990,451;  224,708;48392,079;32,73117
 772,31;15931,469;  215,323;48271,786;32,70350
 772,88;15933,410;  199,246;47999,262;32,91665
 773,44;15893,889;  201,169;47768,815;32,99032
 774,01;16008,599;  219,169;47902,445;33,11314
 774,58;15890,309;  201,785;47572,536;33,11859
 775,14;15963,327;  204,554;47771,397;33,12974
 775,71;15952,191;  204,708;47581,873;33,23855
 776,27;15976,747;  251,477;47574,734;33,22948
 776,84;16034,842;  243,862;47573,748;33,36366
 777,41;16026,090;  228,939;47399,840;33,48919
 777,97;15976,185;  213,554;47193,316;33,55196
 778,54;15967,818;  222,400;47166,792;33,54057
 779,11;16000,990;  241,169;47120,345;33,61796
 779,67;16035,315;  212,785;47053,052;33,77976
 780,24;15959,410;  229,477;46872,989;33,72373
 780,80;16023,428;  242,939;46855,234;33,85478
 781,37;16017,830;  232,708;46853,864;33,85828
 781,94;16021,540;  222,554;46577,417;34,08269
 782,50;16107,481;  236,862;46574,970;34,24961
 783,07;16123,730;  252,939;46587,908;34,25230
 783,63;16044,517;  213,785;46351,384;34,31200
 784,20;16100,304;  236,785;46298,937;34,43938
 784,77;16018,553;  227,400;46110,875;34,41577
 785,33;16009,724;  205,323;45908,197;34,58076
 785,90;16055,127;  237,093;46000,673;34,56468
 786,46;16038,914;  232,631;45769,918;34,71064
 787,03;15991,855;  209,785;45668,779;34,71716
 787,59;15942,949;  226,785;45590,486;34,64480
 788,16;15936,429;  224,016;45589,269;34,63535
 788,73;15973,062;  233,093;45375,822;34,86712
 789,29;15911,772;  227,631;45105,452;34,94853
 789,86;15955,482;  240,708;44895,467;35,19171
 790,42;15858,038;  239,016;44861,866;35,00230
 790,99;15774,902;  241,477;44486,265;35,10792
 791,55;15774,151;  220,093;44553,203;35,08452
 792,12;15852,015;  234,477;44453,602;35,31851
 792,68;15867,648;  221,093;44174,924;35,59770
 793,25;15783,204;  232,093;44065,708;35,47759
 793,81;15714,145;  254,247;43608,184;35,65973
 794,38;15620,624;  192,477;43459,429;35,65804
 794,94;15682,950;  217,324;43264,059;35,92752
 795,51;15619,045;  227,477;43071,228;35,92488
 796,07;15543,909;  222,785;42806,165;35,97912
 796,64;15676,926;  235,170;42989,487;36,11742
 797,20;15571,636;  231,554;42433,810;36,34896
 797,77;15448,424;  203,401;42211,747;36,29046
 798,33;15406,903;  218,785;42050,454;36,30770
 798,90;15449,459;  259,093;41964,161;36,42331
 799,46;15378,400;  224,016;41599,945;36,62609
 800,03;15283,418;  228,631;41487,421;36,48868
 800,59;15239,820;  234,016;41300,897;36,53992
 801,15;15245,453;  240,554;41080,527;36,74072
 801,72;15206,394;  241,016;40827,926;36,87243
 802,28;15117,027;  261,785;40532,017;36,88889
 802,85;15115,353;  222,247;40307,032;37,15401
 803,41;15031,909;  227,247;40049,893;37,17649
 803,98;14917,081;  227,247;39894,292;37,03284
 804,54;14888,791;  231,016;39624,075;37,20903
 805,11;14845,501;  226,708;39414,013;37,30492
 805,67;14947,596;  241,247;39346,720;37,60688
 806,23;14752,306;  234,862;38962,273;37,48622
 806,80;14765,093;  243,247;38930,441;37,53657
 807,36;14733,495;  256,785;38854,071;37,50707
 807,93;14723,821;  255,708;38646,240;37,68667
 808,49;14598,454;  217,247;38245,408;37,81726
 809,05;14554,933;  211,401;38158,192;37,79907
 809,62;14605,336;  239,016;38037,283;38,00788
 810,18;14560,277;  245,093;38080,836;37,83508
 810,74;14587,371;  206,093;37756,158;38,29894
 811,31;14509,158;  216,632;37561,327;38,27191
 811,87;14526,792;  218,632;37431,726;38,44926
 812,44;14556,502;  256,016;37464,125;38,43379
 813,00;14405,519;  188,478;37153,063;38,46125
 813,56;14497,999;  237,939;37204,385;38,57568
 814,13;14508,017;  233,785;37188,092;38,62671
 814,69;14432,650;  229,016;37082,491;38,54083
 815,25;14332,975;  202,170;36620,275;38,80159
 815,82;14307,916;  245,478;36517,981;38,76887
 816,38;14336,703;  250,862;36435,919;38,92723
 816,94;14209,567;  222,478;36113,241;38,97128
 817,51;14193,970;  205,786;35930,102;39,15592
 818,07;14152,987;  209,401;35732,655;39,25200
 818,63;14034,851;  230,632;35501,592;39,13763
 819,20;14073,484;  228,401;35439,915;39,31976
 819,76;13912,502;  205,401;35037,545;39,35187
 820,32;13933,135;  257,786;34969,790;39,39660
 820,89;13905,846;  243,709;34715,651;39,63263
 821,45;13733,248;  216,478;34476,742;39,45320
 822,01;13661,420;  245,478;34225,910;39,48137
 822,57;13701,361;  232,016;34047,925;39,83138
 823,14;13655,455;  202,709;33943,786;39,87053
 823,70;13531,704;  207,478;33684,416;39,80121
 824,26;13523,568;  216,786;33503,815;39,97588
 824,82;13535,970;  222,555;33390,214;40,13975
 825,39;13445,450;  207,093;33055,459;40,30141
 825,95;13523,006;  243,324;33157,397;40,34652
 826,51;13454,485;  237,170;32741,719;40,66297
 827,08;13462,349;  271,632;32869,426;40,46506
 827,64;13338,598;  246,863;32640,133;40,41498
 828,20;13271,462;  209,401;32367,763;40,61793
 828,76;13290,941;  231,247;32374,931;40,62911
 829,32;13306,651;  233,093;32209,484;40,88503
 829,89;13158,977;  208,478;32119,345;40,58335
 830,45;13243,917;  223,478;32096,667;40,85076
 831,01;13220,089;  215,709;31878,681;41,07126
 831,57;13163,338;  228,940;31849,927;40,90447
 832,14;13206,971;  213,247;31775,403;41,16868
 832,70;13170,142;  214,093;31590,494;41,29234
 833,26;13108,006;  180,555;31556,586;41,20168
 833,82;13126,024;  215,555;31468,600;41,30948
 834,38;13169,196;  202,017;31425,615;41,53006
 834,95;13148,675;  208,478;31300,168;41,61947
 835,51;13053,616;  183,478;31186,721;41,51223
 836,07;13098,403;  217,863;31286,889;41,45782
 836,63;13191,806;  237,094;31247,904;41,77483
 837,19;13123,900;  225,555;31169,457;41,68300
 837,75;13085,380;  184,863;30892,625;42,01061
 838,32;13112,859;  238,555;30922,024;41,95844
 838,88;13160,338;  235,401;31025,731;41,97726
 839,44;13129,433;  210,863;30902,130;42,09201
 840,00;13154,066;  213,555;30874,068;42,20579
 840,56;13072,161;  202,555;30617,159;42,31390
 841,12;13037,563;  200,863;30498,404;42,36879
 841,68;13059,427;  193,171;30361,727;42,64790
 842,25;13000,214;  203,094;30317,280;42,49532
 842,81;13038,540;  204,709;30157,679;42,84661
 843,37;12986,942;  198,940;30128,616;42,72683
 843,93;12986,575;  217,709;30065,631;42,77975
 844,49;13061,055;  217,632;30078,030;43,01156
 845,05;12976,611;  181,017;29989,814;42,92556
 845,61;13012,244;  221,324;30019,213;42,92559
 846,17;12975,954;  210,632;29852,766;43,06479
 846,73;13005,126;  216,248;29780,473;43,25795
 847,29;12901,144;  196,094;29625,180;43,17175
 847,86;12876,315;  195,940;29632,579;43,07685
 848,42;12871,718;  197,863;29445,055;43,33358
 848,98;12884,351;  211,709;29466,992;43,31745
 849,54;12841,753;  205,632;29404,392;43,27623
 850,10;12831,771;  209,632;29217,175;43,51330
 850,66;12779,481;  190,555;29161,190;43,45409
 851,22;12770,191;  200,940;29038,820;43,58591
 851,78;12835,901;  231,402;29025,834;43,77409
 852,34;12781,612;  216,709;28886,310;43,82657
 852,90;12692,937;  198,863;28795,940;43,69004
 853,46;12666,416;  191,094;28615,801;43,88901
 854,02;12689,280;  211,171;28607,277;43,94303
 854,58;12581,298;  207,786;28342,138;43,98009
 855,14;12548,778;  192,940;28224,460;44,07837
 855,70;12522,795;  168,402;28179,397;44,10551
 856,26;12588,967;  220,325;28090,181;44,38000
 856,82;12496,292;  195,094;27894,119;44,41022
 857,38;12499,233;  218,094;27830,749;44,47649
 857,94;12432,713;  216,402;27712,302;44,42957
 858,50;12393,423;  206,248;27584,162;44,51462
 859,06;12376,671;  196,325;27413,869;44,75182
 859,62;12411,612;  214,325;27445,115;44,79226
 860,18;12309,322;  209,017;27255,975;44,73814
 860,74;12283,648;  174,094;27075,451;45,01466
 861,30;12237,896;  182,709;26948,774;45,03907
 861,86;12357,453;  220,325;26929,788;45,44130
 862,42;12264,009;  206,863;26838,187;45,27430
 862,98;12319,796;  234,248;26816,202;45,46524
 863,54;12169,660;  211,017;26607,755;45,30349
 864,10;12181,601;  205,479;26677,154;45,24127
 864,66;12075,080;  191,094;26435,245;45,28242
 865,22;12067,790;  209,940;26314,721;45,42405
 865,78;12063,500;  204,479;26260,121;45,51422
 866,34;12026,441;  203,709;26237,212;45,41353
 866,90;12005,074;  223,094;26098,534;45,53345
 867,45;11991,323;  229,863;25859,241;45,89054
 868,01;11903,187;  203,710;25799,871;45,70794
 868,57;11894,820;  216,248;25535,732;46,12484
 869,13;11875,222;  191,248;25443,131;46,26972
 869,69;11799,163;  200,786;25428,145;45,97539
 870,25;11782,104;  199,017;25281,929;46,17920
 870,81;11806,814;  199,633;25314,559;46,21627
 871,37;11762,601;  207,633;25106,958;46,40675
 871,93;11776,004;  213,786;25059,203;46,53662
 872,49;11672,945;  218,633;24710,910;46,76703
 873,04;11628,424;  198,094;24620,463;46,80271
 873,60;11583,057;  191,633;24500,170;46,86183
 874,16;11590,383;  216,710;24490,877;46,85505
 874,72;11579,998;  214,940;24397,646;46,99663
 875,28;11552,921;  216,017;24393,569;46,89021
 875,84;11555,690;  211,633;24287,031;47,11888
 876,40;11571,537;  214,633;24244,031;47,26254
 876,95;11653,844;  214,710;24253,031;47,58708
 877,51;11574,998;  233,094;24252,646;47,21946
 878,07;11625,537;  242,248;24268,800;47,37795
 878,63;11678,229;  198,633;24325,338;47,58045
 879,19;11690,921;  225,171;24259,185;47,70635
 879,75;11649,767;  213,863;24315,877;47,44792
 880,30;11696,383;  202,633;24342,338;47,61346
 880,86;11813,537;  239,940;24542,877;47,62221
 881,42;11827,998;  198,171;24530,338;47,79610
 881,98;11924,998;  225,402;24587,185;48,02438
 882,54;11912,460;  203,248;24670,185;47,85728
 883,09;11981,383;  223,479;24794,185;47,85334
 883,65;12049,537;  199,479;24889,262;47,99580
 884,21;12164,152;  225,556;25072,800;48,04797
 884,77;12198,690;  205,171;25121,877;48,13445
 885,32;12300,075;  207,863;25254,877;48,27806
 885,88;12441,767;  228,325;25438,646;48,44620
 886,44;12489,537;  218,094;25521,031;48,49810
 887,00;12490,537;  222,863;25539,108;48,45771
 887,56;12620,767;  203,633;25738,492;48,62817
 888,11;12671,844;  208,017;25713,646;48,86697
 888,67;12759,767;  240,787;25874,185;48,83855
 889,23;12754,844;  218,094;25864,954;48,88220
 889,79;12720,152;  198,556;25870,031;48,77630
 890,34;12772,844;  199,787;25781,185;49,14922
 890,90;12863,229;  251,940;25876,877;49,21491
 891,46;12803,383;  204,556;25815,723;49,19271
 892,01;12840,921;  227,940;25795,185;49,33258
 892,57;12804,075;  243,863;25656,031;49,42598
 893,13;12609,460;  210,940;25448,723;49,12682
 893,69;12681,844;  208,325;25488,262;49,34158
 894,24;12644,383;  220,171;25362,646;49,41523
 894,80;12604,998;  224,248;25288,646;49,39576
 895,36;12533,306;  222,863;25049,800;49,58502
 895,91;12504,921;  215,325;24927,108;49,73173
 896,47;12455,613;  214,633;24837,646;49,71358
 897,03;12346,613;  210,633;24711,338;49,53319
 897,58;12321,075;  218,402;24565,723;49,70844
 898,14;12213,383;  226,325;24326,877;49,73769
 898,70;12178,767;  193,094;24235,262;49,85271
 899,25;12210,537;  215,325;24180,954;50,05173
 899,81;12203,690;  231,633;24065,185;50,23195
 900,37;12161,613;  192,248;23850,108;50,59361
 900,92;12134,229;  210,863;23841,492;50,45725
 901,48;12043,844;  213,402;23672,569;50,42993
 902,03;12004,998;  210,094;23469,262;50,71077
 902,59;12028,075;  215,017;23371,415;51,01423
 903,15;11908,921;  223,402;23337,877;50,55498
 903,70;11815,460;  220,171;23107,646;50,66216
 904,26;11809,075;  198,325;23010,415;50,89735
 904,82;11803,537;  222,094;22963,877;50,92583
 905,37;11798,152;  222,248;22839,262;51,18228
 905,93;11676,075;  199,479;22630,723;51,16344
 906,48;11741,613;  217,863;22631,646;51,41368
 907,04;11734,844;  229,633;22626,185;51,37046
 907,60;11623,690;  201,479;22360,877;51,54568
 908,15;11534,613;  188,556;22275,954;51,36892
 908,71;11565,613;  238,556;22240,646;51,48173
 909,26;11478,306;  186,556;22060,877;51,62103
 909,82;11458,075;  232,633;22001,185;51,56724
 910,37;11391,383;  243,556;21886,723;51,50737
 910,93;11319,306;  199,863;21749,723;51,59868
 911,48;11311,537;  193,710;21592,262;51,95598
 912,04;11296,690;  215,017;21567,954;51,89765
 912,60;11340,767;  208,402;21463,877;52,37411
 913,15;11273,152;  210,787;21344,954;52,34351
 913,71;11247,613;  211,787;21241,338;52,47771
 914,26;11224,383;  192,787;21165,108;52,60074
 914,82;11118,537;  207,402;21104,492;52,21365
 915,37;11055,460;  195,710;20969,262;52,27681
 915,93;11064,229;  225,633;20882,954;52,46855
 916,48;10965,844;  196,556;20764,800;52,35881
 917,04;10962,690;  221,940;20683,338;52,49275
 917,59;10995,844;  238,402;20578,800;52,88708
 918,15;10818,152;  186,556;20385,185;52,63524
 918,70;10817,075;  205,171;20309,415;52,78440
 919,26;10759,229;  209,402;20177,338;52,83384
 919,81;10699,229;  197,094;20088,108;52,79839
 920,37;10713,998;  199,633;20045,492;52,98015
 920,92;10649,306;  221,248;19921,185;52,93447
 921,48;10652,075;  190,940;19699,338;53,62375
 922,03;10658,460;  208,248;19717,185;53,56628
 922,59;10566,306;  201,633;19613,723;53,39287
 923,14;10586,613;  187,017;19494,185;53,86391
 923,69;10591,229;  217,094;19379,800;54,13711
 924,25;10581,383;  218,402;19368,569;54,11431
 924,80;10445,075;  208,710;19185,954;53,94021
 925,36;10449,229;  201,863;19153,569;54,07094
 925,91;10374,998;  207,556;19094,877;53,83210
 926,47;10353,075;  189,633;18967,646;54,12416
 927,02;10346,998;  216,940;18917,185;54,17072
 927,57;10258,383;  204,402;18711,108;54,32615
 928,13;10307,921;  199,017;18681,800;54,69362
 928,68;10240,767;  202,402;18613,338;54,52393
 929,24;10161,767;  172,556;18417,723;54,74990
 929,79;10133,537;  192,017;18326,569;54,82087
 930,34;10092,383;  211,556;18183,262;54,97991
 930,90;10036,921;  189,710;18191,262;54,70201
 931,45;10006,383;  219,017;18098,954;54,73937
 932,01; 9977,460;  227,940;18012,262;54,82087
 932,56; 9932,844;  226,787;17928,800;54,83025
 933,11; 9950,767;  231,556;17816,723;55,26937
 933,67; 9826,306;  196,325;17697,492;55,02479
 934,22; 9798,690;  207,556;17585,646;55,19096
 934,77; 9785,998;  234,863;17508,031;55,29463
 935,33; 9704,152;  215,940;17450,338;55,05392
 935,88; 9699,460;  215,633;17373,800;55,27296
 936,43; 9645,306;  197,863;17232,185;55,46122
 936,99; 9610,690;  211,094;17185,569;55,37489
 937,54; 9528,537;  190,325;16987,108;55,59524
 938,09; 9575,690;  210,402;16939,954;55,98051
 938,65; 9507,613;  213,094;16871,185;55,79583
 939,20; 9418,613;  193,094;16814,031;55,50541
 939,75; 9351,767;  185,940;16671,723;55,59837
 940,31; 9371,537;  189,402;16575,954;56,03457
 940,86; 9375,383;  198,402;16584,262;56,00549
 941,41; 9360,383;  236,171;16477,646;56,17847
 941,96; 9340,460;  197,325;16399,954;56,42995
 942,52; 9272,306;  197,171;16384,185;56,06429
 943,07; 9179,229;  185,171;16153,338;56,32492
 943,62; 9187,998;  188,248;16141,877;56,41193
 944,18; 9190,537;  189,940;16094,031;56,59296
 944,73; 9082,152;  197,863;15979,338;56,29568
 945,28; 9039,844;  168,248;15779,723;56,82741
 945,83; 9086,152;  207,171;15774,877;57,03461
 946,39; 9045,460;  193,710;15739,108;56,94129
 946,94; 9009,152;  222,710;15678,031;56,85060
 947,49; 8927,460;  191,325;15619,877;56,62317
 948,04; 8899,306;  204,094;15569,954;56,58786
 948,59; 8855,229;  210,556;15473,492;56,63833
 949,15; 8817,690;  182,402;15381,646;56,81393
 949,70; 8822,690;  189,171;15281,723;57,20384
 950,25; 8775,229;  207,325;15248,031;56,96477
 950,80; 8679,306;  171,710;15173,415;56,71086
 951,36; 8669,844;  166,787;15057,338;57,10371
 951,91; 8643,075;  214,017;14964,954;57,14253
 952,46; 8566,921;  165,402;14841,492;57,24630
 953,01; 8614,075;  221,325;14868,646;57,29887
 953,56; 8554,537;  194,248;14784,031;57,30235
 954,11; 8541,767;  207,479;14694,415;57,52968
 954,67; 8508,998;  194,325;14633,262;57,58508
 955,22; 8427,075;  182,094;14435,954;57,84385
 955,77; 8420,998;  214,479;14495,569;57,46423
 956,32; 8427,537;  228,171;14359,646;58,02201
 956,87; 8307,460;  187,017;14220,569;57,86448
 957,42; 8278,998;  190,940;14269,800;57,44824
 957,98; 8290,460;  192,325;14134,492;58,08376
 958,53; 8214,306;  210,479;14041,415;57,86902
 959,08; 8157,998;  180,171;14049,185;57,52267
 959,63; 8140,613;  194,325;13927,108;57,86364
 960,18; 8142,998;  212,094;13895,108;57,96168
 960,73; 8117,229;  209,094;13836,954;58,02918
 961,28; 8055,383;  174,787;13767,262;57,97764
 961,83; 8022,844;  218,171;13735,108;57,73996
 962,39; 7962,075;  181,402;13566,492;58,12940
 962,94; 7923,229;  214,402;13549,723;57,80758
 963,49; 7856,460;  200,710;13411,723;57,94976
 964,04; 7811,152;  214,402;13391,492;57,65119
 964,59; 7838,306;  181,863;13264,954;58,52166
 965,14; 7802,613;  204,710;13246,185;58,25954
 965,69; 7730,306;  198,556;13127,338;58,25568
 966,24; 7718,767;  192,710;13055,800;58,50894
 966,79; 7698,998;  206,248;12979,185;58,66114
 967,34; 7596,767;  180,325;12882,954;58,38510
 967,89; 7584,690;  191,171;12813,108;58,57674
 968,44; 7588,152;  201,094;12775,108;58,74861
 968,99; 7596,460;  201,710;12733,492;59,00797
 969,55; 7504,383;  215,556;12580,185;58,94902
 970,10; 7488,844;  210,017;12478,492;59,32952
 970,65; 7479,383;  209,787;12405,723;59,60671
 971,20; 7401,229;  201,402;12356,569;59,23264
 971,75; 7357,921;  183,710;12228,569;59,56243
 972,30; 7317,383;  195,017;12181,031;59,42230
 972,85; 7285,767;  185,094;12096,492;59,61242
 973,40; 7230,844;  186,940;11946,723;59,89825
 973,95; 7190,998;  200,556;11923,954;59,62812
 974,50; 7225,229;  212,479;11874,415;60,13367
 975,05; 7140,844;  212,402;11791,492;59,83581
 975,60; 7123,998;  212,863;11710,108;60,11123
 976,15; 7070,383;  203,017;11617,877;60,16163
 976,70; 7038,537;  211,633;11509,031;60,42899
 977,25; 7006,537;  215,556;11476,569;60,30524
 977,80; 6954,152;  194,171;11351,800;60,58618
 978,35; 6893,613;  202,556;11268,185;60,46704
 978,89; 6877,537;  186,787;11159,723;60,97502
 979,44; 6801,613;  198,863;11173,262;60,16503
 979,99; 6728,460;  187,556;10982,954;60,58974
 980,54; 6748,152;  229,633;10951,415;60,79697
 981,09; 6658,383;  221,248;10848,954;60,56937
 981,64; 6638,998;  207,325;10733,954;61,09908
 982,19; 6665,844;  238,633;10714,415;61,35304
 982,74; 6579,460;  221,633;10532,338;61,66238
 983,29; 6522,921;  179,710;10432,800;61,86634
 983,84; 6462,690;  208,017;10387,569;61,44350
 984,39; 6507,152;  229,248;10298,800;62,34541
 984,94; 6406,152;  184,633;10218,492;62,00524
 985,49; 6357,152;  221,248;10121,800;61,97537
 986,03; 6319,383;  226,325;10067,646;61,91301
 986,58; 6243,998;  235,863; 9971,415;61,71334
 987,13; 6177,460;  211,787; 9863,031;61,81248
 987,68; 6162,306;  224,017; 9761,492;62,26269
 988,23; 6172,306;  212,248; 9718,492;62,69624
 988,78; 6072,383;  207,402; 9598,569;62,45210
 989,33; 6004,460;  212,710; 9511,031;62,28813
 989,88; 5956,460;  226,863; 9447,569;62,13837
 990,42; 5907,306;  206,940; 9285,108;62,79203
 990,97; 5824,767;  214,479; 9250,492;62,08809
 991,52; 5839,998;  231,633; 9181,723;62,66267
 992,07; 5803,537;  231,171; 9049,800;63,18857
 992,62; 5719,613;  217,633; 8967,646;62,87968
 993,17; 5686,844;  229,940; 8882,877;63,06418
 993,71; 5639,844;  216,094; 8817,877;63,05379
 994,26; 5541,152;  200,402; 8673,877;63,02904
 994,81; 5564,690;  228,248; 8648,108;63,37923
 995,36; 5440,152;  200,710; 8540,646;62,82353
 995,91; 5453,229;  216,787; 8479,108;63,37738
 996,45; 5392,690;  215,940; 8368,569;63,49792
 997,00; 5303,152;  192,633; 8271,031;63,26154
 997,55; 5357,306;  210,787; 8188,492;64,51127
 998,10; 5270,460;  236,325; 8111,415;63,92479
 998,65; 5220,998;  206,479; 8051,338;63,92108
 999,19; 5155,613;  216,094; 7942,723;63,92852
 999,74; 5110,229;  237,556; 7846,723;64,03688
1000,29; 5077,460;  225,171; 7798,877;64,06756
1000,84; 4986,844;  213,171; 7684,877;63,89000
1001,38; 4964,383;  208,710; 7594,108;64,39291
1001,93; 4928,998;  231,402; 7561,031;64,09051
1002,48; 4852,383;  201,248; 7451,569;64,15074
1003,03; 4847,767;  217,325; 7389,569;64,56058
1003,57; 4798,537;  228,940; 7287,646;64,73703
1004,12; 4761,075;  220,556; 7173,877;65,30001
1004,67; 4707,690;  209,787; 7105,262;65,22979
1005,22; 4627,998;  192,633; 6965,108;65,49106
1005,76; 4538,537;  199,094; 6846,338;65,28182
1006,31; 4534,383;  236,325; 6824,185;65,24210
1006,86; 4456,690;  212,171; 6700,723;65,41551
1007,40; 4368,229;  194,171; 6583,185;65,33180
1007,95; 4367,383;  212,402; 6555,185;65,50722
1008,50; 4280,690;  209,863; 6415,185;65,60220
1009,04; 4259,844;  217,479; 6352,954;65,88513
1009,59; 4186,306;  216,017; 6204,569;66,29797
1010,14; 4141,075;  199,171; 6121,569;66,55925
1010,68; 4071,152;  210,940; 6027,954;66,36071
1011,23; 3978,844;  200,556; 5883,262;66,48749
1011,78; 4017,383;  227,863; 5858,338;67,30372
1012,32; 3907,613;  210,710; 5761,646;66,59964
1012,87; 3930,844;  233,094; 5755,338;66,96100
1013,42; 3829,306;  203,325; 5646,262;66,61810
1013,96; 3859,921;  235,479; 5649,800;66,94177
1014,51; 3760,690;  176,094; 5590,954;66,19924
1015,06; 3766,998;  182,171; 5596,031;66,21573
1015,60; 3824,690;  246,171; 5671,031;65,96520
1016,15; 3801,690;  205,787; 5603,185;66,62291
1016,69; 3827,844;  217,402; 5682,415;66,06466
1017,24; 3822,613;  186,017; 5626,800;66,83958
1017,79; 3938,921;  234,710; 5707,800;67,68044
1018,33; 3872,306;  183,171; 5716,723;66,66847
1018,88; 3957,844;  217,402; 5789,108;67,13280
1019,42; 3971,767;  202,017; 5776,185;67,62894
1019,97; 3943,998;  202,248; 5782,800;67,04982
1020,51; 3985,921;  217,710; 5820,723;67,25330
1021,06; 3975,537;  193,479; 5811,569;67,31927
1021,61; 3948,383;  183,479; 5788,262;67,17306
1022,15; 3931,844;  168,402; 5762,031;67,28087
1022,70; 3965,537;  199,171; 5764,954;67,67000
1023,24; 3947,229;  194,402; 5702,031;68,13870
1023,79; 3916,844;  199,940; 5682,108;67,79990
1024,33; 3878,998;  203,633; 5642,723;67,57316
1024,88; 3826,844;  205,325; 5540,338;67,88210
1025,42; 3742,306;  196,863; 5474,492;67,17870
1025,97; 3708,690;  200,171; 5363,646;67,94880
1026,51; 3639,613;  166,248; 5273,877;68,00348
1027,06; 3625,767;  201,017; 5223,723;68,18536
1027,60; 3577,921;  216,402; 5139,800;68,27641
1028,15; 3541,690;  211,248; 5039,108;68,98383
1028,69; 3462,460;  166,479; 4909,723;69,48790
1029,24; 3434,306;  198,633; 4886,646;69,02013
1029,78; 3392,844;  186,787; 4781,800;69,77254
1030,33; 3286,844;  176,402; 4689,492;68,92045
1030,87; 3298,383;  191,556; 4647,492;69,72332
1031,42; 3237,537;  190,556; 4555,262;69,80953
1031,96; 3199,767;  205,863; 4510,954;69,54334
1032,51; 3133,383;  190,787; 4436,646;69,30507
1033,05; 3152,613;  205,171; 4360,415;70,93307
1033,60; 3048,152;  172,479; 4252,954;70,47398
1034,14; 3045,383;  195,940; 4215,723;70,88548
1034,69; 3000,383;  193,556; 4193,800;70,16639
1035,23; 2949,690;  199,248; 4103,569;70,44611
1035,77; 2930,152;  190,017; 4048,338;71,01883
1036,32; 2836,921;  173,248; 4005,108;69,51385
1036,86; 2837,998;  191,710; 3916,877;71,03811
1037,41; 2814,767;  209,094; 3864,954;71,27388
1037,95; 2751,767;  177,633; 3809,338;70,87949
1038,50; 2739,152;  190,171; 3776,262;71,07966
1039,04; 2722,921;  200,479; 3748,569;71,09296
1039,58; 2681,613;  181,479; 3666,415;71,74118
1040,13; 2633,844;  195,940; 3587,954;71,87188
1040,67; 2652,767;  225,171; 3587,954;72,19010
1041,21; 2595,690;  216,556; 3548,800;71,39737
1041,76; 2507,537;  175,248; 3446,185;71,30338
1042,30; 2499,383;  192,710; 3406,954;71,76409
1042,85; 2465,537;  192,940; 3349,877;71,98739
1043,39; 2434,152;  175,325; 3274,185;72,89220
1043,93; 2424,844;  202,094; 3278,954;72,24086
1044,48; 2389,998;  204,787; 3208,492;72,75052
1045,02; 2356,998;  188,017; 3132,800;73,65504
1045,56; 2336,613;  208,017; 3120,723;73,07968
1046,11; 2310,229;  208,863; 3092,877;72,86254
1046,65; 2279,690;  207,325; 3036,415;73,25200
1047,19; 2224,690;  200,171; 2989,492;72,58107
1047,74; 2174,075;  180,863; 2941,800;72,19331
1048,28; 2180,613;  194,633; 2907,569;73,20410
1048,82; 2177,613;  212,787; 2890,338;73,38147
1049,37; 2127,767;  208,479; 2838,723;72,96997
1049,91; 2105,229;  185,633; 2769,262;74,29845
1050,45; 2068,152;  208,633; 2764,723;72,74857
1050,99; 2064,229;  192,325; 2703,877;74,53176
1051,54; 1997,921;  192,940; 2670,569;72,85114
1052,08; 2012,921;  216,402; 2652,262;73,75299
1052,62; 1972,537;  210,556; 2609,492;73,44841
1053,16; 1929,537;  187,402; 2544,031;73,92486
1053,71; 1906,844;  208,402; 2538,031;72,90613
1054,25; 1912,075;  218,940; 2499,723;74,23481
1054,79; 1891,613;  209,325; 2466,415;74,53350
1055,33; 1810,075;  184,248; 2416,569;72,83123
1055,88; 1836,767;  210,017; 2395,492;74,43462
1056,42; 1825,613;  220,940; 2374,723;74,50487
1056,96; 1776,767;  215,171; 2332,108;73,76679
1057,50; 1746,306;  200,402; 2295,415;73,78969
1058,05; 1728,613;  206,556; 2258,800;74,16552
1058,59; 1709,998;  223,017; 2225,262;74,26570
1059,13; 1672,152;  189,248; 2172,723;74,76292
1059,67; 1678,075;  214,171; 2183,646;74,32965
1060,21; 1628,690;  201,017; 2118,492;74,45589
1060,76; 1610,844;  220,325; 2108,492;73,64386
1061,30; 1599,921;  224,402; 2061,031;74,89370
1061,84; 1553,152;  206,094; 2030,569;73,83262
1062,38; 1511,690;  201,863; 1978,338;73,73180
1062,92; 1563,306;  236,787; 2015,877;74,56165
1063,46; 1522,460;  221,940; 1961,415;74,76504
1064,01; 1485,460;  204,402; 1923,031;74,53952
1064,55; 1466,844;  213,787; 1897,723;74,41241
1065,09; 1425,383;  183,556; 1862,800;73,95154
1065,63; 1459,537;  242,171; 1888,031;73,96532
1066,17; 1434,075;  227,479; 1859,877;73,91556
1066,71; 1426,767;  228,863; 1836,954;74,49232
1067,25; 1388,844;  203,402; 1785,877;74,91065
1067,80; 1388,613;  235,556; 1796,954;73,84777
1068,34; 1376,690;  231,017; 1771,646;74,36399
1068,88; 1351,844;  209,094; 1706,108;76,33532
1069,42; 1363,613;  233,171; 1734,338;75,30422
1069,96; 1322,921;  199,479; 1669,262;76,43595
1070,50; 1343,306;  235,248; 1685,108;76,42517
1071,04; 1287,921;  202,710; 1642,800;75,35718
1071,58; 1269,844;  206,556; 1625,262;74,94778
1072,12; 1250,767;  206,479; 1602,262;74,81741
1072,66; 1241,229;  200,787; 1598,338;74,44749
1073,21; 1241,767;  221,940; 1599,185;74,04837
1073,75; 1218,998;  217,556; 1565,723;74,28175
1074,29; 1217,383;  218,940; 1535,031;75,86427
1074,83; 1204,537;  236,556; 1532,031;74,72014
1075,37; 1205,075;  227,556; 1509,723;76,23960
1075,91; 1193,690;  232,710; 1501,415;75,74497
1076,45; 1153,152;  220,710; 1479,646;74,06587
1076,99; 1146,229;  225,940; 1447,646;75,32816
1077,53; 1132,306;  200,402; 1411,415;76,95239
1078,07; 1135,767;  219,402; 1391,800;78,16162
1078,61; 1107,921;  215,633; 1400,877;75,28309
1079,15; 1092,767;  216,940; 1371,185;75,87882
1079,69; 1094,460;  219,325; 1373,031;75,85423
1080,23; 1072,152;  236,479; 1359,108;74,43895
1080,77; 1093,690;  232,787; 1342,338;77,59023
1081,31; 1037,844;  198,863; 1303,800;75,93022
1081,85; 1053,229;  216,017; 1321,877;75,70686
1082,39; 1033,537;  215,863; 1273,569;77,30629
1082,93; 1016,998;  213,556; 1279,954;75,34169
1083,47;  988,844;  204,940; 1246,415;75,26862
1084,01;  997,075;  237,556; 1255,569;74,60798
1084,55;  992,613;  210,402; 1200,723;78,98564
1085,09;  990,767;  232,325; 1224,492;76,44299
1085,63;  985,690;  213,248; 1193,569;78,79482
1086,17;  957,460;  212,787; 1190,185;76,18933
1086,71;  954,229;  210,633; 1162,185;78,14562
1087,24;  963,998;  239,402; 1178,723;77,14041
1087,78;  947,613;  223,633; 1150,338;78,12412
1088,32;  913,767;  197,710; 1108,646;78,60676
1088,86;  937,844;  247,171; 1161,108;75,57123
1089,40;  907,613;  213,248; 1121,185;76,47730
1089,94;  871,460;  193,325; 1063,185;77,95909
1090,48;  886,998;  221,556; 1081,492;77,38272
1091,02;  892,844;  222,402; 1069,569;79,13930
1091,56;  874,767;  229,325; 1079,185;75,94693
1092,10;  856,921;  202,710; 1040,492;78,08845
1092,63;  866,075;  237,248; 1062,492;76,19889
1093,17;  866,075;  237,402; 1025,954;79,72501
1093,71;  832,383;  213,402;  997,800;78,91156
1094,25;  847,152;  235,710; 1043,954;75,65069
1094,79;  817,844;  210,710;  975,800;79,35463
1095,33;  815,844;  210,787;  963,262;80,40901
1095,87;  800,844;  212,325;  957,492;78,97813
1096,40;  776,152;  211,479;  936,415;77,89276
1096,94;  783,229;  211,248;  949,877;77,43818
1097,48;  770,537;  225,710;  939,954;76,28020
1098,02;  767,383;  220,710;  931,723;76,88646
1098,56;  736,306;  183,094;  887,646;78,51963
1099,10;  740,075;  197,556;  894,185;77,87780
1099,63;  723,152;  195,325;  889,185;76,07114
1100,17;  748,998;  213,710;  890,569;79,08412
1100,71;  763,306;  221,171;  887,723;81,33419

