
Integration time [ms]: 120,000
Averaging Nr. [scans]: 13
Smoothing Nr. [pixels]: 0
Data measured with spectrometer [name]: 2009305U1
Wave   ;Sample   ;Dark     ;Reference;Reflectance
[nm]   ;[counts] ;[counts] ;[counts] ;[%]

 175,72;  209,602;  201,729;  206,872;153,07616
 176,32;  231,353;  218,186;  213,932; 0,00000
 176,92;  246,180;  251,189;  249,591; 0,00000
 177,52;  251,044;  249,113;  256,862;24,91992
 178,12;  234,422;  238,725;  218,250; 0,00000
 178,72;  257,896;  262,954;  247,860; 0,00000
 179,32;  250,256;  250,340;  247,043; 0,00000
 179,92;  256,816;  250,342;  243,729; 0,00000
 180,52;  245,512;  238,347;  240,736;299,89768
 181,12;  254,298;  258,034;  250,818; 0,00000
 181,73;  273,959;  272,650;  268,353; 0,00000
 182,33;  362,344;  341,884;  351,655;209,39230
 182,93;  265,655;  275,575;  267,614; 0,00000
 183,53;  236,716;  239,569;  226,246; 0,00000
 184,13;  243,451;  234,262;  230,039; 0,00000
 184,73;  283,908;  277,568;  272,393; 0,00000
 185,33;  263,087;  232,615;  345,677;26,95094
 185,93;  271,214;  245,073;  348,991;25,15545
 186,53;  280,908;  251,383;  367,173;25,49869
 187,13;  308,566;  271,464;  401,161;28,60709
 187,73;  265,495;  239,766;  346,389;24,13069
 188,33;  280,490;  238,149;  355,651;36,03398
 188,93;  287,792;  255,681;  354,167;32,60436
 189,53;  290,167;  258,060;  373,340;27,85090
 190,13;  311,817;  290,822;  407,960;17,92341
 190,73;  261,589;  217,519;  341,075;35,66784
 191,34;  298,410;  266,833;  379,465;28,03580
 191,94;  277,225;  235,608;  351,373;35,94906
 192,54;  287,894;  251,390;  369,660;30,86521
 193,14;  300,525;  263,925;  377,413;32,24984
 193,74;  296,349;  263,078;  378,201;28,90008
 194,34;  283,309;  260,310;  380,482;19,13775
 194,94;  256,597;  223,386;  339,780;28,53336
 195,54;  219,366;  203,693;  312,414;14,41657
 196,14;  252,052;  220,157;  353,619;23,89782
 196,74;  245,967;  214,922;  338,653;25,09070
 197,34;  241,427;  196,698;  319,609;36,39114
 197,94;  249,227;  237,079;  365,572; 9,45364
 198,54;  269,339;  247,080;  380,114;16,73161
 199,14;  253,256;  210,546;  368,519;27,03650
 199,74;  234,030;  207,392;  366,691;16,72188
 200,34;  238,136;  197,469;  355,354;25,75739
 200,94;  263,891;  228,390;  407,380;19,83386
 201,54;  262,121;  222,622;  409,009;21,19192
 202,14;  290,641;  243,778;  440,040;23,87789
 202,74;  265,960;  221,853;  441,142;20,11370
 203,34;  247,605;  198,087;  459,415;18,94854
 203,94;  227,124;  171,394;  466,821;18,86425
 204,54;  300,341;  242,156;  543,763;19,29142
 205,14;  255,544;  198,315;  561,400;15,76182
 205,74;  320,520;  232,933;  638,687;21,58609
 206,34;  280,155;  204,470;  636,056;17,53646
 206,94;  303,814;  218,547;  688,144;18,15743
 207,54;  279,470;  174,778;  718,661;19,24910
 208,14;  309,403;  205,317;  793,743;17,68892
 208,74;  311,397;  214,161;  871,081;14,80187
 209,34;  316,925;  198,623;  933,736;16,09305
 209,94;  347,050;  210,315; 1008,119;17,13893
 210,54;  353,919;  210,240; 1112,466;15,92486
 211,14;  375,426;  213,392; 1206,006;16,32400
 211,73;  402,391;  204,314; 1298,510;18,10255
 212,33;  414,886;  225,698; 1403,055;16,06894
 212,93;  418,697;  204,468; 1488,353;16,68593
 213,53;  406,248;  178,853; 1530,484;16,82372
 214,13;  429,702;  193,089; 1619,086;16,59282
 214,73;  430,257;  189,855; 1644,501;16,52646
 215,33;  429,358;  170,469; 1671,042;17,25267
 215,93;  493,471;  199,010; 1779,950;18,62566
 216,53;  466,976;  175,314; 1843,429;17,48448
 217,13;  533,441;  219,164; 2025,749;17,39622
 217,73;  556,787;  195,703; 2217,986;17,85528
 218,33;  555,076;  149,166; 2386,125;18,14559
 218,93;  655,382;  177,401; 2679,163;19,10577
 219,53;  705,695;  199,705; 2920,374;18,59802
 220,13;  742,936;  159,475; 3206,578;19,14807
 220,73;  812,289;  187,392; 3517,693;18,76399
 221,32;  884,474;  188,392; 3874,081;18,88609
 221,92;  974,903;  202,551; 4264,174;19,01585
 222,52; 1047,164;  174,934; 4661,073;19,44278
 223,12; 1114,484;  181,165; 5075,819;19,06814
 223,72; 1209,104;  195,319; 5442,991;19,31877
 224,32; 1265,927;  192,626; 5845,976;18,98521
 224,92; 1317,578;  189,088; 6108,737;19,06347
 225,52; 1393,433;  203,008; 6452,854;19,04727
 226,12; 1445,801;  185,856; 6698,534;19,34604
 226,72; 1439,420;  158,702; 7028,198;18,64355
 227,31; 1519,918;  155,240; 7354,420;18,95601
 227,91; 1587,392;  192,316; 7785,953;18,37164
 228,51; 1624,681;  178,083; 8109,623;18,23856
 229,11; 1712,043;  184,394; 8495,572;18,38065
 229,71; 1740,113;  186,699; 8716,250;18,21215
 230,31; 1798,742;  179,473; 9075,403;18,20236
 230,91; 1812,593;  166,235; 9391,911;17,84539
 231,51; 1855,054;  172,318; 9652,900;17,74929
 232,10; 1906,501;  171,474; 9976,672;17,69497
 232,70; 1931,462;  186,926;10145,097;17,51864
 233,30; 1968,073;  202,625;10365,435;17,37165
 233,90; 1973,033;  176,164;10513,657;17,38206
 234,50; 1965,034;  175,780;10561,473;17,22807
 235,10; 1956,040;  173,857;10664,121;16,98892
 235,70; 1963,213;  198,008;10648,200;16,89161
 236,29; 1931,138;  191,392;10629,618;16,66707
 236,89; 1852,667;  159,543;10478,016;16,40866
 237,49; 1862,319;  194,625;10431,184;16,29155
 238,09; 1818,617;  184,547;10154,902;16,38928
 238,69; 1784,364;  225,388; 9983,329;15,97648
 239,29; 1669,134;  176,470; 9652,505;15,75199
 239,89; 1625,707;  195,466; 9366,333;15,59548
 240,48; 1560,038;  177,163; 8974,124;15,71992
 241,08; 1514,235;  181,701; 8634,289;15,76480
 241,68; 1461,799;  192,009; 8356,134;15,55329
 242,28; 1395,312;  174,394; 8035,117;15,53187
 242,88; 1395,860;  219,166; 7828,258;15,46432
 243,48; 1371,392;  211,086; 7510,243;15,89643
 244,07; 1317,890;  192,316; 7275,406;15,89100
 244,67; 1334,181;  193,163; 7151,240;16,39846
 245,27; 1334,084;  196,314; 6989,894;16,74772
 245,87; 1369,685;  220,242; 6894,092;17,22308
 246,47; 1348,124;  191,545; 6923,749;17,17980
 247,06; 1400,806;  182,239; 6907,078;18,12039
 247,66; 1448,055;  174,855; 6941,503;18,81581
 248,26; 1495,279;  213,237; 7050,026;18,75210
 248,86; 1585,825;  202,776; 7247,862;19,63140
 249,46; 1664,281;  155,010; 7422,575;20,76721
 250,05; 1793,414;  205,393; 7732,627;21,09700
 250,65; 1873,524;  169,391; 8052,190;21,61838
 251,25; 2029,400;  188,700; 8492,681;22,16647
 251,85; 2206,339;  186,159; 8978,281;22,97716
 252,44; 2385,357;  152,930; 9520,688;23,83096
 253,04; 2644,905;  201,854;10265,000;24,27721
 253,64; 2875,944;  154,236;10900,597;25,32679
 254,24; 3148,333;  204,009;11741,224;25,52023
 254,84; 3428,434;  179,779;12519,882;26,32600
 255,43; 3750,693;  179,700;13422,613;26,96532
 256,03; 4070,880;  185,775;14398,265;27,33585
 256,63; 4424,011;  193,389;15343,007;27,92560
 257,23; 4713,732;  169,928;16095,163;28,53210
 257,82; 5051,148;  188,465;17044,616;28,84812
 258,42; 5341,421;  147,079;17784,581;29,45055
 259,02; 5729,419;  201,469;18712,709;29,86267
 259,62; 5920,735;  169,002;19302,986;30,06030
 260,21; 6168,300;  188,699;19810,500;30,47427
 260,81; 6352,023;  190,009;20287,806;30,66015
 261,41; 6588,167;  163,388;20645,074;31,36841
 262,01; 6744,673;  203,617;21237,688;31,09743
 262,60; 6855,501;  169,697;21451,470;31,41563
 263,20; 7042,521;  173,852;21765,449;31,81177
 263,80; 7160,263;  201,232;21997,474;31,92767
 264,40; 7273,001;  169,386;22117,392;32,36565
 264,99; 7341,481;  187,385;22332,574;32,30542
 265,59; 7397,066;  175,691;22368,883;32,53870
 266,19; 7435,268;  172,078;22546,184;32,46248
 266,78; 7515,474;  213,000;22692,956;32,48438
 267,38; 7489,982;  193,076;22721,709;32,38948
 267,98; 7483,945;  182,692;22678,223;32,45646
 268,58; 7494,711;  189,460;22711,392;32,43616
 269,17; 7467,463;  184,074;22772,031;32,24457
 269,77; 7430,244;  184,850;22568,779;32,36873
 270,37; 7323,534;  160,385;22470,206;32,10760
 270,96; 7347,435;  220,080;22415,265;32,11217
 271,56; 7179,432;  181,851;22134,075;31,87641
 272,16; 7076,790;  182,618;21964,063;31,65158
 272,75; 7034,742;  187,926;21924,911;31,49846
 273,35; 6947,930;  192,850;21843,823;31,19989
 273,95; 6956,900;  180,849;21764,698;31,39408
 274,54; 6883,543;  161,470;21761,566;31,12057
 275,14; 6951,687;  200,773;22189,200;30,70213
 275,74; 6857,621;  154,926;22167,808;30,44896
 276,33; 7010,260;  205,850;22504,881;30,51437
 276,93; 7001,536;  188,855;22848,853;30,06479
 277,53; 7135,757;  195,238;23368,098;29,95107
 278,12; 7242,538;  178,775;23806,277;29,89636
 278,72; 7411,648;  219,238;24373,847;29,77655
 279,32; 7477,768;  186,391;24798,059;29,62569
 279,91; 7626,621;  159,468;25562,541;29,39469
 280,51; 7803,900;  188,469;25967,321;29,54139
 281,11; 7986,811;  180,006;26630,763;29,51449
 281,70; 8096,333;  167,698;27049,153;29,49481
 282,30; 8240,893;  171,312;27551,998;29,47180
 282,90; 8384,601;  173,851;27939,485;29,57163
 283,49; 8540,780;  198,311;28439,687;29,53988
 284,09; 8680,976;  201,390;28910,339;29,53639
 284,69; 8794,088;  211,314;29098,297;29,71156
 285,28; 8905,818;  197,159;29476,937;29,74291
 285,88; 9064,191;  245,541;29721,166;29,91845
 286,47; 9020,751;  186,235;29759,467;29,87335
 287,07; 9165,149;  209,930;29811,041;30,25298
 287,67; 9305,777;  202,163;29911,397;30,64237
 288,26; 9350,950;  176,853;29846,860;30,92044
 288,86; 9486,883;  181,159;29866,006;31,34840
 289,46; 9610,860;  192,698;30055,269;31,53835
 290,05; 9757,704;  175,470;30059,663;32,06456
 290,65; 9948,965;  193,235;30239,781;32,46872
 291,24;10109,817;  191,699;30304,873;32,93614
 291,84;10257,549;  211,466;30425,700;33,24950
 292,44;10447,409;  188,702;30600,545;33,73261
 293,03;10649,874;  261,776;30732,753;34,09178
 293,63;10728,176;  177,235;30773,553;34,48435
 294,22;10879,678;  198,544;30973,729;34,70697
 294,82;10901,297;  183,617;30975,077;34,80731
 295,41;10863,948;  170,390;30638,076;35,09803
 296,01;10915,405;  216,464;30605,787;35,20625
 296,61;10844,101;  210,622;30362,350;35,26656
 297,20;10666,284;  199,157;30000,191;35,12337
 297,80;10623,215;  201,316;29818,216;35,18903
 298,39;10489,492;  183,313;29490,512;35,16604
 298,99;10414,399;  194,619;29344,735;35,05914
 299,58;10258,792;  204,009;29207,145;34,66792
 300,18;10150,502;  198,624;28990,588;34,56478
 300,78; 9943,888;  178,007;28703,929;34,23511
 301,37; 9871,784;  194,462;28642,972;34,01697
 301,97; 9848,128;  192,929;28648,490;33,93080
 302,56; 9692,759;  193,158;28653,764;33,37807
 303,16; 9582,283;  170,004;28481,819;33,24506
 303,75; 9486,698;  189,315;28525,061;32,81150
 304,35; 9465,383;  181,472;28720,066;32,53107
 304,94; 9359,193;  181,699;28731,637;32,14541
 305,54; 9283,090;  218,546;28672,081;31,85736
 306,13; 9121,642;  161,934;28573,068;31,53591
 306,73; 9021,117;  158,548;28317,031;31,47389
 307,33; 8873,497;  204,317;28321,045;30,83282
 307,92; 8822,915;  193,084;28380,531;30,61587
 308,52; 8868,332;  170,696;28741,356;30,44254
 309,11; 8921,121;  178,541;29205,878;30,11844
 309,71; 8836,154;  171,617;29443,116;29,60059
 310,30; 8817,117;  172,776;29648,606;29,32688
 310,90; 8845,271;  208,853;29955,991;29,03277
 311,49; 8760,970;  185,314;30028,673;28,73556
 312,09; 8659,158;  161,008;30225,597;28,26631
 312,68; 8790,325;  231,930;30664,330;28,12264
 313,28; 8629,838;  167,314;30631,838;27,77829
 313,87; 8549,877;  154,776;30809,032;27,38641
 314,47; 8595,689;  172,157;30963,772;27,35658
 315,06; 8487,555;  159,391;31159,668;26,86480
 315,66; 8482,927;  174,547;31275,674;26,71408
 316,25; 8260,891;  156,620;31163,214;26,13725
 316,85; 8213,644;  151,778;31200,812;25,96495
 317,44; 8172,170;  179,387;31341,615;25,64895
 318,04; 8086,181;  164,466;31348,802;25,40286
 318,63; 7991,830;  162,471;31389,074;25,07272
 319,22; 7937,017;  188,158;31575,797;24,68761
 319,82; 7825,235;  185,621;31708,679;24,23500
 320,41; 7711,815;  187,158;31426,645;24,08701
 321,01; 7669,622;  197,008;31533,415;23,84643
 321,60; 7589,838;  189,390;31561,672;23,58913
 322,20; 7487,518;  169,315;31579,831;23,29858
 322,79; 7440,498;  204,391;31614,250;23,03769
 323,39; 7310,751;  181,472;31629,533;22,67001
 323,98; 7264,320;  168,930;31550,158;22,61030
 324,58; 7165,121;  170,619;31501,168;22,32486
 325,17; 7131,823;  174,543;31304,557;22,34911
 325,76; 7015,217;  206,776;31146,621;22,00542
 326,36; 6846,177;  171,239;30813,671;21,78332
 326,95; 6780,175;  200,390;30497,135;21,71779
 327,55; 6632,113;  163,774;30140,191;21,57809
 328,14; 6540,479;  168,855;29824,158;21,48561
 328,74; 6396,831;  199,004;29444,362;21,19252
 329,33; 6327,748;  198,931;29099,182;21,20679
 329,92; 6147,801;  163,464;28602,332;21,04281
 330,52; 5991,682;  184,240;28056,741;20,83574
 331,11; 5937,012;  173,390;27658,869;20,96970
 331,71; 5752,775;  179,929;27078,464;20,71803
 332,30; 5676,731;  201,083;26683,099;20,67686
 332,89; 5607,755;  237,161;26152,787;20,72338
 333,49; 5435,580;  187,159;25730,178;20,54738
 334,08; 5357,939;  176,851;25392,148;20,54740
 334,68; 5278,538;  185,928;24979,661;20,53991
 335,27; 5216,938;  201,086;24699,617;20,47409
 335,86; 5221,243;  229,544;24407,330;20,64581
 336,46; 5114,157;  201,625;24132,917;20,52765
 337,05; 5080,356;  178,698;23990,860;20,58469
 337,65; 5037,020;  166,851;23853,243;20,56104
 338,24; 5122,106;  226,161;23820,953;20,75011
 338,83; 5055,074;  209,546;23747,210;20,58627
 339,43; 5042,572;  166,158;23655,207;20,76037
 340,02; 5078,247;  179,542;23628,981;20,89050
 340,61; 5085,842;  175,622;23638,933;20,92722
 341,21; 5132,524;  213,312;23703,977;20,94113
 341,80; 5175,283;  189,082;23583,139;21,31396
 342,40; 5219,573;  191,932;23701,383;21,38562
 342,99; 5275,986;  184,623;23787,787;21,57068
 343,58; 5318,748;  187,392;23957,336;21,58758
 344,18; 5366,550;  197,239;24025,125;21,69438
 344,77; 5489,032;  175,542;24256,853;22,06479
 345,36; 5530,944;  158,083;24541,058;22,03530
 345,96; 5699,480;  208,239;24819,807;22,31163
 346,55; 5780,893;  181,703;25003,141;22,55788
 347,14; 5891,018;  169,778;25317,973;22,75010
 347,74; 6030,049;  150,628;25676,600;23,03309
 348,33; 6201,238;  178,089;26274,468;23,08040
 348,92; 6416,874;  197,629;26750,416;23,42219
 349,52; 6539,791;  164,167;27227,383;23,55826
 350,11; 6673,692;  175,773;27467,218;23,80936
 350,70; 6752,550;  181,622;27518,189;24,03714
 351,29; 6774,588;  167,461;27205,563;24,43636
 351,89; 6831,408;  187,156;27278,374;24,52548
 352,48; 6906,643;  152,237;27344,522;24,83942
 353,07; 6970,598;  183,548;27195,951;25,12568
 353,67; 7015,158;  191,630;27196,094;25,26815
 354,26; 7014,423;  177,778;27049,324;25,44195
 354,85; 7068,166;  190,931;26835,017;25,81149
 355,45; 7098,979;  168,313;26713,111;26,10932
 356,04; 7183,093;  182,548;26689,894;26,40983
 356,63; 7220,163;  218,467;26476,589;26,66488
 357,22; 7224,473;  191,924;26303,231;26,93297
 357,82; 7260,714;  184,463;26171,051;27,23040
 358,41; 7320,747;  207,160;26032,662;27,54482
 359,00; 7357,900;  173,004;25832,557;28,00086
 359,60; 7366,009;  187,238;25782,294;28,04749
 360,19; 7399,745;  193,548;25704,162;28,24784
 360,78; 7443,826;  191,313;25485,157;28,67303
 361,37; 7512,907;  177,159;25361,021;29,12876
 361,97; 7533,350;  191,852;25288,609;29,25277
 362,56; 7532,975;  171,388;24946,234;29,71396
 363,15; 7595,181;  217,544;24762,617;30,05751
 363,74; 7548,637;  192,157;24476,679;30,29287
 364,34; 7540,644;  205,773;24153,881;30,62819
 364,93; 7444,209;  177,696;23823,975;30,73005
 365,52; 7398,628;  154,467;23477,638;31,05993
 366,11; 7427,689;  187,774;23182,062;31,48571
 366,71; 7359,940;  191,389;22803,643;31,70206
 367,30; 7351,288;  188,467;22570,511;32,00253
 367,89; 7360,526;  227,393;22379,572;32,20059
 368,48; 7347,491;  202,234;22074,561;32,66803
 369,07; 7267,781;  189,391;21656,189;32,97366
 369,67; 7230,241;  210,926;21477,410;33,00647
 370,26; 7186,020;  175,468;21171,532;33,38984
 370,85; 7186,761;  182,082;20922,749;33,77268
 371,44; 7187,459;  188,237;20753,120;34,03483
 372,03; 7175,819;  163,235;20556,770;34,38631
 372,63; 7163,199;  158,775;20244,119;34,87331
 373,22; 7071,866;  175,930;20036,179;34,72230
 373,81; 7081,510;  159,236;19782,321;35,27618
 374,40; 7052,499;  173,778;19460,047;35,66642
 374,99; 7041,388;  176,467;19282,864;35,92996
 375,59; 6965,235;  172,085;19059,643;35,96627
 376,18; 7037,263;  201,005;18980,250;36,40326
 376,77; 7025,549;  196,006;18709,635;36,88927
 377,36; 7057,239;  208,390;18763,235;36,91138
 377,95; 6982,949;  191,543;18407,371;37,28299
 378,55; 6988,469;  172,931;18324,569;37,54778
 379,14; 6999,603;  186,159;18193,346;37,83736
 379,73; 6994,650;  190,005;18150,868;37,88596
 380,32; 7124,216;  184,775;18138,729;38,65133
 380,91; 7120,868;  157,311;18041,879;38,93612
 381,50; 7135,056;  201,158;18028,560;38,89461
 382,10; 7139,139;  168,621;17937,882;39,22796
 382,69; 7191,235;  168,621;17884,833;39,63948
 383,28; 7249,575;  202,466;17890,255;39,84166
 383,87; 7254,842;  176,542;17716,016;40,35640
 384,46; 7216,974;  170,540;17679,514;40,24470
 385,05; 7295,113;  208,696;17677,748;40,56555
 385,64; 7316,459;  192,235;17644,677;40,82078
 386,24; 7370,888;  163,386;17642,555;41,23481
 386,83; 7458,964;  199,540;17686,201;41,51407
 387,42; 7512,236;  196,851;17786,251;41,58974
 388,01; 7627,728;  194,076;17924,233;41,92660
 388,60; 7736,898;  191,925;18158,714;41,99400
 389,19; 7879,972;  177,997;18305,830;42,48701
 389,78; 8012,241;  179,228;18564,528;42,60476
 390,37; 8244,841;  240,000;18893,698;42,91289
 390,96; 8319,054;  189,001;18997,024;43,22651
 391,56; 8407,860;  194,919;19208,103;43,19603
 392,15; 8526,578;  184,690;19430,345;43,34427
 392,74; 8577,453;  159,069;19627,742;43,24067
 393,33; 8802,511;  183,688;19819,125;43,89423
 393,92; 9000,979;  193,298;20196,938;44,03039
 394,51; 9100,753;  169,303;20392,440;44,16452
 395,10; 9258,106;  207,062;20651,962;44,27043
 395,69; 9370,963;  202,678;20752,398;44,61513
 396,28; 9415,372;  208,983;20771,541;44,77259
 396,87; 9522,104;  208,363;20898,450;45,01548
 397,46; 9635,318;  215,129;20943,923;45,44495
 398,06; 9699,445;  223,279;21139,960;45,30435
 398,65; 9753,238;  204,578;21271,406;45,32557
 399,24; 9827,459;  225,422;21394,542;45,35870
 399,83; 9866,660;  198,331;21390,949;45,62121
 400,42; 9997,954;  254,088;21553,748;45,74658
 401,01;10038,498;  213,074;21665,870;45,80020
 401,60;10119,280;  228,285;21657,881;46,15577
 402,19;10164,837;  249,039;21683,120;46,26183
 402,78;10145,412;  253,477;21718,293;46,08441
 403,37;10117,541;  237,763;21500,734;46,46471
 403,96;10103,594;  234,660;21369,983;46,69403
 404,55;10105,712;  263,323;21325,723;46,72967
 405,14;10033,114;  239,527;21175,396;46,77898
 405,73;10037,296;  256,881;21100,947;46,92182
 406,32;10001,934;  257,091;21055,753;46,85322
 406,91; 9943,994;  238,759;20761,509;47,29013
 407,50; 9924,401;  263,593;20641,761;47,40764
 408,09; 9802,660;  237,815;20373,194;47,50269
 408,68; 9809,016;  246,270;20291,234;47,70648
 409,27; 9726,981;  245,355;20085,614;47,78983
 409,86; 9746,980;  256,989;20002,333;48,06192
 410,45; 9783,149;  288,928;19955,774;48,27526
 411,04; 9719,303;  289,559;19904,468;48,07437
 411,63; 9598,215;  273,350;19624,100;48,18865
 412,22; 9510,681;  280,523;19482,421;48,06899
 412,81; 9435,104;  293,145;19202,463;48,34632
 413,40; 9316,743;  298,077;18947,508;48,35894
 413,99; 9209,659;  328,535;18631,139;48,52383
 414,58; 9031,898;  271,614;18284,849;48,63249
 415,17; 8939,954;  279,991;18101,481;48,59281
 415,76; 8837,869;  256,368;17999,166;48,36611
 416,35; 8788,021;  258,680;17838,897;48,51670
 416,94; 8820,623;  295,139;17844,585;48,57979
 417,53; 8918,393;  266,761;18068,435;48,60010
 418,12; 8976,094;  261,609;18120,991;48,79500
 418,71; 9146,643;  299,923;18412,108;48,84402
 419,30; 9221,424;  278,225;18537,049;48,98015
 419,89; 9361,497;  270,303;18741,244;49,21890
 420,48; 9447,975;  290,231;18964,708;49,03882
 421,07; 9540,910;  282,078;19006,851;49,44696
 421,66; 9538,634;  257,159;19023,831;49,45722
 422,25; 9533,759;  270,782;19022,155;49,39893
 422,84; 9554,432;  301,245;19019,094;49,43510
 423,43; 9436,330;  279,781;18735,300;49,61415
 424,02; 9382,111;  302,397;18536,212;49,79602
 424,60; 9159,237;  262,406;18159,979;49,70971
 425,19; 9077,050;  274,402;17884,214;49,98718
 425,78; 9041,849;  288,248;17869,031;49,79073
 426,37; 8991,720;  290,329;17674,825;50,05260
 426,96; 8984,571;  276,406;17574,765;50,34099
 427,55; 8862,957;  262,565;17458,296;50,01470
 428,14; 8761,344;  276,951;17277,370;49,90696
 428,73; 8726,490;  281,178;17176,404;49,98638
 429,32; 8770,055;  289,944;17161,119;50,26391
 429,91; 8751,236;  302,947;17156,620;50,12729
 430,50; 8669,377;  287,873;16968,792;50,24606
 431,08; 8620,323;  301,183;16859,955;50,24008
 431,67; 8593,549;  337,494;16810,809;50,11775
 432,26; 8518,899;  350,957;16658,199;50,08782
 432,85; 8380,201;  376,957;16259,013;50,39174
 433,44; 8228,469;  372,883;15957,398;50,40636
 434,03; 8068,235;  388,580;15678,711;50,22622
 434,62; 7849,389;  356,807;15263,888;50,26190
 435,21; 7796,457;  369,419;15092,581;50,44459
 435,79; 7665,360;  378,809;14993,266;49,85851
 436,38; 7672,061;  360,429;14891,432;50,31746
 436,97; 7637,196;  363,276;14828,789;50,28457
 437,56; 7544,191;  357,591;14579,542;50,53175
 438,15; 7489,814;  330,897;14590,165;50,20536
 438,74; 7525,087;  347,051;14560,189;50,50282
 439,33; 7481,011;  329,127;14514,915;50,41584
 439,91; 7499,834;  288,284;14558,280;50,53645
 440,50; 7576,584;  339,669;14649,975;50,57135
 441,09; 7569,550;  341,211;14755,578;50,14676
 441,68; 7627,852;  323,215;14746,260;50,64560
 442,27; 7592,653;  313,368;14780,559;50,31582
 442,86; 7506,139;  285,530;14782,373;49,80814
 443,44; 7608,187;  302,067;14802,621;50,38511
 444,03; 7660,188;  356,300;14838,956;50,43196
 444,62; 7543,629;  306,069;14699,606;50,28340
 445,21; 7445,412;  315,068;14587,723;49,95807
 445,80; 7471,141;  345,919;14524,583;50,25313
 446,39; 7349,111;  356,302;14305,874;50,12920
 446,97; 7208,627;  292,385;14107,313;50,06355
 447,56; 7088,177;  312,927;13923,327;49,77994
 448,15; 7012,141;  304,846;13730,790;49,95772
 448,74; 6930,345;  322,693;13558,650;49,92198
 449,33; 6851,940;  317,773;13412,294;49,90001
 449,91; 6758,204;  316,162;13256,983;49,78078
 450,50; 6663,416;  299,238;12957,665;50,27621
 451,09; 6593,296;  319,854;12948,808;49,67507
 451,68; 6549,277;  331,779;12840,793;49,70414
 452,26; 6504,266;  330,781;12763,121;49,65666
 452,85; 6420,210;  309,241;12702,998;49,30684
 453,44; 6451,470;  337,093;12715,419;49,39583
 454,03; 6391,501;  305,474;12641,459;49,33555
 454,61; 6382,131;  302,171;12612,877;49,38759
 455,20; 6480,161;  334,173;12819,368;49,22621
 455,79; 6411,475;  334,631;12800,040;48,74966
 456,38; 6483,078;  334,869;12835,957;49,18139
 456,97; 6525,803;  314,175;12930,733;49,23394
 457,55; 6504,714;  327,024;12986,367;48,79945
 458,14; 6496,081;  359,328;12929,255;48,82091
 458,73; 6450,759;  336,255;12858,286;48,82997
 459,31; 6495,527;  360,105;12888,016;48,97402
 459,90; 6551,594;  365,642;13009,337;48,92519
 460,49; 6566,311;  401,179;13084,693;48,60745
 461,08; 6554,159;  331,646;13146,916;48,55547
 461,66; 6572,093;  333,874;13133,433;48,73776
 462,25; 6646,128;  346,724;13253,540;48,80680
 462,84; 6641,744;  372,415;13264,835;48,62802
 463,43; 6594,747;  312,728;13273,642;48,46895
 464,01; 6603,472;  335,346;13300,720;48,34513
 464,60; 6579,698;  382,881;13257,123;48,13345
 465,19; 6455,827;  310,193;13024,885;48,33491
 465,77; 6505,894;  346,195;12957,829;48,84140
 466,36; 6405,228;  355,190;12871,454;48,33742
 466,95; 6276,950;  338,421;12568,117;48,55827
 467,53; 6147,341;  349,274;12329,878;48,39545
 468,12; 6022,780;  370,198;12130,524;48,06484
 468,71; 5920,683;  358,578;11902,890;48,18048
 469,29; 5786,081;  329,044;11685,581;48,05195
 469,88; 5661,414;  343,892;11486,547;47,72222
 470,47; 5726,760;  405,357;11586,317;47,59343
 471,06; 5644,213;  349,127;11501,943;47,47758
 471,64; 5701,575;  352,280;11596,839;47,57230
 472,23; 5721,943;  321,594;11583,969;47,95035
 472,81; 5718,395;  323,437;11719,893;47,33891
 473,40; 5726,797;  338,671;11817,928;46,93793
 473,99; 5854,530;  438,979;12040,937;46,67791
 474,57; 5827,805;  340,133;12159,994;46,42755
 475,16; 5894,478;  360,361;12218,465;46,66949
 475,75; 5963,946;  373,289;12384,013;46,54721
 476,33; 5958,654;  377,523;12477,109;46,12663
 476,92; 5968,835;  374,980;12492,704;46,16259
 477,51; 6042,424;  368,983;12553,558;46,56248
 478,09; 6003,812;  376,598;12581,345;46,10677
 478,68; 5968,322;  378,292;12542,433;45,95499
 479,27; 5996,918;  397,751;12597,596;45,89539
 479,85; 5956,042;  370,599;12553,004;45,84844
 480,44; 5929,240;  361,908;12606,505;45,46766
 481,02; 6422,501;  378,757;13796,042;45,04447
 481,61; 7276,110;  402,064;15652,194;45,07533
 482,20; 7790,680;  389,526;16794,488;45,11534
 482,78; 8110,554;  417,446;17518,987;44,98488
 483,37; 8337,848;  400,222;18018,243;45,05401
 483,95; 8440,316;  423,531;18194,276;45,11226
 484,54; 8487,218;  435,063;18409,352;44,79818
 485,13; 8429,195;  397,380;18366,598;44,69763
 485,71; 8330,224;  376,840;18058,972;44,97978
 486,30; 8209,536;  431,071;17894,682;44,54099
 486,88; 8110,259;  442,688;17531,852;44,86803
 487,47; 7792,597;  433,535;16893,254;44,70953
 488,05; 7398,046;  429,767;16157,182;44,30658
 488,64; 6920,026;  425,000;14969,596;44,65594
 489,23; 6195,842;  430,229;13365,258;44,57364
 489,81; 5273,682;  430,538;11432,053;44,02252
 490,40; 4977,526;  382,077;10874,205;43,79902
 490,98; 4848,023;  357,462;10591,516;43,87861
 491,57; 4816,442;  397,999;10567,510;43,44794
 492,15; 4778,591;  373,771;10500,179;43,49835
 492,74; 4701,427;  389,152;10406,749;43,04701
 493,32; 4648,739;  402,616;10315,377;42,83492
 493,91; 4596,466;  379,387;10229,194;42,81382
 494,50; 4597,038;  391,392;10263,082;42,60310
 495,08; 4558,677;  369,546;10121,789;42,95557
 495,67; 4545,112;  390,772;10132,736;42,64377
 496,25; 4487,651;  326,544;10026,577;42,89786
 496,84; 4441,541;  347,156;10026,563;42,29996
 497,42; 4401,884;  330,468; 9959,484;42,28278
 498,01; 4356,907;  367,080; 9902,920;41,84033
 498,59; 4300,237;  317,237; 9817,250;41,92626
 499,18; 4309,754;  328,080; 9836,658;41,87455
 499,76; 4272,060;  354,775; 9744,638;41,71824
 500,35; 4179,827;  347,086; 9572,984;41,54329
 500,93; 4141,661;  325,852; 9577,089;41,24647
 501,52; 4098,751;  330,237; 9470,573;41,22949
 502,10; 4096,104;  346,011; 9496,038;40,98450
 502,69; 3988,364;  334,090; 9334,329;40,60196
 503,27; 3897,954;  317,777; 9147,938;40,54486
 503,86; 3889,876;  327,474; 9068,484;40,75504
 504,44; 3798,055;  311,398; 8999,373;40,13198
 505,03; 3675,537;  292,860; 8772,262;39,89287
 505,61; 3635,012;  315,167; 8645,426;39,85285
 506,19; 3586,662;  329,629; 8542,030;39,65993
 506,78; 3490,081;  302,940; 8351,751;39,59766
 507,36; 3403,904;  305,244; 8211,729;39,19137
 507,95; 3333,834;  326,558; 8031,400;39,03099
 508,53; 3293,651;  308,094; 7979,494;38,91802
 509,12; 3254,703;  315,403; 7891,907;38,79494
 509,70; 3200,487;  323,250; 7716,130;38,91903
 510,29; 3163,443;  341,483; 7629,516;38,72047
 510,87; 3030,226;  305,402; 7432,639;38,23115
 511,46; 2977,601;  302,941; 7270,954;38,38482
 512,04; 2926,776;  300,635; 7159,948;38,28577
 512,62; 2877,990;  326,710; 7059,818;37,89155
 513,21; 2795,820;  290,714; 6856,757;38,15246
 513,79; 2746,800;  306,027; 6749,780;37,87812
 514,38; 2694,142;  290,640; 6580,820;38,21039
 514,96; 2680,890;  329,640; 6537,501;37,87537
 515,54; 2588,254;  284,641; 6411,547;37,59831
 516,13; 2556,721;  316,257; 6365,150;37,03924
 516,71; 2505,306;  293,413; 6187,097;37,52989
 517,30; 2466,316;  298,492; 6100,160;37,36553
 517,88; 2413,903;  317,031; 6059,697;36,51391
 518,46; 2340,889;  286,109; 5948,733;36,28672
 519,05; 2342,335;  296,187; 5904,152;36,48646
 519,63; 2322,803;  312,494; 5837,280;36,38708
 520,22; 2270,861;  314,651; 5819,016;35,53924
 520,80; 2229,015;  310,883; 5738,447;35,34059
 521,38; 2260,547;  334,495; 5731,616;35,68664
 521,97; 2182,615;  293,500; 5657,788;35,21652
 522,55; 2167,324;  318,038; 5672,813;34,53526
 523,13; 2136,748;  293,962; 5633,143;34,51440
 523,72; 2130,245;  301,647; 5659,501;34,12930
 524,30; 2191,975;  324,733; 5771,568;34,28123
 524,89; 2154,308;  294,346; 5746,142;34,11651
 525,47; 2174,345;  313,426; 5873,635;33,46851
 526,05; 2137,986;  278,657; 5922,665;32,94341
 526,64; 2190,932;  323,351; 6001,539;32,89045
 527,22; 2241,705;  318,349; 6135,190;33,06531
 527,80; 2275,689;  347,504; 6262,947;32,59578
 528,39; 2244,769;  301,198; 6336,439;32,20371
 528,97; 2279,399;  295,736; 6473,141;32,11159
 529,55; 2311,250;  310,039; 6638,152;31,62414
 530,14; 2363,614;  333,353; 6782,175;31,48267
 530,72; 2354,172;  306,120; 6881,159;31,14890
 531,30; 2356,461;  294,045; 6980,759;30,84349
 531,89; 2412,421;  316,891; 7098,981;30,89799
 532,47; 2417,743;  340,508; 7179,358;30,37404
 533,05; 2432,377;  327,889; 7206,237;30,59584
 533,63; 2443,983;  346,816; 7320,901;30,07086
 534,22; 2417,505;  307,816; 7328,722;30,04868
 534,80; 2476,500;  338,357; 7389,806;30,32204
 535,38; 2535,523;  412,353; 7502,857;29,94385
 535,97; 2435,018;  318,046; 7407,846;29,85941
 536,55; 2499,444;  371,819; 7484,972;29,91114
 537,13; 2444,525;  378,045; 7457,091;29,19151
 537,71; 2505,063;  408,506; 7522,121;29,47245
 538,30; 2468,463;  432,817; 7585,910;28,45827
 538,88; 2484,595;  469,897; 7660,675;28,01780
 539,46; 2593,516;  541,588; 7831,755;28,14652
 540,05; 2562,390;  557,358; 7964,077;27,07045
 540,63; 2660,148;  596,666; 8108,608;27,46935
 541,21; 2666,893;  625,206; 8260,452;26,74029
 541,79; 2707,006;  662,283; 8345,751;26,61198
 542,38; 2724,082;  681,742; 8498,338;26,12825
 542,96; 2760,416;  701,977; 8638,609;25,93593
 543,54; 2794,681;  719,744; 8861,218;25,48602
 544,12; 2801,841;  696,591; 8941,174;25,53495
 544,70; 2819,660;  672,747; 9030,355;25,68813
 545,29; 2861,799;  683,743; 9151,014;25,72323
 545,87; 2823,006;  650,898; 9205,136;25,39219
 546,45; 2799,745;  605,588; 9222,491;25,46341
 547,03; 2803,919;  598,051; 9248,623;25,49967
 547,62; 2827,100;  568,745; 9376,130;25,64161
 548,20; 2869,513;  568,900; 9540,760;25,64254
 548,78; 2843,757;  525,136; 9614,143;25,51017
 549,36; 2881,266;  493,751; 9815,403;25,61258
 549,94; 2865,871;  453,053; 9900,376;25,53970
 550,53; 2911,082;  468,442;10132,079;25,27661
 551,11; 2920,258;  419,291;10261,657;25,41022
 551,69; 2955,719;  444,135;10523,829;24,91726
 552,27; 2985,957;  415,518;10761,760;24,84418
 552,85; 3030,408;  411,444;11102,716;24,49627
 553,44; 3063,925;  404,904;11349,153;24,29606
 554,02; 3133,110;  418,674;11698,555;24,06440
 554,60; 3128,162;  357,060;11986,584;23,82816
 555,18; 3230,072;  405,981;12299,240;23,74530
 555,76; 3259,745;  371,674;12580,521;23,65556
 556,34; 3315,564;  372,985;12928,483;23,43657
 556,93; 3414,967;  370,058;13278,593;23,58834
 557,51; 3430,993;  355,062;13566,586;23,28218
 558,09; 3505,752;  375,828;13889,695;23,16084
 558,67; 3561,163;  383,525;14243,901;22,92606
 559,25; 3602,416;  387,601;14502,516;22,77601
 559,83; 3639,681;  361,219;14712,948;22,84367
 560,41; 3687,525;  358,446;15061,399;22,64225
 561,00; 3749,204;  370,679;15405,602;22,47118
 561,58; 3755,784;  352,292;15564,740;22,37307
 562,16; 3774,550;  354,675;15827,248;22,10282
 562,74; 3828,555;  333,674;16170,299;22,06835
 563,32; 3926,753;  343,449;16487,161;22,19628
 563,90; 3981,568;  365,371;16893,406;21,87917
 564,48; 4054,180;  366,138;17252,932;21,83980
 565,06; 4135,895;  348,756;17790,633;21,71291
 565,65; 4251,728;  370,452;18364,895;21,56930
 566,23; 4420,188;  407,218;18999,500;21,58406
 566,81; 4487,488;  357,447;19670,421;21,38480
 567,39; 4641,504;  364,527;20526,056;21,21356
 567,97; 4779,073;  383,525;21033,571;21,28590
 568,55; 4955,130;  410,988;21775,741;21,26934
 569,13; 5021,079;  359,756;22407,065;21,14237
 569,71; 5204,161;  358,060;23291,076;21,13155
 570,29; 5436,865;  409,981;24137,455;21,18592
 570,87; 5496,151;  399,290;24791,379;20,89555
 571,45; 5623,232;  392,987;25303,173;20,99641
 572,03; 5631,190;  349,912;25699,267;20,83397
 572,61; 5756,567;  348,911;26399,372;20,75839
 573,20; 5858,232;  381,831;27027,545;20,55265
 573,78; 5957,928;  370,603;27582,819;20,53241
 574,36; 6016,331;  379,218;28016,539;20,39674
 574,94; 6091,260;  428,682;28281,862;20,33010
 575,52; 6047,548;  384,531;28548,552;20,10727
 576,10; 6168,395;  439,607;29100,078;19,98846
 576,68; 6224,437;  424,989;29663,753;19,83479
 577,26; 6289,321;  437,225;30132,352;19,70726
 577,84; 6365,979;  435,603;30649,174;19,62819
 578,42; 6416,562;  487,683;30852,657;19,52539
 579,00; 6353,871;  434,603;30962,554;19,38967
 579,58; 6375,285;  466,528;31145,999;19,25964
 580,16; 6276,341;  454,375;31274,508;18,89014
 580,74; 6293,163;  459,068;31409,801;18,84962
 581,32; 6259,270;  453,221;31471,405;18,71821
 581,90; 6207,547;  475,068;31360,832;18,56026
 582,48; 6156,207;  481,145;31530,012;18,27784
 583,06; 6135,119;  467,759;31645,146;18,17779
 583,64; 6120,758;  465,066;31726,545;18,09157
 584,22; 6028,105;  475,224;31533,208;17,87908
 584,80; 5918,222;  485,606;31311,453;17,62358
 585,38; 5818,304;  497,446;30916,404;17,49191
 585,96; 5753,419;  459,758;31068,098;17,29483
 586,54; 5683,378;  481,454;31036,758;17,02462
 587,12; 5646,059;  462,761;31161,891;16,88419
 587,70; 5672,088;  481,450;31347,237;16,81680
 588,28; 5602,363;  461,915;31385,412;16,62311
 588,86; 5595,191;  476,992;31519,846;16,48753
 589,44; 5518,795;  451,996;31455,187;16,34283
 590,02; 5533,877;  451,610;31719,238;16,25409
 590,59; 5487,738;  430,608;31929,235;16,05508
 591,17; 5512,322;  428,845;32006,144;16,09852
 591,75; 5442,891;  418,766;32126,473;15,84512
 592,33; 5466,124;  443,688;32340,353;15,74596
 592,91; 5452,138;  393,306;32671,434;15,67263
 593,49; 5466,272;  404,307;32802,681;15,62413
 594,07; 5481,555;  422,846;33033,313;15,51253
 594,65; 5450,800;  438,224;33079,333;15,35664
 595,23; 5446,043;  416,687;33409,322;15,24388
 595,81; 5438,284;  408,534;33545,835;15,17852
 596,39; 5425,374;  406,457;33624,196;15,10915
 596,97; 5368,405;  398,690;33796,195;14,88050
 597,55; 5357,580;  392,455;33700,615;14,90663
 598,12; 5320,128;  386,693;33728,117;14,79671
 598,70; 5298,346;  391,768;33818,620;14,67855
 599,28; 5320,484;  404,768;34013,287;14,62640
 599,86; 5304,835;  397,152;33965,114;14,62014
 600,44; 5228,311;  356,461;34064,721;14,45299
 601,02; 5264,334;  417,695;34218,050;14,33902
 601,60; 5224,993;  392,535;34173,150;14,30542
 602,18; 5131,961;  365,462;34152,602;14,10744
 602,75; 5115,769;  373,072;34232,157;14,00716
 603,33; 5126,140;  381,922;34418,757;13,93848
 603,91; 5061,978;  360,540;34325,147;13,84217
 604,49; 5097,938;  398,999;34393,682;13,82257
 605,07; 5057,349;  386,304;34345,533;13,75486
 605,65; 5049,891;  406,615;34436,391;13,64474
 606,23; 5039,523;  464,608;34619,214;13,39472
 606,80; 5046,575;  514,995;34630,071;13,28322
 607,38; 5035,312;  546,155;34683,826;13,15016
 607,96; 5036,397;  597,457;34728,164;13,00571
 608,54; 5026,928;  652,769;34860,921;12,78689
 609,12; 5015,405;  655,918;34823,046;12,75930
 609,70; 5028,211;  695,229;34929,540;12,65684
 610,27; 4980,801;  700,687;35001,084;12,47832
 610,85; 4968,008;  718,844;35003,187;12,39389
 611,43; 4958,018;  717,537;34987,961;12,37359
 612,01; 4861,635;  684,304;34750,674;12,26233
 612,59; 4875,422;  672,460;34737,035;12,33822
 613,16; 4838,376;  644,224;34690,217;12,31908
 613,74; 4780,508;  620,153;34677,271;12,21582
 614,32; 4765,628;  581,846;34577,418;12,30685
 614,90; 4756,865;  533,613;34521,641;12,42570
 615,48; 4678,908;  481,379;34204,658;12,44698
 616,05; 4658,930;  456,916;34228,119;12,44259
 616,63; 4645,182;  469,069;34010,964;12,45044
 617,21; 4610,088;  462,072;33849,657;12,42383
 617,79; 4544,840;  441,765;33792,598;12,30277
 618,36; 4566,000;  445,766;33676,601;12,39883
 618,94; 4469,483;  385,302;33551,233;12,31439
 619,52; 4431,608;  405,916;33249,711;12,25709
 620,10; 4406,814;  393,841;33235,799;12,21904
 620,67; 4404,166;  413,146;33193,170;12,17516
 621,25; 4398,819;  421,151;33002,568;12,20839
 621,83; 4371,658;  406,225;32912,046;12,19915
 622,41; 4374,301;  450,071;32859,540;12,10828
 622,98; 4296,465;  415,300;32663,673;12,03523
 623,56; 4333,229;  418,299;32733,532;12,11481
 624,14; 4276,546;  395,998;32622,603;12,04144
 624,72; 4254,807;  382,686;32516,489;12,04999
 625,29; 4249,983;  382,069;32529,661;12,03174
 625,87; 4259,803;  417,765;32515,376;11,96986
 626,45; 4214,082;  372,914;32343,321;12,01476
 627,02; 4204,298;  383,381;32318,396;11,96466
 627,60; 4197,902;  359,538;32308,045;12,01422
 628,18; 4182,328;  351,841;32275,815;11,99878
 628,76; 4153,672;  361,377;32234,196;11,89821
 629,33; 4167,514;  382,840;32184,576;11,90084
 629,91; 4134,430;  362,688;32279,184;11,81753
 630,49; 4184,136;  388,070;32417,596;11,85177
 631,06; 4199,208;  381,454;32548,609;11,86848
 631,64; 4169,828;  374,453;32413,461;11,84611
 632,22; 4132,751;  339,990;32414,294;11,82492
 632,79; 4199,043;  371,913;32640,346;11,86029
 633,37; 4203,603;  346,150;32776,778;11,89447
 633,95; 4181,402;  342,145;32761,252;11,84257
 634,52; 4241,090;  344,686;32872,044;11,97885
 635,10; 4266,449;  345,072;32898,950;12,04581
 635,68; 4298,079;  340,913;33024,645;12,10745
 636,25; 4256,754;  328,219;33057,515;12,00312
 636,83; 4288,134;  319,454;33308,812;12,03018
 637,41; 4325,701;  339,528;33312,742;12,08913
 637,98; 4338,458;  356,989;33467,304;12,02486
 638,56; 4338,639;  345,911;33589,662;12,01046
 639,13; 4365,052;  336,838;33647,671;12,09280
 639,71; 4443,386;  368,070;33756,978;12,20560
 640,29; 4326,785;  300,377;33598,392;12,09203
 640,86; 4382,441;  324,762;33698,719;12,15822
 641,44; 4369,252;  321,070;33764,584;12,10453
 642,02; 4396,062;  343,454;33797,372;12,11400
 642,59; 4433,718;  330,070;33899,160;12,22449
 643,17; 4412,298;  307,455;33825,564;12,24664
 643,74; 4441,801;  332,147;33897,121;12,24388
 644,32; 4435,688;  350,224;33794,602;12,21570
 644,89; 4452,729;  339,455;33886,236;12,26131
 645,47; 4494,770;  364,301;33822,870;12,34503
 646,05; 4472,196;  338,917;33844,120;12,33623
 646,62; 4464,468;  333,532;33775,754;12,35246
 647,20; 4502,278;  340,609;33996,004;12,36553
 647,77; 4471,319;  309,686;33826,177;12,41667
 648,35; 4527,822;  300,148;33744,657;12,64086
 648,92; 4549,940;  332,917;33742,599;12,62216
 649,50; 4497,751;  299,763;33743,079;12,55254
 650,08; 4507,946;  313,379;33643,868;12,58477
 650,65; 4556,987;  308,148;33873,117;12,65855
 651,23; 4669,105;  287,533;34500,213;12,80686
 651,80; 4807,069;  284,225;35347,924;12,89893
 652,38; 4921,495;  304,918;35719,482;13,03581
 652,95; 4968,613;  285,379;36081,193;13,08319
 653,53; 5042,500;  321,149;36346,443;13,10566
 654,10; 5104,310;  336,841;36454,538;13,19982
 654,68; 5075,736;  300,611;36378,250;13,23569
 655,25; 5095,547;  289,918;36456,422;13,28751
 655,83; 5122,357;  296,688;36537,364;13,31562
 656,40; 5173,937;  332,534;36506,845;13,38354
 656,98; 5175,516;  292,457;36424,171;13,51461
 657,55; 5186,250;  309,842;36363,652;13,52536
 658,13; 5118,137;  295,842;35883,286;13,55055
 658,70; 5113,178;  318,227;35800,074;13,51382
 659,28; 5055,911;  303,304;34942,170;13,72045
 659,85; 4945,645;  323,381;34232,958;13,63115
 660,43; 4966,148;  322,458;34213,516;13,70181
 661,00; 4968,189;  302,304;34383,073;13,69067
 661,58; 5041,537;  295,073;34619,630;13,82819
 662,15; 5078,886;  296,996;34827,265;13,84840
 662,73; 5205,466;  355,997;35099,514;13,95791
 663,30; 5173,584;  313,227;35312,764;13,88692
 663,88; 5241,702;  305,766;35433,783;14,05128
 664,45; 5281,435;  299,920;35638,648;14,09648
 665,03; 5348,015;  297,382;35915,513;14,17995
 665,60; 5534,056;  374,151;36403,609;14,32135
 666,17; 5493,790;  312,920;36516,166;14,31051
 666,75; 5562,369;  298,997;36774,339;14,42995
 667,32; 5696,487;  329,074;37023,204;14,62744
 667,90; 5699,452;  312,921;37335,146;14,54945
 668,47; 5780,570;  323,382;37535,934;14,66491
 669,05; 5874,380;  314,075;37830,722;14,82090
 669,62; 5894,729;  291,152;37968,895;14,87238
 670,19; 5932,155;  275,767;37959,837;15,01002
 670,77; 5972,888;  303,767;38223,317;14,95039
 671,34; 6028,160;  295,152;38101,336;15,16421
 671,92; 6086,278;  290,229;38389,586;15,21298
 672,49; 6121,319;  308,614;38431,759;15,24718
 673,06; 6133,514;  266,229;38504,701;15,34393
 673,64; 6192,940;  280,537;38489,643;15,47381
 674,21; 6214,519;  282,614;38387,662;15,56724
 674,79; 6309,176;  309,153;38620,988;15,66102
 675,36; 6383,679;  315,230;38708,699;15,80594
 675,93; 6361,951;  283,537;38668,257;15,83550
 676,51; 6460,530;  308,768;38746,045;16,00468
 677,08; 6477,187;  299,307;38908,910;16,00089
 677,65; 6529,612;  307,845;38928,621;16,10990
 678,23; 6601,807;  305,922;39173,179;16,19843
 678,80; 6614,848;  291,153;39328,351;16,19915
 679,38; 6720,197;  295,153;39473,293;16,39956
 679,95; 6780,546;  304,769;39654,620;16,45693
 680,52; 6866,203;  296,000;39890,716;16,59364
 681,10; 6987,013;  304,384;40293,888;16,71096
 681,67; 7045,439;  299,923;40502,215;16,77893
 682,24; 7102,634;  273,615;40588,849;16,93905
 682,82; 7241,060;  290,077;41102,484;17,03154
 683,39; 7374,408;  326,923;41358,964;17,17557
 683,96; 7426,988;  288,308;41611,983;17,27504
 684,54; 7539,337;  272,616;41813,848;17,49279
 685,11; 7684,686;  310,385;42132,482;17,63255
 685,68; 7778,034;  286,308;42546,424;17,72765
 686,25; 7778,691;  274,616;42635,059;17,71482
 686,83; 7890,117;  273,693;42791,462;17,91351
 687,40; 7995,004;  269,386;43071,789;18,04950
 687,97; 8130,045;  322,386;43388,808;18,12934
 688,55; 8167,932;  258,001;43466,903;18,30625
 689,12; 8228,281;  255,617;43682,692;18,35874
 689,69; 8289,015;  266,232;43795,787;18,43066
 690,26; 8369,440;  284,771;43954,499;18,51321
 690,84; 8401,635;  291,771;44189,364;18,47451
 691,41; 8499,677;  306,309;44136,844;18,69329
 691,98; 8599,025;  294,848;44588,478;18,74802
 692,56; 8626,067;  282,694;44574,882;18,83712
 693,13; 8757,415;  333,464;44633,593;19,01564
 693,70; 8802,995;  302,925;44812,381;19,09722
 694,27; 8815,036;  290,387;44812,708;19,14691
 694,84; 8914,077;  282,695;45005,957;19,29954
 695,42; 9041,041;  334,310;45101,899;19,44874
 695,99; 9095,929;  304,079;45276,918;19,54924
 696,56; 9114,662;  294,080;45164,014;19,65811
 697,13; 9260,857;  298,849;45467,264;19,84132
 697,71; 9255,591;  289,003;45588,129;19,79417
 698,28; 9389,555;  299,080;45841,302;19,96054
 698,85; 9415,211;  268,157;45908,628;20,04154
 699,42; 9517,406;  267,772;46123,263;20,17127
 699,99; 9568,755;  304,926;46237,128;20,16848
 700,57; 9644,181;  297,311;46230,070;20,34903
 701,14; 9703,684;  280,311;46376,935;20,44265
 701,71; 9851,263;  310,850;46638,800;20,59321
 702,28; 9915,227;  294,465;46572,511;20,78904
 702,85; 9977,576;  307,081;46653,376;20,86574
 703,43;10057,387;  312,312;46872,549;20,93004
 704,00;10249,582;  327,004;47096,568;21,21589
 704,57;10231,700;  299,312;46970,971;21,28141
 705,14;10387,279;  332,004;47369,682;21,37707
 705,71;10443,167;  342,081;47427,471;21,45270
 706,28;10425,054;  310,850;47394,874;21,48118
 706,86;10607,403;  346,620;47531,354;21,74598
 707,43;10621,828;  359,235;47444,912;21,79557
 708,00;10681,331;  328,005;47556,777;21,92165
 708,57;10668,757;  301,389;47422,488;22,00154
 709,14;10817,336;  327,236;47655,815;22,16441
 709,71;10847,762;  312,543;47744,449;22,21125
 710,28;10993,573;  313,082;47915,314;22,43695
 710,86;11039,383;  309,928;48020,871;22,48846
 711,43;11158,193;  333,313;47975,352;22,72128
 712,00;11180,542;  316,467;48120,755;22,72615
 712,57;11332,045;  337,390;48233,544;22,95519
 713,14;11426,394;  314,698;48374,639;23,12049
 713,71;11389,358;  315,159;48244,197;23,10541
 714,28;11470,630;  300,544;48378,754;23,23316
 714,85;11427,132;  293,775;48046,850;23,31443
 715,42;11547,943;  293,237;48317,407;23,43550
 716,00;11719,061;  360,237;48414,042;23,63772
 716,57;11728,794;  297,468;48484,291;23,72293
 717,14;11788,220;  281,929;48384,541;23,92030
 717,71;11871,800;  280,006;48454,637;24,06203
 718,28;11940,071;  325,699;48556,348;24,08090
 718,85;12004,728;  276,468;48492,059;24,32462
 719,42;12057,308;  296,776;48717,617;24,28816
 719,99;12099,041;  283,776;48509,020;24,50017
 720,56;12259,082;  310,391;48748,654;24,66788
 721,13;12271,354;  287,392;48823,981;24,69057
 721,70;12286,088;  277,546;48758,615;24,76955
 722,27;12458,359;  304,546;48775,019;25,07468
 722,84;12482,401;  345,238;48931,961;24,98041
 723,41;12510,980;  276,546;48967,826;25,12654
 723,98;12582,252;  299,546;49080,229;25,17945
 724,55;12739,524;  310,315;49232,402;25,40613
 725,12;12720,411;  247,623;49144,498;25,50835
 725,69;12812,222;  285,239;49277,517;25,56930
 726,27;12953,724;  293,623;49382,690;25,79006
 726,84;13053,612;  298,854;49718,401;25,80913
 727,41;13116,960;  308,316;49661,189;25,95319
 727,98;13214,771;  311,162;49958,900;25,99033
 728,55;13317,658;  330,162;49853,381;26,22506
 729,12;13414,084;  273,239;49989,169;26,43186
 729,69;13487,279;  317,624;50136,957;26,43483
 730,26;13620,628;  309,778;50348,822;26,60093
 730,82;13594,361;  297,163;50277,456;26,60488
 731,39;13735,556;  291,317;50285,167;26,89179
 731,96;13832,674;  280,624;50571,802;26,94717
 732,53;13990,100;  306,240;50841,744;27,07772
 733,10;14068,679;  306,548;51018,993;27,13758
 733,67;14221,105;  314,317;51184,551;27,33777
 734,24;14142,685;  290,855;50785,416;27,43232
 734,81;14258,111;  325,702;50886,742;27,55562
 735,38;14216,306;  301,702;50707,223;27,60532
 735,95;14240,270;  299,625;50561,780;27,73587
 736,52;14298,311;  302,548;50796,491;27,71771
 737,09;14272,275;  307,548;50411,818;27,87133
 737,66;14489,624;  349,241;50647,221;28,11322
 738,23;14537,665;  293,395;50711,779;28,25214
 738,80;14666,322;  357,318;50979,490;28,26628
 739,37;14732,670;  321,395;51168,278;28,34250
 739,94;14823,096;  306,933;51266,605;28,48559
 740,51;15004,291;  399,395;51176,162;28,76295
 741,07;15003,102;  294,395;51149,489;28,92278
 741,64;15131,989;  334,626;51368,123;28,99539
 742,21;15121,030;  297,857;51408,450;29,00215
 742,78;15099,610;  271,934;51195,776;29,11735
 743,35;15258,112;  295,780;51403,334;29,27617
 743,92;15359,923;  323,396;51518,122;29,37124
 744,49;15381,195;  309,011;51500,987;29,44247
 745,06;15441,774;  304,011;51481,621;29,57888
 745,63;15553,892;  277,242;51405,409;29,87913
 746,19;15514,087;  286,781;51513,813;29,72514
 746,76;15588,974;  295,704;51484,062;29,87646
 747,33;15610,862;  284,858;51445,158;29,95683
 747,90;15758,595;  316,319;51609,408;30,10596
 748,47;15834,636;  305,396;51598,427;30,27554
 749,04;15897,216;  308,550;51568,061;30,41126
 749,61;15961,565;  334,935;51465,465;30,56223
 750,17;16052,914;  313,166;51550,714;30,71917
 750,74;16005,801;  309,474;51508,964;30,65719
 751,31;16044,611;  288,551;51351,598;30,85609
 751,88;16071,268;  272,474;51405,848;30,89723
 752,45;16193,617;  296,782;51402,174;31,10598
 753,02;16245,042;  316,859;51215,040;31,29421
 753,58;16240,083;  293,628;51275,212;31,27885
 754,15;16305,125;  295,859;51399,462;31,32708
 754,72;16321,089;  281,551;51227,404;31,48350
 755,29;16388,668;  267,244;51119,192;31,70267
 755,86;16483,171;  295,475;51214,365;31,79114
 756,42;16558,981;  299,244;51097,845;32,00824
 756,99;16591,792;  253,090;50977,326;32,21084
 757,56;16594,448;  255,937;50970,498;32,21661
 758,13;16532,566;  227,860;50886,210;32,18563
 758,70;16702,684;  250,552;51004,921;32,41520
 759,26;16743,572;  236,322;51033,863;32,49616
 759,83;16875,613;  243,322;51053,266;32,73432
 760,40;16847,577;  226,322;51003,824;32,73350
 760,97;16901,003;  230,937;50898,227;32,90104
 761,53;16842,736;  218,322;50600,554;32,99658
 762,10;16880,239;  209,245;50629,650;33,06398
 762,67;17017,357;  252,861;50692,130;33,23699
 763,24;16926,552;  196,784;50153,149;33,48876
 763,80;17044,055;  237,938;50331,860;33,54921
 764,37;17048,404;  239,938;50257,571;33,60508
 764,94;16965,829;  226,246;49867,283;33,72126
 765,50;17021,486;  239,092;49944,378;33,76380
 766,07;17140,912;  271,015;49896,244;33,99460
 766,64;17055,568;  243,246;49654,262;34,02545
 767,21;17100,686;  259,323;49628,974;34,11279
 767,77;17111,035;  276,861;49478,685;34,21453
 768,34;17127,076;  280,554;49371,396;34,31704
 768,91;17109,656;  276,016;49330,569;34,31616
 769,47;17178,389;  284,016;49375,280;34,41422
 770,04;17192,661;  291,247;49143,068;34,59731
 770,61;17183,548;  262,939;48955,087;34,75018
 771,18;17198,359;  254,247;48914,106;34,82154
 771,74;17256,861;  278,401;48989,510;34,85542
 772,31;17246,133;  279,632;48733,913;35,01549
 772,88;17196,559;  249,016;48515,393;35,11252
 773,44;17231,062;  262,939;48387,566;35,25871
 774,01;17292,411;  279,324;48493,970;35,28614
 774,58;17225,452;  255,555;48151,681;35,43062
 775,14;17328,493;  254,709;48253,700;35,57113
 775,71;17392,842;  252,171;48216,026;35,73664
 776,27;17381,575;  310,709;48202,507;35,64465
 776,84;17409,693;  336,171;48305,833;35,59233
 777,41;17471,427;  278,248;47961,699;36,05691
 777,97;17408,468;  255,940;47678,179;36,16980
 778,54;17465,663;  276,171;47718,275;36,23257
 779,11;17530,088;  291,479;47758,217;36,31724
 779,67;17632,130;  243,941;47711,928;36,63140
 780,24;17650,094;  272,941;47509,101;36,78782
 780,80;17718,212;  290,864;47501,120;36,91433
 781,37;17718,868;  271,787;47502,908;36,93980
 781,94;17717,217;  271,787;47295,234;37,09943
 782,50;17788,489;  274,556;47226,407;37,30190
 783,07;17943,684;  296,326;47330,118;37,52059
 783,63;17850,187;  264,557;47086,214;37,55875
 784,20;17906,228;  291,018;46959,925;37,74507
 784,77;17859,500;  274,095;46781,483;37,81207
 785,33;17865,695;  255,711;46631,425;37,97243
 785,90;17992,582;  268,096;46723,828;38,15350
 786,46;17955,085;  288,019;46535,616;38,20105
 787,03;17976,434;  253,173;46280,712;38,50578
 787,59;18061,859;  265,173;46207,885;38,73669
 788,16;18111,747;  267,942;46151,442;38,88937
 788,73;18119,557;  285,327;46032,461;38,98437
 789,29;18001,983;  268,096;45727,865;39,01007
 789,86;18089,332;  278,865;45739,038;39,17818
 790,42;18163,911;  282,173;45568,979;39,48554
 790,99;18033,568;  280,481;45233,691;39,49237
 791,55;18049,147;  262,789;45164,325;39,61192
 792,12;18171,804;  289,712;45206,575;39,81153
 792,68;18022,845;  276,174;44950,517;39,72453
 793,25;18024,809;  284,174;44732,536;39,91291
 793,81;18041,696;  335,405;44415,016;40,16889
 794,38;17908,199;  240,559;44239,343;40,15484
 794,94;17951,009;  261,097;44125,977;40,32819
 795,51;17854,281;  283,790;43907,688;40,27722
 796,07;17758,553;  276,328;43538,322;40,41012
 796,64;17910,671;  290,328;43800,957;40,49664
 797,20;17805,789;  272,713;43289,052;40,75911
 797,77;17684,677;  250,098;42932,994;40,84676
 798,33;17765,949;  276,329;42779,475;41,14900
 798,90;17702,067;  288,867;42734,417;41,02479
 799,46;17584,569;  264,252;42403,820;41,10227
 800,03;17588,764;  262,944;42239,455;41,27504
 800,59;17634,882;  286,406;42102,243;41,48781
 801,15;17576,693;  281,868;41835,031;41,62096
 801,72;17480,888;  273,714;41555,819;41,68192
 802,28;17415,083;  298,945;41222,607;41,82455
 802,85;17348,278;  271,176;41168,088;41,75646
 803,41;17388,703;  266,714;40968,260;42,06717
 803,98;17240,437;  253,483;40590,125;42,11296
 804,54;17209,093;  272,484;40381,606;42,22633
 805,11;17202,750;  278,484;40151,856;42,44503
 805,67;17219,099;  302,945;40103,798;42,50199
 806,23;17126,524;  276,792;39698,893;42,74184
 806,80;17117,181;  300,099;39595,989;42,79603
 807,36;17118,607;  298,946;39503,777;42,90201
 807,93;17019,417;  303,176;39394,796;42,76170
 808,49;17015,920;  254,561;38991,661;43,26952
 809,05;16964,115;  251,561;38746,373;43,41508
 809,62;16968,233;  283,254;38788,853;43,33131
 810,18;16914,966;  287,792;38594,257;43,40566
 810,74;16870,854;  255,869;38356,814;43,60780
 811,31;16855,202;  253,869;38185,756;43,76617
 811,87;16834,474;  270,331;38124,082;43,75826
 812,44;16842,900;  298,639;38078,563;43,79114
 813,00;16728,403;  227,100;37743,736;43,98396
 813,56;16810,598;  273,947;37907,216;43,94157
 814,13;16818,254;  256,485;37684,620;44,24952
 814,69;16703,834;  270,716;37579,331;44,04644
 815,25;16635,490;  241,332;37159,965;44,40619
 815,82;16688,301;  279,639;37158,369;44,49356
 816,38;16654,726;  304,101;36982,772;44,57802
 816,94;16482,460;  247,947;36683,945;44,55625
 817,51;16567,655;  241,947;36475,502;45,05687
 818,07;16505,311;  250,563;36313,367;45,07345
 818,63;16395,276;  270,948;36059,232;45,05477
 819,20;16423,471;  259,025;36002,636;45,22332
 819,76;16234,358;  245,255;35733,655;45,05445
 820,32;16312,014;  279,640;35601,981;45,38876
 820,89;16290,286;  279,102;35421,385;45,56103
 821,45;16159,174;  247,717;35149,788;45,58886
 822,01;16140,907;  263,487;34907,961;45,82959
 822,57;16200,794;  281,102;34767,826;46,16180
 823,14;16045,989;  240,333;34556,691;46,05866
 823,70;16036,646;  249,102;34326,479;46,32852
 824,26;15917,610;  245,333;34234,729;46,10931
 824,82;16021,959;  280,179;34049,363;46,61581
 825,39;15870,769;  245,564;33819,844;46,53921
 825,95;15915,041;  273,641;33877,863;46,54594
 826,51;15794,390;  261,564;33513,651;46,71233
 827,08;15853,662;  293,949;33632,208;46,67224
 827,64;15812,626;  277,872;33386,227;46,92095
 828,20;15784,052;  254,103;33196,861;47,14222
 828,76;15787,016;  272,642;33139,265;47,20404
 829,32;15746,288;  286,026;32959,438;47,31756
 829,89;15740,329;  238,027;32840,687;47,54919
 830,45;15706,139;  265,719;32805,937;47,45027
 831,01;15672,642;  253,796;32630,264;47,62362
 831,57;15743,606;  260,950;32506,359;48,01507
 832,14;15673,878;  252,565;32522,378;47,78867
 832,70;15544,150;  247,489;32309,243;47,70999
 833,26;15598,499;  226,412;32221,032;48,04585
 833,82;15648,156;  251,873;32083,897;48,36727
 834,38;15689,274;  256,335;32210,608;48,29695
 834,95;15687,930;  233,258;31973,319;48,69137
 835,51;15712,971;  210,951;31919,569;48,88898
 836,07;15699,089;  253,797;31953,588;48,72364
 836,63;15832,284;  275,643;31927,607;49,14906
 837,19;15754,325;  250,182;31857,164;49,05291
 837,75;15624,290;  221,259;31542,567;49,17748
 838,32;15674,023;  264,182;31683,048;49,04646
 838,88;15750,372;  265,720;31676,298;49,29757
 839,44;15756,798;  255,644;31588,316;49,47281
 840,00;15785,916;  249,490;31425,489;49,83457
 840,56;15687,495;  244,259;31253,200;49,80253
 841,12;15686,690;  240,721;31220,065;49,85893
 841,68;15636,039;  218,798;30958,469;50,15422
 842,25;15646,773;  235,336;31083,949;49,95828
 842,81;15576,352;  221,875;30810,276;50,19706
 843,37;15613,239;  220,875;30856,987;50,24255
 843,93;15606,434;  232,029;30698,852;50,46278
 844,49;15735,322;  262,414;30842,179;50,59852
 845,05;15599,824;  210,799;30651,736;50,55372
 845,61;15655,635;  265,645;30777,678;50,43908
 846,17;15633,599;  236,568;30496,466;50,88263
 846,73;15702,717;  246,414;30422,408;51,22053
 847,29;15569,450;  230,260;30269,735;51,06344
 847,86;15597,261;  237,876;30236,446;51,20039
 848,42;15590,994;  235,953;30102,927;51,41144
 848,98;15595,805;  248,107;30056,945;51,48707
 849,54;15649,384;  230,338;30022,195;51,75591
 850,10;15633,656;  243,338;29921,522;51,85735
 850,66;15616,620;  231,338;29752,695;52,11577
 851,22;15543,508;  220,338;29685,560;52,00426
 851,78;15689,318;  267,646;29743,194;52,32022
 852,34;15560,513;  241,800;29509,213;52,34051
 852,90;15594,323;  227,492;29446,847;52,59127
 853,46;15483,211;  227,723;29214,251;52,62958
 854,02;15588,329;  249,185;29228,654;52,93107
 854,58;15454,370;  241,723;29006,827;52,88577
 855,14;15506,719;  227,185;28966,230;53,16646
 855,70;15420,375;  198,262;28718,172;53,37364
 856,26;15427,878;  247,801;28829,114;53,11189
 856,82;15419,611;  235,031;28605,133;53,52318
 857,38;15414,883;  265,032;28495,614;53,66468
 857,94;15369,001;  245,493;28417,017;53,68367
 858,50;15370,350;  250,032;28338,267;53,83150
 859,06;15274,007;  226,878;28103,978;53,97666
 859,62;15342,586;  247,724;28130,843;54,13620
 860,18;15309,627;  239,032;28049,170;54,19101
 860,74;15298,515;  208,340;27876,112;54,54062
 861,30;15218,710;  214,648;27653,977;54,68086
 861,86;15300,597;  275,725;27715,073;54,75667
 862,42;15217,561;  240,648;27517,707;54,90663
 862,98;15233,833;  263,417;27542,341;54,87906
 863,54;15189,105;  236,033;27343,283;55,16263
 864,10;15165,377;  234,494;27331,687;55,10122
 864,66;15025,418;  213,879;27118,782;55,05145
 865,22;14999,075;  232,110;27079,494;55,00337
 865,78;14981,808;  234,725;26994,743;55,10864
 866,34;14933,849;  228,187;26833,685;55,27302
 866,90;14920,659;  241,341;26807,243;55,25624
 867,45;14855,316;  244,880;26595,185;55,44693
 868,01;14822,126;  244,341;26394,204;55,74708
 868,57;14753,706;  237,957;26249,069;55,80595
 869,13;14706,593;  215,880;26126,088;55,92666
 869,69;14730,173;  241,726;26118,414;55,99034
 870,25;14681,829;  218,957;25974,664;56,15405
 870,81;14679,563;  228,572;25969,221;56,14074
 871,37;14640,527;  245,419;25871,009;56,17474
 871,93;14640,491;  248,880;25682,721;56,58450
 872,49;14565,225;  264,727;25491,893;56,68690
 873,04;14477,958;  222,111;25348,758;56,73597
 873,60;14430,153;  222,342;25272,777;56,71682
 874,16;14458,810;  245,650;25173,181;57,01792
 874,72;14468,579;  221,727;25105,027;57,25467
 875,28;14445,733;  243,727;25044,565;57,26422
 875,84;14440,810;  240,804;24918,412;57,54207
 876,40;14407,810;  229,573;24931,412;57,39750
 876,95;14482,810;  242,342;24891,258;57,77320
 877,51;14535,963;  263,650;24825,335;58,10804
 878,07;14545,348;  278,573;24851,719;58,05840
 878,63;14575,656;  231,881;24878,796;58,19704
 879,19;14634,502;  254,342;24867,950;58,42362
 879,75;14712,117;  229,419;24956,642;58,56985
 880,30;14748,887;  235,881;24889,335;58,86804
 880,86;14906,733;  271,881;25034,181;59,10134
 881,42;14927,733;  218,573;25074,181;59,17843
 881,98;14996,194;  256,804;25141,027;59,23187
 882,54;15091,194;  225,958;25146,412;59,65075
 883,09;15222,810;  241,188;25286,258;59,81865
 883,65;15279,425;  219,419;25362,181;59,89798
 884,21;15449,117;  263,496;25535,181;60,08947
 884,77;15522,117;  235,573;25585,950;60,30105
 885,32;15660,040;  236,727;25729,335;60,50112
 885,88;15763,810;  272,419;25771,488;60,75277
 886,44;15850,040;  239,881;25922,873;60,78014
 887,00;15934,579;  261,650;25852,565;61,24411
 887,56;16101,810;  236,650;26019,873;61,53288
 888,11;16159,887;  239,958;26002,796;61,79416
 888,67;16305,271;  271,265;26241,335;61,74033
 889,23;16359,887;  243,112;26145,488;62,22122
 889,79;16332,271;  228,727;26112,335;62,21522
 890,34;16329,579;  244,573;25986,642;62,48529
 890,90;16463,194;  300,035;26218,335;62,36196
 891,46;16489,963;  217,958;26037,104;63,02302
 892,01;16490,963;  259,496;26049,412;62,93726
 892,57;16480,040;  272,342;26020,565;62,94686
 893,13;16495,040;  246,650;25776,719;63,64413
 893,69;16396,117;  223,804;25697,873;63,48539
 894,24;16428,733;  241,265;25649,719;63,70898
 894,80;16444,194;  241,804;25554,565;64,00878
 895,36;16397,579;  247,727;25397,181;64,21552
 895,91;16331,425;  232,958;25253,796;64,34024
 896,47;16267,348;  254,650;25154,488;64,30844
 897,03;16264,579;  230,419;25040,181;64,62843
 897,58;16223,733;  254,265;24929,488;64,71863
 898,14;16182,887;  245,419;24805,873;64,89077
 898,70;16080,733;  212,804;24601,719;65,06205
 899,25;16160,579;  238,496;24590,796;65,38225
 899,81;16144,194;  244,881;24447,027;65,69382
 900,37;16039,579;  219,496;24229,027;65,89084
 900,92;16105,194;  241,188;24254,796;66,06257
 901,48;16035,348;  219,573;24116,258;66,18397
 902,03;15983,348;  219,727;23871,719;66,64817
 902,59;16020,963;  232,727;23853,796;66,83964
 903,15;15955,194;  245,265;23809,027;66,66987
 903,70;15837,733;  239,881;23473,719;67,13420
 904,26;15765,117;  233,112;23408,181;67,02032
 904,82;15869,194;  236,342;23407,950;67,46555
 905,37;15754,656;  247,804;23234,873;67,45902
 905,93;15734,425;  229,881;23086,950;67,83260
 906,48;15710,117;  240,650;23093,181;67,69258
 907,04;15714,733;  248,112;23024,335;67,90687
 907,60;15677,502;  233,035;22848,104;68,29281
 908,15;15554,271;  222,958;22672,412;68,29259
 908,71;15573,963;  258,419;22698,258;68,25158
 909,26;15623,502;  224,881;22501,796;69,12367
 909,82;15520,656;  254,265;22493,412;68,64648
 910,37;15584,502;  277,881;22386,027;69,23521
 910,93;15455,117;  228,727;22198,796;69,30515
 911,48;15391,963;  214,573;22115,642;69,29977
 912,04;15338,579;  229,496;22051,950;69,23641
 912,60;15423,348;  243,496;21990,719;69,80133
 913,15;15382,502;  235,342;21874,950;69,99739
 913,71;15264,733;  227,035;21640,181;70,22648
 914,26;15275,348;  212,112;21610,412;70,39455
 914,82;15256,887;  236,342;21583,181;70,36426
 915,37;15181,117;  221,573;21462,027;70,42949
 915,93;15225,810;  272,342;21413,258;70,73235
 916,48;15167,425;  219,188;21190,873;71,27819
 917,04;15111,425;  242,496;21185,565;70,99689
 917,59;15108,040;  253,342;21147,950;71,09345
 918,15;14987,810;  201,419;20903,719;71,42390
 918,70;14998,656;  228,496;20838,796;71,66397
 919,26;14967,194;  228,496;20751,181;71,81662
 919,81;14925,425;  212,727;20559,488;72,30978
 920,37;14920,502;  231,727;20512,950;72,42549
 920,92;14856,656;  242,804;20421,796;72,42112
 921,48;14735,887;  209,881;20279,873;72,37674
 922,03;14765,502;  210,573;20264,719;72,57815
 922,59;14715,502;  227,804;20154,412;72,70529
 923,14;14657,656;  227,112;20027,642;72,87958
 923,69;14640,887;  247,112;19924,565;73,14856
 924,25;14566,425;  243,342;19947,796;72,68957
 924,80;14519,656;  220,650;19736,104;73,27017
 925,36;14507,656;  223,112;19705,642;73,31976
 925,91;14539,117;  228,804;19547,335;74,07558
 926,47;14472,194;  208,188;19500,181;73,93744
 927,02;14510,425;  268,881;19422,719;74,35347
 927,57;14412,271;  221,650;19268,335;74,50442
 928,13;14401,887;  219,035;19187,181;74,77195
 928,68;14357,194;  216,881;19171,873;74,59942
 929,24;14306,040;  193,573;18956,181;75,21592
 929,79;14301,194;  215,496;18839,027;75,63388
 930,34;14202,733;  223,035;18777,488;75,34416
 930,90;14185,579;  220,958;18733,258;75,43429
 931,45;14241,502;  237,188;18704,796;75,83177
 932,01;14133,194;  237,804;18604,258;75,65636
 932,56;14097,887;  242,342;18426,335;76,19638
 933,11;14111,502;  248,804;18460,488;76,11980
 933,67;14009,117;  212,727;18240,258;76,52956
 934,22;14004,733;  228,419;18208,873;76,61827
 934,77;13949,348;  257,958;18076,335;76,83859
 935,33;13872,887;  232,035;17948,719;76,99438
 935,88;13850,348;  235,342;17888,950;77,12308
 936,43;13830,348;  219,265;17853,873;77,18393
 936,99;13779,271;  232,650;17785,719;77,17523
 937,54;13724,194;  206,035;17585,104;77,78414
 938,09;13783,348;  227,035;17601,565;78,02406
 938,65;13703,656;  232,188;17499,642;78,01652
 939,20;13680,656;  204,112;17404,488;78,35028
 939,75;13693,810;  209,188;17267,488;79,05021
 940,31;13646,502;  207,342;17111,181;79,50360
 940,86;13675,425;  227,573;17159,027;79,42526
 941,41;13620,425;  297,958;17040,488;79,57260
 941,96;13518,733;  206,804;16943,719;79,53633
 942,52;13436,656;  221,419;16860,258;79,42403
 943,07;13388,348;  207,265;16771,258;79,57673
 943,62;13422,810;  213,727;16700,258;80,12045
 944,18;13381,887;  210,804;16651,719;80,11161
 944,73;13392,348;  218,342;16579,719;80,51893
 945,28;13180,194;  192,881;16361,565;80,32387
 945,83;13261,194;  220,650;16426,181;80,46971
 946,39;13255,348;  213,804;16281,488;81,16629
 946,94;13285,425;  240,881;16218,796;81,64109
 947,49;13213,656;  218,573;16132,027;81,66098
 948,04;13180,271;  257,881;16075,488;81,69624
 948,59;13199,348;  236,727;15972,488;82,37683
 949,15;13159,656;  206,650;15893,488;82,57244
 949,70;13093,117;  213,342;15800,950;82,62830
 950,25;13049,194;  237,035;15759,873;82,53748
 950,80;12982,733;  189,881;15703,181;82,46377
 951,36;12993,579;  199,958;15601,258;83,06845
 951,91;13019,733;  228,342;15542,873;83,52453
 952,46;12839,040;  202,265;15409,719;83,09593
 953,01;12893,733;  237,650;15412,104;83,40388
 953,56;12812,348;  197,573;15242,719;83,84614
 954,11;12828,425;  230,112;15221,642;84,03620
 954,67;12798,810;  206,650;15153,719;84,24501
 955,22;12704,579;  193,342;15033,719;84,30538
 955,77;12777,963;  241,573;15066,873;84,56079
 956,32;12758,194;  258,958;14908,719;85,32041
 956,87;12585,117;  213,419;14765,258;85,01811
 957,42;12563,579;  221,188;14795,642;84,68510
 957,98;12572,117;  214,342;14672,488;85,47275
 958,53;12535,963;  234,265;14663,181;85,25726
 959,08;12480,656;  201,881;14547,104;85,59487
 959,63;12431,579;  207,804;14474,181;85,68241
 960,18;12449,425;  232,419;14434,488;86,02272
 960,73;12428,887;  214,496;14359,258;86,35275
 961,28;12360,040;  201,804;14329,796;86,05778
 961,83;12378,117;  238,112;14196,565;86,97242
 962,39;12330,040;  209,112;14137,258;87,02471
 962,94;12306,194;  229,112;14077,104;87,21180
 963,49;12264,963;  227,419;13949,104;87,72643
 964,04;12255,502;  234,112;13925,335;87,80363
 964,59;12132,502;  191,804;13798,719;87,75463
 965,14;12175,425;  243,265;13801,488;88,00681
 965,69;12131,579;  222,496;13690,181;88,42710
 966,24;12096,040;  211,112;13623,488;88,61165
 966,79;12083,733;  231,496;13524,258;89,16309
 967,34;11947,963;  199,496;13412,104;88,91861
 967,89;12009,887;  212,419;13317,258;90,02375
 968,44;11939,271;  221,112;13282,565;89,71558
 968,99;11924,733;  225,804;13275,719;89,64755
 969,55;11901,656;  225,958;13148,950;90,34826
 970,10;11823,194;  231,573;13099,950;90,07835
 970,65;11776,271;  236,881;12999,642;90,41453
 971,20;11704,656;  210,265;12905,027;90,54436
 971,75;11603,348;  192,419;12743,719;90,91432
 972,30;11558,733;  229,727;12757,796;90,42898
 972,85;11443,502;  202,496;12631,719;90,44013
 973,40;11463,425;  212,496;12491,796;91,62516
 973,95;11455,963;  228,804;12465,796;91,74771
 974,50;11449,040;  249,419;12374,950;92,36397
 975,05;11366,348;  222,419;12307,950;92,20885
 975,60;11373,348;  243,650;12237,181;92,79751
 976,15;11318,117;  217,035;12218,873;92,49485
 976,70;11234,348;  230,573;12122,873;92,52857
 977,25;11234,963;  232,342;12038,104;93,19705
 977,80;11106,733;  211,342;11892,104;93,27637
 978,35;11026,810;  231,958;11735,873;93,83633
 978,89;10946,502;  203,188;11688,642;93,53843
 979,44;10966,271;  220,265;11636,719;94,12735
 979,99;10844,656;  205,804;11508,873;94,12357
 980,54;10797,271;  243,804;11431,104;94,33436
 981,09;10767,271;  241,573;11321,642;94,99668
 981,64;10674,271;  238,804;11206,642;95,14607
 982,19;10610,117;  253,573;11203,412;94,58171
 982,74;10525,425;  244,496;11080,719;94,87557
 983,29;10446,887;  210,650;10954,258;95,27746
 983,84;10353,117;  228,112;10888,565;94,97725
 984,39;10347,887;  287,188;10869,104;95,07445
 984,94;10188,733;  202,419;10718,565;94,96172
 985,49;10154,887;  249,188;10677,642;94,98722
 986,03;10095,271;  244,496;10605,258;95,07771
 986,58; 9987,579;  271,419;10455,104;95,40908
 987,13; 9918,194;  228,265;10394,642;95,31349
 987,68; 9846,810;  242,419;10296,027;95,53178
 988,23; 9790,502;  243,958;10255,027;95,35989
 988,78; 9668,194;  222,958;10075,873;95,86235
 989,33; 9612,425;  239,496; 9960,027;96,42404
 989,88; 9578,656;  259,265; 9965,873;96,01079
 990,42; 9422,656;  229,419; 9825,950;95,79750
 990,97; 9324,194;  223,804; 9701,181;96,02225
 991,52; 9280,810;  244,188; 9648,642;96,08874
 992,07; 9218,963;  258,650; 9567,796;96,25280
 992,62; 9158,040;  246,035; 9442,335;96,90860
 993,17; 9111,348;  242,265; 9361,873;97,25290
 993,71; 9011,963;  235,496; 9281,642;97,01885
 994,26; 8902,579;  215,342; 9151,412;97,21541
 994,81; 8915,425;  246,496; 9142,642;97,44589
 995,36; 8787,579;  227,112; 8950,719;98,12990
 995,91; 8712,425;  242,265; 8909,488;97,72634
 996,45; 8669,117;  236,419; 8820,719;98,23396
 997,00; 8512,348;  207,958; 8733,565;97,40526
 997,55; 8518,579;  240,035; 8674,950;98,14614
 998,10; 8410,963;  264,265; 8576,796;98,00503
 998,65; 8366,579;  231,342; 8531,488;98,01317
 999,19; 8289,040;  245,265; 8443,642;98,11424
 999,74; 8227,887;  267,804; 8278,027;99,37405
1000,29; 8139,579;  248,881; 8217,950;99,01656
1000,84; 8020,194;  230,573; 8101,873;98,96232
1001,38; 8043,810;  238,035; 8027,719;100,20656
1001,93; 7940,348;  255,342; 7980,873;99,47544
1002,48; 7833,733;  228,342; 7828,719;100,06596
1003,03; 7801,502;  239,727; 7789,488;100,15912
1003,57; 7696,963;  238,804; 7741,719;99,40349
1004,12; 7668,502;  260,496; 7623,565;100,61030
1004,67; 7610,502;  235,650; 7545,796;100,88515
1005,22; 7479,656;  217,035; 7401,719;101,08476
1005,76; 7401,040;  221,342; 7280,181;101,71217
1006,31; 7359,040;  241,188; 7239,719;101,70495
1006,86; 7311,194;  231,496; 7143,719;102,42288
1007,40; 7136,271;  208,419; 7036,181;101,46593
1007,95; 7078,963;  239,881; 6959,181;101,78267
1008,50; 7059,271;  235,496; 6838,719;103,34006
1009,04; 6949,271;  228,573; 6743,796;103,15377
1009,59; 6828,040;  241,958; 6638,719;102,95964
1010,14; 6727,579;  219,265; 6575,642;102,39030
1010,68; 6627,810;  240,804; 6468,258;102,56207
1011,23; 6554,502;  231,881; 6378,719;102,85973
1011,78; 6502,502;  241,265; 6307,719;103,21082
1012,32; 6407,348;  250,035; 6180,796;103,81995
1012,87; 6365,810;  255,496; 6195,642;102,86470
1013,42; 6267,502;  220,112; 6063,412;103,49272
1013,96; 6288,656;  251,265; 6070,027;103,75731
1014,51; 6163,271;  195,496; 5976,412;103,23235
1015,06; 6194,963;  198,958; 5961,950;104,04327
1015,60; 6293,579;  268,881; 6060,412;104,02600
1016,15; 6268,810;  228,188; 5950,104;105,56991
1016,69; 6361,194;  234,573; 5960,642;106,99523
1017,24; 6332,271;  209,035; 5988,950;105,93990
1017,79; 6429,348;  257,188; 6042,950;106,67843
1018,33; 6436,579;  224,650; 6075,642;106,16881
1018,88; 6529,733;  240,342; 6074,181;107,80879
1019,42; 6552,040;  226,958; 6056,950;108,49213
1019,97; 6593,502;  219,958; 6031,796;109,66486
1020,51; 6650,887;  253,265; 6133,027;108,80749
1021,06; 6641,502;  212,342; 6067,335;109,80646
1021,61; 6650,040;  205,650; 6056,642;110,14184
1022,15; 6628,502;  179,958; 5999,873;110,80134
1022,70; 6634,425;  222,265; 6018,027;110,63533
1023,24; 6626,656;  214,727; 5998,488;110,86088
1023,79; 6577,117;  230,804; 5954,565;110,87662
1024,33; 6507,271;  213,419; 5880,104;111,06762
1024,88; 6455,348;  233,188; 5819,104;111,39015
1025,42; 6370,117;  233,035; 5729,104;111,66313
1025,97; 6302,733;  216,188; 5628,796;112,45124
1026,51; 6136,117;  192,188; 5505,873;111,86078
1027,06; 6111,502;  218,112; 5490,258;111,78352
1027,60; 6027,117;  236,265; 5386,565;112,43718
1028,15; 5976,040;  224,265; 5324,796;112,76817
1028,69; 5833,194;  179,958; 5196,258;112,69734
1029,24; 5797,502;  221,573; 5164,258;112,81175
1029,78; 5680,887;  213,188; 5064,873;112,69690
1030,33; 5614,502;  191,035; 4969,642;113,49472
1030,87; 5537,656;  209,496; 4948,181;112,43963
1031,42; 5428,579;  197,496; 4831,258;112,89063
1031,96; 5397,425;  229,958; 4776,488;113,65737
1032,51; 5328,733;  210,804; 4713,642;113,66006
1033,05; 5272,425;  224,496; 4639,796;114,32811
1033,60; 5139,040;  189,419; 4530,565;114,01646
1034,14; 5052,887;  216,727; 4478,258;113,48409
1034,69; 5026,348;  211,958; 4464,258;113,21850
1035,23; 4965,733;  210,035; 4369,719;114,32833
1035,77; 4921,271;  216,265; 4330,412;114,36166
1036,32; 4804,579;  186,727; 4232,873;114,12964
1036,86; 4777,040;  217,419; 4206,642;114,29848
1037,41; 4690,425;  223,804; 4155,027;113,61912
1037,95; 4661,963;  192,188; 4067,027;115,35384
1038,50; 4587,733;  201,804; 4014,181;115,04447
1039,04; 4542,194;  226,650; 3986,565;114,77770
1039,58; 4452,579;  211,496; 3931,796;113,99841
1040,13; 4415,348;  217,342; 3890,181;114,29868
1040,67; 4409,271;  247,419; 3840,335;115,83496
1041,21; 4335,656;  244,419; 3791,412;115,34382
1041,76; 4225,502;  195,419; 3682,565;115,56965
1042,30; 4211,502;  213,727; 3667,104;115,76422
1042,85; 4139,579;  205,804; 3611,181;115,51658
1043,39; 4099,117;  210,958; 3527,796;117,22487
1043,93; 4046,348;  236,496; 3525,181;115,84729
1044,48; 3965,117;  216,881; 3458,412;115,63168
1045,02; 3926,040;  215,496; 3391,488;116,83102
1045,56; 3868,887;  236,881; 3390,719;115,16144
1046,11; 3816,194;  231,496; 3368,027;114,28863
1046,65; 3819,656;  228,265; 3293,565;117,16277
1047,19; 3742,579;  216,035; 3216,873;117,51863
1047,74; 3669,810;  192,804; 3173,104;116,66630
1048,28; 3637,348;  217,573; 3149,873;116,62432
1048,82; 3618,579;  246,342; 3112,488;117,65752
1049,37; 3545,040;  230,035; 3063,104;117,01111
1049,91; 3526,502;  211,188; 3040,335;117,18424
1050,45; 3497,348;  233,188; 2985,719;118,58758
1050,99; 3429,194;  229,650; 2956,181;117,34855
1051,54; 3368,502;  208,573; 2865,412;118,93568
1052,08; 3361,502;  247,265; 2883,258;118,14285
1052,62; 3308,502;  241,419; 2835,950;118,21339
1053,16; 3262,040;  208,342; 2762,873;119,54047
1053,71; 3221,887;  223,188; 2731,642;119,54368
1054,25; 3173,194;  237,419; 2712,796;118,59911
1054,79; 3121,040;  229,881; 2674,104;118,28542
1055,33; 3068,425;  201,265; 2603,258;119,36589
1055,88; 3055,963;  235,881; 2567,488;120,95014
1056,42; 3016,656;  243,881; 2579,873;118,69795
1056,96; 2962,194;  240,419; 2534,796;118,62807
1057,50; 2964,271;  227,958; 2505,258;120,15604
1058,05; 2891,579;  216,188; 2435,950;120,52603
1058,59; 2866,425;  249,881; 2436,719;119,64963
1059,13; 2777,887;  212,727; 2355,258;119,72568
1059,67; 2770,117;  228,112; 2348,950;119,85853
1060,21; 2746,348;  220,881; 2301,719;121,36777
1060,76; 2712,502;  239,727; 2287,027;120,78225
1061,30; 2673,117;  246,496; 2275,104;119,62003
1061,84; 2625,348;  233,496; 2224,027;120,16151
1062,38; 2551,579;  214,881; 2153,104;120,55878
1062,92; 2601,117;  263,496; 2191,719;121,23188
1063,46; 2501,733;  250,342; 2135,565;119,42302
1064,01; 2468,348;  221,958; 2084,335;120,61954
1064,55; 2436,425;  229,188; 2065,642;120,19014
1065,09; 2378,348;  200,573; 1974,412;122,77189
1065,63; 2411,040;  263,035; 2042,873;120,68543
1066,17; 2387,040;  255,112; 2012,258;121,32906
1066,71; 2354,579;  251,881; 1995,719;120,57872
1067,25; 2297,502;  235,650; 1933,488;121,43982
1067,80; 2273,271;  238,804; 1928,412;120,41063
1068,34; 2282,733;  260,958; 1935,027;120,77009
1068,88; 2196,271;  224,573; 1857,412;120,75279
1069,42; 2221,271;  257,804; 1866,565;122,04837
1069,96; 2143,117;  230,035; 1806,258;121,37132
1070,50; 2185,810;  262,265; 1830,412;122,66358
1071,04; 2059,963;  226,958; 1775,258;118,38828
1071,58; 2059,502;  228,265; 1753,027;120,09986
1072,12; 2057,810;  235,188; 1738,873;121,21033
1072,66; 2036,656;  221,188; 1709,181;122,00784
1073,21; 2023,810;  244,112; 1729,104;119,84561
1073,75; 1978,271;  234,958; 1680,950;120,56174
1074,29; 1968,963;  241,958; 1645,027;123,08771
1074,83; 1960,656;  245,650; 1676,181;119,88598
1075,37; 1953,348;  246,573; 1652,642;121,38627
1075,91; 1911,425;  249,881; 1618,181;121,43128
1076,45; 1875,656;  237,573; 1606,104;119,69645
1076,99; 1842,040;  247,035; 1562,719;121,23010
1077,53; 1836,733;  228,650; 1542,719;122,37427
1078,07; 1803,579;  238,727; 1527,412;121,43017
1078,61; 1777,040;  244,112; 1495,950;122,45421
1079,15; 1754,502;  237,265; 1484,488;121,64917
1079,69; 1739,348;  226,496; 1473,258;121,34252
1080,23; 1735,733;  253,265; 1479,181;120,92738
1080,77; 1771,887;  272,804; 1493,796;122,77577
1081,31; 1668,194;  226,881; 1429,104;119,88736
1081,85; 1686,733;  249,727; 1421,565;122,62832
1082,39; 1654,810;  228,188; 1389,335;122,86319
1082,93; 1623,502;  255,804; 1379,181;121,74881
1083,47; 1584,579;  233,342; 1353,104;120,67181
1084,01; 1615,271;  249,112; 1369,565;121,92913
1084,55; 1563,194;  234,419; 1334,258;120,81547
1085,09; 1589,271;  255,881; 1343,181;122,63316
1085,63; 1540,963;  241,650; 1310,412;121,57188
1086,17; 1503,425;  226,804; 1293,258;119,70712
1086,71; 1497,963;  226,958; 1264,642;122,48478
1087,24; 1527,271;  261,650; 1288,796;123,21724
1087,78; 1508,348;  244,573; 1253,488;125,26075
1088,32; 1440,271;  228,881; 1207,335;123,80659
1088,86; 1456,271;  261,881; 1225,181;123,98945
1089,40; 1438,733;  241,265; 1206,873;124,01178
1089,94; 1385,348;  213,650; 1198,565;118,96434
1090,48; 1402,271;  257,419; 1166,488;125,93671
1091,02; 1404,733;  250,958; 1173,335;125,08715
1091,56; 1378,733;  244,112; 1148,335;125,48023
1092,10; 1350,887;  218,881; 1127,412;124,59741
1092,63; 1352,040;  260,188; 1146,104;123,24562
1093,17; 1327,502;  251,188; 1109,258;125,43434
1093,71; 1300,425;  232,650; 1096,719;123,57517
1094,25; 1308,656;  258,496; 1117,104;122,30960
1094,79; 1268,271;  233,112; 1085,181;121,48774
1095,33; 1262,963;  235,958; 1056,488;125,16359
1095,87; 1246,502;  243,573; 1068,873;121,52294
1096,40; 1204,656;  226,188; 1029,258;121,84097
1096,94; 1211,963;  235,342; 1011,335;125,85449
1097,48; 1219,117;  247,804; 1025,796;124,84872
1098,02; 1185,810;  228,573; 1004,258;123,40538
1098,56; 1133,348;  208,958;  970,258;121,42262
1099,10; 1125,271;  214,650;  962,873;121,70450
1099,63; 1149,271;  216,881;  949,488;127,27008
1100,17; 1161,887;  241,650;  972,565;125,90192
1100,71; 1131,656;  265,496;  968,565;123,19692

