
Integration time [ms]: 120,000
Averaging Nr. [scans]: 13
Smoothing Nr. [pixels]: 0
Data measured with spectrometer [name]: 2009305U1
Wave   ;Sample   ;Dark     ;Reference;Reflectance
[nm]   ;[counts] ;[counts] ;[counts] ;[%]

 175,72;  198,791;  201,729;  206,872;-57,14871
 176,32;  229,911;  218,186;  213,932; 0,00000
 176,92;  247,821;  251,189;  249,591; 0,00000
 177,52;  255,878;  249,113;  256,862;87,29610
 178,12;  235,281;  238,725;  218,250; 0,00000
 178,72;  261,822;  262,954;  247,860; 0,00000
 179,32;  243,975;  250,340;  247,043; 0,00000
 179,92;  245,915;  250,342;  243,729; 0,00000
 180,52;  242,851;  238,347;  240,736;188,51250
 181,12;  272,860;  258,034;  250,818; 0,00000
 181,73;  281,714;  272,650;  268,353; 0,00000
 182,33;  353,772;  341,884;  351,655;121,66704
 182,93;  270,981;  275,575;  267,614; 0,00000
 183,53;  239,433;  239,569;  226,246; 0,00000
 184,13;  240,245;  234,262;  230,039; 0,00000
 184,73;  282,440;  277,568;  272,393; 0,00000
 185,33;  263,897;  232,615;  345,677;27,66740
 185,93;  277,450;  245,073;  348,991;31,15576
 186,53;  293,377;  251,383;  367,173;36,26737
 187,13;  314,026;  271,464;  401,161;32,81653
 187,73;  269,739;  239,766;  346,389;28,11090
 188,33;  278,146;  238,149;  355,651;34,03930
 188,93;  287,577;  255,681;  354,167;32,38601
 189,53;  279,644;  258,060;  373,340;18,72309
 190,13;  315,028;  290,822;  407,960;20,66515
 190,73;  254,801;  217,519;  341,075;30,17404
 191,34;  297,700;  266,833;  379,465;27,40528
 191,94;  264,285;  235,608;  351,373;24,77178
 192,54;  286,250;  251,390;  369,660;29,47530
 193,14;  294,068;  263,925;  377,413;26,56079
 193,74;  285,114;  263,078;  378,201;19,14152
 194,34;  287,315;  260,310;  380,482;22,47168
 194,94;  256,018;  223,386;  339,780;28,03539
 195,54;  228,869;  203,693;  312,414;23,15692
 196,14;  263,229;  220,157;  353,619;32,27248
 196,74;  237,315;  214,922;  338,653;18,09762
 197,34;  231,638;  196,698;  319,609;28,42703
 197,94;  256,025;  237,079;  365,572;14,74431
 198,54;  273,755;  247,080;  380,114;20,05059
 199,14;  238,431;  210,546;  368,519;17,65190
 199,74;  241,559;  207,392;  366,691;21,44806
 200,34;  229,681;  197,469;  355,354;20,40215
 200,94;  261,440;  228,390;  407,380;18,46444
 201,54;  245,195;  222,622;  409,009;12,11070
 202,14;  283,349;  243,778;  440,040;20,16243
 202,74;  256,035;  221,853;  441,142;15,58754
 203,34;  231,139;  198,087;  459,415;12,64746
 203,94;  212,448;  171,394;  466,821;13,89650
 204,54;  278,778;  242,156;  543,763;12,14206
 205,14;  245,111;  198,315;  561,400;12,88841
 205,74;  296,269;  232,933;  638,687;15,60924
 206,34;  261,055;  204,470;  636,056;13,11095
 206,94;  278,497;  218,547;  688,144;12,76642
 207,54;  255,840;  174,778;  718,661;14,90425
 208,14;  273,719;  205,317;  793,743;11,62459
 208,74;  288,741;  214,161;  871,081;11,35301
 209,34;  285,762;  198,623;  933,736;11,85380
 209,94;  307,571;  210,315; 1008,119;12,19048
 210,54;  309,520;  210,240; 1112,466;11,00386
 211,14;  325,778;  213,392; 1206,006;11,32222
 211,73;  319,595;  204,314; 1298,510;10,53573
 212,33;  358,235;  225,698; 1403,055;11,25721
 212,93;  353,179;  204,468; 1488,353;11,58282
 213,53;  319,176;  178,853; 1530,484;10,38175
 214,13;  360,214;  193,089; 1619,086;11,71990
 214,73;  346,965;  189,855; 1644,501;10,80053
 215,33;  327,879;  170,469; 1671,042;10,48999
 215,93;  387,219;  199,010; 1779,950;11,90488
 216,53;  364,142;  175,314; 1843,429;11,31981
 217,13;  416,404;  219,164; 2025,749;10,91787
 217,73;  441,089;  195,703; 2217,986;12,13414
 218,33;  427,850;  149,166; 2386,125;12,45817
 218,93;  497,577;  177,401; 2679,163;12,79804
 219,53;  507,131;  199,705; 2920,374;11,29968
 220,13;  539,789;  159,475; 3206,578;12,48118
 220,73;  594,518;  187,392; 3517,693;12,22491
 221,32;  651,203;  188,392; 3874,081;12,55697
 221,92;  713,240;  202,551; 4264,174;12,57352
 222,52;  745,459;  174,934; 4661,073;12,71751
 223,12;  789,226;  181,165; 5075,819;12,42297
 223,72;  863,584;  195,319; 5442,991;12,73452
 224,32;  903,838;  192,626; 5845,976;12,58035
 224,92;  954,659;  189,088; 6108,737;12,93271
 225,52; 1027,317;  203,008; 6452,854;13,18927
 226,12; 1044,033;  185,856; 6698,534;13,17703
 226,72; 1081,998;  158,702; 7028,198;13,44052
 227,31; 1131,511;  155,240; 7354,420;13,56086
 227,91; 1187,591;  192,316; 7785,953;13,10669
 228,51; 1241,231;  178,083; 8109,623;13,40405
 229,11; 1295,320;  184,394; 8495,572;13,36666
 229,71; 1344,487;  186,699; 8716,250;13,57385
 230,31; 1390,086;  179,473; 9075,403;13,60861
 230,91; 1444,256;  166,235; 9391,911;13,85287
 231,51; 1494,064;  172,318; 9652,900;13,94161
 232,10; 1544,952;  171,474; 9976,672;14,00766
 232,70; 1610,853;  186,926;10145,097;14,29909
 233,30; 1675,068;  202,625;10365,435;14,48854
 233,90; 1667,889;  176,164;10513,657;14,43024
 234,50; 1710,436;  175,780;10561,473;14,77664
 235,10; 1758,274;  173,857;10664,121;15,10369
 235,70; 1761,912;  198,008;10648,200;14,96531
 236,29; 1818,166;  191,392;10629,618;15,58478
 236,89; 1772,061;  159,543;10478,016;15,62748
 237,49; 1836,713;  194,625;10431,184;16,04141
 238,09; 1782,748;  184,547;10154,902;16,02952
 238,69; 1809,510;  225,388; 9983,329;16,23418
 239,29; 1721,111;  176,470; 9652,505;16,30049
 239,89; 1699,855;  195,466; 9366,333;16,40400
 240,48; 1685,415;  177,163; 8974,124;17,14515
 241,08; 1640,318;  181,701; 8634,289;17,25646
 241,68; 1620,861;  192,009; 8356,134;17,50160
 242,28; 1567,390;  174,394; 8035,117;17,72096
 242,88; 1576,803;  219,166; 7828,258;17,84231
 243,48; 1532,355;  211,086; 7510,243;18,10166
 244,07; 1492,796;  192,316; 7275,406;18,36035
 244,67; 1503,974;  193,163; 7151,240;18,83869
 245,27; 1478,749;  196,314; 6989,894;18,87716
 245,87; 1484,320;  220,242; 6894,092;18,94076
 246,47; 1503,005;  191,545; 6923,749;19,48040
 247,06; 1525,713;  182,239; 6907,078;19,97779
 247,66; 1544,463;  174,855; 6941,503;20,24056
 248,26; 1597,091;  213,237; 7050,026;20,24128
 248,86; 1637,260;  202,776; 7247,862;20,36149
 249,46; 1644,706;  155,010; 7422,575;20,49787
 250,05; 1776,698;  205,393; 7732,627;20,87493
 250,65; 1826,728;  169,391; 8052,190;21,02473
 251,25; 1950,384;  188,700; 8492,681;21,21493
 251,85; 2040,048;  186,159; 8978,281;21,08580
 252,44; 2153,947;  152,930; 9520,688;21,36068
 253,04; 2325,441;  201,854;10265,000;21,10262
 253,64; 2469,924;  154,236;10900,597;21,54858
 254,24; 2712,109;  204,009;11741,224;21,73922
 254,84; 2917,398;  179,779;12519,882;22,18473
 255,43; 3110,522;  179,700;13422,613;22,13125
 256,03; 3331,537;  185,775;14398,265;22,13378
 256,63; 3546,959;  193,389;15343,007;22,13633
 257,23; 3724,457;  169,928;16095,163;22,32010
 257,82; 3978,925;  188,465;17044,616;22,48710
 258,42; 4151,896;  147,079;17784,581;22,70626
 259,02; 4394,840;  201,469;18712,709;22,65311
 259,62; 4511,133;  169,002;19302,986;22,69329
 260,21; 4656,190;  188,699;19810,500;22,76800
 260,81; 4790,394;  190,009;20287,806;22,88999
 261,41; 4827,005;  163,388;20645,074;22,76969
 262,01; 4996,461;  203,617;21237,688;22,78610
 262,60; 5046,149;  169,697;21451,470;22,91375
 263,20; 5117,455;  173,852;21765,449;22,89596
 263,80; 5205,475;  201,232;21997,474;22,95920
 264,40; 5182,406;  169,386;22117,392;22,84043
 264,99; 5263,400;  187,385;22332,574;22,92153
 265,59; 5278,966;  175,691;22368,883;22,99478
 266,19; 5248,987;  172,078;22546,184;22,69100
 266,78; 5310,015;  213,000;22692,956;22,67360
 267,38; 5290,268;  193,076;22721,709;22,62539
 267,98; 5252,962;  182,692;22678,223;22,53901
 268,58; 5241,550;  189,460;22711,392;22,43187
 269,17; 5218,892;  184,074;22772,031;22,28983
 269,77; 5160,606;  184,850;22568,779;22,22914
 270,37; 5111,260;  160,385;22470,206;22,19146
 270,96; 5093,527;  220,080;22415,265;21,95723
 271,56; 5009,164;  181,851;22134,075;21,99009
 272,16; 4943,328;  182,618;21964,063;21,85672
 272,75; 4894,672;  187,926;21924,911;21,65317
 273,35; 4821,538;  192,850;21843,823;21,37866
 273,95; 4808,184;  180,849;21764,698;21,43888
 274,54; 4775,943;  161,470;21761,566;21,36321
 275,14; 4819,241;  200,773;22189,200;21,00409
 275,74; 4796,366;  154,926;22167,808;21,08511
 276,33; 4891,799;  205,850;22504,881;21,01414
 276,93; 4902,168;  188,855;22848,853;20,80015
 277,53; 4994,063;  195,238;23368,098;20,70882
 278,12; 5017,595;  178,775;23806,277;20,47961
 278,72; 5226,668;  219,238;24373,847;20,73074
 279,32; 5273,042;  186,391;24798,059;20,66764
 279,91; 5408,586;  159,468;25562,541;20,66332
 280,51; 5509,843;  188,469;25967,321;20,64240
 281,11; 5692,638;  180,006;26630,763;20,84111
 281,70; 5772,975;  167,698;27049,153;20,85183
 282,30; 5879,087;  171,312;27551,998;20,84599
 282,90; 6018,511;  173,851;27939,485;21,04998
 283,49; 6146,742;  198,311;28439,687;21,06282
 284,09; 6259,617;  201,390;28910,339;21,10223
 284,69; 6434,569;  211,314;29098,297;21,54346
 285,28; 6505,105;  197,159;29476,937;21,54370
 285,88; 6714,059;  245,541;29721,166;21,94531
 286,47; 6718,153;  186,235;29759,467;22,08726
 287,07; 6830,530;  209,930;29811,041;22,36605
 287,67; 7011,432;  202,163;29911,397;22,91970
 288,26; 7131,993;  176,853;29846,860;23,44165
 288,86; 7308,732;  181,159;29866,006;24,01081
 289,46; 7492,457;  192,698;30055,269;24,44451
 290,05; 7669,180;  175,470;30059,663;25,07583
 290,65; 7959,335;  193,235;30239,781;25,84690
 291,24; 8210,861;  191,699;30304,873;26,63008
 291,84; 8445,728;  211,466;30425,700;27,25292
 292,44; 8745,095;  188,702;30600,545;28,13507
 293,03; 9076,617;  261,776;30732,753;28,92865
 293,63; 9216,255;  177,235;30773,553;29,54283
 294,22; 9448,266;  198,544;30973,729;30,05578
 294,82; 9660,341;  183,617;30975,077;30,77712
 295,41; 9708,513;  170,390;30638,076;31,30570
 296,01; 9848,472;  216,464;30605,787;31,69537
 296,61; 9892,797;  210,622;30362,350;32,11151
 297,20; 9895,867;  199,157;30000,191;32,53817
 297,80; 9951,392;  201,316;29818,216;32,92065
 298,39; 9889,510;  183,313;29490,512;33,11882
 298,99; 9939,091;  194,619;29344,735;33,42859
 299,58; 9884,923;  204,009;29207,145;33,37885
 300,18; 9846,370;  198,624;28990,588;33,50847
 300,78; 9786,701;  178,007;28703,929;33,68408
 301,37; 9769,187;  194,462;28642,972;33,65633
 301,97; 9792,278;  192,929;28648,490;33,73452
 302,56; 9726,322;  193,158;28653,764;33,49600
 303,16; 9736,930;  170,004;28481,819;33,79129
 303,75; 9741,966;  189,315;28525,061;33,71237
 304,35; 9801,163;  181,472;28720,066;33,70765
 304,94; 9821,751;  181,699;28731,637;33,76558
 305,54; 9832,280;  218,546;28672,081;33,78748
 306,13; 9701,200;  161,934;28573,068;33,57580
 306,73; 9643,134;  158,548;28317,031;33,68287
 307,33; 9704,152;  204,317;28321,045;33,78713
 307,92; 9620,642;  193,084;28380,531;33,44595
 308,52; 9729,278;  170,696;28741,356;33,45594
 309,11; 9898,296;  178,541;29205,878;33,48483
 309,71; 9966,858;  171,617;29443,116;33,46341
 310,30; 9986,683;  172,776;29648,606;33,29476
 310,90;10073,375;  208,853;29955,991;33,16125
 311,49;10119,159;  185,314;30028,673;33,28662
 312,09;10127,549;  161,008;30225,597;33,15043
 312,68;10258,792;  231,930;30664,330;32,94798
 313,28;10185,873;  167,314;30631,838;32,88599
 313,87;10247,043;  154,776;30809,032;32,92289
 314,47;10300,265;  172,157;30963,772;32,89242
 315,06;10314,706;  159,391;31159,668;32,75879
 315,66;10323,318;  174,547;31275,674;32,63152
 316,25;10247,684;  156,620;31163,214;32,54490
 316,85;10252,689;  151,778;31200,812;32,53213
 317,44;10285,730;  179,387;31341,615;32,43139
 318,04;10168,382;  164,466;31348,802;32,07994
 318,63;10172,608;  162,471;31389,074;32,05644
 319,22;10159,580;  188,158;31575,797;31,76863
 319,82;10119,568;  185,621;31708,679;31,51327
 320,41;10048,924;  187,158;31426,645;31,56827
 321,01;10079,744;  197,008;31533,415;31,53755
 321,60;10044,195;  189,390;31561,672;31,41246
 322,20; 9938,500;  169,315;31579,831;31,10164
 322,79; 9911,564;  204,391;31614,250;30,90486
 323,39; 9877,269;  181,472;31629,533;30,83114
 323,98; 9856,510;  168,930;31550,158;30,87062
 324,58; 9774,598;  170,619;31501,168;30,65372
 325,17; 9638,247;  174,543;31304,557;30,40058
 325,76; 9597,814;  206,776;31146,621;30,35257
 326,36; 9461,630;  171,239;30813,671;30,31871
 326,95; 9326,001;  200,390;30497,135;30,12076
 327,55; 9200,108;  163,774;30140,191;30,14481
 328,14; 9054,556;  168,855;29824,158;29,96328
 328,74; 8971,194;  199,004;29444,362;29,99515
 329,33; 8818,246;  198,931;29099,182;29,82436
 329,92; 8662,692;  163,464;28602,332;29,88596
 330,52; 8423,144;  184,240;28056,741;29,55926
 331,11; 8243,208;  173,390;27658,869;29,36029
 331,71; 8128,663;  179,929;27078,464;29,55081
 332,30; 7992,443;  201,083;26683,099;29,42132
 332,89; 7846,184;  237,161;26152,787;29,36075
 333,49; 7677,398;  187,159;25730,178;29,32402
 334,08; 7548,787;  176,851;25392,148;29,23597
 334,68; 7358,287;  185,928;24979,661;28,92811
 335,27; 7297,447;  201,086;24699,617;28,96647
 335,86; 7236,669;  229,544;24407,330;28,98167
 336,46; 7078,766;  201,625;24132,917;28,73702
 337,05; 7068,182;  178,698;23990,860;28,93263
 337,65; 7005,607;  166,851;23853,243;28,87209
 338,24; 7043,472;  226,161;23820,953;28,89329
 338,83; 6936,010;  209,546;23747,210;28,57745
 339,43; 6916,927;  166,158;23655,207;28,74007
 340,02; 6928,802;  179,542;23628,981;28,78218
 340,61; 6882,693;  175,622;23638,933;28,58536
 341,21; 6936,348;  213,312;23703,977;28,62003
 341,80; 6920,378;  189,082;23583,139;28,77353
 342,40; 6938,912;  191,932;23701,383;28,69901
 342,99; 6941,261;  184,623;23787,787;28,62598
 343,58; 6974,554;  187,392;23957,336;28,55354
 344,18; 7103,718;  197,239;24025,125;28,98486
 344,77; 7135,302;  175,542;24256,853;28,90108
 345,36; 7230,462;  158,083;24541,058;29,00540
 345,96; 7368,579;  208,239;24819,807;29,09339
 346,55; 7412,665;  181,703;25003,141;29,13192
 347,14; 7536,642;  169,778;25317,973;29,29381
 347,74; 7654,447;  150,628;25676,600;29,39680
 348,33; 7852,259;  178,089;26274,468;29,40703
 348,92; 7962,805;  197,629;26750,416;29,24430
 349,52; 8069,429;  164,167;27227,383;29,21036
 350,11; 8204,138;  175,773;27467,218;29,41715
 350,70; 8278,501;  181,622;27518,189;29,61922
 351,29; 8217,913;  167,461;27205,563;29,77447
 351,89; 8294,283;  187,156;27278,374;29,92530
 352,48; 8329,617;  152,237;27344,522;30,07243
 353,07; 8371,061;  183,548;27195,951;30,31020
 353,67; 8351,751;  191,630;27196,094;30,21768
 354,26; 8359,039;  177,778;27049,324;30,44581
 354,85; 8381,727;  190,931;26835,017;30,74152
 355,45; 8360,111;  168,313;26713,111;30,86028
 356,04; 8335,840;  182,548;26689,894;30,75861
 356,63; 8386,551;  218,467;26476,589;31,10688
 357,22; 8388,146;  191,924;26303,231;31,38955
 357,82; 8350,649;  184,463;26171,051;31,42462
 358,41; 8410,790;  207,160;26032,662;31,76561
 359,00; 8363,401;  173,004;25832,557;31,91948
 359,60; 8410,383;  187,238;25782,294;32,12786
 360,19; 8432,670;  193,548;25704,162;32,29684
 360,78; 8473,428;  191,313;25485,157;32,74360
 361,37; 8472,940;  177,159;25361,021;32,94086
 361,97; 8521,177;  191,852;25288,609;33,18885
 362,56; 8399,767;  171,388;24946,234;33,21263
 363,15; 8517,468;  217,544;24762,617;33,81503
 363,74; 8427,635;  192,157;24476,679;33,91246
 364,34; 8369,953;  205,773;24153,881;34,09113
 364,93; 8315,270;  177,696;23823,975;34,41376
 365,52; 8326,592;  154,467;23477,638;35,03865
 366,11; 8199,490;  187,774;23182,062;34,84220
 366,71; 8185,811;  191,389;22803,643;35,35438
 367,30; 8140,283;  188,467;22570,511;35,52766
 367,89; 8149,664;  227,393;22379,572;35,76294
 368,48; 8095,583;  202,234;22074,561;36,08829
 369,07; 8031,194;  189,391;21656,189;36,52991
 369,67; 7982,964;  210,926;21477,410;36,54594
 370,26; 7999,987;  175,468;21171,532;37,26660
 370,85; 7951,657;  182,082;20922,749;37,46058
 371,44; 7995,332;  188,237;20753,120;37,96323
 372,03; 7914,735;  163,235;20556,770;38,00959
 372,63; 7846,756;  158,775;20244,119;38,27657
 373,22; 7837,978;  175,930;20036,179;38,57982
 373,81; 7788,105;  159,236;19782,321;38,87701
 374,40; 7713,569;  173,778;19460,047;39,09409
 374,99; 7727,098;  176,467;19282,864;39,51886
 375,59; 7638,558;  172,085;19059,643;39,53117
 376,18; 7740,211;  201,005;18980,250;40,14648
 376,77; 7726,022;  196,006;18709,635;40,67282
 377,36; 7764,849;  208,390;18763,235;40,72499
 377,95; 7706,835;  191,543;18407,371;41,25693
 378,55; 7684,206;  172,931;18324,569;41,38070
 379,14; 7704,991;  186,159;18193,346;41,75461
 379,73; 7730,320;  190,005;18150,868;41,98192
 380,32; 7826,189;  184,775;18138,729;42,56118
 380,91; 7835,491;  157,311;18041,879;42,93187
 381,50; 7890,433;  201,158;18028,560;43,13178
 382,10; 7869,728;  168,621;17937,882;43,33949
 382,69; 7867,337;  168,621;17884,833;43,45577
 383,28; 7962,199;  202,466;17890,255;43,87057
 383,87; 7943,250;  176,542;17716,016;44,28131
 384,46; 7918,686;  170,540;17679,514;44,25243
 385,05; 8026,959;  208,696;17677,748;44,75494
 385,64; 8043,644;  192,235;17644,677;44,98745
 386,24; 8086,893;  163,386;17642,555;45,33114
 386,83; 8187,730;  199,540;17686,201;45,68162
 387,42; 8251,899;  196,851;17786,251;45,79490
 388,01; 8376,521;  194,076;17924,233;46,14988
 388,60; 8505,464;  191,925;18158,714;46,27170
 389,19; 8686,076;  177,997;18305,830;46,93379
 389,78; 8834,223;  179,228;18564,528;47,07563
 390,37; 9103,405;  240,000;18893,698;47,51554
 390,96; 9172,420;  189,001;18997,024;47,76376
 391,56; 9317,356;  194,919;19208,103;47,97953
 392,15; 9491,192;  184,690;19430,345;48,35638
 392,74; 9551,190;  159,069;19627,742;48,24222
 393,33; 9768,398;  183,688;19819,125;48,81333
 393,92; 9962,351;  193,298;20196,938;48,83638
 394,51;10106,310;  169,303;20392,440;49,13682
 395,10;10247,217;  207,062;20651,962;49,10836
 395,69;10360,798;  202,678;20752,398;49,43191
 396,28;10439,957;  208,983;20771,541;49,75536
 396,87;10545,381;  208,363;20898,450;49,96121
 397,46;10651,814;  215,129;20943,923;50,34873
 398,06;10789,358;  223,279;21139,960;50,51508
 398,65;10854,691;  204,578;21271,406;50,55395
 399,24;10909,287;  225,422;21394,542;50,46910
 399,83;10910,774;  198,331;21390,949;50,54799
 400,42;11091,527;  254,088;21553,748;50,88081
 401,01;11114,596;  213,074;21665,870;50,81632
 401,60;11205,848;  228,285;21657,881;51,22618
 402,19;11215,236;  249,039;21683,120;51,16243
 402,78;11315,729;  253,477;21718,293;51,53667
 403,37;11228,478;  237,763;21500,734;51,68946
 403,96;11196,193;  234,660;21369,983;51,86357
 404,55;11209,928;  263,323;21325,723;51,97226
 405,14;11106,582;  239,527;21175,396;51,90639
 405,73;11196,094;  256,881;21100,947;52,48119
 406,32;11125,494;  257,091;21055,753;52,25530
 406,91;11017,417;  238,759;20761,509;52,52053
 407,50;10979,759;  263,593;20641,761;52,58651
 408,09;10862,229;  237,815;20373,194;52,76491
 408,68;10861,221;  246,270;20291,234;52,95570
 409,27;10728,760;  245,355;20085,614;52,83905
 409,86;10698,487;  256,989;20002,333;52,88081
 410,45;10726,041;  288,928;19955,774;53,06958
 411,04;10691,720;  289,559;19904,468;53,03191
 411,63;10529,394;  273,350;19624,100;53,00076
 412,22;10481,873;  280,523;19482,421;53,12678
 412,81;10370,068;  293,145;19202,463;53,29078
 413,40;10236,151;  298,077;18947,508;53,28889
 413,99;10116,155;  328,535;18631,139;53,47665
 414,58; 9879,174;  271,614;18284,849;53,33612
 415,17; 9781,657;  279,991;18101,481;53,31578
 415,76; 9770,599;  256,368;17999,166;53,62306
 416,35; 9645,095;  258,680;17838,897;53,39192
 416,94; 9686,940;  295,139;17844,585;53,51622
 417,53; 9786,074;  266,761;18068,435;53,47426
 418,12; 9785,093;  261,609;18120,991;53,32482
 418,71;10023,251;  299,923;18412,108;53,68390
 419,30;10083,816;  278,225;18537,049;53,70330
 419,89;10137,299;  270,303;18741,244;53,41902
 420,48;10306,776;  290,231;18964,708;53,63762
 421,07;10322,144;  282,078;19006,851;53,61916
 421,66;10366,574;  257,159;19023,831;53,86898
 422,25;10355,272;  270,782;19022,155;53,78001
 422,84;10353,562;  301,245;19019,094;53,70445
 423,43;10235,586;  279,781;18735,300;53,94487
 424,02;10122,108;  302,397;18536,212;53,85440
 424,60; 9891,648;  262,406;18159,979;53,80194
 425,19; 9761,123;  274,402;17884,214;53,87179
 425,78; 9730,861;  288,248;17869,031;53,70986
 426,37; 9668,607;  290,329;17674,825;53,94622
 426,96; 9565,427;  276,406;17574,765;53,69885
 427,55; 9509,805;  262,565;17458,296;53,77637
 428,14; 9415,126;  276,951;17277,370;53,75265
 428,73; 9313,982;  281,178;17176,404;53,46364
 429,32; 9308,394;  289,944;17161,119;53,45479
 429,91; 9282,620;  302,947;17156,620;53,28021
 430,50; 9231,218;  287,873;16968,792;53,61423
 431,08; 9154,484;  301,183;16859,955;53,46593
 431,67; 9145,867;  337,494;16810,809;53,47056
 432,26; 9024,060;  350,957;16658,199;53,18558
 432,85; 8814,760;  376,957;16259,013;53,12790
 433,44; 8662,119;  372,883;15957,398;53,18892
 434,03; 8500,130;  388,580;15678,711;53,05089
 434,62; 8270,846;  356,807;15263,888;53,08913
 435,21; 8217,755;  369,419;15092,581;53,30605
 435,79; 8149,868;  378,809;14993,266;53,17378
 436,38; 8013,714;  360,429;14891,432;52,66866
 436,97; 7970,489;  363,276;14828,789;52,58861
 437,56; 7904,540;  357,591;14579,542;53,06550
 438,15; 7820,944;  330,897;14590,165;52,52757
 438,74; 7877,680;  347,051;14560,189;52,98358
 439,33; 7818,011;  329,127;14514,915;52,79146
 439,91; 7764,784;  288,284;14558,280;52,39315
 440,50; 7891,088;  339,669;14649,975;52,76910
 441,09; 7916,814;  341,211;14755,578;52,55592
 441,68; 7904,731;  323,215;14746,260;52,56529
 442,27; 7822,814;  313,368;14780,559;51,90673
 442,86; 7831,051;  285,530;14782,373;52,04940
 443,44; 7831,480;  302,067;14802,621;51,92501
 444,03; 7902,715;  356,300;14838,956;52,10657
 444,62; 7825,087;  306,069;14699,606;52,23885
 445,21; 7701,714;  315,068;14587,723;51,75384
 445,80; 7682,982;  345,919;14524,583;51,74721
 446,39; 7558,081;  356,302;14305,874;51,62724
 446,97; 7418,329;  292,385;14107,313;51,58148
 447,56; 7303,438;  312,927;13923,327;51,36154
 448,15; 7236,496;  304,846;13730,790;51,62877
 448,74; 7138,016;  322,693;13558,650;51,49098
 449,33; 7028,831;  317,773;13412,294;51,25089
 449,91; 6923,663;  316,162;13256,983;51,05937
 450,50; 6779,520;  299,238;12957,665;51,19342
 451,09; 6753,847;  319,854;12948,808;50,94637
 451,68; 6667,454;  331,779;12840,793;50,64888
 452,26; 6608,239;  330,781;12763,121;50,49297
 452,85; 6572,189;  309,241;12702,998;50,53309
 453,44; 6582,812;  337,093;12715,419;50,45689
 454,03; 6512,583;  305,474;12641,459;50,31709
 454,61; 6511,204;  302,171;12612,877;50,43605
 455,20; 6576,553;  334,173;12819,368;49,99826
 455,79; 6582,800;  334,631;12800,040;50,12406
 456,38; 6583,836;  334,869;12835,957;49,98738
 456,97; 6596,091;  314,175;12930,733;49,79104
 457,55; 6616,997;  327,024;12986,367;49,68641
 458,14; 6567,267;  359,328;12929,255;49,38723
 458,73; 6469,005;  336,255;12858,286;48,97568
 459,31; 6521,348;  360,105;12888,016;49,18013
 459,90; 6577,781;  365,642;13009,337;49,13231
 460,49; 6651,474;  401,179;13084,693;49,27889
 461,08; 6586,699;  331,646;13146,916;48,80937
 461,66; 6628,760;  333,874;13133,433;49,18049
 462,25; 6636,308;  346,724;13253,540;48,73072
 462,84; 6674,707;  372,415;13264,835;48,88370
 463,43; 6592,941;  312,728;13273,642;48,45501
 464,01; 6578,792;  335,346;13300,720;48,15477
 464,60; 6626,598;  382,881;13257,123;48,49774
 465,19; 6471,741;  310,193;13024,885;48,46007
 465,77; 6408,295;  346,195;12957,829;48,06753
 466,36; 6429,107;  355,190;12871,454;48,52820
 466,95; 6225,768;  338,421;12568,117;48,13977
 467,53; 6143,193;  349,274;12329,878;48,36082
 468,12; 6028,686;  370,198;12130,524;48,11506
 468,71; 5842,313;  358,578;11902,890;47,50162
 469,29; 5740,450;  329,044;11685,581;47,65014
 469,88; 5615,585;  343,892;11486,547;47,31092
 470,47; 5679,405;  405,357;11586,317;47,16990
 471,06; 5607,313;  349,127;11501,943;47,14671
 471,64; 5657,427;  352,280;11596,839;47,17968
 472,23; 5639,259;  321,594;11583,969;47,21619
 472,81; 5654,168;  323,437;11719,893;46,77534
 473,40; 5701,206;  338,671;11817,928;46,71500
 473,99; 5827,308;  438,979;12040,937;46,44327
 474,57; 5819,990;  340,133;12159,994;46,36143
 475,16; 5872,313;  360,361;12218,465;46,48258
 475,75; 5926,743;  373,289;12384,013;46,23746
 476,33; 5964,301;  377,523;12477,109;46,17330
 476,92; 5925,583;  374,980;12492,704;45,80566
 477,51; 5966,238;  368,983;12553,558;45,93722
 478,09; 5925,981;  376,598;12581,345;45,46905
 478,68; 5912,853;  378,292;12542,433;45,49899
 479,27; 5929,100;  397,751;12597,596;45,33950
 479,85; 5883,419;  370,599;12553,004;45,25231
 480,44; 5910,943;  361,908;12606,505;45,31823
 481,02; 6396,454;  378,757;13796,042;44,85033
 481,61; 7235,299;  402,064;15652,194;44,80772
 482,20; 7731,671;  389,526;16794,488;44,75564
 482,78; 8051,410;  417,446;17518,987;44,63904
 483,37; 8226,437;  400,222;18018,243;44,42165
 483,95; 8405,583;  423,531;18194,276;44,91681
 484,54; 8442,753;  435,063;18409,352;44,55080
 485,13; 8408,343;  397,380;18366,598;44,58159
 485,71; 8246,471;  376,840;18058,972;44,50612
 486,30; 8195,598;  431,071;17894,682;44,46118
 486,88; 8047,500;  442,688;17531,852;44,50078
 487,47; 7744,708;  433,535;16893,254;44,41858
 488,05; 7409,321;  429,767;16157,182;44,37827
 488,64; 6936,597;  425,000;14969,596;44,76987
 489,23; 6208,402;  430,229;13365,258;44,67074
 489,81; 5238,252;  430,538;11432,053;43,70047
 490,40; 4955,143;  382,077;10874,205;43,58569
 490,98; 4811,719;  357,462;10591,516;43,52387
 491,57; 4775,373;  397,999;10567,510;43,04409
 492,15; 4726,918;  373,771;10500,179;42,98807
 492,74; 4680,587;  389,152;10406,749;42,83897
 493,32; 4699,157;  402,616;10315,377;43,34354
 493,91; 4576,249;  379,387;10229,194;42,60857
 494,50; 4577,013;  391,392;10263,082;42,40025
 495,08; 4555,529;  369,546;10121,789;42,92329
 495,67; 4528,856;  390,772;10132,736;42,47690
 496,25; 4433,453;  326,544;10026,577;42,33912
 496,84; 4462,154;  347,156;10026,563;42,51291
 497,42; 4387,326;  330,468; 9959,484;42,13159
 498,01; 4414,313;  367,080; 9902,920;42,44234
 498,59; 4310,795;  317,237; 9817,250;42,03740
 499,18; 4289,168;  328,080; 9836,658;41,65805
 499,76; 4271,823;  354,775; 9744,638;41,71572
 500,35; 4202,243;  347,086; 9572,984;41,78625
 500,93; 4198,572;  325,852; 9577,089;41,86164
 501,52; 4120,732;  330,237; 9470,573;41,46997
 502,10; 4090,092;  346,011; 9496,038;40,91879
 502,69; 4023,585;  334,090; 9334,329;40,99330
 503,27; 3929,921;  317,777; 9147,938;40,90689
 503,86; 3922,504;  327,474; 9068,484;41,12831
 504,44; 3839,947;  311,398; 8999,373;40,61416
 505,03; 3744,728;  292,860; 8772,262;40,70887
 505,61; 3688,826;  315,167; 8645,426;40,49885
 506,19; 3613,615;  329,629; 8542,030;39,98813
 506,78; 3525,701;  302,940; 8351,751;40,04021
 507,36; 3474,219;  305,244; 8211,729;40,08070
 507,95; 3399,349;  326,558; 8031,400;39,88131
 508,53; 3355,472;  308,094; 7979,494;39,72388
 509,12; 3313,241;  315,403; 7891,907;39,56755
 509,70; 3272,410;  323,250; 7716,130;39,89190
 510,29; 3231,954;  341,483; 7629,516;39,66051
 510,87; 3125,139;  305,402; 7432,639;39,56283
 511,46; 3051,553;  302,941; 7270,954;39,44613
 512,04; 2998,724;  300,635; 7159,948;39,33467
 512,62; 2958,988;  326,710; 7059,818;39,09454
 513,21; 2857,631;  290,714; 6856,757;39,09383
 513,79; 2830,735;  306,027; 6749,780;39,18070
 514,38; 2725,705;  290,640; 6580,820;38,71216
 514,96; 2738,299;  329,640; 6537,501;38,80014
 515,54; 2634,734;  284,641; 6411,547;38,35692
 516,13; 2645,716;  316,257; 6365,150;38,51051
 516,71; 2572,652;  293,413; 6187,097;38,67256
 517,30; 2502,911;  298,492; 6100,160;37,99628
 517,88; 2498,028;  317,031; 6059,697;37,97882
 518,46; 2404,401;  286,109; 5948,733;37,40830
 519,05; 2410,203;  296,187; 5904,152;37,69666
 519,63; 2386,046;  312,494; 5837,280;37,53180
 520,22; 2360,494;  314,651; 5819,016;37,16764
 520,80; 2318,426;  310,883; 5738,447;36,98793
 521,38; 2333,122;  334,495; 5731,616;37,03135
 521,97; 2277,843;  293,500; 5657,788;36,99174
 522,55; 2257,498;  318,038; 5672,813;36,21926
 523,13; 2237,894;  293,962; 5633,143;36,40880
 523,72; 2225,902;  301,647; 5659,501;35,91467
 524,30; 2291,069;  324,733; 5771,568;36,10052
 524,89; 2257,314;  294,346; 5746,142;36,00590
 525,47; 2279,202;  313,426; 5873,635;35,35435
 526,05; 2240,274;  278,657; 5922,665;34,75574
 526,64; 2322,391;  323,351; 6001,539;35,20561
 527,22; 2337,600;  318,349; 6135,190;34,71388
 527,80; 2390,470;  347,504; 6262,947;34,53615
 528,39; 2367,815;  301,198; 6336,439;34,24249
 528,97; 2404,374;  295,736; 6473,141;34,13469
 529,55; 2453,227;  310,039; 6638,152;33,86772
 530,14; 2521,638;  333,353; 6782,175;33,93309
 530,72; 2525,347;  306,120; 6881,159;33,75230
 531,30; 2540,647;  294,045; 6980,759;33,59799
 531,89; 2556,468;  316,891; 7098,981;33,02192
 532,47; 2599,099;  340,508; 7179,358;33,02589
 533,05; 2591,189;  327,889; 7206,237;32,90471
 533,63; 2617,286;  346,816; 7320,901;32,55581
 534,22; 2634,401;  307,816; 7328,722;33,13796
 534,80; 2632,784;  338,357; 7389,806;32,53837
 535,38; 2708,771;  412,353; 7502,857;32,38722
 535,97; 2614,175;  318,046; 7407,846;32,38636
 536,55; 2662,728;  371,819; 7484,972;32,20667
 537,13; 2650,880;  378,045; 7457,091;32,10651
 537,71; 2662,871;  408,506; 7522,121;31,69084
 538,30; 2683,737;  432,817; 7585,910;31,46778
 538,88; 2702,220;  469,897; 7660,675;31,04425
 539,46; 2787,515;  541,588; 7831,755;30,80762
 540,05; 2800,307;  557,358; 7964,077;30,28262
 540,63; 2856,626;  596,666; 8108,608;30,08490
 541,21; 2881,942;  625,206; 8260,452;29,55683
 541,79; 2932,225;  662,283; 8345,751;29,54320
 542,38; 3001,298;  681,742; 8498,338;29,67475
 542,96; 3013,446;  701,977; 8638,609;29,12405
 543,54; 3058,331;  719,744; 8861,218;28,72436
 544,12; 3083,476;  696,591; 8941,174;28,95095
 544,70; 3070,444;  672,747; 9030,355;28,68880
 545,29; 3122,053;  683,743; 9151,014;28,79688
 545,87; 3112,071;  650,898; 9205,136;28,77139
 546,45; 3089,646;  605,588; 9222,491;28,82773
 547,03; 3093,644;  598,051; 9248,623;28,84888
 547,62; 3107,350;  568,745; 9376,130;28,82360
 548,20; 3163,142;  568,900; 9540,760;28,91532
 548,78; 3144,971;  525,136; 9614,143;28,82421
 549,36; 3166,694;  493,751; 9815,403;28,67457
 549,94; 3166,214;  453,053; 9900,376;28,71884
 550,53; 3226,639;  468,442;10132,079;28,54202
 551,11; 3239,665;  419,291;10261,657;28,65545
 551,69; 3305,901;  444,135;10523,829;28,39140
 552,27; 3294,228;  415,518;10761,760;27,82373
 552,85; 3368,461;  411,444;11102,716;27,65823
 553,44; 3430,376;  404,904;11349,153;27,64440
 554,02; 3512,739;  418,674;11698,555;27,42994
 554,60; 3559,046;  357,060;11986,584;27,53325
 555,18; 3656,900;  405,981;12299,240;27,33413
 555,76; 3696,905;  371,674;12580,521;27,23624
 556,34; 3789,628;  372,985;12928,483;27,21233
 556,93; 3861,411;  370,058;13278,593;27,04685
 557,51; 3896,242;  355,062;13566,586;26,80372
 558,09; 3952,680;  375,828;13889,695;26,46802
 558,67; 4033,276;  383,525;14243,901;26,33227
 559,25; 4128,927;  387,601;14502,516;26,50619
 559,83; 4151,634;  361,219;14712,948;26,41086
 560,41; 4218,096;  358,446;15061,399;26,25085
 561,00; 4264,840;  370,679;15405,602;25,90077
 561,58; 4308,355;  352,292;15564,740;26,00543
 562,16; 4382,703;  354,675;15827,248;26,03334
 562,74; 4426,315;  333,674;16170,299;25,84289
 563,32; 4506,584;  343,449;16487,161;25,78796
 563,90; 4620,443;  365,371;16893,406;25,74457
 564,48; 4675,488;  366,138;17252,932;25,51906
 565,06; 4770,369;  348,756;17790,633;25,35056
 565,65; 4884,262;  370,452;18364,895;25,08447
 566,23; 5142,801;  407,218;18999,500;25,47069
 566,81; 5221,569;  357,447;19670,421;25,18577
 567,39; 5378,128;  364,527;20526,056;24,86716
 567,97; 5601,577;  383,525;21033,571;25,26896
 568,55; 5752,329;  410,988;21775,741;25,00072
 569,13; 5825,107;  359,756;22407,065;24,78920
 569,71; 6054,729;  358,060;23291,076;24,84047
 570,29; 6329,809;  409,981;24137,455;24,94925
 570,87; 6420,081;  399,290;24791,379;24,68338
 571,45; 6510,406;  392,987;25303,173;24,55790
 572,03; 6574,891;  349,912;25699,267;24,55676
 572,61; 6686,727;  348,911;26399,372;24,32900
 573,20; 6861,958;  381,831;27027,545;24,31959
 573,78; 6960,904;  370,603;27582,819;24,21817
 574,36; 7035,206;  379,218;28016,539;24,08333
 574,94; 7126,578;  428,682;28281,862;24,04715
 575,52; 7099,555;  384,531;28548,552;23,84256
 576,10; 7213,261;  439,607;29100,078;23,63414
 576,68; 7296,392;  424,989;29663,753;23,50100
 577,26; 7435,130;  437,225;30132,352;23,56584
 577,84; 7515,447;  435,603;30649,174;23,43266
 578,42; 7512,119;  487,683;30852,657;23,13335
 579,00; 7481,455;  434,603;30962,554;23,08328
 579,58; 7528,641;  466,528;31145,999;23,01902
 580,16; 7502,383;  454,375;31274,508;22,86819
 580,74; 7520,945;  459,068;31409,801;22,81651
 581,32; 7436,380;  453,221;31471,405;22,51311
 581,90; 7399,782;  475,068;31360,832;22,42041
 582,48; 7377,703;  481,145;31530,012;22,21195
 583,06; 7377,652;  467,759;31645,146;22,16316
 583,64; 7372,783;  465,066;31726,545;22,09658
 584,22; 7256,458;  475,224;31533,208;21,83411
 584,80; 7189,657;  485,606;31311,453;21,74815
 585,38; 7014,822;  497,446;30916,404;21,42537
 585,96; 6981,873;  459,758;31068,098;21,30829
 586,54; 6955,439;  481,454;31036,758;21,18776
 587,12; 6864,541;  462,761;31161,891;20,85330
 587,70; 6884,203;  481,450;31347,237;20,74385
 588,28; 6828,568;  461,915;31385,412;20,58840
 588,86; 6799,804;  476,992;31519,846;20,36801
 589,44; 6746,037;  451,996;31455,187;20,30127
 590,02; 6743,803;  451,610;31719,238;20,12366
 590,59; 6782,684;  430,608;31929,235;20,16620
 591,17; 6729,653;  428,845;32006,144;19,95360
 591,75; 6735,804;  418,766;32126,473;19,92272
 592,33; 6766,597;  443,688;32340,353;19,82310
 592,91; 6681,675;  393,306;32671,434;19,48183
 593,49; 6735,119;  404,307;32802,681;19,54052
 594,07; 6737,210;  422,846;33033,313;19,36300
 594,65; 6714,423;  438,224;33079,333;19,22790
 595,23; 6743,099;  416,687;33409,322;19,17522
 595,81; 6758,833;  408,534;33545,835;19,16360
 596,39; 6710,369;  406,457;33624,196;18,97755
 596,97; 6716,266;  398,690;33796,195;18,91631
 597,55; 6673,157;  392,455;33700,615;18,85635
 598,12; 6599,162;  386,693;33728,117;18,63288
 598,70; 6619,938;  391,768;33818,620;18,63224
 599,28; 6631,438;  404,768;34013,287;18,52706
 599,86; 6579,658;  397,152;33965,114;18,41788
 600,44; 6527,751;  356,461;34064,721;18,30795
 601,02; 6558,541;  417,695;34218,050;18,16799
 601,60; 6506,252;  392,535;34173,150;18,09830
 602,18; 6436,779;  365,462;34152,602;17,96932
 602,75; 6422,349;  373,072;34232,157;17,86604
 603,33; 6400,309;  381,922;34418,757;17,68198
 603,91; 6420,275;  360,540;34325,147;17,84132
 604,49; 6366,038;  398,999;34393,682;17,55286
 605,07; 6283,677;  386,304;34345,533;17,36604
 605,65; 6273,555;  406,615;34436,391;17,24061
 606,23; 6279,560;  464,608;34619,214;17,02538
 606,80; 6269,631;  514,995;34630,071;16,86831
 607,38; 6222,986;  546,155;34683,826;16,62923
 607,96; 6264,414;  597,457;34728,164;16,60369
 608,54; 6281,222;  652,769;34860,921;16,45354
 609,12; 6241,362;  655,918;34823,046;16,34742
 609,70; 6243,403;  695,229;34929,540;16,20647
 610,27; 6169,956;  700,687;35001,084;15,94521
 610,85; 6183,431;  718,844;35003,187;15,93902
 611,43; 6136,003;  717,537;34987,961;15,81091
 612,01; 6031,271;  684,304;34750,674;15,69573
 612,59; 6029,237;  672,460;34737,035;15,72536
 613,16; 5977,253;  644,224;34690,217;15,66419
 613,74; 5904,116;  620,153;34677,271;15,51501
 614,32; 5908,400;  581,846;34577,418;15,66837
 614,90; 5789,170;  533,613;34521,641;15,46297
 615,48; 5774,093;  481,379;34204,658;15,69454
 616,05; 5697,975;  456,916;34228,119;15,51931
 616,63; 5671,549;  469,069;34010,964;15,51039
 617,21; 5595,098;  462,072;33849,657;15,37406
 617,79; 5531,882;  441,765;33792,598;15,26234
 618,36; 5559,267;  445,766;33676,601;15,38782
 618,94; 5390,615;  385,302;33551,233;15,09173
 619,52; 5369,045;  405,916;33249,711;15,11132
 620,10; 5347,732;  393,841;33235,799;15,08403
 620,67; 5303,972;  413,146;33193,170;14,92014
 621,25; 5294,009;  421,151;33002,568;14,95594
 621,83; 5227,013;  406,225;32912,046;14,83054
 622,41; 5247,348;  450,071;32859,540;14,80208
 622,98; 5172,948;  415,300;32663,673;14,75314
 623,56; 5160,427;  418,299;32733,532;14,67459
 624,14; 5111,345;  395,998;32622,603;14,63185
 624,72; 5090,116;  382,686;32516,489;14,64946
 625,29; 5039,926;  382,069;32529,661;14,48898
 625,87; 5067,368;  417,765;32515,376;14,48582
 626,45; 4998,202;  372,914;32343,321;14,46740
 627,02; 4955,225;  383,381;32318,396;14,31609
 627,60; 4919,072;  359,538;32308,045;14,27151
 628,18; 4878,823;  351,841;32275,815;14,18051
 628,76; 4857,586;  361,377;32234,196;14,10672
 629,33; 4875,983;  382,840;32184,576;14,12861
 629,91; 4844,348;  362,688;32279,184;14,04183
 630,49; 4876,374;  388,070;32417,596;14,01302
 631,06; 4834,622;  381,454;32548,609;13,84383
 631,64; 4830,148;  374,453;32413,461;13,90709
 632,22; 4764,546;  339,990;32414,294;13,79471
 632,79; 4847,277;  371,913;32640,346;13,86917
 633,37; 4803,654;  346,150;32776,778;13,74473
 633,95; 4815,960;  342,145;32761,252;13,79993
 634,52; 4786,130;  344,686;32872,044;13,65449
 635,10; 4756,736;  345,072;32898,950;13,55188
 635,68; 4786,944;  340,913;33024,645;13,60319
 636,25; 4776,285;  328,219;33057,515;13,59047
 636,83; 4798,586;  319,454;33308,812;13,57751
 637,41; 4788,180;  339,528;33312,742;13,49172
 637,98; 4833,260;  356,989;33467,304;13,51926
 638,56; 4801,292;  345,911;33589,662;13,40216
 639,13; 4769,757;  336,838;33647,671;13,30774
 639,71; 4818,685;  368,070;33756,978;13,32962
 640,29; 4727,001;  300,377;33598,392;13,29396
 640,86; 4764,229;  324,762;33698,719;13,30219
 641,44; 4756,071;  321,070;33764,584;13,26117
 642,02; 4780,375;  343,454;33797,372;13,26278
 642,59; 4737,449;  330,070;33899,160;13,12928
 643,17; 4746,984;  307,455;33825,564;13,24517
 643,74; 4726,211;  332,147;33897,121;13,09122
 644,32; 4738,823;  350,224;33794,602;13,12208
 644,89; 4702,512;  339,455;33886,236;13,00589
 645,47; 4744,278;  364,301;33822,870;13,09075
 646,05; 4713,890;  338,917;33844,120;13,05759
 646,62; 4672,040;  333,532;33775,754;12,97314
 647,20; 4665,806;  340,609;33996,004;12,85142
 647,77; 4652,572;  309,686;33826,177;12,95746
 648,35; 4636,491;  300,148;33744,657;12,96579
 648,92; 4627,180;  332,917;33742,599;12,85335
 649,50; 4617,253;  299,763;33743,079;12,90987
 650,08; 4590,096;  313,379;33643,868;12,83125
 650,65; 4592,093;  308,148;33873,117;12,76314
 651,23; 4678,089;  287,533;34500,213;12,83313
 651,80; 4782,470;  284,225;35347,924;12,82878
 652,38; 4843,698;  304,918;35719,482;12,81614
 652,95; 4896,617;  285,379;36081,193;12,88206
 653,53; 4979,229;  321,149;36346,443;12,93003
 654,10; 5048,226;  336,841;36454,538;13,04453
 654,68; 4987,607;  300,611;36378,250;12,99142
 655,25; 4998,757;  289,918;36456,422;13,01989
 655,83; 4986,985;  296,688;36537,364;12,94208
 656,40; 5013,827;  332,534;36506,845;12,94093
 656,98; 4977,593;  292,457;36424,171;12,96682
 657,55; 4979,974;  309,842;36363,652;12,95323
 658,13; 4916,125;  295,842;35883,286;12,98290
 658,70; 4859,506;  318,227;35800,074;12,79888
 659,28; 4739,887;  303,304;34942,170;12,80811
 659,85; 4663,037;  323,381;34232,958;12,79773
 660,43; 4678,111;  322,458;34213,516;12,85192
 661,00; 4632,107;  302,304;34383,073;12,70454
 661,58; 4679,565;  295,073;34619,630;12,77363
 662,15; 4680,639;  296,996;34827,265;12,69507
 662,73; 4803,943;  355,997;35099,514;12,80223
 663,30; 4774,401;  313,227;35312,764;12,74638
 663,88; 4813,475;  305,766;35433,783;12,83223
 664,45; 4863,086;  299,920;35638,648;12,91265
 665,03; 4878,391;  297,382;35915,513;12,86145
 665,60; 5001,849;  374,151;36403,609;12,84421
 666,17; 4962,153;  312,920;36516,166;12,84203
 666,75; 5009,226;  298,997;36774,339;12,91346
 667,32; 5084,377;  329,074;37023,204;12,95930
 667,90; 5092,373;  312,921;37335,146;12,90969
 668,47; 5161,216;  323,382;37535,934;13,00054
 669,05; 5188,751;  314,075;37830,722;12,99337
 669,62; 5171,440;  291,152;37968,895;12,95271
 670,19; 5193,667;  275,767;37959,837;13,05034
 670,77; 5223,202;  303,767;38223,317;12,97335
 671,34; 5222,891;  295,152;38101,336;13,03421
 671,92; 5273,888;  290,229;38389,586;13,08069
 672,49; 5331,884;  308,614;38431,759;13,17643
 673,06; 5291,650;  266,229;38504,701;13,14232
 673,64; 5281,185;  280,537;38489,643;13,08758
 674,21; 5270,797;  282,614;38387,662;13,09061
 674,79; 5311,178;  309,153;38620,988;13,05608
 675,36; 5362,405;  315,230;38708,699;13,14592
 675,93; 5336,709;  283,537;38668,257;13,16454
 676,51; 5416,321;  308,768;38746,045;13,28802
 677,08; 5400,856;  299,307;38908,910;13,21316
 677,65; 5450,237;  307,845;38928,621;13,31509
 678,23; 5473,003;  305,922;39173,179;13,29417
 678,80; 5486,231;  291,153;39328,351;13,30802
 679,38; 5546,227;  295,153;39473,293;13,40307
 679,95; 5562,608;  304,769;39654,620;13,36178
 680,52; 5571,143;  296,000;39890,716;13,32285
 681,10; 5666,063;  304,384;40293,888;13,40771
 681,67; 5731,906;  299,923;40502,215;13,51162
 682,24; 5731,133;  273,615;40588,849;13,53711
 682,82; 5823,052;  290,077;41102,484;13,55709
 683,39; 5896,972;  326,923;41358,964;13,57488
 683,96; 5933,738;  288,308;41611,983;13,66149
 684,54; 5984,580;  272,616;41813,848;13,75011
 685,11; 6054,192;  310,385;42132,482;13,73391
 685,68; 6095,420;  286,308;42546,424;13,74608
 686,25; 6120,647;  274,616;42635,059;13,80068
 686,83; 6178,336;  273,693;42791,462;13,88747
 687,40; 6243,025;  269,386;43071,789;13,95632
 687,97; 6343,098;  322,386;43388,808;13,98006
 688,55; 6293,556;  258,001;43466,903;13,96831
 689,12; 6337,784;  255,617;43682,692;14,00547
 689,69; 6412,088;  266,232;43795,787;14,11881
 690,26; 6402,007;  284,771;43954,499;14,00796
 690,84; 6426,773;  291,771;44189,364;13,97571
 691,41; 6495,231;  306,309;44136,844;14,12011
 691,98; 6540,997;  294,848;44588,478;14,10169
 692,56; 6569,763;  282,694;44574,882;14,19453
 693,13; 6622,067;  333,464;44633,593;14,19545
 693,70; 6639,679;  302,925;44812,381;14,23687
 694,27; 6635,983;  290,387;44812,708;14,25262
 694,84; 6698,287;  282,695;45005,957;14,34509
 695,42; 6816,745;  334,310;45101,899;14,48020
 695,99; 6782,280;  304,079;45276,918;14,40470
 696,56; 6762,508;  294,080;45164,014;14,41595
 697,13; 6881,504;  298,849;45467,264;14,57358
 697,71; 6853,424;  289,003;45588,129;14,49128
 698,28; 6949,959;  299,080;45841,302;14,60376
 698,85; 6910,725;  268,157;45908,628;14,55412
 699,42; 6969,183;  267,772;46123,263;14,61419
 699,99; 7049,025;  304,926;46237,128;14,68273
 700,57; 7061,330;  297,311;46230,070;14,72591
 701,14; 7090,788;  280,311;46376,935;14,77435
 701,71; 7149,938;  310,850;46638,800;14,76234
 702,28; 7185,935;  294,465;46572,511;14,89144
 702,85; 7192,854;  307,081;46653,376;14,85723
 703,43; 7263,928;  312,312;46872,549;14,93037
 704,00; 7323,540;  327,004;47096,568;14,95959
 704,57; 7302,844;  299,312;46970,971;15,00596
 705,14; 7413,840;  332,004;47369,682;15,05567
 705,71; 7456,375;  342,081;47427,471;15,10935
 706,28; 7466,756;  310,850;47394,874;15,19816
 706,86; 7493,291;  346,620;47531,354;15,14615
 707,43; 7541,826;  359,235;47444,912;15,25430
 708,00; 7529,515;  328,005;47556,777;15,24814
 708,57; 7537,435;  301,389;47422,488;15,35628
 709,14; 7617,585;  327,236;47655,815;15,40369
 709,71; 7654,351;  312,543;47744,449;15,47863
 710,28; 7706,809;  313,082;47915,314;15,53231
 710,86; 7692,575;  309,928;48020,871;15,47370
 711,43; 7796,571;  333,313;47975,352;15,66528
 712,00; 7819,029;  316,467;48120,755;15,69433
 712,57; 7868,718;  337,390;48233,544;15,72429
 713,14; 7937,253;  314,698;48374,639;15,86052
 713,71; 7930,788;  315,159;48244,197;15,88938
 714,28; 7980,631;  300,544;48378,754;15,97415
 714,85; 7913,781;  293,775;48046,850;15,95710
 715,42; 7992,393;  293,237;48317,407;16,03184
 716,00; 8133,313;  360,237;48414,042;16,17578
 716,57; 8119,002;  297,468;48484,291;16,23169
 717,14; 8096,075;  281,929;48384,541;16,24474
 717,71; 8149,918;  280,006;48454,637;16,33622
 718,28; 8255,530;  325,699;48556,348;16,44148
 718,85; 8223,911;  276,468;48492,059;16,48314
 719,42; 8332,292;  296,776;48717,617;16,59516
 719,99; 8304,519;  283,776;48509,020;16,63184
 720,56; 8377,747;  310,391;48748,654;16,65492
 721,13; 8387,512;  287,392;48823,981;16,68869
 721,70; 8409,047;  277,546;48758,615;16,77253
 722,27; 8463,582;  304,546;48775,019;16,83300
 722,84; 8584,656;  345,238;48931,961;16,95817
 723,41; 8534,037;  276,546;48967,826;16,95887
 723,98; 8587,649;  299,546;49080,229;16,99054
 724,55; 8607,261;  310,315;49232,402;16,95951
 725,12; 8655,873;  247,623;49144,498;17,19588
 725,69; 8751,716;  285,239;49277,517;17,28125
 726,27; 8771,789;  293,623;49382,690;17,27099
 726,84; 8860,016;  298,854;49718,401;17,32343
 727,41; 8950,397;  308,316;49661,189;17,51080
 727,98; 8978,163;  311,162;49958,900;17,45699
 728,55; 9025,621;  330,162;49853,381;17,55835
 729,12; 9003,925;  273,239;49989,169;17,56114
 729,69; 9121,691;  317,624;50136,957;17,67199
 730,26; 9194,226;  309,778;50348,822;17,75503
 730,82; 9201,454;  297,163;50277,456;17,81560
 731,39; 9266,835;  291,317;50285,167;17,95324
 731,96; 9306,677;  280,624;50571,802;17,94759
 732,53; 9412,905;  306,240;50841,744;18,02033
 733,10; 9515,670;  306,548;51018,993;18,15949
 733,67; 9556,052;  314,317;51184,551;18,16727
 734,24; 9544,510;  290,855;50785,416;18,32604
 734,81; 9581,122;  325,702;50886,742;18,30544
 735,38; 9562,503;  301,702;50707,223;18,37259
 735,95; 9602,269;  299,625;50561,780;18,50825
 736,52; 9677,573;  302,548;50796,491;18,56663
 737,09; 9602,800;  307,548;50411,818;18,55182
 737,66; 9703,643;  349,241;50647,221;18,59797
 738,23; 9762,716;  293,395;50711,779;18,78149
 738,80; 9864,020;  357,318;50979,490;18,77972
 739,37; 9920,632;  321,395;51168,278;18,87871
 739,94; 9923,552;  306,933;51266,605;18,87104
 740,51;10098,395;  399,395;51176,162;19,10125
 741,07;10084,160;  294,395;51149,489;19,25031
 741,64;10190,311;  334,626;51368,123;19,31219
 742,21;10148,230;  297,857;51408,450;19,27267
 742,78;10178,150;  271,934;51195,776;19,45300
 743,35;10274,839;  295,780;51403,334;19,52560
 743,92;10352,528;  323,396;51518,122;19,59017
 744,49;10409,755;  309,011;51500,987;19,73111
 745,06;10324,521;  304,011;51481,621;19,57987
 745,63;10432,594;  277,242;51405,409;19,86254
 746,19;10496,437;  286,781;51513,813;19,93021
 746,76;10535,203;  295,704;51484,062;20,00357
 747,33;10567,584;  284,858;51445,158;20,09903
 747,90;10626,965;  316,319;51609,408;20,10143
 748,47;10675,731;  305,396;51598,427;20,21782
 749,04;10749,727;  308,550;51568,061;20,36925
 749,61;10796,570;  334,935;51465,465;20,46064
 750,17;10793,259;  313,166;51550,714;20,45393
 750,74;10848,178;  309,474;51508,964;20,58361
 751,31;10834,790;  288,551;51351,598;20,65337
 751,88;10897,710;  272,474;51405,848;20,77945
 752,45;11004,245;  296,782;51402,174;20,95173
 753,02;10998,318;  316,859;51215,040;20,98594
 753,58;11006,315;  293,628;51275,212;21,01286
 754,15;11075,311;  295,859;51399,462;21,09333
 754,72;11103,231;  281,551;51227,404;21,24153
 755,29;11058,381;  267,244;51119,192;21,22070
 755,86;11093,301;  295,475;51214,365;21,20593
 756,42;11231,451;  299,244;51097,845;21,52069
 756,99;11166,525;  253,090;50977,326;21,51523
 757,56;11195,137;  255,937;50970,498;21,57014
 758,13;11208,826;  227,860;50886,210;21,67652
 758,70;11275,668;  250,552;51004,921;21,72250
 759,26;11314,511;  236,322;51033,863;21,80852
 759,83;11363,508;  243,322;51053,266;21,88585
 760,40;11399,427;  226,322;51003,824;22,00405
 760,97;11395,501;  230,937;50898,227;22,03505
 761,53;11327,959;  218,322;50600,554;22,05070
 762,10;11388,263;  209,245;50629,650;22,17161
 762,67;11457,029;  252,861;50692,130;22,21318
 763,24;11393,410;  196,784;50153,149;22,41281
 763,80;11499,406;  237,938;50331,860;22,48071
 764,37;11520,172;  239,938;50257,571;22,55251
 764,94;11414,169;  226,246;49867,283;22,53765
 765,50;11435,857;  239,092;49944,378;22,52631
 766,07;11530,085;  271,015;49896,244;22,68820
 766,64;11512,158;  243,246;49654,262;22,80648
 767,21;11560,386;  259,323;49628,974;22,89071
 767,77;11574,997;  276,861;49478,685;22,96284
 768,34;11581,609;  280,554;49371,396;23,02070
 768,91;11597,914;  276,016;49330,569;23,08022
 769,47;11650,526;  284,016;49375,280;23,15383
 770,04;11659,368;  291,247;49143,068;23,27062
 770,61;11662,365;  262,939;48955,087;23,41122
 771,18;11704,669;  254,247;48914,106;23,53156
 771,74;11719,435;  278,401;48989,510;23,48753
 772,31;11698,816;  279,632;48733,913;23,56693
 772,88;11674,274;  249,016;48515,393;23,67126
 773,44;11672,655;  262,939;48387,566;23,70868
 774,01;11774,652;  279,324;48493,970;23,84198
 774,58;11772,802;  255,555;48151,681;24,04630
 775,14;11789,722;  254,709;48253,700;24,03178
 775,71;11814,641;  252,171;48216,026;24,10663
 776,27;11945,176;  310,709;48202,507;24,29324
 776,84;11988,019;  336,171;48305,833;24,29004
 777,41;11905,862;  278,248;47961,699;24,38501
 777,97;11850,858;  255,940;47678,179;24,45038
 778,54;11881,470;  276,171;47718,275;24,46202
 779,11;11990,544;  291,479;47758,217;24,64687
 779,67;11971,463;  243,941;47711,928;24,70617
 780,24;11986,383;  272,941;47509,101;24,79762
 780,80;12045,764;  290,864;47501,120;24,89904
 781,37;12023,607;  271,787;47502,908;24,88152
 781,94;12075,680;  271,787;47295,234;25,10214
 782,50;12107,984;  274,556;47226,407;25,20333
 783,07;12119,519;  296,326;47330,118;25,13766
 783,63;12137,900;  264,557;47086,214;25,35866
 784,20;12201,128;  291,018;46959,925;25,52044
 784,77;12154,970;  274,095;46781,483;25,54621
 785,33;12152,044;  255,711;46631,425;25,65208
 785,90;12195,579;  268,096;46723,828;25,67494
 786,46;12198,268;  288,019;46535,616;25,75323
 787,03;12196,110;  253,173;46280,712;25,94737
 787,59;12175,799;  265,173;46207,885;25,92495
 788,16;12257,411;  267,942;46151,442;26,13024
 788,73;12262,331;  285,327;46032,461;26,18088
 789,29;12192,020;  268,096;45727,865;26,22962
 789,86;12207,170;  278,865;45739,038;26,23902
 790,42;12160,936;  282,173;45568,979;26,23007
 790,99;12132,317;  280,481;45233,691;26,36483
 791,55;12133,467;  262,789;45164,325;26,43713
 792,12;12192,387;  289,712;45206,575;26,49935
 792,68;12161,691;  276,174;44950,517;26,60480
 793,25;12182,688;  284,174;44732,536;26,76930
 793,81;12217,069;  335,405;44415,016;26,95501
 794,38;12061,527;  240,559;44239,343;26,86658
 794,94;12084,677;  261,097;44125,977;26,95455
 795,51;12025,058;  283,790;43907,688;26,91476
 796,07;12006,670;  276,328;43538,322;27,11466
 796,64;12110,128;  290,328;43800,957;27,16532
 797,20;12022,202;  272,713;43289,052;27,31401
 797,77;11905,891;  250,098;42932,994;27,30788
 798,33;11910,272;  276,329;42779,475;27,37196
 798,90;11981,038;  288,867;42734,417;27,54628
 799,46;11861,111;  264,252;42403,820;27,52012
 800,03;11855,954;  262,944;42239,455;27,61785
 800,59;11767,719;  286,406;42102,243;27,45685
 801,15;11807,639;  281,868;41835,031;27,73741
 801,72;11741,251;  273,714;41555,819;27,77847
 802,28;11752,863;  298,945;41222,607;27,98850
 802,85;11649,013;  271,176;41168,088;27,82077
 803,41;11607,548;  266,714;40968,260;27,86340
 803,98;11622,083;  253,483;40590,125;28,18430
 804,54;11522,849;  272,484;40381,606;28,04939
 805,11;11568,538;  278,484;40151,856;28,31477
 805,67;11504,150;  302,945;40103,798;28,14313
 806,23;11477,839;  276,792;39698,893;28,41312
 806,80;11463,989;  300,099;39595,989;28,40982
 807,36;11479,755;  298,946;39503,777;28,51896
 807,93;11406,905;  303,176;39394,796;28,40437
 808,49;11360,902;  254,561;38991,661;28,67107
 809,05;11287,898;  251,561;38746,373;28,66967
 809,62;11328,433;  283,254;38788,853;28,68461
 810,18;11322,737;  287,792;38594,257;28,80701
 810,74;11254,811;  255,869;38356,814;28,86790
 811,31;11246,654;  253,869;38185,756;28,98033
 811,87;11248,189;  270,331;38124,082;29,00071
 812,44;11273,185;  298,639;38078,563;29,04862
 813,00;11141,182;  227,100;37743,736;29,09131
 813,56;11277,101;  273,947;37907,216;29,23784
 814,13;11227,021;  256,485;37684,620;29,31093
 814,69;11178,171;  270,716;37579,331;29,23575
 815,25;11131,706;  241,332;37159,965;29,49831
 815,82;11131,318;  279,639;37158,369;29,42531
 816,38;11167,084;  304,101;36982,772;29,61662
 816,94;11035,004;  247,947;36683,945;29,60549
 817,51;10973,462;  241,947;36475,502;29,61761
 818,07;10973,535;  250,563;36313,367;29,73416
 818,63;10970,070;  270,948;36059,232;29,89560
 819,20;10981,220;  259,025;36002,636;29,99752
 819,76;10849,602;  245,255;35733,655;29,88116
 820,32;10887,137;  279,640;35601,981;30,03056
 820,89;10805,672;  279,102;35421,385;29,95414
 821,45;10750,514;  247,717;35149,788;30,09219
 822,01;10753,511;  263,487;34907,961;30,27907
 822,57;10721,584;  281,102;34767,826;30,27392
 823,14;10638,889;  240,333;34556,691;30,30204
 823,70;10590,270;  249,102;34326,479;30,34614
 824,26;10538,343;  245,333;34234,729;30,28300
 824,82;10598,878;  280,179;34049,363;30,55655
 825,39;10480,336;  245,564;33819,844;30,48397
 825,95;10480,179;  273,641;33877,863;30,37278
 826,51;10372,560;  261,564;33513,651;30,40710
 827,08;10473,480;  293,949;33632,208;30,53408
 827,64;10438,399;  277,872;33386,227;30,68871
 828,20;10330,165;  254,103;33196,861;30,58658
 828,76;10366,700;  272,642;33139,265;30,71219
 829,32;10419,158;  286,026;32959,438;31,01339
 829,89;10317,001;  238,027;32840,687;30,91458
 830,45;10362,613;  265,719;32805,937;31,02897
 831,01;10314,686;  253,796;32630,264;31,07470
 831,57;10243,298;  260,950;32506,359;30,95742
 832,14;10264,141;  252,565;32522,378;31,02458
 832,70;10212,753;  247,489;32309,243;31,08147
 833,26;10183,595;  226,412;32221,032;31,12143
 833,82;10180,900;  251,873;32083,897;31,19194
 834,38;10179,204;  256,335;32210,608;31,05334
 834,95;10208,816;  233,258;31973,319;31,42892
 835,51;10178,274;  210,951;31919,569;31,43411
 836,07;10219,347;  253,797;31953,588;31,43727
 836,63;10278,498;  275,643;31927,607;31,60264
 837,19;10164,263;  250,182;31857,164;31,36675
 837,75;10095,183;  221,259;31542,567;31,52462
 838,32;10189,333;  264,182;31683,048;31,58978
 838,88;10194,176;  265,720;31676,298;31,60864
 839,44;10210,942;  255,644;31588,316;31,77290
 840,00;10229,169;  249,490;31425,489;32,01078
 840,56;10098,473;  244,259;31253,200;31,77862
 841,12;10077,701;  240,721;31220,065;31,75335
 841,68;10043,313;  218,798;30958,469;31,96038
 842,25;10072,232;  235,336;31083,949;31,88764
 842,81;10002,460;  221,875;30810,276;31,97481
 843,37;10015,687;  220,875;30856,987;31,97146
 843,93;10028,683;  232,029;30698,852;32,15516
 844,49;10039,218;  262,414;30842,179;31,97148
 845,05; 9972,753;  210,799;30651,736;32,06851
 845,61;10041,365;  265,645;30777,678;32,03890
 846,17;10010,823;  236,568;30496,466;32,30102
 846,73;10016,128;  246,414;30422,408;32,37578
 847,29;10022,970;  230,260;30269,735;32,59947
 847,86; 9972,428;  237,876;30236,446;32,45005
 848,42; 9915,271;  235,953;30102,927;32,40810
 848,98; 9928,575;  248,107;30056,945;32,47516
 849,54; 9919,726;  230,338;30022,195;32,52361
 850,10; 9905,799;  243,338;29921,522;32,55745
 850,66; 9869,642;  231,338;29752,695;32,64858
 851,22; 9886,946;  220,338;29685,560;32,80684
 851,78; 9966,866;  267,646;29743,194;32,90599
 852,34; 9934,862;  241,800;29509,213;33,11896
 852,90; 9884,936;  227,492;29446,847;33,05153
 853,46; 9831,471;  227,723;29214,251;33,13176
 854,02; 9921,852;  249,185;29228,654;33,37765
 854,58; 9836,002;  241,723;29006,827;33,35388
 855,14; 9860,460;  227,185;28966,230;33,51982
 855,70; 9828,303;  198,262;28718,172;33,76603
 856,26; 9790,299;  247,801;28829,114;33,38719
 856,82; 9804,065;  235,031;28605,133;33,72929
 857,38; 9851,677;  265,032;28495,614;33,95837
 857,94; 9763,520;  245,493;28417,017;33,78598
 858,50; 9789,439;  250,032;28338,267;33,96229
 859,06; 9736,667;  226,878;28103,978;34,11326
 859,62; 9745,586;  247,724;28130,843;34,06313
 860,18; 9623,198;  239,032;28049,170;33,74369
 860,74; 9617,272;  208,340;27876,112;34,00683
 861,30; 9574,730;  214,648;27653,977;34,11192
 861,86; 9688,034;  275,725;27715,073;34,30223
 862,42; 9559,492;  240,648;27517,707;34,16367
 862,98; 9635,642;  263,417;27542,341;34,35702
 863,54; 9583,100;  236,033;27343,283;34,48180
 864,10; 9545,174;  234,494;27331,687;34,36031
 864,66; 9500,017;  213,879;27118,782;34,51467
 865,22; 9533,782;  232,110;27079,494;34,64648
 865,78; 9442,779;  234,725;26994,743;34,40974
 866,34; 9507,699;  228,187;26833,685;34,87817
 866,90; 9507,849;  241,341;26807,243;34,88121
 867,45; 9427,999;  244,880;26595,185;34,85015
 868,01; 9447,688;  244,341;26394,204;35,19463
 868,57; 9362,992;  237,957;26249,069;35,08130
 869,13; 9318,527;  215,880;26126,088;35,13151
 869,69; 9286,524;  241,726;26118,414;34,95346
 870,25; 9317,059;  218,957;25974,664;35,32461
 870,81; 9345,902;  228,572;25969,221;35,41997
 871,37; 9324,667;  245,419;25871,009;35,43040
 871,93; 9269,202;  248,880;25682,721;35,46583
 872,49; 9257,276;  264,727;25491,893;35,64629
 873,04; 9215,580;  222,111;25348,758;35,79255
 873,60; 9160,961;  222,342;25272,777;35,68249
 874,16; 9170,112;  245,650;25173,181;35,80163
 874,72; 9117,342;  221,727;25105,027;35,74934
 875,28; 9141,265;  243,727;25044,565;35,87596
 875,84; 9126,958;  240,804;24918,412;36,00898
 876,40; 9141,727;  229,573;24931,412;36,07891
 876,95; 9092,419;  242,342;24891,258;35,90453
 877,51; 9170,265;  263,650;24825,335;36,26223
 878,07; 9173,342;  278,573;24851,719;36,19711
 878,63; 9167,265;  231,881;24878,796;36,25356
 879,19; 9188,573;  254,342;24867,950;36,29793
 879,75; 9167,727;  229,419;24956,642;36,14764
 880,30; 9139,727;  235,881;24889,335;36,11602
 880,86; 9257,804;  271,881;25034,181;36,28873
 881,42; 9274,727;  218,573;25074,181;36,43505
 881,98; 9308,265;  256,804;25141,027;36,37430
 882,54; 9346,419;  225,958;25146,412;36,59830
 883,09; 9463,112;  241,188;25286,258;36,82131
 883,65; 9471,573;  219,419;25362,181;36,79848
 884,21; 9550,804;  263,496;25535,181;36,74986
 884,77; 9558,188;  235,573;25585,950;36,77506
 885,32; 9660,188;  236,727;25729,335;36,96547
 885,88; 9754,419;  272,419;25771,488;37,18567
 886,44; 9738,881;  239,881;25922,873;36,98557
 887,00; 9820,958;  261,650;25852,565;37,35430
 887,56; 9935,112;  236,650;26019,873;37,61540
 888,11; 9956,496;  239,958;26002,796;37,71533
 888,67;10021,112;  271,265;26241,335;37,54263
 889,23;10040,342;  243,112;26145,488;37,82367
 889,79; 9928,804;  228,727;26112,335;37,47575
 890,34; 9948,188;  244,573;25986,642;37,69555
 890,90;10083,727;  300,035;26218,335;37,74820
 891,46;10026,419;  217,958;26037,104;37,98910
 892,01;10084,342;  259,496;26049,412;38,09569
 892,57;10043,958;  272,342;26020,565;37,95064
 893,13; 9992,727;  246,650;25776,719;38,17489
 893,69;10003,727;  223,804;25697,873;38,39168
 894,24; 9939,265;  241,265;25649,719;38,16840
 894,80; 9952,573;  241,804;25554,565;38,36314
 895,36; 9926,496;  247,727;25397,181;38,48501
 895,91; 9927,881;  232,958;25253,796;38,74739
 896,47; 9920,035;  254,650;25154,488;38,81706
 897,03; 9826,573;  230,419;25040,181;38,67894
 897,58; 9810,881;  254,265;24929,488;38,72960
 898,14; 9770,342;  245,419;24805,873;38,78154
 898,70; 9673,881;  212,804;24601,719;38,79253
 899,25; 9712,419;  238,496;24590,796;38,90361
 899,81; 9662,958;  244,881;24447,027;38,91422
 900,37; 9626,804;  219,496;24229,027;39,18156
 900,92; 9674,112;  241,188;24254,796;39,28157
 901,48; 9617,958;  219,573;24116,258;39,32924
 902,03; 9553,496;  219,727;23871,719;39,46293
 902,59; 9519,958;  232,727;23853,796;39,31757
 903,15; 9511,188;  245,265;23809,027;39,32277
 903,70; 9427,419;  239,881;23473,719;39,54378
 904,26; 9365,188;  233,112;23408,181;39,40474
 904,82; 9452,804;  236,342;23407,950;39,77480
 905,37; 9435,958;  247,804;23234,873;39,97097
 905,93; 9358,727;  229,881;23086,950;39,93883
 906,48; 9381,419;  240,650;23093,181;39,99894
 907,04; 9362,419;  248,112;23024,335;40,01677
 907,60; 9284,265;  233,035;22848,104;40,02301
 908,15; 9270,419;  222,958;22672,412;40,30148
 908,71; 9277,265;  258,419;22698,258;40,19123
 909,26; 9219,573;  224,881;22501,796;40,37674
 909,82; 9209,881;  254,265;22493,412;40,26960
 910,37; 9213,342;  277,881;22386,027;40,41705
 910,93; 9146,496;  228,727;22198,796;40,59054
 911,48; 9130,727;  214,573;22115,642;40,71104
 912,04; 9065,804;  229,496;22051,950;40,49182
 912,60; 9093,188;  243,496;21990,719;40,69344
 913,15; 9036,573;  235,342;21874,950;40,67186
 913,71; 8971,112;  227,035;21640,181;40,83509
 914,26; 8965,727;  212,112;21610,412;40,90799
 914,82; 8970,727;  236,342;21583,181;40,91653
 915,37; 8966,727;  221,573;21462,027;41,17216
 915,93; 8947,881;  272,342;21413,258;41,03672
 916,48; 8905,958;  219,188;21190,873;41,42142
 917,04; 8833,573;  242,496;21185,565;41,02110
 917,59; 8860,650;  253,342;21147,950;41,19392
 918,15; 8754,881;  201,419;20903,719;41,31648
 918,70; 8739,804;  228,496;20838,796;41,29638
 919,26; 8704,881;  228,496;20751,181;41,30251
 919,81; 8687,958;  212,727;20559,488;41,65395
 920,37; 8697,419;  231,727;20512,950;41,74153
 920,92; 8681,112;  242,804;20421,796;41,81729
 921,48; 8605,727;  209,881;20279,873;41,83283
 922,03; 8567,727;  210,573;20264,719;41,67295
 922,59; 8565,265;  227,804;20154,412;41,84085
 923,14; 8513,804;  227,112;20027,642;41,85086
 923,69; 8485,881;  247,112;19924,565;41,86908
 924,25; 8512,573;  243,342;19947,796;41,96630
 924,80; 8478,035;  220,650;19736,104;42,31203
 925,36; 8459,958;  223,112;19705,642;42,27811
 925,91; 8435,265;  228,804;19547,335;42,47974
 926,47; 8449,573;  208,188;19500,181;42,71920
 927,02; 8478,112;  268,881;19422,719;42,85945
 927,57; 8364,804;  221,650;19268,335;42,75366
 928,13; 8376,419;  219,035;19187,181;43,00570
 928,68; 8351,496;  216,881;19171,873;42,91542
 929,24; 8299,727;  193,573;18956,181;43,20377
 929,79; 8263,958;  215,496;18839,027;43,21663
 930,34; 8242,112;  223,035;18777,488;43,21915
 930,90; 8253,419;  220,958;18733,258;43,38986
 931,45; 8232,958;  237,188;18704,796;43,29618
 932,01; 8226,573;  237,804;18604,258;43,49653
 932,56; 8172,496;  242,342;18426,335;43,61063
 933,11; 8192,650;  248,804;18460,488;43,61950
 933,67; 8112,804;  212,727;18240,258;43,82229
 934,22; 8112,881;  228,419;18208,873;43,85018
 934,77; 8083,035;  257,958;18076,335;43,91577
 935,33; 8077,727;  232,035;17948,719;44,28420
 935,88; 8061,496;  235,342;17888,950;44,33175
 936,43; 8032,035;  219,265;17853,873;44,30362
 936,99; 8000,958;  232,650;17785,719;44,25612
 937,54; 7941,727;  206,035;17585,104;44,51155
 938,09; 7998,650;  227,035;17601,565;44,72993
 938,65; 7936,419;  232,188;17499,642;44,61706
 939,20; 7926,265;  204,112;17404,488;44,89526
 939,75; 7864,112;  209,188;17267,488;44,87506
 940,31; 7847,727;  207,342;17111,181;45,19911
 940,86; 7852,419;  227,573;17159,027;45,03362
 941,41; 7912,265;  297,958;17040,488;45,47883
 941,96; 7796,573;  206,804;16943,719;45,34748
 942,52; 7804,573;  221,419;16860,258;45,57502
 943,07; 7688,573;  207,265;16771,258;45,16609
 943,62; 7682,188;  213,727;16700,258;45,30038
 944,18; 7729,188;  210,804;16651,719;45,72972
 944,73; 7673,958;  218,342;16579,719;45,56839
 945,28; 7590,573;  192,881;16361,565;45,75321
 945,83; 7624,650;  220,650;16426,181;45,68811
 946,39; 7602,804;  213,804;16281,488;45,98671
 946,94; 7584,804;  240,881;16218,796;45,96296
 947,49; 7578,881;  218,573;16132,027;46,25211
 948,04; 7547,650;  257,881;16075,488;46,08642
 948,59; 7590,496;  236,727;15972,488;46,73285
 949,15; 7543,650;  206,650;15893,488;46,77169
 949,70; 7558,804;  213,342;15800,950;47,12373
 950,25; 7537,188;  237,035;15759,873;47,02847
 950,80; 7435,881;  189,881;15703,181;46,70831
 951,36; 7409,881;  199,958;15601,258;46,81373
 951,91; 7452,035;  228,342;15542,873;47,16888
 952,46; 7376,804;  202,265;15409,719;47,17778
 953,01; 7381,958;  237,650;15412,104;47,08115
 953,56; 7297,035;  197,573;15242,719;47,18772
 954,11; 7339,419;  230,112;15221,642;47,42216
 954,67; 7265,496;  206,650;15153,719;47,22562
 955,22; 7224,419;  193,342;15033,719;47,37802
 955,77; 7217,265;  241,573;15066,873;47,05262
 956,32; 7216,881;  258,958;14908,719;47,49513
 956,87; 7097,804;  213,419;14765,258;47,30938
 957,42; 7127,112;  221,188;14795,642;47,38375
 957,98; 7061,881;  214,342;14672,488;47,36111
 958,53; 7161,419;  234,265;14663,181;48,00883
 959,08; 7089,265;  201,881;14547,104;48,01169
 959,63; 7035,727;  207,804;14474,181;47,86025
 960,18; 7046,496;  232,419;14434,488;47,97947
 960,73; 7029,804;  214,496;14359,258;48,18256
 961,28; 7009,958;  201,804;14329,796;48,18911
 961,83; 7035,265;  238,112;14196,565;48,69561
 962,39; 6915,573;  209,112;14137,258;48,15042
 962,94; 6935,265;  229,112;14077,104;48,42690
 963,49; 6882,727;  227,419;13949,104;48,50212
 964,04; 6876,958;  234,112;13925,335;48,51901
 964,59; 6821,958;  191,804;13798,719;48,72635
 965,14; 6827,881;  243,265;13801,488;48,56547
 965,69; 6782,496;  222,496;13690,181;48,70919
 966,24; 6734,265;  211,112;13623,488;48,63533
 966,79; 6705,650;  231,496;13524,258;48,70436
 967,34; 6672,265;  199,496;13412,104;48,98934
 967,89; 6648,881;  212,419;13317,258;49,11515
 968,44; 6635,035;  221,112;13282,565;49,10574
 968,99; 6627,650;  225,804;13275,719;49,05661
 969,55; 6604,573;  225,958;13148,950;49,35866
 970,10; 6561,573;  231,573;13099,950;49,19035
 970,65; 6537,881;  236,881;12999,642;49,37019
 971,20; 6460,265;  210,265;12905,027;49,23291
 971,75; 6433,804;  192,419;12743,719;49,72700
 972,30; 6438,112;  229,727;12757,796;49,55580
 972,85; 6370,496;  202,496;12631,719;49,62498
 973,40; 6329,727;  212,496;12491,796;49,81742
 973,95; 6327,958;  228,804;12465,796;49,84194
 974,50; 6322,804;  249,419;12374,950;50,08758
 975,05; 6263,112;  222,419;12307,950;49,98285
 975,60; 6241,573;  243,650;12237,181;50,00965
 976,15; 6232,727;  217,035;12218,873;50,12309
 976,70; 6204,188;  230,573;12122,873;50,23095
 977,25; 6191,265;  232,342;12038,104;50,47470
 977,80; 6112,265;  211,342;11892,104;50,51831
 978,35; 6063,650;  231,958;11735,873;50,69311
 978,89; 6021,573;  203,188;11688,642;50,65873
 979,44; 6061,265;  220,265;11636,719;51,16300
 979,99; 5987,496;  205,804;11508,873;51,15153
 980,54; 5964,727;  243,804;11431,104;51,13766
 981,09; 5938,265;  241,573;11321,642;51,41387
 981,64; 5859,804;  238,804;11206,642;51,24984
 982,19; 5867,112;  253,573;11203,412;51,26595
 982,74; 5828,188;  244,496;11080,719;51,52803
 983,29; 5732,573;  210,650;10954,258;51,39729
 983,84; 5740,650;  228,112;10888,565;51,71017
 984,39; 5743,573;  287,188;10869,104;51,56330
 984,94; 5633,727;  202,419;10718,565;51,64732
 985,49; 5652,188;  249,188;10677,642;51,81017
 986,03; 5655,188;  244,496;10605,258;52,22292
 986,58; 5595,804;  271,419;10455,104;52,28348
 987,13; 5512,265;  228,265;10394,642;51,97525
 987,68; 5488,496;  242,419;10296,027;52,18104
 988,23; 5488,035;  243,958;10255,027;52,38279
 988,78; 5392,881;  222,958;10075,873;52,47100
 989,33; 5350,573;  239,496; 9960,027;52,58022
 989,88; 5401,650;  259,265; 9965,873;52,97819
 990,42; 5331,881;  229,419; 9825,950;53,16986
 990,97; 5253,496;  223,804; 9701,181;53,07051
 991,52; 5232,496;  244,188; 9648,642;53,04197
 992,07; 5214,112;  258,650; 9567,796;53,23218
 992,62; 5139,573;  246,035; 9442,335;53,21204
 993,17; 5084,496;  242,265; 9361,873;53,09692
 993,71; 5081,188;  235,496; 9281,642;53,56637
 994,26; 4996,650;  215,342; 9151,412;53,50571
 994,81; 5022,188;  246,496; 9142,642;53,68271
 995,36; 4939,650;  227,112; 8950,719;54,02052
 995,91; 4928,419;  242,265; 8909,488;54,06753
 996,45; 4886,419;  236,419; 8820,719;54,16866
 997,00; 4794,188;  207,958; 8733,565;53,79359
 997,55; 4801,342;  240,035; 8674,950;54,07651
 998,10; 4769,265;  264,265; 8576,796;54,19529
 998,65; 4742,035;  231,342; 8531,488;54,34473
 999,19; 4709,573;  245,265; 8443,642;54,45356
 999,74; 4674,958;  267,804; 8278,027;55,01911
1000,29; 4587,265;  248,881; 8217,950;54,44029
1000,84; 4540,112;  230,573; 8101,873;54,75002
1001,38; 4492,342;  238,035; 8027,719;54,61463
1001,93; 4490,958;  255,342; 7980,873;54,82621
1002,48; 4413,265;  228,342; 7828,719;55,06205
1003,03; 4445,804;  239,727; 7789,488;55,71139
1003,57; 4370,804;  238,804; 7741,719;55,07193
1004,12; 4363,112;  260,496; 7623,565;55,71882
1004,67; 4311,881;  235,650; 7545,796;55,76128
1005,22; 4231,958;  217,035; 7401,719;55,88169
1005,76; 4152,419;  221,342; 7280,181;55,69014
1006,31; 4142,419;  241,188; 7239,719;55,74357
1006,86; 4078,419;  231,496; 7143,719;55,65392
1007,40; 4029,188;  208,419; 7036,181;55,95932
1007,95; 4006,496;  239,881; 6959,181;56,05666
1008,50; 3944,650;  235,496; 6838,719;56,17187
1009,04; 3889,573;  228,573; 6743,796;56,19148
1009,59; 3868,265;  241,958; 6638,719;56,68974
1010,14; 3782,650;  219,265; 6575,642;56,06000
1010,68; 3738,265;  240,804; 6468,258;56,16198
1011,23; 3708,188;  231,881; 6378,719;56,55440
1011,78; 3691,188;  241,265; 6307,719;56,86886
1012,32; 3639,958;  250,035; 6180,796;57,15831
1012,87; 3622,035;  255,496; 6195,642;56,67434
1013,42; 3548,112;  220,112; 6063,412;56,95412
1013,96; 3587,035;  251,265; 6070,027;57,32782
1014,51; 3493,881;  195,496; 5976,412;57,05644
1015,06; 3535,419;  198,958; 5961,950;57,89460
1015,60; 3562,881;  268,881; 6060,412;56,87615
1016,15; 3528,265;  228,188; 5950,104;57,67434
1016,69; 3515,573;  234,573; 5960,642;57,29934
1017,24; 3502,188;  209,035; 5988,950;56,97581
1017,79; 3581,727;  257,188; 6042,950;57,46069
1018,33; 3590,496;  224,650; 6075,642;57,52607
1018,88; 3633,342;  240,342; 6074,181;58,16068
1019,42; 3629,342;  226,958; 6056,950;58,36002
1019,97; 3648,188;  219,958; 6031,796;58,98703
1020,51; 3726,958;  253,265; 6133,027;59,07880
1021,06; 3648,958;  212,342; 6067,335;58,69547
1021,61; 3638,650;  205,650; 6056,642;58,67381
1022,15; 3619,188;  179,958; 5999,873;59,09417
1022,70; 3630,804;  222,265; 6018,027;58,81088
1023,24; 3594,650;  214,727; 5998,488;58,43815
1023,79; 3620,188;  230,804; 5954,565;59,21603
1024,33; 3557,958;  213,419; 5880,104;59,02108
1024,88; 3544,573;  233,188; 5819,104;59,28097
1025,42; 3486,112;  233,035; 5729,104;59,18915
1025,97; 3439,035;  216,188; 5628,796;59,54332
1026,51; 3364,419;  192,188; 5505,873;59,69927
1027,06; 3362,650;  218,112; 5490,258;59,64437
1027,60; 3325,804;  236,265; 5386,565;59,98754
1028,15; 3274,958;  224,265; 5324,796;59,81127
1028,69; 3201,958;  179,958; 5196,258;60,24361
1029,24; 3206,496;  221,573; 5164,258;60,39073
1029,78; 3129,727;  213,188; 5064,873;60,11393
1030,33; 3065,496;  191,035; 4969,642;60,15270
1030,87; 3050,496;  209,496; 4948,181;59,95335
1031,42; 3006,035;  197,496; 4831,258;60,61034
1031,96; 2977,804;  229,958; 4776,488;60,43831
1032,51; 2921,573;  210,804; 4713,642;60,20134
1033,05; 2913,419;  224,496; 4639,796;60,90012
1033,60; 2816,727;  189,419; 4530,565;60,52106
1034,14; 2816,804;  216,727; 4478,258;61,01275
1034,69; 2800,265;  211,958; 4464,258;60,86842
1035,23; 2747,188;  210,035; 4369,719;60,99390
1035,77; 2739,112;  216,265; 4330,412;61,32126
1036,32; 2689,419;  186,727; 4232,873;61,85373
1036,86; 2682,342;  217,419; 4206,642;61,78955
1037,41; 2629,573;  223,804; 4155,027;61,19646
1037,95; 2577,188;  192,188; 4067,027;61,55095
1038,50; 2563,188;  201,804; 4014,181;61,93996
1039,04; 2564,035;  226,650; 3986,565;62,16588
1039,58; 2467,804;  211,496; 3931,796;60,64854
1040,13; 2481,112;  217,342; 3890,181;61,63542
1040,67; 2480,188;  247,419; 3840,335;62,14366
1041,21; 2435,265;  244,419; 3791,412;61,76631
1041,76; 2353,035;  195,419; 3682,565;61,87339
1042,30; 2355,342;  213,727; 3667,104;62,01511
1042,85; 2304,881;  205,804; 3611,181;61,64008
1043,39; 2291,496;  210,958; 3527,796;62,72655
1043,93; 2270,112;  236,496; 3525,181;61,83674
1044,48; 2234,112;  216,881; 3458,412;62,23081
1045,02; 2178,573;  215,496; 3391,488;61,80988
1045,56; 2200,727;  236,881; 3390,719;62,26844
1046,11; 2165,496;  231,496; 3368,027;61,66048
1046,65; 2134,958;  228,265; 3293,565;62,20247
1047,19; 2093,496;  216,035; 3216,873;62,56457
1047,74; 2051,188;  192,804; 3173,104;62,35562
1048,28; 2033,881;  217,573; 3149,873;61,94140
1048,82; 2041,265;  246,342; 3112,488;62,62497
1049,37; 2028,573;  230,035; 3063,104;63,48375
1049,91; 1974,804;  211,188; 3040,335;62,33737
1050,45; 1971,419;  233,188; 2985,719;63,15028
1050,99; 1947,958;  229,650; 2956,181;63,02176
1051,54; 1905,804;  208,573; 2865,412;63,88159
1052,08; 1906,188;  247,265; 2883,258;62,93353
1052,62; 1883,496;  241,419; 2835,950;63,28994
1053,16; 1845,112;  208,342; 2762,873;64,07319
1053,71; 1823,265;  223,188; 2731,642;63,78738
1054,25; 1793,112;  237,419; 2712,796;62,84668
1054,79; 1771,573;  229,881; 2674,104;63,07494
1055,33; 1719,035;  201,265; 2603,258;63,18793
1055,88; 1723,035;  235,881; 2567,488;63,78234
1056,42; 1725,342;  243,881; 2579,873;63,41894
1056,96; 1690,419;  240,419; 2534,796;63,19799
1057,50; 1688,419;  227,958; 2505,258;64,13128
1058,05; 1639,035;  216,188; 2435,950;64,09905
1058,59; 1639,573;  249,881; 2436,719;63,54801
1059,13; 1580,419;  212,727; 2355,258;63,83536
1059,67; 1601,035;  228,112; 2348,950;64,73492
1060,21; 1569,804;  220,881; 2301,719;64,82594
1060,76; 1562,035;  239,727; 2287,027;64,58788
1061,30; 1556,265;  246,496; 2275,104;64,56493
1061,84; 1524,112;  233,496; 2224,027;64,83775
1062,38; 1489,188;  214,881; 2153,104;65,74618
1062,92; 1514,265;  263,496; 2191,719;64,86642
1063,46; 1469,265;  250,342; 2135,565;64,65670
1064,01; 1431,188;  221,958; 2084,335;64,92943
1064,55; 1425,188;  229,188; 2065,642;65,12551
1065,09; 1384,342;  200,573; 1974,412;66,73489
1065,63; 1414,881;  263,035; 2042,873;64,71633
1066,17; 1403,573;  255,112; 2012,258;65,35948
1066,71; 1369,188;  251,881; 1995,719;64,07174
1067,25; 1345,419;  235,650; 1933,488;65,36365
1067,80; 1344,188;  238,804; 1928,412;65,42256
1068,34; 1354,650;  260,958; 1935,027;65,33137
1068,88; 1297,958;  224,573; 1857,412;65,73734
1069,42; 1315,804;  257,804; 1866,565;65,76487
1069,96; 1265,035;  230,035; 1806,258;65,66329
1070,50; 1294,804;  262,265; 1830,412;65,84453
1071,04; 1256,573;  226,958; 1775,258;66,49973
1071,58; 1225,342;  228,265; 1753,027;65,39232
1072,12; 1231,881;  235,188; 1738,873;66,28333
1072,66; 1211,881;  221,188; 1709,181;66,57913
1073,21; 1227,804;  244,112; 1729,104;66,24225
1073,75; 1213,650;  234,958; 1680,950;67,68309
1074,29; 1177,419;  241,958; 1645,027;66,67251
1074,83; 1174,419;  245,650; 1676,181;64,92480
1075,37; 1172,342;  246,573; 1652,642;65,84094
1075,91; 1148,727;  249,881; 1618,181;65,69072
1076,45; 1129,496;  237,573; 1606,104;65,17377
1076,99; 1123,496;  247,035; 1562,719;66,61639
1077,53; 1092,881;  228,650; 1542,719;65,76752
1078,07; 1100,188;  238,727; 1527,412;66,84813
1078,61; 1081,727;  244,112; 1495,950;66,91082
1079,15; 1068,342;  237,265; 1484,488;66,63418
1079,69; 1055,650;  226,496; 1473,258;66,50461
1080,23; 1075,727;  253,265; 1479,181;67,08958
1080,77; 1062,650;  272,804; 1493,796;64,68887
1081,31; 1026,342;  226,881; 1429,104;66,49860
1081,85; 1045,265;  249,727; 1421,565;67,88807
1082,39; 1013,419;  228,188; 1389,335;67,62549
1082,93; 1016,881;  255,804; 1379,181;67,74903
1083,47;  983,804;  233,342; 1353,104;67,01976
1084,01;  988,112;  249,112; 1369,565;65,95542
1084,55;  963,419;  234,419; 1334,258;66,28246
1085,09;  959,496;  255,881; 1343,181;64,71217
1085,63;  945,112;  241,650; 1310,412;65,82025
1086,17;  933,650;  226,804; 1293,258;66,28005
1086,71;  926,265;  226,958; 1264,642;67,39116
1087,24;  926,188;  261,650; 1288,796;64,69756
1087,78;  926,035;  244,573; 1253,488;67,54397
1088,32;  884,573;  228,881; 1207,335;67,01311
1088,86;  918,958;  261,881; 1225,181;68,21104
1089,40;  894,265;  241,265; 1206,873;67,62581
1089,94;  863,727;  213,650; 1198,565;66,00333
1090,48;  867,573;  257,419; 1166,488;67,11852
1091,02;  888,958;  250,958; 1173,335;69,16912
1091,56;  867,265;  244,112; 1148,335;68,91594
1092,10;  817,496;  218,881; 1127,412;65,88829
1092,63;  853,650;  260,188; 1146,104;66,98851
1093,17;  844,958;  251,188; 1109,258;69,19829
1093,71;  804,573;  232,650; 1096,719;66,18950
1094,25;  832,727;  258,496; 1117,104;66,87929
1094,79;  808,496;  233,112; 1085,181;67,52792
1095,33;  796,035;  235,958; 1056,488;68,25788
1095,87;  791,573;  243,573; 1068,873;66,40010
1096,40;  755,573;  226,188; 1029,258;65,92017
1096,94;  770,573;  235,342; 1011,335;68,97372
1097,48;  770,958;  247,804; 1025,796;67,24409
1098,02;  768,496;  228,573; 1004,258;69,60601
1098,56;  729,804;  208,958;  970,258;68,41536
1099,10;  725,188;  214,650;  962,873;68,23346
1099,63;  727,727;  216,881;  949,488;69,72984
1100,17;  733,035;  241,650;  972,565;67,22866
1100,71;  747,342;  265,496;  968,565;68,53467

