
Integration time [ms]: 120,000
Averaging Nr. [scans]: 13
Smoothing Nr. [pixels]: 0
Data measured with spectrometer [name]: 2009305U1
Wave   ;Sample   ;Dark     ;Reference;Reflectance
[nm]   ;[counts] ;[counts] ;[counts] ;[%]

 175,72;  198,737;  194,016;  198,267;111,05793
 176,32;  206,292;  226,157;  216,647; 0,00000
 176,92;  247,107;  238,935;  251,493;65,07598
 177,52;  260,748;  246,706;  249,485;505,25745
 178,12;  230,801;  225,696;  211,489; 0,00000
 178,72;  253,970;  254,154;  243,669; 0,00000
 179,32;  241,966;  244,772;  234,759; 0,00000
 179,92;  249,998;  235,854;  246,678;130,67727
 180,52;  224,501;  237,177;  248,539;-111,56183
 181,12;  248,287;  252,394;  240,739; 0,00000
 181,73;  260,514;  264,010;  267,931;-89,15040
 182,33;  333,345;  334,018;  330,471; 0,00000
 182,93;  263,906;  255,706;  267,242;71,07791
 183,53;  229,029;  235,536;  221,113; 0,00000
 184,13;  229,146;  232,923;  221,621; 0,00000
 184,73;  272,677;  267,843;  262,387; 0,00000
 185,33;  255,498;  228,381;  335,444;25,32788
 185,93;  261,034;  231,526;  338,041;27,70343
 186,53;  279,663;  233,454;  343,456;42,00777
 187,13;  292,959;  276,002;  395,370;14,20512
 187,73;  272,950;  221,989;  349,861;39,85307
 188,33;  268,863;  229,906;  347,126;33,23348
 188,93;  275,971;  234,351;  348,686;36,40179
 189,53;  276,134;  247,108;  354,168;27,11236
 190,13;  308,921;  273,933;  374,647;34,74014
 190,73;  255,230;  220,563;  332,411;30,99536
 191,34;  285,954;  249,269;  370,360;30,29475
 191,94;  254,764;  232,209;  334,632;22,02219
 192,54;  281,577;  246,625;  373,182;27,61714
 193,14;  287,113;  247,463;  380,421;29,82126
 193,74;  278,706;  251,538;  354,109;26,48738
 194,34;  278,874;  237,081;  364,421;32,82045
 194,94;  241,809;  214,386;  334,255;22,87735
 195,54;  232,296;  186,766;  302,244;39,42763
 196,14;  250,522;  217,698;  337,876;27,31290
 196,74;  230,304;  216,072;  339,398;11,54044
 197,34;  222,935;  191,166;  319,141;24,82473
 197,94;  251,145;  219,003;  355,312;23,58086
 198,54;  258,350;  226,698;  370,296;22,04208
 199,14;  250,924;  204,785;  349,871;31,80107
 199,74;  234,382;  195,477;  352,499;24,77646
 200,34;  221,125;  194,478;  364,662;15,65755
 200,94;  271,082;  227,780;  401,651;24,90474
 201,54;  246,093;  211,168;  409,027;17,65140
 202,14;  279,359;  228,020;  445,267;23,63185
 202,74;  250,565;  206,784;  430,504;19,56939
 203,34;  239,369;  180,332;  460,976;21,03657
 203,94;  207,110;  157,097;  443,482;17,46338
 204,54;  266,072;  238,696;  524,864; 9,56653
 205,14;  242,752;  184,631;  528,676;16,89337
 205,74;  292,377;  235,947;  625,105;14,50059
 206,34;  251,575;  200,558;  633,521;11,78333
 206,94;  274,759;  216,172;  681,653;12,58630
 207,54;  239,605;  175,019;  706,448;12,15321
 208,14;  267,868;  194,405;  786,262;12,41236
 208,74;  274,243;  198,707;  850,911;11,58155
 209,34;  286,872;  193,016;  926,530;12,79544
 209,94;  291,785;  211,477; 1018,464; 9,95151
 210,54;  298,472;  200,175; 1119,325;10,69433
 211,14;  313,561;  199,246; 1195,824;11,47077
 211,73;  312,474;  202,859; 1308,936; 9,91020
 212,33;  323,317;  228,010; 1385,870; 8,23124
 212,93;  337,788;  199,322; 1484,041;10,77794
 213,53;  307,085;  182,784; 1508,231; 9,37802
 214,13;  337,783;  192,335; 1591,162;10,39786
 214,73;  323,975;  175,635; 1652,036;10,04737
 215,33;  316,323;  162,554; 1647,310;10,35651
 215,93;  364,809;  191,254; 1778,613;10,93359
 216,53;  336,239;  157,245; 1830,051;10,70023
 217,13;  405,450;  209,945; 2007,450;10,87650
 217,73;  399,571;  192,485; 2195,407;10,33920
 218,33;  380,259;  142,721; 2358,703;10,71932
 218,93;  438,598;  183,884; 2658,291;10,29394
 219,53;  482,024;  183,798; 2911,716;10,93239
 220,13;  480,636;  161,031; 3188,857;10,55560
 220,73;  542,393;  169,939; 3498,565;11,18940
 221,32;  592,858;  179,476; 3870,065;11,20096
 221,92;  645,936;  182,184; 4242,702;11,42102
 222,52;  654,542;  169,024; 4632,479;10,87762
 223,12;  717,300;  179,948; 5040,131;11,05621
 223,72;  759,681;  197,102; 5405,605;10,80117
 224,32;  798,629;  184,948; 5758,340;11,01091
 224,92;  799,516;  172,871; 6080,719;10,60698
 225,52;  863,370;  198,249; 6384,050;10,75239
 226,12;  880,359;  184,022; 6702,011;10,68331
 226,72;  882,392;  165,713; 7040,311;10,42503
 227,31;  913,048;  148,713; 7377,228;10,57388
 227,91;  976,370;  192,094; 7774,024;10,34402
 228,51; 1019,525;  172,319; 8110,251;10,67288
 229,11; 1066,806;  182,867; 8430,008;10,71813
 229,71; 1077,525;  177,707; 8750,561;10,49613
 230,31; 1107,127;  157,643; 9124,783;10,58849
 230,91; 1130,874;  153,162; 9402,398;10,57073
 231,51; 1161,611;  152,177; 9623,785;10,65747
 232,10; 1201,296;  165,567; 9967,863;10,56618
 232,70; 1247,643;  173,696;10107,805;10,81071
 233,30; 1280,897;  199,023;10320,499;10,68890
 233,90; 1278,861;  173,715;10449,877;10,75446
 234,50; 1313,131;  171,177;10556,051;10,99632
 235,10; 1315,593;  176,948;10582,796;10,94235
 235,70; 1370,356;  183,325;10561,047;11,43826
 236,29; 1371,924;  181,784;10476,230;11,56099
 236,89; 1349,225;  154,394;10414,098;11,64587
 237,49; 1385,033;  182,791;10362,277;11,81044
 238,09; 1379,345;  173,173;10106,136;12,14312
 238,69; 1383,288;  212,160; 9870,119;12,12604
 239,29; 1373,978;  165,480; 9572,305;12,84704
 239,89; 1363,339;  179,394; 9271,258;13,02203
 240,48; 1361,846;  175,635; 8914,130;13,57455
 241,08; 1342,722;  166,941; 8528,801;14,06124
 241,68; 1369,125;  185,789; 8233,433;14,70413
 242,28; 1358,388;  161,022; 7956,965;15,35884
 242,88; 1389,241;  202,027; 7661,559;15,91539
 243,48; 1432,037;  206,791; 7450,034;16,91571
 244,07; 1412,565;  176,248; 7171,325;17,67410
 244,67; 1467,861;  188,097; 7040,979;18,67482
 245,27; 1485,320;  194,167; 6927,013;19,17693
 245,87; 1523,721;  201,103; 6823,343;19,97236
 246,47; 1544,203;  178,475; 6792,096;20,65023
 247,06; 1606,268;  178,711; 6809,648;21,52874
 247,66; 1683,909;  176,943; 6913,025;22,37154
 248,26; 1765,166;  199,552; 7018,347;22,96027
 248,86; 1846,580;  187,706; 7166,505;23,77019
 249,46; 1911,077;  143,177; 7325,157;24,61577
 250,05; 2040,700;  195,711; 7674,797;24,66864
 250,65; 2161,646;  163,858; 7987,567;25,53505
 251,25; 2340,748;  168,710; 8386,741;26,43015
 251,85; 2516,899;  191,240; 8915,056;26,65874
 252,44; 2661,283;  138,938; 9486,521;26,98393
 253,04; 2895,239;  185,401;10157,258;27,17486
 253,64; 3092,261;  154,165;10769,848;27,67694
 254,24; 3378,780;  190,634;11616,401;27,90313
 254,84; 3611,230;  176,023;12433,388;28,02566
 255,43; 3870,602;  180,400;13328,971;28,06542
 256,03; 4140,712;  177,319;14249,578;28,16458
 256,63; 4449,727;  179,394;15180,015;28,46771
 257,23; 4674,199;  159,163;15961,696;28,57160
 257,82; 4967,654;  176,005;16868,821;28,70486
 258,42; 5108,721;  137,464;17584,779;28,49296
 259,02; 5434,763;  193,554;18413,358;28,76655
 259,62; 5580,710;  164,155;19025,149;28,71829
 260,21; 5722,840;  174,784;19565,639;28,61171
 260,81; 5831,059;  174,252;19944,294;28,61302
 261,41; 5899,017;  160,235;20445,689;28,29013
 262,01; 6062,651;  213,538;20784,984;28,43317
 262,60; 6064,584;  158,779;21100,311;28,20140
 263,20; 6114,767;  167,782;21451,036;27,94208
 263,80; 6159,714;  196,692;21575,238;27,89255
 264,40; 6137,402;  159,154;21771,584;27,66116
 264,99; 6126,956;  183,614;21893,662;27,37599
 265,59; 6096,506;  160,069;22045,776;27,12472
 266,19; 6111,248;  160,615;22172,327;27,03394
 266,78; 6080,685;  210,073;22403,129;26,45247
 267,38; 5985,363;  182,071;22251,484;26,29563
 267,98; 5934,524;  168,227;22358,384;25,98583
 268,58; 5873,480;  185,686;22349,093;25,66299
 269,17; 5802,829;  171,373;22393,495;25,34166
 269,77; 5745,412;  187,469;22212,525;25,23464
 270,37; 5602,787;  155,152;22158,993;24,75765
 270,96; 5560,790;  214,620;21936,702;24,61168
 271,56; 5417,383;  182,624;21851,701;24,15774
 272,16; 5322,354;  171,696;21634,693;23,99785
 272,75; 5224,442;  177,158;21476,144;23,69730
 273,35; 5186,951;  180,467;21428,935;23,56162
 273,95; 5071,361;  176,158;21482,387;22,97546
 274,54; 5032,608;  170,173;21529,513;22,76492
 275,14; 5060,925;  200,391;21777,456;22,52639
 275,74; 4978,794;  158,465;21845,972;22,22629
 276,33; 5025,357;  205,007;22249,862;21,86610
 276,93; 5046,235;  184,943;22533,451;21,75220
 277,53; 5109,536;  185,245;22997,011;21,58662
 278,12; 5146,818;  157,318;23436,402;21,43340
 278,72; 5310,067;  211,322;24043,856;21,39405
 279,32; 5296,829;  172,937;24503,393;21,05958
 279,91; 5470,280;  152,858;25141,301;21,27952
 280,51; 5534,433;  171,477;25586,379;21,10162
 281,11; 5625,320;  172,781;26278,141;20,88666
 281,70; 5712,796;  157,704;26684,399;20,94152
 282,30; 5791,306;  158,471;27180,624;20,84525
 282,90; 5881,558;  172,240;27550,499;20,85348
 283,49; 5999,793;  186,160;28171,024;20,77421
 284,09; 6152,382;  207,472;28480,445;21,02683
 284,69; 6238,778;  196,167;28751,025;21,16141
 285,28; 6296,617;  188,626;29083,510;21,13866
 285,88; 6460,761;  221,542;29272,953;21,47647
 286,47; 6454,331;  179,778;29369,487;21,49577
 287,07; 6580,217;  200,244;29381,227;21,86346
 287,67; 6656,037;  193,406;29596,650;21,97931
 288,26; 6751,953;  180,321;29512,516;22,40416
 288,86; 6851,514;  165,319;29423,339;22,85252
 289,46; 7009,811;  189,551;29655,248;23,14644
 290,05; 7163,905;  164,479;29711,574;23,68905
 290,65; 7376,423;  181,162;29850,899;24,25118
 291,24; 7618,473;  184,706;30074,731;24,87039
 291,84; 7779,496;  197,086;30074,476;25,37842
 292,44; 7983,483;  181,945;30175,468;26,01074
 293,03; 8221,917;  250,860;30338,844;26,49249
 293,63; 8339,906;  173,932;30367,108;27,04576
 294,22; 8500,338;  194,704;30670,721;27,25302
 294,82; 8668,761;  175,539;30491,182;28,01597
 295,41; 8636,873;  162,165;30314,476;28,10633
 296,01; 8726,622;  212,311;30256,904;28,33891
 296,61; 8733,767;  187,014;30090,293;28,58132
 297,20; 8663,321;  191,388;29613,290;28,79465
 297,80; 8697,052;  180,788;29524,548;29,02240
 298,39; 8567,361;  165,778;29048,210;29,08890
 298,99; 8536,519;  195,236;28994,632;28,96340
 299,58; 8539,480;  195,559;28767,351;29,20335
 300,18; 8445,762;  203,710;28728,179;28,89467
 300,78; 8271,792;  175,785;28270,208;28,81713
 301,37; 8245,150;  191,536;28271,246;28,68126
 301,97; 8267,159;  189,628;28233,781;28,80291
 302,56; 8204,207;  184,085;28193,799;28,63336
 303,16; 8141,639;  165,161;28142,435;28,51056
 303,75; 8105,561;  179,939;28195,465;28,29011
 304,35; 8148,208;  165,870;28372,308;28,29970
 304,94; 8100,287;  177,320;28346,456;28,12641
 305,54; 8084,858;  200,707;28295,834;28,06234
 306,13; 7982,835;  150,717;28177,759;27,94486
 306,73; 7892,505;  168,637;28015,267;27,73717
 307,33; 7873,777;  192,867;27894,927;27,72685
 307,92; 7870,492;  186,168;28003,542;27,62419
 308,52; 7944,244;  174,160;28435,907;27,49329
 309,11; 8044,365;  176,925;28825,322;27,46206
 309,71; 8027,824;  158,000;29031,487;27,25623
 310,30; 8126,404;  165,629;29297,707;27,32649
 310,90; 8163,327;  191,937;29506,168;27,19290
 311,49; 8221,279;  190,552;29639,711;27,26980
 312,09; 8196,414;  151,941;29777,570;27,15376
 312,68; 8320,700;  229,477;30155,616;27,03731
 313,28; 8299,261;  162,322;30280,158;27,01701
 313,87; 8289,181;  148,321;30362,682;26,94368
 314,47; 8368,109;  171,773;30539,485;26,99030
 315,06; 8372,891;  163,553;30730,596;26,85683
 315,66; 8422,722;  165,326;30933,108;26,83780
 316,25; 8367,072;  155,700;30843,122;26,75810
 316,85; 8391,890;  142,095;30900,547;26,82123
 317,44; 8405,933;  164,157;30920,199;26,79726
 318,04; 8412,057;  150,701;30948,582;26,82443
 318,63; 8454,447;  150,560;31009,231;26,90941
 319,22; 8528,716;  181,085;31128,461;26,97363
 319,82; 8450,045;  173,703;31166,491;26,70409
 320,41; 8536,496;  180,700;31047,604;27,07041
 321,01; 8547,524;  187,709;31067,639;27,07200
 321,60; 8600,712;  179,011;31138,090;27,20269
 322,20; 8574,235;  171,091;31096,371;27,17241
 322,79; 8654,063;  200,399;31101,022;27,35758
 323,39; 8683,069;  168,024;31143,105;27,48999
 323,98; 8675,396;  162,630;31071,988;27,54106
 324,58; 8677,570;  161,545;30955,256;27,65508
 325,17; 8676,680;  165,315;30876,532;27,71419
 325,76; 8758,071;  192,090;30626,894;28,14535
 326,36; 8663,469;  146,786;30249,053;28,29250
 326,95; 8684,569;  199,703;30079,233;28,39692
 327,55; 8583,013;  165,164;29661,473;28,53865
 328,14; 8587,059;  165,635;29298,781;28,90668
 328,74; 8554,057;  195,393;28936,172;29,08294
 329,33; 8512,283;  189,709;28612,650;29,28118
 329,92; 8373,493;  164,772;28090,229;29,39512
 330,52; 8282,550;  181,097;27502,657;29,65223
 331,11; 8288,423;  167,242;27149,516;30,09821
 331,71; 8203,664;  176,089;26568,301;30,41645
 332,30; 8142,287;  189,167;26159,379;30,62401
 332,89; 8069,389;  211,401;25682,347;30,85079
 333,49; 8000,818;  180,242;25259,428;31,18353
 334,08; 7972,533;  171,933;24847,508;31,61263
 334,68; 7896,588;  171,703;24464,248;31,79940
 335,27; 7858,297;  200,329;24167,500;31,95191
 335,86; 7896,884;  214,780;23887,131;32,45180
 336,46; 7893,963;  185,713;23687,330;32,79881
 337,05; 7906,078;  164,857;23535,356;33,12390
 337,65; 7924,760;  152,318;23339,982;33,51973
 338,24; 8081,265;  214,630;23349,941;34,00272
 338,83; 8117,144;  195,707;23239,574;34,37546
 339,43; 8193,969;  165,315;23119,490;34,97688
 340,02; 8224,984;  165,238;23086,210;35,16319
 340,61; 8419,411;  166,553;23109,401;35,97138
 341,21; 8494,441;  204,316;23124,556;36,16945
 341,80; 8576,881;  173,779;23072,579;36,69669
 342,40; 8664,121;  180,635;23192,984;36,86493
 342,99; 8829,927;  174,478;23301,885;37,42508
 343,58; 8989,360;  176,555;23396,188;37,95411
 344,18; 9160,982;  181,171;23564,497;38,40262
 344,77; 9366,929;  163,391;23760,547;39,00274
 345,36; 9556,646;  156,165;23997,002;39,43016
 345,96; 9800,396;  193,478;24323,425;39,81326
 346,55;10012,428;  174,870;24541,473;40,37312
 347,14;10246,868;  164,097;24816,185;40,90027
 347,74;10498,251;  149,645;25215,293;41,28601
 348,33;10848,175;  172,952;25725,574;41,77741
 348,92;11218,936;  168,187;26236,165;42,39205
 349,52;11494,782;  150,416;26665,190;42,78508
 350,11;11718,075;  167,698;26798,699;43,37192
 350,70;11874,279;  169,629;26971,122;43,67163
 351,29;11909,494;  164,227;26756,507;44,16796
 351,89;12034,885;  190,771;26758,435;44,58094
 352,48;12104,147;  155,706;26740,151;44,94523
 353,07;12253,022;  180,252;26654,365;45,60217
 353,67;12319,423;  188,495;26653,593;45,83746
 354,26;12372,810;  182,789;26417,304;46,46558
 354,85;12440,330;  189,864;26333,671;46,85800
 355,45;12468,068;  164,625;26162,264;47,32523
 356,04;12553,414;  167,022;26096,674;47,76922
 356,63;12606,467;  206,858;25873,678;48,30988
 357,22;12615,348;  175,845;25784,330;48,57571
 357,82;12705,728;  176,385;25606,010;49,27066
 358,41;12799,309;  197,243;25509,331;49,78675
 359,00;12774,449;  169,777;25303,608;50,15022
 359,60;12850,939;  190,630;25273,591;50,47374
 360,19;12921,263;  177,253;25107,227;51,11923
 360,78;12946,723;  173,010;24988,284;51,47520
 361,37;12974,489;  169,549;24824,373;51,93685
 361,97;13108,320;  176,474;24712,602;52,70532
 362,56;12988,445;  167,775;24473,645;52,74722
 363,15;12977,328;  209,779;24230,295;53,15268
 363,74;12928,969;  176,619;23925,616;53,69637
 364,34;12914,819;  218,084;23637,401;54,21480
 364,93;12729,171;  158,390;23295,638;54,33136
 365,52;12700,500;  151,703;22980,901;54,96819
 366,11;12589,006;  177,777;22762,342;54,95447
 366,71;12540,178;  156,085;22347,615;55,80549
 367,30;12462,379;  172,703;22020,688;56,25084
 367,89;12407,315;  207,403;21896,694;56,24855
 368,48;12295,347;  191,466;21630,102;56,45826
 369,07;12212,510;  186,937;21210,122;57,20148
 369,67;12092,292;  199,236;20945,927;57,32507
 370,26;12014,041;  177,014;20796,993;57,40562
 370,85;11970,635;  188,549;20526,859;57,93051
 371,44;11940,749;  178,781;20325,584;58,38131
 372,03;11817,068;  160,623;20078,904;58,52134
 372,63;11717,353;  153,550;19802,671;58,85150
 373,22;11650,155;  172,244;19568,588;59,17564
 373,81;11527,617;  150,703;19307,510;59,38836
 374,40;11498,231;  157,789;19109,514;59,83857
 374,99;11396,851;  172,548;18855,933;60,07639
 375,59;11252,916;  152,249;18550,282;60,33616
 376,18;11272,555;  193,702;18529,307;60,42262
 376,77;11173,353;  189,782;18381,159;60,37790
 377,36;11211,196;  199,472;18307,965;60,80972
 377,95;11067,632;  191,777;18115,408;60,67886
 378,55;11070,601;  165,171;17889,177;61,52915
 379,14;11039,331;  181,011;17802,693;61,61909
 379,73;11027,778;  179,162;17734,202;61,79773
 380,32;11112,107;  172,012;17772,336;62,15849
 380,91;11014,240;  166,158;17734,252;61,74877
 381,50;11025,596;  185,775;17649,350;62,07103
 382,10;11003,261;  163,551;17514,413;62,47361
 382,69;10968,815;  148,087;17523,953;62,27446
 383,28;10936,617;  198,391;17482,559;62,12753
 383,87;10932,273;  167,238;17348,630;62,65520
 384,46;10902,893;  163,462;17312,538;62,62396
 385,05;10921,423;  196,929;17364,616;62,46907
 385,64;10905,467;  180,469;17232,112;62,89715
 386,24;10907,900;  154,308;17292,513;62,74632
 386,83;10993,937;  190,923;17296,878;63,15353
 387,42;10998,998;  192,777;17418,059;62,73465
 388,01;11142,004;  176,994;17540,296;63,15048
 388,60;11309,318;  185,771;17804,327;63,13541
 389,19;11483,008;  165,680;18007,486;63,43152
 389,78;11562,975;  172,681;18212,904;63,13832
 390,37;11867,132;  226,075;18573,896;63,44653
 390,96;11907,234;  180,154;18681,453;63,38517
 391,56;12039,152;  178,062;18887,598;63,39596
 392,15;12157,488;  162,837;19059,836;63,47384
 392,74;12266,146;  148,668;19202,823;63,59494
 393,33;12475,459;  172,753;19503,187;63,64423
 393,92;12685,721;  181,202;19883,083;63,46866
 394,51;12721,485;  169,292;20011,204;63,26101
 395,10;12913,976;  199,265;20272,439;63,34181
 395,69;12937,280;  184,883;20368,503;63,18191
 396,28;12979,310;  186,183;20409,402;63,25960
 396,87;13034,502;  193,556;20514,607;63,19037
 397,46;13084,918;  203,548;20594,018;63,17348
 398,06;13180,798;  216,383;20832,672;62,88433
 398,65;13215,549;  196,437;20820,681;63,12528
 399,24;13288,659;  210,201;20967,877;63,00541
 399,83;13249,657;  183,165;20975,755;62,84206
 400,42;13299,420;  231,441;21159,672;62,44187
 401,01;13303,264;  201,942;21137,831;62,57829
 401,60;13394,140;  226,200;21243,809;62,65194
 402,19;13292,039;  226,084;21134,168;62,49236
 402,78;13277,510;  243,099;21211,188;62,16308
 403,37;13188,859;  228,887;21046,612;62,25450
 403,96;13101,253;  224,973;20955,218;62,11350
 404,55;13075,367;  240,436;20828,171;62,34261
 405,14;12903,681;  223,752;20823,224;61,55463
 405,73;12882,370;  237,286;20711,590;61,76075
 406,32;12865,066;  236,771;20609,267;61,98698
 406,91;12645,240;  233,477;20331,531;61,75604
 407,50;12569,659;  236,753;20204,597;61,76384
 408,09;12377,061;  215,576;19951,023;61,62255
 408,68;12293,119;  231,483;19858,319;61,45482
 409,27;12160,486;  219,658;19648,148;61,46040
 409,86;12104,903;  232,476;19606,705;61,27948
 410,45;12067,898;  269,363;19497,367;61,36120
 411,04;11961,448;  269,713;19441,251;60,98486
 411,63;11770,125;  251,845;19233,304;60,68174
 412,22;11641,810;  261,664;19040,355;60,60138
 412,81;11476,709;  262,758;18838,412;60,36908
 413,40;11274,215;  271,934;18516,931;60,30300
 413,99;11101,201;  302,543;18283,772;60,05518
 414,58;10864,783;  241,240;17956,653;59,96780
 415,17;10679,090;  248,681;17730,424;59,66458
 415,76;10593,617;  243,046;17565,309;59,75299
 416,35;10430,725;  233,210;17376,897;59,48263
 416,94;10471,261;  270,204;17403,521;59,53930
 417,53;10580,771;  248,221;17617,641;59,48702
 418,12;10583,507;  249,918;17709,215;59,18674
 418,71;10707,856;  269,089;18020,436;58,80549
 419,30;10727,836;  245,381;18128,604;58,61614
 419,89;10830,890;  246,462;18275,833;58,70659
 420,48;10879,255;  273,550;18536,259;58,07301
 421,07;10971,101;  262,554;18635,979;58,28280
 421,66;10918,909;  245,872;18599,106;58,15344
 422,25;10894,573;  248,738;18588,151;58,04894
 422,84;10867,913;  274,050;18623,966;57,73249
 423,43;10760,104;  255,118;18366,275;58,00284
 424,02;10561,258;  265,891;18118,995;57,66709
 424,60;10291,895;  245,684;17696,050;57,57020
 425,19;10141,776;  259,364;17541,960;57,18129
 425,78;10052,673;  271,212;17430,354;57,00438
 426,37;10030,251;  269,374;17318,583;57,25120
 426,96; 9880,247;  262,374;17229,903;56,68399
 427,55; 9797,747;  248,003;16979,032;57,07805
 428,14; 9636,417;  240,624;16887,698;56,44111
 428,73; 9584,968;  259,613;16722,066;56,64620
 429,32; 9548,643;  283,219;16678,378;56,51317
 429,91; 9457,532;  277,075;16697,955;55,90721
 430,50; 9456,219;  271,621;16565,612;56,36801
 431,08; 9302,409;  277,935;16481,262;55,69519
 431,67; 9251,433;  316,403;16388,231;55,59436
 432,26; 9100,909;  336,101;16236,211;55,12419
 432,85; 8916,832;  350,715;15970,928;54,83995
 433,44; 8700,245;  350,032;15582,963;54,81685
 434,03; 8505,554;  371,813;15326,675;54,38861
 434,62; 8294,904;  332,648;14898,740;54,66295
 435,21; 8189,502;  341,947;14752,617;54,45656
 435,79; 8043,185;  333,501;14642,599;53,87960
 436,38; 7972,136;  340,205;14529,174;53,78778
 436,97; 7881,659;  331,207;14450,326;53,47680
 437,56; 7772,180;  335,532;14316,769;53,19020
 438,15; 7691,775;  310,605;14250,839;52,94868
 438,74; 7681,276;  336,914;14269,116;52,71501
 439,33; 7691,921;  309,604;14259,069;52,92187
 439,91; 7667,085;  259,228;14252,421;52,93900
 440,50; 7689,645;  324,382;14376,630;52,41341
 441,09; 7697,863;  321,469;14425,313;52,30060
 441,68; 7704,862;  302,095;14404,985;52,49113
 442,27; 7616,009;  288,398;14400,571;51,92404
 442,86; 7611,207;  270,267;14432,168;51,83584
 443,44; 7604,761;  283,955;14449,553;51,68018
 444,03; 7613,929;  337,114;14457,891;51,53268
 444,62; 7529,603;  278,960;14405,388;51,32680
 445,21; 7424,120;  296,419;14215,896;51,20667
 445,80; 7401,081;  313,200;14205,691;51,01951
 446,39; 7283,529;  333,737;13923,431;51,14016
 446,97; 7097,823;  274,135;13673,064;50,92712
 447,56; 6995,305;  280,222;13607,766;50,38500
 448,15; 6867,039;  287,135;13423,010;50,09110
 448,74; 6758,878;  303,367;13256,600;49,83707
 449,33; 6703,536;  277,067;13063,790;50,25892
 449,91; 6551,809;  289,387;12956,112;49,43995
 450,50; 6385,974;  273,692;12708,561;49,15438
 451,09; 6421,099;  308,232;12626,505;49,62438
 451,68; 6336,556;  319,698;12538,802;49,24140
 452,26; 6284,852;  307,473;12513,893;48,96914
 452,85; 6222,937;  297,239;12375,559;49,06061
 453,44; 6159,033;  314,101;12339,263;48,60585
 454,03; 6133,936;  289,553;12356,434;48,43325
 454,61; 6105,029;  284,256;12352,456;48,23232
 455,20; 6181,285;  322,800;12534,322;47,97506
 455,79; 6147,557;  321,098;12473,747;47,94395
 456,38; 6182,511;  314,193;12538,031;48,00716
 456,97; 6173,507;  287,960;12593,734;47,82753
 457,55; 6119,503;  290,890;12646,468;47,17394
 458,14; 6129,032;  321,112;12601,551;47,29407
 458,73; 6093,191;  316,276;12555,121;47,20147
 459,31; 6060,607;  328,670;12602,094;46,70203
 459,90; 6120,755;  333,280;12681,577;46,86861
 460,49; 6151,143;  377,662;12779,332;46,55407
 461,08; 6115,797;  307,598;12787,769;46,53942
 461,66; 6155,347;  309,746;12851,601;46,60874
 462,25; 6104,881;  322,449;12934,798;45,84738
 462,84; 6128,178;  339,214;13025,192;45,63277
 463,43; 6105,257;  270,536;12964,110;45,96594
 464,01; 6110,161;  317,849;12969,199;45,78414
 464,60; 6077,448;  354,225;12963,089;45,39047
 465,19; 5945,314;  307,236;12696,355;45,50831
 465,77; 5931,995;  315,088;12706,291;45,32979
 466,36; 5905,736;  337,690;12626,536;45,30976
 466,95; 5701,249;  317,999;12317,699;44,86154
 467,53; 5611,796;  316,786;12076,005;45,02858
 468,12; 5486,554;  349,711;11800,376;44,86065
 468,71; 5372,731;  320,545;11638,399;44,63908
 469,29; 5231,257;  304,481;11411,007;44,35929
 469,88; 5119,322;  314,332;11190,840;44,17769
 470,47; 5211,735;  368,649;11311,183;44,25927
 471,06; 5093,552;  318,264;11269,640;43,60445
 471,64; 5150,028;  339,031;11381,077;43,56980
 472,23; 5119,908;  307,895;11389,888;43,42191
 472,81; 5153,891;  300,118;11454,457;43,51467
 473,40; 5186,132;  310,588;11570,912;43,29843
 473,99; 5322,015;  394,127;11722,072;43,50204
 474,57; 5289,315;  313,511;11830,455;43,20421
 475,16; 5364,045;  333,504;11988,048;43,16377
 475,75; 5375,387;  360,364;12053,266;42,88947
 476,33; 5390,624;  358,448;12143,527;42,69956
 476,92; 5383,176;  336,282;12233,177;42,42194
 477,51; 5397,845;  346,060;12288,921;42,29962
 478,09; 5380,456;  336,983;12296,626;42,17077
 478,68; 5342,841;  350,602;12265,550;41,89895
 479,27; 5345,955;  366,826;12314,527;41,67437
 479,85; 5316,581;  339,832;12270,750;41,71304
 480,44; 5387,086;  311,989;12370,221;42,08823
 481,02; 5788,535;  353,688;13546,184;41,19650
 481,61; 6503,418;  363,608;15373,035;40,90636
 482,20; 6914,627;  359,688;16391,699;40,88656
 482,78; 7226,075;  389,373;17143,513;40,80604
 483,37; 7374,603;  375,775;17616,393;40,59500
 483,95; 7502,449;  403,931;17817,830;40,76352
 484,54; 7563,038;  403,915;18031,150;40,61399
 485,13; 7504,210;  377,554;17942,141;40,57400
 485,71; 7385,210;  356,320;17707,985;40,50845
 486,30; 7296,053;  395,244;17470,382;40,41437
 486,88; 7165,452;  427,169;17188,181;40,20213
 487,47; 6906,543;  404,479;16523,825;40,33702
 488,05; 6594,759;  398,174;15793,414;40,25000
 488,64; 6060,263;  402,259;14602,913;39,84327
 489,23; 5449,161;  402,638;13046,970;39,91135
 489,81; 4622,981;  405,717;11169,236;39,18109
 490,40; 4370,373;  359,257;10617,494;39,10142
 490,98; 4244,347;  349,337;10352,325;38,93846
 491,57; 4230,564;  372,331;10274,576;38,96321
 492,15; 4167,937;  355,262;10215,180;38,66842
 492,74; 4153,879;  359,944;10224,499;38,46028
 493,32; 4106,783;  371,106;10091,359;38,43189
 493,91; 4059,266;  350,573;10008,160;38,40186
 494,50; 4063,271;  345,355; 9984,194;38,57224
 495,08; 3969,938;  339,124; 9921,920;37,88888
 495,67; 4002,654;  373,418; 9908,199;38,06313
 496,25; 3892,485;  307,579; 9783,508;37,83171
 496,84; 3898,032;  322,725; 9778,428;37,81111
 497,42; 3830,451;  309,967; 9753,414;37,27966
 498,01; 3862,401;  341,496; 9692,349;37,65330
 498,59; 3754,294;  300,891; 9639,375;36,98034
 499,18; 3772,288;  303,035; 9576,600;37,41013
 499,76; 3731,807;  329,656; 9544,177;36,92162
 500,35; 3666,146;  316,051; 9349,611;37,08500
 500,93; 3628,942;  311,274; 9328,418;36,79289
 501,52; 3574,741;  308,044; 9278,937;36,41439
 502,10; 3569,424;  320,364; 9198,737;36,59522
 502,69; 3497,255;  301,292; 9083,275;36,39227
 503,27; 3418,088;  290,740; 8903,958;36,30870
 503,86; 3390,314;  315,520; 8928,027;35,70149
 504,44; 3344,687;  280,371; 8765,323;36,11471
 505,03; 3255,320;  280,525; 8543,287;36,00243
 505,61; 3185,339;  293,446; 8460,277;35,41022
 506,19; 3178,232;  301,601; 8354,298;35,72258
 506,78; 3051,920;  277,996; 8146,110;35,25526
 507,36; 3055,950;  290,216; 8039,238;35,69140
 507,95; 2938,487;  287,923; 7904,092;34,80180
 508,53; 2924,887;  288,149; 7801,476;35,09414
 509,12; 2853,113;  298,152; 7639,413;34,80276
 509,70; 2811,260;  309,385; 7499,413;34,79645
 510,29; 2775,625;  320,775; 7422,887;34,56508
 510,87; 2667,312;  286,457; 7282,009;34,03384
 511,46; 2622,905;  288,536; 7131,801;34,11192
 512,04; 2543,552;  286,849; 7000,565;33,61333
 512,62; 2522,978;  289,613; 6849,890;34,04376
 513,21; 2437,980;  269,852; 6709,113;33,67045
 513,79; 2402,085;  285,713; 6605,997;33,48538
 514,38; 2345,880;  263,246; 6470,807;33,54996
 514,96; 2333,052;  306,861; 6418,514;33,15292
 515,54; 2242,660;  267,941; 6259,771;32,95686
 516,13; 2244,081;  287,096; 6174,034;33,24283
 516,71; 2173,783;  287,410; 6066,950;32,63882
 517,30; 2116,252;  278,569; 5982,774;32,21628
 517,88; 2128,164;  294,799; 5907,939;32,66201
 518,46; 2034,416;  269,725; 5812,969;31,83498
 519,05; 2033,060;  279,806; 5776,412;31,89702
 519,63; 2000,394;  284,804; 5713,223;31,60385
 520,22; 2001,825;  295,506; 5662,377;31,79355
 520,80; 1974,173;  281,045; 5631,012;31,64744
 521,38; 1978,928;  323,038; 5570,852;31,55390
 521,97; 1927,894;  282,049; 5587,148;31,02382
 522,55; 1909,992;  292,664; 5531,177;30,87380
 523,13; 1901,578;  266,437; 5513,097;31,16537
 523,72; 1871,251;  281,340; 5487,057;30,54164
 524,30; 1923,325;  299,595; 5630,249;30,46024
 524,89; 1873,395;  269,281; 5638,552;29,87583
 525,47; 1913,229;  295,597; 5717,567;29,83477
 526,05; 1892,361;  257,906; 5785,872;29,56703
 526,64; 1936,346;  291,293; 5865,358;29,51263
 527,22; 1958,292;  290,673; 5983,591;29,29286
 527,80; 2008,665;  317,600; 6074,014;29,37705
 528,39; 2004,210;  275,450; 6186,401;29,24674
 528,97; 2026,152;  285,832; 6304,237;28,91662
 529,55; 2076,230;  298,976; 6454,949;28,87041
 530,14; 2093,719;  314,452; 6646,449;28,09962
 530,72; 2090,379;  288,909; 6750,172;27,88107
 531,30; 2087,220;  272,607; 6821,469;27,70884
 531,89; 2128,107;  295,991; 6918,616;27,66449
 532,47; 2175,330;  315,070; 6991,386;27,86357
 533,05; 2149,515;  310,831; 7076,001;27,17868
 533,63; 2168,901;  317,687; 7083,892;27,35971
 534,22; 2138,264;  289,303; 7113,170;27,09550
 534,80; 2176,289;  321,617; 7164,524;27,10357
 535,38; 2240,239;  381,300; 7274,075;26,96938
 535,97; 2141,825;  303,071; 7215,635;26,60017
 536,55; 2202,886;  349,464; 7304,739;26,64771
 537,13; 2165,539;  360,145; 7257,740;26,17426
 537,71; 2188,653;  399,298; 7269,566;26,04491
 538,30; 2186,428;  420,382; 7394,827;25,32168
 538,88; 2194,903;  444,161; 7494,142;24,83329
 539,46; 2266,695;  510,924; 7627,784;24,67059
 540,05; 2299,640;  516,005; 7744,533;24,67494
 540,63; 2328,076;  551,544; 7924,208;24,09620
 541,21; 2332,573;  580,163; 8060,858;23,42577
 541,79; 2378,460;  620,701; 8148,005;23,35177
 542,38; 2424,677;  665,850; 8317,821;22,98527
 542,96; 2441,719;  669,476; 8402,244;22,91861
 543,54; 2489,398;  685,547; 8614,571;22,74997
 544,12; 2470,243;  668,549; 8691,701;22,45620
 544,70; 2493,939;  645,399; 8839,281;22,56000
 545,29; 2513,845;  645,696; 8928,105;22,55562
 545,87; 2484,152;  616,086; 8978,621;22,33852
 546,45; 2457,973;  586,619; 8996,447;22,25199
 547,03; 2461,541;  559,007; 9041,787;22,42819
 547,62; 2459,522;  525,856; 9173,439;22,36077
 548,20; 2510,543;  531,321; 9311,881;22,54096
 548,78; 2485,607;  498,565; 9347,719;22,45460
 549,36; 2519,633;  469,717; 9586,017;22,48627
 549,94; 2525,525;  414,088; 9682,479;22,78105
 550,53; 2532,619;  437,023; 9851,065;22,26032
 551,11; 2567,691;  415,106;10038,696;22,36780
 551,69; 2600,717;  419,717;10288,531;22,09992
 552,27; 2609,235;  378,097;10492,525;22,05896
 552,85; 2681,926;  385,336;10805,453;22,03996
 553,44; 2741,241;  383,563;11080,939;22,03978
 554,02; 2747,794;  389,411;11384,045;21,45031
 554,60; 2783,944;  335,030;11652,213;21,63890
 555,18; 2887,520;  375,102;11969,550;21,66915
 555,76; 2880,966;  347,642;12277,087;21,23589
 556,34; 2983,057;  366,573;12560,042;21,45808
 556,93; 2995,395;  344,564;12873,503;21,15767
 557,51; 3037,474;  324,112;13198,060;21,07638
 558,09; 3098,032;  355,718;13554,225;20,77746
 558,67; 3168,701;  353,423;13889,485;20,79835
 559,25; 3189,595;  354,036;14124,094;20,59220
 559,83; 3227,462;  347,196;14410,742;20,48037
 560,41; 3266,859;  340,418;14767,931;20,28376
 561,00; 3315,737;  351,808;14941,414;20,31535
 561,58; 3348,753;  339,109;15252,131;20,18131
 562,16; 3358,900;  334,029;15497,974;19,94778
 562,74; 3397,234;  309,411;15785,477;19,95224
 563,32; 3459,927;  318,657;16181,345;19,80289
 563,90; 3504,258;  329,270;16458,603;19,68456
 564,48; 3599,585;  343,031;16834,666;19,74670
 565,06; 3660,851;  334,653;17313,932;19,58975
 565,65; 3775,626;  336,894;17917,118;19,56023
 566,23; 3874,869;  388,039;18652,462;19,09083
 566,81; 3958,137;  335,805;19188,082;19,21429
 567,39; 4083,682;  348,659;20039,958;18,96788
 567,97; 4171,210;  368,191;20519,889;18,87195
 568,55; 4311,319;  370,118;21289,859;18,83963
 569,13; 4390,133;  344,501;21848,711;18,81321
 569,71; 4519,827;  342,106;22708,500;18,67856
 570,29; 4710,073;  379,102;23586,296;18,66219
 570,87; 4820,025;  373,797;24214,917;18,64941
 571,45; 4899,170;  363,654;24755,229;18,59460
 572,03; 4913,154;  328,737;25146,974;18,47197
 572,61; 4958,920;  340,580;25739,728;18,18305
 573,20; 5106,005;  352,727;26411,700;18,24047
 573,78; 5165,023;  337,042;26917,386;18,16373
 574,36; 5183,115;  355,809;27416,465;17,83883
 574,94; 5297,396;  405,046;27623,297;17,97452
 575,52; 5241,171;  361,670;27877,892;17,73318
 576,10; 5357,776;  412,051;28369,286;17,69032
 576,68; 5426,715;  398,506;28876,080;17,65673
 577,26; 5505,793;  413,366;29444,203;17,54144
 577,84; 5596,199;  425,118;29845,389;17,57659
 578,42; 5609,524;  463,664;30168,178;17,32349
 579,00; 5542,656;  415,811;30283,351;17,16527
 579,58; 5565,872;  466,277;30502,120;16,97836
 580,16; 5549,864;  425,511;30483,761;17,04807
 580,74; 5548,582;  432,512;30633,728;16,93995
 581,32; 5549,967;  427,432;30745,495;16,89598
 581,90; 5514,157;  438,819;30616,477;16,81820
 582,48; 5453,575;  445,050;30785,188;16,50792
 583,06; 5423,462;  436,739;30907,488;16,36561
 583,64; 5470,821;  436,431;30989,291;16,47764
 584,22; 5387,043;  452,364;30784,269;16,26894
 584,80; 5316,249;  449,664;30620,812;16,12993
 585,38; 5173,969;  461,573;30238,899;15,82545
 585,96; 5165,458;  434,197;30335,395;15,82298
 586,54; 5201,457;  450,670;30304,786;15,91334
 587,12; 5127,959;  420,821;30471,548;15,66397
 587,70; 5148,176;  457,275;30604,592;15,55993
 588,28; 5102,193;  442,513;30649,151;15,42601
 588,86; 5112,179;  449,361;30717,380;15,40510
 589,44; 5067,639;  432,754;30748,615;15,28865
 590,02; 5096,203;  420,367;30953,426;15,31401
 590,59; 5044,750;  409,747;31123,194;15,09112
 591,17; 5056,638;  404,455;31223,004;15,09540
 591,75; 5053,437;  393,142;31323,570;15,06702
 592,33; 5090,543;  417,678;31524,830;15,02184
 592,91; 5084,623;  373,453;31871,283;14,95713
 593,49; 5113,579;  385,688;32070,483;14,92164
 594,07; 5138,949;  397,380;32281,121;14,87143
 594,65; 5084,153;  409,055;32260,492;14,67782
 595,23; 5113,767;  389,829;32556,904;14,68563
 595,81; 5126,379;  383,061;32694,354;14,68006
 596,39; 5146,829;  377,831;32827,775;14,69648
 596,97; 5109,356;  368,299;32982,815;14,53665
 597,55; 5085,995;  369,134;32907,787;14,49618
 598,12; 5044,498;  359,998;32917,701;14,38830
 598,70; 5067,920;  363,147;33118,500;14,36337
 599,28; 5065,359;  377,685;33163,240;14,29799
 599,86; 5070,737;  371,762;33214,853;14,30735
 600,44; 5034,267;  339,764;33310,623;14,23834
 601,02; 5080,467;  388,389;33358,264;14,23141
 601,60; 5003,682;  370,142;33382,317;14,03585
 602,18; 4999,740;  346,459;33355,895;14,09682
 602,75; 4983,430;  349,445;33379,157;14,02975
 603,33; 4977,550;  360,301;33419,553;13,96659
 603,91; 4926,966;  344,847;33472,627;13,83165
 604,49; 4921,407;  368,840;33514,158;13,73517
 605,07; 4930,979;  368,603;33422,789;13,80272
 605,65; 4899,806;  387,226;33663,572;13,56092
 606,23; 4925,886;  445,977;33621,741;13,50356
 606,80; 4909,701;  472,830;33791,997;13,31627
 607,38; 4936,666;  512,154;33817,653;13,28463
 607,96; 4931,994;  579,599;33913,250;13,05706
 608,54; 4947,769;  628,072;33937,873;12,96825
 609,12; 4963,679;  641,599;33934,429;12,98201
 609,70; 4955,667;  668,377;33934,290;12,88794
 610,27; 4913,973;  663,367;33904,272;12,78727
 610,85; 4955,023;  686,838;34097,029;12,77510
 611,43; 4925,440;  685,531;34097,766;12,68969
 612,01; 4832,382;  655,372;33910,035;12,56068
 612,59; 4828,110;  657,992;33895,249;12,54652
 613,16; 4823,541;  608,056;33909,198;12,65868
 613,74; 4801,451;  600,455;33708,986;12,68856
 614,32; 4812,685;  561,688;33758,359;12,80549
 614,90; 4776,583;  504,297;33623,237;12,89983
 615,48; 4715,705;  466,211;33202,444;12,98101
 616,05; 4712,907;  442,517;33346,669;12,97827
 616,63; 4678,340;  439,053;33186,278;12,94548
 617,21; 4647,647;  441,598;33072,692;12,88970
 617,79; 4594,826;  432,216;33063,941;12,75633
 618,36; 4626,250;  425,219;32905,706;12,93402
 618,94; 4529,632;  377,674;32610,843;12,88101
 619,52; 4515,724;  405,054;32415,074;12,84182
 620,10; 4494,925;  389,446;32473,790;12,79589
 620,67; 4508,087;  384,899;32262,172;12,93457
 621,25; 4466,895;  409,911;32143,813;12,78438
 621,83; 4464,958;  385,981;32110,731;12,85740
 622,41; 4503,006;  432,212;32155,238;12,83230
 622,98; 4438,479;  397,360;31908,532;12,82440
 623,56; 4425,981;  392,359;31870,808;12,81392
 624,14; 4399,675;  380,298;31793,624;12,79513
 624,72; 4375,808;  373,135;31642,718;12,80053
 625,29; 4375,344;  355,052;31758,317;12,80215
 625,87; 4431,862;  399,370;31675,794;12,89307
 626,45; 4386,893;  360,204;31539,715;12,91454
 627,02; 4351,562;  364,832;31475,180;12,81480
 627,60; 4364,176;  351,379;31418,184;12,91667
 628,18; 4315,372;  325,522;31415,506;12,83323
 628,76; 4342,966;  336,746;31489,344;12,85999
 629,33; 4386,750;  354,518;31472,784;12,95776
 629,91; 4335,771;  355,292;31465,560;12,79474
 630,49; 4414,739;  365,747;31583,384;12,97020
 631,06; 4375,625;  359,131;31725,275;12,80519
 631,64; 4378,996;  359,974;31604,451;12,86314
 632,22; 4374,831;  317,048;31547,691;12,99296
 632,79; 4431,656;  343,663;31801,661;12,99508
 633,37; 4384,107;  329,141;31863,746;12,85878
 633,95; 4432,073;  335,819;31892,886;12,98046
 634,52; 4416,024;  321,520;32085,972;12,89021
 635,10; 4452,749;  327,214;32063,812;12,99930
 635,68; 4482,388;  329,663;32197,194;13,03121
 636,25; 4485,045;  311,504;32187,211;13,09317
 636,83; 4522,581;  300,592;32397,883;13,15373
 637,41; 4527,762;  320,277;32356,102;13,13369
 637,98; 4553,773;  338,584;32641,449;13,04896
 638,56; 4601,616;  334,810;32708,408;13,17989
 639,13; 4588,776;  306,821;32778,774;13,18662
 639,71; 4653,332;  365,054;32939,021;13,16474
 640,29; 4541,730;  284,208;32698,127;13,13486
 640,86; 4609,913;  303,208;32884,061;13,21851
 641,44; 4584,712;  311,670;32853,149;13,13106
 642,02; 4650,203;  331,670;32899,622;13,26007
 642,59; 4657,233;  300,594;32979,402;13,33169
 643,17; 4660,570;  301,363;33078,105;13,29970
 643,74; 4675,138;  306,517;33067,808;13,33470
 644,32; 4687,475;  337,056;32991,511;13,32259
 644,89; 4704,582;  321,672;32951,291;13,43231
 645,47; 4722,304;  341,672;32962,533;13,42893
 646,05; 4748,180;  323,672;32937,852;13,56621
 646,62; 4722,901;  310,980;32853,863;13,55725
 647,20; 4789,239;  328,673;32998,412;13,65351
 647,77; 4722,499;  293,827;32962,654;13,55626
 648,35; 4727,529;  292,212;32807,895;13,64055
 648,92; 4770,635;  325,597;32887,829;13,65090
 649,50; 4710,819;  284,982;32849,917;13,59081
 650,08; 4761,618;  287,905;32693,467;13,80539
 650,65; 4820,416;  296,059;32850,477;13,89783
 651,23; 4898,138;  278,136;33583,873;13,87149
 651,80; 5084,168;  276,906;34356,345;14,10605
 652,38; 5171,505;  297,598;34708,587;14,16381
 652,95; 5210,304;  267,599;35031,675;14,21785
 653,53; 5272,103;  302,291;35241,532;14,22415
 654,10; 5350,517;  330,984;35441,389;14,29643
 654,68; 5311,008;  286,138;35414,323;14,30438
 655,25; 5361,038;  283,292;35383,180;14,46656
 655,83; 5365,221;  280,831;35485,499;14,44238
 656,40; 5425,482;  309,062;35451,894;14,55893
 656,98; 5362,434;  298,677;35367,136;14,43963
 657,55; 5423,541;  292,678;35239,531;14,68190
 658,13; 5377,724;  278,447;34903,465;14,72715
 658,70; 5347,062;  286,370;34695,630;14,70735
 659,28; 5216,937;  285,371;33911,949;14,66568
 659,85; 5138,121;  308,602;33293,806;14,64147
 660,43; 5235,304;  318,371;33293,432;14,91107
 661,00; 5187,718;  292,064;33443,366;14,76761
 661,58; 5215,363;  288,833;33698,377;14,74588
 662,15; 5284,393;  260,449;33846,465;14,95844
 662,73; 5356,730;  335,757;34130,091;14,85744
 663,30; 5401,144;  286,680;34302,641;15,03548
 663,88; 5425,097;  303,219;34394,959;15,02381
 664,45; 5465,050;  281,219;34655,355;15,08061
 665,03; 5566,772;  297,143;34938,058;15,21215
 665,60; 5702,263;  362,912;35316,915;15,27536
 666,17; 5677,831;  288,374;35371,464;15,36198
 666,75; 5739,322;  287,913;35753,629;15,37093
 667,32; 5817,890;  325,374;35917,409;15,43187
 667,90; 5868,227;  291,221;36236,189;15,51540
 668,47; 5931,488;  309,298;36494,739;15,53716
 669,05; 5964,287;  284,683;36643,673;15,62091
 669,62; 6001,316;  272,991;36829,222;15,66990
 670,19; 5991,884;  267,453;36797,848;15,67032
 670,77; 6096,991;  295,607;37087,782;15,76798
 671,34; 6080,405;  290,222;36973,562;15,78423
 671,92; 6193,435;  281,223;37295,573;15,97276
 672,49; 6221,926;  308,992;37206,200;16,02542
 673,06; 6238,955;  253,454;37356,672;16,13203
 673,64; 6233,446;  270,916;37240,221;16,12833
 674,21; 6278,476;  280,762;37259,925;16,21917
 674,79; 6326,583;  293,378;37477,089;16,22540
 675,36; 6373,228;  296,070;37573,639;16,30245
 675,93; 6378,565;  268,071;37518,034;16,40403
 676,51; 6463,594;  295,763;37610,045;16,52941
 677,08; 6494,855;  294,610;37707,210;16,57261
 677,65; 6561,192;  296,071;37870,990;16,67368
 678,23; 6543,145;  295,149;38032,078;16,55672
 678,80; 6650,098;  273,687;38151,858;16,83400
 679,38; 6647,358;  272,380;38221,715;16,79866
 679,95; 6775,003;  302,534;38532,880;16,93019
 680,52; 6794,494;  288,457;38712,122;16,93237
 681,10; 6885,293;  297,458;39082,748;16,98540
 681,67; 6985,476;  303,843;39302,297;17,13307
 682,24; 7017,660;  264,458;39399,154;17,25630
 682,82; 7117,689;  285,458;39907,627;17,24346
 683,39; 7244,104;  322,382;40126,868;17,38930
 683,96; 7279,979;  294,074;40462,725;17,39144
 684,54; 7370,855;  262,305;40756,813;17,55435
 685,11; 7476,500;  290,998;40969,593;17,66409
 685,68; 7551,299;  274,844;41417,451;17,68593
 686,25; 7621,021;  257,460;41401,692;17,89695
 686,83; 7707,204;  267,076;41647,318;17,97991
 687,40; 7747,618;  247,845;41832,868;18,03479
 687,97; 7906,494;  295,538;42285,802;18,12553
 688,55; 7867,524;  252,000;42210,736;18,15003
 689,12; 7996,707;  245,846;42429,054;18,37428
 689,69; 8023,275;  257,077;42512,373;18,37923
 690,26; 8079,613;  277,923;42651,384;18,41173
 690,84; 8149,565;  276,385;42856,549;18,49025
 691,41; 8206,133;  284,693;42948,790;18,56699
 691,98; 8332,548;  293,617;43212,340;18,73059
 692,56; 8360,962;  270,232;43255,274;18,82220
 693,13; 8483,607;  329,463;43342,823;18,95723
 693,70; 8493,559;  303,925;43527,988;18,94693
 694,27; 8528,051;  277,387;43610,460;19,04011
 694,84; 8587,311;  274,233;43703,856;19,14149
 695,42; 8738,956;  314,387;43801,482;19,37257
 695,99; 8791,601;  294,465;44059,108;19,41553
 696,56; 8837,092;  278,926;43898,042;19,62022
 697,13; 8901,891;  290,004;44286,361;19,57409
 697,71; 8991,536;  271,465;44232,141;19,83607
 698,28; 9069,181;  269,927;44605,460;19,84696
 698,85; 9102,749;  246,158;44546,317;19,99223
 699,42; 9143,394;  250,774;44772,328;19,97374
 699,99; 9266,962;  302,005;44912,723;20,09597
 700,57; 9322,068;  292,313;44903,503;20,24101
 701,14; 9412,713;  277,928;45097,360;20,38130
 701,71; 9499,128;  305,006;45217,448;20,47121
 702,28; 9570,465;  280,544;45221,921;20,67120
 702,85; 9591,110;  293,391;45230,547;20,69049
 703,43; 9659,524;  298,314;45458,250;20,72902
 704,00; 9789,631;  328,007;45637,876;20,88204
 704,57; 9871,199;  291,007;45744,041;21,07712
 705,14; 9936,075;  323,007;45917,898;21,08365
 705,71;10003,489;  323,623;45949,140;21,21590
 706,28;10025,749;  298,700;45813,151;21,37134
 706,86;10139,471;  324,316;46154,623;21,41630
 707,43;10195,731;  331,162;46025,942;21,58796
 708,00;10253,992;  316,547;46030,645;21,73825
 708,57;10288,714;  294,701;45964,656;21,88312
 709,14;10358,282;  322,317;46105,667;21,92056
 709,71;10437,388;  306,471;46244,139;22,05362
 710,28;10518,956;  305,702;46389,150;22,16252
 710,86;10581,063;  304,625;46483,777;22,25341
 711,43;10675,631;  333,626;46545,018;22,37977
 712,00;10765,507;  309,395;46605,645;22,58522
 712,57;10779,998;  312,780;46705,271;22,56231
 713,14;10858,104;  290,549;46825,897;22,70866
 713,71;10875,595;  302,627;46693,677;22,79097
 714,28;10971,625;  305,088;46714,227;22,98370
 714,85;10946,578;  283,704;46536,930;23,05325
 715,42;11040,530;  294,935;46666,556;23,17278
 716,00;11194,329;  343,243;46824,567;23,34505
 716,57;11262,282;  282,013;46966,578;23,52013
 717,14;11274,388;  282,628;46888,358;23,58457
 717,71;11347,264;  263,705;46911,523;23,76008
 718,28;11424,678;  309,398;47073,226;23,76897
 718,85;11400,246;  273,475;47075,160;23,77430
 719,42;11528,738;  290,475;47208,248;23,95310
 719,99;11570,921;  279,476;47079,336;24,12709
 720,56;11669,335;  289,168;47288,577;24,21343
 721,13;11703,826;  279,553;47434,434;24,22713
 721,70;11733,241;  278,015;47273,907;24,37495
 722,27;11882,193;  299,708;47362,226;24,61085
 722,84;12011,915;  332,477;47450,852;24,78744
 723,41;12027,022;  266,862;47511,017;24,89231
 723,98;12071,359;  277,862;47626,643;24,90771
 724,55;12202,081;  309,632;47778,961;25,05291
 725,12;12104,880;  248,709;47638,972;25,01816
 725,69;12329,448;  269,171;47829,368;25,35792
 726,27;12335,939;  280,709;47931,225;25,29926
 726,84;12466,353;  288,248;48220,390;25,40697
 727,41;12594,075;  306,787;48192,247;25,65975
 727,98;12697,566;  300,249;48419,104;25,76395
 728,55;12819,134;  322,403;48349,884;26,01996
 729,12;12810,702;  271,326;48485,587;26,00761
 729,69;12912,193;  300,096;48563,060;26,13204
 730,26;13061,377;  315,788;48860,609;26,25530
 730,82;13039,714;  295,942;48770,851;26,28942
 731,39;13125,590;  279,096;48816,785;26,46705
 731,96;13255,004;  273,174;49038,949;26,62078
 732,53;13360,495;  298,789;49305,037;26,65314
 733,10;13461,140;  301,328;49358,894;26,82525
 733,67;13526,170;  308,405;49612,674;26,80856
 734,24;13584,584;  280,175;49262,993;27,16138
 734,81;13663,383;  320,329;49493,235;27,13497
 735,38;13626,720;  300,560;49133,015;27,28956
 735,95;13622,827;  296,175;48966,718;27,38135
 736,52;13693,087;  303,176;49144,575;27,41509
 737,09;13703,732;  301,253;48844,201;27,60953
 737,66;13897,992;  339,945;49074,135;27,82040
 738,23;13961,714;  284,638;49096,685;28,01988
 738,80;14034,667;  340,715;49440,157;27,89024
 739,37;14091,312;  312,408;49518,476;28,00245
 739,94;14141,649;  299,562;49568,179;28,09514
 740,51;14301,833;  387,793;49688,805;28,22263
 741,07;14284,170;  291,793;49524,662;28,42080
 741,64;14350,123;  328,178;49757,212;28,36783
 742,21;14465,614;  296,409;49799,300;28,62298
 742,78;14420,567;  266,717;49687,387;28,63953
 743,35;14504,673;  290,102;49843,398;28,68542
 743,92;14668,395;  313,718;50024,563;28,87635
 744,49;14753,809;  302,564;49896,189;29,13932
 745,06;14730,608;  291,872;49835,046;29,14374
 745,63;14731,484;  272,949;49927,365;29,11833
 746,19;14826,590;  284,872;49879,530;29,32114
 746,76;14909,466;  300,411;49884,771;29,46303
 747,33;14891,111;  288,796;49894,475;29,43678
 747,90;15087,064;  301,643;50036,409;29,72854
 748,47;15122,401;  298,104;50030,189;29,80832
 749,04;15196,585;  302,643;50076,815;29,92303
 749,61;15302,922;  320,182;49999,364;30,15899
 750,17;15395,644;  300,336;50047,683;30,34395
 750,74;15316,750;  297,721;50046,002;30,19005
 751,31;15295,472;  276,952;49905,628;30,26178
 751,88;15342,271;  269,952;49893,177;30,37352
 752,45;15407,454;  285,491;50020,881;30,40484
 753,02;15460,946;  292,876;49792,891;30,64256
 753,58;15547,052;  291,645;49723,902;30,86124
 754,15;15557,082;  277,799;49758,529;30,87926
 754,72;15586,034;  275,030;49649,155;31,01018
 755,29;15577,218;  277,338;49502,397;31,08149
 755,86;15638,094;  277,415;49665,331;31,10210
 756,42;15749,200;  287,416;49542,495;31,39125
 756,99;15752,230;  244,724;49491,660;31,48928
 757,56;15790,875;  244,032;49535,979;31,54033
 758,13;15809,520;  219,032;49287,990;31,77261
 758,70;15911,934;  233,340;49493,385;31,82822
 759,26;15992,271;  224,340;49372,011;32,08276
 759,83;16068,378;  229,033;49478,561;32,16141
 760,40;16019,023;  215,033;49339,341;32,17142
 760,97;16055,283;  215,341;49377,506;32,21978
 761,53;16024,543;  188,880;49118,978;32,36385
 762,10;16041,496;  200,495;49019,835;32,44821
 762,67;16216,372;  229,726;49073,846;32,72993
 763,24;16126,478;  186,727;48569,011;32,94543
 763,80;16218,662;  221,804;48730,637;32,97721
 764,37;16251,153;  236,035;48779,187;32,99151
 764,94;16117,798;  217,574;48360,967;33,02680
 765,50;16188,212;  222,651;48438,208;33,11288
 766,07;16334,857;  261,036;48410,527;33,38316
 766,64;16324,271;  237,190;48181,076;33,55398
 767,21;16326,455;  240,113;48046,549;33,64890
 767,77;16344,407;  265,344;47994,867;33,68788
 768,34;16366,899;  272,344;47876,647;33,80903
 768,91;16379,928;  272,037;47792,505;33,89674
 769,47;16492,496;  273,345;47923,900;34,03770
 770,04;16558,218;  280,268;47697,988;34,32883
 770,61;16487,248;  249,730;47438,460;34,40974
 771,18;16517,047;  251,500;47431,548;34,47548
 771,74;16610,076;  269,654;47481,636;34,61075
 772,31;16533,337;  269,500;47300,724;34,58093
 772,88;16541,366;  244,423;47077,427;34,79799
 773,44;16545,703;  251,731;46865,669;34,95515
 774,01;16686,348;  258,424;47104,833;35,06763
 774,58;16617,070;  245,578;46730,691;35,21879
 775,14;16673,331;  235,886;46918,625;35,21097
 775,71;16711,976;  249,348;46741,789;35,40926
 776,27;16787,313;  303,271;46707,108;35,52301
 776,84;16929,958;  312,425;46740,657;35,79187
 777,41;16864,603;  278,810;46575,053;35,82535
 777,97;16819,710;  254,195;46385,987;35,90911
 778,54;16849,354;  267,580;46328,767;35,99945
 779,11;16949,307;  290,657;46319,470;36,19179
 779,67;16870,721;  250,042;46239,481;36,14021
 780,24;16854,751;  264,735;46035,723;36,24570
 780,80;16943,011;  275,581;46079,041;36,38902
 781,37;16995,349;  269,735;46003,206;36,57193
 781,94;16984,378;  271,043;45829,602;36,68539
 782,50;17018,023;  265,889;45869,689;36,73407
 783,07;17096,130;  295,351;45879,623;36,85652
 783,63;17041,775;  258,582;45674,173;36,95469
 784,20;17120,420;  296,736;45645,030;37,09882
 784,77;16995,065;  263,583;45354,041;37,10648
 785,33;17078,325;  230,583;45177,282;37,48382
 785,90;17164,047;  261,891;45198,755;37,61312
 786,46;17241,230;  279,661;45110,766;37,83438
 787,03;17166,491;  255,122;44933,084;37,85170
 787,59;17222,059;  255,969;44870,864;38,02786
 788,16;17307,088;  270,123;44788,183;38,26978
 788,73;17284,733;  271,815;44645,117;38,34044
 789,29;17198,455;  260,816;44356,820;38,41083
 789,86;17316,254;  279,893;44182,754;38,80467
 790,42;17384,745;  269,509;44180,457;38,97715
 790,99;17236,006;  273,586;43958,545;38,82897
 791,55;17237,112;  257,048;43861,249;38,94135
 792,12;17262,911;  284,894;43755,336;39,05646
 792,68;17262,325;  262,202;43483,501;39,33274
 793,25;17199,970;  278,587;43306,974;39,32609
 793,81;17197,923;  319,202;42981,369;39,56367
 794,38;17110,568;  228,433;42846,688;39,61245
 794,94;17098,828;  245,818;42673,237;39,72198
 795,51;17054,550;  269,434;42449,556;39,79390
 796,07;17101,580;  253,204;42246,105;40,12196
 796,64;17134,071;  282,511;42306,962;40,09942
 797,20;17029,639;  265,127;41844,588;40,31921
 797,77;16835,976;  245,204;41617,522;40,10114
 798,33;16838,083;  258,358;41520,687;40,18126
 798,90;16900,420;  283,589;41416,083;40,39831
 799,46;16748,373;  252,820;40937,863;40,54451
 800,03;16768,172;  277,744;40859,181;40,63540
 800,59;16746,278;  276,283;40708,115;40,73522
 801,15;16668,923;  279,437;40522,203;40,72654
 801,72;16587,491;  266,668;40210,983;40,85894
 802,28;16534,059;  295,437;39936,302;40,96435
 802,85;16507,012;  270,745;39806,697;41,06709
 803,41;16447,118;  257,515;39615,631;41,13409
 803,98;16347,763;  257,900;39194,335;41,32341
 804,54;16272,716;  262,438;39085,422;41,23917
 805,11;16225,438;  263,669;38909,587;41,30260
 805,67;16275,006;  293,670;38731,829;41,57675
 806,23;16145,420;  260,747;38414,840;41,63295
 806,80;16169,835;  288,362;38377,005;41,69608
 807,36;16222,710;  293,517;38304,939;41,90633
 807,93;16159,355;  283,594;38096,180;41,98539
 808,49;16049,077;  245,056;37749,345;42,13924
 809,05;16026,184;  232,979;37584,664;42,28244
 809,62;15980,136;  271,979;37551,905;42,13570
 810,18;16033,089;  271,979;37475,301;42,36479
 810,74;15950,657;  248,903;37127,389;42,57700
 811,31;15924,764;  242,595;36971,092;42,69755
 811,87;15939,255;  265,134;36832,487;42,86370
 812,44;16005,361;  287,827;36857,191;42,98006
 813,00;15825,391;  218,673;36624,048;42,86927
 813,56;15910,190;  267,212;36617,674;43,03378
 814,13;15991,681;  269,981;36476,146;43,42271
 814,69;15900,710;  264,366;36438,927;43,22470
 815,25;15838,663;  239,597;35936,245;43,69897
 815,82;15876,923;  270,982;35962,641;43,72434
 816,38;15868,184;  298,752;35774,728;43,88725
 816,94;15779,829;  249,675;35481,201;44,08028
 817,51;15746,243;  238,598;35281,135;44,25377
 818,07;15694,350;  239,598;35042,761;44,40617
 818,63;15627,918;  253,983;34814,464;44,48414
 819,20;15743,255;  256,061;34949,475;44,64016
 819,76;15531,592;  228,138;34541,102;44,59963
 820,32;15580,853;  287,600;34572,497;44,60638
 820,89;15494,728;  263,754;34205,277;44,87416
 821,45;15462,296;  246,831;33936,134;45,16408
 822,01;15368,018;  259,600;33712,838;45,16280
 822,57;15339,356;  266,908;33679,772;45,10971
 823,14;15271,308;  230,216;33516,782;45,18667
 823,70;15280,338;  242,447;33101,332;45,76507
 824,26;15204,291;  243,448;33053,420;45,59846
 824,82;15246,628;  273,679;32931,969;45,84732
 825,39;15103,734;  238,063;32758,749;45,71143
 825,95;15165,226;  258,218;32774,606;45,84460
 826,51;15036,101;  258,756;32347,386;46,05165
 827,08;15135,515;  295,064;32461,397;46,13660
 827,64;15052,314;  273,603;32248,408;46,21986
 828,20;14998,729;  231,603;32073,034;46,37708
 828,76;15030,143;  267,142;31982,122;46,54898
 829,32;15057,172;  272,527;31914,595;46,72465
 829,89;15007,433;  224,835;31765,452;46,86845
 830,45;14976,847;  252,220;31681,693;46,84974
 831,01;14948,261;  243,682;31548,551;46,97218
 831,57;14976,368;  252,374;31396,792;47,27651
 832,14;14972,551;  235,451;31372,111;47,33038
 832,70;14926,658;  239,144;31168,968;47,48657
 833,26;14941,149;  221,221;31106,363;47,66022
 833,82;15031,255;  240,991;30997,990;48,08748
 834,38;15010,900;  230,760;31073,539;47,92091
 834,95;14958,468;  230,683;30965,781;47,91846
 835,51;14933,421;  213,530;30808,484;48,11215
 836,07;15037,604;  246,684;30821,341;48,37641
 836,63;15073,865;  255,146;30931,506;48,30664
 837,19;14967,894;  245,146;30714,363;48,32008
 837,75;14924,232;  213,146;30404,066;48,72685
 838,32;15028,492;  269,993;30513,615;48,79872
 838,88;15018,214;  254,301;30509,780;48,79749
 839,44;15063,244;  247,147;30474,483;49,01555
 840,00;15139,119;  252,917;30391,263;49,39290
 840,56;14964,764;  232,994;30214,121;49,13681
 841,12;15021,025;  232,994;30132,670;49,45883
 841,68;14977,054;  209,687;29999,758;49,57144
 842,25;15059,776;  227,687;29905,153;49,97761
 842,81;14943,267;  219,072;29744,549;49,86946
 843,37;14966,066;  216,533;29676,252;50,06678
 843,93;14981,404;  231,841;29578,494;50,25978
 844,49;15043,664;  252,765;29743,658;50,15412
 845,05;14942,770;  202,227;29490,516;50,32914
 845,61;15057,262;  240,381;29654,680;50,37305
 846,17;14986,676;  224,304;29421,383;50,56112
 846,73;15001,552;  228,381;29474,933;50,51252
 847,29;14956,427;  210,228;29316,021;50,66414
 847,86;14969,226;  224,536;29210,109;50,86907
 848,42;14923,717;  224,382;29015,504;51,05510
 848,98;14859,439;  236,305;28949,053;50,92906
 849,54;14991,392;  230,690;29006,987;51,29465
 850,10;14955,344;  239,075;28873,306;51,39397
 850,66;14896,374;  216,691;28797,855;51,36139
 851,22;14866,481;  219,922;28728,635;51,37573
 851,78;14918,049;  255,076;28713,262;51,52462
 852,34;14908,078;  231,692;28541,965;51,84120
 852,90;14872,262;  226,384;28540,899;51,72569
 853,46;14800,830;  213,538;28200,987;52,12083
 854,02;14840,936;  238,308;28250,613;52,12934
 854,58;14799,043;  225,616;28031,086;52,41209
 855,14;14745,611;  206,539;27932,481;52,43851
 855,70;14668,948;  190,232;27713,646;52,60509
 856,26;14739,670;  234,155;27770,426;52,67785
 856,82;14670,854;  226,309;27712,129;52,55271
 857,38;14649,268;  254,617;27555,525;52,72591
 857,94;14566,220;  225,925;27481,689;52,61381
 858,50;14577,173;  245,079;27378,085;52,82162
 859,06;14573,357;  232,002;27199,788;53,17958
 859,62;14556,771;  234,157;27181,568;53,15024
 860,18;14478,108;  231,926;26985,810;53,24902
 860,74;14476,138;  195,388;26873,129;53,53058
 861,30;14436,013;  214,388;26693,216;53,70942
 861,86;14516,658;  251,696;26820,227;53,69120
 862,42;14446,534;  234,081;26559,238;53,98810
 862,98;14472,871;  253,466;26518,018;54,13915
 863,54;14421,286;  231,851;26379,568;54,26644
 864,10;14432,238;  224,159;26379,040;54,32286
 864,66;14333,806;  211,620;26122,820;54,50225
 865,22;14299,374;  233,236;26030,754;54,52516
 865,78;14297,404;  237,544;26011,227;54,55123
 866,34;14290,511;  220,775;25929,930;54,72656
 866,90;14346,386;  227,698;25898,018;55,00005
 867,45;14213,416;  217,160;25638,183;55,05780
 868,01;14169,522;  228,084;25497,501;55,17119
 868,57;14075,475;  231,622;25372,051;55,06610
 869,13;14018,043;  204,853;25254,446;55,14337
 869,69;14022,765;  210,700;25172,457;55,33290
 870,25;13988,333;  205,162;25084,083;55,40100
 870,81;14004,209;  218,623;25062,863;55,48805
 871,37;13992,239;  238,778;24962,182;55,62932
 871,93;13989,576;  239,778;24771,270;56,04958
 872,49;13940,682;  248,240;24609,973;56,20471
 873,04;13858,789;  196,932;24477,984;56,26551
 873,60;13898,280;  209,625;24402,226;56,58199
 874,16;13900,771;  234,394;24290,006;56,81160
 874,72;13879,848;  221,471;24183,237;57,00071
 875,28;13857,694;  225,087;24170,544;56,93192
 875,84;13841,310;  230,010;24060,929;57,11614
 876,40;13808,079;  220,240;24078,160;56,95316
 876,95;13770,233;  240,010;24045,621;56,83628
 877,51;13871,694;  255,394;23990,313;57,36822
 878,07;13871,540;  264,317;23988,237;57,35656
 878,63;13870,463;  224,240;24049,929;57,27525
 879,19;13992,002;  242,471;23944,544;58,00982
 879,75;13990,540;  221,471;23997,160;57,91239
 880,30;14052,156;  221,625;24037,621;58,07244
 880,86;14102,540;  266,087;24148,237;57,93638
 881,42;14171,156;  206,163;24173,544;58,26666
 881,98;14177,002;  232,163;24267,160;58,01889
 882,54;14207,694;  214,317;24311,467;58,07067
 883,09;14293,771;  236,856;24436,467;58,08736
 883,65;14396,925;  212,856;24417,160;58,60143
 884,21;14582,233;  257,548;24684,467;58,64303
 884,77;14548,387;  212,394;24668,544;58,61917
 885,32;14677,079;  216,163;24761,544;58,91502
 885,88;14827,233;  254,010;24859,313;59,22797
 886,44;14922,925;  224,779;25100,390;59,08657
 887,00;15002,463;  233,933;24993,698;59,64730
 887,56;15084,463;  226,087;25122,237;59,68142
 888,11;15246,617;  217,779;25115,698;60,36183
 888,67;15221,079;  256,933;25358,621;59,61410
 889,23;15203,694;  230,163;25326,006;59,66538
 889,79;15190,156;  210,010;25226,929;59,88006
 890,34;15154,925;  226,548;25167,621;59,85459
 890,90;15367,233;  287,317;25227,698;60,46385
 891,46;15351,771;  227,702;25200,237;60,56281
 892,01;15374,771;  242,240;25255,852;60,49718
 892,57;15331,463;  260,779;25208,006;60,41026
 893,13;15320,771;  235,163;24955,083;61,02612
 893,69;15381,617;  235,163;24890,852;61,43188
 894,24;15263,387;  232,240;24785,237;61,21919
 894,80;15172,156;  236,240;24620,621;61,25198
 895,36;15167,310;  235,779;24565,083;61,37262
 895,91;15104,002;  227,625;24441,698;61,43690
 896,47;15039,079;  237,856;24287,929;61,54336
 897,03;14961,156;  214,933;24135,621;61,64632
 897,58;14900,079;  242,548;23997,313;61,70354
 898,14;14940,771;  245,394;23872,698;62,19659
 898,70;14847,387;  207,010;23710,313;62,29072
 899,25;14851,771;  227,471;23782,621;62,08536
 899,81;14827,925;  247,317;23544,006;62,58661
 900,37;14706,540;  195,163;23349,775;62,67165
 900,92;14768,387;  226,548;23439,852;62,64442
 901,48;14681,002;  213,779;23253,313;62,79304
 902,03;14550,079;  217,010;23096,467;62,64602
 902,59;14557,002;  222,702;23077,313;62,71951
 903,15;14525,156;  247,010;22884,467;63,07310
 903,70;14508,925;  224,010;22682,698;63,60530
 904,26;14501,002;  213,087;22587,929;63,85706
 904,82;14499,540;  228,856;22619,083;63,73622
 905,37;14435,387;  227,317;22488,237;63,82517
 905,93;14381,387;  213,856;22310,852;64,11519
 906,48;14370,463;  232,856;22301,544;64,06184
 907,04;14392,233;  247,087;22261,698;64,25344
 907,60;14346,540;  221,856;22040,237;64,73755
 908,15;14324,540;  212,779;21925,083;64,99431
 908,71;14305,925;  249,010;21912,390;64,88791
 909,26;14163,617;  222,394;21781,929;64,66384
 909,82;14109,848;  245,240;21625,621;64,84734
 910,37;14118,079;  266,933;21640,621;64,80466
 910,93;13959,694;  224,548;21420,083;64,80207
 911,48;13936,540;  213,087;21346,852;64,93615
 912,04;13858,925;  218,087;21205,621;64,99495
 912,60;13848,771;  229,548;21257,621;64,76686
 913,15;13833,771;  228,317;21096,775;65,19626
 913,71;13728,694;  213,702;20883,929;65,38386
 914,26;13729,156;  211,394;20830,083;65,56072
 914,82;13659,925;  227,548;20779,621;65,35777
 915,37;13718,540;  207,856;20715,006;65,88280
 915,93;13612,617;  269,625;20618,852;65,57002
 916,48;13529,463;  207,625;20485,698;65,69578
 917,04;13540,463;  228,471;20354,775;66,14226
 917,59;13482,233;  245,010;20322,160;65,93178
 918,15;13402,925;  194,625;20088,467;66,39391
 918,70;13351,925;  217,240;19996,160;66,40749
 919,26;13349,079;  226,548;19881,621;66,76409
 919,81;13289,694;  209,856;19882,006;66,48912
 920,37;13254,463;  223,317;19803,237;66,55363
 920,92;13192,540;  230,856;19711,006;66,53791
 921,48;13097,002;  201,625;19583,083;66,53461
 922,03;13050,617;  213,087;19480,852;66,62698
 922,59;12992,079;  224,548;19362,544;66,71300
 923,14;12937,848;  213,394;19241,852;66,87065
 923,69;12939,233;  236,625;19236,160;66,85747
 924,25;13039,540;  238,240;19261,621;67,29246
 924,80;12901,925;  220,548;18962,313;67,66373
 925,36;12899,156;  226,317;19007,775;67,47527
 925,91;12795,079;  212,394;18818,621;67,62620
 926,47;12745,387;  199,240;18753,390;67,61908
 927,02;12752,387;  254,933;18713,621;67,70499
 927,57;12679,156;  228,779;18537,544;68,00227
 928,13;12650,463;  207,317;18495,852;68,03796
 928,68;12594,848;  211,010;18446,544;67,91048
 929,24;12427,233;  188,625;18266,390;67,69978
 929,79;12432,156;  204,471;18160,237;68,09893
 930,34;12342,002;  213,933;18001,852;68,18149
 930,90;12389,233;  200,317;17998,467;68,48417
 931,45;12350,002;  222,779;18032,083;68,09487
 932,01;12307,771;  224,163;17902,467;68,35275
 932,56;12214,925;  229,779;17755,083;68,38767
 933,11;12272,002;  229,087;17788,621;68,58334
 933,67;12092,463;  201,317;17621,698;68,25997
 934,22;12068,079;  216,240;17548,698;68,37945
 934,77;12017,002;  235,856;17424,006;68,54226
 935,33;11946,925;  220,856;17318,006;68,58494
 935,88;11935,617;  219,548;17216,544;68,93023
 936,43;11837,694;  209,856;17201,698;68,43189
 936,99;11839,387;  217,933;17080,775;68,91753
 937,54;11756,156;  205,856;16961,775;68,93266
 938,09;11738,233;  221,240;16963,775;68,78882
 938,65;11675,233;  221,625;16856,467;68,85312
 939,20;11691,310;  196,779;16662,775;69,80769
 939,75;11636,925;  207,471;16622,313;69,62878
 940,31;11478,540;  201,933;16545,544;68,99704
 940,86;11504,540;  220,087;16493,852;69,34138
 941,41;11494,925;  272,163;16429,160;69,46069
 941,96;11376,848;  208,702;16321,467;69,31241
 942,52;11379,387;  209,087;16221,621;69,75972
 943,07;11331,463;  198,163;16131,929;69,87237
 943,62;11304,079;  207,856;16061,083;69,99347
 944,18;11296,310;  192,548;16022,775;70,14278
 944,73;11253,463;  213,010;15958,775;70,11697
 945,28;11069,463;  179,240;15691,929;70,20204
 945,83;11166,771;  206,702;15744,929;70,53616
 946,39;11174,617;  213,702;15692,390;70,81295
 946,94;11119,848;  233,240;15595,852;70,86430
 947,49;11063,002;  209,087;15512,160;70,92638
 948,04;11046,233;  231,163;15457,390;71,02921
 948,59;10993,079;  226,163;15445,852;70,74334
 949,15;10975,925;  200,010;15380,775;70,98401
 949,70;10898,925;  195,548;15237,852;71,15517
 950,25;10885,079;  222,163;15146,390;71,44702
 950,80;10866,848;  165,394;15178,467;71,28090
 951,36;10774,463;  180,779;15017,929;71,39973
 951,91;10836,617;  227,317;15038,390;71,63087
 952,46;10631,540;  191,702;14831,237;71,31264
 953,01;10668,694;  219,933;14879,852;71,27435
 953,56;10569,771;  184,702;14690,544;71,59232
 954,11;10599,002;  217,548;14728,698;71,54122
 954,67;10572,463;  200,087;14702,237;71,52303
 955,22;10416,925;  184,010;14513,698;71,41059
 955,77;10450,387;  230,548;14513,929;71,55056
 956,32;10439,617;  261,471;14375,621;72,11306
 956,87;10319,925;  198,548;14266,852;71,94454
 957,42;10304,848;  205,394;14223,006;72,04832
 957,98;10295,463;  208,625;14155,852;72,32146
 958,53;10272,617;  229,471;14098,083;72,41638
 959,08;10139,233;  198,163;14054,544;71,74362
 959,63;10102,925;  199,163;13913,390;72,21524
 960,18;10075,694;  229,010;13845,929;72,31213
 960,73;10089,771;  222,779;13888,467;72,20267
 961,28; 9969,463;  188,625;13780,313;71,96191
 961,83; 9989,079;  230,394;13671,237;72,60471
 962,39; 9859,310;  196,317;13597,313;72,10652
 962,94; 9861,771;  216,317;13538,929;72,39912
 963,49; 9762,540;  207,856;13408,390;72,38104
 964,04; 9745,771;  221,933;13393,390;72,30664
 964,59; 9696,310;  184,163;13306,775;72,48669
 965,14; 9701,079;  220,087;13239,313;72,82301
 965,69; 9662,925;  214,010;13194,467;72,79339
 966,24; 9566,617;  208,317;13077,006;72,72147
 966,79; 9491,694;  232,471;12946,237;72,82833
 967,34; 9438,310;  185,163;12865,313;72,97348
 967,89; 9432,387;  212,087;12837,083;73,03210
 968,44; 9393,540;  208,317;12751,390;73,22945
 968,99; 9414,463;  212,394;12706,083;73,65374
 969,55; 9339,002;  213,625;12620,929;73,54843
 970,10; 9303,310;  218,548;12544,390;73,70500
 970,65; 9288,925;  226,779;12452,775;74,12195
 971,20; 9192,463;  202,625;12380,313;73,82221
 971,75; 9167,694;  183,779;12258,775;74,40098
 972,30; 9131,771;  217,856;12224,775;74,23982
 972,85; 9108,617;  196,163;12137,621;74,63456
 973,40; 8974,310;  203,779;12066,160;73,93567
 973,95; 8935,002;  218,010;12027,929;73,81077
 974,50; 8962,540;  234,010;11941,929;74,55237
 975,05; 8833,617;  221,394;11839,083;74,13026
 975,60; 8770,002;  222,702;11820,852;73,69537
 976,15; 8752,233;  209,317;11682,852;74,45757
 976,70; 8705,387;  209,394;11636,929;74,34668
 977,25; 8626,771;  220,394;11561,237;74,12480
 977,80; 8646,463;  209,010;11392,929;75,44273
 978,35; 8523,925;  223,702;11256,544;75,23196
 978,89; 8508,848;  194,856;11222,775;75,39040
 979,44; 8471,617;  219,163;11243,006;74,86005
 979,99; 8402,463;  201,317;11047,775;75,61129
 980,54; 8347,771;  237,856;11009,621;75,28864
 981,09; 8306,540;  225,394;10909,544;75,63677
 981,64; 8252,848;  226,625;10846,313;75,57871
 982,19; 8259,233;  245,625;10858,237;75,51023
 982,74; 8191,771;  237,317;10686,390;76,12593
 983,29; 8074,156;  205,163;10557,083;76,01482
 983,84; 8015,848;  221,394;10540,237;75,53613
 984,39; 8064,925;  271,856;10410,467;76,86525
 984,94; 7873,617;  199,087;10331,929;75,73917
 985,49; 7869,310;  239,087;10245,698;76,25182
 986,03; 7842,694;  229,856;10211,006;76,27216
 986,58; 7775,233;  260,163;10044,775;76,80498
 987,13; 7680,310;  214,240; 9903,544;77,05475
 987,68; 7641,540;  228,548; 9875,237;76,84494
 988,23; 7542,387;  236,394; 9814,929;76,27463
 988,78; 7461,540;  206,317; 9693,237;76,47607
 989,33; 7392,540;  241,394; 9604,390;76,37669
 989,88; 7413,387;  247,087; 9556,237;76,98125
 990,42; 7312,617;  223,548; 9386,852;77,36368
 990,97; 7242,463;  216,317; 9348,313;76,93987
 991,52; 7153,233;  244,317; 9296,544;76,32283
 992,07; 7138,002;  249,625; 9211,544;76,86274
 992,62; 7068,079;  231,163; 9104,544;77,04972
 993,17; 7037,156;  238,240; 8979,467;77,77988
 993,71; 6937,694;  230,702; 8909,006;77,28460
 994,26; 6857,387;  220,856; 8757,083;77,74548
 994,81; 6833,617;  244,087; 8737,160;77,58712
 995,36; 6743,540;  211,471; 8627,390;77,61564
 995,91; 6719,617;  220,394; 8592,467;77,62979
 996,45; 6679,387;  226,240; 8466,390;78,31345
 997,00; 6597,233;  203,625; 8330,698;78,67048
 997,55; 6578,771;  226,625; 8326,852;78,41936
 998,10; 6461,079;  234,471; 8206,544;78,10525
 998,65; 6419,233;  219,394; 8197,006;77,71547
 999,19; 6367,079;  249,933; 8052,160;78,40257
 999,74; 6308,617;  261,471; 7999,775;78,14563
1000,29; 6257,233;  233,471; 7905,237;78,51858
1000,84; 6124,233;  223,010; 7786,621;78,02123
1001,38; 6123,694;  222,394; 7709,621;78,81823
1001,93; 6062,463;  232,394; 7656,083;78,53332
1002,48; 5965,463;  212,471; 7508,698;78,84887
1003,03; 5904,156;  224,779; 7502,852;78,03407
1003,57; 5823,771;  233,702; 7402,467;77,97813
1004,12; 5803,310;  255,779; 7331,006;78,40781
1004,67; 5742,463;  218,394; 7262,852;78,41724
1005,22; 5642,617;  208,087; 7170,621;78,05391
1005,76; 5538,233;  208,471; 7022,237;78,22050
1006,31; 5562,617;  240,625; 6972,698;79,05429
1006,86; 5475,002;  222,163; 6860,621;79,12739
1007,40; 5350,233;  202,933; 6700,698;79,21646
1007,95; 5331,233;  222,317; 6667,852;79,26286
1008,50; 5226,002;  225,087; 6583,237;78,65362
1009,04; 5156,387;  226,163; 6510,852;78,44817
1009,59; 5046,156;  230,856; 6387,621;78,21152
1010,14; 4967,463;  212,087; 6282,313;78,33936
1010,68; 4902,233;  224,087; 6221,237;78,00616
1011,23; 4840,233;  215,010; 6096,852;78,63562
1011,78; 4812,540;  228,240; 6061,390;78,59047
1012,32; 4725,617;  229,933; 5976,544;78,23192
1012,87; 4697,079;  248,010; 5982,313;77,58691
1013,42; 4625,617;  203,548; 5798,467;79,03723
1013,96; 4671,156;  240,163; 5845,929;79,04348
1014,51; 4561,463;  183,933; 5758,698;78,52404
1015,06; 4569,463;  193,010; 5753,852;78,70128
1015,60; 4614,463;  265,471; 5789,160;78,73348
1016,15; 4636,694;  213,317; 5757,544;79,78348
1016,69; 4622,540;  218,856; 5792,313;79,01172
1017,24; 4627,540;  200,240; 5782,006;79,31720
1017,79; 4731,771;  245,625; 5825,083;80,40470
1018,33; 4683,771;  209,317; 5778,929;80,33691
1018,88; 4738,156;  237,933; 5869,698;79,90786
1019,42; 4742,233;  227,240; 5885,083;79,80060
1019,97; 4777,925;  211,087; 5863,467;80,79495
1020,51; 4847,540;  244,163; 5896,929;81,43584
1021,06; 4800,387;  196,933; 5878,006;81,03141
1021,61; 4782,387;  196,394; 5822,698;81,50986
1022,15; 4771,540;  168,856; 5806,929;81,63577
1022,70; 4785,310;  215,779; 5836,544;81,29730
1023,24; 4749,848;  219,240; 5771,237;81,60322
1023,79; 4735,310;  216,163; 5720,775;82,09746
1024,33; 4709,002;  214,625; 5680,698;82,22314
1024,88; 4647,079;  227,933; 5589,929;82,41606
1025,42; 4544,540;  226,702; 5512,006;81,69518
1025,97; 4488,848;  204,240; 5458,467;81,54592
1026,51; 4454,617;  180,087; 5319,467;83,17210
1027,06; 4435,310;  203,625; 5287,698;83,23414
1027,60; 4315,387;  221,779; 5186,467;82,45447
1028,15; 4294,848;  222,317; 5144,852;82,73239
1028,69; 4161,925;  181,856; 5016,313;82,32711
1029,24; 4134,540;  207,240; 4961,160;82,61184
1029,78; 4074,694;  201,240; 4894,160;82,53826
1030,33; 3969,771;  183,240; 4765,852;82,62823
1030,87; 3943,925;  202,625; 4755,237;82,17921
1031,42; 3884,540;  187,625; 4651,544;82,81770
1031,96; 3835,617;  221,625; 4592,390;82,68557
1032,51; 3768,233;  204,394; 4539,237;82,21380
1033,05; 3761,771;  209,702; 4479,390;83,19270
1033,60; 3645,310;  178,856; 4377,237;82,56645
1034,14; 3618,387;  212,240; 4308,467;83,15326
1034,69; 3595,617;  213,933; 4278,083;83,20767
1035,23; 3530,310;  212,702; 4229,621;82,59085
1035,77; 3497,848;  204,702; 4162,160;83,21368
1036,32; 3399,771;  186,856; 4102,775;82,04754
1036,86; 3403,002;  202,702; 4030,544;83,60585
1037,41; 3330,387;  223,163; 3970,160;82,92571
1037,95; 3287,925;  180,702; 3914,237;83,22470
1038,50; 3243,310;  194,317; 3854,160;83,30939
1039,04; 3293,925;  213,087; 3817,852;85,46571
1039,58; 3177,387;  200,471; 3761,083;83,60686
1040,13; 3123,694;  209,933; 3696,467;83,57185
1040,67; 3164,540;  232,240; 3713,083;84,24110
1041,21; 3105,540;  231,163; 3634,852;84,44888
1041,76; 3039,002;  182,163; 3531,160;85,30432
1042,30; 3008,694;  206,933; 3524,313;84,45704
1042,85; 2929,771;  198,163; 3492,852;82,90944
1043,39; 2877,002;  193,010; 3411,390;83,39574
1043,93; 2888,233;  225,471; 3383,006;84,33040
1044,48; 2818,079;  210,856; 3293,544;84,57628
1045,02; 2795,002;  203,317; 3309,852;83,42687
1045,56; 2777,771;  225,240; 3242,390;84,60072
1046,11; 2721,771;  218,933; 3172,313;84,74486
1046,65; 2660,540;  215,163; 3121,313;84,14490
1047,19; 2621,694;  207,702; 3097,006;83,54927
1047,74; 2584,463;  192,933; 3051,390;83,66507
1048,28; 2582,694;  206,625; 3009,160;84,78287
1048,82; 2538,771;  226,779; 2999,544;83,38218
1049,37; 2506,925;  219,240; 2913,390;84,91304
1049,91; 2465,771;  208,625; 2905,929;83,68157
1050,45; 2440,540;  228,856; 2848,390;84,43044
1050,99; 2404,540;  206,702; 2826,929;83,87970
1051,54; 2349,079;  200,548; 2771,929;83,55553
1052,08; 2350,925;  243,163; 2742,006;84,34952
1052,62; 2311,156;  222,856; 2723,852;83,49873
1053,16; 2261,156;  197,471; 2658,852;83,84256
1053,71; 2233,233;  217,010; 2631,313;83,51157
1054,25; 2216,079;  222,087; 2594,160;84,06117
1054,79; 2183,848;  224,702; 2554,929;84,07534
1055,33; 2138,848;  190,856; 2496,237;84,49764
1055,88; 2109,463;  209,625; 2505,929;82,73463
1056,42; 2117,156;  237,163; 2453,006;84,84324
1056,96; 2077,925;  223,240; 2434,775;83,86415
1057,50; 2065,925;  214,702; 2382,775;85,38564
1058,05; 2004,079;  225,010; 2336,929;84,23945
1058,59; 2007,310;  237,087; 2332,698;84,47286
1059,13; 1946,156;  196,779; 2261,698;84,71890
1059,67; 1936,617;  232,471; 2266,621;83,77682
1060,21; 1890,387;  217,010; 2215,390;83,73664
1060,76; 1891,310;  225,548; 2183,467;85,07815
1061,30; 1868,694;  246,163; 2163,544;84,62225
1061,84; 1833,771;  219,548; 2114,467;85,18691
1062,38; 1781,233;  205,779; 2059,467;84,99022
1062,92; 1810,156;  255,317; 2101,698;84,21007
1063,46; 1760,463;  228,702; 2038,775;84,62429
1064,01; 1713,848;  214,010; 2010,544;83,48509
1064,55; 1706,079;  222,163; 1985,237;84,16641
1065,09; 1645,848;  191,856; 1930,160;83,64431
1065,63; 1696,694;  252,317; 1959,775;84,59225
1066,17; 1669,771;  245,702; 1911,083;85,51013
1066,71; 1625,079;  239,548; 1898,390;83,52396
1067,25; 1580,002;  210,163; 1837,698;84,16647
1067,80; 1605,310;  228,010; 1821,929;86,40965
1068,34; 1590,463;  242,163; 1828,698;84,98396
1068,88; 1545,617;  220,548; 1777,621;85,10000
1069,42; 1570,233;  248,471; 1803,775;84,98414
1069,96; 1528,540;  216,779; 1764,852;84,73512
1070,50; 1524,387;  250,779; 1748,390;85,04259
1071,04; 1468,156;  207,933; 1696,006;84,68825
1071,58; 1453,848;  213,625; 1683,698;84,36472
1072,12; 1441,771;  215,317; 1659,160;84,94375
1072,66; 1448,463;  217,240; 1656,544;85,54296
1073,21; 1446,925;  230,010; 1647,544;85,84731
1073,75; 1417,463;  218,394; 1620,467;85,52117
1074,29; 1392,771;  228,240; 1586,775;85,71962
1074,83; 1388,156;  251,471; 1584,621;85,26307
1075,37; 1372,617;  239,625; 1555,083;86,12913
1075,91; 1353,925;  237,471; 1544,160;85,44147
1076,45; 1336,771;  229,163; 1530,775;85,09510
1076,99; 1310,387;  232,856; 1513,852;84,11663
1077,53; 1284,617;  216,317; 1487,852;84,01659
1078,07; 1278,540;  228,163; 1470,775;84,52979
1078,61; 1253,925;  229,856; 1440,544;84,58569
1079,15; 1243,848;  223,548; 1440,237;83,85877
1079,69; 1233,617;  230,471; 1425,006;83,97799
1080,23; 1237,925;  253,394; 1419,237;84,44802
1080,77; 1241,848;  262,856; 1421,006;84,53070
1081,31; 1183,463;  219,087; 1361,698;84,40112
1081,85; 1214,463;  238,010; 1359,698;87,05214
1082,39; 1185,925;  227,317; 1345,698;85,71389
1082,93; 1162,617;  233,779; 1329,313;84,78404
1083,47; 1155,540;  215,163; 1305,313;86,26124
1084,01; 1143,002;  239,779; 1316,621;83,87701
1084,55; 1100,848;  225,625; 1264,544;84,24361
1085,09; 1119,002;  239,471; 1287,083;83,95581
1085,63; 1097,771;  232,010; 1265,775;83,74836
1086,17; 1091,156;  216,548; 1230,544;86,25355
1086,71; 1068,540;  219,625; 1213,237;85,43735
1087,24; 1103,540;  248,163; 1222,006;87,83526
1087,78; 1067,387;  244,317; 1201,852;85,95713
1088,32; 1019,925;  209,087; 1160,313;85,24133
1088,86; 1056,463;  248,779; 1197,852;85,10247
1089,40; 1037,848;  227,471; 1164,160;86,51510
1089,94;  991,387;  206,856; 1112,467;86,62994
1090,48; 1003,771;  240,856; 1129,313;85,86964
1091,02;  989,925;  242,163; 1132,237;84,01125
1091,56;  977,002;  235,240; 1109,929;84,80294
1092,10;  947,156;  210,933; 1082,083;84,51163
1092,63;  978,079;  249,933; 1104,775;85,17900
1093,17;  952,233;  236,625; 1069,929;85,87596
1093,71;  936,925;  222,317; 1045,698;86,78946
1094,25;  945,848;  244,471; 1053,313;86,71368
1094,79;  915,848;  233,933; 1048,083;83,75795
1095,33;  917,156;  228,394; 1027,160;86,22827
1095,87;  912,694;  229,856; 1008,621;87,68218
1096,40;  875,387;  214,317;  975,698;86,82505
1096,94;  882,463;  234,471;  970,698;88,01530
1097,48;  879,310;  240,702;  984,698;85,83481
1098,02;  878,079;  222,317;  952,467;89,81189
1098,56;  833,463;  201,240;  927,698;87,02820
1099,10;  812,156;  210,471;  913,160;85,62608
1099,63;  813,848;  206,087;  910,544;86,27367
1100,17;  833,002;  232,856;  928,467;86,27605
1100,71;  845,156;  255,087;  931,698;87,20945

