
Integration time [ms]: 120,000
Averaging Nr. [scans]: 13
Smoothing Nr. [pixels]: 0
Data measured with spectrometer [name]: 2009305U1
Wave   ;Sample   ;Dark     ;Reference;Reflectance
[nm]   ;[counts] ;[counts] ;[counts] ;[%]

 175,72;  202,668;  201,729;  206,872;18,24052
 176,32;  229,231;  218,186;  213,932; 0,00000
 176,92;  262,869;  251,189;  249,591; 0,00000
 177,52;  255,425;  249,113;  256,862;81,45207
 178,12;  238,867;  238,725;  218,250; 0,00000
 178,72;  264,689;  262,954;  247,860; 0,00000
 179,32;  248,061;  250,340;  247,043; 0,00000
 179,92;  249,901;  250,342;  243,729; 0,00000
 180,52;  247,835;  238,347;  240,736;397,16515
 181,12;  259,680;  258,034;  250,818; 0,00000
 181,73;  272,385;  272,650;  268,353; 0,00000
 182,33;  364,128;  341,884;  351,655;227,65346
 182,93;  271,208;  275,575;  267,614; 0,00000
 183,53;  237,083;  239,569;  226,246; 0,00000
 184,13;  235,026;  234,262;  230,039; 0,00000
 184,73;  276,357;  277,568;  272,393; 0,00000
 185,33;  262,179;  232,615;  345,677;26,14823
 185,93;  278,984;  245,073;  348,991;32,63209
 186,53;  287,423;  251,383;  367,173;31,12571
 187,13;  310,950;  271,464;  401,161;30,44469
 187,73;  286,368;  239,766;  346,389;43,70666
 188,33;  282,864;  238,149;  355,651;38,05514
 188,93;  286,635;  255,681;  354,167;31,42943
 189,53;  293,017;  258,060;  373,340;30,32357
 190,13;  324,374;  290,822;  407,960;28,64308
 190,73;  279,083;  217,519;  341,075;49,82662
 191,34;  307,412;  266,833;  379,465;36,02848
 191,94;  287,757;  235,608;  351,373;45,04713
 192,54;  293,862;  251,390;  369,660;35,91149
 193,14;  291,385;  263,925;  377,413;24,19658
 193,74;  292,997;  263,078;  378,201;25,98819
 194,34;  280,718;  260,310;  380,482;16,98196
 194,94;  257,168;  223,386;  339,780;29,02343
 195,54;  229,722;  203,693;  312,414;23,94191
 196,14;  263,096;  220,157;  353,619;32,17285
 196,74;  257,621;  214,922;  338,653;34,50904
 197,34;  239,179;  196,698;  319,609;34,56240
 197,94;  273,660;  237,079;  365,572;28,46933
 198,54;  279,388;  247,080;  380,114;24,28485
 199,14;  253,832;  210,546;  368,519;27,40087
 199,74;  245,434;  207,392;  366,691;23,88082
 200,34;  246,263;  197,469;  355,354;30,90475
 200,94;  282,639;  228,390;  407,380;30,30833
 201,54;  261,090;  222,622;  409,009;20,63900
 202,14;  298,893;  243,778;  440,040;28,08222
 202,74;  267,490;  221,853;  441,142;20,81120
 203,34;  259,601;  198,087;  459,415;23,53875
 203,94;  233,057;  171,394;  466,821;20,87239
 204,54;  317,007;  242,156;  543,763;24,81735
 205,14;  272,278;  198,315;  561,400;20,37062
 205,74;  330,551;  232,933;  638,687;24,05821
 206,34;  295,121;  204,470;  636,056;21,00410
 206,94;  310,228;  218,547;  688,144;19,52340
 207,54;  295,639;  174,778;  718,661;22,22183
 208,14;  313,529;  205,317;  793,743;18,39012
 208,74;  339,026;  214,161;  871,081;19,00763
 209,34;  339,593;  198,623;  933,736;19,17663
 209,94;  372,834;  210,315; 1008,119;20,37085
 210,54;  378,130;  210,240; 1112,466;18,60838
 211,14;  408,630;  213,392; 1206,006;19,66913
 211,73;  426,513;  204,314; 1298,510;20,30702
 212,33;  475,729;  225,698; 1403,055;21,23669
 212,93;  466,976;  204,468; 1488,353;20,44632
 213,53;  456,936;  178,853; 1530,484;20,57384
 214,13;  493,299;  193,089; 1619,086;21,05263
 214,73;  483,970;  189,855; 1644,501;20,21898
 215,33;  488,296;  170,469; 1671,042;21,18038
 215,93;  530,853;  199,010; 1779,950;20,99023
 216,53;  524,756;  175,314; 1843,429;20,94829
 217,13;  625,485;  219,164; 2025,749;22,49115
 217,73;  630,134;  195,703; 2217,986;21,48223
 218,33;  642,481;  149,166; 2386,125;22,05292
 218,93;  746,296;  177,401; 2679,163;22,73980
 219,53;  819,929;  199,705; 2920,374;22,79676
 220,13;  848,121;  159,475; 3206,578;22,60004
 220,73;  957,423;  187,392; 3517,693;23,12196
 221,32; 1032,949;  188,392; 3874,081;22,91450
 221,92; 1123,453;  202,551; 4264,174;22,67325
 222,52; 1210,694;  174,934; 4661,073;23,08800
 223,12; 1302,807;  181,165; 5075,819;22,91566
 223,72; 1369,871;  195,319; 5442,991;22,38235
 224,32; 1439,555;  192,626; 5845,976;22,05645
 224,92; 1507,138;  189,088; 6108,737;22,26569
 225,52; 1573,445;  203,008; 6452,854;21,92753
 226,12; 1609,560;  185,856; 6698,534;21,86050
 226,72; 1641,014;  158,702; 7028,198;21,57818
 227,31; 1700,059;  155,240; 7354,420;21,45826
 227,91; 1796,497;  192,316; 7785,953;21,12533
 228,51; 1845,803;  178,083; 8109,623;21,02643
 229,11; 1909,839;  184,394; 8495,572;20,76054
 229,71; 1931,880;  186,699; 8716,250;20,46041
 230,31; 2003,100;  179,473; 9075,403;20,49956
 230,91; 2037,078;  166,235; 9391,911;20,27865
 231,51; 2007,564;  172,318; 9652,900;19,35795
 232,10; 2122,590;  171,474; 9976,672;19,89879
 232,70; 2115,179;  186,926;10145,097;19,36353
 233,30; 2144,586;  202,625;10365,435;19,10850
 233,90; 2114,708;  176,164;10513,657;18,75255
 234,50; 2096,856;  175,780;10561,473;18,49733
 235,10; 2074,677;  173,857;10664,121;18,11984
 235,70; 2084,340;  198,008;10648,200;18,05069
 236,29; 2043,960;  191,392;10629,618;17,74792
 236,89; 1955,239;  159,543;10478,016;17,40273
 237,49; 1939,467;  194,625;10431,184;17,04520
 238,09; 1836,736;  184,547;10154,902;16,57102
 238,69; 1832,621;  225,388; 9983,329;16,47102
 239,29; 1747,496;  176,470; 9652,505;16,57893
 239,89; 1669,579;  195,466; 9366,333;16,07386
 240,48; 1586,935;  177,163; 8974,124;16,02568
 241,08; 1519,658;  181,701; 8634,289;15,82897
 241,68; 1510,879;  192,009; 8356,134;16,15446
 242,28; 1429,180;  174,394; 8035,117;15,96273
 242,88; 1433,824;  219,166; 7828,258;15,96325
 243,48; 1396,634;  211,086; 7510,243;16,24226
 244,07; 1347,542;  192,316; 7275,406;16,30963
 244,67; 1368,964;  193,163; 7151,240;16,89836
 245,27; 1352,897;  196,314; 6989,894;17,02465
 245,87; 1397,506;  220,242; 6894,092;17,63995
 246,47; 1431,160;  191,545; 6923,749;18,41321
 247,06; 1463,018;  182,239; 6907,078;19,04550
 247,66; 1513,882;  174,855; 6941,503;19,78863
 248,26; 1598,692;  213,237; 7050,026;20,26470
 248,86; 1691,210;  202,776; 7247,862;21,12727
 249,46; 1724,885;  155,010; 7422,575;21,60111
 250,05; 1902,347;  205,393; 7732,627;22,54419
 250,65; 2026,426;  169,391; 8052,190;23,55807
 251,25; 2202,316;  188,700; 8492,681;24,24880
 251,85; 2398,454;  186,159; 8978,281;25,16225
 252,44; 2584,763;  152,930; 9520,688;25,95961
 253,04; 2890,654;  201,854;10265,000;26,71928
 253,64; 3067,631;  154,236;10900,597;27,11052
 254,24; 3446,976;  204,009;11741,224;28,10875
 254,84; 3702,193;  179,779;12519,882;28,54444
 255,43; 4071,137;  179,700;13422,613;29,38506
 256,03; 4450,052;  185,775;14398,265;30,00373
 256,63; 4781,977;  193,389;15343,007;30,28847
 257,23; 5133,889;  169,928;16095,163;31,17041
 257,82; 5540,579;  188,465;17044,616;31,75170
 258,42; 5806,615;  147,079;17784,581;32,08808
 259,02; 6227,651;  201,469;18712,709;32,55418
 259,62; 6447,139;  169,002;19302,986;32,81145
 260,21; 6720,548;  188,699;19810,500;33,28873
 260,81; 6903,740;  190,009;20287,806;33,40531
 261,41; 7139,678;  163,388;20645,074;34,06111
 262,01; 7384,103;  203,617;21237,688;34,13741
 262,60; 7514,043;  169,697;21451,470;34,51003
 263,20; 7713,972;  173,852;21765,449;34,92155
 263,80; 7834,716;  201,232;21997,474;35,02202
 264,40; 7895,574;  169,386;22117,392;35,20223
 264,99; 7922,987;  187,385;22332,574;34,93130
 265,59; 8025,256;  175,691;22368,883;35,36925
 266,19; 8090,087;  172,078;22546,184;35,38916
 266,78; 8161,095;  213,000;22692,956;35,35636
 267,38; 8156,117;  193,076;22721,709;35,34631
 267,98; 8120,299;  182,692;22678,223;35,28526
 268,58; 8182,855;  189,460;22711,392;35,49160
 269,17; 8106,155;  184,074;22772,031;35,07215
 269,77; 8041,821;  184,850;22568,779;35,10095
 270,37; 7969,061;  160,385;22470,206;35,00107
 270,96; 7910,486;  220,080;22415,265;34,64898
 271,56; 7757,714;  181,851;22134,075;34,51069
 272,16; 7695,503;  182,618;21964,063;34,49213
 272,75; 7595,954;  187,926;21924,911;34,08029
 273,35; 7554,154;  192,850;21843,823;33,99988
 273,95; 7471,017;  180,849;21764,698;33,77603
 274,54; 7440,883;  161,470;21761,566;33,70083
 275,14; 7528,727;  200,773;22189,200;33,32641
 275,74; 7466,705;  154,926;22167,808;33,21591
 276,33; 7615,312;  205,850;22504,881;33,22773
 276,93; 7632,667;  188,855;22848,853;32,85001
 277,53; 7698,639;  195,238;23368,098;32,38013
 278,12; 7847,082;  178,775;23806,277;32,45501
 278,72; 7984,663;  219,238;24373,847;32,14883
 279,32; 8151,457;  186,391;24798,059;32,36297
 279,91; 8339,057;  159,468;25562,541;32,19921
 280,51; 8490,135;  188,469;25967,321;32,20340
 281,11; 8716,948;  180,006;26630,763;32,27485
 281,70; 8803,771;  167,698;27049,153;32,12651
 282,30; 9004,945;  171,312;27551,998;32,26228
 282,90; 9122,897;  173,851;27939,485;32,23066
 283,49; 9284,602;  198,311;28439,687;32,17368
 284,09; 9431,305;  201,390;28910,339;32,14996
 284,69; 9612,345;  211,314;29098,297;32,54418
 285,28; 9785,164;  197,159;29476,937;32,74617
 285,88; 9935,378;  245,541;29721,166;32,87407
 286,47; 9959,142;  186,235;29759,467;33,04646
 287,07;10105,393;  209,930;29811,041;33,42936
 287,67;10245,788;  202,163;29911,397;33,80641
 288,26;10284,605;  176,853;29846,860;34,06724
 288,86;10451,429;  181,159;29866,006;34,59768
 289,46;10595,261;  192,698;30055,269;34,83479
 290,05;10813,252;  175,470;30059,663;35,59669
 290,65;10984,195;  193,235;30239,781;35,91415
 291,24;11197,846;  191,699;30304,873;36,54928
 291,84;11405,900;  211,466;30425,700;37,05020
 292,44;11602,504;  188,702;30600,545;37,53078
 293,03;11787,446;  261,776;30732,753;37,82507
 293,63;11923,943;  177,235;30773,553;38,39255
 294,22;12108,118;  198,544;30973,729;38,69863
 294,82;12202,532;  183,617;30975,077;39,03327
 295,41;12114,156;  170,390;30638,076;39,20142
 296,01;12219,817;  216,464;30605,787;39,49859
 296,61;12100,382;  210,622;30362,350;39,43310
 297,20;11948,946;  199,157;30000,191;39,42746
 297,80;11891,251;  201,316;29818,216;39,47049
 298,39;11708,531;  183,313;29490,512;39,32555
 298,99;11605,518;  194,619;29344,735;39,14530
 299,58;11445,208;  204,009;29207,145;38,75856
 300,18;11250,934;  198,624;28990,588;38,38679
 300,78;11079,630;  178,007;28703,929;38,21655
 301,37;10925,621;  194,462;28642,972;37,72134
 301,97;10918,614;  192,929;28648,490;37,69275
 302,56;10705,428;  193,158;28653,764;36,93621
 303,16;10584,321;  170,004;28481,819;36,78435
 303,75;10454,656;  189,315;28525,061;36,22753
 304,35;10468,574;  181,472;28720,066;36,04628
 304,94;10349,417;  181,699;28731,637;35,61380
 305,54;10278,334;  218,546;28672,081;35,35514
 306,13;10080,255;  161,934;28573,068;34,90998
 306,73; 9852,456;  158,548;28317,031;34,42624
 307,33; 9783,168;  204,317;28321,045;34,06816
 307,92; 9682,016;  193,084;28380,531;33,66368
 308,52; 9681,562;  170,696;28741,356;33,28893
 309,11; 9724,056;  178,541;29205,878;32,88457
 309,71; 9662,888;  171,617;29443,116;32,42496
 310,30; 9630,796;  172,776;29648,606;32,08738
 310,90; 9650,104;  208,853;29955,991;31,73835
 311,49; 9581,006;  185,314;30028,673;31,48336
 312,09; 9462,119;  161,008;30225,597;30,93710
 312,68; 9552,705;  231,930;30664,330;30,62780
 313,28; 9346,631;  167,314;30631,838;30,13117
 313,87; 9264,438;  154,776;30809,032;29,71745
 314,47; 9205,270;  172,157;30963,772;29,33628
 315,06; 9121,941;  159,391;31159,668;28,91119
 315,66; 9093,966;  174,547;31275,674;28,67876
 316,25; 8892,111;  156,620;31163,214;28,17301
 316,85; 8800,891;  151,778;31200,812;27,85631
 317,44; 8780,061;  179,387;31341,615;27,59968
 318,04; 8651,545;  164,466;31348,802;27,21584
 318,63; 8514,626;  162,471;31389,074;26,74692
 319,22; 8500,731;  188,158;31575,797;26,48359
 319,82; 8350,761;  185,621;31708,679;25,90212
 320,41; 8186,720;  187,158;31426,645;25,60721
 321,01; 8100,112;  197,008;31533,415;25,22020
 321,60; 8033,872;  189,390;31561,672;25,00450
 322,20; 7956,435;  169,315;31579,831;24,79144
 322,79; 7889,265;  204,391;31614,250;24,46644
 323,39; 7815,858;  181,472;31629,533;24,27617
 323,98; 7691,795;  168,930;31550,158;23,97250
 324,58; 7549,347;  170,619;31501,168;23,55123
 325,17; 7488,238;  174,543;31304,557;23,49403
 325,76; 7384,651;  206,776;31146,621;23,19945
 326,36; 7247,295;  171,239;30813,671;23,09235
 326,95; 7128,015;  200,390;30497,135;22,86591
 327,55; 6969,743;  163,774;30140,191;22,70441
 328,14; 6867,689;  168,855;29824,158;22,58899
 328,74; 6772,903;  199,004;29444,362;22,47844
 329,33; 6661,431;  198,931;29099,182;22,36140
 329,92; 6482,705;  163,464;28602,332;22,22044
 330,52; 6332,771;  184,240;28056,741;22,05949
 331,11; 6239,888;  173,390;27658,869;22,07165
 331,71; 6054,211;  179,929;27078,464;21,83867
 332,30; 5969,417;  201,083;26683,099;21,78208
 332,89; 5891,948;  237,161;26152,787;21,81999
 333,49; 5725,185;  187,159;25730,178;21,68117
 334,08; 5651,035;  176,851;25392,148;21,70977
 334,68; 5554,467;  185,928;24979,661;21,65280
 335,27; 5511,613;  201,086;24699,617;21,67692
 335,86; 5518,427;  229,544;24407,330;21,87497
 336,46; 5404,494;  201,625;24132,917;21,74086
 337,05; 5360,933;  178,698;23990,860;21,76298
 337,65; 5317,406;  166,851;23853,243;21,74478
 338,24; 5359,594;  226,161;23820,953;21,75664
 338,83; 5367,150;  209,546;23747,210;21,91214
 339,43; 5338,453;  166,158;23655,207;22,02003
 340,02; 5348,506;  179,542;23628,981;22,04302
 340,61; 5385,079;  175,622;23638,933;22,20257
 341,21; 5467,826;  213,312;23703,977;22,36852
 341,80; 5440,772;  189,082;23583,139;22,44882
 342,40; 5507,327;  191,932;23701,383;22,60961
 342,99; 5548,256;  184,623;23787,787;22,72421
 343,58; 5621,661;  187,392;23957,336;22,86193
 344,18; 5688,945;  197,239;24025,125;23,04739
 344,77; 5799,459;  175,542;24256,853;23,35386
 345,36; 5902,246;  158,083;24541,058;23,55809
 345,96; 6047,155;  208,239;24819,807;23,72427
 346,55; 6163,969;  181,703;25003,141;24,10121
 347,14; 6256,375;  169,778;25317,973;24,20292
 347,74; 6398,249;  150,628;25676,600;24,47555
 348,33; 6670,839;  178,089;26274,468;24,87989
 348,92; 6881,915;  197,629;26750,416;25,17358
 349,52; 7066,787;  164,167;27227,383;25,50554
 350,11; 7194,252;  175,773;27467,218;25,71677
 350,70; 7249,801;  181,622;27518,189;25,85613
 351,29; 7262,063;  167,461;27205,563;26,23927
 351,89; 7376,732;  187,156;27278,374;26,53840
 352,48; 7428,753;  152,237;27344,522;26,75949
 353,07; 7581,401;  183,548;27195,951;27,38687
 353,67; 7614,753;  191,630;27196,094;27,48851
 354,26; 7579,237;  177,778;27049,324;27,54385
 354,85; 7674,785;  190,931;26835,017;28,08824
 355,45; 7713,995;  168,313;26713,111;28,42622
 356,04; 7799,761;  182,548;26689,894;28,73624
 356,63; 7867,203;  218,467;26476,589;29,12903
 357,22; 7852,013;  191,924;26303,231;29,33629
 357,82; 7941,206;  184,463;26171,051;29,84902
 358,41; 8016,677;  207,160;26032,662;30,23956
 359,00; 8024,161;  173,004;25832,557;30,59740
 359,60; 8106,655;  187,238;25782,294;30,94120
 360,19; 8168,878;  193,548;25704,162;31,26279
 360,78; 8210,220;  191,313;25485,157;31,70300
 361,37; 8212,361;  177,159;25361,021;31,90615
 361,97; 8263,487;  191,852;25288,609;32,16206
 362,56; 8280,019;  171,388;24946,234;32,72929
 363,15; 8363,693;  217,544;24762,617;33,18853
 363,74; 8362,426;  192,157;24476,679;33,64394
 364,34; 8294,005;  205,773;24153,881;33,77399
 364,93; 8252,627;  177,696;23823,975;34,14884
 365,52; 8182,350;  154,467;23477,638;34,42020
 366,11; 8245,869;  187,774;23182,062;35,04390
 366,71; 8190,423;  191,389;22803,643;35,37478
 367,30; 8147,753;  188,467;22570,511;35,56103
 367,89; 8216,859;  227,393;22379,572;36,06628
 368,48; 8157,630;  202,234;22074,561;36,37197
 369,07; 8058,186;  189,391;21656,189;36,65565
 369,67; 8103,301;  210,926;21477,410;37,11180
 370,26; 8008,313;  175,468;21171,532;37,30625
 370,85; 8012,795;  182,082;20922,749;37,75536
 371,44; 8040,161;  188,237;20753,120;38,18122
 372,03; 8003,251;  163,235;20556,770;38,44364
 372,63; 7976,325;  158,775;20244,119;38,92167
 373,22; 7924,626;  175,930;20036,179;39,01611
 373,81; 7864,472;  159,236;19782,321;39,26618
 374,40; 7861,243;  173,778;19460,047;39,85978
 374,99; 7875,459;  176,467;19282,864;40,29537
 375,59; 7807,421;  172,085;19059,643;40,42521
 376,18; 7849,833;  201,005;18980,250;40,73022
 376,77; 7876,351;  196,006;18709,635;41,48482
 377,36; 7857,825;  208,390;18763,235;41,22608
 377,95; 7842,166;  191,543;18407,371;41,99986
 378,55; 7831,650;  172,931;18324,569;42,19299
 379,14; 7837,809;  186,159;18193,346;42,49220
 379,73; 7884,062;  190,005;18150,868;42,83790
 380,32; 7954,349;  184,775;18138,729;43,27500
 380,91; 7939,036;  157,311;18041,879;43,51083
 381,50; 8024,467;  201,158;18028,560;43,88362
 382,10; 7985,656;  168,621;17937,882;43,99190
 382,69; 7995,761;  168,621;17884,833;44,18066
 383,28; 8064,445;  202,466;17890,255;44,44863
 383,87; 8038,952;  176,542;17716,016;44,82694
 384,46; 8079,425;  170,540;17679,514;45,17047
 385,05; 8142,605;  208,696;17677,748;45,41694
 385,64; 8151,100;  192,235;17644,677;45,60316
 386,24; 8225,298;  163,386;17642,555;46,12297
 386,83; 8294,766;  199,540;17686,201;46,29372
 387,42; 8352,688;  196,851;17786,251;46,36791
 388,01; 8456,493;  194,076;17924,233;46,60093
 388,60; 8651,881;  191,925;18158,714;47,08663
 389,19; 8771,095;  177,997;18305,830;47,40279
 389,78; 8889,898;  179,228;18564,528;47,37845
 390,37; 9209,067;  240,000;18893,698;48,08198
 390,96; 9277,572;  189,001;18997,024;48,32284
 391,56; 9419,900;  194,919;19208,103;48,51887
 392,15; 9550,881;  184,690;19430,345;48,66652
 392,74; 9656,230;  159,069;19627,742;48,78176
 393,33; 9843,490;  183,688;19819,125;49,19576
 393,92; 9991,979;  193,298;20196,938;48,98449
 394,51;10199,225;  169,303;20392,440;49,59627
 395,10;10345,107;  207,062;20651,962;49,58716
 395,69;10420,453;  202,678;20752,398;49,72221
 396,28;10503,098;  208,983;20771,541;50,06242
 396,87;10562,101;  208,363;20898,450;50,04202
 397,46;10642,027;  215,129;20943,923;50,30152
 398,06;10769,760;  223,279;21139,960;50,42139
 398,65;10847,161;  204,578;21271,406;50,51821
 399,24;11009,589;  225,422;21394,542;50,94291
 399,83;10907,733;  198,331;21390,949;50,53364
 400,42;11102,121;  254,088;21553,748;50,93054
 401,01;11140,008;  213,074;21665,870;50,93478
 401,60;11192,461;  228,285;21657,881;51,16371
 402,19;11201,165;  249,039;21683,120;51,09678
 402,78;11252,278;  253,477;21718,293;51,24107
 403,37;11165,257;  237,763;21500,734;51,39213
 403,96;11165,958;  234,660;21369,983;51,72052
 404,55;11232,803;  263,323;21325,723;52,08087
 405,14;11125,465;  239,527;21175,396;51,99659
 405,73;11125,367;  256,881;21100,947;52,14187
 406,32;11128,494;  257,091;21055,753;52,26972
 406,91;11021,237;  238,759;20761,509;52,53915
 407,50;10941,593;  263,593;20641,761;52,39922
 408,09;10866,744;  237,815;20373,194;52,78733
 408,68;10827,967;  246,270;20291,234;52,78980
 409,27;10754,303;  245,355;20085,614;52,96780
 409,86;10695,283;  256,989;20002,333;52,86459
 410,45;10696,395;  288,928;19955,774;52,91884
 411,04;10729,242;  289,559;19904,468;53,22320
 411,63;10578,152;  273,350;19624,100;53,25272
 412,22;10467,189;  280,523;19482,421;53,05031
 412,81;10356,010;  293,145;19202,463;53,21644
 413,40;10236,165;  298,077;18947,508;53,28896
 413,99;10105,904;  328,535;18631,139;53,42064
 414,58; 9937,554;  271,614;18284,849;53,66021
 415,17; 9839,305;  279,991;18101,481;53,63925
 415,76; 9753,169;  256,368;17999,166;53,52482
 416,35; 9669,216;  258,680;17838,897;53,52912
 416,94; 9708,355;  295,139;17844,585;53,63825
 417,53; 9783,598;  266,761;18068,435;53,46035
 418,12; 9823,786;  261,609;18120,991;53,54148
 418,71;10037,310;  299,923;18412,108;53,76152
 419,30;10053,251;  278,225;18537,049;53,53590
 419,89;10195,710;  270,303;18741,244;53,73525
 420,48;10361,236;  290,231;18964,708;53,92925
 421,07;10444,339;  282,078;19006,851;54,27175
 421,66;10459,130;  257,159;19023,831;54,36218
 422,25;10412,990;  270,782;19022,155;54,08781
 422,84;10414,419;  301,245;19019,094;54,02958
 423,43;10251,526;  279,781;18735,300;54,03124
 424,02;10193,476;  302,397;18536,212;54,24580
 424,60;10031,319;  262,406;18159,979;54,58233
 425,19; 9872,155;  274,402;17884,214;54,50230
 425,78; 9787,369;  288,248;17869,031;54,03127
 426,37; 9721,339;  290,329;17674,825;54,24955
 426,96; 9671,864;  276,406;17574,765;54,31416
 427,55; 9618,425;  262,565;17458,296;54,40804
 428,14; 9462,090;  276,951;17277,370;54,02890
 428,73; 9412,845;  281,178;17176,404;54,04880
 429,32; 9406,032;  289,944;17161,119;54,03351
 429,91; 9435,991;  302,947;17156,620;54,19023
 430,50; 9371,851;  287,873;16968,792;54,45730
 431,08; 9257,448;  301,183;16859,955;54,08774
 431,67; 9226,211;  337,494;16810,809;53,95828
 432,26; 9156,676;  350,957;16658,199;53,99882
 432,85; 8999,855;  376,957;16259,013;54,29334
 433,44; 8823,247;  372,883;15957,398;54,22282
 434,03; 8626,520;  388,580;15678,711;53,87749
 434,62; 8451,023;  356,807;15263,888;54,29780
 435,21; 8362,313;  369,419;15092,581;54,28789
 435,79; 8285,085;  378,809;14993,266;54,09901
 436,38; 8175,400;  360,429;14891,432;53,78136
 436,97; 8197,527;  363,276;14828,789;54,15813
 437,56; 8044,785;  357,591;14579,542;54,05161
 438,15; 7989,549;  330,897;14590,165;53,71000
 438,74; 7981,262;  347,051;14560,189;53,71235
 439,33; 7987,497;  329,127;14514,915;53,98621
 439,91; 7958,770;  288,284;14558,280;53,75254
 440,50; 8027,594;  339,669;14649,975;53,72300
 441,09; 8075,428;  341,211;14755,578;53,65630
 441,68; 8031,251;  323,215;14746,260;53,44250
 442,27; 8016,326;  313,368;14780,559;53,24432
 442,86; 7965,865;  285,530;14782,373;52,97936
 443,44; 8089,584;  302,067;14802,621;53,70496
 444,03; 8105,100;  356,300;14838,956;53,50400
 444,62; 8010,777;  306,069;14699,606;53,52894
 445,21; 7907,055;  315,068;14587,723;53,19253
 445,80; 7881,975;  345,919;14524,583;53,15068
 446,39; 7795,382;  356,302;14305,874;53,32837
 446,97; 7623,935;  292,385;14107,313;53,06977
 447,56; 7538,710;  312,927;13923,327;53,09016
 448,15; 7408,009;  304,846;13730,790;52,90625
 448,74; 7364,624;  322,693;13558,650;53,20303
 449,33; 7260,505;  317,773;13412,294;53,02013
 449,91; 7151,207;  316,162;13256,983;52,81771
 450,50; 7030,811;  299,238;12957,665;53,17859
 451,09; 7002,935;  319,854;12948,808;52,91872
 451,68; 6939,743;  331,779;12840,793;52,82562
 452,26; 6927,371;  330,781;12763,121;53,05992
 452,85; 6825,397;  309,241;12702,998;52,57611
 453,44; 6839,404;  337,093;12715,419;52,52981
 454,03; 6819,193;  305,474;12641,459;52,80258
 454,61; 6778,878;  302,171;12612,877;52,61037
 455,20; 6884,691;  334,173;12819,368;52,46629
 455,79; 6858,862;  334,631;12800,040;52,33869
 456,38; 6870,757;  334,869;12835,957;52,28255
 456,97; 6927,897;  314,175;12930,733;52,42097
 457,55; 6880,911;  327,024;12986,367;51,77114
 458,14; 6870,919;  359,328;12929,255;51,80294
 458,73; 6854,846;  336,255;12858,286;52,05698
 459,31; 6826,277;  360,105;12888,016;51,61413
 459,90; 6851,788;  365,642;13009,337;51,29945
 460,49; 6951,877;  401,179;13084,693;51,64734
 461,08; 6895,977;  331,646;13146,916;51,22273
 461,66; 6955,657;  333,874;13133,433;51,73446
 462,25; 7004,133;  346,724;13253,540;51,58057
 462,84; 7029,989;  372,415;13264,835;51,63945
 463,43; 6935,698;  312,728;13273,642;51,09956
 464,01; 6977,350;  335,346;13300,720;51,22879
 464,60; 6979,319;  382,881;13257,123;51,23749
 465,19; 6789,505;  310,193;13024,885;50,95925
 465,77; 6806,286;  346,195;12957,829;51,22327
 466,36; 6749,253;  355,190;12871,454;51,08603
 466,95; 6610,698;  338,421;12568,117;51,28726
 467,53; 6443,075;  349,274;12329,878;50,86389
 468,12; 6334,984;  370,198;12130,524;50,71956
 468,71; 6196,011;  358,578;11902,890;50,56545
 469,29; 6046,153;  329,044;11685,581;50,34201
 469,88; 5942,293;  343,892;11486,547;50,24297
 470,47; 5990,070;  405,357;11586,317;49,94842
 471,06; 5938,090;  349,127;11501,943;50,11258
 471,64; 5949,015;  352,280;11596,839;49,77283
 472,23; 5917,846;  321,594;11583,969;49,68980
 472,81; 5967,059;  323,437;11719,893;49,52085
 473,40; 6028,820;  338,671;11817,928;49,56896
 473,99; 6155,390;  438,979;12040,937;49,27109
 474,57; 6121,183;  340,133;12159,994;48,90963
 475,16; 6172,957;  360,361;12218,465;49,01792
 475,75; 6266,428;  373,289;12384,013;49,06564
 476,33; 6300,046;  377,523;12477,109;48,94815
 476,92; 6250,007;  374,980;12492,704;48,48293
 477,51; 6275,903;  368,983;12553,558;48,47867
 478,09; 6256,812;  376,598;12581,345;48,17973
 478,68; 6245,044;  378,292;12542,433;48,22989
 479,27; 6221,587;  397,751;12597,596;47,73697
 479,85; 6230,654;  370,599;12553,004;48,10261
 480,44; 6277,201;  361,908;12606,505;48,30941
 481,02; 6738,854;  378,757;13796,042;47,40227
 481,61; 7588,424;  402,064;15652,194;47,12327
 482,20; 8133,165;  389,526;16794,488;47,20303
 482,78; 8469,647;  417,446;17518,987;47,08465
 483,37; 8696,394;  400,222;18018,243;47,08912
 483,95; 8763,138;  423,531;18194,276;46,92885
 484,54; 8891,488;  435,063;18409,352;47,04734
 485,13; 8832,088;  397,380;18366,598;46,93976
 485,71; 8689,318;  376,840;18058,972;47,01061
 486,30; 8586,612;  431,071;17894,682;46,70020
 486,88; 8431,897;  442,688;17531,852;46,75015
 487,47; 8136,259;  433,535;16893,254;46,79742
 488,05; 7797,283;  429,767;16157,182;46,84505
 488,64; 7223,164;  425,000;14969,596;46,74014
 489,23; 6485,735;  430,229;13365,258;46,81479
 489,81; 5510,129;  430,538;11432,053;46,17174
 490,40; 5128,438;  382,077;10874,205;45,23736
 490,98; 4997,165;  357,462;10591,516;45,33593
 491,57; 4970,008;  397,999;10567,510;44,95800
 492,15; 4930,379;  373,771;10500,179;44,99728
 492,74; 4896,521;  389,152;10406,749;44,99452
 493,32; 4846,789;  402,616;10315,377;44,83285
 493,91; 4768,435;  379,387;10229,194;44,55974
 494,50; 4705,209;  391,392;10263,082;43,69887
 495,08; 4655,833;  369,546;10121,789;43,95180
 495,67; 4669,192;  390,772;10132,736;43,91743
 496,25; 4576,935;  326,544;10026,577;43,81832
 496,84; 4567,909;  347,156;10026,563;43,60549
 497,42; 4515,456;  330,468; 9959,484;43,46226
 498,01; 4494,496;  367,080; 9902,920;43,28320
 498,59; 4456,622;  317,237; 9817,250;43,57241
 499,18; 4415,875;  328,080; 9836,658;42,99060
 499,76; 4412,091;  354,775; 9744,638;43,20954
 500,35; 4292,599;  347,086; 9572,984;42,76563
 500,93; 4233,435;  325,852; 9577,089;42,23849
 501,52; 4180,850;  330,237; 9470,573;42,12770
 502,10; 4175,826;  346,011; 9496,038;41,85578
 502,69; 4088,492;  334,090; 9334,329;41,71447
 503,27; 3963,614;  317,777; 9147,938;41,28846
 503,86; 3920,655;  327,474; 9068,484;41,10716
 504,44; 3877,180;  311,398; 8999,373;41,04272
 505,03; 3755,426;  292,860; 8772,262;40,83503
 505,61; 3696,467;  315,167; 8645,426;40,59058
 506,19; 3657,976;  329,629; 8542,030;40,52830
 506,78; 3514,298;  302,940; 8351,751;39,89853
 507,36; 3476,634;  305,244; 8211,729;40,11124
 507,95; 3402,560;  326,558; 8031,400;39,92298
 508,53; 3351,664;  308,094; 7979,494;39,67425
 509,12; 3290,575;  315,403; 7891,907;39,26839
 509,70; 3226,600;  323,250; 7716,130;39,27224
 510,29; 3179,405;  341,483; 7629,516;38,93949
 510,87; 3055,017;  305,402; 7432,639;38,57898
 511,46; 3003,809;  302,941; 7270,954;38,76094
 512,04; 2935,880;  300,635; 7159,948;38,41848
 512,62; 2851,334;  326,710; 7059,818;37,49566
 513,21; 2797,965;  290,714; 6856,757;38,18511
 513,79; 2741,512;  306,027; 6749,780;37,79605
 514,38; 2699,348;  290,640; 6580,820;38,29314
 514,96; 2637,569;  329,640; 6537,501;37,17752
 515,54; 2570,927;  284,641; 6411,547;37,31550
 516,13; 2531,293;  316,257; 6365,150;36,61886
 516,71; 2452,822;  293,413; 6187,097;36,63937
 517,30; 2404,927;  298,492; 6100,160;36,30739
 517,88; 2410,553;  317,031; 6059,697;36,45558
 518,46; 2299,583;  286,109; 5948,733;35,55726
 519,05; 2303,537;  296,187; 5904,152;35,79463
 519,63; 2274,221;  312,494; 5837,280;35,50774
 520,22; 2248,782;  314,651; 5819,016;35,13813
 520,80; 2192,084;  310,883; 5738,447;34,66014
 521,38; 2201,285;  334,495; 5731,616;34,58862
 521,97; 2144,115;  293,500; 5657,788;34,49881
 522,55; 2152,068;  318,038; 5672,813;34,25036
 523,13; 2107,859;  293,962; 5633,143;33,97331
 523,72; 2092,363;  301,647; 5659,501;33,42226
 524,30; 2128,010;  324,733; 5771,568;33,10687
 524,89; 2082,033;  294,346; 5746,142;32,79078
 525,47; 2116,584;  313,426; 5873,635;32,42968
 526,05; 2098,119;  278,657; 5922,665;32,23705
 526,64; 2131,579;  323,351; 6001,539;31,84516
 527,22; 2195,274;  318,349; 6135,190;32,26708
 527,80; 2216,850;  347,504; 6262,947;31,60111
 528,39; 2174,672;  301,198; 6336,439;31,04225
 528,97; 2216,560;  295,736; 6473,141;31,09435
 529,55; 2241,429;  310,039; 6638,152;30,52079
 530,14; 2278,745;  333,353; 6782,175;30,16663
 530,72; 2274,931;  306,120; 6881,159;29,94371
 531,30; 2306,893;  294,045; 6980,759;30,10219
 531,89; 2323,707;  316,891; 7098,981;29,58993
 532,47; 2340,963;  340,508; 7179,358;29,25134
 533,05; 2337,094;  327,889; 7206,237;29,21058
 533,63; 2371,700;  346,816; 7320,901;29,03440
 534,22; 2318,055;  307,816; 7328,722;28,63219
 534,80; 2357,510;  338,357; 7389,806;28,63458
 535,38; 2445,550;  412,353; 7502,857;28,67493
 535,97; 2319,520;  318,046; 7407,846;28,23033
 536,55; 2383,904;  371,819; 7484,972;28,28683
 537,13; 2354,779;  378,045; 7457,091;27,92374
 537,71; 2346,093;  408,506; 7522,121;27,23772
 538,30; 2366,865;  432,817; 7585,910;27,03793
 538,88; 2375,511;  469,897; 7660,675;26,50080
 539,46; 2453,154;  541,588; 7831,755;26,22116
 540,05; 2466,441;  557,358; 7964,077;25,77501
 540,63; 2516,552;  596,666; 8108,608;25,55779
 541,21; 2547,380;  625,206; 8260,452;25,17500
 541,79; 2594,655;  662,283; 8345,751;25,14974
 542,38; 2607,831;  681,742; 8498,338;24,64102
 542,96; 2637,713;  701,977; 8638,609;24,38989
 543,54; 2676,555;  719,744; 8861,218;24,03510
 544,12; 2662,145;  696,591; 8941,174;23,84055
 544,70; 2679,365;  672,747; 9030,355;24,00948
 545,29; 2718,526;  683,743; 9151,014;24,03116
 545,87; 2703,271;  650,898; 9205,136;23,99247
 546,45; 2664,611;  605,588; 9222,491;23,89516
 547,03; 2661,002;  598,051; 9248,623;23,84756
 547,62; 2659,756;  568,745; 9376,130;23,74157
 548,20; 2645,042;  568,900; 9540,760;23,14060
 548,78; 2651,492;  525,136; 9614,143;23,39482
 549,36; 2679,432;  493,751; 9815,403;23,44736
 549,94; 2643,744;  453,053; 9900,376;23,18848
 550,53; 2683,916;  468,442;10132,079;22,92589
 551,11; 2688,443;  419,291;10261,657;23,05495
 551,69; 2716,613;  444,135;10523,829;22,54511
 552,27; 2760,300;  415,518;10761,760;22,66313
 552,85; 2789,841;  411,444;11102,716;22,24615
 553,44; 2867,610;  404,904;11349,153;22,50229
 554,02; 2906,742;  418,674;11698,555;22,05757
 554,60; 2897,575;  357,060;11986,584;21,84539
 555,18; 2969,324;  405,981;12299,240;21,55290
 555,76; 2976,911;  371,674;12580,521;21,33893
 556,34; 3058,813;  372,985;12928,483;21,39165
 556,93; 3107,636;  370,058;13278,593;21,20750
 557,51; 3144,678;  355,062;13566,586;21,11502
 558,09; 3212,512;  375,828;13889,695;20,99091
 558,67; 3258,614;  383,525;14243,901;20,74322
 559,25; 3290,942;  387,601;14502,516;20,56931
 559,83; 3277,742;  361,219;14712,948;20,32175
 560,41; 3356,472;  358,446;15061,399;20,39064
 561,00; 3412,876;  370,679;15405,602;20,23421
 561,58; 3436,698;  352,292;15564,740;20,27554
 562,16; 3474,414;  354,675;15827,248;20,16302
 562,74; 3511,020;  333,674;16170,299;20,06328
 563,32; 3539,140;  343,449;16487,161;19,79526
 563,90; 3597,553;  365,371;16893,406;19,55575
 564,48; 3630,362;  366,138;17252,932;19,33004
 565,06; 3734,498;  348,756;17790,633;19,41157
 565,65; 3836,886;  370,452;18364,895;19,26391
 566,23; 3962,078;  407,218;18999,500;19,12009
 566,81; 4042,494;  357,447;19670,421;19,08068
 567,39; 4173,958;  364,527;20526,056;18,89455
 567,97; 4267,814;  383,525;21033,571;18,81007
 568,55; 4420,628;  410,988;21775,741;18,76755
 569,13; 4485,712;  359,756;22407,065;18,71410
 569,71; 4606,196;  358,060;23291,076;18,52411
 570,29; 4769,865;  409,981;24137,455;18,37483
 570,87; 4900,998;  399,290;24791,379;18,45561
 571,45; 4901,410;  392,987;25303,173;18,09871
 572,03; 4953,973;  349,912;25699,267;18,16244
 572,61; 5065,472;  348,911;26399,372;18,10548
 573,20; 5131,266;  381,831;27027,545;17,82439
 573,78; 5225,079;  370,603;27582,819;17,83932
 574,36; 5298,491;  379,218;28016,539;17,79938
 574,94; 5373,450;  428,682;28281,862;17,75297
 575,52; 5317,094;  384,531;28548,552;17,51370
 576,10; 5388,258;  439,607;29100,078;17,26647
 576,68; 5459,156;  424,989;29663,753;17,21744
 577,26; 5532,147;  437,225;30132,352;17,15744
 577,84; 5577,236;  435,603;30649,174;17,01763
 578,42; 5652,536;  487,683;30852,657;17,00925
 579,00; 5558,710;  434,603;30962,554;16,78497
 579,58; 5573,606;  466,528;31145,999;16,64656
 580,16; 5506,195;  454,375;31274,508;16,39130
 580,74; 5523,571;  459,068;31409,801;16,36311
 581,32; 5493,494;  453,221;31471,405;16,24941
 581,90; 5453,577;  475,068;31360,832;16,11911
 582,48; 5454,903;  481,145;31530,012;16,01913
 583,06; 5420,486;  467,759;31645,146;15,88564
 583,64; 5435,802;  465,066;31726,545;15,90051
 584,22; 5332,957;  475,224;31533,208;15,64085
 584,80; 5240,554;  485,606;31311,453;15,42520
 585,38; 5191,285;  497,446;30916,404;15,43064
 585,96; 5120,369;  459,758;31068,098;15,22661
 586,54; 5106,295;  481,454;31036,758;15,13597
 587,12; 5034,647;  462,761;31161,891;14,89256
 587,70; 5037,746;  481,450;31347,237;14,76164
 588,28; 5008,507;  461,915;31385,412;14,70271
 588,86; 5020,018;  476,992;31519,846;14,63469
 589,44; 4951,174;  451,996;31455,187;14,51198
 590,02; 4950,780;  451,610;31719,238;14,38923
 590,59; 4947,447;  430,608;31929,235;14,33980
 591,17; 4981,560;  428,845;32006,144;14,41768
 591,75; 4914,256;  418,766;32126,473;14,17791
 592,33; 4943,799;  443,688;32340,353;14,10841
 592,91; 4916,737;  393,306;32671,434;14,01392
 593,49; 4945,936;  404,307;32802,681;14,01808
 594,07; 4976,087;  422,846;33033,313;13,96252
 594,65; 4955,565;  438,224;33079,333;13,83942
 595,23; 4958,207;  416,687;33409,322;13,76526
 595,81; 4904,476;  408,534;33545,835;13,56762
 596,39; 4938,052;  406,457;33624,196;13,64209
 596,97; 4917,474;  398,690;33796,195;13,53030
 597,55; 4904,834;  392,455;33700,615;13,54737
 598,12; 4866,436;  386,693;33728,117;13,43597
 598,70; 4867,646;  391,768;33818,620;13,39007
 599,28; 4824,693;  404,768;34013,287;13,15121
 599,86; 4849,256;  397,152;33965,114;13,26296
 600,44; 4799,666;  356,461;34064,721;13,18135
 601,02; 4860,407;  417,695;34218,050;13,14398
 601,60; 4799,643;  392,535;34173,150;13,04626
 602,18; 4813,860;  365,462;34152,602;13,16595
 602,75; 4747,100;  373,072;34232,157;12,91833
 603,33; 4761,264;  381,922;34418,757;12,86648
 603,91; 4763,335;  360,540;34325,147;12,96289
 604,49; 4748,253;  398,999;34393,682;12,79392
 605,07; 4702,885;  386,304;34345,533;12,71107
 605,65; 4744,461;  406,615;34436,391;12,74721
 606,23; 4727,790;  464,608;34619,214;12,48201
 606,80; 4701,222;  514,995;34630,071;12,27090
 607,38; 4694,490;  546,155;34683,826;12,15178
 607,96; 4733,297;  597,457;34728,164;12,11765
 608,54; 4737,429;  652,769;34860,921;11,94060
 609,12; 4717,270;  655,918;34823,046;11,88672
 609,70; 4760,821;  695,229;34929,540;11,87578
 610,27; 4727,395;  700,687;35001,084;11,73954
 610,85; 4704,047;  718,844;35003,187;11,62397
 611,43; 4700,707;  717,537;34987,961;11,62276
 612,01; 4655,260;  684,304;34750,674;11,65653
 612,59; 4634,036;  672,460;34737,035;11,62961
 613,16; 4600,989;  644,224;34690,217;11,62182
 613,74; 4576,234;  620,153;34677,271;11,61602
 614,32; 4575,018;  581,846;34577,418;11,74615
 614,90; 4492,871;  533,613;34521,641;11,64898
 615,48; 4477,158;  481,379;34204,658;11,84873
 616,05; 4441,871;  456,916;34228,119;11,79986
 616,63; 4453,891;  469,069;34010,964;11,88013
 617,21; 4388,380;  462,072;33849,657;11,75978
 617,79; 4336,731;  441,765;33792,598;11,67877
 618,36; 4354,853;  445,766;33676,601;11,76343
 618,94; 4270,274;  385,302;33551,233;11,71374
 619,52; 4240,455;  405,916;33249,711;11,67508
 620,10; 4262,811;  393,841;33235,799;11,78057
 620,67; 4218,015;  413,146;33193,170;11,60728
 621,25; 4206,704;  421,151;33002,568;11,61875
 621,83; 4202,213;  406,225;32912,046;11,67787
 622,41; 4231,516;  450,071;32859,540;11,66772
 622,98; 4185,273;  415,300;32663,673;11,69043
 623,56; 4156,369;  418,299;32733,532;11,56752
 624,14; 4166,438;  395,998;32622,603;11,69977
 624,72; 4117,996;  382,686;32516,489;11,62424
 625,29; 4100,340;  382,069;32529,661;11,56625
 625,87; 4175,608;  417,765;32515,376;11,70755
 626,45; 4121,123;  372,914;32343,321;11,72400
 627,02; 4092,430;  383,381;32318,396;11,61437
 627,60; 4059,971;  359,538;32308,045;11,58249
 628,18; 4095,424;  351,841;32275,815;11,72656
 628,76; 4059,418;  361,377;32234,196;11,60249
 629,33; 4091,421;  382,840;32184,576;11,66157
 629,91; 4097,657;  362,688;32279,184;11,70232
 630,49; 4120,560;  388,070;32417,596;11,65328
 631,06; 4132,041;  381,454;32548,609;11,65968
 631,64; 4143,730;  374,453;32413,461;11,76465
 632,22; 4109,202;  339,990;32414,294;11,75150
 632,79; 4147,634;  371,913;32640,346;11,70097
 633,37; 4188,201;  346,150;32776,778;11,84698
 633,95; 4169,627;  342,145;32761,252;11,80626
 634,52; 4170,224;  344,686;32872,044;11,76099
 635,10; 4221,833;  345,072;32898,950;11,90875
 635,68; 4256,064;  340,913;33024,645;11,97890
 636,25; 4202,364;  328,219;33057,515;11,83694
 636,83; 4252,264;  319,454;33308,812;11,92145
 637,41; 4269,818;  339,528;33312,742;11,91965
 637,98; 4284,628;  356,989;33467,304;11,86228
 638,56; 4310,023;  345,911;33589,662;11,92438
 639,13; 4317,822;  336,838;33647,671;11,95102
 639,71; 4366,505;  368,070;33756,978;11,97534
 640,29; 4295,593;  300,377;33598,392;11,99836
 640,86; 4325,916;  324,762;33698,719;11,98885
 641,44; 4366,470;  321,070;33764,584;12,09622
 642,02; 4423,870;  343,454;33797,372;12,19712
 642,59; 4388,963;  330,070;33899,160;12,09116
 643,17; 4408,055;  307,455;33825,564;12,23399
 643,74; 4390,763;  332,147;33897,121;12,09182
 644,32; 4433,779;  350,224;33794,602;12,20999
 644,89; 4448,102;  339,455;33886,236;12,24751
 645,47; 4484,425;  364,301;33822,870;12,31411
 646,05; 4462,825;  338,917;33844,120;12,30826
 646,62; 4440,764;  333,532;33775,754;12,28157
 647,20; 4487,625;  340,609;33996,004;12,32200
 647,77; 4455,179;  309,686;33826,177;12,36852
 648,35; 4422,810;  300,148;33744,657;12,32687
 648,92; 4474,979;  332,917;33742,599;12,39779
 649,50; 4460,303;  299,763;33743,079;12,44057
 650,08; 4443,010;  313,379;33643,868;12,38995
 650,65; 4507,488;  308,148;33873,117;12,51108
 651,23; 4580,657;  287,533;34500,213;12,54834
 651,80; 4745,903;  284,225;35347,924;12,72449
 652,38; 4816,688;  304,918;35719,482;12,73987
 652,95; 4847,473;  285,379;36081,193;12,74477
 653,53; 4901,411;  321,149;36346,443;12,71402
 654,10; 4988,273;  336,841;36454,538;12,87854
 654,68; 4944,750;  300,611;36378,250;12,87263
 655,25; 4973,765;  289,918;36456,422;12,95079
 655,83; 4985,012;  296,688;36537,364;12,93663
 656,40; 5023,950;  332,534;36506,845;12,96892
 656,98; 4998,581;  292,457;36424,171;13,02491
 657,55; 5005,904;  309,842;36363,652;13,02515
 658,13; 4954,535;  295,842;35883,286;13,09083
 658,70; 4957,551;  318,227;35800,074;13,07520
 659,28; 4888,028;  303,304;34942,170;13,23578
 659,85; 4759,582;  323,381;34232,958;13,08244
 660,43; 4776,520;  322,458;34213,516;13,14229
 661,00; 4758,305;  302,304;34383,073;13,07483
 661,58; 4828,013;  295,073;34619,630;13,20611
 662,15; 4858,028;  296,996;34827,265;13,20879
 662,73; 4964,582;  355,997;35099,514;13,26459
 663,30; 4976,982;  313,227;35312,764;13,32519
 663,88; 4999,844;  305,766;35433,783;13,36278
 664,45; 5015,859;  299,920;35638,648;13,34496
 665,03; 5112,567;  297,382;35915,513;13,51892
 665,60; 5250,275;  374,151;36403,609;13,53371
 666,17; 5191,367;  312,920;36516,166;13,47517
 666,75; 5307,383;  298,997;36774,339;13,73088
 667,32; 5347,014;  329,074;37023,204;13,67505
 667,90; 5392,029;  312,921;37335,146;13,71908
 668,47; 5417,122;  323,382;37535,934;13,68823
 669,05; 5477,983;  314,075;37830,722;13,76431
 669,62; 5465,999;  291,152;37968,895;13,73449
 670,19; 5525,091;  275,767;37959,837;13,92982
 670,77; 5592,876;  303,767;38223,317;13,94824
 671,34; 5601,507;  295,152;38101,336;14,03568
 671,92; 5675,061;  290,229;38389,586;14,13366
 672,49; 5693,769;  308,614;38431,759;14,12568
 673,06; 5717,476;  266,229;38504,701;14,25592
 673,64; 5708,261;  280,537;38489,643;14,20532
 674,21; 5722,200;  282,614;38387,662;14,27524
 674,79; 5811,831;  309,153;38620,988;14,36287
 675,36; 5848,077;  315,230;38708,699;14,41091
 675,93; 5845,938;  283,537;38668,257;14,49119
 676,51; 5910,569;  308,768;38746,045;14,57388
 677,08; 5923,200;  299,307;38908,910;14,56605
 677,65; 5904,523;  307,845;38928,621;14,49137
 678,23; 6030,077;  305,922;39173,179;14,72745
 678,80; 6025,862;  291,153;39328,351;14,69037
 679,38; 6069,570;  295,153;39473,293;14,73887
 679,95; 6146,970;  304,769;39654,620;14,84682
 680,52; 6202,524;  296,000;39890,716;14,91746
 681,10; 6315,539;  304,384;40293,888;15,03183
 681,67; 6361,170;  299,923;40502,215;15,07687
 682,24; 6398,263;  273,615;40588,849;15,19189
 682,82; 6481,586;  290,077;41102,484;15,17065
 683,39; 6587,217;  326,923;41358,964;15,25709
 683,96; 6597,463;  288,308;41611,983;15,26765
 684,54; 6694,940;  272,616;41813,848;15,46012
 685,11; 6801,186;  310,385;42132,482;15,52003
 685,68; 6823,894;  286,308;42546,424;15,46987
 686,25; 6882,602;  274,616;42635,059;15,59943
 686,83; 6938,387;  273,693;42791,462;15,67508
 687,40; 7027,787;  269,386;43071,789;15,78977
 687,97; 7137,341;  322,386;43388,808;15,82429
 688,55; 7108,587;  258,001;43466,903;15,85457
 689,12; 7162,295;  255,617;43682,692;15,90408
 689,69; 7236,618;  266,232;43795,787;16,01300
 690,26; 7286,634;  284,771;43954,499;16,03368
 690,84; 7359,034;  291,771;44189,364;16,09943
 691,41; 7357,203;  306,309;44136,844;16,08672
 691,98; 7474,757;  294,848;44588,478;16,20980
 692,56; 7481,157;  282,694;44574,882;16,25222
 693,13; 7523,480;  333,464;44633,593;16,23024
 693,70; 7644,880;  302,925;44812,381;16,49527
 694,27; 7656,434;  290,387;44812,708;16,54462
 694,84; 7671,604;  282,695;45005,957;16,52140
 695,42; 7733,542;  334,310;45101,899;16,52810
 695,99; 7781,327;  304,079;45276,918;16,62614
 696,56; 7774,573;  294,080;45164,014;16,67151
 697,13; 7910,050;  298,849;45467,264;16,85072
 697,71; 7924,604;  289,003;45588,129;16,85596
 698,28; 8006,235;  299,080;45841,302;16,92310
 698,85; 7999,097;  268,157;45908,628;16,93878
 699,42; 8078,420;  267,772;46123,263;17,03318
 699,99; 8145,512;  304,926;46237,128;17,06991
 700,57; 8126,143;  297,311;46230,070;17,04412
 701,14; 8224,313;  280,311;46376,935;17,23337
 701,71; 8280,867;  310,850;46638,800;17,20347
 702,28; 8327,574;  294,465;46572,511;17,35836
 702,85; 8405,667;  307,081;46653,376;17,47407
 703,43; 8477,682;  312,312;46872,549;17,53722
 704,00; 8544,236;  327,004;47096,568;17,56961
 704,57; 8531,713;  299,312;46970,971;17,63897
 705,14; 8663,190;  332,004;47369,682;17,71173
 705,71; 8714,821;  342,081;47427,471;17,78203
 706,28; 8692,144;  310,850;47394,874;17,80072
 706,86; 8812,621;  346,620;47531,354;17,94225
 707,43; 8891,560;  359,235;47444,912;18,12085
 708,00; 8900,191;  328,005;47556,777;18,15035
 708,57; 8899,899;  301,389;47422,488;18,24768
 709,14; 8946,529;  327,236;47655,815;18,21161
 709,71; 9014,007;  312,543;47744,449;18,34517
 710,28; 9087,637;  313,082;47915,314;18,43308
 710,86; 9116,576;  309,928;48020,871;18,45834
 711,43; 9245,284;  333,313;47975,352;18,70611
 712,00; 9245,068;  316,467;48120,755;18,67741
 712,57; 9327,546;  337,390;48233,544;18,77010
 713,14; 9347,869;  314,698;48374,639;18,79563
 713,71; 9352,192;  315,159;48244,197;18,85503
 714,28; 9432,977;  300,544;48378,754;18,99495
 714,85; 9425,915;  293,775;48046,850;19,12367
 715,42; 9508,700;  293,237;48317,407;19,18922
 716,00; 9605,331;  360,237;48414,042;19,23905
 716,57; 9566,192;  297,468;48484,291;19,23498
 717,14; 9612,900;  281,929;48384,541;19,39805
 717,71; 9661,685;  280,006;48454,637;19,47431
 718,28; 9788,239;  325,699;48556,348;19,61935
 718,85; 9791,101;  276,468;48492,059;19,73352
 719,42; 9843,116;  296,776;48717,617;19,71535
 719,99; 9789,132;  283,776;48509,020;19,71033
 720,56; 9926,070;  310,391;48748,654;19,85141
 721,13; 9923,086;  287,392;48823,981;19,85243
 721,70;10035,640;  277,546;48758,615;20,12764
 722,27;10038,732;  304,546;48775,019;20,08271
 722,84;10178,132;  345,238;48931,961;20,23782
 723,41;10092,378;  276,546;48967,826;20,15932
 723,98;10212,317;  299,546;49080,229;20,32110
 724,55;10234,871;  310,315;49232,402;20,28645
 725,12;10284,040;  247,623;49144,498;20,52568
 725,69;10400,979;  285,239;49277,517;20,64762
 726,27;10412,994;  293,623;49382,690;20,61431
 726,84;10553,241;  298,854;49718,401;20,74966
 727,41;10619,487;  308,316;49661,189;20,89275
 727,98;10704,964;  311,162;49958,900;20,93510
 728,55;10753,056;  330,162;49853,381;21,04648
 729,12;10786,456;  273,239;49989,169;21,14658
 729,69;10874,164;  317,624;50136,957;21,18965
 730,26;10976,872;  309,778;50348,822;21,31754
 730,82;10999,580;  297,163;50277,456;21,41327
 731,39;11033,518;  291,317;50285,167;21,48705
 731,96;11121,457;  280,624;50571,802;21,55613
 732,53;11213,472;  306,240;50841,744;21,58331
 733,10;11273,949;  306,548;51018,993;21,62665
 733,67;11426,580;  314,317;51184,551;21,84433
 734,24;11331,980;  290,855;50785,416;21,86597
 734,81;11387,304;  325,702;50886,742;21,87772
 735,38;11438,704;  301,702;50707,223;22,09481
 735,95;11431,719;  299,625;50561,780;22,14806
 736,52;11441,273;  302,548;50796,491;22,05953
 737,09;11354,827;  307,548;50411,818;22,04858
 737,66;11568,458;  349,241;50647,221;22,30550
 738,23;11584,935;  293,395;50711,779;22,39568
 738,80;11720,489;  357,318;50979,490;22,44702
 739,37;11751,966;  321,395;51168,278;22,48038
 739,94;11836,443;  306,933;51266,605;22,62477
 740,51;11912,459;  399,395;51176,162;22,67388
 741,07;11904,089;  294,395;51149,489;22,82897
 741,64;11974,259;  334,626;51368,123;22,80783
 742,21;12041,659;  297,857;51408,450;22,97724
 742,78;12080,521;  271,934;51195,776;23,18872
 743,35;12142,690;  295,780;51403,334;23,18035
 743,92;12263,782;  323,396;51518,122;23,32347
 744,49;12302,490;  309,011;51500,987;23,42844
 745,06;12345,583;  304,011;51481,621;23,52898
 745,63;12415,598;  277,242;51405,409;23,74103
 746,19;12441,460;  286,781;51513,813;23,72708
 746,76;12435,244;  295,704;51484,062;23,71543
 747,33;12557,568;  284,858;51445,158;23,98874
 747,90;12700,122;  316,319;51609,408;24,14322
 748,47;12741,060;  305,396;51598,427;24,24435
 749,04;12823,537;  308,550;51568,061;24,41496
 749,61;12835,937;  334,935;51465,465;24,44919
 750,17;12865,107;  313,166;51550,714;24,49754
 750,74;12876,584;  309,474;51508,964;24,54538
 751,31;12904,830;  288,551;51351,598;24,70726
 751,88;12898,461;  272,474;51405,848;24,69226
 752,45;13040,707;  296,782;51402,174;24,93656
 753,02;13046,030;  316,859;51215,040;25,00909
 753,58;13158,430;  293,628;51275,212;25,23421
 754,15;13160,369;  295,859;51399,462;25,17339
 754,72;13157,846;  281,551;51227,404;25,27447
 755,29;13182,400;  267,244;51119,192;25,39756
 755,86;13233,569;  295,475;51214,365;25,40922
 756,42;13337,816;  299,244;51097,845;25,66719
 756,99;13304,062;  253,090;50977,326;25,72926
 757,56;13335,077;  255,937;50970,498;25,78971
 758,13;13335,324;  227,860;50886,210;25,87424
 758,70;13404,877;  250,552;51004,921;25,91762
 759,26;13531,662;  236,322;51033,863;26,17320
 759,83;13559,293;  243,322;51053,266;26,20741
 760,40;13567,001;  226,322;51003,824;26,27282
 760,97;13605,786;  230,937;50898,227;26,39740
 761,53;13524,493;  218,322;50600,554;26,41044
 762,10;13604,586;  209,245;50629,650;26,56730
 762,67;13597,986;  252,861;50692,130;26,45781
 763,24;13526,463;  196,784;50153,149;26,68264
 763,80;13688,863;  237,938;50331,860;26,85141
 764,37;13722,648;  239,938;50257,571;26,95591
 764,94;13622,125;  226,246;49867,283;26,98549
 765,50;13661,140;  239,092;49944,378;27,00326
 766,07;13727,848;  271,015;49896,244;27,11692
 766,64;13677,941;  243,246;49654,262;27,18967
 767,21;13727,418;  259,323;49628,974;27,28011
 767,77;13703,818;  276,861;49478,685;27,28955
 768,34;13764,372;  280,554;49371,396;27,46707
 768,91;13772,003;  276,016;49330,569;27,51220
 769,47;13795,018;  284,016;49375,280;27,52221
 770,04;13815,264;  291,247;49143,068;27,68375
 770,61;13768,280;  262,939;48955,087;27,73618
 771,18;13828,141;  254,247;48914,106;27,89547
 771,74;13856,926;  278,401;48989,510;27,87562
 772,31;13948,403;  279,632;48733,913;28,20963
 772,88;13819,419;  249,016;48515,393;28,11564
 773,44;13848,588;  262,939;48387,566;28,23014
 774,01;13909,296;  279,324;48493,970;28,26936
 774,58;13901,157;  255,555;48151,681;28,48999
 775,14;13914,327;  254,709;48253,700;28,45814
 775,71;14016,035;  252,171;48216,026;28,69633
 776,27;14036,435;  310,709;48202,507;28,65987
 776,84;14118,912;  336,171;48305,833;28,73220
 777,41;14052,158;  278,248;47961,699;28,88614
 777,97;14067,635;  255,940;47678,179;29,12493
 778,54;14034,189;  276,171;47718,275;28,99959
 779,11;14072,589;  291,479;47758,217;29,03319
 779,67;14078,682;  243,941;47711,928;29,14541
 780,24;14108,312;  272,941;47509,101;29,28979
 780,80;14202,097;  290,864;47501,120;29,46655
 781,37;14170,343;  271,787;47502,908;29,42669
 781,94;14177,359;  271,787;47295,234;29,57157
 782,50;14165,451;  274,556;47226,407;29,58540
 783,07;14275,082;  296,326;47330,118;29,72067
 783,63;14257,405;  264,557;47086,214;29,88542
 784,20;14271,575;  291,018;46959,925;29,95690
 784,77;14223,359;  274,095;46781,483;29,99365
 785,33;14259,836;  255,711;46631,425;30,19711
 785,90;14318,775;  268,096;46723,828;30,24531
 786,46;14293,483;  288,019;46535,616;30,28366
 787,03;14263,498;  253,173;46280,712;30,43901
 787,59;14278,360;  265,173;46207,885;30,50144
 788,16;14361,760;  267,942;46151,442;30,71653
 788,73;14347,006;  285,327;46032,461;30,73784
 789,29;14309,945;  268,096;45727,865;30,88852
 789,86;14332,499;  278,865;45739,038;30,91417
 790,42;14346,130;  282,173;45568,979;31,05531
 790,99;14302,453;  280,481;45233,691;31,19237
 791,55;14346,315;  262,789;45164,325;31,36535
 792,12;14331,484;  289,712;45206,575;31,26169
 792,68;14341,269;  276,174;44950,517;31,48361
 793,25;14321,976;  284,174;44732,536;31,58227
 793,81;14364,838;  335,405;44415,016;31,82749
 794,38;14248,777;  240,559;44239,343;31,83774
 794,94;14245,023;  261,097;44125,977;31,87955
 795,51;14242,346;  283,790;43907,688;31,99750
 796,07;14199,592;  276,328;43538,322;32,18359
 796,64;14309,608;  290,328;43800,957;32,22036
 797,20;14235,854;  272,713;43289,052;32,46009
 797,77;14131,024;  250,098;42932,994;32,52105
 798,33;14082,808;  276,329;42779,475;32,48343
 798,90;14148,131;  288,867;42734,417;32,65187
 799,46;14067,455;  264,252;42403,820;32,75592
 800,03;14069,316;  262,944;42239,455;32,89071
 800,59;14080,255;  286,406;42102,243;32,98714
 801,15;14042,193;  281,868;41835,031;33,11499
 801,72;13993,594;  273,714;41555,819;33,23445
 802,28;13941,147;  298,945;41222,607;33,33573
 802,85;13856,548;  271,176;41168,088;33,21858
 803,41;13882,178;  266,714;40968,260;33,45196
 803,98;13800,348;  253,483;40590,125;33,58451
 804,54;13774,133;  272,484;40381,606;33,66229
 805,11;13810,302;  278,484;40151,856;33,93698
 805,67;13823,856;  302,945;40103,798;33,97141
 806,23;13731,487;  276,792;39698,893;34,12983
 806,80;13712,656;  300,099;39595,989;34,13221
 807,36;13651,056;  298,946;39503,777;34,05731
 807,93;13722,687;  303,176;39394,796;34,32836
 808,49;13520,087;  254,561;38991,661;34,24502
 809,05;13553,795;  251,561;38746,373;34,55591
 809,62;13579,734;  283,254;38788,853;34,53129
 810,18;13574,057;  287,792;38594,257;34,68413
 810,74;13508,380;  255,869;38356,814;34,78263
 811,31;13493,703;  253,869;38185,756;34,90423
 811,87;13443,949;  270,331;38124,082;34,80135
 812,44;13519,657;  298,639;38078,563;34,99483
 813,00;13447,519;  227,100;37743,736;35,23882
 813,56;13577,611;  273,947;37907,216;35,35081
 814,13;13557,704;  256,485;37684,620;35,53802
 814,69;13500,565;  270,716;37579,331;35,46057
 815,25;13410,273;  241,332;37159,965;35,67018
 815,82;13466,289;  279,639;37158,369;35,75679
 816,38;13472,227;  304,101;36982,772;35,90132
 816,94;13360,089;  247,947;36683,945;35,98678
 817,51;13359,643;  241,947;36475,502;36,20317
 818,07;13302,197;  250,563;36313,367;36,19140
 818,63;13248,751;  270,948;36059,232;36,26271
 819,20;13291,074;  259,025;36002,636;36,45980
 819,76;13170,474;  245,255;35733,655;36,42097
 820,32;13256,413;  279,640;35601,981;36,73814
 820,89;13191,659;  279,102;35421,385;36,74365
 821,45;13096,290;  247,717;35149,788;36,81321
 822,01;13043,459;  263,487;34907,961;36,88892
 822,57;13042,321;  281,102;34767,826;37,00328
 823,14;12980,105;  240,333;34556,691;37,12449
 823,70;12975,275;  249,102;34326,479;37,34493
 824,26;12917,290;  245,333;34234,729;37,28209
 824,82;12873,229;  280,179;34049,363;37,29154
 825,39;12812,937;  245,564;33819,844;37,43155
 825,95;12878,260;  273,641;33877,863;37,50903
 826,51;12827,814;  261,564;33513,651;37,79086
 827,08;12930,137;  293,949;33632,208;37,90296
 827,64;12823,537;  277,872;33386,227;37,89275
 828,20;12842,629;  254,103;33196,861;38,21333
 828,76;12857,953;  272,642;33139,265;38,29207
 829,32;12758,199;  286,026;32959,438;38,17224
 829,89;12728,599;  238,027;32840,687;38,31151
 830,45;12735,461;  265,719;32805,937;38,32101
 831,01;12787,938;  253,796;32630,264;38,71374
 831,57;12685,722;  260,950;32506,359;38,53191
 832,14;12721,430;  252,565;32522,378;38,63941
 832,70;12670,753;  247,489;32309,243;38,74793
 833,26;12643,307;  226,412;32221,032;38,80932
 833,82;12784,477;  251,873;32083,897;39,37105
 834,38;12779,800;  256,335;32210,608;39,19183
 834,95;12754,738;  233,258;31973,319;39,45008
 835,51;12760,754;  210,951;31919,569;39,57852
 836,07;12779,769;  253,797;31953,588;39,51437
 836,63;12796,093;  275,643;31927,607;39,55663
 837,19;12819,262;  250,182;31857,164;39,76678
 837,75;12669,277;  221,259;31542,567;39,74297
 838,32;12796,216;  264,182;31683,048;39,88697
 838,88;12782,385;  265,720;31676,298;39,84857
 839,44;12839,709;  255,644;31588,316;40,16276
 840,00;12784,493;  249,490;31425,489;40,20722
 840,56;12792,124;  244,259;31253,200;40,46531
 841,12;12781,678;  240,721;31220,065;40,48167
 841,68;12757,540;  218,798;30958,469;40,79010
 842,25;12751,248;  235,336;31083,949;40,57204
 842,81;12719,955;  221,875;30810,276;40,85889
 843,37;12710,586;  220,875;30856,987;40,76794
 843,93;12775,909;  232,029;30698,852;41,17226
 844,49;12772,386;  262,414;30842,179;40,90932
 845,05;12707,325;  210,799;30651,736;41,05171
 845,61;12811,110;  265,645;30777,678;41,11645
 846,17;12786,048;  236,568;30496,466;41,47232
 846,73;12768,295;  246,414;30422,408;41,49617
 847,29;12735,387;  230,260;30269,735;41,62898
 847,86;12731,403;  237,876;30236,446;41,64707
 848,42;12664,572;  235,953;30102,927;41,61325
 848,98;12708,510;  248,107;30056,945;41,80104
 849,54;12756,372;  230,338;30022,195;42,04516
 850,10;12763,003;  243,338;29921,522;42,18474
 850,66;12678,634;  231,338;29752,695;42,16370
 851,22;12700,034;  220,338;29685,560;42,35399
 851,78;12734,049;  267,646;29743,194;42,29405
 852,34;12710,296;  241,800;29509,213;42,60197
 852,90;12723,696;  227,492;29446,847;42,76687
 853,46;12627,096;  227,723;29214,251;42,77633
 854,02;12619,958;  249,185;29228,654;42,68806
 854,58;12602,127;  241,723;29006,827;42,97013
 855,14;12512,142;  227,185;28966,230;42,74657
 855,70;12458,543;  198,262;28718,172;42,98850
 856,26;12571,020;  247,801;28829,114;43,11635
 856,82;12474,881;  235,031;28605,133;43,14348
 857,38;12470,512;  265,032;28495,614;43,23496
 857,94;12432,912;  245,493;28417,017;43,26148
 858,50;12391,466;  250,032;28338,267;43,22605
 859,06;12446,251;  226,878;28103,978;43,83301
 859,62;12403,036;  247,724;28130,843;43,59380
 860,18;12374,051;  239,032;28049,170;43,63524
 860,74;12357,528;  208,340;27876,112;43,91097
 861,30;12321,851;  214,648;27653,977;44,12354
 861,86;12424,405;  275,725;27715,073;44,27467
 862,42;12357,190;  240,648;27517,707;44,42027
 862,98;12390,052;  263,417;27542,341;44,45423
 863,54;12373,067;  236,033;27343,283;44,77413
 864,10;12324,236;  234,494;27331,687;44,61622
 864,66;12282,329;  213,879;27118,782;44,85595
 865,22;12199,960;  232,110;27079,494;44,57734
 865,78;12251,437;  234,725;26994,743;44,90547
 866,34;12209,683;  228,187;26833,685;45,03391
 866,90;12172,852;  241,341;26807,243;44,91288
 867,45;12163,253;  244,880;26595,185;45,23049
 868,01;12117,653;  244,341;26394,204;45,40487
 868,57;12020,976;  237,957;26249,069;45,29994
 869,13;12013,222;  215,880;26126,088;45,53164
 869,69;12013,468;  241,726;26118,414;45,49169
 870,25;11952,868;  218,957;25974,664;45,55849
 870,81;11940,269;  228,572;25969,221;45,49884
 871,37;11920,438;  245,419;25871,009;45,56000
 871,93;11941,223;  248,880;25682,721;45,97160
 872,49;11842,854;  264,727;25491,893;45,89547
 873,04;11747,792;  222,111;25348,758;45,87035
 873,60;11768,500;  222,342;25272,777;46,09165
 874,16;11717,823;  245,650;25173,181;46,02210
 874,72;11736,054;  221,727;25105,027;46,27331
 875,28;11768,592;  243,727;25044,565;46,46966
 875,84;11739,669;  240,804;24918,412;46,59635
 876,40;11714,362;  229,573;24931,412;46,49366
 876,95;11788,208;  242,342;24891,258;46,84127
 877,51;11827,592;  263,650;24825,335;47,08123
 878,07;11920,362;  278,573;24851,719;47,37606
 878,63;11914,208;  231,881;24878,796;47,39874
 879,19;11916,054;  254,342;24867,950;47,37912
 879,75;11987,900;  229,419;24956,642;47,55278
 880,30;12021,746;  235,881;24889,335;47,80614
 880,86;12090,362;  271,881;25034,181;47,72772
 881,42;12120,669;  218,573;25074,181;47,88495
 881,98;12220,362;  256,804;25141,027;48,07688
 882,54;12217,977;  225,958;25146,412;48,12119
 883,09;12287,285;  241,188;25286,258;48,09768
 883,65;12359,669;  219,419;25362,181;48,28527
 884,21;12541,362;  263,496;25535,181;48,58349
 884,77;12585,746;  235,573;25585,950;48,71791
 885,32;12718,515;  236,727;25729,335;48,96238
 885,88;12769,515;  272,419;25771,488;49,01001
 886,44;12856,131;  239,881;25922,873;49,12298
 887,00;12867,362;  261,650;25852,565;49,25854
 887,56;12989,746;  236,650;26019,873;49,46277
 888,11;12998,054;  239,958;26002,796;49,52131
 888,67;13087,592;  271,265;26241,335;49,35038
 889,23;13187,362;  243,112;26145,488;49,97321
 889,79;13095,669;  228,727;26112,335;49,71078
 890,34;13158,977;  244,573;25986,642;50,16848
 890,90;13283,438;  300,035;26218,335;50,09358
 891,46;13236,669;  217,958;26037,104;50,42270
 892,01;13304,208;  259,496;26049,412;50,58067
 892,57;13282,208;  272,342;26020,565;50,52724
 893,13;13133,438;  246,650;25776,719;50,47690
 893,69;13123,131;  223,804;25697,873;50,63709
 894,24;13135,900;  241,265;25649,719;50,74939
 894,80;13161,208;  241,804;25554,565;51,03909
 895,36;13065,900;  247,727;25397,181;50,96800
 895,91;12991,977;  232,958;25253,796;50,99357
 896,47;13027,438;  254,650;25154,488;51,29667
 897,03;12933,746;  230,419;25040,181;51,20294
 897,58;12913,669;  254,265;24929,488;51,30411
 898,14;12888,208;  245,419;24805,873;51,47620
 898,70;12776,592;  212,804;24601,719;51,51434
 899,25;12798,438;  238,496;24590,796;51,57600
 899,81;12745,515;  244,881;24447,027;51,65093
 900,37;12666,131;  219,496;24229,027;51,84039
 900,92;12693,823;  241,188;24254,796;51,85658
 901,48;12653,669;  219,573;24116,258;52,03272
 902,03;12598,592;  219,727;23871,719;52,33752
 902,59;12592,977;  232,727;23853,796;52,32722
 903,15;12626,131;  245,265;23809,027;52,54197
 903,70;12485,977;  239,881;23473,719;52,70802
 904,26;12482,977;  233,112;23408,181;52,85795
 904,82;12478,054;  236,342;23407,950;52,83065
 905,37;12381,438;  247,804;23234,873;52,78461
 905,93;12331,900;  229,881;23086,950;52,94650
 906,48;12415,438;  240,650;23093,181;53,27545
 907,04;12415,515;  248,112;23024,335;53,42152
 907,60;12318,977;  233,035;22848,104;53,44199
 908,15;12331,977;  222,958;22672,412;53,93904
 908,71;12272,131;  258,419;22698,258;53,53742
 909,26;12255,438;  224,881;22501,796;54,00459
 909,82;12213,592;  254,265;22493,412;53,77602
 910,37;12242,515;  277,881;22386,027;54,11867
 910,93;12146,900;  228,727;22198,796;54,24732
 911,48;12131,131;  214,573;22115,642;54,41085
 912,04;12075,669;  229,496;22051,950;54,28433
 912,60;12154,054;  243,496;21990,719;54,76818
 913,15;12073,131;  235,342;21874,950;54,70427
 913,71;12062,362;  227,035;21640,181;55,27131
 914,26;12031,592;  212,112;21610,412;55,23561
 914,82;12084,438;  236,342;21583,181;55,50281
 915,37;12031,592;  221,573;21462,027;55,60154
 915,93;12048,823;  272,342;21413,258;55,70469
 916,48;11919,285;  219,188;21190,873;55,78997
 917,04;11907,669;  242,496;21185,565;55,69944
 917,59;11873,977;  253,342;21147,950;55,61547
 918,15;11682,669;  201,419;20903,719;55,45881
 918,70;11741,592;  228,496;20838,796;55,86089
 919,26;11737,515;  228,496;20751,181;56,07950
 919,81;11662,977;  212,727;20559,488;56,27554
 920,37;11658,131;  231,727;20512,950;56,33982
 920,92;11538,208;  242,804;20421,796;55,97606
 921,48;11492,977;  209,881;20279,873;56,21874
 922,03;11494,592;  210,573;20264,719;56,26776
 922,59;11445,054;  227,804;20154,412;56,29282
 923,14;11434,285;  227,112;20027,642;56,60037
 923,69;11420,823;  247,112;19924,565;56,78434
 924,25;11417,515;  243,342;19947,796;56,70887
 924,80;11233,054;  220,650;19736,104;56,42915
 925,36;11238,669;  223,112;19705,642;56,54069
 925,91;11287,823;  228,804;19547,335;57,24565
 926,47;11190,977;  208,188;19500,181;56,92926
 927,02;11241,977;  268,881;19422,719;57,28928
 927,57;11071,131;  221,650;19268,335;56,96257
 928,13;11102,054;  219,035;19187,181;57,37524
 928,68;11060,900;  216,881;19171,873;57,20930
 929,24;10965,362;  193,573;18956,181;57,41093
 929,79;10984,746;  215,496;18839,027;57,82604
 930,34;10940,362;  223,035;18777,488;57,76148
 930,90;10918,131;  220,958;18733,258;57,78414
 931,45;10966,362;  237,188;18704,796;58,09725
 932,01;10904,054;  237,804;18604,258;58,07463
 932,56;10871,823;  242,342;18426,335;58,45515
 933,11;10820,438;  248,804;18460,488;58,04864
 933,67;10751,438;  212,727;18240,258;58,45899
 934,22;10716,362;  228,419;18208,873;58,32969
 934,77;10689,669;  257,958;18076,335;58,54468
 935,33;10685,208;  232,035;17948,719;59,00186
 935,88;10603,054;  235,342;17888,950;58,72857
 936,43;10562,362;  219,265;17853,873;58,65226
 936,99;10578,669;  232,650;17785,719;58,94137
 937,54;10460,977;  206,035;17585,104;59,00743
 938,09;10475,438;  227,035;17601,565;58,98521
 938,65;10431,054;  232,188;17499,642;59,06410
 939,20;10386,592;  204,112;17404,488;59,19917
 939,75;10344,900;  209,188;17267,488;59,41806
 940,31;10306,054;  207,342;17111,181;59,74212
 940,86;10383,592;  227,573;17159,027;59,98315
 941,41;10350,285;  297,958;17040,488;60,04067
 941,96;10233,669;  206,804;16943,719;59,90868
 942,52;10222,900;  221,419;16860,258;60,10925
 943,07;10172,054;  207,265;16771,258;60,15934
 943,62;10207,362;  213,727;16700,258;60,61697
 944,18;10092,208;  210,804;16651,719;60,10252
 944,73;10106,515;  218,342;16579,719;60,43607
 945,28;10049,054;  192,881;16361,565;60,95841
 945,83;10061,746;  220,650;16426,181;60,72677
 946,39;10078,746;  213,804;16281,488;61,39617
 946,94;10112,823;  240,881;16218,796;61,78492
 947,49; 9991,669;  218,573;16132,027;61,41405
 948,04;10072,285;  257,881;16075,488;62,04733
 948,59;10017,054;  236,727;15972,488;62,15350
 949,15; 9957,977;  206,650;15893,488;62,16247
 949,70; 9905,208;  213,342;15800,950;62,17673
 950,25; 9881,592;  237,035;15759,873;62,13141
 950,80; 9796,900;  189,881;15703,181;61,92763
 951,36; 9752,438;  199,958;15601,258;62,02386
 951,91; 9776,131;  228,342;15542,873;62,34464
 952,46; 9668,592;  202,265;15409,719;62,24794
 953,01; 9746,131;  237,650;15412,104;62,66111
 953,56; 9695,438;  197,573;15242,719;63,12910
 954,11; 9753,515;  230,112;15221,642;63,52523
 954,67; 9693,208;  206,650;15153,719;63,46768
 955,22; 9598,438;  193,342;15033,719;63,37505
 955,77; 9620,823;  241,573;15066,873;63,26516
 956,32; 9609,362;  258,958;14908,719;63,82632
 956,87; 9450,362;  213,419;14765,258;63,47612
 957,42; 9472,208;  221,188;14795,642;63,47421
 957,98; 9451,592;  214,342;14672,488;63,88959
 958,53; 9487,054;  234,265;14663,181;64,12671
 959,08; 9445,977;  201,881;14547,104;64,44024
 959,63; 9422,285;  207,804;14474,181;64,58879
 960,18; 9451,900;  232,419;14434,488;64,91646
 960,73; 9451,362;  214,496;14359,258;65,30238
 961,28; 9368,515;  201,804;14329,796;64,88333
 961,83; 9428,208;  238,112;14196,565;65,83893
 962,39; 9358,900;  209,112;14137,258;65,69279
 962,94; 9257,438;  229,112;14077,104;65,19593
 963,49; 9154,515;  227,419;13949,104;65,05831
 964,04; 9171,362;  234,112;13925,335;65,27722
 964,59; 9087,131;  191,804;13798,719;65,37357
 965,14; 9131,131;  243,265;13801,488;65,55332
 965,69; 9062,746;  222,496;13690,181;65,64046
 966,24; 8962,208;  211,112;13623,488;65,24642
 966,79; 8979,900;  231,496;13524,258;65,81329
 967,34; 8851,669;  199,496;13412,104;65,48422
 967,89; 8890,285;  212,419;13317,258;66,21879
 968,44; 8865,746;  221,112;13282,565;66,18432
 968,99; 8828,285;  225,804;13275,719;65,91982
 969,55; 8788,054;  225,958;13148,950;66,25475
 970,10; 8758,285;  231,573;13099,950;66,26097
 970,65; 8772,746;  236,881;12999,642;66,88102
 971,20; 8677,823;  210,265;12905,027;66,70120
 971,75; 8587,669;  192,419;12743,719;66,88749
 972,30; 8559,977;  229,727;12757,796;66,49269
 972,85; 8544,823;  202,496;12631,719;67,11865
 973,40; 8451,208;  212,496;12491,796;67,09431
 973,95; 8413,438;  228,804;12465,796;66,88437
 974,50; 8415,285;  249,419;12374,950;67,34440
 975,05; 8317,285;  222,419;12307,950;66,97981
 975,60; 8297,285;  243,650;12237,181;67,14982
 976,15; 8226,823;  217,035;12218,873;66,73801
 976,70; 8197,131;  230,573;12122,873;66,98921
 977,25; 8186,669;  232,342;12038,104;67,37665
 977,80; 8126,515;  211,342;11892,104;67,76247
 978,35; 8007,131;  231,958;11735,873;67,58719
 978,89; 7990,362;  203,188;11688,642;67,80031
 979,44; 8002,823;  220,265;11636,719;68,16966
 979,99; 7829,362;  205,804;11508,873;67,44679
 980,54; 7868,669;  243,804;11431,104;68,15644
 981,09; 7831,438;  241,573;11321,642;68,50016
 981,64; 7727,208;  238,804;11206,642;68,27602
 982,19; 7741,823;  253,573;11203,412;68,38685
 982,74; 7631,131;  244,496;11080,719;68,16614
 983,29; 7559,669;  210,650;10954,258;68,40364
 983,84; 7506,823;  228,112;10888,565;68,27769
 984,39; 7572,515;  287,188;10869,104;68,84696
 984,94; 7426,438;  202,419;10718,565;68,69455
 985,49; 7397,592;  249,188;10677,642;68,54711
 986,03; 7358,746;  244,496;10605,258;68,66532
 986,58; 7304,054;  271,419;10455,104;69,05786
 987,13; 7210,131;  228,265;10394,642;68,67604
 987,68; 7169,592;  242,419;10296,027;68,90236
 988,23; 7158,977;  243,958;10255,027;69,07373
 988,78; 7070,362;  222,958;10075,873;69,49622
 989,33; 7039,746;  239,496; 9960,027;69,95760
 989,88; 7031,592;  259,265; 9965,873;69,77028
 990,42; 6926,208;  229,419; 9825,950;69,78343
 990,97; 6857,285;  223,804; 9701,181;69,99279
 991,52; 6849,131;  244,188; 9648,642;70,23207
 992,07; 6806,592;  258,650; 9567,796;70,33881
 992,62; 6670,669;  246,035; 9442,335;69,86108
 993,17; 6658,362;  242,265; 9361,873;70,35496
 993,71; 6621,900;  235,496; 9281,642;70,59806
 994,26; 6520,131;  215,342; 9151,412;70,55438
 994,81; 6507,285;  246,496; 9142,642;70,37641
 995,36; 6453,285;  227,112; 8950,719;71,37154
 995,91; 6394,285;  242,265; 8909,488;70,98028
 996,45; 6340,208;  236,419; 8820,719;71,10409
 997,00; 6253,131;  207,958; 8733,565;70,90607
 997,55; 6226,977;  240,035; 8674,950;70,97810
 998,10; 6134,746;  264,265; 8576,796;70,62206
 998,65; 6109,208;  231,342; 8531,488;70,81641
 999,19; 6074,592;  245,265; 8443,642;71,10343
 999,74; 6026,285;  267,804; 8278,027;71,88914
1000,29; 5980,054;  248,881; 8217,950;71,91772
1000,84; 5854,592;  230,573; 8101,873;71,44969
1001,38; 5828,669;  238,035; 8027,719;71,76972
1001,93; 5825,746;  255,342; 7980,873;72,10383
1002,48; 5706,669;  228,342; 7828,719;72,07967
1003,03; 5730,669;  239,727; 7789,488;72,73001
1003,57; 5622,362;  238,804; 7741,719;71,75288
1004,12; 5619,515;  260,496; 7623,565;72,78241
1004,67; 5524,669;  235,650; 7545,796;72,35176
1005,22; 5443,285;  217,035; 7401,719;72,74154
1005,76; 5356,438;  221,342; 7280,181;72,74704
1006,31; 5349,823;  241,188; 7239,719;72,99582
1006,86; 5252,362;  231,496; 7143,719;72,63749
1007,40; 5160,977;  208,419; 7036,181;72,53560
1007,95; 5142,669;  239,881; 6959,181;72,96576
1008,50; 5040,977;  235,496; 6838,719;72,77478
1009,04; 5005,131;  228,573; 6743,796;73,31380
1009,59; 4938,285;  241,958; 6638,719;73,41726
1010,14; 4864,900;  219,265; 6575,642;73,08620
1010,68; 4771,669;  240,804; 6468,258;72,75631
1011,23; 4710,900;  231,881; 6378,719;72,86704
1011,78; 4668,977;  241,265; 6307,719;72,98682
1012,32; 4611,515;  250,035; 6180,796;73,53998
1012,87; 4605,900;  255,496; 6195,642;73,23732
1013,42; 4503,823;  220,112; 6063,412;73,30980
1013,96; 4524,208;  251,265; 6070,027;73,43388
1014,51; 4424,285;  195,496; 5976,412;73,15085
1015,06; 4442,669;  198,958; 5961,950;73,63729
1015,60; 4514,977;  268,881; 6060,412;73,31561
1016,15; 4472,746;  228,188; 5950,104;74,18071
1016,69; 4504,208;  234,573; 5960,642;74,56484
1017,24; 4489,285;  209,035; 5988,950;74,05385
1017,79; 4543,592;  257,188; 6042,950;74,08539
1018,33; 4516,746;  224,650; 6075,642;73,35672
1018,88; 4570,669;  240,342; 6074,181;74,22775
1019,42; 4590,285;  226,958; 6056,950;74,84276
1019,97; 4580,592;  219,958; 6031,796;75,03021
1020,51; 4626,054;  253,265; 6133,027;74,37017
1021,06; 4610,669;  212,342; 6067,335;75,12097
1021,61; 4570,438;  205,650; 6056,642;74,59911
1022,15; 4583,054;  179,958; 5999,873;75,65567
1022,70; 4582,438;  222,265; 6018,027;75,23037
1023,24; 4525,746;  214,727; 5998,488;74,53660
1023,79; 4507,362;  230,804; 5954,565;74,71586
1024,33; 4512,362;  213,419; 5880,104;75,86345
1024,88; 4469,054;  233,188; 5819,104;75,83118
1025,42; 4435,823;  233,035; 5729,104;76,46899
1025,97; 4357,054;  216,188; 5628,796;76,50407
1026,51; 4252,438;  192,188; 5505,873;76,41120
1027,06; 4241,054;  218,112; 5490,258;76,30559
1027,60; 4164,823;  236,265; 5386,565;76,27823
1028,15; 4135,131;  224,265; 5324,796;76,67566
1028,69; 4042,823;  179,958; 5196,258;77,00627
1029,24; 4027,592;  221,573; 5164,258;77,00308
1029,78; 3964,438;  213,188; 5064,873;77,31850
1030,33; 3857,669;  191,035; 4969,642;76,73019
1030,87; 3895,438;  209,496; 4948,181;77,78408
1031,42; 3777,208;  197,496; 4831,258;77,25282
1031,96; 3778,823;  229,958; 4776,488;78,05656
1032,51; 3717,746;  210,804; 4713,642;77,88293
1033,05; 3694,285;  224,496; 4639,796;78,58557
1033,60; 3587,285;  189,419; 4530,565;78,27116
1034,14; 3546,592;  216,727; 4478,258;78,13778
1034,69; 3513,208;  211,958; 4464,258;77,63446
1035,23; 3455,823;  210,035; 4369,719;78,02968
1035,77; 3446,362;  216,265; 4330,412;78,51194
1036,32; 3398,746;  186,727; 4232,873;79,38466
1036,86; 3377,977;  217,419; 4206,642;79,22740
1037,41; 3310,208;  223,804; 4155,027;78,51002
1037,95; 3277,362;  192,188; 4067,027;79,62069
1038,50; 3226,977;  201,804; 4014,181;79,35136
1039,04; 3214,362;  226,650; 3986,565;79,46220
1039,58; 3174,285;  211,496; 3931,796;79,63843
1040,13; 3124,746;  217,342; 3890,181;79,15959
1040,67; 3135,977;  247,419; 3840,335;80,39593
1041,21; 3037,131;  244,419; 3791,412;78,73464
1041,76; 3032,592;  195,419; 3682,565;81,36089
1042,30; 2979,669;  213,727; 3667,104;80,09384
1042,85; 2938,515;  205,804; 3611,181;80,24696
1043,39; 2895,285;  210,958; 3527,796;80,93029
1043,93; 2901,669;  236,496; 3525,181;81,04070
1044,48; 2833,746;  216,881; 3458,412;80,72931
1045,02; 2786,515;  215,496; 3391,488;80,95168
1045,56; 2782,515;  236,881; 3390,719;80,71544
1046,11; 2753,515;  231,496; 3368,027;80,40792
1046,65; 2707,285;  228,265; 3293,565;80,87363
1047,19; 2657,669;  216,035; 3216,873;81,36508
1047,74; 2619,362;  192,804; 3173,104;81,41991
1048,28; 2579,285;  217,573; 3149,873;80,54127
1048,82; 2584,823;  246,342; 3112,488;81,58973
1049,37; 2522,823;  230,035; 3063,104;80,92949
1049,91; 2513,285;  211,188; 3040,335;81,37070
1050,45; 2479,362;  233,188; 2985,719;81,60392
1050,99; 2472,054;  229,650; 2956,181;82,24385
1051,54; 2398,669;  208,573; 2865,412;82,43242
1052,08; 2427,362;  247,265; 2883,258;82,70495
1052,62; 2398,900;  241,419; 2835,950;83,15495
1053,16; 2303,054;  208,342; 2762,873;81,99986
1053,71; 2294,669;  223,188; 2731,642;82,57998
1054,25; 2284,362;  237,419; 2712,796;82,69215
1054,79; 2260,515;  229,881; 2674,104;83,07894
1055,33; 2193,515;  201,265; 2603,258;82,94156
1055,88; 2203,900;  235,881; 2567,488;84,40610
1056,42; 2186,208;  243,881; 2579,873;83,14783
1056,96; 2154,977;  240,419; 2534,796;83,44565
1057,50; 2135,515;  227,958; 2505,258;83,76401
1058,05; 2075,362;  216,188; 2435,950;83,75553
1058,59; 2081,131;  249,881; 2436,719;83,73961
1059,13; 2006,900;  212,727; 2355,258;83,74083
1059,67; 2016,669;  228,112; 2348,950;84,33258
1060,21; 1980,515;  220,881; 2301,719;84,56373
1060,76; 1950,438;  239,727; 2287,027;83,55940
1061,30; 1941,977;  246,496; 2275,104;83,57854
1061,84; 1906,515;  233,496; 2224,027;84,04890
1062,38; 1865,054;  214,881; 2153,104;85,13845
1062,92; 1889,592;  263,496; 2191,719;84,33133
1063,46; 1825,746;  250,342; 2135,565;83,56591
1064,01; 1797,438;  221,958; 2084,335;84,59516
1064,55; 1804,900;  229,188; 2065,642;85,80186
1065,09; 1717,362;  200,573; 1974,412;85,50883
1065,63; 1765,669;  263,035; 2042,873;84,42534
1066,17; 1744,746;  255,112; 2012,258;84,77579
1066,71; 1717,977;  251,881; 1995,719;84,07293
1067,25; 1689,977;  235,650; 1933,488;85,65756
1067,80; 1685,592;  238,804; 1928,412;85,62866
1068,34; 1677,438;  260,958; 1935,027;84,61303
1068,88; 1612,900;  224,573; 1857,412;85,02537
1069,42; 1640,285;  257,804; 1866,565;85,93447
1069,96; 1571,823;  230,035; 1806,258;85,12681
1070,50; 1593,438;  262,265; 1830,412;84,88833
1071,04; 1524,669;  226,958; 1775,258;83,81525
1071,58; 1528,592;  228,265; 1753,027;85,28067
1072,12; 1514,515;  235,188; 1738,873;85,07947
1072,66; 1485,900;  221,188; 1709,181;84,99449
1073,21; 1506,285;  244,112; 1729,104;84,99526
1073,75; 1466,977;  234,958; 1680,950;85,20234
1074,29; 1468,208;  241,958; 1645,027;87,39768
1074,83; 1444,592;  245,650; 1676,181;83,81101
1075,37; 1425,438;  246,573; 1652,642;83,84120
1075,91; 1418,285;  249,881; 1618,181;85,39091
1076,45; 1397,515;  237,573; 1606,104;84,75822
1076,99; 1374,285;  247,035; 1562,719;85,67783
1077,53; 1357,362;  228,650; 1542,719;85,89437
1078,07; 1355,900;  238,727; 1527,412;86,69096
1078,61; 1328,669;  244,112; 1495,950;86,63719
1079,15; 1307,438;  237,265; 1484,488;85,80446
1079,69; 1297,054;  226,496; 1473,258;85,86708
1080,23; 1302,592;  253,265; 1479,181;85,59538
1080,77; 1313,592;  272,804; 1493,796;85,24120
1081,31; 1234,131;  226,881; 1429,104;83,78229
1081,85; 1251,208;  249,727; 1421,565;85,46236
1082,39; 1225,823;  228,188; 1389,335;85,91809
1082,93; 1236,900;  255,804; 1379,181;87,33455
1083,47; 1186,208;  233,342; 1353,104;85,09538
1084,01; 1197,285;  249,112; 1369,565;84,62402
1084,55; 1173,438;  234,419; 1334,258;85,37792
1085,09; 1167,900;  255,881; 1343,181;83,87926
1085,63; 1141,285;  241,650; 1310,412;84,17543
1086,17; 1134,669;  226,804; 1293,258;85,12936
1086,71; 1105,131;  226,958; 1264,642;84,62813
1087,24; 1139,746;  261,650; 1288,796;85,48892
1087,78; 1114,746;  244,573; 1253,488;86,24837
1088,32; 1060,208;  228,881; 1207,335;84,96333
1088,86; 1088,900;  261,881; 1225,181;85,85272
1089,40; 1066,362;  241,265; 1206,873;85,44838
1089,94; 1033,054;  213,650; 1198,565;83,19535
1090,48; 1030,438;  257,419; 1166,488;85,03414
1091,02; 1046,285;  250,958; 1173,335;86,22580
1091,56; 1013,208;  244,112; 1148,335;85,05602
1092,10;  978,592;  218,881; 1127,412;83,61979
1092,63; 1017,438;  260,188; 1146,104;85,47656
1093,17; 1011,131;  251,188; 1109,258;88,56422
1093,71;  967,438;  232,650; 1096,719;85,03815
1094,25;  975,054;  258,496; 1117,104;83,45577
1094,79;  960,823;  233,112; 1085,181;85,40521
1095,33;  954,285;  235,958; 1056,488;87,54418
1095,87;  936,131;  243,573; 1068,873;83,91587
1096,40;  918,746;  226,188; 1029,258;86,23885
1096,94;  915,438;  235,342; 1011,335;87,64213
1097,48;  913,438;  247,804; 1025,796;85,55799
1098,02;  891,900;  228,573; 1004,258;85,51503
1098,56;  859,285;  208,958;  970,258;85,42321
1099,10;  868,669;  214,650;  962,873;87,40966
1099,63;  865,362;  216,881;  949,488;88,51678
1100,17;  870,977;  241,650;  972,565;86,10120
1100,71;  881,362;  265,496;  968,565;87,59669

