
Integration time [ms]: 120,000
Averaging Nr. [scans]: 13
Smoothing Nr. [pixels]: 0
Data measured with spectrometer [name]: 2009305U1
Wave   ;Sample   ;Dark     ;Reference;Reflectance
[nm]   ;[counts] ;[counts] ;[counts] ;[%]

 175,72;  186,734;  194,016;  198,267;-171,33659
 176,32;  217,586;  226,157;  216,647; 0,00000
 176,92;  249,995;  238,935;  251,493;88,06864
 177,52;  255,266;  246,706;  249,485;308,00927
 178,12;  221,974;  225,696;  211,489; 0,00000
 178,72;  261,841;  254,154;  243,669; 0,00000
 179,32;  238,033;  244,772;  234,759; 0,00000
 179,92;  237,549;  235,854;  246,678;15,65983
 180,52;  243,055;  237,177;  248,539;51,73010
 181,12;  253,913;  252,394;  240,739; 0,00000
 181,73;  269,041;  264,010;  267,931;128,29784
 182,33;  341,150;  334,018;  330,471; 0,00000
 182,93;  259,824;  255,706;  267,242;35,69869
 183,53;  233,608;  235,536;  221,113; 0,00000
 184,13;  228,567;  232,923;  221,621; 0,00000
 184,73;  265,322;  267,843;  262,387; 0,00000
 185,33;  243,413;  228,381;  335,444;14,04028
 185,93;  254,380;  231,526;  338,041;21,45609
 186,53;  263,574;  233,454;  343,456;27,38121
 187,13;  293,683;  276,002;  395,370;14,81194
 187,73;  243,334;  221,989;  349,861;16,69307
 188,33;  262,929;  229,906;  347,126;28,17164
 188,93;  267,417;  234,351;  348,686;28,91994
 189,53;  269,384;  247,108;  354,168;20,80724
 190,13;  300,364;  273,933;  374,647;26,24327
 190,73;  236,596;  220,563;  332,411;14,33520
 191,34;  276,742;  249,269;  370,360;22,68731
 191,94;  256,164;  232,209;  334,632;23,38842
 192,54;  272,268;  246,625;  373,182;20,26145
 193,14;  288,843;  247,463;  380,421;31,12281
 193,74;  264,053;  251,538;  354,109;12,20097
 194,34;  279,715;  237,081;  364,421;33,48040
 194,94;  230,555;  214,386;  334,255;13,48905
 195,54;  214,249;  186,766;  302,244;23,79911
 196,14;  246,404;  217,698;  337,876;23,88568
 196,74;  238,685;  216,072;  339,398;18,33634
 197,34;  216,278;  191,166;  319,141;19,62304
 197,94;  242,461;  219,003;  355,312;17,21003
 198,54;  245,620;  226,698;  370,296;13,17692
 199,14;  240,047;  204,785;  349,871;24,30439
 199,74;  218,335;  195,477;  352,499;14,55728
 200,34;  215,122;  194,478;  364,662;12,13002
 200,94;  247,790;  227,780;  401,651;11,50891
 201,54;  225,055;  211,168;  409,027; 7,01860
 202,14;  257,430;  228,020;  445,267;13,53779
 202,74;  242,331;  206,784;  430,504;15,88906
 203,34;  223,534;  180,332;  460,976;15,39404
 203,94;  205,256;  157,097;  443,482;16,81589
 204,54;  271,705;  238,696;  524,864;11,53508
 205,14;  249,879;  184,631;  528,676;18,96499
 205,74;  284,342;  235,947;  625,105;12,43599
 206,34;  248,281;  200,558;  633,521;11,02255
 206,94;  261,668;  216,172;  681,653; 9,77408
 207,54;  237,431;  175,019;  706,448;11,74424
 208,14;  260,665;  194,405;  786,262;11,19529
 208,74;  269,029;  198,707;  850,911;10,78213
 209,34;  274,710;  193,016;  926,530;11,13728
 209,94;  284,580;  211,477; 1018,464; 9,05879
 210,54;  287,908;  200,175; 1119,325; 9,54494
 211,14;  301,081;  199,246; 1195,824;10,21846
 211,73;  309,349;  202,859; 1308,936; 9,62771
 212,33;  333,425;  228,010; 1385,870; 9,10430
 212,93;  321,837;  199,322; 1484,041; 9,53631
 213,53;  314,240;  182,784; 1508,231; 9,91784
 214,13;  333,505;  192,335; 1591,162;10,09202
 214,73;  324,661;  175,635; 1652,036;10,09386
 215,33;  319,119;  162,554; 1647,310;10,54481
 215,93;  357,814;  191,254; 1778,613;10,49292
 216,53;  334,016;  157,245; 1830,051;10,56731
 217,13;  399,412;  209,945; 2007,450;10,54058
 217,73;  395,160;  192,485; 2195,407;10,11896
 218,33;  392,801;  142,721; 2358,703;11,28530
 218,93;  452,440;  183,884; 2658,291;10,85331
 219,53;  497,397;  183,798; 2911,716;11,49591
 220,13;  497,672;  161,031; 3188,857;11,11827
 220,73;  555,695;  169,939; 3498,565;11,58905
 221,32;  601,721;  179,476; 3870,065;11,44112
 221,92;  658,947;  182,184; 4242,702;11,74145
 222,52;  672,241;  169,024; 4632,479;11,27415
 223,12;  737,874;  179,948; 5040,131;11,47954
 223,72;  800,316;  197,102; 5405,605;11,58135
 224,32;  848,210;  184,948; 5758,340;11,90050
 224,92;  882,258;  172,871; 6080,719;12,00753
 225,52;  936,880;  198,249; 6384,050;11,94074
 226,12;  963,110;  184,022; 6702,011;11,95289
 226,72;  973,356;  165,713; 7040,311;11,74822
 227,31; 1017,558;  148,713; 7377,228;12,01969
 227,91; 1100,732;  192,094; 7774,024;11,98426
 228,51; 1119,924;  172,319; 8110,251;11,93767
 229,11; 1186,121;  182,867; 8430,008;12,16488
 229,71; 1229,366;  177,707; 8750,561;12,26732
 230,31; 1248,764;  157,643; 9124,783;12,16800
 230,91; 1276,298;  153,162; 9402,398;12,14302
 231,51; 1327,746;  152,177; 9623,785;12,41151
 232,10; 1364,445;  165,567; 9967,863;12,23058
 232,70; 1422,945;  173,696;10107,805;12,57535
 233,30; 1462,411;  199,023;10320,499;12,48226
 233,90; 1489,075;  173,715;10449,877;12,80011
 234,50; 1503,578;  171,177;10556,051;12,83021
 235,10; 1517,489;  176,948;10582,796;12,88257
 235,70; 1543,199;  183,325;10561,047;13,10378
 236,29; 1553,515;  181,784;10476,230;13,32496
 236,89; 1512,360;  154,394;10414,098;13,23592
 237,49; 1548,865;  182,791;10362,277;13,41987
 238,09; 1528,358;  173,173;10106,136;13,64331
 238,69; 1538,922;  212,160; 9870,119;13,73750
 239,29; 1463,687;  165,480; 9572,305;13,80069
 239,89; 1420,696;  179,394; 9271,258;13,65289
 240,48; 1398,330;  175,635; 8914,130;13,99205
 241,08; 1355,793;  166,941; 8528,801;14,21756
 241,68; 1311,257;  185,789; 8233,433;13,98506
 242,28; 1268,023;  161,022; 7956,965;14,19970
 242,88; 1273,024;  202,027; 7661,559;14,35742
 243,48; 1230,500;  206,791; 7450,034;14,13330
 244,07; 1186,011;  176,248; 7171,325;14,43534
 244,67; 1197,318;  188,097; 7040,979;14,72695
 245,27; 1173,811;  194,167; 6927,013;14,55022
 245,87; 1183,506;  201,103; 6823,343;14,83490
 246,47; 1171,455;  178,475; 6792,096;15,01417
 247,06; 1169,518;  178,711; 6809,648;14,94220
 247,66; 1175,636;  176,943; 6913,025;14,82602
 248,26; 1227,958;  199,552; 7018,347;15,08193
 248,86; 1282,185;  187,706; 7166,505;15,68291
 249,46; 1273,766;  143,177; 7325,157;15,74202
 250,05; 1374,907;  195,711; 7674,797;15,76658
 250,65; 1403,524;  163,858; 7987,567;15,84498
 251,25; 1482,462;  168,710; 8386,741;15,98622
 251,85; 1576,192;  191,240; 8915,056;15,87553
 252,44; 1673,923;  138,938; 9486,521;16,42120
 253,04; 1833,311;  185,401;10157,258;16,52561
 253,64; 1890,684;  154,165;10769,848;16,35805
 254,24; 2134,619;  190,634;11616,401;17,01404
 254,84; 2221,381;  176,023;12433,388;16,68677
 255,43; 2404,975;  180,400;13328,971;16,91876
 256,03; 2605,241;  177,319;14249,578;17,25324
 256,63; 2754,485;  179,394;15180,015;17,16657
 257,23; 2909,999;  159,163;15961,696;17,40756
 257,82; 3135,068;  176,005;16868,821;17,72657
 258,42; 3227,182;  137,464;17584,779;17,70885
 259,02; 3429,931;  193,554;18413,358;17,76296
 259,62; 3558,829;  164,155;19025,149;17,99838
 260,21; 3711,707;  174,784;19565,639;18,24016
 260,81; 3821,226;  174,252;19944,294;18,44697
 261,41; 3873,502;  160,235;20445,689;18,30507
 262,01; 4003,702;  213,538;20784,984;18,42439
 262,60; 4059,460;  158,779;21100,311;18,62653
 263,20; 4138,277;  167,782;21451,036;18,65549
 263,80; 4188,707;  196,692;21575,238;18,67300
 264,40; 4214,066;  159,154;21771,584;18,76194
 264,99; 4276,843;  183,614;21893,662;18,85407
 265,59; 4338,939;  160,069;22045,776;19,09406
 266,19; 4306,303;  160,615;22172,327;18,83401
 266,78; 4406,659;  210,073;22403,129;18,90946
 267,38; 4366,369;  182,071;22251,484;18,95972
 267,98; 4378,005;  168,227;22358,384;18,97138
 268,58; 4393,879;  185,686;22349,093;18,98712
 269,17; 4359,728;  171,373;22393,495;18,84768
 269,77; 4371,074;  187,469;22212,525;18,99475
 270,37; 4295,232;  155,152;22158,993;18,81526
 270,96; 4312,362;  214,620;21936,702;18,86440
 271,56; 4210,841;  182,624;21851,701;18,58970
 272,16; 4182,729;  171,696;21634,693;18,68813
 272,75; 4164,320;  177,158;21476,144;18,71996
 273,35; 4148,702;  180,467;21428,935;18,67539
 273,95; 4109,839;  176,158;21482,387;18,46258
 274,54; 4104,220;  170,173;21529,513;18,41839
 275,14; 4184,187;  200,391;21777,456;18,46311
 275,74; 4146,464;  158,465;21845,972;18,38846
 276,33; 4230,185;  205,007;22249,862;18,25903
 276,93; 4265,497;  184,943;22533,451;18,25873
 277,53; 4372,957;  185,245;22997,011;18,35768
 278,12; 4409,089;  157,318;23436,402;18,26434
 278,72; 4538,463;  211,322;24043,856;18,15644
 279,32; 4595,045;  172,937;24503,393;18,17520
 279,91; 4711,846;  152,858;25141,301;18,24438
 280,51; 4818,442;  171,477;25586,379;18,28441
 281,11; 4956,432;  172,781;26278,141;18,32440
 281,70; 5056,203;  157,704;26684,399;18,46630
 282,30; 5183,995;  158,471;27180,624;18,59779
 282,90; 5266,567;  172,240;27550,499;18,60720
 283,49; 5380,683;  186,160;28171,024;18,56190
 284,09; 5518,905;  207,472;28480,445;18,78626
 284,69; 5581,714;  196,167;28751,025;18,86035
 285,28; 5717,156;  188,626;29083,510;19,13325
 285,88; 5822,378;  221,542;29272,953;19,27905
 286,47; 5851,741;  179,778;29369,487;19,43138
 287,07; 5938,142;  200,244;29381,227;19,66314
 287,67; 6047,192;  193,406;29596,650;19,90864
 288,26; 6108,056;  180,321;29512,516;20,20897
 288,86; 6244,795;  165,319;29423,339;20,77884
 289,46; 6387,422;  189,551;29655,248;21,03419
 290,05; 6568,559;  164,479;29711,574;21,67414
 290,65; 6668,742;  181,162;29850,899;21,86598
 291,24; 6901,881;  184,706;30074,731;22,47297
 291,84; 7048,100;  197,086;30074,476;22,93043
 292,44; 7234,575;  181,945;30175,468;23,51384
 293,03; 7436,944;  250,860;30338,844;23,88357
 293,63; 7534,846;  173,932;30367,108;24,37940
 294,22; 7679,293;  194,704;30670,721;24,55895
 294,82; 7758,474;  175,539;30491,182;25,01327
 295,41; 7779,587;  162,165;30314,476;25,26315
 296,01; 7818,302;  212,311;30256,904;25,31568
 296,61; 7822,656;  187,014;30090,293;25,53446
 297,20; 7802,720;  191,388;29613,290;25,86961
 297,80; 7840,052;  180,788;29524,548;26,10185
 298,39; 7704,346;  165,778;29048,210;26,10087
 298,99; 7738,544;  195,236;28994,632;26,19259
 299,58; 7634,261;  195,559;28767,351;26,03513
 300,18; 7589,072;  203,710;28728,179;25,89132
 300,78; 7486,927;  175,785;28270,208;26,02347
 301,37; 7473,974;  191,536;28271,246;25,93488
 301,97; 7465,547;  189,628;28233,781;25,94451
 302,56; 7405,198;  184,085;28193,799;25,78074
 303,16; 7359,522;  165,161;28142,435;25,71502
 303,75; 7337,075;  179,939;28195,465;25,54703
 304,35; 7367,572;  165,870;28372,308;25,53212
 304,94; 7345,340;  177,320;28346,456;25,44636
 305,54; 7304,183;  200,707;28295,834;25,28366
 306,13; 7190,009;  150,717;28177,759;25,11607
 306,73; 7106,763;  168,637;28015,267;24,91550
 307,33; 7069,741;  192,867;27894,927;24,82441
 307,92; 7101,126;  186,168;28003,542;24,85842
 308,52; 7151,085;  174,160;28435,907;24,68682
 309,11; 7187,025;  176,925;28825,322;24,46943
 309,71; 7208,024;  158,000;29031,487;24,41695
 310,30; 7215,689;  165,629;29297,707;24,20034
 310,90; 7296,843;  191,937;29506,168;24,23706
 311,49; 7231,378;  190,552;29639,711;23,90841
 312,09; 7147,640;  151,941;29777,570;23,61367
 312,68; 7301,009;  229,477;30155,616;23,62995
 313,28; 7242,511;  162,322;30280,158;23,50829
 313,87; 7194,036;  148,321;30362,682;23,31909
 314,47; 7222,657;  171,773;30539,485;23,21836
 315,06; 7151,198;  163,553;30730,596;22,86006
 315,66; 7140,101;  165,326;30933,108;22,66909
 316,25; 7027,065;  155,700;30843,122;22,39147
 316,85; 7024,096;  142,095;30900,547;22,37434
 317,44; 7034,860;  164,157;30920,199;22,33936
 318,04; 6902,519;  150,701;30948,582;21,92299
 318,63; 6876,239;  150,560;31009,231;21,79510
 319,22; 6866,670;  181,085;31128,461;21,60308
 319,82; 6823,454;  173,703;31166,491;21,45580
 320,41; 6752,491;  180,700;31047,604;21,29074
 321,01; 6692,117;  187,709;31067,639;21,06354
 321,60; 6682,401;  179,011;31138,090;21,00641
 322,20; 6587,150;  171,091;31096,371;20,74697
 322,79; 6541,136;  200,399;31101,022;20,51977
 323,39; 6497,958;  168,024;31143,105;20,43557
 323,98; 6385,029;  162,630;31071,988;20,13112
 324,58; 6375,792;  161,545;30955,256;20,18025
 325,17; 6314,026;  165,315;30876,532;20,02106
 325,76; 6217,104;  192,090;30626,894;19,79646
 326,36; 6093,689;  146,786;30249,053;19,75566
 326,95; 5992,684;  199,703;30079,233;19,38779
 327,55; 5903,830;  165,164;29661,473;19,45554
 328,14; 5821,854;  165,635;29298,781;19,41506
 328,74; 5734,756;  195,393;28936,172;19,27353
 329,33; 5591,372;  189,709;28612,650;19,00459
 329,92; 5476,587;  164,772;28090,229;19,02141
 330,52; 5341,690;  181,097;27502,657;18,88835
 331,11; 5218,107;  167,242;27149,516;18,71920
 331,71; 5084,999;  176,089;26568,301;18,59984
 332,30; 5010,186;  189,167;26159,379;18,56365
 332,89; 4931,060;  211,401;25682,347;18,52958
 333,49; 4794,083;  180,242;25259,428;18,39709
 334,08; 4687,584;  171,933;24847,508;18,30008
 334,68; 4604,627;  171,703;24464,248;18,24809
 335,27; 4547,034;  200,329;24167,500;18,13608
 335,86; 4507,569;  214,780;23887,131;18,13419
 336,46; 4425,673;  185,713;23687,330;18,04114
 337,05; 4338,079;  164,857;23535,356;17,85679
 337,65; 4317,257;  152,318;23339,982;17,96187
 338,24; 4349,832;  214,630;23349,941;17,87398
 338,83; 4334,149;  195,707;23239,574;17,95897
 339,43; 4261,319;  165,315;23119,490;17,84427
 340,02; 4257,320;  165,238;23086,210;17,85301
 340,61; 4288,645;  166,553;23109,401;17,96679
 341,21; 4284,525;  204,316;23124,556;17,80177
 341,80; 4274,171;  173,779;23072,579;17,90658
 342,40; 4307,391;  180,635;23192,984;17,93279
 342,99; 4296,599;  174,478;23301,885;17,82353
 343,58; 4337,526;  176,555;23396,188;17,92005
 344,18; 4370,789;  181,171;23564,497;17,91712
 344,77; 4414,970;  163,391;23760,547;18,01733
 345,36; 4480,145;  156,165;23997,002;18,13686
 345,96; 4572,478;  193,478;24323,425;18,14757
 346,55; 4594,827;  174,870;24541,473;18,13941
 347,14; 4696,050;  164,097;24816,185;18,38365
 347,74; 4740,756;  149,645;25215,293;18,31635
 348,33; 4921,839;  172,952;25725,574;18,58473
 348,92; 5054,544;  168,187;26236,165;18,74467
 349,52; 5101,172;  150,416;26665,190;18,67169
 350,11; 5204,552;  167,698;26798,699;18,91350
 350,70; 5227,295;  169,629;26971,122;18,87083
 351,29; 5228,785;  164,227;26756,507;19,04522
 351,89; 5293,164;  190,771;26758,435;19,20527
 352,48; 5302,636;  155,706;26740,151;19,36068
 353,07; 5327,197;  180,252;26654,365;19,44143
 353,67; 5377,899;  188,495;26653,593;19,60848
 354,26; 5348,448;  182,789;26417,304;19,69032
 354,85; 5391,370;  189,864;26333,671;19,89575
 355,45; 5342,417;  164,625;26162,264;19,91640
 356,04; 5377,307;  167,022;26096,674;20,09393
 356,63; 5457,092;  206,858;25873,678;20,45534
 357,22; 5430,420;  175,845;25784,330;20,51888
 357,82; 5433,619;  176,385;25606,010;20,67366
 358,41; 5485,989;  197,243;25509,331;20,89415
 359,00; 5476,487;  169,777;25303,608;21,11381
 359,60; 5515,510;  190,630;25273,591;21,22907
 360,19; 5537,474;  177,253;25107,227;21,50111
 360,78; 5552,305;  173,010;24988,284;21,67736
 361,37; 5566,363;  169,549;24824,373;21,88948
 361,97; 5561,894;  176,474;24712,602;21,94894
 362,56; 5543,019;  167,775;24473,645;22,11500
 363,15; 5579,330;  209,779;24230,295;22,35402
 363,74; 5554,575;  176,619;23925,616;22,64498
 364,34; 5537,108;  218,084;23637,401;22,71212
 364,93; 5479,265;  158,390;23295,638;22,99701
 365,52; 5446,261;  151,703;22980,901;23,19205
 366,11; 5434,348;  177,777;22762,342;23,27506
 366,71; 5420,131;  156,085;22347,615;23,72097
 367,30; 5416,809;  172,703;22020,688;24,00270
 367,89; 5455,606;  207,403;21896,694;24,19721
 368,48; 5411,844;  191,466;21630,102;24,35033
 369,07; 5356,448;  186,937;21210,122;24,58957
 369,67; 5322,564;  199,236;20945,927;24,69467
 370,26; 5290,871;  177,014;20796,993;24,80049
 370,85; 5281,862;  188,549;20526,859;25,04295
 371,44; 5267,885;  178,781;20325,584;25,26011
 372,03; 5248,507;  160,623;20078,904;25,54379
 372,63; 5246,602;  153,550;19802,671;25,92000
 373,22; 5218,598;  172,244;19568,588;26,01704
 373,81; 5126,617;  150,703;19307,510;25,97465
 374,40; 5169,791;  157,789;19109,514;26,44615
 374,99; 5133,566;  172,548;18855,933;26,55310
 375,59; 5157,758;  152,249;18550,282;27,20676
 376,18; 5178,541;  193,702;18529,307;27,18666
 376,77; 5164,980;  189,782;18381,159;27,34921
 377,36; 5183,204;  199,472;18307,965;27,52151
 377,95; 5158,785;  191,777;18115,408;27,71206
 378,55; 5128,347;  165,171;17889,177;28,00256
 379,14; 5157,189;  181,011;17802,693;28,23895
 379,73; 5205,900;  179,162;17734,202;28,63415
 380,32; 5246,370;  172,012;17772,336;28,83105
 380,91; 5245,694;  166,158;17734,252;28,91341
 381,50; 5291,615;  185,775;17649,350;29,23708
 382,10; 5286,293;  163,551;17514,413;29,52442
 382,69; 5300,916;  148,087;17523,953;29,65509
 383,28; 5392,488;  198,391;17482,559;30,05118
 383,87; 5346,537;  167,238;17348,630;30,14482
 384,46; 5370,902;  163,462;17312,538;30,36571
 385,05; 5439,062;  196,929;17364,616;30,53488
 385,64; 5460,117;  180,469;17232,112;30,96269
 386,24; 5439,941;  154,308;17292,513;30,84123
 386,83; 5527,360;  190,923;17296,878;31,19637
 387,42; 5594,540;  192,777;17418,059;31,35950
 388,01; 5672,263;  176,994;17540,296;31,64875
 388,60; 5814,328;  185,771;17804,327;31,94676
 389,19; 5843,557;  165,680;18007,486;31,82344
 389,78; 6009,074;  172,681;18212,904;32,35211
 390,37; 6167,190;  226,075;18573,896;32,38050
 390,96; 6242,225;  180,154;18681,453;32,76565
 391,56; 6276,671;  178,062;18887,598;32,59626
 392,15; 6396,630;  162,837;19059,836;32,98827
 392,74; 6483,234;  148,668;19202,823;33,24506
 393,33; 6638,908;  172,753;19503,187;33,45065
 393,92; 6830,063;  181,202;19883,083;33,74734
 394,51; 6892,269;  169,292;20011,204;33,88271
 395,10; 6970,262;  199,265;20272,439;33,73157
 395,69; 7020,384;  184,883;20368,503;33,86658
 396,28; 7077,039;  186,183;20409,402;34,07398
 396,87; 7140,150;  193,556;20514,607;34,18423
 397,46; 7226,350;  203,548;20594,018;34,44159
 398,06; 7331,890;  216,383;20832,672;34,51401
 398,65; 7375,168;  196,437;20820,681;34,80724
 399,24; 7433,286;  210,201;20967,877;34,79717
 399,83; 7448,640;  183,165;20975,755;34,94262
 400,42; 7553,488;  231,441;21159,672;34,98646
 401,01; 7632,695;  201,942;21137,831;35,49289
 401,60; 7614,749;  226,200;21243,809;35,15409
 402,19; 7635,094;  226,084;21134,168;35,43610
 402,78; 7727,267;  243,099;21211,188;35,69313
 403,37; 7628,814;  228,887;21046,612;35,54628
 403,96; 7631,339;  224,973;20955,218;35,72734
 404,55; 7640,198;  240,436;20828,171;35,94258
 405,14; 7581,863;  223,752;20823,224;35,71990
 405,73; 7583,859;  237,286;20711,590;35,88192
 406,32; 7636,968;  236,771;20609,267;36,32445
 406,91; 7540,744;  233,477;20331,531;36,35808
 407,50; 7514,948;  236,753;20204,597;36,44958
 408,09; 7425,709;  215,576;19951,023;36,53392
 408,68; 7425,321;  231,483;19858,319;36,65307
 409,27; 7371,957;  219,658;19648,148;36,81346
 409,86; 7362,991;  232,476;19606,705;36,80413
 410,45; 7411,413;  269,363;19497,367;37,14400
 411,04; 7405,150;  269,713;19441,251;37,21891
 411,63; 7324,367;  251,845;19233,304;37,26016
 412,22; 7243,731;  261,664;19040,355;37,18080
 412,81; 7197,738;  262,758;18838,412;37,33371
 413,40; 7102,674;  271,934;18516,931;37,43897
 413,99; 7033,185;  302,543;18283,772;37,43149
 414,58; 6855,836;  241,240;17956,653;37,33809
 415,17; 6847,949;  248,681;17730,424;37,74948
 415,76; 6850,773;  243,046;17565,309;38,14586
 416,35; 6736,103;  233,210;17376,897;37,93171
 416,94; 6752,814;  270,204;17403,521;37,83628
 417,53; 6933,192;  248,221;17617,641;38,48701
 418,12; 6928,074;  249,918;17709,215;38,24986
 418,71; 7093,029;  269,089;18020,436;38,44181
 419,30; 7076,942;  245,381;18128,604;38,20095
 419,89; 7181,960;  246,462;18275,833;38,46777
 420,48; 7327,562;  273,550;18536,259;38,62522
 421,07; 7362,152;  262,554;18635,979;38,64058
 421,66; 7376,592;  245,872;18599,106;38,85266
 422,25; 7366,490;  248,738;18588,151;38,81123
 422,84; 7387,705;  274,050;18623,966;38,76669
 423,43; 7283,636;  255,118;18366,275;38,80767
 424,02; 7232,149;  265,891;18118,995;39,01987
 424,60; 7016,430;  245,684;17696,050;38,80002
 425,19; 7034,367;  259,364;17541,960;39,20130
 425,78; 6964,077;  271,212;17430,354;39,00466
 426,37; 6906,222;  269,374;17318,583;38,92760
 426,96; 6919,433;  262,374;17229,903;39,23411
 427,55; 6852,470;  248,003;16979,032;39,47437
 428,14; 6777,937;  240,624;16887,698;39,27004
 428,73; 6720,988;  259,613;16722,066;39,24916
 429,32; 6749,883;  283,219;16678,378;39,44252
 429,91; 6765,189;  277,075;16697,955;39,51136
 430,50; 6708,356;  271,621;16565,612;39,50374
 431,08; 6658,033;  277,935;16481,262;39,37523
 431,67; 6651,504;  316,403;16388,231;39,41742
 432,26; 6554,461;  336,101;16236,211;39,10891
 432,85; 6488,627;  350,715;15970,928;39,29468
 433,44; 6329,252;  350,032;15582,963;39,25194
 434,03; 6233,036;  371,813;15326,675;39,19276
 434,62; 6065,852;  332,648;14898,740;39,35994
 435,21; 6032,126;  341,947;14752,617;39,48587
 435,79; 5972,063;  333,501;14642,599;39,40543
 436,38; 5915,438;  340,205;14529,174;39,29273
 436,97; 5936,892;  331,207;14450,326;39,70280
 437,56; 5788,701;  335,532;14316,769;39,00348
 438,15; 5775,006;  310,605;14250,839;39,19878
 438,74; 5801,426;  336,914;14269,116;39,22217
 439,33; 5819,281;  309,604;14259,069;39,49741
 439,91; 5826,129;  259,228;14252,421;39,78292
 440,50; 5901,003;  324,382;14376,630;39,68490
 441,09; 5890,650;  321,469;14425,313;39,48697
 441,68; 5868,273;  302,095;14404,985;39,46835
 442,27; 5908,881;  288,398;14400,571;39,82720
 442,86; 5826,279;  270,267;14432,168;39,23210
 443,44; 5864,844;  283,955;14449,553;39,39748
 444,03; 5973,730;  337,114;14457,891;39,91718
 444,62; 5871,716;  278,960;14405,388;39,59073
 445,21; 5804,778;  296,419;14215,896;39,57303
 445,80; 5801,436;  313,200;14205,691;39,50505
 446,39; 5722,146;  333,737;13923,431;39,65071
 446,97; 5625,538;  274,135;13673,064;39,93903
 447,56; 5535,272;  280,222;13607,766;39,42999
 448,15; 5448,235;  287,135;13423,010;39,29011
 448,74; 5427,882;  303,367;13256,600;39,56167
 449,33; 5350,284;  277,067;13063,790;39,67567
 449,91; 5284,501;  289,387;12956,112;39,43493
 450,50; 5191,034;  273,692;12708,561;39,54478
 451,09; 5176,262;  308,232;12626,505;39,51877
 451,68; 5153,519;  319,698;12538,802;39,55953
 452,26; 5102,890;  307,473;12513,893;39,28603
 452,85; 5080,871;  297,239;12375,559;39,60511
 453,44; 5042,259;  314,101;12339,263;39,31887
 454,03; 5042,519;  289,553;12356,434;39,38852
 454,61; 4994,157;  284,256;12352,456;39,02737
 455,20; 5112,480;  322,800;12534,322;39,22263
 455,79; 5074,360;  321,098;12473,747;39,11298
 456,38; 5141,250;  314,193;12538,031;39,48888
 456,97; 5168,634;  287,960;12593,734;39,66166
 457,55; 5116,955;  290,890;12646,468;39,05981
 458,14; 5124,959;  321,112;12601,551;39,11788
 458,73; 5092,544;  316,276;12555,121;39,02548
 459,31; 5132,568;  328,670;12602,094;39,14065
 459,90; 5164,105;  333,280;12681,577;39,12139
 460,49; 5224,220;  377,662;12779,332;39,07988
 461,08; 5181,334;  307,598;12787,769;39,05184
 461,66; 5178,193;  309,746;12851,601;38,81760
 462,25; 5219,034;  322,449;12934,798;38,82374
 462,84; 5254,077;  339,214;13025,192;38,74248
 463,43; 5185,233;  270,536;12964,110;38,71799
 464,01; 5188,033;  317,849;12969,199;38,49537
 464,60; 5199,595;  354,225;12963,089;38,42828
 465,19; 5113,553;  307,236;12696,355;38,79466
 465,77; 5076,232;  315,088;12706,291;38,42358
 466,36; 5050,632;  337,690;12626,536;38,35138
 466,95; 4913,495;  317,999;12317,699;38,29676
 467,53; 4808,203;  316,786;12076,005;38,19486
 468,12; 4725,908;  349,711;11800,376;38,21784
 468,71; 4635,940;  320,545;11638,399;38,12909
 469,29; 4531,108;  304,481;11411,007;38,05534
 469,88; 4466,562;  314,332;11190,840;38,17613
 470,47; 4530,803;  368,649;11311,183;38,03647
 471,06; 4453,192;  318,264;11269,640;37,75715
 471,64; 4501,590;  339,031;11381,077;37,69735
 472,23; 4501,345;  307,895;11389,888;37,84022
 472,81; 4512,234;  300,118;11454,457;37,76213
 473,40; 4548,075;  310,588;11570,912;37,63202
 473,99; 4683,796;  394,127;11722,072;37,86803
 474,57; 4634,917;  313,511;11830,455;37,52216
 475,16; 4691,683;  333,504;11988,048;37,39467
 475,75; 4735,700;  360,364;12053,266;37,41874
 476,33; 4784,458;  358,448;12143,527;37,55605
 476,92; 4775,746;  336,282;12233,177;37,31616
 477,51; 4771,578;  346,060;12288,921;37,05576
 478,09; 4795,943;  336,983;12296,626;37,28339
 478,68; 4752,232;  350,602;12265,550;36,94209
 479,27; 4742,074;  366,826;12314,527;36,62000
 479,85; 4728,089;  339,832;12270,750;36,78054
 480,44; 4767,670;  311,989;12370,221;36,95136
 481,02; 5197,035;  353,688;13546,184;36,71289
 481,61; 5877,698;  363,608;15373,035;36,73751
 482,20; 6236,260;  359,688;16391,699;36,65524
 482,78; 6486,162;  389,373;17143,513;36,38975
 483,37; 6616,317;  375,775;17616,393;36,19675
 483,95; 6726,536;  403,931;17817,830;36,30781
 484,54; 6775,031;  403,915;18031,150;36,14359
 485,13; 6693,908;  377,554;17942,141;35,96073
 485,71; 6640,696;  356,320;17707,985;36,21771
 486,30; 6607,599;  395,244;17470,382;36,38246
 486,88; 6455,966;  427,169;17188,181;35,96917
 487,47; 6247,564;  404,479;16523,825;36,24890
 488,05; 5955,467;  398,174;15793,414;36,09747
 488,64; 5555,253;  402,259;14602,913;36,28702
 489,23; 4958,392;  402,638;13046,970;36,03001
 489,81; 4230,556;  405,717;11169,236;35,53521
 490,40; 4008,967;  359,257;10617,494;35,57834
 490,98; 3914,588;  349,337;10352,325;35,64185
 491,57; 3897,477;  372,331;10274,576;35,59946
 492,15; 3860,297;  355,262;10215,180;35,54832
 492,74; 3805,221;  359,944;10224,499;34,92582
 493,32; 3766,079;  371,106;10091,359;34,92680
 493,91; 3741,152;  350,573;10008,160;35,10793
 494,50; 3727,641;  345,355; 9984,194;35,09018
 495,08; 3688,902;  339,124; 9921,920;34,95616
 495,67; 3687,947;  373,418; 9908,199;34,76251
 496,25; 3619,209;  307,579; 9783,508;34,94782
 496,84; 3610,222;  322,725; 9778,428;34,76734
 497,42; 3572,335;  309,967; 9753,414;34,54637
 498,01; 3569,676;  341,496; 9692,349;34,52284
 498,59; 3535,232;  300,891; 9639,375;34,63454
 499,18; 3493,872;  303,035; 9576,600;34,40787
 499,76; 3474,743;  329,656; 9544,177;34,13185
 500,35; 3394,612;  316,051; 9349,611;34,07916
 500,93; 3370,177;  311,274; 9328,418;33,92319
 501,52; 3299,007;  308,044; 9278,937;33,34074
 502,10; 3339,892;  320,364; 9198,737;34,00993
 502,69; 3261,712;  301,292; 9083,275;33,71016
 503,27; 3202,030;  290,740; 8903,958;33,80025
 503,86; 3188,710;  315,520; 8928,027;33,36067
 504,44; 3111,857;  280,371; 8765,323;33,37068
 505,03; 3004,179;  280,525; 8543,287;32,96300
 505,61; 2980,283;  293,446; 8460,277;32,89939
 506,19; 2943,819;  301,601; 8354,298;32,81159
 506,78; 2867,967;  277,996; 8146,110;32,91731
 507,36; 2808,950;  290,216; 8039,238;32,50389
 507,95; 2779,547;  287,923; 7904,092;32,71493
 508,53; 2723,804;  288,149; 7801,476;32,41780
 509,12; 2694,689;  298,152; 7639,413;32,64476
 509,70; 2627,484;  309,385; 7499,413;32,24046
 510,29; 2582,592;  320,775; 7422,887;31,84710
 510,87; 2493,391;  286,457; 7282,009;31,54768
 511,46; 2443,345;  288,536; 7131,801;31,48802
 512,04; 2392,784;  286,849; 7000,565;31,36765
 512,62; 2367,402;  289,613; 6849,890;31,67228
 513,21; 2289,057;  269,852; 6709,113;31,35771
 513,79; 2264,722;  285,713; 6605,997;31,31202
 514,38; 2205,653;  263,246; 6470,807;31,29098
 514,96; 2198,673;  306,861; 6418,514;30,95418
 515,54; 2135,231;  267,941; 6259,771;31,16393
 516,13; 2107,176;  287,096; 6174,034;30,91726
 516,71; 2063,421;  287,410; 6066,950;30,72929
 517,30; 2013,269;  278,569; 5982,774;30,41089
 517,88; 2016,063;  294,799; 5907,939;30,66489
 518,46; 1942,155;  269,725; 5812,969;30,17059
 519,05; 1932,657;  279,806; 5776,412;30,07039
 519,63; 1919,800;  284,804; 5713,223;30,11920
 520,22; 1894,748;  295,506; 5662,377;29,79841
 520,80; 1867,866;  281,045; 5631,012;29,66040
 521,38; 1871,223;  323,038; 5570,852;29,50153
 521,97; 1824,523;  282,049; 5587,148;29,07531
 522,55; 1818,173;  292,664; 5531,177;29,12102
 523,13; 1793,927;  266,437; 5513,097;29,11357
 523,72; 1779,410;  281,340; 5487,057;28,77740
 524,30; 1821,406;  299,595; 5630,249;28,54830
 524,89; 1797,181;  269,281; 5638,552;28,45637
 525,47; 1826,379;  295,597; 5717,567;28,23296
 526,05; 1800,724;  257,906; 5785,872;27,90933
 526,64; 1845,941;  291,293; 5865,358;27,89074
 527,22; 1843,692;  290,673; 5983,591;27,27984
 527,80; 1904,769;  317,600; 6074,014;27,57218
 528,39; 1872,244;  275,450; 6186,401;27,01417
 528,97; 1927,348;  285,832; 6304,237;27,27493
 529,55; 1935,956;  298,976; 6454,949;26,59173
 530,14; 1977,851;  314,452; 6646,449;26,26973
 530,72; 1994,021;  288,909; 6750,172;26,38975
 531,30; 1972,508;  272,607; 6821,469;25,95720
 531,89; 2012,402;  295,991; 6918,616;25,91738
 532,47; 2040,197;  315,070; 6991,386;25,83950
 533,05; 2030,788;  310,831; 7076,001;25,42371
 533,63; 2034,661;  317,687; 7083,892;25,37574
 534,22; 2028,243;  289,303; 7113,170;25,48321
 534,80; 2060,406;  321,617; 7164,524;25,41010
 535,38; 2133,670;  381,300; 7274,075;25,42329
 535,97; 2046,360;  303,071; 7215,635;25,21914
 536,55; 2074,693;  349,464; 7304,739;24,80461
 537,13; 2042,643;  360,145; 7257,740;24,39254
 537,71; 2077,140;  399,298; 7269,566;24,42179
 538,30; 2102,436;  420,382; 7394,827;24,11740
 538,88; 2113,522;  444,161; 7494,142;23,67894
 539,46; 2167,978;  510,924; 7627,784;23,28350
 540,05; 2172,295;  516,005; 7744,533;22,91324
 540,63; 2229,318;  551,544; 7924,208;22,75669
 541,21; 2255,783;  580,163; 8060,858;22,39926
 541,79; 2288,908;  620,701; 8148,005;22,16208
 542,38; 2310,791;  665,850; 8317,821;21,49696
 542,96; 2352,713;  669,476; 8402,244;21,76759
 543,54; 2387,063;  685,547; 8614,571;21,45934
 544,12; 2384,820;  668,549; 8691,701;21,39149
 544,70; 2388,654;  645,399; 8839,281;21,27508
 545,29; 2430,632;  645,696; 8928,105;21,55092
 545,87; 2411,908;  616,086; 8978,621;21,47462
 546,45; 2344,893;  586,619; 8996,447;20,90737
 547,03; 2377,017;  559,007; 9041,787;21,43178
 547,62; 2396,138;  525,856; 9173,439;21,62780
 548,20; 2418,147;  531,321; 9311,881;21,48867
 548,78; 2411,237;  498,565; 9347,719;21,61418
 549,36; 2419,143;  469,717; 9586,017;21,38395
 549,94; 2400,914;  414,088; 9682,479;21,43658
 550,53; 2449,084;  437,023; 9851,065;21,37297
 551,11; 2451,488;  415,106;10038,696;21,16032
 551,69; 2506,951;  419,717;10288,531;21,14980
 552,27; 2492,256;  378,097;10492,525;20,90241
 552,85; 2575,123;  385,336;10805,453;21,01499
 553,44; 2582,264;  383,563;11080,939;20,55365
 554,02; 2657,861;  389,411;11384,045;20,63234
 554,60; 2658,208;  335,030;11652,213;20,52788
 555,18; 2740,191;  375,102;11969,550;20,39846
 555,76; 2775,260;  347,642;12277,087;20,34980
 556,34; 2839,743;  366,573;12560,042;20,28275
 556,93; 2839,027;  344,564;12873,503;19,90961
 557,51; 2915,214;  324,112;13198,060;20,12671
 558,09; 2989,753;  355,718;13554,225;19,95707
 558,67; 3021,554;  353,423;13889,485;19,71128
 559,25; 3064,192;  354,036;14124,094;19,68151
 559,83; 3085,573;  347,196;14410,742;19,47146
 560,41; 3138,534;  340,418;14767,931;19,39431
 561,00; 3183,352;  351,808;14941,414;19,40795
 561,58; 3176,622;  339,109;15252,131;19,02708
 562,16; 3205,454;  334,029;15497,974;18,93587
 562,74; 3264,443;  309,411;15785,477;19,09420
 563,32; 3300,439;  318,657;16181,345;18,79745
 563,90; 3377,261;  329,270;16458,603;18,89719
 564,48; 3437,710;  343,031;16834,666;18,76514
 565,06; 3497,464;  334,653;17313,932;18,62747
 565,65; 3630,434;  336,894;17917,118;18,73434
 566,23; 3777,856;  388,039;18652,462;18,55967
 566,81; 3794,827;  335,805;19188,082;18,34803
 567,39; 3964,047;  348,659;20039,958;18,36033
 567,97; 4032,955;  368,191;20519,889;18,18588
 568,55; 4154,785;  370,118;21289,859;18,09137
 569,13; 4216,096;  344,501;21848,711;18,00390
 569,71; 4373,166;  342,106;22708,500;18,02284
 570,29; 4549,801;  379,102;23586,296;17,97158
 570,87; 4628,240;  373,797;24214,917;17,84498
 571,45; 4692,439;  363,654;24755,229;17,74705
 572,03; 4716,477;  328,737;25146,974;17,67950
 572,61; 4789,098;  340,580;25739,728;17,51444
 573,20; 4902,713;  352,727;26411,700;17,46034
 573,78; 4969,914;  337,042;26917,386;17,42969
 574,36; 5027,076;  355,809;27416,465;17,26221
 574,94; 5106,292;  405,046;27623,297;17,27240
 575,52; 5068,582;  361,670;27877,892;17,10595
 576,10; 5212,395;  412,051;28369,286;17,17031
 576,68; 5205,742;  398,506;28876,080;16,88078
 577,26; 5314,596;  413,366;29444,203;16,88284
 577,84; 5362,032;  425,118;29845,389;16,78065
 578,42; 5364,611;  463,664;30168,178;16,49900
 579,00; 5338,006;  415,811;30283,351;16,48008
 579,58; 5401,826;  466,277;30502,120;16,43220
 580,16; 5340,460;  425,511;30483,761;16,35141
 580,74; 5302,738;  432,512;30633,728;16,12593
 581,32; 5287,295;  427,432;30745,495;16,02960
 581,90; 5249,311;  438,819;30616,477;15,94058
 582,48; 5224,013;  445,050;30785,188;15,75129
 583,06; 5226,618;  436,739;30907,488;15,71960
 583,64; 5222,264;  436,431;30989,291;15,66411
 584,22; 5191,162;  452,364;30784,269;15,62315
 584,80; 5097,082;  449,664;30620,812;15,40352
 585,38; 5035,460;  461,573;30238,899;15,36030
 585,96; 4971,855;  434,197;30335,395;15,17550
 586,54; 4986,395;  450,670;30304,786;15,19296
 587,12; 4907,539;  420,821;30471,548;14,93048
 587,70; 4945,133;  457,275;30604,592;14,88643
 588,28; 4916,635;  442,513;30649,151;14,81172
 588,86; 4893,089;  449,361;30717,380;14,68127
 589,44; 4847,263;  432,754;30748,615;14,56171
 590,02; 4877,868;  420,367;30953,426;14,59893
 590,59; 4823,938;  409,747;31123,194;14,37218
 591,17; 4870,053;  404,455;31223,004;14,48997
 591,75; 4824,849;  393,142;31323,570;14,32799
 592,33; 4838,858;  417,678;31524,830;14,21274
 592,91; 4838,378;  373,453;31871,283;14,17534
 593,49; 4841,054;  385,688;32070,483;14,06153
 594,07; 4842,829;  397,380;32281,121;13,94268
 594,65; 4861,023;  409,055;32260,492;13,97729
 595,23; 4868,921;  389,829;32556,904;13,92446
 595,81; 4851,504;  383,061;32694,354;13,82935
 596,39; 4850,907;  377,831;32827,775;13,78454
 596,97; 4867,272;  368,299;32982,815;13,79439
 597,55; 4873,376;  369,134;32907,787;13,84274
 598,12; 4780,638;  359,998;32917,701;13,57786
 598,70; 4778,929;  363,147;33118,500;13,48110
 599,28; 4785,202;  377,685;33163,240;13,44347
 599,86; 4774,247;  371,762;33214,853;13,40460
 600,44; 4748,272;  339,764;33310,623;13,37092
 601,02; 4740,982;  388,389;33358,264;13,20173
 601,60; 4710,613;  370,142;33382,317;13,14809
 602,18; 4707,927;  346,459;33355,895;13,21279
 602,75; 4657,842;  349,445;33379,157;13,04400
 603,33; 4670,385;  360,301;33419,553;13,03745
 603,91; 4615,113;  344,847;33472,627;12,89029
 604,49; 4614,360;  368,840;33514,158;12,80881
 605,07; 4618,330;  368,603;33422,789;12,85685
 605,65; 4597,266;  387,226;33663,572;12,65175
 606,23; 4625,853;  445,977;33621,741;12,59919
 606,80; 4618,582;  472,830;33791,997;12,44255
 607,38; 4579,312;  512,154;33817,653;12,21167
 607,96; 4586,126;  579,599;33913,250;12,01947
 608,54; 4582,775;  628,072;33937,873;11,87249
 609,12; 4586,087;  641,599;33934,429;11,84786
 609,70; 4580,055;  668,377;33934,290;11,75882
 610,27; 4542,329;  663,367;33904,272;11,66924
 610,85; 4545,219;  686,838;34097,029;11,54852
 611,43; 4532,530;  685,531;34097,766;11,51374
 612,01; 4442,582;  655,372;33910,035;11,38851
 612,59; 4453,425;  657,992;33895,249;11,41921
 613,16; 4427,729;  608,056;33909,198;11,47009
 613,74; 4382,043;  600,455;33708,986;11,42180
 614,32; 4355,813;  561,688;33758,359;11,42923
 614,90; 4309,881;  504,297;33623,237;11,49066
 615,48; 4253,621;  466,211;33202,444;11,56947
 616,05; 4242,182;  442,517;33346,669;11,54768
 616,63; 4214,744;  439,053;33186,278;11,52980
 617,21; 4171,930;  441,598;33072,692;11,43183
 617,79; 4162,195;  432,216;33063,941;11,43053
 618,36; 4152,763;  425,219;32905,706;11,47626
 618,94; 4031,096;  377,674;32610,843;11,33435
 619,52; 4035,968;  405,054;32415,074;11,34306
 620,10; 4028,466;  389,446;32473,790;11,34204
 620,67; 4007,864;  384,899;32262,172;11,36535
 621,25; 3972,599;  409,911;32143,813;11,22676
 621,83; 3931,264;  385,981;32110,731;11,17513
 622,41; 3989,351;  432,212;32155,238;11,21311
 622,98; 3924,056;  397,360;31908,532;11,19189
 623,56; 3890,957;  392,359;31870,808;11,11426
 624,14; 3847,869;  380,298;31793,624;11,03854
 624,72; 3835,976;  373,135;31642,718;11,07415
 625,29; 3852,385;  355,052;31758,317;11,13685
 625,87; 3857,224;  399,370;31675,794;11,05579
 626,45; 3806,603;  360,204;31539,715;11,05341
 627,02; 3810,949;  364,832;31475,180;11,07708
 627,60; 3771,585;  351,379;31418,184;11,00920
 628,18; 3758,395;  325,522;31415,506;11,04173
 628,76; 3740,411;  336,746;31489,344;10,92578
 629,33; 3771,849;  354,518;31472,784;10,98175
 629,91; 3735,389;  355,292;31465,560;10,86489
 630,49; 3748,418;  365,747;31583,384;10,83577
 631,06; 3746,780;  359,131;31725,275;10,80034
 631,64; 3720,343;  359,974;31604,451;10,75508
 632,22; 3707,386;  317,048;31547,691;10,85581
 632,79; 3755,660;  343,663;31801,661;10,84620
 633,37; 3734,899;  329,141;31863,746;10,80006
 633,95; 3742,118;  335,819;31892,886;10,79409
 634,52; 3761,135;  321,520;32085,972;10,82850
 635,10; 3782,131;  327,214;32063,812;10,88622
 635,68; 3787,555;  329,663;32197,194;10,85083
 636,25; 3759,327;  311,504;32187,211;10,81646
 636,83; 3766,257;  300,592;32397,883;10,79738
 637,41; 3782,124;  320,277;32356,102;10,80617
 637,98; 3813,336;  338,584;32641,449;10,75679
 638,56; 3792,810;  334,810;32708,408;10,68154
 639,13; 3819,158;  306,821;32778,774;10,81652
 639,71; 3822,775;  365,054;32939,021;10,61498
 640,29; 3767,785;  284,208;32698,127;10,74716
 640,86; 3788,253;  303,208;32884,061;10,69660
 641,44; 3818,798;  311,670;32853,149;10,77741
 642,02; 3849,882;  331,670;32899,622;10,80268
 642,59; 3828,811;  300,594;32979,402;10,79665
 643,17; 3802,664;  301,363;33078,105;10,68227
 643,74; 3811,440;  306,517;33067,808;10,69837
 644,32; 3817,524;  337,056;32991,511;10,65848
 644,89; 3819,376;  321,672;32951,291;10,71942
 645,47; 3860,844;  341,672;32962,533;10,78810
 646,05; 3830,236;  323,672;32937,852;10,75165
 646,62; 3829,858;  310,980;32853,863;10,81305
 647,20; 3832,941;  328,673;32998,412;10,72634
 647,77; 3779,332;  293,827;32962,654;10,66921
 648,35; 3820,570;  292,212;32807,895;10,85125
 648,92; 3834,422;  325,597;32887,829;10,77575
 649,50; 3789,352;  284,982;32849,917;10,76118
 650,08; 3817,974;  287,905;32693,467;10,89341
 650,65; 3830,134;  296,059;32850,477;10,85590
 651,23; 3914,756;  278,136;33583,873;10,91890
 651,80; 4004,224;  276,906;34356,345;10,93715
 652,38; 4046,846;  297,598;34708,587;10,89550
 652,95; 4102,391;  267,599;35031,675;11,03091
 653,53; 4167,552;  302,291;35241,532;11,06281
 654,10; 4197,866;  330,984;35441,389;11,01349
 654,68; 4150,257;  286,138;35414,323;11,00005
 655,25; 4164,802;  283,292;35383,180;11,05847
 655,83; 4176,963;  280,831;35485,499;11,06709
 656,40; 4226,892;  309,062;35451,894;11,14831
 656,98; 4161,822;  298,677;35367,136;11,01601
 657,55; 4160,521;  292,678;35239,531;11,06779
 658,13; 4148,528;  278,447;34903,465;11,17712
 658,70; 4134,534;  286,370;34695,630;11,18351
 659,28; 4028,695;  285,371;33911,949;11,13204
 659,85; 3964,547;  308,602;33293,806;11,08359
 660,43; 3979,169;  318,371;33293,432;11,10172
 661,00; 3985,022;  292,064;33443,366;11,13971
 661,58; 4007,106;  288,833;33698,377;11,12937
 662,15; 4032,343;  260,449;33846,465;11,23055
 662,73; 4132,888;  335,757;34130,091;11,23600
 663,30; 4111,279;  286,680;34302,641;11,24354
 663,88; 4133,516;  303,219;34394,959;11,23527
 664,45; 4176,138;  281,219;34655,355;11,33096
 665,03; 4186,530;  297,143;34938,058;11,22773
 665,60; 4332,305;  362,912;35316,915;11,35605
 666,17; 4278,235;  288,374;35371,464;11,37260
 666,75; 4334,165;  287,913;35753,629;11,40891
 667,32; 4418,787;  325,374;35917,409;11,50092
 667,90; 4473,486;  291,221;36236,189;11,63519
 668,47; 4502,338;  309,298;36494,739;11,58764
 669,05; 4509,960;  284,683;36643,673;11,62100
 669,62; 4546,890;  272,991;36829,222;11,69130
 670,19; 4565,050;  267,453;36797,848;11,76444
 670,77; 4609,057;  295,607;37087,782;11,72382
 671,34; 4632,525;  290,222;36973,562;11,83726
 671,92; 4655,609;  281,223;37295,573;11,81808
 672,49; 4717,692;  308,992;37206,200;11,94860
 673,06; 4705,622;  253,454;37356,672;11,99941
 673,64; 4700,475;  270,916;37240,221;11,98172
 674,21; 4728,481;  280,762;37259,925;12,02764
 674,79; 4779,949;  293,378;37477,089;12,06596
 675,36; 4819,494;  296,070;37573,639;12,13444
 675,93; 4801,424;  268,071;37518,034;12,17009
 676,51; 4875,584;  295,763;37610,045;12,27364
 677,08; 4898,822;  294,610;37707,210;12,30658
 677,65; 4888,136;  296,071;37870,990;12,22109
 678,23; 4949,604;  295,149;38032,078;12,33395
 678,80; 4982,072;  273,687;38151,858;12,43034
 679,38; 4968,771;  272,380;38221,715;12,37542
 679,95; 5058,624;  302,534;38532,880;12,44061
 680,52; 5081,630;  288,457;38712,122;12,47453
 681,10; 5232,022;  297,458;39082,748;12,72277
 681,67; 5227,105;  303,843;39302,297;12,62425
 682,24; 5265,573;  264,458;39399,154;12,77924
 682,82; 5309,580;  285,458;39907,627;12,68008
 683,39; 5447,279;  322,382;40126,868;12,87517
 683,96; 5461,131;  294,074;40462,725;12,86341
 684,54; 5519,061;  262,305;40756,813;12,98140
 685,11; 5588,606;  290,998;40969,593;13,02309
 685,68; 5657,613;  274,844;41417,451;13,08320
 686,25; 5664,235;  257,460;41401,692;13,14103
 686,83; 5705,626;  267,076;41647,318;13,14287
 687,40; 5784,786;  247,845;41832,868;13,31475
 687,97; 5879,562;  295,538;42285,802;13,29838
 688,55; 5856,184;  252,000;42210,736;13,35642
 689,12; 5913,729;  245,846;42429,054;13,43635
 689,69; 6007,197;  257,077;42512,373;13,60805
 690,26; 6032,358;  277,923;42651,384;13,58028
 690,84; 6035,749;  276,385;42856,549;13,52593
 691,41; 6127,832;  284,693;42948,790;13,69568
 691,98; 6185,916;  293,617;43212,340;13,72897
 692,56; 6213,307;  270,232;43255,274;13,82591
 693,13; 6277,467;  329,463;43342,823;13,82827
 693,70; 6345,859;  303,925;43527,988;13,97817
 694,27; 6365,173;  277,387;43610,460;14,04882
 694,84; 6383,487;  274,233;43703,856;14,06702
 695,42; 6441,494;  314,387;43801,482;14,08948
 695,99; 6508,654;  294,465;44059,108;14,19911
 696,56; 6516,738;  278,926;43898,042;14,30064
 697,13; 6617,667;  290,004;44286,361;14,38224
 697,71; 6609,289;  271,465;44232,141;14,41703
 698,28; 6682,834;  269,927;44605,460;14,46449
 698,85; 6701,610;  246,158;44546,317;14,57207
 699,42; 6721,540;  250,774;44772,328;14,53401
 699,99; 6816,393;  302,005;44912,723;14,60274
 700,57; 6817,399;  292,313;44903,503;14,62657
 701,14; 6862,867;  277,928;45097,360;14,69215
 701,71; 6954,412;  305,006;45217,448;14,80527
 702,28; 6964,419;  280,544;45221,921;14,87243
 702,85; 7031,195;  293,391;45230,547;14,99384
 703,43; 7095,586;  298,314;45458,250;15,05155
 704,00; 7172,285;  328,007;45637,876;15,10549
 704,57; 7177,445;  291,007;45744,041;15,15067
 705,14; 7262,144;  323,007;45917,898;15,21911
 705,71; 7360,920;  323,623;45949,140;15,42404
 706,28; 7341,003;  298,700;45813,151;15,47268
 706,86; 7402,395;  324,316;46154,623;15,44410
 707,43; 7522,324;  331,162;46025,942;15,73738
 708,00; 7488,023;  316,547;46030,645;15,68767
 708,57; 7460,261;  294,701;45964,656;15,68988
 709,14; 7547,806;  322,317;46105,667;15,78191
 709,71; 7639,889;  306,471;46244,139;15,96384
 710,28; 7666,434;  305,702;46389,150;15,97262
 710,86; 7674,902;  304,625;46483,777;15,96018
 711,43; 7818,063;  333,626;46545,018;16,19609
 712,00; 7795,377;  309,395;46605,645;16,16974
 712,57; 7854,922;  312,780;46705,271;16,25725
 713,14; 7910,929;  290,549;46825,897;16,37546
 713,71; 7959,935;  302,627;46693,677;16,50600
 714,28; 8013,942;  305,088;46714,227;16,61064
 714,85; 8001,948;  283,704;46536,930;16,68693
 715,42; 8079,647;  294,935;46666,556;16,78766
 716,00; 8153,654;  343,243;46824,567;16,80333
 716,57; 8207,353;  282,013;46966,578;16,97636
 717,14; 8214,590;  282,628;46888,358;17,01928
 717,71; 8246,520;  263,705;46911,523;17,11294
 718,28; 8334,372;  309,398;47073,226;17,16064
 718,85; 8357,225;  273,475;47075,160;17,27235
 719,42; 8466,001;  290,475;47208,248;17,42522
 719,99; 8397,700;  279,476;47079,336;17,34668
 720,56; 8499,399;  289,168;47288,577;17,46879
 721,13; 8549,405;  279,553;47434,434;17,53764
 721,70; 8543,104;  278,015;47273,907;17,58683
 722,27; 8636,188;  299,708;47362,226;17,71363
 722,84; 8726,117;  332,477;47450,852;17,81394
 723,41; 8673,432;  266,862;47511,017;17,79388
 723,98; 8773,054;  277,862;47626,643;17,94173
 724,55; 8870,522;  309,632;47778,961;18,03457
 725,12; 8850,451;  248,709;47638,972;18,15086
 725,69; 8947,381;  269,171;47829,368;18,24679
 726,27; 9016,849;  280,709;47931,225;18,33378
 726,84; 9108,010;  288,248;48220,390;18,40052
 727,41; 9142,247;  306,787;48192,247;18,45124
 727,98; 9262,715;  300,249;48419,104;18,62568
 728,55; 9320,645;  322,403;48349,884;18,73561
 729,12; 9334,267;  271,326;48485,587;18,79722
 729,69; 9365,427;  300,096;48563,060;18,78320
 730,26; 9415,434;  315,788;48860,609;18,74483
 730,82; 9483,363;  295,942;48770,851;18,95294
 731,39; 9538,601;  279,096;48816,785;19,07694
 731,96; 9610,761;  273,174;49038,949;19,14783
 732,53; 9663,614;  298,789;49305,037;19,10945
 733,10; 9741,620;  301,328;49358,894;19,24330
 733,67; 9867,550;  308,405;49612,674;19,38807
 734,24; 9785,634;  280,175;49262,993;19,40570
 734,81; 9875,102;  320,329;49493,235;19,43097
 735,38; 9849,262;  300,560;49133,015;19,55401
 735,95; 9902,807;  296,175;48966,718;19,73808
 736,52; 9979,583;  303,176;49144,575;19,81190
 737,09; 9933,666;  301,253;48844,201;19,84307
 737,66;10056,981;  339,945;49074,135;19,93885
 738,23;10097,910;  284,638;49096,685;20,10420
 738,80;10220,455;  340,715;49440,157;20,12190
 739,37;10237,924;  312,408;49518,476;20,17132
 739,94;10316,238;  299,562;49568,179;20,33074
 740,51;10379,783;  387,793;49688,805;20,26731
 741,07;10386,174;  291,793;49524,662;20,50334
 741,64;10468,565;  328,178;49757,212;20,51504
 742,21;10516,572;  296,409;49799,300;20,64559
 742,78;10485,963;  266,717;49687,387;20,67808
 743,35;10585,739;  290,102;49843,398;20,77690
 743,92;10711,592;  313,718;50024,563;20,91671
 744,49;10685,214;  302,564;49896,189;20,93545
 745,06;10764,835;  291,872;49835,046;21,13906
 745,63;10802,457;  272,949;49927,365;21,20558
 746,19;10822,464;  284,872;49879,530;21,24743
 746,76;10839,471;  300,411;49884,771;21,25481
 747,33;10888,093;  288,796;49894,475;21,36710
 747,90;10980,715;  301,643;50036,409;21,47205
 748,47;11000,413;  298,104;50030,189;21,51993
 749,04;11068,728;  302,643;50076,815;21,62986
 749,61;11100,273;  320,182;49999,364;21,69941
 750,17;11142,279;  300,336;50047,683;21,79401
 750,74;11139,286;  297,721;50046,002;21,79284
 751,31;11211,523;  276,952;49905,628;22,03277
 751,88;11164,838;  269,952;49893,177;21,95521
 752,45;11271,998;  285,491;50020,881;22,08992
 753,02;11275,697;  292,876;49792,891;22,18751
 753,58;11275,473;  291,645;49723,902;22,21996
 754,15;11388,095;  277,799;49758,529;22,45378
 754,72;11346,793;  275,030;49649,155;22,42422
 755,29;11356,954;  277,338;49502,397;22,50808
 755,86;11420,884;  277,415;49665,331;22,56315
 756,42;11529,582;  287,416;49542,495;22,82438
 756,99;11472,666;  244,724;49491,660;22,79927
 757,56;11505,826;  244,032;49535,979;22,84713
 758,13;11515,064;  219,032;49287,990;23,02073
 758,70;11605,840;  233,340;49493,385;23,08666
 759,26;11672,846;  224,340;49372,011;23,29410
 759,83;11713,468;  229,033;49478,561;23,31887
 760,40;11720,013;  215,033;49339,341;23,42014
 760,97;11771,097;  215,341;49377,506;23,50538
 761,53;11715,488;  188,880;49118,978;23,55730
 762,10;11768,494;  200,495;49019,835;23,69553
 762,67;11873,039;  229,726;49073,846;23,83770
 763,24;11739,354;  186,727;48569,011;23,87780
 763,80;11836,437;  221,804;48730,637;23,94334
 764,37;11864,290;  236,035;48779,187;23,95447
 764,94;11854,681;  217,574;48360,967;24,17176
 765,50;11892,226;  222,651;48438,208;24,20293
 766,07;11938,617;  261,036;48410,527;24,25276
 766,64;11864,162;  237,190;48181,076;24,25121
 767,21;11901,092;  240,113;48046,549;24,39207
 767,77;11923,406;  265,344;47994,867;24,42526
 768,34;11960,951;  272,344;47876,647;24,55368
 768,91;11983,035;  272,037;47792,505;24,64411
 769,47;11974,657;  273,345;47923,900;24,55651
 770,04;12077,510;  280,268;47697,988;24,87939
 770,61;11967,516;  249,730;47438,460;24,83175
 771,18;11956,677;  251,500;47431,548;24,80959
 771,74;12085,683;  269,654;47481,636;25,02761
 772,31;12077,305;  269,500;47300,724;25,10631
 772,88;12012,389;  244,423;47077,427;25,12750
 773,44;11995,934;  251,731;46865,669;25,19462
 774,01;12060,863;  258,424;47104,833;25,19390
 774,58;12036,331;  245,578;46730,691;25,36458
 775,14;12105,723;  235,886;46918,625;25,42661
 775,71;12161,575;  249,348;46741,789;25,62186
 776,27;12253,428;  303,271;46707,108;25,75252
 776,84;12268,973;  312,425;46740,657;25,75275
 777,41;12262,364;  278,810;46575,053;25,88451
 777,97;12175,833;  254,195;46385,987;25,84256
 778,54;12283,993;  267,580;46328,767;26,08794
 779,11;12318,307;  290,657;46319,470;26,13070
 779,67;12333,775;  250,042;46239,481;26,27502
 780,24;12360,705;  264,735;46035,723;26,42716
 780,80;12353,096;  275,581;46079,041;26,36813
 781,37;12361,872;  269,735;46003,206;26,44045
 781,94;12358,955;  271,043;45829,602;26,53269
 782,50;12430,962;  265,889;45869,689;26,67557
 783,07;12474,353;  295,351;45879,623;26,71755
 783,63;12428,591;  258,582;45674,173;26,79698
 784,20;12427,289;  296,736;45645,030;26,74975
 784,77;12402,835;  263,583;45354,041;26,92200
 785,33;12394,380;  230,583;45177,282;27,06271
 785,90;12398,386;  261,891;45198,755;27,00788
 786,46;12406,085;  279,661;45110,766;27,04913
 787,03;12437,630;  255,122;44933,084;27,26738
 787,59;12439,867;  255,969;44870,864;27,30904
 788,16;12427,028;  270,123;44788,183;27,30780
 788,73;12448,727;  271,815;44645,117;27,44198
 789,29;12443,579;  260,816;44356,820;27,62782
 789,86;12483,201;  279,893;44182,754;27,79616
 790,42;12405,054;  269,509;44180,457;27,63672
 790,99;12323,292;  273,586;43958,545;27,58319
 791,55;12372,298;  257,048;43861,249;27,78459
 792,12;12441,305;  284,894;43755,336;27,96477
 792,68;12355,542;  262,202;43483,501;27,98005
 793,25;12351,241;  278,587;43306,974;28,05742
 793,81;12336,632;  319,202;42981,369;28,16882
 794,38;12306,254;  228,433;42846,688;28,33955
 794,94;12341,645;  245,818;42673,237;28,50946
 795,51;12263,883;  269,434;42449,556;28,43626
 796,07;12272,043;  253,204;42246,105;28,62112
 796,64;12361,896;  282,511;42306,962;28,74371
 797,20;12329,518;  265,127;41844,588;29,01526
 797,77;12185,063;  245,204;41617,522;28,85953
 798,33;12235,685;  258,358;41520,687;29,02727
 798,90;12216,999;  283,589;41416,083;29,01212
 799,46;12165,852;  252,820;40937,863;29,28111
 800,03;12224,320;  277,744;40859,181;29,43852
 800,59;12220,019;  276,283;40708,115;29,54043
 801,15;12190,102;  279,437;40522,203;29,59703
 801,72;12110,955;  266,668;40210,983;29,65200
 802,28;12099,346;  295,437;39936,302;29,77712
 802,85;12052,814;  270,745;39806,697;29,80090
 803,41;12056,898;  257,515;39615,631;29,97954
 803,98;11979,443;  257,900;39194,335;30,10431
 804,54;11934,373;  262,438;39085,422;30,06450
 805,11;11937,225;  263,669;38909,587;30,20644
 805,67;11926,924;  293,670;38731,829;30,26486
 806,23;11840,931;  260,747;38414,840;30,35109
 806,80;11868,245;  288,362;38377,005;30,40246
 807,36;11871,252;  293,517;38304,939;30,45857
 807,93;11872,489;  283,594;38096,180;30,64825
 808,49;11766,649;  245,056;37749,345;30,72074
 809,05;11751,810;  232,979;37584,664;30,83885
 809,62;11774,663;  271,979;37551,905;30,85490
 810,18;11785,823;  271,979;37475,301;30,94843
 810,74;11714,522;  248,903;37127,389;31,09027
 811,31;11674,298;  242,595;36971,092;31,12489
 811,87;11649,381;  265,134;36832,487;31,13227
 812,44;11709,311;  287,827;36857,191;31,23238
 813,00;11650,394;  218,673;36624,048;31,40119
 813,56;11716,632;  267,212;36617,674;31,49732
 814,13;11669,407;  269,981;36476,146;31,48477
 814,69;11675,106;  264,366;36438,927;31,54355
 815,25;11587,651;  239,597;35936,245;31,79025
 815,82;11650,196;  270,982;35962,641;31,88200
 816,38;11660,741;  298,752;35774,728;32,02728
 816,94;11500,902;  249,675;35481,201;31,93511
 817,51;11531,755;  238,598;35281,135;32,22699
 818,07;11514,377;  239,598;35042,761;32,39584
 818,63;11459,229;  253,983;34814,464;32,42214
 819,20;11411,005;  256,061;34949,475;32,15292
 819,76;11324,858;  228,138;34541,102;32,33973
 820,32;11390,941;  287,600;34572,497;32,38552
 820,89;11354,486;  263,754;34205,277;32,67600
 821,45;11301,185;  246,831;33936,134;32,81265
 822,01;11316,269;  259,600;33712,838;33,05112
 822,57;11236,737;  266,908;33679,772;32,83115
 823,14;11231,590;  230,216;33516,782;33,05049
 823,70;11205,212;  242,447;33101,332;33,36317
 824,26;11152,911;  243,448;33053,420;33,25045
 824,82;11190,225;  273,679;32931,969;33,42657
 825,39;11162,385;  238,063;32758,749;33,59192
 825,95;11176,546;  258,218;32774,606;33,57792
 826,51;11094,860;  258,756;32347,386;33,76929
 827,08;11208,482;  295,064;32461,397;33,92808
 827,64;11149,335;  273,603;32248,408;34,01344
 828,20;11044,264;  231,603;32073,034;33,95784
 828,76;11106,579;  267,142;31982,122;34,17766
 829,32;11097,354;  272,527;31914,595;34,21024
 829,89;11074,822;  224,835;31765,452;34,40005
 830,45;11100,983;  252,220;31681,693;34,51780
 831,01;11076,374;  243,682;31548,551;34,60386
 831,57;11051,381;  252,374;31396,792;34,67397
 832,14;11067,926;  235,451;31372,111;34,79010
 832,70;11047,086;  239,144;31168,968;34,94343
 833,26;11011,862;  221,221;31106,363;34,93797
 833,82;11075,715;  240,991;30997,990;35,22686
 834,38;11055,875;  230,760;31073,539;35,09773
 834,95;11088,728;  230,683;30965,781;35,32784
 835,51;11046,196;  213,530;30808,484;35,40671
 836,07;11132,203;  246,684;30821,341;35,60308
 836,63;11168,132;  255,146;30931,506;35,57458
 837,19;11136,677;  245,146;30714,363;35,74602
 837,75;11054,068;  213,146;30404,066;35,90789
 838,32;11118,767;  269,993;30513,615;35,87128
 838,88;11227,235;  254,301;30509,780;36,26760
 839,44;11152,473;  247,147;30474,483;36,07769
 840,00;11174,787;  252,917;30391,263;36,23912
 840,56;11090,717;  232,994;30214,121;36,21519
 841,12;11163,800;  232,994;30132,670;36,55828
 841,68;11071,961;  209,687;29999,758;36,46273
 842,25;11100,121;  227,687;29905,153;36,63532
 842,81;11057,589;  219,072;29744,549;36,70903
 843,37;11096,134;  216,533;29676,252;36,93043
 843,93;11112,987;  231,841;29578,494;37,07798
 844,49;11162,070;  252,765;29743,658;36,99212
 845,05;11145,616;  202,227;29490,516;37,36438
 845,61;11185,314;  240,381;29654,680;37,20957
 846,17;11168,090;  224,304;29421,383;37,48247
 846,73;11205,635;  228,381;29474,933;37,53350
 847,29;11147,334;  210,228;29316,021;37,57708
 847,86;11101,495;  224,536;29210,109;37,52542
 848,42;11153,270;  224,382;29015,504;37,95923
 848,98;11114,123;  236,305;28949,053;37,88498
 849,54;11178,514;  230,690;29006,987;38,04459
 850,10;11118,752;  239,075;28873,306;37,99535
 850,66;11134,220;  216,691;28797,855;38,19834
 851,22;11125,303;  219,922;28728,635;38,25280
 851,78;11212,771;  255,076;28713,262;38,50455
 852,34;11209,547;  231,692;28541,965;38,77693
 852,90;11133,708;  226,384;28540,899;38,52202
 853,46;11068,099;  213,538;28200,987;38,78367
 854,02;11130,029;  238,308;28250,613;38,88191
 854,58;11071,881;  225,616;28031,086;39,00767
 855,14;11051,888;  206,539;27932,481;39,11625
 855,70;11019,587;  190,232;27713,646;39,34597
 856,26;11026,824;  234,155;27770,426;39,19437
 856,82;11039,446;  226,309;27712,129;39,34078
 857,38;11007,914;  254,617;27555,525;39,38806
 857,94;11041,459;  225,925;27481,689;39,68164
 858,50;10992,466;  245,079;27378,085;39,61001
 859,06;10970,549;  232,002;27199,788;39,81991
 859,62;10994,479;  234,157;27181,568;39,93082
 860,18;10978,870;  231,926;26985,810;40,16966
 860,74;10981,646;  195,388;26873,129;40,43168
 861,30;10867,499;  214,388;26693,216;40,23256
 861,86;10992,428;  251,696;26820,227;40,42652
 862,42;10934,973;  234,081;26559,238;40,64892
 862,98;11010,903;  253,466;26518,018;40,95801
 863,54;10906,602;  231,851;26379,568;40,82479
 864,10;10990,070;  224,159;26379,040;41,16215
 864,66;10905,923;  211,620;26122,820;41,27289
 865,22;10866,468;  233,236;26030,754;41,21804
 865,78;10851,474;  237,544;26011,227;41,18127
 866,34;10858,404;  220,775;25929,930;41,37681
 866,90;10870,026;  227,698;25898,018;41,45771
 867,45;10785,263;  217,160;25638,183;41,57230
 868,01;10723,578;  228,084;25497,501;41,53437
 868,57;10712,584;  231,622;25372,051;41,68967
 869,13;10719,283;  204,853;25254,446;41,97445
 869,69;10713,059;  210,700;25172,457;42,07380
 870,25;10659,142;  205,162;25084,083;42,01943
 870,81;10710,995;  218,623;25062,863;42,23261
 871,37;10712,386;  238,778;24962,182;42,36313
 871,93;10658,547;  239,778;24771,270;42,47100
 872,49;10605,092;  248,240;24609,973;42,51279
 873,04;10572,637;  196,932;24477,984;42,73169
 873,60;10591,566;  209,625;24402,226;42,91371
 874,16;10551,573;  234,394;24290,006;42,88887
 874,72;10527,958;  221,471;24183,237;43,01222
 875,28;10530,650;  225,087;24170,544;43,03765
 875,84;10548,804;  230,010;24060,929;43,30003
 876,40;10548,342;  220,240;24078,160;43,29004
 876,95;10524,265;  240,010;24045,621;43,20097
 877,51;10607,112;  255,394;23990,313;43,61387
 878,07;10644,958;  264,317;23988,237;43,75601
 878,63;10700,650;  224,240;24049,929;43,97107
 879,19;10695,419;  242,471;23944,544;44,10141
 879,75;10773,035;  221,471;23997,160;44,37963
 880,30;10763,804;  221,625;24037,621;44,26512
 880,86;10893,958;  266,087;24148,237;44,50132
 881,42;10815,573;  206,163;24173,544;44,26604
 881,98;10901,496;  232,163;24267,160;44,39082
 882,54;10983,188;  214,317;24311,467;44,68940
 883,09;11061,112;  236,856;24436,467;44,72905
 883,65;11079,188;  212,856;24417,160;44,89422
 884,21;11263,573;  257,548;24684,467;45,05695
 884,77;11321,035;  212,394;24668,544;45,42269
 885,32;11323,035;  216,163;24761,544;45,25035
 885,88;11465,804;  254,010;24859,313;45,56657
 886,44;11609,727;  224,779;25100,390;45,76751
 887,00;11587,112;  233,933;24993,698;45,85334
 887,56;11681,265;  226,087;25122,237;46,01185
 888,11;11754,419;  217,779;25115,698;46,33576
 888,67;11895,112;  256,933;25358,621;46,36413
 889,23;11895,881;  230,163;25326,006;46,48466
 889,79;11873,496;  210,010;25226,929;46,62239
 890,34;11903,342;  226,548;25167,621;46,81753
 890,90;12044,958;  287,317;25227,698;47,14299
 891,46;12037,804;  227,702;25200,237;47,29236
 892,01;12045,419;  242,240;25255,852;47,18702
 892,57;12081,727;  260,779;25208,006;47,38382
 893,13;12022,804;  235,163;24955,083;47,68479
 893,69;11969,573;  235,163;24890,852;47,59311
 894,24;11985,804;  232,240;24785,237;47,87018
 894,80;12015,958;  236,240;24620,621;48,30845
 895,36;12002,419;  235,779;24565,083;48,36407
 895,91;11893,035;  227,625;24441,698;48,17616
 896,47;11858,650;  237,856;24287,929;48,31916
 897,03;11809,727;  214,933;24135,621;48,47182
 897,58;11797,958;  242,548;23997,313;48,64460
 898,14;11806,035;  245,394;23872,698;48,92916
 898,70;11724,804;  207,010;23710,313;49,00500
 899,25;11799,265;  227,471;23782,621;49,12639
 899,81;11744,804;  247,317;23544,006;49,35245
 900,37;11641,727;  195,163;23349,775;49,43535
 900,92;11713,958;  226,548;23439,852;49,48632
 901,48;11633,650;  213,779;23253,313;49,56641
 902,03;11601,650;  217,010;23096,467;49,75922
 902,59;11620,188;  222,702;23077,313;49,86953
 903,15;11617,804;  247,010;22884,467;50,23000
 903,70;11527,342;  224,010;22682,698;50,32944
 904,26;11460,958;  213,087;22587,929;50,27017
 904,82;11492,265;  228,856;22619,083;50,30503
 905,37;11512,650;  227,317;22488,237;50,69572
 905,93;11419,496;  213,856;22310,852;50,71115
 906,48;11439,419;  232,856;22301,544;50,78038
 907,04;11474,496;  247,087;22261,698;50,99981
 907,60;11358,650;  221,856;22040,237;51,04317
 908,15;11348,573;  212,779;21925,083;51,28794
 908,71;11370,496;  249,010;21912,390;51,33772
 909,26;11296,496;  222,394;21781,929;51,36522
 909,82;11270,881;  245,240;21625,621;51,56896
 910,37;11264,881;  266,933;21640,621;51,45555
 910,93;11167,342;  224,548;21420,083;51,62783
 911,48;11139,573;  213,087;21346,852;51,70156
 912,04;11112,573;  218,087;21205,621;51,90932
 912,60;11225,804;  229,548;21257,621;52,29322
 913,15;11142,958;  228,317;21096,775;52,30209
 913,71;11070,650;  213,702;20883,929;52,52457
 914,26;11074,804;  211,394;20830,083;52,68720
 914,82;11099,573;  227,548;20779,621;52,89989
 915,37;11091,958;  207,856;20715,006;53,07467
 915,93;11060,573;  269,625;20618,852;53,02879
 916,48;10969,958;  207,625;20485,698;53,07374
 917,04;10935,342;  228,471;20354,775;53,19840
 917,59;11009,265;  245,010;20322,160;53,61446
 918,15;10866,650;  194,625;20088,467;53,64487
 918,70;10859,265;  217,240;19996,160;53,80489
 919,26;10865,958;  226,548;19881,621;54,13060
 919,81;10786,650;  209,856;19882,006;53,76532
 920,37;10774,958;  223,317;19803,237;53,89011
 920,92;10823,804;  230,856;19711,006;54,37816
 921,48;10721,804;  201,625;19583,083;54,27961
 922,03;10738,727;  213,087;19480,852;54,62824
 922,59;10671,881;  224,548;19362,544;54,58948
 923,14;10652,496;  213,394;19241,852;54,86047
 923,69;10617,112;  236,625;19236,160;54,63548
 924,25;10654,727;  238,240;19261,621;54,75623
 924,80;10554,573;  220,548;18962,313;55,13902
 925,36;10591,958;  226,317;19007,775;55,19082
 925,91;10555,727;  212,394;18818,621;55,59070
 926,47;10508,496;  199,240;18753,390;55,56307
 927,02;10550,727;  254,933;18713,621;55,77750
 927,57;10503,573;  228,779;18537,544;56,11954
 928,13;10470,035;  207,317;18495,852;56,11558
 928,68;10461,881;  211,010;18446,544;56,21371
 929,24;10419,035;  188,625;18266,390;56,59112
 929,79;10391,573;  204,471;18160,237;56,73443
 930,34;10369,881;  213,933;18001,852;57,09464
 930,90;10373,573;  200,317;17998,467;57,15906
 931,45;10397,112;  222,779;18032,083;57,12931
 932,01;10356,419;  224,163;17902,467;57,31464
 932,56;10288,419;  229,779;17755,083;57,39496
 933,11;10304,727;  229,087;17788,621;57,37988
 933,67;10223,112;  201,317;17621,698;57,52913
 934,22;10261,727;  216,240;17548,698;57,95766
 934,77;10209,881;  235,856;17424,006;58,02850
 935,33;10184,035;  220,856;17318,006;58,27392
 935,88;10185,573;  219,548;17216,544;58,63404
 936,43;10160,650;  209,856;17201,698;58,56219
 936,99;10123,419;  217,933;17080,775;58,74150
 937,54; 9969,112;  205,856;16961,775;58,26750
 938,09;10030,804;  221,240;16963,775;58,59067
 938,65; 9976,035;  221,625;16856,467;58,63843
 939,20; 9912,881;  196,779;16662,775;59,00707
 939,75; 9858,419;  207,471;16622,313;58,79403
 940,31; 9830,881;  201,933;16545,544;58,91567
 940,86; 9864,188;  220,087;16493,852;59,26165
 941,41; 9902,496;  272,163;16429,160;59,60472
 941,96; 9837,496;  208,702;16321,467;59,75879
 942,52; 9794,573;  209,087;16221,621;59,86239
 943,07; 9723,573;  198,163;16131,929;59,78128
 943,62; 9692,112;  207,856;16061,083;59,82540
 944,18; 9739,727;  192,548;16022,775;60,30980
 944,73; 9686,035;  213,010;15958,775;60,16237
 945,28; 9612,804;  179,240;15691,929;60,81192
 945,83; 9648,035;  206,702;15744,929;60,76197
 946,39; 9649,112;  213,702;15692,390;60,95742
 946,94; 9613,881;  233,240;15595,852;61,06150
 947,49; 9561,188;  209,087;15512,160;61,11257
 948,04; 9613,804;  231,163;15457,390;61,62157
 948,59; 9599,342;  226,163;15445,852;61,58588
 949,15; 9526,419;  200,010;15380,775;61,43570
 949,70; 9483,035;  195,548;15237,852;61,74245
 950,25; 9489,188;  222,163;15146,390;62,09384
 950,80; 9411,035;  165,394;15178,467;61,58393
 951,36; 9401,881;  180,779;15017,929;62,14874
 951,91; 9412,496;  227,317;15038,390;62,01562
 952,46; 9303,727;  191,702;14831,237;62,24259
 953,01; 9408,188;  219,933;14879,852;62,67603
 953,56; 9216,958;  184,702;14690,544;62,26633
 954,11; 9290,265;  217,548;14728,698;62,52239
 954,67; 9266,188;  200,087;14702,237;62,51557
 955,22; 9177,342;  184,010;14513,698;62,76014
 955,77; 9251,035;  230,548;14513,929;63,15372
 956,32; 9216,804;  261,471;14375,621;63,44932
 956,87; 9105,188;  198,548;14266,852;63,30998
 957,42; 9136,342;  205,394;14223,006;63,71234
 957,98; 9139,650;  208,625;14155,852;64,03441
 958,53; 9189,650;  229,471;14098,083;64,60761
 959,08; 9079,958;  198,163;14054,544;64,09895
 959,63; 9047,573;  199,163;13913,390;64,51993
 960,18; 9050,035;  229,010;13845,929;64,77989
 960,73; 9016,496;  222,779;13888,467;64,34888
 961,28; 8912,881;  188,625;13780,313;64,18817
 961,83; 8976,265;  230,394;13671,237;65,06937
 962,39; 8905,958;  196,317;13597,313;64,99248
 962,94; 8889,342;  216,317;13538,929;65,10004
 963,49; 8820,804;  207,856;13408,390;65,24696
 964,04; 8838,958;  221,933;13393,390;65,42195
 964,59; 8780,035;  184,163;13306,775;65,50427
 965,14; 8792,881;  220,087;13239,313;65,84718
 965,69; 8743,496;  214,010;13194,467;65,71021
 966,24; 8724,342;  208,317;13077,006;66,17632
 966,79; 8623,650;  232,471;12946,237;66,00074
 967,34; 8632,650;  185,163;12865,313;66,61977
 967,89; 8634,573;  212,087;12837,083;66,71278
 968,44; 8615,035;  208,317;12751,390;67,02279
 968,99; 8589,188;  212,394;12706,083;67,04821
 969,55; 8559,419;  213,625;12620,929;67,26517
 970,10; 8507,265;  218,548;12544,390;67,24666
 970,65; 8515,188;  226,779;12452,775;67,79333
 971,20; 8440,188;  202,625;12380,313;67,64472
 971,75; 8344,804;  183,779;12258,775;67,58615
 972,30; 8319,419;  217,856;12224,775;67,47412
 972,85; 8280,342;  196,163;12137,621;67,69843
 973,40; 8216,958;  203,779;12066,160;67,55119
 973,95; 8222,035;  218,010;12027,929;67,77375
 974,50; 8179,112;  234,010;11941,929;67,86092
 975,05; 8153,496;  221,394;11839,083;68,27608
 975,60; 8101,881;  222,702;11820,852;67,93479
 976,15; 8071,881;  209,317;11682,852;68,52782
 976,70; 8040,958;  209,394;11636,929;68,53240
 977,25; 7938,804;  220,394;11561,237;68,05852
 977,80; 7871,881;  209,010;11392,929;68,51687
 978,35; 7836,112;  223,702;11256,544;68,99772
 978,89; 7785,188;  194,856;11222,775;68,82833
 979,44; 7808,342;  219,163;11243,006;68,84332
 979,99; 7720,035;  201,317;11047,775;69,31957
 980,54; 7680,573;  237,856;11009,621;69,09468
 981,09; 7680,035;  225,394;10909,544;69,77289
 981,64; 7574,958;  226,625;10846,313;69,19537
 982,19; 7542,035;  245,625;10858,237;68,75225
 982,74; 7472,265;  237,317;10686,390;69,24009
 983,29; 7386,265;  205,163;10557,083;69,36976
 983,84; 7380,112;  221,394;10540,237;69,37520
 984,39; 7345,727;  271,856;10410,467;69,77160
 984,94; 7280,419;  199,087;10331,929;69,88496
 985,49; 7225,804;  239,087;10245,698;69,82101
 986,03; 7207,804;  229,856;10211,006;69,91126
 986,58; 7143,804;  260,163;10044,775;70,35170
 987,13; 7047,265;  214,240; 9903,544;70,52132
 987,68; 7046,727;  228,548; 9875,237;70,67896
 988,23; 6994,419;  236,394; 9814,929;70,55385
 988,78; 6902,958;  206,317; 9693,237;70,58815
 989,33; 6890,419;  241,394; 9604,390;71,01386
 989,88; 6857,188;  247,087; 9556,237;71,00650
 990,42; 6801,727;  223,548; 9386,852;71,78829
 990,97; 6758,342;  216,317; 9348,313;71,63850
 991,52; 6707,958;  244,317; 9296,544;71,40387
 992,07; 6720,804;  249,625; 9211,544;72,20751
 992,62; 6643,188;  231,163; 9104,544;72,26135
 993,17; 6544,419;  238,240; 8979,467;72,14295
 993,71; 6513,958;  230,702; 8909,006;72,40189
 994,26; 6428,496;  220,856; 8757,083;72,72113
 994,81; 6453,727;  244,087; 8737,160;73,11418
 995,36; 6362,035;  211,471; 8627,390;73,08249
 995,91; 6331,573;  220,394; 8592,467;72,99481
 996,45; 6275,881;  226,240; 8466,390;73,41663
 997,00; 6194,419;  203,625; 8330,698;73,71404
 997,55; 6158,881;  226,625; 8326,852;73,23567
 998,10; 6113,419;  234,471; 8206,544;73,74428
 998,65; 6081,035;  219,394; 8197,006;73,47613
 999,19; 6061,727;  249,933; 8052,160;74,48892
 999,74; 6003,496;  261,471; 7999,775;74,20263
1000,29; 5953,496;  233,471; 7905,237;74,55944
1000,84; 5860,727;  223,010; 7786,621;74,53737
1001,38; 5815,650;  222,394; 7709,621;74,70397
1001,93; 5762,112;  232,394; 7656,083;74,48746
1002,48; 5680,573;  212,471; 7508,698;74,94424
1003,03; 5691,265;  224,779; 7502,852;75,10898
1003,57; 5611,342;  233,702; 7402,467;75,01487
1004,12; 5595,958;  255,779; 7331,006;75,47714
1004,67; 5556,342;  218,394; 7262,852;75,77515
1005,22; 5438,727;  208,087; 7170,621;75,12552
1005,76; 5389,112;  208,471; 7022,237;76,03197
1006,31; 5425,727;  240,625; 6972,698;77,02088
1006,86; 5293,419;  222,163; 6860,621;76,39208
1007,40; 5213,573;  202,933; 6700,698;77,11329
1007,95; 5173,496;  222,317; 6667,852;76,81564
1008,50; 5129,650;  225,087; 6583,237;77,13822
1009,04; 5043,573;  226,163; 6510,852;76,65312
1009,59; 4951,573;  230,856; 6387,621;76,67528
1010,14; 4911,188;  212,087; 6282,313;77,41229
1010,68; 4888,881;  224,087; 6221,237;77,78352
1011,23; 4801,265;  215,010; 6096,852;77,97312
1011,78; 4784,958;  228,240; 6061,390;78,11761
1012,32; 4704,727;  229,933; 5976,544;77,86840
1012,87; 4704,496;  248,010; 5982,313;77,71626
1013,42; 4567,958;  203,548; 5798,467;78,00666
1013,96; 4621,804;  240,163; 5845,929;78,16311
1014,51; 4524,419;  183,933; 5758,698;77,85954
1015,06; 4592,958;  193,010; 5753,852;79,12377
1015,60; 4622,881;  265,471; 5789,160;78,88587
1016,15; 4583,958;  213,317; 5757,544;78,83228
1016,69; 4615,496;  218,856; 5792,313;78,88533
1017,24; 4654,419;  200,240; 5782,006;79,79875
1017,79; 4717,265;  245,625; 5825,083;80,14471
1018,33; 4678,881;  209,317; 5778,929;80,24911
1018,88; 4778,342;  237,933; 5869,698;80,62143
1019,42; 4806,727;  227,240; 5885,083;80,94051
1019,97; 4797,265;  211,087; 5863,467;81,13712
1020,51; 4863,727;  244,163; 5896,929;81,72219
1021,06; 4856,727;  196,933; 5878,006;82,02313
1021,61; 4830,958;  196,394; 5822,698;82,37315
1022,15; 4832,573;  168,856; 5806,929;82,71828
1022,70; 4829,727;  215,779; 5836,544;82,08754
1023,24; 4805,958;  219,240; 5771,237;82,61384
1023,79; 4786,188;  216,163; 5720,775;83,02175
1024,33; 4792,265;  214,625; 5680,698;83,74642
1024,88; 4701,188;  227,933; 5589,929;83,42520
1025,42; 4635,112;  226,702; 5512,006;83,40882
1025,97; 4603,804;  204,240; 5458,467;83,73379
1026,51; 4487,881;  180,087; 5319,467;83,81932
1027,06; 4477,112;  203,625; 5287,698;84,05636
1027,60; 4427,650;  221,779; 5186,467;84,71571
1028,15; 4389,035;  222,317; 5144,852;84,64577
1028,69; 4258,958;  181,856; 5016,313;84,33421
1029,24; 4221,650;  207,240; 4961,160;84,44421
1029,78; 4165,881;  201,240; 4894,160;84,48133
1030,33; 4057,958;  183,240; 4765,852;84,55260
1030,87; 4066,650;  202,625; 4755,237;84,87491
1031,42; 3984,342;  187,625; 4651,544;85,05345
1031,96; 3975,727;  221,625; 4592,390;85,89118
1032,51; 3878,419;  204,394; 4539,237;84,75568
1033,05; 3841,650;  209,702; 4479,390;85,06354
1033,60; 3744,727;  178,856; 4377,237;84,93444
1034,14; 3728,496;  212,240; 4308,467;85,84133
1034,69; 3684,958;  213,933; 4278,083;85,40593
1035,23; 3636,650;  212,702; 4229,621;85,23816
1035,77; 3589,573;  204,702; 4162,160;85,53146
1036,32; 3514,650;  186,856; 4102,775;84,98118
1036,86; 3480,573;  202,702; 4030,544;85,63235
1037,41; 3459,958;  223,163; 3970,160;86,38371
1037,95; 3398,573;  180,702; 3914,237;86,18833
1038,50; 3382,804;  194,317; 3854,160;87,12087
1039,04; 3354,112;  213,087; 3817,852;87,13535
1039,58; 3285,035;  200,471; 3761,083;86,63016
1040,13; 3228,804;  209,933; 3696,467;86,58658
1040,67; 3248,419;  232,240; 3713,083;86,65083
1041,21; 3172,265;  231,163; 3634,852;86,40926
1041,76; 3124,188;  182,163; 3531,160;87,84797
1042,30; 3093,112;  206,933; 3524,313;87,00174
1042,85; 3067,265;  198,163; 3492,852;87,08265
1043,39; 3003,650;  193,010; 3411,390;87,33088
1043,93; 2994,035;  225,471; 3383,006;87,68118
1044,48; 2935,265;  210,856; 3293,544;88,37771
1045,02; 2892,188;  203,317; 3309,852;86,55533
1045,56; 2875,727;  225,240; 3242,390;87,84736
1046,11; 2832,035;  218,933; 3172,313;88,47833
1046,65; 2779,573;  215,163; 3121,313;88,24079
1047,19; 2751,112;  207,702; 3097,006;88,02846
1047,74; 2700,419;  192,933; 3051,390;87,72166
1048,28; 2660,265;  206,625; 3009,160;87,55076
1048,82; 2677,265;  226,779; 2999,544;88,37699
1049,37; 2624,035;  219,240; 2913,390;89,25985
1049,91; 2577,265;  208,625; 2905,929;87,81511
1050,45; 2559,419;  228,856; 2848,390;88,96861
1050,99; 2512,573;  206,702; 2826,929;88,00273
1051,54; 2479,958;  200,548; 2771,929;88,64536
1052,08; 2491,650;  243,163; 2742,006;89,98113
1052,62; 2413,958;  222,856; 2723,852;87,60917
1053,16; 2386,265;  197,471; 2658,852;88,92546
1053,71; 2366,727;  217,010; 2631,313;89,04088
1054,25; 2345,881;  222,087; 2594,160;89,53325
1054,79; 2302,035;  224,702; 2554,929;89,14723
1055,33; 2250,035;  190,856; 2496,237;89,32055
1055,88; 2253,496;  209,625; 2505,929;89,00700
1056,42; 2224,881;  237,163; 2453,006;89,70482
1056,96; 2170,035;  223,240; 2434,775;88,02911
1057,50; 2177,188;  214,702; 2382,775;90,51755
1058,05; 2137,804;  225,010; 2336,929;90,57137
1058,59; 2127,958;  237,087; 2332,698;90,23004
1059,13; 2041,342;  196,779; 2261,698;89,32860
1059,67; 2055,881;  232,471; 2266,621;89,63988
1060,21; 2002,650;  217,010; 2215,390;89,35436
1060,76; 2006,573;  225,548; 2183,467;90,96519
1061,30; 1980,188;  246,163; 2163,544;90,43717
1061,84; 1950,650;  219,548; 2114,467;91,35492
1062,38; 1899,958;  205,779; 2059,467;91,39501
1062,92; 1921,881;  255,317; 2101,698;90,26109
1063,46; 1880,804;  228,702; 2038,775;91,27266
1064,01; 1820,342;  214,010; 2010,544;89,41284
1064,55; 1811,188;  222,163; 1985,237;90,12814
1065,09; 1763,804;  191,856; 1930,160;90,42999
1065,63; 1796,727;  252,317; 1959,775;90,45083
1066,17; 1772,496;  245,702; 1911,083;91,67839
1066,71; 1749,112;  239,548; 1898,390;91,00102
1067,25; 1716,804;  210,163; 1837,698;92,57194
1067,80; 1730,650;  228,010; 1821,929;94,27331
1068,34; 1709,265;  242,163; 1828,698;92,47210
1068,88; 1639,958;  220,548; 1777,621;91,15883
1069,42; 1658,265;  248,471; 1803,775;90,64430
1069,96; 1617,188;  216,779; 1764,852;90,46147
1070,50; 1624,958;  250,779; 1748,390;91,75803
1071,04; 1580,573;  207,933; 1696,006;92,24281
1071,58; 1555,727;  213,625; 1683,698;91,29491
1072,12; 1548,804;  215,317; 1659,160;92,35680
1072,66; 1532,727;  217,240; 1656,544;91,39742
1073,21; 1523,804;  230,010; 1647,544;91,27073
1073,75; 1492,881;  218,394; 1620,467;90,90015
1074,29; 1490,265;  228,240; 1586,775;92,89605
1074,83; 1482,112;  251,471; 1584,621;92,31072
1075,37; 1463,804;  239,625; 1555,083;93,06106
1075,91; 1457,881;  237,471; 1544,160;93,39714
1076,45; 1423,573;  229,163; 1530,775;91,76391
1076,99; 1408,342;  232,856; 1513,852;91,76347
1077,53; 1379,265;  216,317; 1487,852;91,46020
1078,07; 1371,265;  228,163; 1470,775;91,99190
1078,61; 1358,035;  229,856; 1440,544;93,18490
1079,15; 1339,727;  223,548; 1440,237;91,73908
1079,69; 1349,188;  230,471; 1425,006;93,65298
1080,23; 1325,958;  253,394; 1419,237;91,99902
1080,77; 1325,881;  262,856; 1421,006;91,78647
1081,31; 1292,035;  219,087; 1361,698;93,90314
1081,85; 1291,265;  238,010; 1359,698;93,89914
1082,39; 1274,650;  227,317; 1345,698;93,64724
1082,93; 1262,881;  233,779; 1329,313;93,93605
1083,47; 1218,650;  215,163; 1305,313;92,05032
1084,01; 1240,265;  239,779; 1316,621;92,90929
1084,55; 1222,112;  225,625; 1264,544;95,91569
1085,09; 1192,958;  239,471; 1287,083;91,01528
1085,63; 1195,881;  232,010; 1265,775;93,23887
1086,17; 1163,188;  216,548; 1230,544;93,35739
1086,71; 1143,804;  219,625; 1213,237;93,01209
1087,24; 1166,419;  248,163; 1222,006;94,29204
1087,78; 1154,958;  244,317; 1201,852;95,10261
1088,32; 1107,419;  209,087; 1160,313;94,43937
1088,86; 1130,188;  248,779; 1197,852;92,87057
1089,40; 1098,265;  227,471; 1164,160;92,96519
1089,94; 1081,035;  206,856; 1112,467;96,52912
1090,48; 1086,727;  240,856; 1129,313;95,20669
1091,02; 1077,650;  242,163; 1132,237;93,86718
1091,56; 1058,650;  235,240; 1109,929;94,13747
1092,10; 1031,112;  210,933; 1082,083;94,14898
1092,63; 1042,573;  249,933; 1104,775;92,72358
1093,17; 1022,804;  236,625; 1069,929;94,34480
1093,71; 1009,112;  222,317; 1045,698;95,55655
1094,25; 1036,881;  244,471; 1053,313;97,96837
1094,79;  971,112;  233,933; 1048,083;90,54583
1095,33;  983,496;  228,394; 1027,160;94,53363
1095,87;  957,881;  229,856; 1008,621;93,48451
1096,40;  943,804;  214,317;  975,698;95,81100
1096,94;  950,573;  234,471;  970,698;97,26647
1097,48;  945,419;  240,702;  984,698;94,72056
1098,02;  930,573;  222,317;  952,467;97,00141
1098,56;  905,573;  201,240;  927,698;96,95440
1099,10;  889,881;  210,471;  913,160;96,68717
1099,63;  880,342;  206,087;  910,544;95,71274
1100,17;  892,958;  232,856;  928,467;94,89519
1100,71;  889,573;  255,087;  931,698;93,77412

