
Integration time [ms]: 120,000
Averaging Nr. [scans]: 13
Smoothing Nr. [pixels]: 0
Data measured with spectrometer [name]: 2009305U1
Wave   ;Sample   ;Dark     ;Reference;Reflectance
[nm]   ;[counts] ;[counts] ;[counts] ;[%]

 175,72;  195,380;  192,633;  188,459; 0,00000
 176,32;  212,297;  209,248;  192,506; 0,00000
 176,92;  234,578;  228,171;  226,553; 0,00000
 177,52;  247,935;  238,248;  234,952; 0,00000
 178,12;  220,866;  209,786;  211,662;590,80646
 178,72;  246,463;  239,786;  229,023; 0,00000
 179,32;  246,511;  238,479;  252,002;59,39422
 179,92;  237,297;  234,402;  227,528; 0,00000
 180,52;  228,838;  228,326;  231,902;14,33608
 181,12;  243,556;  237,325;  236,294; 0,00000
 181,73;  267,438;  256,556;  249,579; 0,00000
 182,33;  322,713;  282,710;  295,912;302,99548
 182,93;  257,560;  240,633;  250,245;176,10884
 183,53;  226,356;  224,786;  219,287; 0,00000
 184,13;  227,028;  228,632;  221,820; 0,00000
 184,73;  251,367;  239,632;  250,923;103,92767
 185,33;  246,587;  218,398;  320,011;27,74148
 185,93;  253,744;  222,090;  330,249;29,26575
 186,53;  274,898;  227,244;  334,348;44,49339
 187,13;  297,703;  258,245;  379,400;32,56818
 187,73;  262,923;  218,783;  332,548;38,79929
 188,33;  253,393;  230,167;  338,588;21,42233
 188,93;  274,907;  229,090;  342,227;40,49701
 189,53;  274,881;  229,243;  349,226;38,03709
 190,13;  310,054;  271,627;  365,959;40,73606
 190,73;  248,353;  203,012;  314,071;40,82593
 191,34;  282,204;  242,705;  352,758;35,89101
 191,94;  256,867;  221,782;  328,172;32,97734
 192,54;  274,995;  237,014;  361,237;30,57453
 193,14;  279,658;  242,629;  361,822;31,06606
 193,74;  270,849;  233,168;  350,562;32,09806
 194,34;  258,420;  233,630;  363,161;19,13896
 194,94;  232,975;  200,476;  311,346;29,31335
 195,54;  223,678;  192,091;  296,355;30,29543
 196,14;  241,765;  211,476;  326,723;26,28186
 196,74;  233,223;  199,321;  314,478;29,43973
 197,34;  223,356;  185,476;  327,226;26,72315
 197,94;  245,803;  220,706;  334,037;22,14499
 198,54;  249,748;  215,014;  350,758;25,58786
 199,14;  237,461;  207,168;  358,849;19,97154
 199,74;  229,221;  185,630;  363,403;24,52061
 200,34;  222,076;  178,938;  343,814;26,16385
 200,94;  255,401;  222,553;  391,639;19,42664
 201,54;  241,533;  200,938;  402,366;20,15348
 202,14;  265,682;  208,399;  429,378;25,92208
 202,74;  245,344;  213,553;  440,939;13,98103
 203,34;  233,935;  169,938;  450,453;22,81429
 203,94;  211,017;  162,707;  446,914;16,99833
 204,54;  277,858;  227,937;  533,985;16,31151
 205,14;  239,906;  191,707;  539,269;13,86783
 205,74;  293,801;  223,707;  641,885;16,76176
 206,34;  253,444;  190,399;  636,398;14,13558
 206,94;  277,368;  199,861;  697,434;15,57707
 207,54;  248,875;  170,322;  734,704;13,91828
 208,14;  272,559;  189,553;  828,688;12,98716
 208,74;  272,414;  192,938;  873,882;11,67146
 209,34;  279,773;  183,553;  960,363;12,38661
 209,94;  307,392;  197,168; 1061,983;12,74529
 210,54;  308,651;  194,630; 1170,618;11,68263
 211,14;  331,719;  200,168; 1256,261;12,45632
 211,73;  327,478;  196,630; 1354,342;11,30229
 212,33;  342,872;  203,399; 1447,931;11,20685
 212,93;  349,279;  191,245; 1534,545;11,76463
 213,53;  339,404;  168,245; 1571,127;12,20051
 214,13;  363,546;  172,784; 1637,377;13,02489
 214,73;  359,220;  174,092; 1688,147;12,22732
 215,33;  342,161;  139,938; 1709,522;12,88387
 215,93;  389,710;  180,246; 1832,540;12,67719
 216,53;  355,975;  151,784; 1917,011;11,56739
 217,13;  430,009;  199,399; 2118,437;12,01696
 217,73;  430,614;  188,861; 2304,570;11,42656
 218,33;  441,905;  125,784; 2496,165;13,33630
 218,93;  494,148;  165,015; 2753,964;12,71296
 219,53;  537,049;  172,015; 3057,488;12,65077
 220,13;  539,591;  141,092; 3339,966;12,45748
 220,73;  609,064;  173,553; 3689,397;12,38710
 221,32;  642,106;  170,707; 4050,267;12,15084
 221,92;  692,065;  181,246; 4442,033;11,98885
 222,52;  724,645;  165,553; 4827,495;11,99267
 223,12;  792,154;  168,553; 5229,616;12,32153
 223,72;  843,682;  176,938; 5562,170;12,38098
 224,32;  871,610;  178,630; 5973,145;11,95923
 224,92;  892,884;  151,938; 6253,137;12,14427
 225,52;  953,743;  176,784; 6543,064;12,20429
 226,12;  977,695;  179,246; 6821,149;12,02139
 226,72;  985,520;  137,938; 7142,055;12,10119
 227,31; 1014,640;  144,784; 7465,278;11,88247
 227,91; 1078,775;  168,861; 7770,102;11,97060
 228,51; 1137,582;  171,245; 8122,020;12,15400
 229,11; 1162,027;  166,707; 8500,207;11,94360
 229,71; 1184,256;  159,707; 8763,369;11,90829
 230,31; 1216,349;  157,938; 9066,307;11,88108
 230,91; 1236,414;  152,784; 9328,972;11,80916
 231,51; 1281,196;  147,707; 9661,178;11,91456
 232,10; 1281,708;  152,092; 9909,173;11,57740
 232,70; 1320,267;  179,783;10116,699;11,47724
 233,30; 1375,047;  181,784;10333,496;11,75430
 233,90; 1375,398;  166,399;10412,258;11,79988
 234,50; 1370,871;  168,707;10439,751;11,70440
 235,10; 1397,884;  152,476;10513,368;12,02027
 235,70; 1428,383;  173,245;10501,968;12,15192
 236,29; 1421,801;  183,399;10427,118;12,08938
 236,89; 1380,281;  158,937;10362,143;11,97020
 237,49; 1407,985;  171,861;10225,261;12,29559
 238,09; 1402,290;  163,861; 9939,937;12,66796
 238,69; 1408,294;  179,399; 9752,122;12,83746
 239,29; 1389,108;  157,092; 9446,017;13,26328
 239,89; 1362,930;  168,322; 9107,227;13,36415
 240,48; 1367,410;  161,245; 8762,468;14,02318
 241,08; 1360,873;  151,630; 8411,272;14,64038
 241,68; 1386,749;  186,399; 8142,624;15,08692
 242,28; 1336,324;  158,861; 7837,571;15,33413
 242,88; 1382,228;  189,015; 7553,776;16,20166
 243,48; 1388,072;  195,169; 7309,707;16,76712
 244,07; 1375,895;  181,015; 7133,171;17,18719
 244,67; 1436,924;  178,322; 6993,872;18,46662
 245,27; 1449,170;  182,784; 6864,650;18,95259
 245,87; 1499,585;  192,246; 6758,702;19,90935
 246,47; 1531,358;  176,553; 6778,657;20,52080
 247,06; 1571,707;  163,707; 6809,359;21,18678
 247,66; 1649,602;  164,476; 6859,527;22,18244
 248,26; 1739,215;  204,245; 7030,689;22,48564
 248,86; 1849,877;  179,476; 7173,764;23,88235
 249,46; 1870,436;  148,553; 7392,471;23,77005
 250,05; 2051,968;  182,015; 7742,284;24,73395
 250,65; 2155,680;  150,168; 8058,037;25,36097
 251,25; 2320,448;  159,245; 8533,670;25,80718
 251,85; 2475,034;  175,707; 9087,178;25,80188
 252,44; 2653,611;  137,707; 9637,951;26,48252
 253,04; 2884,218;  179,092;10310,859;26,69945
 253,64; 3068,559;  132,937;10994,460;27,02771
 254,24; 3371,747;  177,476;11813,885;27,45066
 254,84; 3604,975;  162,246;12648,163;27,57290
 255,43; 3884,839;  169,168;13613,715;27,63701
 256,03; 4183,606;  171,553;14370,735;28,25553
 256,63; 4406,171;  175,245;15429,520;27,73600
 257,23; 4652,322;  162,476;16196,361;28,00223
 257,82; 4917,155;  179,476;17059,810;28,06626
 258,42; 5106,914;  139,629;17736,429;28,22834
 259,02; 5385,980;  177,092;18626,956;28,23267
 259,62; 5545,410;  153,937;19238,626;28,25025
 260,21; 5680,397;  175,245;19667,071;28,24339
 260,81; 5791,637;  171,476;20110,119;28,18728
 261,41; 5874,083;  157,091;20588,282;27,98169
 262,01; 5979,106;  197,629;20985,359;27,81197
 262,60; 5984,014;  147,168;21219,977;27,69847
 263,20; 6066,317;  166,245;21594,131;27,53455
 263,80; 6062,099;  181,014;21742,764;27,27555
 264,40; 6049,981;  155,168;21874,356;27,14104
 264,99; 6039,360;  175,860;22059,488;26,79400
 265,59; 5941,273;  158,629;22162,901;26,27964
 266,19; 5984,474;  149,552;22378,701;26,24897
 266,78; 5984,412;  192,783;22401,840;26,07778
 267,38; 5935,238;  166,552;22464,166;25,87132
 267,98; 5826,547;  160,245;22480,331;25,38656
 268,58; 5733,743;  175,475;22545,082;24,84741
 269,17; 5667,639;  173,629;22548,340;24,55455
 269,77; 5600,600;  177,937;22218,318;24,60331
 270,37; 5457,122;  148,091;22129,278;24,15261
 270,96; 5412,215;  205,937;22046,076;23,83812
 271,56; 5234,445;  153,476;21848,667;23,41979
 272,16; 5157,668;  158,783;21674,511;23,23363
 272,75; 5061,665;  168,630;21639,813;22,78885
 273,35; 5006,510;  165,937;21632,931;22,54891
 273,95; 4903,040;  174,091;21506,905;22,16749
 274,54; 4840,884;  140,861;21570,843;21,93200
 275,14; 4869,397;  181,168;21997,303;21,48973
 275,74; 4774,488;  146,322;22046,791;21,13272
 276,33; 4832,473;  191,168;22486,499;20,81738
 276,93; 4827,157;  176,322;22777,492;20,57785
 277,53; 4888,945;  168,476;23264,902;20,43809
 278,12; 4905,915;  155,784;23713,001;20,16423
 278,72; 5010,035;  184,553;24239,738;20,06005
 279,32; 5086,509;  158,245;24752,421;20,03834
 279,91; 5159,236;  156,476;25397,002;19,82035
 280,51; 5247,370;  166,553;25968,428;19,69166
 281,11; 5352,664;  167,322;26603,457;19,61460
 281,70; 5394,703;  141,168;26971,705;19,58043
 282,30; 5497,907;  152,476;27555,128;19,50698
 282,90; 5569,087;  160,476;27877,232;19,51387
 283,49; 5682,885;  183,399;28390,562;19,49677
 284,09; 5807,766;  193,091;28765,822;19,65046
 284,69; 5880,545;  185,245;28991,741;19,77089
 285,28; 5953,852;  192,861;29418,038;19,71243
 285,88; 6011,002;  196,245;29544,230;19,81314
 286,47; 6066,404;  174,168;29594,987;20,02744
 287,07; 6203,518;  198,707;29572,252;20,44292
 287,67; 6282,841;  191,784;29813,630;20,56272
 288,26; 6386,725;  162,476;29639,615;21,11551
 288,86; 6459,585;  160,399;29693,179;21,32947
 289,46; 6634,293;  178,476;29782,109;21,80752
 290,05; 6753,304;  165,938;29886,424;22,16439
 290,65; 6930,520;  170,168;30124,697;22,56872
 291,24; 7180,215;  174,784;30247,304;23,29513
 291,84; 7355,248;  194,091;30351,905;23,74561
 292,44; 7457,725;  164,553;30411,843;24,11182
 293,03; 7720,583;  221,015;30532,416;24,74174
 293,63; 7827,976;  167,707;30676,917;25,10806
 294,22; 7980,757;  185,861;30784,268;25,47484
 294,82; 8031,637;  173,014;30631,574;25,80103
 295,41; 8101,010;  159,322;30405,474;26,25685
 296,01; 8184,887;  217,014;30330,710;26,45930
 296,61; 8152,593;  178,861;30135,709;26,61739
 297,20; 8063,567;  175,706;29716,181;26,70188
 297,80; 8071,868;  182,476;29679,185;26,74668
 298,39; 7994,111;  163,168;29242,947;26,92917
 298,99; 7984,479;  162,245;29073,160;27,05634
 299,58; 7923,549;  176,784;28989,549;26,88657
 300,18; 7917,455;  191,707;28857,804;26,95082
 300,78; 7775,488;  167,399;28550,031;26,80544
 301,37; 7761,743;  183,706;28489,365;26,77216
 301,97; 7735,567;  178,014;28456,025;26,72590
 302,56; 7699,297;  175,322;28378,369;26,67788
 303,16; 7633,699;  166,245;28297,293;26,54524
 303,75; 7621,687;  168,245;28462,454;26,34264
 304,35; 7594,377;  167,092;28654,021;26,07261
 304,94; 7614,069;  169,553;28587,320;26,19670
 305,54; 7554,029;  190,861;28536,882;25,97602
 306,13; 7487,836;  144,092;28414,785;25,97653
 306,73; 7362,213;  155,476;28197,486;25,69979
 307,33; 7336,904;  188,861;28209,901;25,50956
 307,92; 7338,078;  169,245;28305,039;25,47940
 308,52; 7370,933;  156,707;28673,298;25,29835
 309,11; 7488,729;  169,783;29131,119;25,27144
 309,71; 7439,277;  145,552;29352,016;24,97298
 310,30; 7482,235;  157,322;29495,275;24,96736
 310,90; 7539,158;  172,399;29797,736;24,86641
 311,49; 7526,434;  170,630;29934,811;24,71361
 312,09; 7532,488;  143,784;30172,965;24,60508
 312,68; 7672,712;  198,015;30429,051;24,72524
 313,28; 7561,386;  155,630;30530,808;24,38095
 313,87; 7565,254;  141,784;30589,707;24,38088
 314,47; 7591,123;  161,553;30835,915;24,22078
 315,06; 7612,931;  154,476;30935,019;24,23107
 315,66; 7631,565;  147,476;31114,349;24,16805
 316,25; 7555,653;  131,937;30991,372;24,05655
 316,85; 7567,880;  142,553;31008,560;24,05665
 317,44; 7548,205;  155,014;31159,464;23,84558
 318,04; 7464,428;  142,399;31143,701;23,61846
 318,63; 7494,692;  143,246;31146,682;23,71171
 319,22; 7537,129;  167,168;31318,948;23,65823
 319,82; 7482,675;  153,014;31304,631;23,52899
 320,41; 7471,434;  172,784;31212,327;23,51404
 321,01; 7434,390;  174,707;31347,255;23,28871
 321,60; 7414,331;  160,937;31342,388;23,26189
 322,20; 7404,657;  146,784;31280,103;23,31224
 322,79; 7443,717;  195,707;31382,292;23,24080
 323,39; 7374,109;  161,861;31403,500;23,08537
 323,98; 7377,491;  156,938;31341,959;23,15391
 324,58; 7361,334;  159,707;31195,110;23,20456
 325,17; 7355,249;  163,707;31072,248;23,26717
 325,76; 7313,846;  175,938;30830,761;23,28478
 326,36; 7209,878;  142,707;30506,975;23,27463
 326,95; 7155,713;  176,476;30215,690;23,23375
 327,55; 7112,189;  153,399;29913,532;23,38293
 328,14; 7063,086;  144,707;29532,810;23,54143
 328,74; 7039,614;  184,937;29144,585;23,66975
 329,33; 6926,778;  175,168;28775,568;23,60670
 329,92; 6836,539;  152,553;28312,568;23,73573
 330,52; 6728,331;  155,092;27684,693;23,87699
 331,11; 6655,270;  166,322;27316,815;23,89993
 331,71; 6541,313;  160,553;26723,233;24,02152
 332,30; 6482,454;  179,707;26328,397;24,10349
 332,89; 6461,439;  181,861;25922,335;24,39574
 333,49; 6300,037;  176,784;25363,809;24,31114
 334,08; 6257,557;  169,399;25043,413;24,47598
 334,68; 6220,761;  168,245;24616,386;24,75655
 335,27; 6196,349;  173,399;24417,321;24,84313
 335,86; 6184,732;  198,707;24067,276;25,07911
 336,46; 6171,543;  180,169;23925,077;25,23225
 337,05; 6151,545;  165,399;23784,961;25,34402
 337,65; 6134,086;  144,937;23626,505;25,50574
 338,24; 6267,133;  207,399;23718,294;25,77415
 338,83; 6267,618;  187,168;23585,085;25,98714
 339,43; 6290,078;  161,630;23533,975;26,22094
 340,02; 6357,271;  163,091;23450,531;26,59880
 340,61; 6412,530;  154,245;23437,823;26,87853
 341,21; 6486,460;  200,630;23488,124;26,99230
 341,80; 6504,062;  158,630;23410,406;27,29010
 342,40; 6653,278;  166,707;23537,100;27,75550
 342,99; 6720,285;  165,245;23603,105;27,96774
 343,58; 6813,085;  166,784;23759,107;28,17146
 344,18; 6958,842;  170,092;23859,655;28,65714
 344,77; 7145,759;  168,937;24178,636;29,05835
 345,36; 7308,559;  140,784;24414,383;29,52910
 345,96; 7453,657;  190,784;24733,960;29,59223
 346,55; 7646,534;  159,938;24919,565;30,23711
 347,14; 7822,482;  138,784;25212,150;30,64486
 347,74; 7993,777;  137,938;25687,311;30,74768
 348,33; 8325,578;  166,169;26237,118;31,29694
 348,92; 8624,661;  180,708;26796,689;31,72513
 349,52; 8864,110;  141,631;27234,149;32,19516
 350,11; 8986,926;  154,783;27284,088;32,55573
 350,70; 9118,326;  158,707;27335,696;32,96766
 351,29; 9121,840;  154,014;27158,678;33,20843
 351,89; 9261,020;  176,553;27113,231;33,72527
 352,48; 9346,198;  143,322;27210,647;33,99995
 353,07; 9428,450;  163,861;27085,958;34,41258
 353,67; 9506,589;  177,554;27112,971;34,63483
 354,26; 9590,345;  161,938;26877,576;35,29171
 354,85; 9605,315;  170,476;26743,840;35,50487
 355,45; 9670,887;  158,476;26523,389;36,07981
 356,04; 9686,668;  161,246;26489,122;36,17999
 356,63; 9774,369;  185,091;26331,909;36,67474
 357,22; 9839,687;  167,552;26172,459;37,19350
 357,82; 9895,690;  171,091;26074,398;37,54192
 358,41; 9963,481;  172,784;25919,270;38,02731
 359,00; 9943,557;  153,014;25748,633;38,25085
 359,60;10067,347;  172,399;25672,483;38,80359
 360,19;10102,030;  165,399;25558,761;39,13082
 360,78;10189,975;  168,553;25469,267;39,60925
 361,37;10182,966;  159,476;25195,281;40,03662
 361,97;10221,818;  166,861;25071,610;40,37365
 362,56;10235,765;  145,553;24792,646;40,93875
 363,15;10215,209;  181,553;24556,733;41,16341
 363,74;10157,591;  164,168;24311,664;41,38492
 364,34;10119,165;  185,014;23974,576;41,75844
 364,93;10049,975;  160,553;23631,937;42,13395
 365,52; 9971,040;  145,553;23157,584;42,69717
 366,11;10000,958;  164,014;23012,598;43,05275
 366,71; 9899,975;  164,399;22691,255;43,21764
 367,30; 9923,064;  166,784;22351,606;43,97727
 367,89; 9912,462;  195,553;22201,245;44,15634
 368,48; 9853,418;  178,476;21895,463;44,55011
 369,07; 9754,402;  177,630;21496,927;44,92068
 369,67; 9737,105;  185,860;21234,299;45,37745
 370,26; 9701,152;  176,168;21015,110;45,70762
 370,85; 9652,254;  166,784;20829,080;45,90714
 371,44; 9619,717;  158,938;20624,204;46,22847
 372,03; 9558,490;  161,476;20387,002;46,46116
 372,63; 9466,643;  145,476;20125,440;46,65257
 373,22; 9491,372;  172,630;19894,386;47,25107
 373,81; 9376,083;  149,553;19640,653;47,33714
 374,40; 9319,487;  154,476;19467,391;47,45535
 374,99; 9295,971;  153,784;19249,830;47,87477
 375,59; 9241,884;  155,938;18966,150;48,30326
 376,18; 9292,507;  186,553;18915,286;48,62023
 376,77; 9194,226;  179,168;18659,710;48,78135
 377,36; 9305,896;  186,553;18690,415;49,28346
 377,95; 9159,648;  176,399;18413,439;49,25826
 378,55; 9130,929;  152,784;18301,332;49,47032
 379,14; 9157,494;  166,861;18214,065;49,81732
 379,73; 9210,859;  164,322;18181,161;50,21157
 380,32; 9272,604;  185,861;18198,883;50,44541
 380,91; 9227,141;  157,706;18080,312;50,60333
 381,50; 9275,217;  176,860;17985,353;51,08999
 382,10; 9239,373;  149,322;17923,191;51,14278
 382,69; 9255,982;  145,399;17867,631;51,40765
 383,28; 9287,442;  180,476;17789,727;51,71694
 383,87; 9229,331;  169,476;17665,258;51,78308
 384,46; 9231,533;  151,860;17646,239;51,90052
 385,05; 9284,046;  186,707;17675,849;52,01707
 385,64; 9352,881;  162,399;17646,906;52,56358
 386,24; 9272,322;  150,476;17650,748;52,12403
 386,83; 9408,311;  181,168;17699,870;52,67024
 387,42; 9485,246;  192,399;17807,320;52,75554
 388,01; 9641,320;  169,937;18002,987;53,11140
 388,60; 9781,083;  168,706;18166,502;53,40863
 389,19; 9909,784;  148,398;18353,236;53,61974
 389,78;10019,004;  165,090;18572,446;53,53248
 390,37;10237,110;  203,860;19029,323;53,29617
 390,96;10375,820;  174,322;19142,914;53,78100
 391,56;10431,236;  167,783;19240,471;53,81231
 392,15;10614,013;  169,706;19490,934;54,05612
 392,74;10711,075;  146,705;19614,031;54,26718
 393,33;10841,960;  163,860;19934,662;54,00944
 393,92;11063,345;  172,244;20358,535;53,95296
 394,51;11111,073;  152,244;20532,521;53,77174
 395,10;11314,205;  197,474;20657,167;54,33479
 395,69;11351,362;  169,705;20688,568;54,49452
 396,28;11465,017;  180,089;20821,138;54,67226
 396,87;11521,851;  184,166;20996,328;54,47625
 397,46;11551,076;  183,242;20987,089;54,64294
 398,06;11715,914;  196,549;21204,295;54,83389
 398,65;11699,149;  188,164;21302,211;54,51814
 399,24;11837,641;  195,702;21330,037;55,08543
 399,83;11806,377;  174,316;21377,038;54,86117
 400,42;11878,205;  206,161;21529,288;54,73889
 401,01;11935,896;  183,775;21658,712;54,72482
 401,60;11946,588;  197,850;21686,470;54,67423
 402,19;11904,040;  207,849;21587,595;54,70688
 402,78;11926,089;  219,615;21666,855;54,58266
 403,37;11781,682;  203,152;21513,101;54,33392
 403,96;11788,647;  206,534;21383,933;54,69091
 404,55;11744,521;  205,300;21282,772;54,74670
 405,14;11623,662;  197,528;21192,041;54,42438
 405,73;11622,114;  212,679;21031,306;54,80398
 406,32;11556,545;  212,523;20984,933;54,61101
 406,91;11464,886;  206,059;20662,032;55,03931
 407,50;11409,143;  209,058;20552,044;55,05625
 408,09;11206,149;  180,980;20243,622;54,95373
 408,68;11175,359;  217,749;20191,082;54,86120
 409,27;11059,340;  201,980;20060,349;54,67398
 409,86;11012,212;  206,674;19937,494;54,76477
 410,45;10983,681;  226,291;19877,180;54,74251
 411,04;10869,058;  243,216;19756,870;54,45337
 411,63;10723,752;  232,757;19535,596;54,34949
 412,22;10612,780;  216,758;19281,942;54,52883
 412,81;10522,407;  225,759;19137,775;54,44501
 413,40;10314,625;  240,914;18788,832;54,31181
 413,99;10146,304;  265,452;18552,962;54,03060
 414,58; 9955,197;  217,683;18250,906;53,99763
 415,17; 9831,552;  213,990;18050,020;53,92210
 415,76; 9740,954;  222,297;17923,179;53,77504
 416,35; 9630,658;  200,990;17743,747;53,75249
 416,94; 9639,609;  235,297;17851,834;53,38343
 417,53; 9722,490;  218,913;18020,796;53,38524
 418,12; 9732,999;  211,913;18102,893;53,21724
 418,71; 9914,937;  225,068;18433,346;53,21684
 419,30; 9937,500;  221,221;18501,691;53,15114
 419,89;10011,499;  210,067;18659,205;53,12677
 420,48;10156,867;  248,837;18894,403;53,13880
 421,07;10156,431;  240,452;18965,098;52,95683
 421,66;10134,276;  212,914;18944,137;52,96697
 422,25;10079,830;  217,531;18915,524;52,74523
 422,84;10097,495;  236,915;18909,857;52,80678
 423,43; 9922,740;  220,069;18581,358;52,84308
 424,02; 9786,766;  239,684;18379,745;52,62982
 424,60; 9536,694;  224,070;17906,969;52,66458
 425,19; 9394,596;  229,839;17758,250;52,28515
 425,78; 9388,450;  243,146;17800,046;52,08952
 426,37; 9313,206;  238,301;17603,161;52,26017
 426,96; 9187,580;  231,608;17523,253;51,79364
 427,55; 9120,945;  220,070;17382,794;51,86167
 428,14; 8988,418;  205,378;17201,233;51,67754
 428,73; 8883,415;  234,685;16981,372;51,64442
 429,32; 8878,257;  232,377;16984,784;51,60978
 429,91; 8850,727;  247,609;16950,886;51,50557
 430,50; 8762,570;  241,378;16817,021;51,40791
 431,08; 8672,457;  259,994;16731,149;51,07391
 431,67; 8614,115;  301,763;16692,282;50,71439
 432,26; 8536,622;  293,994;16476,421;50,93567
 432,85; 8367,455;  315,533;16097,496;51,01978
 433,44; 8155,028;  315,148;15809,732;50,59755
 434,03; 7996,621;  338,918;15524,919;50,42607
 434,62; 7735,356;  295,764;15148,057;50,09053
 435,21; 7674,782;  322,686;15054,200;49,90726
 435,79; 7539,019;  300,302;14848,549;49,75662
 436,38; 7529,803;  295,611;14772,211;49,97162
 436,97; 7411,424;  289,995;14742,770;49,27378
 437,56; 7333,270;  300,073;14489,305;49,56715
 438,15; 7266,634;  276,996;14487,696;49,18574
 438,74; 7264,383;  287,611;14546,844;48,92810
 439,33; 7252,493;  261,457;14518,148;49,03687
 439,91; 7227,080;  239,150;14570,380;48,76016
 440,50; 7237,383;  269,073;14542,370;48,82060
 441,09; 7205,571;  270,920;14656,883;48,20429
 441,68; 7258,373;  255,074;14705,853;48,46313
 442,27; 7187,129;  249,535;14773,763;47,76566
 442,86; 7156,654;  235,613;14659,282;47,98391
 443,44; 7172,591;  244,382;14721,220;47,85719
 444,03; 7197,130;  289,767;14732,781;47,82494
 444,62; 7064,190;  243,536;14585,354;47,55780
 445,21; 6986,798;  258,767;14465,978;47,35645
 445,80; 6913,810;  268,306;14441,635;46,88739
 446,39; 6769,636;  272,459;14150,884;46,81494
 446,97; 6690,466;  234,460;13972,092;46,99504
 447,56; 6584,679;  238,076;13803,013;46,78682
 448,15; 6493,613;  245,691;13657,805;46,58417
 448,74; 6439,638;  259,845;13426,258;46,93604
 449,33; 6292,512;  248,768;13344,934;46,14896
 449,91; 6216,764;  251,153;13131,960;46,31396
 450,50; 6112,935;  231,307;12895,760;46,44202
 451,09; 6028,472;  263,999;12832,109;45,86587
 451,68; 5969,610;  282,846;12787,013;45,47895
 452,26; 5895,805;  269,846;12717,253;45,19784
 452,85; 5825,151;  251,384;12611,106;45,09622
 453,44; 5838,634;  268,846;12614,261;45,11624
 454,03; 5792,927;  253,154;12532,996;45,11274
 454,61; 5772,130;  247,462;12588,161;44,76787
 455,20; 5846,974;  272,308;12704,563;44,84035
 455,79; 5814,492;  272,231;12725,471;44,50457
 456,38; 5859,677;  267,924;12806,392;44,59678
 456,97; 5839,917;  257,616;12850,828;44,32786
 457,55; 5793,990;  256,078;12827,425;44,05186
 458,14; 5794,358;  278,539;12830,692;43,94321
 458,73; 5765,564;  270,232;12766,786;43,97478
 459,31; 5757,652;  295,540;12818,970;43,61515
 459,90; 5799,133;  294,155;12832,687;43,90448
 460,49; 5844,854;  309,770;12948,939;43,79310
 461,08; 5821,834;  255,848;13048,019;43,51088
 461,66; 5843,100;  264,309;13130,625;43,35966
 462,25; 5853,078;  265,925;13210,647;43,16163
 462,84; 5839,099;  301,002;13282,304;42,66211
 463,43; 5722,475;  245,156;13219,031;42,21807
 464,01; 5780,760;  273,079;13134,724;42,82252
 464,60; 5756,714;  290,925;13092,651;42,69572
 465,19; 5602,664;  242,541;12903,764;42,33495
 465,77; 5619,090;  268,003;12835,774;42,57785
 466,36; 5564,723;  283,233;12722,689;42,45756
 466,95; 5430,116;  261,310;12466,638;42,34877
 467,53; 5302,614;  259,618;12208,724;42,20396
 468,12; 5175,245;  292,080;12042,038;41,55900
 468,71; 5097,348;  274,156;11800,133;41,84627
 469,29; 4934,441;  255,695;11587,534;41,28849
 469,88; 4855,668;  264,080;11386,196;41,28340
 470,47; 4921,163;  296,926;11494,201;41,29787
 471,06; 4853,886;  271,234;11430,588;41,06557
 471,64; 4886,066;  282,311;11545,297;40,87509
 472,23; 4843,568;  265,158;11595,511;40,40837
 472,81; 4850,301;  261,004;11680,731;40,18745
 473,40; 4894,857;  269,235;11837,771;39,98450
 473,99; 5030,506;  324,312;11971,394;40,40663
 474,57; 4992,056;  265,542;12141,692;39,79837
 475,16; 5043,930;  285,235;12187,502;39,98142
 475,75; 5072,361;  283,004;12283,750;39,90883
 476,33; 5104,894;  299,774;12373,650;39,79766
 476,92; 5073,538;  285,773;12474,981;39,27872
 477,51; 5106,454;  291,004;12487,230;39,48311
 478,09; 5105,521;  272,774;12523,321;39,44924
 478,68; 5061,117;  292,158;12427,285;39,29880
 479,27; 5077,067;  306,620;12449,480;39,28603
 479,85; 5056,949;  285,851;12471,787;39,15250
 480,44; 5079,336;  275,005;12655,767;38,80481
 481,02; 5584,269;  288,851;14348,509;37,66392
 481,61; 6239,783;  306,389;15935,860;37,96286
 482,20; 6585,660;  306,082;16932,719;37,76818
 482,78; 6857,832;  328,928;17581,964;37,84206
 483,37; 7008,852;  314,313;17999,930;37,85301
 483,95; 7122,096;  341,544;18217,778;37,93054
 484,54; 7175,363;  340,851;18283,114;38,09170
 485,13; 7096,128;  317,006;18159,890;37,99342
 485,71; 7018,454;  300,083;17960,696;38,04155
 486,30; 6933,214;  332,159;17723,941;37,95502
 486,88; 6779,003;  353,775;17320,461;37,86967
 487,47; 6556,408;  348,852;16635,289;38,11488
 488,05; 6227,580;  335,391;15825,696;38,03792
 488,64; 5733,531;  345,929;14497,680;38,07021
 489,23; 5110,841;  348,237;12624,971;38,79374
 489,81; 4399,663;  332,698;11145,114;37,61384
 490,40; 4172,619;  291,237;10686,009;37,33975
 490,98; 4081,563;  285,775;10477,883;37,24242
 491,57; 4037,595;  317,621;10429,514;36,78810
 492,15; 4004,803;  289,929;10349,448;36,92894
 492,74; 3982,832;  301,698;10268,713;36,93316
 493,32; 3935,097;  312,083;10178,985;36,71887
 493,91; 3869,393;  291,314;10106,632;36,45403
 494,50; 3865,119;  301,468;10051,382;36,55058
 495,08; 3798,422;  282,622;10034,792;36,05146
 495,67; 3828,820;  295,006;10035,886;36,27818
 496,25; 3713,095;  246,545; 9886,989;35,95841
 496,84; 3693,294;  258,545; 9887,569;35,67079
 497,42; 3711,360;  249,468; 9841,546;36,09116
 498,01; 3686,915;  276,545; 9813,590;35,75919
 498,59; 3597,780;  248,391; 9767,215;35,18700
 499,18; 3589,542;  265,314; 9682,160;35,30086
 499,76; 3572,333;  267,391; 9594,430;35,43399
 500,35; 3492,267;  265,084; 9457,691;35,10629
 500,93; 3474,944;  243,853; 9392,774;35,31664
 501,52; 3407,234;  255,084; 9383,466;34,53132
 502,10; 3411,830;  267,084; 9321,120;34,73309
 502,69; 3337,509;  248,238; 9212,643;34,46153
 503,27; 3267,842;  231,161; 9016,461;34,56548
 503,86; 3249,634;  255,238; 8969,753;34,36101
 504,44; 3165,322;  231,084; 8841,801;34,07658
 505,03; 3100,262;  213,315; 8589,612;34,46567
 505,61; 3070,574;  235,315; 8544,576;34,12167
 506,19; 3026,034;  259,854; 8418,156;33,90633
 506,78; 2899,474;  221,700; 8233,793;33,42164
 507,36; 2878,532;  239,161; 8064,630;33,72796
 507,95; 2835,283;  244,085; 7971,603;33,53208
 508,53; 2767,065;  232,162; 7836,694;33,33411
 509,12; 2701,575;  232,777; 7727,365;32,94107
 509,70; 2678,030;  247,470; 7609,319;33,01561
 510,29; 2598,853;  258,316; 7479,166;32,41359
 510,87; 2526,262;  228,469; 7307,379;32,45970
 511,46; 2494,249;  224,623; 7165,276;32,70046
 512,04; 2451,728;  224,470; 7058,341;32,59145
 512,62; 2405,931;  243,316; 6916,060;32,40968
 513,21; 2353,268;  208,701; 6776,168;32,65441
 513,79; 2317,187;  231,317; 6683,793;32,32666
 514,38; 2240,229;  212,316; 6505,763;32,22261
 514,96; 2246,278;  258,778; 6439,305;32,15745
 515,54; 2154,008;  213,932; 6286,836;31,94644
 516,13; 2154,702;  232,393; 6219,960;32,10501
 516,71; 2085,507;  244,317; 6133,113;31,26600
 517,30; 2061,566;  217,009; 6020,319;31,78456
 517,88; 2031,030;  252,625; 5941,862;31,25911
 518,46; 1969,191;  217,471; 5848,930;31,10597
 519,05; 1960,539;  225,394; 5810,047;31,06987
 519,63; 1943,408;  233,163; 5772,828;30,87272
 520,22; 1922,382;  248,933; 5710,567;30,64008
 520,80; 1861,393;  229,625; 5628,830;30,22238
 521,38; 1871,995;  258,317; 5606,652;30,17159
 521,97; 1822,894;  230,702; 5579,793;29,76566
 522,55; 1812,229;  247,548; 5586,743;29,30555
 523,13; 1792,471;  213,395; 5574,479;29,45443
 523,72; 1782,425;  223,548; 5551,013;29,26114
 524,30; 1841,624;  242,087; 5725,300;29,17153
 524,89; 1799,521;  223,548; 5671,748;28,92649
 525,47; 1818,928;  249,164; 5800,106;28,27924
 526,05; 1822,639;  214,856; 5846,348;28,54984
 526,64; 1851,689;  239,626; 5972,640;28,11896
 527,22; 1862,075;  240,856; 6060,664;27,85691
 527,80; 1891,642;  274,241; 6163,749;27,46241
 528,39; 1876,379;  226,472; 6203,723;27,60311
 528,97; 1887,076;  233,780; 6406,379;26,78444
 529,55; 1930,889;  245,549; 6572,332;26,63819
 530,14; 1980,808;  257,395; 6736,034;26,60146
 530,72; 1974,297;  232,703; 6807,701;26,48813
 531,30; 1953,819;  212,395; 6936,758;25,89723
 531,89; 2007,632;  230,549; 7005,597;26,22982
 532,47; 2046,087;  257,626; 7068,936;26,25722
 533,05; 2022,882;  249,933; 7111,273;25,83969
 533,63; 2058,078;  273,780; 7182,997;25,82490
 534,22; 2016,052;  234,395; 7187,585;25,62358
 534,80; 2037,249;  263,626; 7271,718;25,30820
 535,38; 2112,650;  306,703; 7317,224;25,76052
 535,97; 2026,726;  259,242; 7292,035;25,13204
 536,55; 2077,738;  294,396; 7356,638;25,25179
 537,13; 2056,848;  303,934; 7324,098;24,96971
 537,71; 2060,222;  340,318; 7384,528;24,41585
 538,30; 2079,524;  369,319; 7491,504;24,01236
 538,88; 2102,826;  382,627; 7556,569;23,97844
 539,46; 2159,429;  445,011; 7764,361;23,42309
 540,05; 2195,635;  462,627; 7865,776;23,40907
 540,63; 2223,368;  499,242; 8031,994;22,88840
 541,21; 2233,427;  535,011; 8159,158;22,27680
 541,79; 2285,702;  580,473; 8262,843;22,19665
 542,38; 2292,778;  595,934; 8415,206;21,70079
 542,96; 2334,786;  599,088; 8555,307;21,81561
 543,54; 2342,664;  630,627; 8746,861;21,09398
 544,12; 2338,138;  584,242; 8892,170;21,11111
 544,70; 2336,911;  574,550; 8928,890;21,09515
 545,29; 2383,323;  563,550; 9109,493;21,29400
 545,87; 2366,009;  542,627; 9096,536;21,31637
 546,45; 2336,780;  498,319; 9126,903;21,30664
 547,03; 2369,852;  484,319; 9142,596;21,77723
 547,62; 2348,509;  464,473; 9344,364;21,21688
 548,20; 2389,946;  456,165; 9505,702;21,36883
 548,78; 2374,654;  423,781; 9602,102;21,25522
 549,36; 2396,645;  387,704; 9792,152;21,36160
 549,94; 2369,454;  360,781; 9906,351;21,04299
 550,53; 2416,010;  359,550;10086,325;21,14226
 551,11; 2417,962;  344,320;10255,806;20,92161
 551,69; 2439,280;  344,397;10558,738;20,50924
 552,27; 2459,260;  321,935;10774,899;20,44707
 552,85; 2492,972;  311,166;11107,868;20,20808
 553,44; 2546,889;  295,858;11402,835;20,26682
 554,02; 2591,216;  324,781;11672,047;19,97340
 554,60; 2585,187;  275,551;11956,026;19,77348
 555,18; 2665,996;  307,012;12281,991;19,69928
 555,76; 2720,233;  280,243;12620,628;19,77240
 556,34; 2745,830;  286,474;12935,383;19,44323
 556,93; 2773,857;  280,166;13250,413;19,22624
 557,51; 2782,931;  275,474;13594,636;18,82594
 558,09; 2891,806;  288,474;13929,594;19,08445
 558,67; 2912,947;  297,628;14272,731;18,71413
 559,25; 2954,997;  291,935;14477,462;18,77309
 559,83; 2955,370;  273,705;14735,801;18,54271
 560,41; 3028,995;  271,551;15005,865;18,71444
 561,00; 3046,211;  278,166;15387,354;18,32028
 561,58; 3076,212;  267,781;15587,444;18,33219
 562,16; 3073,320;  260,781;15870,932;18,01737
 562,74; 3126,728;  247,397;16255,789;17,98639
 563,32; 3164,379;  246,551;16615,940;17,82491
 563,90; 3250,425;  279,705;16952,388;17,81789
 564,48; 3258,160;  273,628;17305,579;17,52314
 565,06; 3356,661;  268,705;17902,399;17,51168
 565,65; 3458,867;  266,244;18439,877;17,56734
 566,23; 3602,262;  314,705;19140,403;17,46313
 566,81; 3648,007;  264,551;19746,293;17,36732
 567,39; 3768,693;  275,936;20593,039;17,19122
 567,97; 3854,272;  281,782;21133,270;17,13303
 568,55; 4014,784;  281,166;21950,295;17,23012
 569,13; 4065,978;  268,936;22517,502;17,06646
 569,71; 4140,176;  270,243;23412,456;16,72240
 570,29; 4352,080;  309,858;24323,587;16,83296
 570,87; 4428,800;  300,320;24926,702;16,76446
 571,45; 4506,812;  290,089;25475,471;16,74274
 572,03; 4506,504;  251,397;25860,842;16,61538
 572,61; 4584,777;  252,013;26487,315;16,51501
 573,20; 4672,604;  288,859;27109,281;16,34480
 573,78; 4738,242;  269,628;27641,598;16,32551
 574,36; 4823,544;  283,782;28059,576;16,34431
 574,94; 4894,393;  325,090;28409,337;16,26999
 575,52; 4828,355;  281,090;28565,045;16,07719
 576,10; 4948,531;  327,705;29191,317;16,00917
 576,68; 5007,531;  318,936;29601,254;16,01169
 577,26; 5074,246;  333,629;30309,711;15,81467
 577,84; 5115,070;  344,166;30677,894;15,72805
 578,42; 5185,062;  378,398;30917,557;15,73935
 579,00; 5053,490;  326,628;31061,640;15,37940
 579,58; 5088,092;  356,628;31166,856;15,35680
 580,16; 5042,823;  348,936;31253,465;15,18835
 580,74; 5028,135;  347,859;31459,747;15,04337
 581,32; 5009,000;  355,705;31409,553;14,98460
 581,90; 4985,277;  363,782;31468,177;14,85801
 582,48; 4958,839;  359,551;31538,891;14,75108
 583,06; 4937,825;  363,936;31677,074;14,60693
 583,64; 4921,282;  367,397;31739,099;14,51590
 584,22; 4861,789;  376,013;31577,675;14,37672
 584,80; 4772,393;  371,859;31340,733;14,20954
 585,38; 4739,525;  377,858;31069,312;14,21134
 585,96; 4691,405;  362,782;31135,240;14,06655
 586,54; 4666,713;  377,475;31164,095;13,93215
 587,12; 4620,545;  349,167;31304,739;13,79841
 587,70; 4661,871;  369,936;31469,061;13,80082
 588,28; 4587,862;  369,628;31431,263;13,58021
 588,86; 4610,406;  356,398;31530,130;13,64613
 589,44; 4554,503;  351,244;31598,637;13,45155
 590,02; 4585,680;  343,013;31888,879;13,44920
 590,59; 4557,860;  332,936;31984,269;13,34833
 591,17; 4556,445;  336,552;32163,836;13,25873
 591,75; 4582,729;  316,398;32250,099;13,35996
 592,33; 4556,992;  331,398;32514,326;13,12993
 592,91; 4563,887;  291,937;32683,470;13,18848
 593,49; 4575,937;  297,091;32940,341;13,10790
 594,07; 4545,622;  309,245;33256,207;12,85817
 594,65; 4576,075;  317,475;33184,196;12,95718
 595,23; 4589,563;  315,706;33574,507;12,85030
 595,81; 4603,412;  310,860;33637,831;12,88012
 596,39; 4587,613;  306,090;33822,798;12,77429
 596,97; 4585,007;  298,783;33854,770;12,77335
 597,55; 4524,925;  288,244;33839,828;12,62736
 598,12; 4504,940;  291,552;33895,511;12,53837
 598,70; 4486,287;  284,321;34017,938;12,45632
 599,28; 4537,338;  300,091;34110,603;12,53234
 599,86; 4515,658;  284,552;34083,593;12,51842
 600,44; 4465,728;  267,629;34239,778;12,35747
 601,02; 4498,285;  330,937;34294,249;12,27015
 601,60; 4420,043;  282,629;34301,541;12,16210
 602,18; 4446,200;  269,937;34268,544;12,28363
 602,75; 4410,331;  274,321;34310,317;12,15187
 603,33; 4386,371;  286,091;34330,380;12,04396
 603,91; 4398,293;  268,091;34373,485;12,11011
 604,49; 4402,830;  300,475;34471,374;12,00540
 605,07; 4368,815;  289,706;34433,854;11,94673
 605,65; 4354,542;  322,937;34511,664;11,79221
 606,23; 4415,029;  367,167;34698,495;11,79058
 606,80; 4393,220;  413,090;34757,079;11,58901
 607,38; 4405,037;  459,706;34743,031;11,50802
 607,96; 4442,598;  503,859;34821,253;11,47738
 608,54; 4430,201;  560,091;34840,195;11,28967
 609,12; 4428,347;  530,321;34946,206;11,32624
 609,70; 4434,677;  601,244;34939,795;11,16364
 610,27; 4432,295;  583,859;34916,033;11,20942
 610,85; 4416,586;  598,706;35029,835;11,08846
 611,43; 4409,809;  596,783;35010,973;11,07981
 612,01; 4349,787;  565,398;34824,703;11,04631
 612,59; 4343,430;  561,475;34835,522;11,03446
 613,16; 4337,822;  540,244;34684,298;11,12222
 613,74; 4320,652;  512,706;34580,891;11,17743
 614,32; 4272,720;  469,014;34567,455;11,15507
 614,90; 4277,985;  435,091;34462,245;11,29361
 615,48; 4221,787;  370,782;34170,255;11,39368
 616,05; 4191,761;  371,013;34162,678;11,30677
 616,63; 4185,195;  360,628;34057,332;11,34997
 617,21; 4192,433;  362,321;33896,375;11,42156
 617,79; 4158,296;  341,475;33903,582;11,37241
 618,36; 4162,166;  358,090;33739,000;11,39596
 618,94; 4091,073;  296,859;33508,356;11,42440
 619,52; 4091,702;  322,782;33206,371;11,46140
 620,10; 4111,201;  304,936;33196,647;11,57211
 620,67; 4075,322;  315,475;33120,689;11,46113
 621,25; 4052,411;  325,783;33071,653;11,38045
 621,83; 4014,397;  320,167;32953,706;11,32035
 622,41; 4053,229;  351,706;32885,900;11,37733
 622,98; 4024,573;  327,013;32670,890;11,43202
 623,56; 4043,494;  322,705;32683,690;11,49776
 624,14; 4003,037;  299,398;32605,341;11,46426
 624,72; 4002,715;  308,936;32450,076;11,49237
 625,29; 3971,622;  273,244;32467,739;11,48761
 625,87; 4016,560;  324,860;32472,590;11,48355
 626,45; 3998,529;  287,321;32404,655;11,55516
 627,02; 3973,779;  293,398;32353,445;11,47965
 627,60; 3947,952;  288,398;32271,875;11,44201
 628,18; 3970,501;  276,398;32301,360;11,53507
 628,76; 3958,423;  280,321;32341,711;11,47206
 629,33; 3966,257;  292,936;32349,039;11,45904
 629,91; 3980,893;  289,090;32379,340;11,50444
 630,49; 4034,446;  315,552;32581,390;11,52579
 631,06; 4000,290;  310,398;32536,574;11,44999
 631,64; 4047,841;  289,013;32579,476;11,64068
 632,22; 4015,401;  253,474;32517,364;11,65987
 632,79; 4048,990;  283,782;32729,644;11,60459
 633,37; 4084,580;  268,321;32724,494;11,75819
 633,95; 4074,719;  280,859;32873,207;11,64034
 634,52; 4098,939;  259,244;33030,019;11,71683
 635,10; 4122,283;  259,475;32900,273;11,83429
 635,68; 4180,418;  262,936;33149,483;11,91211
 636,25; 4155,237;  259,013;33224,280;11,81918
 636,83; 4179,885;  248,013;33308,326;11,89303
 637,41; 4212,068;  254,705;33345,372;11,95915
 637,98; 4246,174;  278,397;33568,635;11,91874
 638,56; 4299,017;  279,782;33621,070;12,05483
 639,13; 4252,191;  255,628;33659,049;11,96453
 639,71; 4330,682;  281,859;33809,400;12,07611
 640,29; 4292,771;  246,321;33660,891;12,10984
 640,86; 4334,330;  249,705;33802,983;12,17355
 641,44; 4373,889;  252,167;33880,151;12,25682
 642,02; 4388,756;  277,321;33788,704;12,26877
 642,59; 4407,315;  253,782;33907,334;12,34203
 643,17; 4410,644;  247,244;33894,349;12,37372
 643,74; 4410,434;  242,705;33958,132;12,36149
 644,32; 4435,993;  275,936;33810,916;12,40513
 644,89; 4440,783;  265,167;33931,854;12,40281
 645,47; 4490,958;  278,629;33873,945;12,53844
 646,05; 4451,825;  263,013;33792,652;12,49286
 646,62; 4486,153;  269,552;33811,128;12,57127
 647,20; 4510,251;  265,782;33957,296;12,59803
 647,77; 4511,733;  237,475;33814,311;12,72978
 648,35; 4520,215;  217,321;33633,172;12,87681
 648,92; 4549,851;  263,013;33807,263;12,77965
 649,50; 4528,488;  238,090;33626,662;12,84990
 650,08; 4541,662;  227,475;33696,215;12,89020
 650,65; 4575,606;  242,783;33912,460;12,86862
 651,23; 4744,550;  226,244;34674,629;13,11616
 651,80; 4876,494;  235,090;35443,028;13,18283
 652,38; 4962,976;  244,244;35773,735;13,28117
 652,95; 5044,305;  220,398;36156,442;13,42359
 653,53; 5092,479;  249,936;36303,456;13,43154
 654,10; 5161,192;  265,706;36407,778;13,54512
 654,68; 5147,982;  224,860;36276,562;13,65573
 655,25; 5169,234;  227,783;36302,269;13,69791
 655,83; 5197,101;  231,706;36514,976;13,68508
 656,40; 5241,814;  247,398;36407,067;13,81212
 656,98; 5207,219;  240,321;36276,236;13,78319
 657,55; 5209,855;  236,860;36190,712;13,83161
 658,13; 5209,876;  220,398;35822,803;14,01444
 658,70; 5185,589;  264,475;35575,741;13,93639
 659,28; 5061,225;  236,398;34649,217;14,02044
 659,85; 4951,554;  241,475;34064,154;13,92580
 660,43; 5011,651;  251,706;34264,092;13,99474
 661,00; 5011,288;  235,937;34345,953;13,99985
 661,58; 5131,539;  224,937;34643,198;14,25581
 662,15; 5102,175;  224,167;34851,520;14,08715
 662,73; 5252,658;  271,090;35154,612;14,28057
 663,30; 5249,063;  240,706;35399,934;14,24479
 663,88; 5297,776;  247,244;35554,333;14,30458
 664,45; 5324,181;  235,321;35695,886;14,35076
 665,03; 5399,279;  244,398;36017,824;14,40981
 665,60; 5542,377;  281,398;36549,531;14,50579
 666,17; 5582,859;  248,244;36517,314;14,70844
 666,75; 5585,803;  240,090;36891,021;14,58548
 667,32; 5697,670;  259,552;37209,343;14,71759
 667,90; 5777,152;  247,552;37437,358;14,86859
 668,47; 5813,019;  256,014;37596,911;14,88182
 669,05; 5854,578;  237,014;37894,002;14,91772
 669,62; 5914,830;  213,629;38049,555;15,06822
 670,19; 5950,928;  227,937;38140,493;15,09524
 670,77; 6048,487;  242,244;38302,892;15,25524
 671,34; 6083,508;  240,168;38265,214;15,36708
 671,92; 6135,221;  229,091;38587,844;15,39709
 672,49; 6166,088;  252,475;38568,166;15,43392
 673,06; 6232,570;  210,168;38603,258;15,68616
 673,64; 6244,514;  227,398;38541,888;15,70454
 674,21; 6256,842;  214,860;38523,979;15,77166
 674,79; 6372,863;  237,860;38697,840;15,95165
 675,36; 6412,422;  247,783;38771,931;16,00201
 675,93; 6430,212;  223,475;38632,869;16,15942
 676,51; 6518,848;  253,860;38824,883;16,24273
 677,08; 6525,792;  247,629;38818,975;16,27675
 677,65; 6625,659;  234,475;38969,836;16,49961
 678,23; 6626,603;  243,091;39144,619;16,40941
 678,80; 6701,393;  229,706;39197,865;16,60763
 679,38; 6713,798;  216,937;39476,648;16,54842
 679,95; 6838,204;  234,475;39625,817;16,76442
 680,52; 6930,994;  232,552;39859,370;16,90381
 681,10; 6997,091;  232,860;40365,461;16,85470
 681,67; 7068,574;  246,091;40600,322;16,90649
 682,24; 7105,748;  223,783;40562,567;17,06042
 682,82; 7245,307;  222,860;41196,351;17,13900
 683,39; 7384,174;  253,860;41451,596;17,30754
 683,96; 7403,503;  229,937;41835,842;17,24170
 684,54; 7501,062;  220,860;42144,087;17,36556
 685,11; 7578,160;  233,629;42374,101;17,42869
 685,68; 7744,334;  230,475;42814,501;17,64478
 686,25; 7666,817;  220,629;42845,361;17,46917
 686,83; 7799,761;  223,937;43093,991;17,67160
 687,40; 7914,627;  200,783;43333,929;17,88380
 687,97; 8008,956;  246,399;43764,866;17,83739
 688,55; 8046,054;  199,091;43761,958;18,01296
 689,12; 8135,536;  194,629;44011,126;18,12310
 689,69; 8197,018;  204,629;44078,602;18,21670
 690,26; 8187,654;  221,937;44168,309;18,12600
 690,84; 8258,521;  223,245;44287,939;18,23518
 691,41; 8371,234;  233,322;44337,646;18,45151
 691,98; 8456,640;  223,860;44635,814;18,53731
 692,56; 8502,353;  207,399;44761,367;18,61777
 693,13; 8542,297;  278,860;44814,997;18,55445
 693,70; 8645,471;  239,783;44999,627;18,77953
 694,27; 8688,954;  228,706;45029,565;18,88412
 694,84; 8746,821;  217,245;45176,810;18,97166
 695,42; 8863,457;  262,629;45200,440;19,13940
 695,99; 8904,939;  238,399;45436,454;19,17459
 696,56; 8872,114;  221,091;45253,469;19,21067
 697,13; 9050,519;  240,783;45638,637;19,40562
 697,71; 9006,847;  197,014;45661,498;19,37740
 698,28; 9173,176;  226,399;46003,743;19,54412
 698,85; 9200,504;  203,322;45920,142;19,68025
 699,42; 9282,141;  200,783;46172,542;19,75421
 699,99; 9336,777;  235,553;46205,248;19,79831
 700,57; 9380,259;  238,706;46156,955;19,90832
 701,14; 9518,049;  213,630;46431,201;20,13178
 701,71; 9544,301;  231,707;46570,830;20,09661
 702,28; 9589,398;  231,937;46557,614;20,19930
 702,85; 9636,881;  239,630;46695,706;20,22825
 703,43; 9735,594;  236,630;46877,336;20,36625
 704,00; 9855,230;  256,553;47110,427;20,48641
 704,57; 9864,866;  237,630;47050,365;20,56542
 705,14; 9926,733;  259,707;47202,225;20,59333
 705,71; 9984,677;  275,860;47296,701;20,64790
 706,28;10033,928;  243,476;47120,947;20,88520
 706,86;10135,180;  270,091;47452,500;20,90840
 707,43;10170,431;  278,091;47396,206;20,99477
 708,00;10218,452;  261,630;47491,144;21,08178
 708,57;10184,550;  236,937;47389,466;21,09667
 709,14;10350,878;  262,014;47408,558;21,39895
 709,71;10371,207;  249,860;47482,957;21,42850
 710,28;10486,458;  239,091;47765,741;21,56131
 710,86;10495,094;  250,399;47900,601;21,49979
 711,43;10563,500;  255,476;47990,539;21,59424
 712,00;10605,059;  253,476;47938,630;21,70819
 712,57;10675,772;  243,322;48089,953;21,80394
 713,14;10736,177;  243,553;48201,967;21,87859
 713,71;10829,967;  257,937;48067,751;22,11268
 714,28;10833,373;  238,784;48156,919;22,10977
 714,85;10822,778;  226,784;47798,088;22,27392
 715,42;10926,260;  237,399;48060,333;22,35091
 716,00;11056,512;  273,091;48067,501;22,56210
 716,57;11024,225;  234,630;48242,208;22,47478
 717,14;11063,554;  221,399;48091,684;22,64903
 717,71;11095,728;  212,784;48238,160;22,66082
 718,28;11162,287;  246,245;48321,329;22,70624
 718,85;11197,077;  223,861;48279,882;22,83422
 719,42;11310,714;  243,015;48421,973;22,97206
 719,99;11281,350;  218,553;48239,603;23,03739
 720,56;11379,447;  226,015;48519,771;23,09498
 721,13;11452,699;  226,553;48524,017;23,24376
 721,70;11482,335;  217,938;48456,108;23,35163
 722,27;11570,279;  239,630;48550,277;23,45373
 722,84;11681,992;  268,784;48640,829;23,59464
 723,41;11636,705;  219,938;48564,844;23,61524
 723,98;11719,187;  234,092;48799,705;23,64862
 724,55;11833,900;  244,092;48976,642;23,78248
 725,12;11809,460;  199,553;48797,657;23,88963
 725,69;11980,173;  224,092;48972,902;24,11563
 726,27;12006,040;  223,399;49115,455;24,09929
 726,84;12125,753;  234,092;49280,008;24,24598
 727,41;12165,004;  232,938;49317,869;24,30902
 727,98;12237,410;  242,092;49605,191;24,30017
 728,55;12371,123;  255,553;49457,129;24,62435
 729,12;12379,682;  210,015;49647,835;24,61611
 729,69;12493,626;  254,322;49753,773;24,72614
 730,26;12565,185;  250,322;49962,557;24,77230
 730,82;12621,821;  222,553;49850,187;24,98460
 731,39;12659,073;  234,630;49816,278;25,05855
 731,96;12781,094;  219,322;50163,062;25,15184
 732,53;12859,268;  241,399;50357,153;25,17745
 733,10;12930,212;  250,322;50522,091;25,22268
 733,67;13029,771;  250,015;50676,029;25,34358
 734,24;12977,638;  226,784;50330,889;25,44872
 734,81;13073,582;  264,707;50432,058;25,53229
 735,38;13017,218;  240,246;50267,072;25,54024
 735,95;13044,393;  228,784;50113,702;25,69035
 736,52;13125,337;  250,630;50226,332;25,76193
 737,09;13124,127;  240,861;49921,270;25,93229
 737,66;13178,917;  279,784;50098,669;25,89205
 738,23;13268,168;  240,169;50154,068;26,10095
 738,80;13394,497;  263,938;50414,236;26,18241
 739,37;13479,056;  257,015;50601,405;26,26319
 739,94;13464,000;  249,015;50644,881;26,22236
 740,51;13576,636;  302,861;50688,511;26,34436
 741,07;13636,887;  235,784;50668,294;26,57235
 741,64;13748,600;  269,861;50922,309;26,61024
 742,21;13808,852;  231,476;50853,323;26,82118
 742,78;13824,950;  222,938;50692,723;26,95080
 743,35;13854,201;  224,707;50855,737;26,91925
 743,92;13942,530;  261,400;51007,982;26,95971
 744,49;14024,935;  239,477;50943,151;27,18828
 745,06;14059,187;  232,861;51001,242;27,23413
 745,63;14146,669;  224,477;50902,026;27,47211
 746,19;14224,767;  228,707;50930,348;27,60475
 746,76;14212,403;  255,553;50968,747;27,52114
 747,33;14301,193;  229,784;50905,531;27,76754
 747,90;14378,752;  258,400;51071,007;27,78907
 748,47;14410,927;  249,246;51065,329;27,86850
 749,04;14409,717;  245,169;50956,729;27,93160
 749,61;14453,891;  256,169;50944,128;28,01005
 750,17;14523,297;  242,707;51023,142;28,12223
 750,74;14510,010;  256,477;50913,234;28,13748
 751,31;14567,030;  233,554;50880,248;28,30091
 751,88;14586,897;  214,477;50717,494;28,45854
 752,45;14698,380;  235,169;50994,431;28,49374
 753,02;14700,323;  247,861;50649,215;28,67475
 753,58;14810,267;  222,015;50671,768;28,91640
 754,15;14864,980;  232,707;50812,090;28,92932
 754,72;14765,617;  220,323;50637,105;28,85010
 755,29;14774,330;  213,015;50426,504;28,99881
 755,86;14884,735;  233,631;50544,826;29,12096
 756,42;14925,063;  234,400;50527,533;29,21008
 756,99;14897,623;  198,554;50505,547;29,21874
 757,56;14960,259;  216,631;50361,793;29,40190
 758,13;15012,895;  182,938;50253,192;29,61830
 758,70;15091,916;  203,861;50276,437;29,73295
 759,26;15119,552;  200,246;50461,913;29,68327
 759,83;15145,726;  199,169;50451,543;29,74299
 760,40;15234,824;  192,169;50317,558;30,01005
 760,97;15221,153;  193,400;50289,572;29,99781
 761,53;15114,635;  167,400;49973,510;30,01085
 762,10;15141,348;  173,631;49908,293;30,09514
 762,67;15243,292;  205,631;49960,154;30,22371
 763,24;15086,390;  168,554;49558,015;30,20449
 763,80;15174,256;  197,861;49772,183;30,20998
 764,37;15141,893;  203,323;49732,198;30,16133
 764,94;15057,067;  187,169;49316,828;30,26664
 765,50;15105,165;  182,631;49164,688;30,46531
 766,07;15187,186;  222,785;49319,472;30,47945
 766,64;15107,745;  200,785;48949,410;30,57924
 767,21;15076,843;  197,554;48985,578;30,49783
 767,77;15091,556;  219,938;48824,054;30,59744
 768,34;15127,500;  230,169;48763,069;30,69532
 768,91;15126,213;  226,862;48671,160;30,75563
 769,47;15188,772;  213,246;48647,713;30,91915
 770,04;15193,870;  224,862;48582,958;30,95450
 770,61;15182,429;  209,015;48406,204;31,06699
 771,18;15188,219;  203,169;48330,449;31,13629
 771,74;15296,240;  224,708;48392,079;31,28992
 772,31;15245,722;  215,323;48271,786;31,27654
 772,88;15140,050;  199,246;47999,262;31,25690
 773,44;15118,994;  201,169;47768,815;31,36128
 774,01;15188,707;  219,169;47902,445;31,39369
 774,58;15173,343;  201,785;47572,536;31,60507
 775,14;15235,364;  204,554;47771,397;31,59934
 775,71;15176,462;  204,708;47581,873;31,60120
 776,27;15285,098;  251,477;47574,734;31,76793
 776,84;15306,273;  243,862;47573,748;31,82431
 777,41;15289,678;  228,939;47399,840;31,92803
 777,97;15235,083;  213,554;47193,316;31,97447
 778,54;15225,566;  222,400;47166,792;31,95944
 779,11;15290,894;  241,169;47120,345;32,10322
 779,67;15315,069;  212,785;47053,052;32,24210
 780,24;15302,474;  229,477;46872,989;32,31531
 780,80;15308,264;  242,939;46855,234;32,32050
 781,37;15323,208;  232,708;46853,864;32,36835
 781,94;15388,690;  222,554;46577,417;32,71747
 782,50;15331,480;  236,862;46574,970;32,57496
 783,07;15444,655;  252,939;46587,908;32,78672
 783,63;15357,676;  213,785;46351,384;32,82332
 784,20;15377,620;  236,785;46298,937;32,87045
 784,77;15371,102;  227,400;46110,875;33,00470
 785,33;15316,046;  205,323;45908,197;33,06296
 785,90;15348,759;  237,093;46000,673;33,02116
 786,46;15338,779;  232,631;45769,918;33,17314
 787,03;15352,108;  209,785;45668,779;33,30985
 787,59;15404,821;  226,785;45590,486;33,45855
 788,16;15406,919;  224,016;45589,269;33,46813
 788,73;15361,478;  233,093;45375,822;33,51234
 789,29;15302,114;  227,631;45105,452;33,59005
 789,86;15362,827;  240,708;44895,467;33,86452
 790,42;15306,463;  239,016;44861,866;33,76621
 790,99;15248,946;  241,477;44486,265;33,91918
 791,55;15283,428;  220,093;44553,203;33,97762
 792,12;15281,372;  234,477;44453,602;34,02802
 792,68;15211,623;  221,093;44174,924;34,10517
 793,25;15253,567;  232,093;44065,708;34,26930
 793,81;15201,819;  254,247;43608,184;34,47800
 794,38;15005,993;  192,477;43459,429;34,23748
 794,94;15114,783;  217,324;43264,059;34,60764
 795,51;15065,419;  227,477;43071,228;34,63269
 796,07;15073,979;  222,785;42806,165;34,87556
 796,64;15100,923;  235,170;42989,487;34,77018
 797,20;15044,713;  231,554;42433,810;35,10039
 797,77;14914,579;  203,401;42211,747;35,01966
 798,33;14923,293;  218,785;42050,454;35,15162
 798,90;14955,159;  259,093;41964,161;35,23808
 799,46;14923,642;  224,016;41599,945;35,52700
 800,03;14899,432;  228,631;41487,421;35,55800
 800,59;14926,529;  234,016;41300,897;35,77704
 801,15;14832,781;  240,554;41080,527;35,73026
 801,72;14773,417;  241,016;40827,926;35,80564
 802,28;14695,515;  261,785;40532,017;35,84218
 802,85;14686,689;  222,247;40307,032;36,08462
 803,41;14625,249;  227,247;40049,893;36,15531
 803,98;14552,808;  227,247;39894,292;36,11452
 804,54;14526,290;  231,016;39624,075;36,28881
 805,11;14461,849;  226,708;39414,013;36,32590
 805,67;14442,793;  241,247;39346,720;36,31601
 806,23;14344,122;  234,862;38962,273;36,43223
 806,80;14279,066;  243,247;38930,441;36,28027
 807,36;14267,394;  256,785;38854,071;36,29947
 807,93;14273,569;  255,708;38646,240;36,51385
 808,49;14088,205;  217,247;38245,408;36,47549
 809,05;14107,226;  211,401;38158,192;36,61924
 809,62;14156,939;  239,016;38037,283;36,82159
 810,18;14150,806;  245,093;38080,836;36,75285
 810,74;14048,211;  206,093;37756,158;36,86310
 811,31;14024,386;  216,632;37561,327;36,97380
 811,87;13977,252;  218,632;37431,726;36,97253
 812,44;14037,042;  256,016;37464,125;37,03770
 813,00;13935,140;  188,478;37153,063;37,18874
 813,56;14039,007;  237,939;37204,385;37,33404
 814,13;13921,797;  233,785;37188,092;37,04037
 814,69;13973,356;  229,016;37082,491;37,29456
 815,25;13828,223;  202,170;36620,275;37,41560
 815,82;13902,552;  245,478;36517,981;37,65131
 816,38;13846,265;  250,862;36435,919;37,57187
 816,94;13756,824;  222,478;36113,241;37,70983
 817,51;13756,845;  205,786;35930,102;37,93231
 818,07;13679,558;  209,401;35732,655;37,91927
 818,63;13630,117;  230,632;35501,592;37,99013
 819,20;13648,830;  228,401;35439,915;38,11375
 819,76;13546,620;  205,401;35037,545;38,30146
 820,32;13551,102;  257,786;34969,790;38,29602
 820,89;13527,816;  243,709;34715,651;38,53600
 821,45;13450,759;  216,478;34476,742;38,62866
 822,01;13390,703;  245,478;34225,910;38,68469
 822,57;13346,032;  232,016;34047,925;38,78061
 823,14;13238,360;  202,709;33943,786;38,63437
 823,70;13273,227;  207,478;33684,416;39,02911
 824,26;13242,171;  216,786;33503,815;39,13051
 824,82;13251,269;  222,555;33390,214;39,28138
 825,39;13110,982;  207,093;33055,459;39,28320
 825,95;13228,695;  243,324;33157,397;39,45234
 826,51;13109,792;  237,170;32741,719;39,60253
 827,08;13115,352;  271,632;32869,426;39,40058
 827,64;13090,142;  246,863;32640,133;39,64799
 828,20;13046,393;  209,401;32367,763;39,91805
 828,76;13092,337;  231,247;32374,931;40,01125
 829,32;13049,666;  233,093;32209,484;40,08136
 829,89;13040,994;  208,478;32119,345;40,21362
 830,45;13017,476;  223,478;32096,667;40,14031
 831,01;13002,497;  215,709;31878,681;40,38404
 831,57;13000,210;  228,940;31849,927;40,38859
 832,14;13021,385;  213,247;31775,403;40,58068
 832,70;13010,329;  214,093;31590,494;40,78299
 833,26;12951,657;  180,555;31556,586;40,70337
 833,82;12974,755;  215,555;31468,600;40,82546
 834,38;13000,622;  202,017;31425,615;40,99017
 834,95;12943,642;  208,478;31300,168;40,96003
 835,51;12944,817;  183,478;31186,721;41,16130
 836,07;12967,992;  217,863;31286,889;41,03807
 836,63;13030,628;  237,094;31247,904;41,25508
 837,19;12975,187;  225,555;31169,457;41,20241
 837,75;12801,977;  184,863;30892,625;41,08770
 838,32;12957,305;  238,555;30922,024;41,45147
 838,88;12991,865;  235,401;31025,731;41,43010
 839,44;12936,732;  210,863;30902,130;41,46414
 840,00;12998,060;  213,555;30874,068;41,69697
 840,56;12892,389;  202,555;30617,159;41,72283
 841,12;12935,640;  200,863;30498,404;42,03238
 841,68;12913,969;  193,171;30361,727;42,16575
 842,25;12927,912;  203,094;30317,280;42,25523
 842,81;12870,702;  204,709;30157,679;42,28627
 843,37;12916,646;  198,940;30128,616;42,49196
 843,93;12904,975;  217,709;30065,631;42,50636
 844,49;13000,226;  217,632;30078,030;42,80785
 845,05;12938,093;  181,017;29989,814;42,79635
 845,61;13012,883;  221,324;30019,213;42,92774
 846,17;12962,750;  210,632;29852,766;43,02024
 846,73;12971,617;  216,248;29780,473;43,14461
 847,29;12920,484;  196,094;29625,180;43,23746
 847,86;12928,351;  195,940;29632,579;43,25362
 848,42;12848,525;  197,863;29445,055;43,25428
 848,98;12913,931;  211,709;29466,992;43,41856
 849,54;12950,490;  205,632;29404,392;43,64863
 850,10;12933,588;  209,632;29217,175;43,86430
 850,66;12939,301;  190,555;29161,190;44,00575
 851,22;12918,014;  200,940;29038,820;44,09851
 851,78;12958,496;  231,402;29025,834;44,19985
 852,34;12870,286;  216,709;28886,310;44,13587
 852,90;12776,769;  198,863;28795,940;43,98319
 853,46;12786,174;  191,094;28615,801;44,31032
 854,02;12754,195;  211,171;28607,277;44,17163
 854,58;12753,600;  207,786;28342,138;44,59251
 855,14;12733,698;  192,940;28224,460;44,73806
 855,70;12682,334;  168,402;28179,397;44,67507
 856,26;12673,432;  220,325;28090,181;44,68307
 856,82;12611,837;  195,094;27894,119;44,82737
 857,38;12675,089;  218,094;27830,749;45,11335
 857,94;12575,494;  216,402;27712,302;44,94885
 858,50;12554,207;  206,248;27584,162;45,10190
 859,06;12521,766;  196,325;27413,869;45,28491
 859,62;12528,864;  214,325;27445,115;45,22285
 860,18;12541,115;  209,017;27255,975;45,59514
 860,74;12481,444;  174,094;27075,451;45,74992
 861,30;12409,157;  182,709;26948,774;45,67891
 861,86;12487,639;  220,325;26929,788;45,92872
 862,42;12428,660;  206,863;26838,187;45,89256
 862,98;12475,065;  234,248;26816,202;46,04935
 863,54;12361,009;  211,017;26607,755;46,02839
 864,10;12440,492;  205,479;26677,154;46,21926
 864,66;12402,051;  191,094;26435,245;46,52830
 865,22;12443,302;  209,940;26314,721;46,86253
 865,78;12412,785;  204,479;26260,121;46,85475
 866,34;12401,882;  203,709;26237,212;46,85567
 866,90;12325,518;  223,094;26098,534;46,77186
 867,45;12291,847;  229,863;25859,241;47,06312
 868,01;12288,714;  203,710;25799,871;47,21413
 868,57;12154,350;  216,248;25535,732;47,14986
 869,13;12122,909;  191,248;25443,131;47,25058
 869,69;12153,007;  200,786;25428,145;47,37801
 870,25;12143,182;  199,017;25281,929;47,61873
 870,81;12144,664;  199,633;25314,559;47,56148
 871,37;12160,146;  207,633;25106,958;48,00336
 871,93;12214,782;  213,786;25059,203;48,30265
 872,49;12067,495;  218,633;24710,910;48,37795
 873,04;11997,747;  198,094;24620,463;48,31494
 873,60;12025,537;  191,633;24500,170;48,68209
 874,16;12029,558;  216,710;24490,877;48,66428
 874,72;11975,481;  214,940;24397,646;48,63203
 875,28;12042,173;  216,017;24393,569;48,91379
 875,84;12047,327;  211,633;24287,031;49,16095
 876,40;12068,404;  214,633;24244,031;49,33029
 876,95;12051,712;  214,710;24253,031;49,24222
 877,51;12139,788;  233,094;24252,646;49,57084
 878,07;12178,558;  242,248;24268,800;49,67966
 878,63;12142,250;  198,633;24325,338;49,50372
 879,19;12218,173;  225,171;24259,185;49,90012
 879,75;12183,635;  213,863;24315,877;49,66295
 880,30;12242,173;  202,633;24342,338;49,87443
 880,86;12384,635;  239,940;24542,877;49,97213
 881,42;12402,558;  198,171;24530,338;50,15742
 881,98;12447,788;  225,402;24587,185;50,17033
 882,54;12497,712;  203,248;24670,185;50,24930
 883,09;12598,788;  223,479;24794,185;50,36611
 883,65;12659,096;  199,479;24889,262;50,46467
 884,21;12872,942;  225,556;25072,800;50,90056
 884,77;12846,327;  205,171;25121,877;50,73366
 885,32;12942,019;  207,863;25254,877;50,84101
 885,88;13097,173;  228,325;25438,646;51,04595
 886,44;13069,558;  218,094;25521,031;50,79040
 887,00;13175,942;  222,863;25539,108;51,16509
 887,56;13201,096;  203,633;25738,492;50,90086
 888,11;13263,712;  208,017;25713,646;51,18750
 888,67;13412,865;  240,787;25874,185;51,38639
 889,23;13385,327;  218,094;25864,954;51,34053
 889,79;13418,250;  198,556;25870,031;51,49566
 890,34;13400,558;  199,787;25781,185;51,60301
 890,90;13522,327;  251,940;25876,877;51,78700
 891,46;13453,250;  204,556;25815,723;51,73015
 892,01;13539,019;  227,940;25795,185;52,06302
 892,57;13474,942;  243,863;25656,031;52,06592
 893,13;13410,865;  210,940;25448,723;52,30224
 893,69;13435,635;  208,325;25488,262;52,32335
 894,24;13409,712;  220,171;25362,646;52,45920
 894,80;13312,558;  224,248;25288,646;52,21873
 895,36;13309,865;  222,863;25049,800;52,71291
 895,91;13244,788;  215,325;24927,108;52,72571
 896,47;13221,481;  214,633;24837,646;52,82395
 897,03;13113,327;  210,633;24711,338;52,66254
 897,58;13099,635;  218,402;24565,723;52,90616
 898,14;13033,712;  226,325;24326,877;53,14147
 898,70;12965,942;  193,094;24235,262;53,12686
 899,25;13050,942;  215,325;24180,954;53,55844
 899,81;12926,481;  231,633;24065,185;53,26461
 900,37;12841,173;  192,248;23850,108;53,46606
 900,92;12881,173;  210,863;23841,492;53,61817
 901,48;12826,019;  213,402;23672,569;53,76413
 902,03;12814,173;  210,094;23469,262;54,18973
 902,59;12753,481;  215,017;23371,415;54,14686
 903,15;12755,250;  223,402;23337,877;54,21645
 903,70;12684,019;  220,171;23107,646;54,45707
 904,26;12674,558;  198,325;23010,415;54,69132
 904,82;12661,173;  222,094;22963,877;54,69703
 905,37;12710,635;  222,248;22839,262;55,21678
 905,93;12644,558;  199,479;22630,723;55,48100
 906,48;12672,404;  217,863;22631,646;55,56644
 907,04;12640,404;  229,633;22626,185;55,41376
 907,60;12542,942;  201,479;22360,877;55,69404
 908,15;12557,481;  188,556;22275,954;55,99992
 908,71;12591,173;  238,556;22240,646;56,14293
 909,26;12454,481;  186,556;22060,877;56,08368
 909,82;12517,404;  232,633;22001,185;56,43357
 910,37;12469,096;  243,556;21886,723;56,48684
 910,93;12413,173;  199,863;21749,723;56,67466
 911,48;12338,019;  193,710;21592,262;56,75295
 912,04;12223,481;  215,017;21567,954;56,23800
 912,60;12398,250;  208,402;21463,877;57,34922
 913,15;12307,865;  210,787;21344,954;57,23944
 913,71;12231,481;  211,787;21241,338;57,15621
 914,26;12192,635;  192,787;21165,108;57,21755
 914,82;12204,404;  207,402;21104,492;57,40992
 915,37;12214,250;  195,710;20969,262;57,85501
 915,93;12200,404;  225,633;20882,954;57,96865
 916,48;12161,327;  196,556;20764,800;58,17109
 917,04;12086,788;  221,940;20683,338;57,98650
 917,59;12118,096;  238,402;20578,800;58,40443
 918,15;11992,712;  186,556;20385,185;58,45028
 918,70;11910,712;  205,171;20309,415;58,22422
 919,26;11978,173;  209,402;20177,338;58,93834
 919,81;11871,096;  197,094;20088,108;58,68983
 920,37;11846,250;  199,633;20045,492;58,68538
 920,92;11857,788;  221,248;19921,185;59,06892
 921,48;11731,942;  190,940;19699,338;59,15915
 922,03;11722,019;  208,248;19717,185;59,01793
 922,59;11711,250;  201,633;19613,723;59,29097
 923,14;11650,481;  187,017;19494,185;59,37413
 923,69;11669,173;  217,094;19379,800;59,76233
 924,25;11666,327;  218,402;19368,569;59,77976
 924,80;11583,019;  208,710;19185,954;59,93657
 925,36;11562,404;  201,863;19153,569;59,94469
 925,91;11551,019;  207,556;19094,877;60,05861
 926,47;11440,019;  189,633;18967,646;59,91255
 927,02;11495,250;  216,940;18917,185;60,31103
 927,57;11453,635;  204,402;18711,108;60,78463
 928,13;11364,942;  199,017;18681,800;60,41258
 928,68;11335,173;  202,402;18613,338;60,46825
 929,24;11241,865;  172,556;18417,723;60,66982
 929,79;11203,481;  192,017;18326,569;60,72090
 930,34;11090,096;  211,556;18183,262;60,53149
 930,90;11102,635;  189,710;18191,262;60,62213
 931,45;11123,712;  219,017;18098,954;60,98844
 932,01;11093,250;  227,940;18012,262;61,09488
 932,56;11049,327;  226,787;17928,800;61,13734
 933,11;11046,173;  231,556;17816,723;61,49852
 933,67;10963,404;  196,325;17697,492;61,52206
 934,22;10891,096;  207,556;17585,646;61,47707
 934,77;10794,019;  234,863;17508,031;61,13040
 935,33;10731,865;  215,940;17450,338;61,01707
 935,88;10722,481;  215,633;17373,800;61,23526
 936,43;10658,250;  197,863;17232,185;61,40771
 936,99;10589,558;  211,094;17185,569;61,14159
 937,54;10485,788;  190,325;16987,108;61,29426
 938,09;10525,404;  210,402;16939,954;61,65737
 938,65;10497,250;  213,094;16871,185;61,73670
 939,20;10491,404;  193,094;16814,031;61,95986
 939,75;10469,173;  185,940;16671,723;62,37637
 940,31;10408,250;  189,402;16575,954;62,36119
 940,86;10409,096;  198,402;16584,262;62,31406
 941,41;10398,019;  236,171;16477,646;62,56727
 941,96;10337,250;  197,325;16399,954;62,58197
 942,52;10323,788;  197,171;16384,185;62,56013
 943,07;10287,942;  185,171;16153,338;63,26819
 943,62;10249,712;  188,248;16141,877;63,06693
 944,18;10231,404;  189,940;16094,031;63,13762
 944,73;10269,096;  197,863;15979,338;63,81680
 945,28;10099,173;  168,248;15779,723;63,61298
 945,83;10156,404;  207,171;15774,877;63,90943
 946,39;10157,404;  193,710;15739,108;64,09417
 946,94;10139,481;  222,710;15678,031;64,16412
 947,49;10049,327;  191,325;15619,877;63,89454
 948,04;10063,942;  204,094;15569,954;64,16724
 948,59;10093,096;  210,556;15473,492;64,74862
 949,15;10031,019;  182,402;15381,646;64,79676
 949,70;10012,173;  189,171;15281,723;65,08510
 950,25; 9960,635;  207,325;15248,031;64,84609
 950,80; 9945,635;  171,710;15173,415;65,15209
 951,36; 9888,635;  166,787;15057,338;65,28870
 951,91; 9907,250;  214,017;14964,954;65,71266
 952,46; 9825,096;  165,402;14841,492;65,81926
 953,01; 9857,788;  221,325;14868,646;65,78994
 953,56; 9741,404;  194,248;14784,031;65,43727
 954,11; 9800,942;  207,479;14694,415;66,22148
 954,67; 9777,865;  194,325;14633,262;66,37290
 955,22; 9723,712;  182,094;14435,954;66,94059
 955,77; 9686,096;  214,479;14495,569;66,32279
 956,32; 9636,635;  228,171;14359,646;66,57807
 956,87; 9601,558;  187,017;14220,569;67,08594
 957,42; 9570,173;  190,940;14269,800;66,61926
 957,98; 9530,173;  192,325;14134,492;66,97558
 958,53; 9571,942;  210,479;14041,415;67,68496
 959,08; 9491,942;  180,171;14049,185;67,14083
 959,63; 9448,250;  194,325;13927,108;67,38565
 960,18; 9431,712;  212,094;13895,108;67,38002
 960,73; 9425,558;  209,094;13836,954;67,62957
 961,28; 9388,250;  174,787;13767,262;67,78356
 961,83; 9381,712;  218,171;13735,108;67,79303
 962,39; 9285,942;  181,402;13566,492;68,02001
 962,94; 9284,096;  214,402;13549,723;68,01257
 963,49; 9214,404;  200,710;13411,723;68,22864
 964,04; 9227,481;  214,402;13391,492;68,39961
 964,59; 9217,404;  181,863;13264,954;69,06274
 965,14; 9198,173;  204,710;13246,185;68,96048
 965,69; 9139,942;  198,556;13127,338;69,15877
 966,24; 9078,404;  192,710;13055,800;69,07900
 966,79; 9024,019;  206,248;12979,185;69,03480
 967,34; 8987,481;  180,325;12882,954;69,33333
 967,89; 8991,404;  191,171;12813,108;69,72173
 968,44; 8954,865;  201,094;12775,108;69,61796
 968,99; 8941,788;  201,710;12733,492;69,74330
 969,55; 8943,712;  215,556;12580,185;70,58971
 970,10; 8835,481;  210,017;12478,492;70,30591
 970,65; 8785,096;  209,787;12405,723;70,31284
 971,20; 8743,404;  201,402;12356,569;70,27466
 971,75; 8645,250;  183,710;12228,569;70,25022
 972,30; 8628,942;  195,017;12181,031;70,36472
 972,85; 8608,019;  185,094;12096,492;70,71315
 973,40; 8539,327;  186,940;11946,723;71,02501
 973,95; 8518,096;  200,556;11923,954;70,94820
 974,50; 8501,558;  212,479;11874,415;71,07807
 975,05; 8463,019;  212,402;11791,492;71,25445
 975,60; 8429,865;  212,863;11710,108;71,46932
 976,15; 8377,788;  203,017;11617,877;71,61517
 976,70; 8385,404;  211,633;11509,031;72,35092
 977,25; 8335,865;  215,556;11476,569;72,10994
 977,80; 8263,788;  194,171;11351,800;72,32377
 978,35; 8164,635;  202,556;11268,185;71,95324
 978,89; 8122,865;  186,787;11159,723;72,32411
 979,44; 8169,635;  198,863;11173,262;72,63060
 979,99; 8087,865;  187,556;10982,954;73,18220
 980,54; 8066,788;  229,633;10951,415;73,09564
 981,09; 7985,173;  221,248;10848,954;73,05363
 981,64; 7910,712;  207,325;10733,954;73,18000
 982,19; 7860,865;  238,633;10714,415;72,76051
 982,74; 7798,327;  221,633;10532,338;73,48376
 983,29; 7692,250;  179,710;10432,800;73,27099
 983,84; 7668,942;  208,017;10387,569;73,29326
 984,39; 7709,327;  229,248;10298,800;74,28413
 984,94; 7585,019;  184,633;10218,492;73,75414
 985,49; 7576,635;  221,248;10121,800;74,29269
 986,03; 7538,173;  226,325;10067,646;74,29742
 986,58; 7447,019;  235,863; 9971,415;74,07033
 987,13; 7387,942;  211,787; 9863,031;74,35472
 987,68; 7363,096;  224,017; 9761,492;74,85292
 988,23; 7324,019;  212,248; 9718,492;74,81158
 988,78; 7236,173;  207,402; 9598,569;74,84449
 989,33; 7164,404;  212,710; 9511,031;74,76290
 989,88; 7187,635;  226,863; 9447,569;75,49065
 990,42; 7033,481;  206,940; 9285,108;75,19734
 990,97; 7013,865;  214,479; 9250,492;75,24764
 991,52; 7002,712;  231,633; 9181,723;75,65375
 992,07; 6921,481;  231,171; 9049,800;75,86564
 992,62; 6880,942;  217,633; 8967,646;76,15199
 993,17; 6848,096;  229,940; 8882,877;76,48451
 993,71; 6780,635;  216,094; 8817,877;76,31605
 994,26; 6684,942;  200,402; 8673,877;76,52752
 994,81; 6671,096;  228,248; 8648,108;76,51966
 995,36; 6592,712;  200,710; 8540,646;76,64329
 995,91; 6578,481;  216,787; 8479,108;76,99645
 996,45; 6509,096;  215,940; 8368,569;77,19174
 997,00; 6406,865;  192,633; 8271,031;76,92407
 997,55; 6436,250;  210,787; 8188,492;78,03576
 998,10; 6312,788;  236,325; 8111,415;77,16056
 998,65; 6347,327;  206,479; 8051,338;78,27862
 999,19; 6265,712;  216,094; 7942,723;78,29569
 999,74; 6182,250;  237,556; 7846,723;78,12542
1000,29; 6155,712;  225,171; 7798,877;78,30434
1000,84; 6088,173;  213,171; 7684,877;78,63000
1001,38; 6088,481;  208,710; 7594,108;79,61346
1001,93; 6053,865;  231,402; 7561,031;79,43736
1002,48; 5931,250;  201,248; 7451,569;79,03101
1003,03; 5898,635;  217,325; 7389,569;79,21244
1003,57; 5827,635;  228,940; 7287,646;79,31616
1004,12; 5827,019;  220,556; 7173,877;80,63001
1004,67; 5734,096;  209,787; 7105,262;80,11500
1005,22; 5565,173;  192,633; 6965,108;79,32905
1005,76; 5504,788;  199,094; 6846,338;79,81795
1006,31; 5537,942;  236,325; 6824,185;80,47557
1006,86; 5418,173;  212,171; 6700,723;80,23365
1007,40; 5379,712;  194,171; 6583,185;81,16340
1007,95; 5338,250;  212,402; 6555,185;80,81387
1008,50; 5230,865;  209,863; 6415,185;80,91446
1009,04; 5191,173;  217,479; 6352,954;81,06453
1009,59; 5131,096;  216,017; 6204,569;82,07458
1010,14; 5052,558;  199,171; 6121,569;81,94968
1010,68; 4970,096;  210,940; 6027,954;81,81442
1011,23; 4905,404;  200,556; 5883,262;82,79239
1011,78; 4877,096;  227,863; 5858,338;82,57265
1012,32; 4807,096;  210,710; 5761,646;82,80380
1012,87; 4787,327;  233,094; 5755,338;82,47069
1013,42; 4717,558;  203,325; 5646,262;82,93745
1013,96; 4773,788;  235,479; 5649,800;83,82047
1014,51; 4686,865;  176,094; 5590,954;83,30357
1015,06; 4720,865;  182,171; 5596,031;83,83472
1015,60; 4756,788;  246,171; 5671,031;83,14717
1016,15; 4706,481;  205,787; 5603,185;83,38637
1016,69; 4722,942;  217,402; 5682,415;82,44335
1017,24; 4725,019;  186,017; 5626,800;83,42553
1017,79; 4819,712;  234,710; 5707,800;83,77355
1018,33; 4783,019;  183,171; 5716,723;83,12650
1018,88; 4866,942;  217,402; 5789,108;83,44914
1019,42; 4857,942;  202,017; 5776,185;83,52683
1019,97; 4861,635;  202,248; 5782,800;83,49329
1020,51; 4933,250;  217,710; 5820,723;84,16079
1021,06; 4919,865;  193,479; 5811,569;84,12799
1021,61; 4891,865;  183,479; 5788,262;84,00659
1022,15; 4844,712;  168,402; 5762,031;83,60064
1022,70; 4853,635;  199,171; 5764,954;83,62640
1023,24; 4803,327;  194,402; 5702,031;83,68256
1023,79; 4806,635;  199,940; 5682,108;84,03053
1024,33; 4797,096;  203,633; 5642,723;84,45279
1024,88; 4703,250;  205,325; 5540,338;84,30953
1025,42; 4664,404;  196,863; 5474,492;84,65052
1025,97; 4632,173;  200,171; 5363,646;85,83371
1026,51; 4529,327;  166,248; 5273,877;85,42279
1027,06; 4519,250;  201,017; 5223,723;85,97423
1027,60; 4408,481;  216,402; 5139,800;85,14605
1028,15; 4382,173;  211,248; 5039,108;86,39284
1028,69; 4231,865;  166,479; 4909,723;85,70899
1029,24; 4200,481;  198,633; 4886,646;85,36341
1029,78; 4160,096;  186,787; 4781,800;86,47003
1030,33; 4070,327;  176,402; 4689,492;86,28068
1030,87; 4038,481;  191,556; 4647,492;86,33258
1031,42; 3965,865;  190,556; 4555,262;86,49631
1031,96; 3961,327;  205,863; 4510,954;87,23309
1032,51; 3848,712;  190,787; 4436,646;86,15275
1033,05; 3835,558;  205,171; 4360,415;87,36879
1033,60; 3727,558;  172,479; 4252,954;87,12414
1034,14; 3712,019;  195,940; 4215,723;87,46938
1034,69; 3668,481;  193,556; 4193,800;86,86782
1035,23; 3604,788;  199,248; 4103,569;87,22490
1035,77; 3577,404;  190,017; 4048,338;87,79431
1036,32; 3495,558;  173,248; 4005,108;86,70228
1036,86; 3471,558;  191,710; 3916,877;88,04566
1037,41; 3408,019;  209,094; 3864,954;87,50131
1037,95; 3366,558;  177,633; 3809,338;87,80791
1038,50; 3315,096;  190,171; 3776,262;87,14016
1039,04; 3302,481;  200,479; 3748,569;87,42736
1039,58; 3232,558;  181,479; 3666,415;87,55049
1040,13; 3189,558;  195,940; 3587,954;88,25488
1040,67; 3197,788;  225,171; 3587,954;88,39754
1041,21; 3157,942;  216,556; 3548,800;88,27044
1041,76; 3070,942;  175,248; 3446,185;88,52799
1042,30; 3042,712;  192,710; 3406,954;88,66787
1042,85; 2997,173;  192,940; 3349,877;88,82765
1043,39; 2985,865;  175,325; 3274,185;90,69596
1043,93; 2928,327;  202,094; 3278,954;88,60439
1044,48; 2895,250;  204,787; 3208,492;89,57147
1045,02; 2875,173;  188,017; 3132,800;91,25141
1045,56; 2837,712;  208,017; 3120,723;90,28355
1046,11; 2807,558;  208,863; 3092,877;90,10687
1046,65; 2770,558;  207,325; 3036,415;90,60271
1047,19; 2722,712;  200,171; 2989,492;90,43564
1047,74; 2671,635;  180,863; 2941,800;90,21472
1048,28; 2653,942;  194,633; 2907,569;90,65120
1048,82; 2646,865;  212,787; 2890,338;90,90688
1049,37; 2592,712;  208,479; 2838,723;90,64682
1049,91; 2570,173;  185,633; 2769,262;92,29423
1050,45; 2575,635;  208,633; 2764,723;92,60243
1050,99; 2496,865;  192,325; 2703,877;91,75762
1051,54; 2447,635;  192,940; 2670,569;91,00210
1052,08; 2429,173;  216,402; 2652,262;90,84149
1052,62; 2434,173;  210,556; 2609,492;92,69179
1053,16; 2359,481;  187,402; 2544,031;92,16890
1053,71; 2340,865;  208,402; 2538,031;91,53662
1054,25; 2311,481;  218,940; 2499,723;91,74659
1054,79; 2275,942;  209,325; 2466,415;91,56112
1055,33; 2213,173;  184,248; 2416,569;90,88858
1055,88; 2245,404;  210,017; 2395,492;93,13246
1056,42; 2184,942;  220,940; 2374,723;91,18849
1056,96; 2165,404;  215,171; 2332,108;92,12523
1057,50; 2143,327;  200,402; 2295,415;92,74045
1058,05; 2090,250;  206,556; 2258,800;91,78704
1058,59; 2084,558;  223,017; 2225,262;92,97269
1059,13; 2017,404;  189,248; 2172,723;92,16934
1059,67; 2003,096;  214,171; 2183,646;90,83258
1060,21; 1967,788;  201,017; 2118,492;92,14051
1060,76; 1950,096;  220,325; 2108,492;91,61112
1061,30; 1941,173;  224,402; 2061,031;93,47404
1061,84; 1904,173;  206,094; 2030,569;93,07219
1062,38; 1845,635;  201,863; 1978,338;92,52993
1062,92; 1887,635;  236,787; 2015,877;92,79169
1063,46; 1849,096;  221,940; 1961,415;93,54292
1064,01; 1820,865;  204,402; 1923,031;94,05541
1064,55; 1796,788;  213,787; 1897,723;94,00603
1065,09; 1749,481;  183,556; 1862,800;93,25177
1065,63; 1774,250;  242,171; 1888,031;93,08685
1066,17; 1745,250;  227,479; 1859,877;92,97800
1066,71; 1729,635;  228,863; 1836,954;93,32629
1067,25; 1666,404;  203,402; 1785,877;92,45024
1067,80; 1684,481;  235,556; 1796,954;92,79664
1068,34; 1667,096;  231,017; 1771,646;93,21381
1068,88; 1635,558;  209,094; 1706,108;95,28728
1069,42; 1644,481;  233,171; 1734,338;94,01415
1069,96; 1600,635;  199,479; 1669,262;95,33081
1070,50; 1611,865;  235,248; 1685,108;94,94832
1071,04; 1559,712;  202,710; 1642,800;94,23033
1071,58; 1539,404;  206,556; 1625,262;93,94817
1072,12; 1525,788;  206,479; 1602,262;94,52113
1072,66; 1514,481;  200,787; 1598,338;93,99967
1073,21; 1515,558;  221,940; 1599,185;93,92795
1073,75; 1471,250;  217,556; 1565,723;92,99248
1074,29; 1474,404;  218,940; 1535,031;95,39341
1074,83; 1467,327;  236,556; 1532,031;95,00540
1075,37; 1441,788;  227,556; 1509,723;94,70158
1075,91; 1426,558;  232,710; 1501,415;94,09968
1076,45; 1392,635;  220,710; 1479,646;93,08849
1076,99; 1382,942;  225,940; 1447,646;94,70381
1077,53; 1363,327;  200,402; 1411,415;96,02907
1078,07; 1359,481;  219,402; 1391,800;97,24332
1078,61; 1337,327;  215,633; 1400,877;94,63824
1079,15; 1306,558;  216,940; 1371,185;94,40093
1079,69; 1297,635;  219,325; 1373,031;93,46487
1080,23; 1314,942;  236,479; 1359,108;96,06590
1080,77; 1297,096;  232,787; 1342,338;95,92247
1081,31; 1255,327;  198,863; 1303,800;95,61304
1081,85; 1275,481;  216,017; 1321,877;95,80452
1082,39; 1232,250;  215,863; 1273,569;96,09350
1082,93; 1233,942;  213,556; 1279,954;95,68533
1083,47; 1215,173;  204,940; 1246,415;97,00019
1084,01; 1224,635;  237,556; 1255,569;96,96128
1084,55; 1184,558;  210,402; 1200,723;98,36766
1085,09; 1199,173;  232,325; 1224,492;97,44809
1085,63; 1167,250;  213,248; 1193,569;97,31524
1086,17; 1144,942;  212,787; 1190,185;95,37115
1086,71; 1141,712;  210,633; 1162,185;97,84845
1087,24; 1149,250;  239,402; 1178,723;96,86230
1087,78; 1132,865;  223,633; 1150,338;98,11450
1088,32; 1088,635;  197,710; 1108,646;97,80319
1088,86; 1099,404;  247,171; 1161,108;93,24856
1089,40; 1100,404;  213,248; 1121,185;97,71121
1089,94; 1054,019;  193,325; 1063,185;98,94634
1090,48; 1060,327;  221,556; 1081,492;97,53873
1091,02; 1042,096;  222,402; 1069,569;96,75707
1091,56; 1044,250;  229,325; 1079,185;95,88937
1092,10; 1015,558;  202,710; 1040,492;97,02374
1092,63; 1034,788;  237,248; 1062,492;96,64295
1093,17; 1027,327;  237,402; 1025,954;100,17413
1093,71;  986,481;  213,402;  997,800;98,55695
1094,25;  990,173;  235,710; 1043,954;93,34598
1094,79;  992,865;  210,710;  975,800;102,23051
1095,33;  987,481;  210,787;  963,262;103,21861
1095,87;  955,250;  212,325;  957,492;99,69909
1096,40;  927,788;  211,479;  936,415;98,80998
1096,94;  939,788;  211,248;  949,877;98,63416
1097,48;  931,788;  225,710;  939,954;98,85678
1098,02;  905,712;  220,710;  931,723;96,34163
1098,56;  868,173;  183,094;  887,646;97,23610
1099,10;  875,327;  197,556;  894,185;97,29301
1099,63;  866,635;  195,325;  889,185;96,75006
1100,17;  886,250;  213,710;  890,569;99,36187
1100,71;  870,404;  221,171;  887,723;97,40167

