
Integration time [ms]: 120,000
Averaging Nr. [scans]: 13
Smoothing Nr. [pixels]: 0
Data measured with spectrometer [name]: 2009305U1
Wave   ;Sample   ;Dark     ;Reference;Reflectance
[nm]   ;[counts] ;[counts] ;[counts] ;[%]

 175,72;  197,902;  201,729;  206,872;-74,43462
 176,32;  228,389;  218,186;  213,932; 0,00000
 176,92;  259,843;  251,189;  249,591; 0,00000
 177,52;  260,194;  249,113;  256,862;142,98647
 178,12;  246,365;  238,725;  218,250; 0,00000
 178,72;  275,572;  262,954;  247,860; 0,00000
 179,32;  263,832;  250,340;  247,043; 0,00000
 179,92;  258,304;  250,342;  243,729; 0,00000
 180,52;  242,049;  238,347;  240,736;154,96166
 181,12;  259,373;  258,034;  250,818; 0,00000
 181,73;  280,535;  272,650;  268,353; 0,00000
 182,33;  356,832;  341,884;  351,655;152,97962
 182,93;  273,042;  275,575;  267,614; 0,00000
 183,53;  236,994;  239,569;  226,246; 0,00000
 184,13;  240,438;  234,262;  230,039; 0,00000
 184,73;  276,394;  277,568;  272,393; 0,00000
 185,33;  270,758;  232,615;  345,677;33,73658
 185,93;  266,730;  245,073;  348,991;20,84041
 186,53;  287,184;  251,383;  367,173;30,91873
 187,13;  314,513;  271,464;  401,161;33,19210
 187,73;  272,814;  239,766;  346,389;30,99511
 188,33;  273,055;  238,149;  355,651;29,70649
 188,93;  281,672;  255,681;  354,167;26,39035
 189,53;  272,848;  258,060;  373,340;12,82772
 190,13;  312,407;  290,822;  407,960;18,42702
 190,73;  249,410;  217,519;  341,075;25,81069
 191,34;  279,909;  266,833;  379,465;11,60953
 191,94;  273,357;  235,608;  351,373;32,60787
 192,54;  292,674;  251,390;  369,660;34,90708
 193,14;  293,656;  263,925;  377,413;26,19778
 193,74;  284,846;  263,078;  378,201;18,90831
 194,34;  283,751;  260,310;  380,482;19,50561
 194,94;  260,735;  223,386;  339,780;32,08814
 195,54;  236,408;  203,693;  312,414;30,09128
 196,14;  246,269;  220,157;  353,619;19,56476
 196,74;  253,698;  214,922;  338,653;31,33918
 197,34;  225,519;  196,698;  319,609;23,44859
 197,94;  259,472;  237,079;  365,572;17,42717
 198,54;  269,788;  247,080;  380,114;17,06933
 199,14;  238,776;  210,546;  368,519;17,87010
 199,74;  246,005;  207,392;  366,691;24,23925
 200,34;  227,839;  197,469;  355,354;19,23543
 200,94;  267,495;  228,390;  407,380;21,84751
 201,54;  255,003;  222,622;  409,009;17,37301
 202,14;  276,410;  243,778;  440,040;16,62693
 202,74;  251,952;  221,853;  441,142;13,72552
 203,34;  236,544;  198,087;  459,415;14,71590
 203,94;  218,325;  171,394;  466,821;15,88587
 204,54;  296,330;  242,156;  543,763;17,96169
 205,14;  247,526;  198,315;  561,400;13,55366
 205,74;  294,240;  232,933;  638,687;15,10926
 206,34;  265,316;  204,470;  636,056;14,09825
 206,94;  274,253;  218,547;  688,144;11,86255
 207,54;  264,263;  174,778;  718,661;16,45308
 208,14;  280,002;  205,317;  793,743;12,69236
 208,74;  297,473;  214,161;  871,081;12,68224
 209,34;  294,808;  198,623;  933,736;13,08445
 209,94;  320,947;  210,315; 1008,119;13,86703
 210,54;  311,161;  210,240; 1112,466;11,18574
 211,14;  330,027;  213,392; 1206,006;11,75031
 211,73;  340,376;  204,314; 1298,510;12,43484
 212,33;  356,497;  225,698; 1403,055;11,10954
 212,93;  359,092;  204,468; 1488,353;12,04340
 213,53;  328,702;  178,853; 1530,484;11,08653
 214,13;  371,302;  193,089; 1619,086;12,49743
 214,73;  360,103;  189,855; 1644,501;11,70372
 215,33;  343,562;  170,469; 1671,042;11,53514
 215,93;  389,206;  199,010; 1779,950;12,03053
 216,53;  359,153;  175,314; 1843,429;11,02077
 217,13;  438,602;  219,164; 2025,749;12,14659
 217,73;  447,587;  195,703; 2217,986;12,45544
 218,33;  428,714;  149,166; 2386,125;12,49678
 218,93;  517,161;  177,401; 2679,163;13,58084
 219,53;  543,020;  199,705; 2920,374;12,61878
 220,13;  551,039;  159,475; 3206,578;12,85037
 220,73;  612,020;  187,392; 3517,693;12,75045
 221,32;  677,858;  188,392; 3874,081;13,28018
 221,92;  722,948;  202,551; 4264,174;12,81253
 222,52;  763,025;  174,934; 4661,073;13,10906
 223,12;  833,558;  181,165; 5075,819;13,32869
 223,72;  908,556;  195,319; 5442,991;13,59151
 224,32;  957,435;  192,626; 5845,976;13,52841
 224,92; 1008,243;  189,088; 6108,737;13,83791
 225,52; 1078,636;  203,008; 6452,854;14,01039
 226,12; 1097,585;  185,856; 6698,534;13,99930
 226,72; 1132,611;  158,702; 7028,198;14,17730
 227,31; 1175,727;  155,240; 7354,420;14,17504
 227,91; 1267,164;  192,316; 7785,953;14,15459
 228,51; 1306,333;  178,083; 8109,623;14,22485
 229,11; 1368,404;  184,394; 8495,572;14,24599
 229,71; 1409,133;  186,699; 8716,250;14,33175
 230,31; 1481,724;  179,473; 9075,403;14,63872
 230,91; 1519,187;  166,235; 9391,911;14,66507
 231,51; 1586,165;  172,318; 9652,900;14,91308
 232,10; 1646,367;  171,474; 9976,672;15,04195
 232,70; 1724,135;  186,926;10145,097;15,43666
 233,30; 1742,595;  202,625;10365,435;15,15299
 233,90; 1786,865;  176,164;10513,657;15,58116
 234,50; 1811,838;  175,780;10561,473;15,75300
 235,10; 1830,167;  173,857;10664,121;15,78901
 235,70; 1856,839;  198,008;10648,200;15,87369
 236,29; 1877,227;  191,392;10629,618;16,15059
 236,89; 1830,777;  159,543;10478,016;16,19652
 237,49; 1872,028;  194,625;10431,184;16,38639
 238,09; 1811,701;  184,547;10154,902;16,31992
 238,69; 1836,729;  225,388; 9983,329;16,51312
 239,29; 1767,709;  176,470; 9652,505;16,79225
 239,89; 1747,584;  195,466; 9366,333;16,92443
 240,48; 1663,586;  177,163; 8974,124;16,89701
 241,08; 1667,908;  181,701; 8634,289;17,58286
 241,68; 1616,024;  192,009; 8356,134;17,44235
 242,28; 1533,696;  174,394; 8035,117;17,29232
 242,88; 1572,685;  219,166; 7828,258;17,78818
 243,48; 1491,568;  211,086; 7510,243;17,54287
 244,07; 1462,357;  192,316; 7275,406;17,93061
 244,67; 1448,152;  193,163; 7151,240;18,03644
 245,27; 1414,683;  196,314; 6989,894;17,93412
 245,87; 1420,385;  220,242; 6894,092;17,98277
 246,47; 1394,721;  191,545; 6923,749;17,87195
 247,06; 1396,998;  182,239; 6907,078;18,06377
 247,66; 1413,195;  174,855; 6941,503;18,30064
 248,26; 1480,771;  213,237; 7050,026;18,53989
 248,86; 1487,564;  202,776; 7247,862;18,23665
 249,46; 1515,551;  155,010; 7422,575;18,72072
 250,05; 1612,513;  205,393; 7732,627;18,69372
 250,65; 1652,999;  169,391; 8052,190;18,82084
 251,25; 1740,853;  188,700; 8492,681;18,69167
 251,85; 1825,835;  186,159; 8978,281;18,64938
 252,44; 1917,128;  152,930; 9520,688;18,83266
 253,04; 2082,482;  201,854;10265,000;18,68827
 253,64; 2175,604;  154,236;10900,597;18,80979
 254,24; 2386,592;  204,009;11741,224;18,91776
 254,84; 2538,166;  179,779;12519,882;19,11157
 255,43; 2736,143;  179,700;13422,613;19,30424
 256,03; 2906,522;  185,775;14398,265;19,14335
 256,63; 3120,278;  193,389;15343,007;19,31988
 257,23; 3244,216;  169,928;16095,163;19,30451
 257,82; 3462,776;  188,465;17044,616;19,42503
 258,42; 3596,663;  147,079;17784,581;19,55824
 259,02; 3866,926;  201,469;18712,709;19,80125
 259,62; 3955,791;  169,002;19302,986;19,79091
 260,21; 4077,224;  188,699;19810,500;19,81737
 260,81; 4244,281;  190,009;20287,806;20,17271
 261,41; 4270,899;  163,388;20645,074;20,05456
 262,01; 4433,866;  203,617;21237,688;20,11142
 262,60; 4514,139;  169,697;21451,470;20,41391
 263,20; 4582,282;  173,852;21765,449;20,41734
 263,80; 4623,772;  201,232;21997,474;20,29038
 264,40; 4666,627;  169,386;22117,392;20,49043
 264,99; 4728,931;  187,385;22332,574;20,50805
 265,59; 4761,182;  175,691;22368,883;20,66170
 266,19; 4783,309;  172,078;22546,184;20,60968
 266,78; 4855,169;  213,000;22692,956;20,65026
 267,38; 4784,131;  193,076;22721,709;20,37876
 267,98; 4821,627;  182,692;22678,223;20,62158
 268,58; 4822,324;  189,460;22711,392;20,57045
 269,17; 4806,004;  184,074;22772,031;20,46192
 269,77; 4815,869;  184,850;22568,779;20,68903
 270,37; 4729,914;  160,385;22470,206;20,48214
 270,96; 4764,219;  220,080;22415,265;20,47354
 271,56; 4666,317;  181,851;22134,075;20,42830
 272,16; 4614,308;  182,618;21964,063;20,34617
 272,75; 4583,708;  187,926;21924,911;20,22259
 273,35; 4588,694;  192,850;21843,823;20,30322
 273,95; 4526,552;  180,849;21764,698;20,13405
 274,54; 4540,188;  161,470;21761,566;20,27175
 275,14; 4585,211;  200,773;22189,200;19,93975
 275,74; 4578,211;  154,926;22167,808;20,09407
 276,33; 4630,043;  205,850;22504,881;19,84029
 276,93; 4705,752;  188,855;22848,853;19,93335
 277,53; 4785,610;  195,238;23368,098;19,80926
 278,12; 4888,921;  178,775;23806,277;19,93501
 278,72; 5056,596;  219,238;24373,847;20,02665
 279,32; 5119,044;  186,391;24798,059;20,04193
 279,91; 5275,864;  159,468;25562,541;20,14086
 280,51; 5373,280;  188,469;25967,321;20,11265
 281,11; 5495,442;  180,006;26630,763;20,09559
 281,70; 5612,526;  167,698;27049,153;20,25496
 282,30; 5769,702;  171,312;27551,998;20,44649
 282,90; 5867,338;  173,851;27939,485;20,50552
 283,49; 6066,231;  198,311;28439,687;20,77774
 284,09; 6193,338;  201,390;28910,339;20,87136
 284,69; 6321,835;  211,314;29098,297;21,15320
 285,28; 6440,570;  197,159;29476,937;21,32329
 285,88; 6601,252;  245,541;29721,166;21,56260
 286,47; 6626,647;  186,235;29759,467;21,77784
 287,07; 6776,353;  209,930;29811,041;22,18303
 287,67; 6931,645;  202,163;29911,397;22,65114
 288,26; 7056,471;  176,853;29846,860;23,18711
 288,86; 7221,702;  181,159;29866,006;23,71763
 289,46; 7420,246;  192,698;30055,269;24,20270
 290,05; 7654,855;  175,470;30059,663;25,02790
 290,65; 7883,192;  193,235;30239,781;25,59348
 291,24; 8110,001;  191,699;30304,873;26,29514
 291,84; 8348,816;  211,466;30425,700;26,93217
 292,44; 8638,484;  188,702;30600,545;27,78451
 293,03; 8909,675;  261,776;30732,753;28,38077
 293,63; 9094,608;  177,235;30773,553;29,14525
 294,22; 9360,999;  198,544;30973,729;29,77222
 294,82; 9554,605;  183,617;30975,077;30,43372
 295,41; 9626,141;  170,390;30638,076;31,03534
 296,01; 9748,028;  216,464;30605,787;31,36484
 296,61; 9828,676;  210,622;30362,350;31,89885
 297,20; 9768,041;  199,157;30000,191;32,10924
 297,80; 9824,631;  201,316;29818,216;32,49265
 298,39; 9818,604;  183,313;29490,512;32,87688
 298,99; 9827,718;  194,619;29344,735;33,04652
 299,58; 9839,923;  204,009;29207,145;33,22370
 300,18; 9835,947;  198,624;28990,588;33,47227
 300,78; 9738,104;  178,007;28703,929;33,51372
 301,37; 9750,653;  194,462;28642,972;33,59118
 301,97; 9856,131;  192,929;28648,490;33,95892
 302,56; 9777,517;  193,158;28653,764;33,67588
 303,16; 9775,626;  170,004;28481,819;33,92796
 303,75; 9802,037;  189,315;28525,061;33,92437
 304,35; 9895,695;  181,472;28720,066;34,03890
 304,94; 9908,570;  181,699;28731,637;34,06968
 305,54; 9983,396;  218,546;28672,081;34,31858
 306,13; 9823,941;  161,934;28573,068;34,00782
 306,73; 9804,889;  158,548;28317,031;34,25732
 307,33; 9814,995;  204,317;28321,045;34,18135
 307,92; 9833,174;  193,084;28380,531;34,19994
 308,52; 9954,226;  170,696;28741,356;34,24328
 309,11;10100,610;  178,541;29205,878;34,18181
 309,71;10113,655;  171,617;29443,116;33,96491
 310,30;10223,005;  172,776;29648,606;34,09651
 310,90;10342,543;  208,853;29955,991;34,06610
 311,49;10282,875;  185,314;30028,673;33,83520
 312,09;10305,523;  161,008;30225,597;33,74240
 312,68;10478,779;  231,930;30664,330;33,67085
 313,28;10449,789;  167,314;30631,838;33,75229
 313,87;10478,623;  154,776;30809,032;33,67835
 314,47;10540,522;  172,157;30963,772;33,67269
 315,06;10529,576;  159,391;31159,668;33,45191
 315,66;10542,138;  174,547;31275,674;33,33510
 316,25;10495,372;  156,620;31163,214;33,34372
 316,85;10461,848;  151,778;31200,812;33,20577
 317,44;10428,106;  179,387;31341,615;32,88827
 318,04;10400,375;  164,466;31348,802;32,82388
 318,63;10324,447;  162,471;31389,074;32,54269
 319,22;10326,098;  188,158;31575,797;32,29915
 319,82;10336,457;  185,621;31708,679;32,20131
 320,41;10263,190;  187,158;31426,645;32,25415
 321,01;10208,626;  197,008;31533,415;31,94884
 321,60;10221,051;  189,390;31561,672;31,97619
 322,20;10071,152;  169,315;31579,831;31,52396
 322,79;10100,287;  204,391;31614,250;31,50570
 323,39;10068,932;  181,472;31629,533;31,44060
 323,98; 9945,935;  168,930;31550,158;31,15558
 324,58; 9928,783;  170,619;31501,168;31,14585
 325,17; 9806,445;  174,543;31304,557;30,94089
 325,76; 9713,203;  206,776;31146,621;30,72552
 326,36; 9624,261;  171,239;30813,671;30,84945
 326,95; 9468,758;  200,390;30497,135;30,59196
 327,55; 9336,498;  163,774;30140,191;30,59980
 328,14; 9213,568;  168,855;29824,158;30,49948
 328,74; 9075,749;  199,004;29444,362;30,35266
 329,33; 8909,995;  198,931;29099,182;30,14183
 329,92; 8757,357;  163,464;28602,332;30,21883
 330,52; 8532,756;  184,240;28056,741;29,95252
 331,11; 8361,454;  173,390;27658,869;29,79051
 331,71; 8177,787;  179,929;27078,464;29,73344
 332,30; 8077,417;  201,083;26683,099;29,74220
 332,89; 7939,634;  237,161;26152,787;29,72134
 333,49; 7776,700;  187,159;25730,178;29,71278
 334,08; 7595,326;  176,851;25392,148;29,42053
 334,68; 7475,382;  185,928;24979,661;29,40039
 335,27; 7419,284;  201,086;24699,617;29,46380
 335,86; 7290,146;  229,544;24407,330;29,20285
 336,46; 7185,108;  201,625;24132,917;29,18139
 337,05; 7107,493;  178,698;23990,860;29,09772
 337,65; 7058,247;  166,851;23853,243;29,09432
 338,24; 7069,186;  226,161;23820,953;29,00227
 338,83; 7056,068;  209,546;23747,210;29,08752
 339,43; 6984,426;  166,158;23655,207;29,02743
 340,02; 6953,895;  179,542;23628,981;28,88919
 340,61; 6980,095;  175,622;23638,933;29,00048
 341,21; 6997,134;  213,312;23703,977;28,87880
 341,80; 7015,750;  189,082;23583,139;29,18120
 342,40; 7014,945;  191,932;23701,383;29,02243
 342,99; 7029,634;  184,623;23787,787;29,00040
 343,58; 7077,149;  187,392;23957,336;28,98516
 344,18; 7168,085;  197,239;24025,125;29,25499
 344,77; 7210,223;  175,542;24256,853;29,21220
 345,36; 7327,758;  158,083;24541,058;29,40443
 345,96; 7408,648;  208,239;24819,807;29,25620
 346,55; 7479,525;  181,703;25003,141;29,40129
 347,14; 7629,694;  169,778;25317,973;29,66382
 347,74; 7734,413;  150,628;25676,600;29,71007
 348,33; 7956,710;  178,089;26274,468;29,80728
 348,92; 8140,979;  197,629;26750,416;29,91532
 349,52; 8321,189;  164,167;27227,383;30,14062
 350,11; 8435,440;  175,773;27467,218;30,26467
 350,70; 8461,424;  181,622;27518,189;30,28837
 351,29; 8477,054;  167,461;27205,563;30,73290
 351,89; 8508,822;  187,156;27278,374;30,71721
 352,48; 8526,213;  152,237;27344,522;30,79541
 353,07; 8539,705;  183,548;27195,951;30,93452
 353,67; 8575,243;  191,630;27196,094;31,04529
 354,26; 8526,482;  177,778;27049,324;31,06894
 354,85; 8523,674;  190,931;26835,017;31,27427
 355,45; 8506,237;  168,313;26713,111;31,41076
 356,04; 8520,718;  182,548;26689,894;31,45607
 356,63; 8520,659;  218,467;26476,589;31,61761
 357,22; 8538,858;  191,924;26303,231;31,96674
 357,82; 8556,492;  184,463;26171,051;32,21673
 358,41; 8584,822;  207,160;26032,662;32,43949
 359,00; 8586,291;  173,004;25832,557;32,78813
 359,60; 8598,244;  187,238;25782,294;32,86184
 360,19; 8617,730;  193,548;25704,162;33,02226
 360,78; 8559,209;  191,313;25485,157;33,08274
 361,37; 8580,439;  177,159;25361,021;33,36772
 361,97; 8631,057;  191,852;25288,609;33,62668
 362,56; 8603,346;  171,388;24946,234;34,03435
 363,15; 8643,732;  217,544;24762,617;34,32945
 363,74; 8592,769;  192,157;24476,679;34,59246
 364,34; 8491,043;  205,773;24153,881;34,59676
 364,93; 8399,525;  177,696;23823,975;34,77008
 365,52; 8344,915;  154,467;23477,638;35,11722
 366,11; 8296,695;  187,774;23182,062;35,26494
 366,71; 8258,560;  191,389;22803,643;35,67610
 367,30; 8210,951;  188,467;22570,511;35,84339
 367,89; 8175,272;  227,393;22379,572;35,87854
 368,48; 8189,535;  202,234;22074,561;36,51784
 369,07; 8057,808;  189,391;21656,189;36,65389
 369,67; 8043,105;  210,926;21477,410;36,82874
 370,26; 8003,959;  175,468;21171,532;37,28551
 370,85; 7960,281;  182,082;20922,749;37,50216
 371,44; 7960,022;  188,237;20753,120;37,79153
 372,03; 7897,524;  163,235;20556,770;37,92520
 372,63; 7846,314;  158,775;20244,119;38,27437
 373,22; 7805,601;  175,930;20036,179;38,41680
 373,81; 7787,570;  159,236;19782,321;38,87428
 374,40; 7720,510;  173,778;19460,047;39,13007
 374,99; 7668,408;  176,467;19282,864;39,21169
 375,59; 7618,496;  172,085;19059,643;39,42495
 376,18; 7665,885;  201,005;18980,250;39,75069
 376,77; 7632,478;  196,006;18709,635;40,16755
 377,36; 7662,456;  208,390;18763,235;40,17315
 377,95; 7633,556;  191,543;18407,371;40,85465
 378,55; 7581,472;  172,931;18324,569;40,81472
 379,14; 7605,360;  186,159;18193,346;41,20133
 379,73; 7615,707;  190,005;18150,868;41,34379
 380,32; 7676,999;  184,775;18138,729;41,73022
 380,91; 7684,742;  157,311;18041,879;42,08898
 381,50; 7711,036;  201,158;18028,560;42,12548
 382,10; 7696,692;  168,621;17937,882;42,36569
 382,69; 7688,227;  168,621;17884,833;42,44477
 383,28; 7770,144;  202,466;17890,255;42,78476
 383,87; 7706,722;  176,542;17716,016;42,93276
 384,46; 7731,277;  170,540;17679,514;43,18207
 385,05; 7815,633;  208,696;17677,748;43,54522
 385,64; 7841,310;  192,235;17644,677;43,82811
 386,24; 7870,049;  163,386;17642,555;44,09056
 386,83; 7902,461;  199,540;17686,201;44,05027
 387,42; 7963,691;  196,851;17786,251;44,15637
 388,01; 8061,163;  194,076;17924,233;44,37122
 388,60; 8234,096;  191,925;18158,714;44,76131
 389,19; 8350,939;  177,997;18305,830;45,08505
 389,78; 8487,308;  179,228;18564,528;45,18871
 390,37; 8787,788;  240,000;18893,698;45,82355
 390,96; 8808,918;  189,001;18997,024;45,83106
 391,56; 8920,364;  194,919;19208,103;45,89155
 392,15; 9031,835;  184,690;19430,345;45,96957
 392,74; 9157,565;  159,069;19627,742;46,22039
 393,33; 9340,277;  183,688;19819,125;46,63298
 393,92; 9564,705;  193,298;20196,938;46,84851
 394,51; 9597,914;  169,303;20392,440;46,62289
 395,10; 9758,657;  207,062;20651,962;46,71872
 395,69; 9834,907;  202,678;20752,398;46,87280
 396,28; 9976,397;  208,983;20771,541;47,50097
 396,87;10001,223;  208,363;20898,450;47,33117
 397,46;10032,472;  215,129;20943,923;47,36090
 398,06;10198,009;  223,279;21139,960;47,68792
 398,65;10275,807;  204,578;21271,406;47,80610
 399,24;10316,791;  225,422;21394,542;47,67023
 399,83;10339,086;  198,331;21390,949;47,85041
 400,42;10451,729;  254,088;21553,748;47,87701
 401,01;10555,245;  213,074;21665,870;48,20897
 401,60;10566,573;  228,285;21657,881;48,24304
 402,19;10567,269;  249,039;21683,120;48,13936
 402,78;10582,606;  253,477;21718,293;48,12121
 403,37;10575,241;  237,763;21500,734;48,61728
 403,96;10493,352;  234,660;21369,983;48,53814
 404,55;10538,403;  263,323;21325,723;48,78399
 405,14;10402,655;  239,527;21175,396;48,54410
 405,73;10423,769;  256,881;21100,947;48,77593
 406,32;10461,946;  257,091;21055,753;49,06496
 406,91;10347,586;  238,759;20761,509;49,25669
 407,50;10299,422;  263,593;20641,761;49,24795
 408,09;10140,883;  237,815;20373,194;49,18243
 408,68;10154,917;  246,270;20291,234;49,43210
 409,27;10053,974;  245,355;20085,614;49,43796
 409,86;10041,695;  256,989;20002,333;49,55450
 410,45;10065,294;  288,928;19955,774;49,70988
 411,04;10070,461;  289,559;19904,468;49,86463
 411,63; 9986,971;  273,350;19624,100;50,19764
 412,22; 9862,201;  280,523;19482,421;49,89964
 412,81; 9795,367;  293,145;19202,463;50,25153
 413,40; 9613,504;  298,077;18947,508;49,95020
 413,99; 9536,261;  328,535;18631,139;50,30828
 414,58; 9341,046;  271,614;18284,849;50,34871
 415,17; 9267,750;  279,991;18101,481;50,43214
 415,76; 9202,064;  256,368;17999,166;50,41874
 416,35; 9116,511;  258,680;17838,897;50,38522
 416,94; 9142,525;  295,139;17844,585;50,41405
 417,53; 9252,371;  266,761;18068,435;50,47621
 418,12; 9261,156;  261,609;18120,991;50,39114
 418,71; 9448,229;  299,923;18412,108;50,50912
 419,30; 9507,735;  278,225;18537,049;50,54822
 419,89; 9569,372;  270,303;18741,244;50,34431
 420,48; 9779,708;  290,231;18964,708;50,81522
 421,07; 9762,903;  282,078;19006,851;50,63252
 421,66; 9769,441;  257,159;19023,831;50,68710
 422,25; 9803,780;  270,782;19022,155;50,83893
 422,84; 9835,319;  301,245;19019,094;50,93573
 423,43; 9716,340;  279,781;18735,300;51,13137
 424,02; 9609,381;  302,397;18536,212;51,04244
 424,60; 9409,816;  262,406;18159,979;51,10978
 425,19; 9297,795;  274,402;17884,214;51,24071
 425,78; 9275,013;  288,248;17869,031;51,11698
 426,37; 9209,377;  290,329;17674,825;51,30461
 426,96; 9166,837;  276,406;17574,765;51,39465
 427,55; 9135,559;  262,565;17458,296;51,59999
 428,14; 9010,216;  276,951;17277,370;51,37088
 428,73; 8937,415;  281,178;17176,404;51,23481
 429,32; 8935,370;  289,944;17161,119;51,24377
 429,91; 8971,140;  302,947;17156,620;51,43207
 430,50; 8886,826;  287,873;16968,792;51,54964
 431,08; 8786,782;  301,183;16859,955;51,24534
 431,67; 8731,646;  337,494;16810,809;50,95606
 432,26; 8699,033;  350,957;16658,199;51,19244
 432,85; 8530,243;  376,957;16259,013;51,33647
 433,44; 8409,525;  372,883;15957,398;51,56812
 434,03; 8242,430;  388,580;15678,711;51,36549
 434,62; 8021,114;  356,807;15263,888;51,41387
 435,21; 7987,002;  369,419;15092,581;51,73877
 435,79; 7861,088;  378,809;14993,266;51,19779
 436,38; 7823,862;  360,429;14891,432;51,36213
 436,97; 7776,634;  363,276;14828,789;51,24850
 437,56; 7676,122;  357,591;14579,542;51,45940
 438,15; 7629,742;  330,897;14590,165;51,18667
 438,74; 7653,263;  347,051;14560,189;51,40464
 439,33; 7658,113;  329,127;14514,915;51,66428
 439,91; 7678,749;  288,284;14558,280;51,79024
 440,50; 7758,242;  339,669;14649,975;51,84077
 441,09; 7754,417;  341,211;14755,578;51,42928
 441,68; 7767,300;  323,215;14746,260;51,61244
 442,27; 7746,322;  313,368;14780,559;51,37800
 442,86; 7735,382;  285,530;14782,373;51,38948
 443,44; 7779,809;  302,067;14802,621;51,56867
 444,03; 7800,032;  356,300;14838,956;51,39756
 444,62; 7709,936;  306,069;14699,606;51,43883
 445,21; 7657,654;  315,068;14587,723;51,44513
 445,80; 7663,597;  345,919;14524,583;51,61049
 446,39; 7548,021;  356,302;14305,874;51,55512
 446,97; 7397,930;  292,385;14107,313;51,43382
 447,56; 7295,987;  312,927;13923,327;51,30680
 448,15; 7243,067;  304,846;13730,790;51,67771
 448,74; 7094,612;  322,693;13558,650;51,16305
 449,33; 7058,967;  317,773;13412,294;51,48103
 449,91; 6978,604;  316,162;13256,983;51,48392
 450,50; 6841,127;  299,238;12957,665;51,68011
 451,09; 6761,728;  319,854;12948,808;51,00878
 451,68; 6748,471;  331,779;12840,793;51,29655
 452,26; 6685,671;  330,781;12763,121;51,11580
 452,85; 6628,105;  309,241;12702,998;50,98425
 453,44; 6651,763;  337,093;12715,419;51,01393
 454,03; 6624,639;  305,474;12641,459;51,22546
 454,61; 6608,541;  302,171;12612,877;51,22672
 455,20; 6734,164;  334,173;12819,368;51,26064
 455,79; 6702,100;  334,631;12800,040;51,08111
 456,38; 6728,563;  334,869;12835,957;51,14510
 456,97; 6767,377;  314,175;12930,733;51,14867
 457,55; 6739,447;  327,024;12986,367;50,65368
 458,14; 6774,416;  359,328;12929,255;51,03520
 458,73; 6727,918;  336,255;12858,286;51,04334
 459,31; 6770,903;  360,105;12888,016;51,17212
 459,90; 6789,684;  365,642;13009,337;50,80826
 460,49; 6823,347;  401,179;13084,693;50,63398
 461,08; 6848,223;  331,646;13146,916;50,85010
 461,66; 6860,100;  333,874;13133,433;50,98789
 462,25; 6888,278;  346,724;13253,540;50,68295
 462,84; 6953,924;  372,415;13264,835;51,04945
 463,43; 6828,004;  312,728;13273,642;50,26865
 464,01; 6866,037;  335,346;13300,720;50,37025
 464,60; 6907,693;  382,881;13257,123;50,68114
 465,19; 6737,530;  310,193;13024,885;50,55047
 465,77; 6733,961;  346,195;12957,829;50,64979
 466,36; 6715,715;  355,190;12871,454;50,81808
 466,95; 6555,857;  338,421;12568,117;50,83885
 467,53; 6404,905;  349,274;12329,878;50,54529
 468,12; 6313,295;  370,198;12130,524;50,53514
 468,71; 6157,807;  358,578;11902,890;50,23452
 469,29; 6043,090;  329,044;11685,581;50,31504
 469,88; 5896,511;  343,892;11486,547;49,83210
 470,47; 6014,793;  405,357;11586,317;50,16953
 471,06; 5943,461;  349,127;11501,943;50,16073
 471,64; 6016,832;  352,280;11596,839;50,37594
 472,23; 6013,604;  321,594;11583,969;50,54005
 472,81; 6032,646;  323,437;11719,893;50,09636
 473,40; 6063,216;  338,671;11817,928;49,86860
 473,99; 6235,100;  438,979;12040,937;49,95813
 474,57; 6225,779;  340,133;12159,994;49,79454
 475,16; 6275,513;  360,361;12218,465;49,88278
 475,75; 6376,850;  373,289;12384,013;49,98500
 476,33; 6399,243;  377,523;12477,109;49,76799
 476,92; 6417,432;  374,980;12492,704;49,86458
 477,51; 6443,043;  368,983;12553,558;49,85041
 478,09; 6475,734;  376,598;12581,345;49,97347
 478,68; 6408,611;  378,292;12542,433;49,57456
 479,27; 6466,422;  397,751;12597,596;49,74384
 479,85; 6425,115;  370,599;12553,004;49,69886
 480,44; 6467,198;  361,908;12606,505;49,86109
 481,02; 6982,485;  378,757;13796,042;49,21807
 481,61; 7915,030;  402,064;15652,194;49,26494
 482,20; 8466,733;  389,526;16794,488;49,23637
 482,78; 8851,787;  417,446;17518,987;49,31919
 483,37; 9062,893;  400,222;18018,243;49,16938
 483,95; 9250,222;  423,531;18194,276;49,66978
 484,54; 9331,329;  435,063;18409,352;49,49440
 485,13; 9273,686;  397,380;18366,598;49,39728
 485,71; 9175,424;  376,840;18058,972;49,75975
 486,30; 9055,115;  431,071;17894,682;49,38293
 486,88; 8916,460;  442,688;17531,852;49,58564
 487,47; 8589,190;  433,535;16893,254;49,54918
 488,05; 8177,368;  429,767;16157,182;49,26176
 488,64; 7674,800;  425,000;14969,596;49,84532
 489,23; 6853,023;  430,229;13365,258;49,65427
 489,81; 5875,560;  430,538;11432,053;49,49339
 490,40; 5478,584;  382,077;10874,205;48,57459
 490,98; 5367,901;  357,462;10591,516;48,95849
 491,57; 5292,899;  397,999;10567,510;48,13309
 492,15; 5274,274;  373,771;10500,179;48,39330
 492,74; 5252,035;  389,152;10406,749;48,54341
 493,32; 5188,868;  402,616;10315,377;48,28375
 493,91; 5121,643;  379,387;10229,194;48,14568
 494,50; 5094,868;  391,392;10263,082;47,64611
 495,08; 5055,836;  369,546;10121,789;48,05346
 495,67; 5055,558;  390,772;10132,736;47,88342
 496,25; 4992,470;  326,544;10026,577;48,10216
 496,84; 4962,005;  347,156;10026,563;47,67699
 497,42; 4932,772;  330,468; 9959,484;47,79621
 498,01; 4926,855;  367,080; 9902,920;47,81724
 498,59; 4870,319;  317,237; 9817,250;47,92712
 499,18; 4842,982;  328,080; 9836,658;47,48241
 499,76; 4816,948;  354,775; 9744,638;47,52118
 500,35; 4754,549;  347,086; 9572,984;47,77273
 500,93; 4693,258;  325,852; 9577,089;47,20888
 501,52; 4657,764;  330,237; 9470,573;47,34538
 502,10; 4636,962;  346,011; 9496,038;46,89550
 502,69; 4541,304;  334,090; 9334,329;46,74558
 503,27; 4454,075;  317,777; 9147,938;46,84284
 503,86; 4436,649;  327,474; 9068,484;47,01030
 504,44; 4375,685;  311,398; 8999,373;46,78060
 505,03; 4271,243;  292,860; 8772,262;46,91820
 505,61; 4220,164;  315,167; 8645,426;46,87726
 506,19; 4144,073;  329,629; 8542,030;46,44737
 506,78; 4024,791;  302,940; 8351,751;46,24099
 507,36; 3941,403;  305,244; 8211,729;45,98958
 507,95; 3879,328;  326,558; 8031,400;46,11087
 508,53; 3836,601;  308,094; 7979,494;45,99561
 509,12; 3786,323;  315,403; 7891,907;45,81162
 509,70; 3737,186;  323,250; 7716,130;46,17870
 510,29; 3625,142;  341,483; 7629,516;45,05549
 510,87; 3556,563;  305,402; 7432,639;45,61601
 511,46; 3493,410;  302,941; 7270,954;45,78735
 512,04; 3419,267;  300,635; 7159,948;45,46565
 512,62; 3335,716;  326,710; 7059,818;44,68969
 513,21; 3249,580;  290,714; 6856,757;45,06315
 513,79; 3213,692;  306,027; 6749,780;45,12378
 514,38; 3099,894;  290,640; 6580,820;44,66093
 514,96; 3089,517;  329,640; 6537,501;44,45778
 515,54; 2999,314;  284,641; 6411,547;44,30740
 516,13; 2977,516;  316,257; 6365,150;43,99580
 516,71; 2912,978;  293,413; 6187,097;44,44699
 517,30; 2869,967;  298,492; 6100,160;44,32302
 517,88; 2831,182;  317,031; 6059,697;43,78021
 518,46; 2764,618;  286,109; 5948,733;43,76963
 519,05; 2735,386;  296,187; 5904,152;43,49527
 519,63; 2718,234;  312,494; 5837,280;43,54449
 520,22; 2683,688;  314,651; 5819,016;43,03924
 520,80; 2655,199;  310,883; 5738,447;43,19279
 521,38; 2653,417;  334,495; 5731,616;42,96590
 521,97; 2605,582;  293,500; 5657,788;43,10139
 522,55; 2595,757;  318,038; 5672,813;42,53622
 523,13; 2563,379;  293,962; 5633,143;42,50497
 523,72; 2570,295;  301,647; 5659,501;42,34248
 524,30; 2609,631;  324,733; 5771,568;41,94909
 524,89; 2602,786;  294,346; 5746,142;42,34274
 525,47; 2668,710;  313,426; 5873,635;42,35962
 526,05; 2648,161;  278,657; 5922,665;41,98265
 526,64; 2690,560;  323,351; 6001,539;41,68952
 527,22; 2744,616;  318,349; 6135,190;41,71107
 527,80; 2823,642;  347,504; 6262,947;41,85887
 528,39; 2799,687;  301,198; 6336,439;41,39832
 528,97; 2864,992;  295,736; 6473,141;41,59119
 529,55; 2945,878;  310,039; 6638,152;41,65285
 530,14; 2995,991;  333,353; 6782,175;41,28876
 530,72; 2998,221;  306,120; 6881,159;40,94426
 531,30; 3024,425;  294,045; 6980,759;40,83291
 531,89; 3085,234;  316,891; 7098,981;40,81843
 532,47; 3145,174;  340,508; 7179,358;41,01079
 533,05; 3165,413;  327,889; 7206,237;41,25299
 533,63; 3188,298;  346,816; 7320,901;40,74343
 534,22; 3156,892;  307,816; 7328,722;40,57990
 534,80; 3160,910;  338,357; 7389,806;40,02799
 535,38; 3267,685;  412,353; 7502,857;40,26980
 535,97; 3165,903;  318,046; 7407,846;40,16836
 536,55; 3212,517;  371,819; 7484,972;39,93585
 537,13; 3191,507;  378,045; 7457,091;39,74353
 537,71; 3212,227;  408,506; 7522,121;39,41344
 538,30; 3235,698;  432,817; 7585,910;39,18418
 538,88; 3277,126;  469,897; 7660,675;39,03929
 539,46; 3331,469;  541,588; 7831,755;38,26910
 540,05; 3383,223;  557,358; 7964,077;38,15273
 540,63; 3474,893;  596,666; 8108,608;38,31536
 541,21; 3542,742;  625,206; 8260,452;38,21142
 541,79; 3540,012;  662,283; 8345,751;37,45352
 542,38; 3608,328;  681,742; 8498,338;37,44066
 542,96; 3672,559;  701,977; 8638,609;37,42875
 543,54; 3711,326;  719,744; 8861,218;36,74497
 544,12; 3757,501;  696,591; 8941,174;37,12631
 544,70; 3762,862;  672,747; 9030,355;36,97368
 545,29; 3791,883;  683,743; 9151,014;36,70770
 545,87; 3818,319;  650,898; 9205,136;37,02751
 546,45; 3816,004;  605,588; 9222,491;37,25719
 547,03; 3817,839;  598,051; 9248,623;37,22052
 547,62; 3799,620;  568,745; 9376,130;36,68371
 548,20; 3848,990;  568,900; 9540,760;36,55976
 548,78; 3862,043;  525,136; 9614,143;36,71366
 549,36; 3925,285;  493,751; 9815,403;36,81251
 549,94; 3906,104;  453,053; 9900,376;36,55058
 550,53; 4000,170;  468,442;10132,079;36,54658
 551,11; 4059,923;  419,291;10261,657;36,98940
 551,69; 4108,827;  444,135;10523,829;36,35717
 552,27; 4174,447;  415,518;10761,760;36,33135
 552,85; 4296,540;  411,444;11102,716;36,33895
 553,44; 4403,118;  404,904;11349,153;36,53255
 554,02; 4501,309;  418,674;11698,555;36,19396
 554,60; 4527,493;  357,060;11986,584;35,86073
 555,18; 4690,555;  405,981;12299,240;36,02523
 555,76; 4789,174;  371,674;12580,521;36,18278
 556,34; 4877,120;  372,985;12928,483;35,87381
 556,93; 4998,205;  370,058;13278,593;35,85338
 557,51; 5090,156;  355,062;13566,586;35,84064
 558,09; 5233,302;  375,828;13889,695;35,94437
 558,67; 5321,965;  383,525;14243,901;35,62991
 559,25; 5401,295;  387,601;14502,516;35,52054
 559,83; 5466,378;  361,219;14712,948;35,57173
 560,41; 5540,597;  358,446;15061,399;35,24565
 561,00; 5623,618;  370,679;15405,602;34,93825
 561,58; 5699,717;  352,292;15564,740;35,15164
 562,16; 5764,210;  354,675;15827,248;34,96209
 562,74; 5837,135;  333,674;16170,299;34,75148
 563,32; 5969,302;  343,449;16487,161;34,84857
 563,90; 6065,599;  365,371;16893,406;34,48824
 564,48; 6149,535;  366,138;17252,932;34,24805
 565,06; 6326,876;  348,756;17790,633;34,27452
 565,65; 6501,686;  370,452;18364,895;34,07293
 566,23; 6734,059;  407,218;18999,500;34,02940
 566,81; 6886,066;  357,447;19670,421;33,80432
 567,39; 7167,306;  364,527;20526,056;33,74138
 567,97; 7318,536;  383,525;21033,571;33,58352
 568,55; 7602,075;  410,988;21775,741;33,65865
 569,13; 7721,864;  359,756;22407,065;33,39232
 569,71; 7970,597;  358,060;23291,076;33,19466
 570,29; 8260,803;  409,981;24137,455;33,08747
 570,87; 8411,397;  399,290;24791,379;32,84715
 571,45; 8615,507;  392,987;25303,173;33,00867
 572,03; 8628,101;  349,912;25699,267;32,65641
 572,61; 8825,058;  348,911;26399,372;32,53742
 573,20; 9020,999;  381,831;27027,545;32,42235
 573,78; 9193,706;  370,603;27582,819;32,42331
 574,36; 9290,394;  379,218;28016,539;32,24327
 574,94; 9420,973;  428,682;28281,862;32,28461
 575,52; 9375,531;  384,531;28548,552;31,92371
 576,10; 9559,484;  439,607;29100,078;31,82040
 576,68; 9676,891;  424,989;29663,753;31,64259
 577,26; 9814,191;  437,225;30132,352;31,57746
 577,84; 9927,100;  435,603;30649,174;31,41468
 578,42;10039,048;  487,683;30852,657;31,45521
 579,00; 9946,801;  434,603;30962,554;31,15898
 579,58;10014,375;  466,528;31145,999;31,12129
 580,16; 9940,864;  454,375;31274,508;30,78017
 580,74;10033,973;  459,068;31409,801;30,93596
 581,32; 9919,634;  453,221;31471,405;30,51892
 581,90; 9978,924;  475,068;31360,832;30,77099
 582,48; 9936,190;  481,145;31530,012;30,45214
 583,06; 9925,429;  467,759;31645,146;30,33503
 583,64; 9953,628;  465,066;31726,545;30,35225
 584,22; 9873,651;  475,224;31533,208;30,26090
 584,80; 9742,700;  485,606;31311,453;30,03030
 585,38; 9623,797;  497,446;30916,404;30,00218
 585,96; 9618,694;  459,758;31068,098;29,92301
 586,54; 9524,818;  481,454;31036,758;29,59671
 587,12; 9571,596;  462,761;31161,891;29,67131
 587,70; 9609,650;  481,450;31347,237;29,57384
 588,28; 9539,597;  461,915;31385,412;29,35529
 588,86; 9565,909;  476,992;31519,846;29,27861
 589,44; 9551,617;  451,996;31455,187;29,35060
 590,02; 9575,234;  451,610;31719,238;29,17914
 590,59; 9562,416;  430,608;31929,235;28,99113
 591,17; 9588,480;  428,845;32006,144;29,00702
 591,75; 9638,606;  418,766;32126,473;29,07760
 592,33; 9615,609;  443,688;32340,353;28,75511
 592,91; 9627,365;  393,306;32671,434;28,60779
 593,49; 9702,519;  404,307;32802,681;28,69963
 594,07; 9720,502;  422,846;33033,313;28,51126
 594,65; 9670,292;  438,224;33079,333;28,28356
 595,23; 9740,025;  416,687;33409,322;28,25885
 595,81; 9724,198;  408,534;33545,835;28,11232
 596,39; 9711,347;  406,457;33624,196;28,01181
 596,97; 9724,250;  398,690;33796,195;27,92292
 597,55; 9678,080;  392,455;33700,615;27,87793
 598,12; 9606,384;  386,693;33728,117;27,65236
 598,70; 9638,755;  391,768;33818,620;27,66335
 599,28; 9641,811;  404,768;34013,287;27,48423
 599,86; 9592,259;  397,152;33965,114;27,39251
 600,44; 9525,969;  356,461;34064,721;27,20255
 601,02; 9586,741;  417,695;34218,050;27,12707
 601,60; 9513,007;  392,535;34173,150;26,99913
 602,18; 9509,082;  365,462;34152,602;27,06243
 602,75; 9406,935;  373,072;34232,157;26,68077
 603,33; 9426,772;  381,922;34418,757;26,57371
 603,91; 9347,198;  360,540;34325,147;26,45889
 604,49; 9350,941;  398,999;34393,682;26,33336
 605,07; 9371,069;  386,304;34345,533;26,45750
 605,65; 9338,979;  406,615;34436,391;26,24867
 606,23; 9377,926;  464,608;34619,214;26,09697
 606,80; 9301,590;  514,995;34630,071;25,75575
 607,38; 9235,422;  546,155;34683,826;25,45360
 607,96; 9238,034;  597,457;34728,164;25,31614
 608,54; 9222,711;  652,769;34860,921;25,05234
 609,12; 9177,492;  655,918;34823,046;24,94086
 609,70; 9169,955;  695,229;34929,540;24,75506
 610,27; 9109,619;  700,687;35001,084;24,51555
 610,85; 9143,382;  718,844;35003,187;24,57255
 611,43; 9071,121;  717,537;34987,961;24,37549
 612,01; 8953,846;  684,304;34750,674;24,27480
 612,59; 8960,013;  672,460;34737,035;24,32895
 613,16; 8854,611;  644,224;34690,217;24,11558
 613,74; 8761,367;  620,153;34677,271;23,90459
 614,32; 8778,476;  581,846;34577,418;24,11088
 614,90; 8688,074;  533,613;34521,641;23,99216
 615,48; 8555,253;  481,379;34204,658;23,94155
 616,05; 8550,352;  456,916;34228,119;23,96549
 616,63; 8429,220;  469,069;34010,964;23,73196
 617,21; 8367,677;  462,072;33849,657;23,67828
 617,79; 8298,961;  441,765;33792,598;23,55922
 618,36; 8271,723;  445,766;33676,601;23,55029
 618,94; 8126,418;  385,302;33551,233;23,34057
 619,52; 8091,922;  405,916;33249,711;23,40170
 620,10; 8007,663;  393,841;33235,799;23,18322
 620,67; 7953,430;  413,146;33193,170;23,00268
 621,25; 7917,988;  421,151;33002,568;23,00955
 621,83; 7832,745;  406,225;32912,046;22,84674
 622,41; 7884,480;  450,071;32859,540;22,93900
 622,98; 7747,203;  415,300;32663,673;22,73573
 623,56; 7683,078;  418,299;32733,532;22,48097
 624,14; 7678,794;  395,998;32622,603;22,59871
 624,72; 7608,593;  382,686;32516,489;22,48693
 625,29; 7603,057;  382,069;32529,661;22,46199
 625,87; 7565,383;  417,765;32515,376;22,26838
 626,45; 7530,360;  372,914;32343,321;22,38772
 627,02; 7452,166;  383,381;32318,396;22,13491
 627,60; 7404,259;  359,538;32308,045;22,05024
 628,18; 7381,569;  351,841;32275,815;22,02022
 628,76; 7355,466;  361,377;32234,196;21,94374
 629,33; 7282,514;  382,840;32184,576;21,69590
 629,91; 7287,586;  362,688;32279,184;21,69693
 630,49; 7302,488;  388,070;32417,596;21,58764
 631,06; 7306,440;  381,454;32548,609;21,52813
 631,64; 7267,161;  374,453;32413,461;21,51349
 632,22; 7172,192;  339,990;32414,294;21,30117
 632,79; 7243,094;  371,913;32640,346;21,29382
 633,37; 7244,882;  346,150;32776,778;21,27227
 633,95; 7220,382;  342,145;32761,252;21,21661
 634,52; 7225,653;  344,686;32872,044;21,15440
 635,10; 7204,940;  345,072;32898,950;21,07235
 635,68; 7216,595;  340,913;33024,645;21,03702
 636,25; 7170,506;  328,219;33057,515;20,90570
 636,83; 7214,466;  319,454;33308,812;20,90072
 637,41; 7207,416;  339,528;33312,742;20,82869
 637,98; 7214,805;  356,989;33467,304;20,71202
 638,56; 7219,675;  345,911;33589,662;20,67686
 639,13; 7186,187;  336,838;33647,671;20,56193
 639,71; 7281,842;  368,070;33756,978;20,70679
 640,29; 7097,471;  300,377;33598,392;20,41291
 640,86; 7160,888;  324,762;33698,719;20,48341
 641,44; 7133,689;  321,070;33764,584;20,37053
 642,02; 7151,491;  343,454;33797,372;20,35049
 642,59; 7131,831;  330,070;33899,160;20,26198
 643,17; 7072,633;  307,455;33825,564;20,18365
 643,74; 7089,512;  332,147;33897,121;20,13219
 644,32; 7085,544;  350,224;33794,602;20,13887
 644,89; 7038,346;  339,455;33886,236;19,96880
 645,47; 7012,763;  364,301;33822,870;19,87073
 646,05; 7008,103;  338,917;33844,120;19,90493
 646,62; 7004,982;  333,532;33775,754;19,94918
 647,20; 6980,630;  340,609;33996,004;19,72944
 647,77; 6934,047;  309,686;33826,177;19,76448
 648,35; 6872,926;  300,148;33744,657;19,65279
 648,92; 6923,189;  332,917;33742,599;19,72563
 649,50; 6830,683;  299,763;33743,079;19,52833
 650,08; 6829,023;  313,379;33643,868;19,54860
 650,65; 6847,594;  308,148;33873,117;19,48295
 651,23; 6968,088;  287,533;34500,213;19,52655
 651,80; 7118,736;  284,225;35347,924;19,49170
 652,38; 7163,769;  304,918;35719,482;19,36732
 652,95; 7209,340;  285,379;36081,193;19,34293
 653,53; 7283,141;  321,149;36346,443;19,32529
 654,10; 7306,481;  336,841;36454,538;19,29702
 654,68; 7225,591;  300,611;36378,250;19,19466
 655,25; 7252,008;  289,918;36456,422;19,25010
 655,83; 7262,271;  296,688;36537,364;19,22035
 656,40; 7277,611;  332,534;36506,845;19,19892
 656,98; 7232,644;  292,457;36424,171;19,20802
 657,55; 7180,600;  309,842;36363,652;19,05695
 658,13; 7125,324;  295,842;35883,286;19,19071
 658,70; 7078,588;  318,227;35800,074;19,05301
 659,28; 6914,928;  303,304;34942,170;19,08730
 659,85; 6766,730;  323,381;34232,958;19,00156
 660,43; 6767,070;  322,458;34213,516;19,01567
 661,00; 6761,487;  302,304;34383,073;18,95257
 661,58; 6797,135;  295,073;34619,630;18,94289
 662,15; 6844,244;  296,996;34827,265;18,96089
 662,73; 6909,354;  355,997;35099,514;18,86210
 663,30; 6886,848;  313,227;35312,764;18,78202
 663,88; 6949,649;  305,766;35433,783;18,91335
 664,45; 6980,220;  299,920;35638,648;18,90362
 665,03; 7071,407;  297,382;35915,513;19,01847
 665,60; 7187,670;  374,151;36403,609;18,91097
 666,17; 7157,703;  312,920;36516,166;18,90654
 666,75; 7189,966;  298,997;36774,339;18,89213
 667,32; 7287,152;  329,074;37023,204;18,96237
 667,90; 7342,185;  312,921;37335,146;18,98661
 668,47; 7392,294;  323,382;37535,934;18,99604
 669,05; 7416,480;  314,075;37830,722;18,93134
 669,62; 7472,744;  291,152;37968,895;19,06057
 670,19; 7446,084;  275,767;37959,837;19,02745
 670,77; 7478,347;  303,767;38223,317;18,92053
 671,34; 7490,841;  295,152;38101,336;19,03310
 671,92; 7579,181;  290,229;38389,586;19,13143
 672,49; 7575,599;  308,614;38431,759;19,06187
 673,06; 7552,939;  266,229;38504,701;19,05596
 673,64; 7575,433;  280,537;38489,643;19,09204
 674,21; 7566,927;  282,614;38387,662;19,11640
 674,79; 7653,959;  309,153;38620,988;19,17112
 675,36; 7647,530;  315,230;38708,699;19,09778
 675,93; 7601,948;  283,537;38668,257;19,06595
 676,51; 7729,595;  308,768;38746,045;19,30633
 677,08; 7684,089;  299,307;38908,910;19,12680
 677,65; 7729,583;  307,845;38928,621;19,21696
 678,23; 7771,462;  305,922;39173,179;19,20779
 678,80; 7796,725;  291,153;39328,351;19,22672
 679,38; 7840,681;  295,153;39473,293;19,25954
 679,95; 7912,483;  304,769;39654,620;19,33353
 680,52; 7980,669;  296,000;39890,716;19,40832
 681,10; 8102,317;  304,384;40293,888;19,49995
 681,67; 8156,811;  299,923;40502,215;19,54338
 682,24; 8115,382;  273,615;40588,849;19,45113
 682,82; 8232,722;  290,077;41102,484;19,46135
 683,39; 8394,755;  326,923;41358,964;19,66227
 683,96; 8383,556;  288,308;41611,983;19,58986
 684,54; 8459,127;  272,616;41813,848;19,70695
 685,11; 8613,545;  310,385;42132,482;19,85352
 685,68; 8632,192;  286,308;42546,424;19,74884
 686,25; 8678,763;  274,616;42635,059;19,83961
 686,83; 8737,027;  273,693;42791,462;19,90540
 687,40; 8810,675;  269,386;43071,789;19,95516
 687,97; 9006,169;  322,386;43388,808;20,16370
 688,55; 8916,893;  258,001;43466,903;20,03960
 689,12; 8987,311;  255,617;43682,692;20,10657
 689,69; 9055,420;  266,232;43795,787;20,19131
 690,26; 9077,068;  284,771;43954,499;20,13362
 690,84; 9178,177;  291,771;44189,364;20,24349
 691,41; 9196,748;  306,309;44136,844;20,28367
 691,98; 9301,165;  294,848;44588,478;20,33321
 692,56; 9302,121;  282,694;44574,882;20,36347
 693,13; 9383,923;  333,464;44633,593;20,42987
 693,70; 9455,571;  302,925;44812,381;20,56337
 694,27; 9458,680;  290,387;44812,708;20,59258
 694,84; 9574,251;  282,695;45005,957;20,77567
 695,42; 9661,591;  334,310;45101,899;20,83490
 695,99; 9611,547;  304,079;45276,918;20,69575
 696,56; 9657,887;  294,080;45164,014;20,86878
 697,13; 9799,150;  298,849;45467,264;21,03306
 697,71; 9852,875;  289,003;45588,129;21,11271
 698,28; 9890,831;  299,080;45841,302;21,06123
 698,85; 9939,017;  268,157;45908,628;21,18922
 699,42;10049,280;  267,772;46123,263;21,33116
 699,99;10023,620;  304,926;46237,128;21,15878
 700,57;10088,653;  297,311;46230,070;21,31669
 701,14;10153,993;  280,311;46376,935;21,41953
 701,71;10285,795;  310,850;46638,800;21,53116
 702,28;10279,289;  294,465;46572,511;21,57572
 702,85;10329,245;  307,081;46653,376;21,62452
 703,43;10425,431;  312,312;46872,549;21,72051
 704,00;10476,156;  327,004;47096,568;21,70033
 704,57;10504,111;  299,312;46970,971;21,86509
 705,14;10611,913;  332,004;47369,682;21,85463
 705,71;10645,099;  342,081;47427,471;21,88156
 706,28;10689,670;  310,850;47394,874;22,04319
 706,86;10781,472;  346,620;47531,354;22,11489
 707,43;10847,812;  359,235;47444,912;22,27552
 708,00;10846,537;  328,005;47556,777;22,27145
 708,57;10871,339;  301,389;47422,488;22,43146
 709,14;10957,910;  327,236;47655,815;22,46143
 709,71;11044,865;  312,543;47744,449;22,62680
 710,28;11118,590;  313,082;47915,314;22,69958
 710,86;11190,777;  309,928;48020,871;22,80577
 711,43;11204,271;  333,313;47975,352;22,81799
 712,00;11266,149;  316,467;48120,755;22,90523
 712,57;11363,413;  337,390;48233,544;23,02068
 713,14;11434,522;  314,698;48374,639;23,13741
 713,71;11477,247;  315,159;48244,197;23,28878
 714,28;11490,510;  300,544;48378,754;23,27451
 714,85;11458,620;  293,775;48046,850;23,38037
 715,42;11581,806;  293,237;48317,407;23,50602
 716,00;11724,915;  360,237;48414,042;23,64990
 716,57;11727,948;  297,468;48484,291;23,72117
 717,14;11718,519;  281,929;48384,541;23,77540
 717,71;11752,859;  280,006;48454,637;23,81513
 718,28;11938,353;  325,699;48556,348;24,07733
 718,85;11931,078;  276,468;48492,059;24,17187
 719,42;12053,495;  296,776;48717,617;24,28029
 719,99;11989,066;  283,776;48509,020;24,27212
 720,56;12161,637;  310,391;48748,654;24,46670
 721,13;12244,592;  287,392;48823,981;24,63544
 721,70;12253,240;  277,546;48758,615;24,70180
 722,27;12287,734;  304,546;48775,019;24,72266
 722,84;12428,767;  345,238;48931,961;24,87002
 723,41;12459,723;  276,546;48967,826;25,02127
 723,98;12516,063;  299,546;49080,229;25,04376
 724,55;12601,557;  310,315;49232,402;25,12412
 725,12;12643,205;  247,623;49144,498;25,35046
 725,69;12792,622;  285,239;49277,517;25,52929
 726,27;12801,116;  293,623;49382,690;25,47918
 726,84;12982,456;  298,854;49718,401;25,66515
 727,41;13088,181;  308,316;49661,189;25,89488
 727,98;13148,598;  311,162;49958,900;25,85704
 728,55;13213,169;  330,162;49853,381;26,01407
 729,12;13207,586;  273,239;49989,169;26,01650
 729,69;13410,772;  317,624;50136,957;26,28126
 730,26;13401,190;  309,778;50348,822;26,16239
 730,82;13464,376;  297,163;50277,456;26,34481
 731,39;13595,562;  291,317;50285,167;26,61176
 731,96;13706,518;  280,624;50571,802;26,69632
 732,53;13838,704;  306,240;50841,744;26,77813
 733,10;13907,891;  306,548;51018,993;26,82052
 733,67;14055,000;  314,317;51184,551;27,01124
 734,24;14002,802;  290,855;50785,416;27,15529
 734,81;14130,988;  325,702;50886,742;27,30420
 735,38;14051,328;  301,702;50707,223;27,27802
 735,95;14189,130;  299,625;50561,780;27,63412
 736,52;14261,086;  302,548;50796,491;27,64398
 737,09;14168,426;  307,548;50411,818;27,66406
 737,66;14370,766;  349,241;50647,221;27,87691
 738,23;14435,952;  293,395;50711,779;28,05040
 738,80;14622,600;  357,318;50979,490;28,17991
 739,37;14665,479;  321,395;51168,278;28,21035
 739,94;14722,050;  306,933;51266,605;28,28730
 740,51;14918,852;  399,395;51176,162;28,59468
 741,07;14848,038;  294,395;51149,489;28,61787
 741,64;14957,301;  334,626;51368,123;28,65309
 742,21;15060,334;  297,857;51408,450;28,88340
 742,78;15054,597;  271,934;51195,776;29,02896
 743,35;15143,322;  295,780;51403,334;29,05156
 743,92;15259,739;  323,396;51518,122;29,17555
 744,49;15346,387;  309,011;51500,987;29,37448
 745,06;15344,881;  304,011;51481,621;29,38955
 745,63;15406,375;  277,242;51405,409;29,59060
 746,19;15557,254;  286,781;51513,813;29,80940
 746,76;15526,825;  295,704;51484,062;29,75505
 747,33;15661,319;  284,858;51445,158;30,05545
 747,90;15765,274;  316,319;51609,408;30,11898
 748,47;15744,614;  305,396;51598,427;30,10003
 749,04;15851,724;  308,550;51568,061;30,32252
 749,61;15914,064;  334,935;51465,465;30,46933
 750,17;16016,097;  313,166;51550,714;30,64731
 750,74;15971,129;  309,474;51508,964;30,58947
 751,31;15934,546;  288,551;51351,598;30,64054
 751,88;16052,271;  272,474;51405,848;30,86007
 752,45;16151,150;  296,782;51402,174;31,02289
 753,02;16160,028;  316,859;51215,040;31,12718
 753,58;16216,907;  293,628;51275,212;31,23339
 754,15;16338,786;  295,859;51399,462;31,39295
 754,72;16315,280;  281,551;51227,404;31,47210
 755,29;16208,312;  267,244;51119,192;31,34800
 755,86;16443,268;  295,475;51214,365;31,71277
 756,42;16410,300;  299,244;51097,845;31,71555
 756,99;16453,256;  253,090;50977,326;31,93772
 757,56;16445,134;  255,937;50970,498;31,92219
 758,13;16561,859;  227,860;50886,210;32,24345
 758,70;16558,199;  250,552;51004,921;32,13053
 759,26;16666,309;  236,322;51033,863;32,34406
 759,83;16720,495;  243,322;51053,266;32,42903
 760,40;16739,374;  226,322;51003,824;32,52041
 760,97;16788,791;  230,937;50898,227;32,67957
 761,53;16771,824;  218,322;50600,554;32,85583
 762,10;16756,318;  209,245;50629,650;32,81821
 762,67;16857,889;  252,861;50692,130;32,92083
 763,24;16771,152;  196,784;50153,149;33,17769
 763,80;16955,569;  237,938;50331,860;33,37257
 764,37;16974,448;  239,938;50257,571;33,45722
 764,94;16840,865;  226,246;49867,283;33,46952
 765,50;16946,897;  239,092;49944,378;33,61374
 766,07;17051,545;  271,015;49896,244;33,81451
 766,64;17036,655;  243,246;49654,262;33,98718
 767,21;16997,302;  259,323;49628,974;33,90338
 767,77;17091,566;  276,861;49478,685;34,17496
 768,34;17111,214;  280,554;49371,396;34,28472
 768,91;17105,708;  276,016;49330,569;34,30811
 769,47;17220,356;  284,016;49375,280;34,49970
 770,04;17182,619;  291,247;49143,068;34,57675
 770,61;17224,882;  262,939;48955,087;34,83507
 771,18;17172,069;  254,247;48914,106;34,76751
 771,74;17320,101;  278,401;48989,510;34,98524
 772,31;17279,518;  279,632;48733,913;35,08438
 772,88;17292,166;  249,016;48515,393;35,31060
 773,44;17252,352;  262,939;48387,566;35,30295
 774,01;17389,923;  279,324;48493,970;35,48839
 774,58;17281,648;  255,555;48151,681;35,54795
 775,14;17445,450;  254,709;48253,700;35,81480
 775,71;17437,175;  252,171;48216,026;35,82907
 776,27;17505,053;  310,709;48202,507;35,90248
 776,84;17677,547;  336,171;48305,833;36,15072
 777,41;17591,272;  278,248;47961,699;36,30825
 777,97;17551,612;  255,940;47678,179;36,47165
 778,54;17671,030;  276,171;47718,275;36,66544
 779,11;17684,293;  291,479;47758,217;36,64211
 779,67;17655,325;  243,941;47711,928;36,68027
 780,24;17675,973;  272,941;47509,101;36,84261
 780,80;17798,775;  290,864;47501,120;37,08497
 781,37;17884,731;  271,787;47502,908;37,29097
 781,94;17843,225;  271,787;47295,234;37,36740
 782,50;17834,872;  274,556;47226,407;37,40069
 783,07;17990,290;  296,326;47330,118;37,61968
 783,63;18017,399;  264,557;47086,214;37,91588
 784,20;17964,355;  291,018;46959,925;37,86962
 784,77;18004,079;  274,095;46781,483;38,12294
 785,33;17931,958;  255,711;46631,425;38,11531
 785,90;18020,529;  268,096;46723,828;38,21366
 786,46;17983,408;  288,019;46535,616;38,26229
 787,03;17961,825;  253,173;46280,712;38,47404
 787,59;18037,704;  265,173;46207,885;38,68411
 788,16;18097,351;  267,942;46151,442;38,85800
 788,73;18060,999;  285,327;46032,461;38,85636
 789,29;18015,339;  268,096;45727,865;39,03945
 789,86;18076,834;  278,865;45739,038;39,15068
 790,42;18054,943;  282,173;45568,979;39,24492
 790,99;18023,052;  280,481;45233,691;39,46898
 791,55;18081,316;  262,789;45164,325;39,68356
 792,12;18120,733;  289,712;45206,575;39,69783
 792,68;17982,381;  276,174;44950,517;39,63395
 793,25;17974,029;  284,174;44732,536;39,79867
 793,81;17973,215;  335,405;44415,016;40,01353
 794,38;17887,478;  240,559;44239,343;40,10774
 794,94;17880,588;  261,097;44125,977;40,16765
 795,51;17888,620;  283,790;43907,688;40,35593
 796,07;17845,960;  276,328;43538,322;40,61216
 796,64;17991,685;  290,328;43800,957;40,68283
 797,20;17854,718;  272,713;43289,052;40,87285
 797,77;17772,058;  250,098;42932,994;41,05148
 798,33;17755,629;  276,329;42779,475;41,12472
 798,90;17725,508;  288,867;42734,417;41,08002
 799,46;17615,848;  264,252;42403,820;41,17649
 800,03;17673,111;  262,944;42239,455;41,47597
 800,59;17709,836;  286,406;42102,243;41,66706
 801,15;17695,330;  281,868;41835,031;41,90647
 801,72;17585,901;  273,714;41555,819;41,93630
 802,28;17555,856;  298,945;41222,607;42,16854
 802,85;17457,350;  271,176;41168,088;42,02316
 803,41;17476,921;  266,714;40968,260;42,28392
 803,98;17412,415;  253,483;40590,125;42,53932
 804,54;17298,756;  272,484;40381,606;42,44987
 805,11;17331,788;  278,484;40151,856;42,76865
 805,67;17214,667;  302,945;40103,798;42,49085
 806,23;17093,007;  276,792;39698,893;42,65682
 806,80;17115,578;  300,099;39595,989;42,79195
 807,36;17079,764;  298,946;39503,777;42,80294
 807,93;17035,489;  303,176;39394,796;42,80281
 808,49;16950,522;  254,561;38991,661;43,10070
 809,05;16930,323;  251,561;38746,373;43,32730
 809,62;16989,741;  283,254;38788,853;43,38716
 810,18;16984,158;  287,792;38594,257;43,58629
 810,74;16900,575;  255,869;38356,814;43,68581
 811,31;16895,530;  253,869;38185,756;43,87248
 811,87;16875,101;  270,331;38124,082;43,86559
 812,44;16923,057;  298,639;38078,563;44,00331
 813,00;16849,397;  227,100;37743,736;44,30647
 813,56;16895,737;  273,947;37907,216;44,16781
 814,13;16850,693;  256,485;37684,620;44,33619
 814,69;16868,495;  270,716;37579,331;44,48779
 815,25;16737,219;  241,332;37159,965;44,68174
 815,82;16742,790;  279,639;37158,369;44,64132
 816,38;16737,361;  304,101;36982,772;44,80331
 816,94;16592,163;  247,947;36683,945;44,85733
 817,51;16576,503;  241,947;36475,502;45,08130
 818,07;16470,151;  250,563;36313,367;44,97595
 818,63;16413,953;  270,948;36059,232;45,10695
 819,20;16478,985;  259,025;36002,636;45,37863
 819,76;16334,556;  245,255;35733,655;45,33679
 820,32;16388,666;  279,640;35601,981;45,60577
 820,89;16268,006;  279,102;35421,385;45,49763
 821,45;16219,885;  247,717;35149,788;45,76281
 822,01;16160,148;  263,487;34907,961;45,88513
 822,57;16135,950;  281,102;34767,826;45,97377
 823,14;15994,213;  240,333;34556,691;45,90779
 823,70;15938,015;  249,102;34326,479;46,03908
 824,26;15988,663;  245,333;34234,729;46,31836
 824,82;15898,311;  280,179;34049,363;46,24965
 825,39;15858,881;  245,564;33819,844;46,50380
 825,95;15863,606;  273,641;33877,863;46,39288
 826,51;15735,177;  261,564;33513,651;46,53426
 827,08;15868,287;  293,949;33632,208;46,71611
 827,64;15754,935;  277,872;33386,227;46,74670
 828,20;15725,352;  254,103;33196,861;46,96404
 828,76;15781,000;  272,642;33139,265;47,18574
 829,32;15749,648;  286,026;32959,438;47,32784
 829,89;15695,295;  238,027;32840,687;47,41107
 830,45;15707,866;  265,719;32805,937;47,45557
 831,01;15667,591;  253,796;32630,264;47,60802
 831,57;15712,393;  260,950;32506,359;47,91827
 832,14;15695,502;  252,565;32522,378;47,85568
 832,70;15607,919;  247,489;32309,243;47,90889
 833,26;15654,183;  226,412;32221,032;48,21989
 833,82;15628,600;  251,873;32083,897;48,30584
 834,38;15656,555;  256,335;32210,608;48,19456
 834,95;15637,896;  233,258;31973,319;48,53374
 835,51;15624,390;  210,951;31919,569;48,60962
 836,07;15690,191;  253,797;31953,588;48,69557
 836,63;15691,762;  275,643;31927,607;48,70510
 837,19;15686,026;  250,182;31857,164;48,83682
 837,75;15571,058;  221,259;31542,567;49,00753
 838,32;15702,168;  264,182;31683,048;49,13604
 838,88;15713,123;  265,720;31676,298;49,17898
 839,44;15683,002;  255,644;31588,316;49,23729
 840,00;15711,496;  249,490;31425,489;49,59586
 840,56;15557,990;  244,259;31253,200;49,38489
 841,12;15635,715;  240,721;31220,065;49,69438
 841,68;15576,593;  218,798;30958,469;49,96083
 842,25;15589,934;  235,336;31083,949;49,77403
 842,81;15521,428;  221,875;30810,276;50,01750
 843,37;15578,152;  220,875;30856,987;50,12802
 843,93;15582,493;  232,029;30698,852;50,38419
 844,49;15611,756;  262,414;30842,179;50,19444
 845,05;15597,481;  210,799;30651,736;50,54602
 845,61;15691,359;  265,645;30777,678;50,55617
 846,17;15596,930;  236,568;30496,466;50,76145
 846,73;15671,501;  246,414;30422,408;51,11708
 847,29;15598,534;  230,260;30269,735;51,16026
 847,86;15563,797;  237,876;30236,446;51,08884
 848,42;15560,214;  235,953;30102,927;51,30838
 848,98;15548,708;  248,107;30056,945;51,32908
 849,54;15593,818;  230,338;30022,195;51,56939
 850,10;15553,773;  243,338;29921,522;51,58818
 850,66;15499,575;  231,338;29752,695;51,71929
 851,22;15462,069;  220,338;29685,560;51,72787
 851,78;15548,255;  267,646;29743,194;51,84165
 852,34;15472,519;  241,800;29509,213;52,03985
 852,90;15510,782;  227,492;29446,847;52,30536
 853,46;15387,045;  227,723;29214,251;52,29782
 854,02;15434,616;  249,185;29228,654;52,40065
 854,58;15363,418;  241,723;29006,827;52,56958
 855,14;15354,989;  227,185;28966,230;52,63851
 855,70;15320,945;  198,262;28718,172;53,02500
 856,26;15307,592;  247,801;28829,114;52,69104
 856,82;15290,087;  235,031;28605,133;53,06662
 857,38;15266,581;  265,032;28495,614;53,13935
 857,94;15235,459;  245,493;28417,017;53,20964
 858,50;15189,876;  250,032;28338,267;53,18898
 859,06;15106,678;  226,878;28103,978;53,37643
 859,62;15108,249;  247,724;28130,843;53,29578
 860,18;15108,820;  239,032;28049,170;53,46895
 860,74;15069,545;  208,340;27876,112;53,71305
 861,30;14938,962;  214,648;27653,977;53,66135
 861,86;15060,764;  275,725;27715,073;53,88262
 862,42;14884,258;  240,648;27517,707;53,68471
 862,98;14973,983;  263,417;27542,341;53,92649
 863,54;14806,861;  236,033;27343,283;53,75251
 864,10;14906,586;  234,494;27331,687;54,14617
 864,66;14803,003;  213,879;27118,782;54,22478
 865,22;14771,959;  232,110;27079,494;54,15741
 865,78;14722,607;  234,725;26994,743;54,14003
 866,34;14733,101;  228,187;26833,685;54,51848
 866,90;14707,133;  241,341;26807,243;54,45248
 867,45;14584,396;  244,880;26595,185;54,41879
 868,01;14565,506;  244,341;26394,204;54,76574
 868,57;14492,846;  237,957;26249,069;54,80308
 869,13;14495,571;  215,880;26126,088;55,11222
 869,69;14419,757;  241,726;26118,414;54,79075
 870,25;14316,251;  218,957;25974,664;54,73464
 870,81;14394,130;  228,572;25969,221;55,03186
 871,37;14396,547;  245,419;25871,009;55,22264
 871,93;14348,733;  248,880;25682,721;55,43737
 872,49;14269,612;  264,727;25491,893;55,51509
 873,04;14226,106;  222,111;25348,758;55,73364
 873,60;14161,139;  222,342;25272,777;55,64293
 874,16;14143,710;  245,650;25173,181;55,75386
 874,72;14150,787;  221,727;25105,027;55,97754
 875,28;14133,863;  243,727;25044,565;56,00672
 875,84;14148,171;  240,804;24918,412;56,35622
 876,40;14045,633;  229,573;24931,412;55,93130
 876,95;14063,863;  242,342;24891,258;56,07355
 877,51;14156,248;  263,650;24825,335;56,56207
 878,07;14176,248;  278,573;24851,719;56,55635
 878,63;14218,325;  231,881;24878,796;56,74724
 879,19;14199,710;  254,342;24867,950;56,65714
 879,75;14288,633;  229,419;24956,642;56,85723
 880,30;14263,402;  235,881;24889,335;56,89881
 880,86;14387,787;  271,881;25034,181;57,00563
 881,42;14434,171;  218,573;25074,181;57,19272
 881,98;14492,017;  256,804;25141,027;57,20578
 882,54;14560,248;  225,958;25146,412;57,52018
 883,09;14610,787;  241,188;25286,258;57,37496
 883,65;14655,787;  219,419;25362,181;57,41759
 884,21;14817,787;  263,496;25535,181;57,59129
 884,77;14852,479;  235,573;25585,950;57,65952
 885,32;14945,325;  236,727;25729,335;57,69750
 885,88;15086,940;  272,419;25771,488;58,09828
 886,44;15060,017;  239,881;25922,873;57,70409
 887,00;15145,633;  261,650;25852,565;58,16120
 887,56;15306,248;  236,650;26019,873;58,44730
 888,11;15266,248;  239,958;26002,796;58,32545
 888,67;15372,017;  271,265;26241,335;58,14675
 889,23;15401,787;  243,112;26145,488;58,52233
 889,79;15394,171;  228,727;26112,335;58,59092
 890,34;15376,094;  244,573;25986,642;58,78129
 890,90;15492,556;  300,035;26218,335;58,61697
 891,46;15437,248;  217,958;26037,104;58,94575
 892,01;15467,863;  259,496;26049,412;58,97021
 892,57;15434,248;  272,342;26020,565;58,88525
 893,13;15392,479;  246,650;25776,719;59,32545
 893,69;15369,787;  223,804;25697,873;59,45647
 894,24;15293,017;  241,265;25649,719;59,23915
 894,80;15210,710;  241,804;25554,565;59,13581
 895,36;15200,710;  247,727;25397,181;59,45649
 895,91;15056,633;  232,958;25253,796;59,24532
 896,47;15075,479;  254,650;25154,488;59,52179
 897,03;14956,248;  230,419;25040,181;59,35498
 897,58;14936,248;  254,265;24929,488;59,50091
 898,14;14884,017;  245,419;24805,873;59,60231
 898,70;14776,556;  212,804;24601,719;59,71464
 899,25;14781,171;  238,496;24590,796;59,71787
 899,81;14762,017;  244,881;24447,027;59,98285
 900,37;14573,556;  219,496;24229,027;59,78484
 900,92;14718,325;  241,188;24254,796;60,28722
 901,48;14608,863;  219,573;24116,258;60,21459
 902,03;14519,863;  219,727;23871,719;60,46060
 902,59;14555,094;  232,727;23853,796;60,63387
 903,15;14503,940;  245,265;23809,027;60,51103
 903,70;14392,863;  239,881;23473,719;60,91539
 904,26;14272,325;  233,112;23408,181;60,57895
 904,82;14298,863;  236,342;23407,950;60,68859
 905,37;14298,094;  247,804;23234,873;61,12258
 905,93;14212,171;  229,881;23086,950;61,17272
 906,48;14196,863;  240,650;23093,181;61,07076
 907,04;14185,863;  248,112;23024,335;61,19431
 907,60;14076,556;  233,035;22848,104;61,21370
 908,15;14042,633;  222,958;22672,412;61,55907
 908,71;14038,863;  258,419;22698,258;61,41062
 909,26;13975,633;  224,881;22501,796;61,72646
 909,82;13976,787;  254,265;22493,412;61,70435
 910,37;13981,556;  277,881;22386,027;61,98473
 910,93;13839,171;  228,727;22198,796;61,94994
 911,48;13786,402;  214,573;22115,642;61,96880
 912,04;13719,017;  229,496;22051,950;61,81487
 912,60;13715,863;  243,496;21990,719;61,94983
 913,15;13659,402;  235,342;21874,950;62,03467
 913,71;13571,863;  227,035;21640,181;62,32073
 914,26;13618,863;  212,112;21610,412;62,65335
 914,82;13495,787;  236,342;21583,181;62,11432
 915,37;13547,633;  221,573;21462,027;62,73905
 915,93;13499,556;  272,342;21413,258;62,56689
 916,48;13419,017;  219,188;21190,873;62,94119
 917,04;13367,787;  242,496;21185,565;62,67128
 917,59;13367,787;  253,342;21147,950;62,76473
 918,15;13251,017;  201,419;20903,719;63,03453
 918,70;13252,710;  228,496;20838,796;63,19274
 919,26;13198,633;  228,496;20751,181;63,19902
 919,81;13067,094;  212,727;20559,488;63,17648
 920,37;13088,171;  231,727;20512,950;63,39087
 920,92;13034,171;  242,804;20421,796;63,38952
 921,48;12906,094;  209,881;20279,873;63,25968
 922,03;12954,094;  210,573;20264,719;63,54557
 922,59;12899,094;  227,804;20154,412;63,58980
 923,14;12819,017;  227,112;20027,642;63,59378
 923,69;12821,556;  247,112;19924,565;63,90280
 924,25;12783,556;  243,342;19947,796;63,64152
 924,80;12683,248;  220,650;19736,104;63,86015
 925,36;12656,325;  223,112;19705,642;63,81724
 925,91;12595,556;  228,804;19547,335;64,01497
 926,47;12573,094;  208,188;19500,181;64,09346
 927,02;12518,479;  268,881;19422,719;63,95375
 927,57;12480,787;  221,650;19268,335;64,36362
 928,13;12424,171;  219,035;19187,181;64,34544
 928,68;12351,171;  216,881;19171,873;64,01633
 929,24;12230,710;  193,573;18956,181;64,15492
 929,79;12162,171;  215,496;18839,027;64,14828
 930,34;12132,863;  223,035;18777,488;64,18852
 930,90;12129,017;  220,958;18733,258;64,32512
 931,45;12016,171;  237,188;18704,796;63,78185
 932,01;12026,017;  237,804;18604,258;64,18339
 932,56;11959,556;  242,342;18426,335;64,43697
 933,11;11981,171;  248,804;18460,488;64,42220
 933,67;11829,248;  212,727;18240,258;64,43767
 934,22;11821,402;  228,419;18208,873;64,47547
 934,77;11825,633;  257,958;18076,335;64,91991
 935,33;11695,940;  232,035;17948,719;64,70683
 935,88;11659,556;  235,342;17888,950;64,71319
 936,43;11654,863;  219,265;17853,873;64,84748
 936,99;11582,940;  232,650;17785,719;64,66271
 937,54;11487,479;  206,035;17585,104;64,91397
 938,09;11497,479;  227,035;17601,565;64,86762
 938,65;11426,402;  232,188;17499,642;64,82840
 939,20;11350,710;  204,112;17404,488;64,80438
 939,75;11303,787;  209,188;17267,488;65,03930
 940,31;11283,940;  207,342;17111,181;65,52712
 940,86;11303,248;  227,573;17159,027;65,41479
 941,41;11236,940;  297,958;17040,488;65,33649
 941,96;11159,787;  206,804;16943,719;65,44206
 942,52;11114,710;  221,419;16860,258;65,46906
 943,07;11079,940;  207,265;16771,258;65,64043
 943,62;10979,633;  213,727;16700,258;65,30122
 944,18;10964,633;  210,804;16651,719;65,40894
 944,73;10950,171;  218,342;16579,719;65,59246
 945,28;10772,940;  192,881;16361,565;65,43550
 945,83;10855,940;  220,650;16426,181;65,62754
 946,39;10856,556;  213,804;16281,488;66,23700
 946,94;10790,710;  240,881;16218,796;66,02757
 947,49;10675,556;  218,573;16132,027;65,71158
 948,04;10765,017;  257,881;16075,488;66,42684
 948,59;10679,940;  236,727;15972,488;66,36611
 949,15;10586,633;  206,650;15893,488;66,17001
 949,70;10534,325;  213,342;15800,950;66,21274
 950,25;10528,094;  237,035;15759,873;66,29625
 950,80;10458,633;  189,881;15703,181;66,19321
 951,36;10407,940;  199,958;15601,258;66,28001
 951,91;10445,325;  228,342;15542,873;66,71430
 952,46;10347,171;  202,265;15409,719;66,71009
 953,01;10405,556;  237,650;15412,104;67,00673
 953,56;10358,325;  197,573;15242,719;67,53508
 954,11;10304,094;  230,112;15221,642;67,19783
 954,67;10337,710;  206,650;15153,719;67,77957
 955,22;10216,017;  193,342;15033,719;67,53653
 955,77;10247,325;  241,573;15066,873;67,49106
 956,32;10204,787;  258,958;14908,719;67,89072
 956,87;10124,479;  213,419;14765,258;68,10864
 957,42;10090,171;  221,188;14795,642;67,71425
 957,98;10090,171;  214,342;14672,488;68,30633
 958,53;10132,325;  234,265;14663,181;68,59878
 959,08;10023,710;  201,881;14547,104;68,46759
 959,63; 9956,633;  207,804;14474,181;68,33430
 960,18; 9940,863;  232,419;14434,488;68,35936
 960,73; 9951,171;  214,496;14359,258;68,83591
 961,28; 9898,863;  201,804;14329,796;68,63721
 961,83; 9942,171;  238,112;14196,565;69,52102
 962,39; 9797,787;  209,112;14137,258;68,84387
 962,94; 9840,402;  229,112;14077,104;69,40566
 963,49; 9783,402;  227,419;13949,104;69,64147
 964,04; 9708,863;  234,112;13925,335;69,20311
 964,59; 9676,940;  191,804;13798,719;69,70821
 965,14; 9742,479;  243,265;13801,488;70,06238
 965,69; 9547,863;  222,496;13690,181;69,24254
 966,24; 9524,094;  211,112;13623,488;69,43574
 966,79; 9448,863;  231,496;13524,258;69,34125
 967,34; 9413,017;  199,496;13412,104;69,73280
 967,89; 9409,479;  212,419;13317,258;70,18064
 968,44; 9389,787;  221,112;13282,565;70,19644
 968,99; 9311,171;  225,804;13275,719;69,62012
 969,55; 9366,017;  225,958;13148,950;70,72711
 970,10; 9281,633;  231,573;13099,950;70,32790
 970,65; 9260,556;  236,881;12999,642;70,70315
 971,20; 9136,556;  210,265;12905,027;70,31475
 971,75; 9119,325;  192,419;12743,719;71,12336
 972,30; 9124,171;  229,727;12757,796;70,99613
 972,85; 9022,940;  202,496;12631,719;70,96537
 973,40; 8940,171;  212,496;12491,796;71,07632
 973,95; 8951,863;  228,804;12465,796;71,28434
 974,50; 8909,017;  249,419;12374,950;71,41624
 975,05; 8871,479;  222,419;12307,950;71,56541
 975,60; 8879,787;  243,650;12237,181;72,00662
 976,15; 8773,171;  217,035;12218,873;71,29022
 976,70; 8727,710;  230,573;12122,873;71,45074
 977,25; 8755,325;  232,342;12038,104;72,19342
 977,80; 8682,171;  211,342;11892,104;72,51949
 978,35; 8535,094;  231,958;11735,873;72,17661
 978,89; 8514,787;  203,188;11688,642;72,36630
 979,44; 8468,479;  220,265;11636,719;72,24847
 979,99; 8341,171;  205,804;11508,873;71,97485
 980,54; 8374,863;  243,804;11431,104;72,68116
 981,09; 8291,479;  241,573;11321,642;72,65213
 981,64; 8245,094;  238,804;11206,642;72,99789
 982,19; 8251,787;  253,573;11203,412;73,04412
 982,74; 8167,479;  244,496;11080,719;73,11572
 983,29; 8019,402;  210,650;10954,258;72,68277
 983,84; 7996,402;  228,112;10888,565;72,87017
 984,39; 8009,094;  287,188;10869,104;72,97267
 984,94; 7857,402;  202,419;10718,565;72,79266
 985,49; 7851,863;  249,188;10677,642;72,90318
 986,03; 7805,171;  244,496;10605,258;72,97412
 986,58; 7743,094;  271,419;10455,104;73,36907
 987,13; 7636,171;  228,265;10394,642;72,86672
 987,68; 7591,094;  242,419;10296,027;73,09491
 988,23; 7543,633;  243,958;10255,027;72,91604
 988,78; 7425,248;  222,958;10075,873;73,09806
 989,33; 7429,940;  239,496; 9960,027;73,97172
 989,88; 7446,940;  259,265; 9965,873;74,04930
 990,42; 7322,710;  229,419; 9825,950;73,91515
 990,97; 7206,017;  223,804; 9701,181;73,67243
 991,52; 7210,710;  244,188; 9648,642;74,07683
 992,07; 7137,094;  258,650; 9567,796;73,88910
 992,62; 7074,787;  246,035; 9442,335;74,25543
 993,17; 7007,863;  242,265; 9361,873;74,18738
 993,71; 6959,402;  235,496; 9281,642;74,32895
 994,26; 6880,710;  215,342; 9151,412;74,58948
 994,81; 6821,633;  246,496; 9142,642;73,90994
 995,36; 6779,171;  227,112; 8950,719;75,10722
 995,91; 6708,556;  242,265; 8909,488;74,60625
 996,45; 6653,402;  236,419; 8820,719;74,75254
 997,00; 6568,094;  207,958; 8733,565;74,60039
 997,55; 6514,633;  240,035; 8674,950;74,38839
 998,10; 6440,787;  264,265; 8576,796;74,30374
 998,65; 6431,325;  231,342; 8531,488;74,69727
 999,19; 6407,325;  245,265; 8443,642;75,16195
 999,74; 6307,248;  267,804; 8278,027;75,39670
1000,29; 6248,787;  248,881; 8217,950;75,28992
1000,84; 6159,479;  230,573; 8101,873;75,32308
1001,38; 6090,325;  238,035; 8027,719;75,12872
1001,93; 6080,479;  255,342; 7980,873;75,40112
1002,48; 5938,940;  228,342; 7828,719;75,13572
1003,03; 5992,171;  239,727; 7789,488;76,19372
1003,57; 5861,710;  238,804; 7741,719;74,94295
1004,12; 5867,248;  260,496; 7623,565;76,14694
1004,67; 5766,556;  235,650; 7545,796;75,66067
1005,22; 5701,863;  217,035; 7401,719;76,34057
1005,76; 5634,094;  221,342; 7280,181;76,68049
1006,31; 5574,325;  241,188; 7239,719;76,20366
1006,86; 5530,171;  231,496; 7143,719;76,65660
1007,40; 5432,787;  208,419; 7036,181;76,51655
1007,95; 5387,171;  239,881; 6959,181;76,60456
1008,50; 5318,787;  235,496; 6838,719;76,98196
1009,04; 5267,171;  228,573; 6743,796;77,33577
1009,59; 5178,171;  241,958; 6638,719;77,16738
1010,14; 5107,171;  219,265; 6575,642;76,89767
1010,68; 5034,248;  240,804; 6468,258;76,97278
1011,23; 4966,017;  231,881; 6378,719;77,01742
1011,78; 4939,633;  241,265; 6307,719;77,44833
1012,32; 4866,479;  250,035; 6180,796;77,83898
1012,87; 4847,633;  255,496; 6195,642;77,30679
1013,42; 4708,094;  220,112; 6063,412;76,80562
1013,96; 4764,710;  251,265; 6070,027;77,56709
1014,51; 4692,940;  195,496; 5976,412;77,79813
1015,06; 4702,094;  198,958; 5961,950;78,13886
1015,60; 4764,556;  268,881; 6060,412;77,62499
1016,15; 4709,479;  228,188; 5950,104;78,31801
1016,69; 4768,479;  234,573; 5960,642;79,18007
1017,24; 4757,017;  209,035; 5988,950;78,68597
1017,79; 4809,248;  257,188; 6042,950;78,67693
1018,33; 4784,171;  224,650; 6075,642;77,92731
1018,88; 4883,325;  240,342; 6074,181;79,58710
1019,42; 4884,325;  226,958; 6056,950;79,88634
1019,97; 4852,171;  219,958; 6031,796;79,70307
1020,51; 4925,787;  253,265; 6133,027;79,46787
1021,06; 4887,863;  212,342; 6067,335;79,85529
1021,61; 4870,479;  205,650; 6056,642;79,72714
1022,15; 4867,710;  179,958; 5999,873;80,54674
1022,70; 4874,556;  222,265; 6018,027;80,27056
1023,24; 4862,094;  214,727; 5998,488;80,35199
1023,79; 4809,171;  230,804; 5954,565;79,98878
1024,33; 4810,787;  213,419; 5880,104;81,12975
1024,88; 4762,940;  233,188; 5819,104;81,09238
1025,42; 4672,863;  233,035; 5729,104;80,78189
1025,97; 4595,248;  216,188; 5628,796;80,90480
1026,51; 4484,787;  192,188; 5505,873;80,78383
1027,06; 4489,171;  218,112; 5490,258;81,01178
1027,60; 4409,940;  236,265; 5386,565;81,03751
1028,15; 4361,556;  224,265; 5324,796;81,11490
1028,69; 4244,787;  179,958; 5196,258;81,03241
1029,24; 4219,479;  221,573; 5164,258;80,88531
1029,78; 4145,710;  213,188; 5064,873;81,05476
1030,33; 4068,863;  191,035; 4969,642;81,14976
1030,87; 4048,556;  209,496; 4948,181;81,01530
1031,42; 3966,248;  197,496; 4831,258;81,33245
1031,96; 3965,633;  229,958; 4776,488;82,16540
1032,51; 3876,710;  210,804; 4713,642;81,41322
1033,05; 3830,248;  224,496; 4639,796;81,66494
1033,60; 3721,940;  189,419; 4530,565;81,37301
1034,14; 3712,017;  216,727; 4478,258;82,01960
1034,69; 3677,402;  211,958; 4464,258;81,49576
1035,23; 3605,094;  210,035; 4369,719;81,61820
1035,77; 3598,633;  216,265; 4330,412;82,21311
1036,32; 3520,633;  186,727; 4232,873;82,39707
1036,86; 3511,402;  217,419; 4206,642;82,57204
1037,41; 3459,325;  223,804; 4155,027;82,30317
1037,95; 3356,402;  192,188; 4067,027;81,66053
1038,50; 3370,710;  201,804; 4014,181;83,12152
1039,04; 3352,248;  226,650; 3986,565;83,12948
1039,58; 3268,325;  211,496; 3931,796;82,16619
1040,13; 3208,863;  217,342; 3890,181;81,44984
1040,67; 3266,325;  247,419; 3840,335;84,02385
1041,21; 3190,094;  244,419; 3791,412;83,04712
1041,76; 3110,094;  195,419; 3682,565;83,58339
1042,30; 3085,863;  213,727; 3667,104;83,16893
1042,85; 3037,325;  205,804; 3611,181;83,14854
1043,39; 2982,633;  210,958; 3527,796;83,56376
1043,93; 2962,556;  236,496; 3525,181;82,89210
1044,48; 2957,787;  216,881; 3458,412;84,55591
1045,02; 2864,094;  215,496; 3391,488;83,39435
1045,56; 2874,094;  236,881; 3390,719;83,61917
1046,11; 2839,402;  231,496; 3368,027;83,14619
1046,65; 2781,556;  228,265; 3293,565;83,29659
1047,19; 2725,556;  216,035; 3216,873;83,62733
1047,74; 2691,171;  192,804; 3173,104;83,82939
1048,28; 2661,633;  217,573; 3149,873;83,34958
1048,82; 2658,094;  246,342; 3112,488;84,14616
1049,37; 2596,325;  230,035; 3063,104;83,52392
1049,91; 2588,787;  211,188; 3040,335;84,03942
1050,45; 2545,863;  233,188; 2985,719;84,01995
1050,99; 2513,787;  229,650; 2956,181;83,77446
1051,54; 2458,940;  208,573; 2865,412;84,70095
1052,08; 2480,402;  247,265; 2883,258;84,71711
1052,62; 2421,248;  241,419; 2835,950;84,01630
1053,16; 2374,940;  208,342; 2762,873;84,81394
1053,71; 2355,479;  223,188; 2731,642;85,00417
1054,25; 2314,248;  237,419; 2712,796;83,89950
1054,79; 2276,863;  229,881; 2674,104;83,74779
1055,33; 2217,094;  201,265; 2603,258;83,92320
1055,88; 2245,248;  235,881; 2567,488;86,17948
1056,42; 2189,171;  243,881; 2579,873;83,27469
1056,96; 2184,171;  240,419; 2534,796;84,71807
1057,50; 2121,171;  227,958; 2505,258;83,13413
1058,05; 2098,171;  216,188; 2435,950;84,78310
1058,59; 2093,402;  249,881; 2436,719;84,30075
1059,13; 2034,479;  212,727; 2355,258;85,02804
1059,67; 2039,094;  228,112; 2348,950;85,38994
1060,21; 1990,017;  220,881; 2301,719;85,02037
1060,76; 1989,402;  239,727; 2287,027;85,46256
1061,30; 1971,710;  246,496; 2275,104;85,04421
1061,84; 1954,479;  233,496; 2224,027;86,45848
1062,38; 1879,402;  214,881; 2153,104;85,87872
1062,92; 1921,248;  263,496; 2191,719;85,97304
1063,46; 1850,556;  250,342; 2135,565;84,88192
1064,01; 1841,556;  221,958; 2084,335;86,96403
1064,55; 1824,017;  229,188; 2065,642;86,84285
1065,09; 1752,248;  200,573; 1974,412;87,47555
1065,63; 1810,094;  263,035; 2042,873;86,92135
1066,17; 1771,710;  255,112; 2012,258;86,31030
1066,71; 1757,710;  251,881; 1995,719;86,35140
1067,25; 1712,787;  235,650; 1933,488;87,00101
1067,80; 1709,863;  238,804; 1928,412;87,06516
1068,34; 1704,248;  260,958; 1935,027;86,21450
1068,88; 1651,325;  224,573; 1857,412;87,37863
1069,42; 1672,479;  257,804; 1866,565;87,93566
1069,96; 1622,787;  230,035; 1806,258;88,36008
1070,50; 1629,017;  262,265; 1830,412;87,15718
1071,04; 1586,787;  226,958; 1775,258;87,82722
1071,58; 1552,248;  228,265; 1753,027;86,83211
1072,12; 1555,787;  235,188; 1738,873;87,82414
1072,66; 1563,171;  221,188; 1709,181;90,18748
1073,21; 1568,094;  244,112; 1729,104;89,15755
1073,75; 1521,940;  234,958; 1680,950;89,00343
1074,29; 1484,248;  241,958; 1645,027;88,54092
1074,83; 1503,325;  245,650; 1676,181;87,91667
1075,37; 1476,633;  246,573; 1652,642;87,48215
1075,91; 1481,787;  249,881; 1618,181;90,03185
1076,45; 1437,171;  237,573; 1606,104;87,65591
1076,99; 1427,017;  247,035; 1562,719;89,68583
1077,53; 1402,633;  228,650; 1542,719;89,33949
1078,07; 1392,556;  238,727; 1527,412;89,53539
1078,61; 1364,633;  244,112; 1495,950;89,51004
1079,15; 1351,556;  237,265; 1484,488;89,34171
1079,69; 1356,402;  226,496; 1473,258;90,62726
1080,23; 1346,171;  253,265; 1479,181;89,15018
1080,77; 1355,710;  272,804; 1493,796;88,69063
1081,31; 1291,325;  226,881; 1429,104;88,53966
1081,85; 1302,940;  249,727; 1421,565;89,87702
1082,39; 1264,402;  228,188; 1389,335;89,24057
1082,93; 1283,787;  255,804; 1379,181;91,50826
1083,47; 1233,402;  233,342; 1353,104;89,31005
1084,01; 1249,479;  249,112; 1369,565;89,28233
1084,55; 1223,248;  234,419; 1334,258;89,90673
1085,09; 1213,940;  255,881; 1343,181;88,11364
1085,63; 1198,094;  241,650; 1310,412;89,49089
1086,17; 1183,017;  226,804; 1293,258;89,66290
1086,71; 1165,940;  226,958; 1264,642;90,48825
1087,24; 1182,633;  261,650; 1288,796;89,66423
1087,78; 1160,863;  244,573; 1253,488;90,81935
1088,32; 1114,094;  228,881; 1207,335;90,47064
1088,86; 1142,479;  261,881; 1225,181;91,41473
1089,40; 1111,248;  241,265; 1206,873;90,09691
1089,94; 1073,940;  213,650; 1198,565;87,34663
1090,48; 1095,402;  257,419; 1166,488;92,18029
1091,02; 1084,863;  250,958; 1173,335;90,40835
1091,56; 1077,787;  244,112; 1148,335;92,19793
1092,10; 1031,017;  218,881; 1127,412;89,39010
1092,63; 1067,633;  260,188; 1146,104;91,14236
1093,17; 1039,479;  251,188; 1109,258;91,86792
1093,71; 1011,633;  232,650; 1096,719;90,15281
1094,25; 1030,633;  258,496; 1117,104;89,92891
1094,79; 1000,402;  233,112; 1085,181;90,05024
1095,33;  996,248;  235,958; 1056,488;92,65836
1095,87;  993,787;  243,573; 1068,873;90,90191
1096,40;  950,325;  226,188; 1029,258;90,17112
1096,94;  977,094;  235,342; 1011,335;95,58754
1097,48;  967,325;  247,804; 1025,796;92,48435
1098,02;  922,325;  228,573; 1004,258;89,43737
1098,56;  906,248;  208,958;  970,258;91,59206
1099,10;  904,171;  214,650;  962,873;92,15449
1099,63;  902,556;  216,881;  949,488;93,59375
1100,17;  896,402;  241,650;  972,565;89,57972
1100,71;  934,248;  265,496;  968,565;95,11893

