
Integration time [ms]: 120,000
Averaging Nr. [scans]: 13
Smoothing Nr. [pixels]: 0
Data measured with spectrometer [name]: 2009305U1
Wave   ;Sample   ;Dark     ;Reference;Reflectance
[nm]   ;[counts] ;[counts] ;[counts] ;[%]

 175,72;  204,464;  201,729;  206,872;53,17929
 176,32;  221,378;  218,186;  213,932; 0,00000
 176,92;  255,200;  251,189;  249,591; 0,00000
 177,52;  265,524;  249,113;  256,862;211,77174
 178,12;  229,601;  238,725;  218,250; 0,00000
 178,72;  257,001;  262,954;  247,860; 0,00000
 179,32;  245,512;  250,340;  247,043; 0,00000
 179,92;  250,453;  250,342;  243,729; 0,00000
 180,52;  256,293;  238,347;  240,736;751,20248
 181,12;  262,935;  258,034;  250,818; 0,00000
 181,73;  270,980;  272,650;  268,353; 0,00000
 182,33;  362,667;  341,884;  351,655;212,70154
 182,93;  266,135;  275,575;  267,614; 0,00000
 183,53;  236,822;  239,569;  226,246; 0,00000
 184,13;  250,171;  234,262;  230,039; 0,00000
 184,73;  277,785;  277,568;  272,393; 0,00000
 185,33;  258,785;  232,615;  345,677;23,14663
 185,93;  264,689;  245,073;  348,991;18,87598
 186,53;  289,379;  251,383;  367,173;32,81457
 187,13;  312,646;  271,464;  401,161;31,75244
 187,73;  266,122;  239,766;  346,389;24,71916
 188,33;  274,736;  238,149;  355,651;31,13743
 188,93;  276,434;  255,681;  354,167;21,07248
 189,53;  272,203;  258,060;  373,340;12,26799
 190,13;  300,252;  290,822;  407,960; 8,05059
 190,73;  258,168;  217,519;  341,075;32,89921
 191,34;  294,056;  266,833;  379,465;24,17011
 191,94;  273,013;  235,608;  351,373;32,31132
 192,54;  296,507;  251,390;  369,660;38,14745
 193,14;  296,220;  263,925;  377,413;28,45693
 193,74;  288,815;  263,078;  378,201;22,35574
 194,34;  290,695;  260,310;  380,482;25,28413
 194,94;  249,370;  223,386;  339,780;22,32386
 195,54;  208,603;  203,693;  312,414; 4,51688
 196,14;  246,667;  220,157;  353,619;19,86329
 196,74;  254,283;  214,922;  338,653;31,81131
 197,34;  244,269;  196,698;  319,609;38,70334
 197,94;  262,460;  237,079;  365,572;19,75234
 198,54;  272,878;  247,080;  380,114;19,39151
 199,14;  260,711;  210,546;  368,519;31,75562
 199,74;  249,946;  207,392;  366,691;26,71338
 200,34;  245,898;  197,469;  355,354;30,67341
 200,94;  274,118;  228,390;  407,380;25,54793
 201,54;  259,885;  222,622;  409,009;19,99216
 202,14;  304,863;  243,778;  440,040;31,12399
 202,74;  273,800;  221,853;  441,142;23,68880
 203,34;  256,516;  198,087;  459,415;22,35832
 203,94;  243,191;  171,394;  466,821;24,30276
 204,54;  308,573;  242,156;  543,763;22,02099
 205,14;  275,076;  198,315;  561,400;21,14126
 205,74;  318,738;  232,933;  638,687;21,14706
 206,34;  291,454;  204,470;  636,056;20,15434
 206,94;  318,036;  218,547;  688,144;21,18608
 207,54;  289,308;  174,778;  718,661;21,05780
 208,14;  324,316;  205,317;  793,743;20,22335
 208,74;  337,699;  214,161;  871,081;18,80562
 209,34;  338,456;  198,623;  933,736;19,02205
 209,94;  375,813;  210,315; 1008,119;20,74414
 210,54;  373,062;  210,240; 1112,466;18,04662
 211,14;  404,497;  213,392; 1206,006;19,25267
 211,73;  412,233;  204,314; 1298,510;19,00195
 212,33;  458,268;  225,698; 1403,055;19,75360
 212,93;  469,383;  204,468; 1488,353;20,63382
 213,53;  459,395;  178,853; 1530,484;20,75582
 214,13;  487,687;  193,089; 1619,086;20,65912
 214,73;  497,632;  189,855; 1644,501;21,15819
 215,33;  477,659;  170,469; 1671,042;20,47150
 215,93;  527,844;  199,010; 1779,950;20,79986
 216,53;  515,354;  175,314; 1843,429;20,38470
 217,13;  607,122;  219,164; 2025,749;21,47471
 217,73;  630,083;  195,703; 2217,986;21,47968
 218,33;  644,291;  149,166; 2386,125;22,13383
 218,93;  749,052;  177,401; 2679,163;22,84993
 219,53;  794,141;  199,705; 2920,374;21,84891
 220,13;  836,535;  159,475; 3206,578;22,21979
 220,73;  919,898;  187,392; 3517,693;21,99518
 221,32;  997,776;  188,392; 3874,081;21,96018
 221,92; 1095,117;  202,551; 4264,174;21,97560
 222,52; 1121,613;  174,934; 4661,073;21,10232
 223,12; 1232,779;  181,165; 5075,819;21,48496
 223,72; 1312,553;  195,319; 5442,991;21,29009
 224,32; 1361,298;  192,626; 5845,976;20,67219
 224,92; 1415,103;  189,088; 6108,737;20,71095
 225,52; 1474,732;  203,008; 6452,854;20,34809
 226,12; 1508,329;  185,856; 6698,534;20,30613
 226,72; 1557,333;  158,702; 7028,198;20,36002
 227,31; 1584,523;  155,240; 7354,420;19,85341
 227,91; 1630,845;  192,316; 7785,953;18,94388
 228,51; 1647,370;  178,083; 8109,623;18,52461
 229,11; 1715,956;  184,394; 8495,572;18,42774
 229,71; 1727,415;  186,699; 8716,250;18,06327
 230,31; 1761,035;  179,473; 9075,403;17,77849
 230,91; 1762,745;  166,235; 9391,911;17,30507
 231,51; 1797,427;  172,318; 9652,900;17,14144
 232,10; 1817,408;  171,474; 9976,672;16,78635
 232,70; 1832,926;  186,926;10145,097;16,52914
 233,30; 1831,831;  202,625;10365,435;16,03106
 233,90; 1813,868;  176,164;10513,657;15,84237
 234,50; 1759,099;  175,780;10561,473;15,24520
 235,10; 1737,873;  173,857;10664,121;14,90921
 235,70; 1728,513;  198,008;10648,200;14,64572
 236,29; 1701,055;  191,392;10629,618;14,46283
 236,89; 1638,203;  159,543;10478,016;14,33022
 237,49; 1585,847;  194,625;10431,184;13,59072
 238,09; 1528,761;  184,547;10154,902;13,48211
 238,69; 1518,210;  225,388; 9983,329;13,24892
 239,29; 1429,356;  176,470; 9652,505;13,22163
 239,89; 1391,628;  195,466; 9366,333;13,04306
 240,48; 1338,721;  177,163; 8974,124;13,20408
 241,08; 1291,611;  181,701; 8634,289;13,13101
 241,68; 1296,097;  192,009; 8356,134;13,52366
 242,28; 1224,916;  174,394; 8035,117;13,36419
 242,88; 1234,461;  219,166; 7828,258;13,34318
 243,48; 1246,997;  211,086; 7510,243;14,19219
 244,07; 1222,882;  192,316; 7275,406;14,54967
 244,67; 1262,017;  193,163; 7151,240;15,36134
 245,27; 1287,463;  196,314; 6989,894;16,06148
 245,87; 1330,055;  220,242; 6894,092;16,62928
 246,47; 1382,889;  191,545; 6923,749;17,69619
 247,06; 1445,336;  182,239; 6907,078;18,78256
 247,66; 1512,353;  174,855; 6941,503;19,76603
 248,26; 1654,889;  213,237; 7050,026;21,08667
 248,86; 1717,512;  202,776; 7247,862;21,50061
 249,46; 1810,576;  155,010; 7422,575;22,78021
 250,05; 1972,943;  205,393; 7732,627;23,48207
 250,65; 2129,597;  169,391; 8052,190;24,86688
 251,25; 2324,854;  188,700; 8492,681;25,72445
 251,85; 2555,721;  186,159; 8978,281;26,95097
 252,44; 2747,428;  152,930; 9520,688;27,69604
 253,04; 3021,898;  201,854;10265,000;28,02348
 253,64; 3274,633;  154,236;10900,597;29,03677
 254,24; 3653,324;  204,009;11741,224;29,89729
 254,84; 3954,192;  179,779;12519,882;30,58655
 255,43; 4315,148;  179,700;13422,613;31,22764
 256,03; 4722,722;  185,775;14398,265;31,92225
 256,63; 5072,239;  193,389;15343,007;32,20444
 257,23; 5411,575;  169,928;16095,163;32,91410
 257,82; 5821,764;  188,465;17044,616;33,41984
 258,42; 6124,269;  147,079;17784,581;33,88910
 259,02; 6501,873;  201,469;18712,709;34,03556
 259,62; 6775,969;  169,002;19302,986;34,53001
 260,21; 7030,679;  188,699;19810,500;34,86927
 260,81; 7216,705;  190,009;20287,806;34,96252
 261,41; 7436,707;  163,388;20645,074;35,51133
 262,01; 7656,446;  203,617;21237,688;35,43218
 262,60; 7772,268;  169,697;21451,470;35,72339
 263,20; 7928,439;  173,852;21765,449;35,91484
 263,80; 8027,268;  201,232;21997,474;35,90544
 264,40; 8073,082;  169,386;22117,392;36,01100
 264,99; 8193,025;  187,385;22332,574;36,15069
 265,59; 8118,614;  175,691;22368,883;35,78991
 266,19; 8215,426;  172,078;22546,184;35,94936
 266,78; 8300,020;  213,000;22692,956;35,97436
 267,38; 8257,837;  193,076;22721,709;35,79783
 267,98; 8218,720;  182,692;22678,223;35,72278
 268,58; 8223,104;  189,460;22711,392;35,67031
 269,17; 8160,629;  184,074;22772,031;35,31331
 269,77; 8107,781;  184,850;22568,779;35,39562
 270,37; 7979,231;  160,385;22470,206;35,04666
 270,96; 7869,744;  220,080;22415,265;34,46542
 271,56; 7757,737;  181,851;22134,075;34,51079
 272,16; 7634,177;  182,618;21964,063;34,21058
 272,75; 7522,282;  187,926;21924,911;33,74137
 273,35; 7474,853;  192,850;21843,823;33,63361
 273,95; 7402,055;  180,849;21764,698;33,45653
 274,54; 7333,457;  161,470;21761,566;33,20350
 275,14; 7380,303;  200,773;22189,200;32,65140
 275,74; 7268,930;  154,926;22167,808;32,31746
 276,33; 7405,028;  205,850;22504,881;32,28471
 276,93; 7416,450;  188,855;22848,853;31,89583
 277,53; 7554,444;  195,238;23368,098;31,75787
 278,12; 7606,151;  178,775;23806,277;31,43530
 278,72; 7712,488;  219,238;24373,847;31,02203
 279,32; 7816,763;  186,391;24798,059;31,00307
 279,91; 7991,155;  159,468;25562,541;30,82969
 280,51; 8122,970;  188,469;25967,321;30,77911
 281,11; 8322,653;  180,006;26630,763;30,78418
 281,70; 8353,098;  167,698;27049,153;30,44999
 282,30; 8491,276;  171,312;27551,998;30,38625
 282,90; 8586,292;  173,851;27939,485;30,29803
 283,49; 8752,396;  198,311;28439,687;30,28919
 284,09; 8885,511;  201,390;28910,339;30,24883
 284,69; 8944,544;  211,314;29098,297;30,23241
 285,28; 9045,969;  197,159;29476,937;30,22157
 285,88; 9155,424;  245,541;29721,166;30,22797
 286,47; 9104,134;  186,235;29759,467;30,15531
 287,07; 9193,836;  209,930;29811,041;30,34990
 287,67; 9292,766;  202,163;29911,397;30,59858
 288,26; 9294,330;  176,853;29846,860;30,72961
 288,86; 9344,726;  181,159;29866,006;30,86951
 289,46; 9464,625;  192,698;30055,269;31,04866
 290,05; 9512,465;  175,470;30059,663;31,24393
 290,65; 9632,502;  193,235;30239,781;31,41548
 291,24; 9742,812;  191,699;30304,873;31,71739
 291,84; 9899,316;  211,466;30425,700;32,06386
 292,44; 9977,706;  188,702;30600,545;32,18813
 293,03;10154,330;  261,776;30732,753;32,46550
 293,63;10158,867;  177,235;30773,553;32,62364
 294,22;10287,751;  198,544;30973,729;32,78358
 294,82;10228,147;  183,617;30975,077;32,62116
 295,41;10122,637;  170,390;30638,076;32,66492
 296,01;10144,176;  216,464;30605,787;32,66842
 296,61; 9996,941;  210,622;30362,350;32,45691
 297,20; 9841,055;  199,157;30000,191;32,35424
 297,80; 9777,514;  201,316;29818,216;32,33356
 298,39; 9521,413;  183,313;29490,512;31,86282
 298,99; 9427,246;  194,619;29344,735;31,67269
 299,58; 9248,166;  204,009;29207,145;31,18338
 300,18; 9042,878;  198,624;28990,588;30,71779
 300,78; 8890,881;  178,007;28703,929;30,54371
 301,37; 8792,097;  194,462;28642,972;30,22174
 301,97; 8678,200;  192,929;28648,490;29,81938
 302,56; 8532,449;  193,158;28653,764;29,30117
 303,16; 8438,898;  170,004;28481,819;29,20651
 303,75; 8280,076;  189,315;28525,061;28,55319
 304,35; 8195,063;  181,472;28720,066;28,07984
 304,94; 8116,803;  181,699;28731,637;27,79377
 305,54; 8009,699;  218,546;28672,081;27,38202
 306,13; 7877,860;  161,934;28573,068;27,15811
 306,73; 7702,337;  158,548;28317,031;26,79047
 307,33; 7611,717;  204,317;28321,045;26,34517
 307,92; 7507,140;  193,084;28380,531;25,94792
 308,52; 7446,331;  170,696;28741,356;25,46541
 309,11; 7468,893;  178,541;29205,878;25,11547
 309,71; 7403,851;  171,617;29443,116;24,70743
 310,30; 7339,804;  172,776;29648,606;24,31493
 310,90; 7340,496;  208,853;29955,991;23,97422
 311,49; 7222,196;  185,314;30028,673;23,57939
 312,09; 7140,765;  161,008;30225,597;23,21587
 312,68; 7190,318;  231,930;30664,330;22,86507
 313,28; 7021,832;  167,314;30631,838;22,50000
 313,87; 6993,411;  154,776;30809,032;22,30893
 314,47; 6903,537;  172,157;30963,772;21,86108
 315,06; 6872,933;  159,391;31159,668;21,65639
 315,66; 6811,611;  174,547;31275,674;21,34027
 316,25; 6705,814;  156,620;31163,214;21,12194
 316,85; 6566,635;  151,778;31200,812;20,66041
 317,44; 6546,326;  179,387;31341,615;20,43159
 318,04; 6471,025;  164,466;31348,802;20,22348
 318,63; 6381,203;  162,471;31389,074;19,91485
 319,22; 6322,631;  188,158;31575,797;19,54423
 319,82; 6242,693;  185,621;31708,679;19,21474
 320,41; 6193,122;  187,158;31426,645;19,22555
 321,01; 6111,461;  197,008;31533,415;18,87406
 321,60; 6041,066;  189,390;31561,672;18,65238
 322,20; 5961,205;  169,315;31579,831;18,43933
 322,79; 5947,800;  204,391;31614,250;18,28537
 323,39; 5900,969;  181,472;31629,533;18,18712
 323,98; 5823,930;  168,930;31550,158;18,02033
 324,58; 5778,659;  170,619;31501,168;17,89959
 325,17; 5718,591;  174,543;31304,557;17,80933
 325,76; 5709,059;  206,776;31146,621;17,78381
 326,36; 5602,939;  171,239;30813,671;17,72607
 326,95; 5517,633;  200,390;30497,135;17,55054
 327,55; 5430,110;  163,774;30140,191;17,56826
 328,14; 5357,085;  168,855;29824,158;17,49512
 328,74; 5329,676;  199,004;29444,362;17,54354
 329,33; 5228,663;  198,931;29099,182;17,40377
 329,92; 5115,111;  163,464;28602,332;17,41155
 330,52; 5029,903;  184,240;28056,741;17,38510
 331,11; 4970,163;  173,390;27658,869;17,45203
 331,71; 4837,155;  179,929;27078,464;17,31405
 332,30; 4790,342;  201,083;26683,099;17,32972
 332,89; 4761,440;  237,161;26152,787;17,45773
 333,49; 4678,576;  187,159;25730,178;17,58373
 334,08; 4600,782;  176,851;25392,148;17,54463
 334,68; 4555,381;  185,928;24979,661;17,62322
 335,27; 4553,928;  201,086;24699,617;17,76777
 335,86; 4542,548;  229,544;24407,330;17,83870
 336,46; 4518,531;  201,625;24132,917;18,03875
 337,05; 4458,430;  178,698;23990,860;17,97288
 337,65; 4433,556;  166,851;23853,243;18,01331
 338,24; 4534,177;  226,161;23820,953;18,25833
 338,83; 4566,990;  209,546;23747,210;18,51265
 339,43; 4561,648;  166,158;23655,207;18,71293
 340,02; 4583,862;  179,542;23628,981;18,78220
 340,61; 4625,682;  175,622;23638,933;18,96604
 341,21; 4648,215;  213,312;23703,977;18,87942
 341,80; 4679,280;  189,082;23583,139;19,19375
 342,40; 4752,178;  191,932;23701,383;19,39750
 342,99; 4800,671;  184,623;23787,787;19,55690
 343,58; 4891,355;  187,392;23957,336;19,78954
 344,18; 4973,542;  197,239;24025,125;20,04501
 344,77; 5086,109;  175,542;24256,853;20,39161
 345,36; 5140,787;  158,083;24541,058;20,43518
 345,96; 5325,242;  208,239;24819,807;20,79105
 346,55; 5407,342;  181,703;25003,141;21,05293
 347,14; 5562,701;  169,778;25317,973;21,44457
 347,74; 5678,725;  150,628;25676,600;21,65675
 348,33; 5869,991;  178,089;26274,468;21,81108
 348,92; 6093,163;  197,629;26750,416;22,20307
 349,52; 6241,774;  164,167;27227,383;22,45707
 350,11; 6348,307;  175,773;27467,218;22,61710
 350,70; 6459,314;  181,622;27518,189;22,96445
 351,29; 6474,749;  167,461;27205,563;23,32740
 351,89; 6562,642;  187,156;27278,374;23,53340
 352,48; 6617,022;  152,237;27344,522;23,77434
 353,07; 6727,049;  183,548;27195,951;24,22406
 353,67; 6727,831;  191,630;27196,094;24,20415
 354,26; 6790,106;  177,778;27049,324;24,60717
 354,85; 6823,773;  190,931;26835,017;24,89424
 355,45; 6869,284;  168,313;26713,111;25,24401
 356,04; 6923,159;  182,548;26689,894;25,42922
 356,63; 6980,775;  218,467;26476,589;25,75320
 357,22; 6974,248;  191,924;26303,231;25,97466
 357,82; 7023,718;  184,463;26171,051;26,31840
 358,41; 7119,050;  207,160;26032,662;26,76382
 359,00; 7109,591;  173,004;25832,557;27,03316
 359,60; 7174,310;  187,238;25782,294;27,29852
 360,19; 7213,580;  193,548;25704,162;27,51808
 360,78; 7292,746;  191,313;25485,157;28,07574
 361,37; 7239,519;  177,159;25361,021;28,04320
 361,97; 7298,730;  191,852;25288,609;28,31791
 362,56; 7327,360;  171,388;24946,234;28,88402
 363,15; 7389,025;  217,544;24762,617;29,21760
 363,74; 7338,330;  192,157;24476,679;29,42687
 364,34; 7279,259;  205,773;24153,881;29,53672
 364,93; 7198,825;  177,696;23823,975;29,69232
 365,52; 7199,317;  154,467;23477,638;30,20537
 366,11; 7210,611;  187,774;23182,062;30,54166
 366,71; 7174,785;  191,389;22803,643;30,88324
 367,30; 7152,900;  188,467;22570,511;31,11616
 367,89; 7192,749;  227,393;22379,572;31,44321
 368,48; 7104,339;  202,234;22074,561;31,55634
 369,07; 7121,237;  189,391;21656,189;32,29101
 369,67; 7063,857;  210,926;21477,410;32,22409
 370,26; 7020,707;  175,468;21171,532;32,60248
 370,85; 7025,835;  182,082;20922,749;32,99678
 371,44; 7024,686;  188,237;20753,120;33,24331
 372,03; 7021,279;  163,235;20556,770;33,62852
 372,63; 6988,657;  158,775;20244,119;34,00431
 373,22; 6937,091;  175,930;20036,179;34,04369
 373,81; 6901,199;  159,236;19782,321;34,35730
 374,40; 6907,875;  173,778;19460,047;34,91653
 374,99; 6872,770;  176,467;19282,864;35,04744
 375,59; 6816,688;  172,085;19059,643;35,17979
 376,18; 6864,029;  201,005;18980,250;35,48079
 376,77; 6852,775;  196,006;18709,635;35,95604
 377,36; 6865,159;  208,390;18763,235;35,87618
 377,95; 6869,101;  191,543;18407,371;36,65800
 378,55; 6851,922;  172,931;18324,569;36,79553
 379,14; 6886,677;  186,159;18193,346;37,21024
 379,73; 6912,417;  190,005;18150,868;37,42811
 380,32; 6967,289;  184,775;18138,729;37,77727
 380,91; 6916,638;  157,311;18041,879;37,79419
 381,50; 7008,441;  201,158;18028,560;38,18438
 382,10; 7042,981;  168,621;17937,882;38,68681
 382,69; 6996,001;  168,621;17884,833;38,53747
 383,28; 7081,882;  202,466;17890,255;38,89359
 383,87; 7064,457;  176,542;17716,016;39,27093
 384,46; 7079,669;  170,540;17679,514;39,46050
 385,05; 7171,266;  208,696;17677,748;39,85660
 385,64; 7179,150;  192,235;17644,677;40,03402
 386,24; 7165,815;  163,386;17642,555;40,06157
 386,83; 7272,430;  199,540;17686,201;40,44735
 387,42; 7339,389;  196,851;17786,251;40,60706
 388,01; 7446,505;  194,076;17924,233;40,90448
 388,60; 7590,977;  191,925;18158,714;41,18183
 389,19; 7664,446;  177,997;18305,830;41,29809
 389,78; 7832,560;  179,228;18564,528;41,62745
 390,37; 8092,231;  240,000;18893,698;42,09477
 390,96; 8129,058;  189,001;18997,024;42,21633
 391,56; 8253,028;  194,919;19208,103;42,38169
 392,15; 8372,512;  184,690;19430,345;42,54374
 392,74; 8469,705;  159,069;19627,742;42,68722
 393,33; 8659,372;  183,688;19819,125;43,16524
 393,92; 8818,464;  193,298;20196,938;43,11799
 394,51; 8924,538;  169,303;20392,440;43,29316
 395,10; 9100,140;  207,062;20651,962;43,49778
 395,69; 9141,841;  202,678;20752,398;43,50017
 396,28; 9223,255;  208,983;20771,541;43,83828
 396,87; 9336,226;  208,363;20898,450;44,11709
 397,46; 9448,061;  215,129;20943,923;44,54158
 398,06; 9496,888;  223,279;21139,960;44,33595
 398,65; 9563,928;  204,578;21271,406;44,42695
 399,24; 9678,383;  225,422;21394,542;44,65448
 399,83; 9673,763;  198,331;21390,949;44,71100
 400,42; 9825,156;  254,088;21553,748;44,93531
 401,01; 9877,880;  213,074;21665,870;45,05150
 401,60; 9913,926;  228,285;21657,881;45,19750
 402,19; 9943,126;  249,039;21683,120;45,22744
 402,78; 9977,974;  253,477;21718,293;45,30436
 403,37; 9924,220;  237,763;21500,734;45,55552
 403,96; 9911,937;  234,660;21369,983;45,78722
 404,55; 9917,261;  263,323;21325,723;45,83494
 405,14; 9799,940;  239,527;21175,396;45,66523
 405,73; 9864,332;  256,881;21100,947;46,09202
 406,32; 9882,470;  257,091;21055,753;46,27884
 406,91; 9752,111;  238,759;20761,509;46,35515
 407,50; 9762,695;  263,593;20641,761;46,61411
 408,09; 9635,201;  237,815;20373,194;46,67102
 408,68; 9605,952;  246,270;20291,234;46,69343
 409,27; 9560,134;  245,355;20085,614;46,94888
 409,86; 9537,483;  256,989;20002,333;47,00093
 410,45; 9554,931;  288,928;19955,774;47,11484
 411,04; 9528,595;  289,559;19904,468;47,10211
 411,63; 9414,930;  273,350;19624,100;47,24148
 412,22; 9364,208;  280,523;19482,421;47,30618
 412,81; 9225,619;  293,145;19202,463;47,23848
 413,40; 9136,704;  298,077;18947,508;47,39355
 413,99; 9055,701;  328,535;18631,139;47,68265
 414,58; 8846,861;  271,614;18284,849;47,60526
 415,17; 8736,315;  279,991;18101,481;47,45015
 415,76; 8686,628;  256,368;17999,166;47,51370
 416,35; 8579,158;  258,680;17838,897;47,32864
 416,94; 8691,763;  295,139;17844,585;47,84552
 417,53; 8753,215;  266,761;18068,435;47,67222
 418,12; 8838,374;  261,609;18120,991;48,02386
 418,71; 8968,680;  299,923;18412,108;47,86146
 419,30; 8989,933;  278,225;18537,049;47,71232
 419,89; 9124,927;  270,303;18741,244;47,93813
 420,48; 9264,012;  290,231;18964,708;48,05372
 421,07; 9372,791;  282,078;19006,851;48,54912
 421,66; 9339,815;  257,159;19023,831;48,39779
 422,25; 9288,696;  270,782;19022,155;48,09202
 422,84; 9300,674;  301,245;19019,094;48,07939
 423,43; 9209,808;  279,781;18735,300;48,38676
 424,02; 9171,356;  302,397;18536,212;48,64017
 424,60; 8904,543;  262,406;18159,979;48,28664
 425,19; 8843,441;  274,402;17884,214;48,66060
 425,78; 8788,624;  288,248;17869,031;48,35038
 426,37; 8725,412;  290,329;17674,825;48,52073
 426,96; 8696,416;  276,406;17574,765;48,67520
 427,55; 8638,255;  262,565;17458,296;48,70797
 428,14; 8562,100;  276,951;17277,370;48,73497
 428,73; 8439,869;  281,178;17176,404;48,28992
 429,32; 8445,825;  289,944;17161,119;48,34211
 429,91; 8514,383;  302,947;17156,620;48,72194
 430,50; 8435,519;  287,873;16968,792;48,84411
 431,08; 8306,000;  301,183;16859,955;48,34185
 431,67; 8319,297;  337,494;16810,809;48,45293
 432,26; 8226,644;  350,957;16658,199;48,29564
 432,85; 8146,947;  376,957;16259,013;48,92307
 433,44; 7939,440;  372,883;15957,398;48,55176
 434,03; 7791,659;  388,580;15678,711;48,41737
 434,62; 7581,051;  356,807;15263,888;48,46183
 435,21; 7447,587;  369,419;15092,581;48,07505
 435,79; 7452,402;  378,809;14993,266;48,40134
 436,38; 7372,095;  360,429;14891,432;48,25314
 436,97; 7295,383;  363,276;14828,789;47,92161
 437,56; 7234,365;  357,591;14579,542;48,35324
 438,15; 7171,837;  330,897;14590,165;47,97540
 438,74; 7234,647;  347,051;14560,189;48,45936
 439,33; 7214,035;  329,127;14514,915;48,53384
 439,91; 7223,775;  288,284;14558,280;48,60191
 440,50; 7219,601;  339,669;14649,975;48,07677
 441,09; 7302,791;  341,211;14755,578;48,29612
 441,68; 7262,163;  323,215;14746,260;48,11015
 442,27; 7240,198;  313,368;14780,559;47,87958
 442,86; 7208,514;  285,530;14782,373;47,75511
 443,44; 7215,411;  302,067;14802,621;47,67642
 444,03; 7295,486;  356,300;14838,956;47,91377
 444,62; 7180,850;  306,069;14699,606;47,76298
 445,21; 7161,327;  315,068;14587,723;47,96766
 445,80; 7092,356;  345,919;14524,583;47,58161
 446,39; 6998,788;  356,302;14305,874;47,61785
 446,97; 6885,526;  292,385;14107,313;47,72476
 447,56; 6779,991;  312,927;13923,327;47,51561
 448,15; 6692,733;  304,846;13730,790;47,57868
 448,74; 6567,012;  322,693;13558,650;47,17694
 449,33; 6435,525;  317,773;13412,294;46,71994
 449,91; 6395,396;  316,162;13256,983;46,97719
 450,50; 6278,225;  299,238;12957,665;47,23325
 451,09; 6212,489;  319,854;12948,808;46,65972
 451,68; 6209,389;  331,779;12840,793;46,98700
 452,26; 6162,452;  330,781;12763,121;46,90727
 452,85; 6065,783;  309,241;12702,998;46,44711
 453,44; 6086,262;  337,093;12715,419;46,44545
 454,03; 6031,838;  305,474;12641,459;46,41999
 454,61; 6011,230;  302,171;12612,877;46,37476
 455,20; 6082,026;  334,173;12819,368;46,03735
 455,79; 6056,731;  334,631;12800,040;45,90383
 456,38; 6107,167;  334,869;12835,957;46,17436
 456,97; 6090,125;  314,175;12930,733;45,78071
 457,55; 6093,338;  327,024;12986,367;45,54987
 458,14; 6162,558;  359,328;12929,255;46,16757
 458,73; 6056,614;  336,255;12858,286;45,68236
 459,31; 6048,836;  360,105;12888,016;45,40846
 459,90; 6085,600;  365,642;13009,337;45,23960
 460,49; 6161,319;  401,179;13084,693;45,41439
 461,08; 6135,158;  331,646;13146,916;45,28592
 461,66; 6169,172;  333,874;13133,433;45,58984
 462,25; 6151,815;  346,724;13253,540;44,97695
 462,84; 6178,280;  372,415;13264,835;45,03317
 463,43; 6088,350;  312,728;13273,642;44,56184
 464,01; 6126,380;  335,346;13300,720;44,66538
 464,60; 6121,304;  382,881;13257,123;44,57290
 465,19; 5947,425;  310,193;13024,885;44,33637
 465,77; 5959,873;  346,195;12957,829;44,51190
 466,36; 5913,678;  355,190;12871,454;44,41012
 466,95; 5801,014;  338,421;12568,117;44,66663
 467,53; 5632,778;  349,274;12329,878;44,10048
 468,12; 5537,908;  370,198;12130,524;43,94189
 468,71; 5427,819;  358,578;11902,890;43,91116
 469,29; 5302,362;  329,044;11685,581;43,79255
 469,88; 5201,307;  343,892;11486,547;43,59297
 470,47; 5246,031;  405,357;11586,317;43,29390
 471,06; 5162,023;  349,127;11501,943;43,15409
 471,64; 5221,617;  352,280;11596,839;43,30394
 472,23; 5190,972;  321,594;11583,969;43,23580
 472,81; 5207,199;  323,437;11719,893;42,85334
 473,40; 5233,365;  338,671;11817,928;42,63946
 473,99; 5427,790;  438,979;12040,937;42,99973
 474,57; 5357,219;  340,133;12159,994;42,44623
 475,16; 5409,358;  360,361;12218,465;42,57845
 475,75; 5419,355;  373,289;12384,013;42,01300
 476,33; 5464,442;  377,523;12477,109;42,04210
 476,92; 5452,555;  374,980;12492,704;41,90206
 477,51; 5480,599;  368,983;12553,558;41,95153
 478,09; 5480,449;  376,598;12581,345;41,81857
 478,68; 5457,264;  378,292;12542,433;41,75364
 479,27; 5447,942;  397,751;12597,596;41,39554
 479,85; 5412,062;  370,599;12553,004;41,38315
 480,44; 5436,873;  361,908;12606,505;41,44656
 481,02; 5861,668;  378,757;13796,042;40,86454
 481,61; 6619,971;  402,064;15652,194;40,77282
 482,20; 7027,231;  389,526;16794,488;40,46157
 482,78; 7334,265;  417,446;17518,987;40,44559
 483,37; 7499,547;  400,222;18018,243;40,29581
 483,95; 7614,628;  423,531;18194,276;40,46593
 484,54; 7675,388;  435,063;18409,352;40,28156
 485,13; 7617,117;  397,380;18366,598;40,17836
 485,71; 7515,841;  376,840;18058,972;40,37409
 486,30; 7447,922;  431,071;17894,682;40,17984
 486,88; 7293,105;  442,688;17531,852;40,08632
 487,47; 7045,518;  433,535;16893,254;40,17070
 488,05; 6693,580;  429,767;16157,182;39,82736
 488,64; 6259,862;  425,000;14969,596;40,11705
 489,23; 5657,452;  430,229;13365,258;40,41137
 489,81; 4783,137;  430,538;11432,053;39,56363
 490,40; 4454,133;  382,077;10874,205;38,81059
 490,98; 4362,397;  357,462;10591,516;39,13342
 491,57; 4312,590;  397,999;10567,510;38,49340
 492,15; 4276,042;  373,771;10500,179;38,53559
 492,74; 4206,346;  389,152;10406,749;38,10489
 493,32; 4209,883;  402,616;10315,377;38,40774
 493,91; 4146,606;  379,387;10229,194;38,24662
 494,50; 4096,092;  391,392;10263,082;37,52853
 495,08; 4053,270;  369,546;10121,789;37,77310
 495,67; 4041,638;  390,772;10132,736;37,47567
 496,25; 3948,094;  326,544;10026,577;37,33544
 496,84; 3926,220;  347,156;10026,563;36,97607
 497,42; 3916,479;  330,468; 9959,484;37,24172
 498,01; 3920,355;  367,080; 9902,920;37,26232
 498,59; 3817,678;  317,237; 9817,250;36,84670
 499,18; 3803,663;  328,080; 9836,658;36,55208
 499,76; 3787,580;  354,775; 9744,638;36,55863
 500,35; 3720,494;  347,086; 9572,984;36,56455
 500,93; 3650,487;  325,852; 9577,089;35,93720
 501,52; 3582,654;  330,237; 9470,573;35,58312
 502,10; 3591,998;  346,011; 9496,038;35,47516
 502,69; 3535,486;  334,090; 9334,329;35,57012
 503,27; 3427,623;  317,777; 9147,938;35,21845
 503,86; 3410,922;  327,474; 9068,484;35,27565
 504,44; 3359,483;  311,398; 8999,373;35,08394
 505,03; 3217,734;  292,860; 8772,262;34,49387
 505,61; 3202,595;  315,167; 8645,426;34,66193
 506,19; 3128,244;  329,629; 8542,030;34,07791
 506,78; 3053,502;  302,940; 8351,751;34,17352
 507,36; 3008,948;  305,244; 8211,729;34,19603
 507,95; 2927,407;  326,558; 8031,400;33,75603
 508,53; 2893,688;  308,094; 7979,494;33,70433
 509,12; 2844,200;  315,403; 7891,907;33,37682
 509,70; 2820,674;  323,250; 7716,130;33,78148
 510,29; 2742,550;  341,483; 7629,516;32,94534
 510,87; 2650,725;  305,402; 7432,639;32,90648
 511,46; 2591,098;  302,941; 7270,954;32,83801
 512,04; 2566,654;  300,635; 7159,948;33,03566
 512,62; 2508,487;  326,710; 7059,818;32,40370
 513,21; 2418,696;  290,714; 6856,757;32,40890
 513,79; 2382,896;  306,027; 6749,780;32,23073
 514,38; 2308,935;  290,640; 6580,820;32,08643
 514,96; 2315,145;  329,640; 6537,501;31,98372
 515,54; 2222,199;  284,641; 6411,547;31,62375
 516,13; 2199,511;  316,257; 6365,150;31,13386
 516,71; 2161,169;  293,413; 6187,097;31,69080
 517,30; 2079,021;  298,492; 6100,160;30,68994
 517,88; 2084,377;  317,031; 6059,697;30,77571
 518,46; 2001,362;  286,109; 5948,733;30,29078
 519,05; 1986,266;  296,187; 5904,152;30,13712
 519,63; 1967,658;  312,494; 5837,280;29,95888
 520,22; 1966,402;  314,651; 5819,016;30,00802
 520,80; 1922,480;  310,883; 5738,447;29,69282
 521,38; 1921,708;  334,495; 5731,616;29,40850
 521,97; 1876,230;  293,500; 5657,788;29,50495
 522,55; 1875,093;  318,038; 5672,813;29,07787
 523,13; 1828,515;  293,962; 5633,143;28,74135
 523,72; 1810,103;  301,647; 5659,501;28,15410
 524,30; 1886,893;  324,733; 5771,568;28,68013
 524,89; 1812,231;  294,346; 5746,142;27,84192
 525,47; 1858,262;  313,426; 5873,635;27,78377
 526,05; 1849,133;  278,657; 5922,665;27,82553
 526,64; 1871,385;  323,351; 6001,539;27,26282
 527,22; 1916,084;  318,349; 6135,190;27,46739
 527,80; 1940,988;  347,504; 6262,947;26,93769
 528,39; 1897,451;  301,198; 6336,439;26,44886
 528,97; 1939,312;  295,736; 6473,141;26,60626
 529,55; 1994,478;  310,039; 6638,152;26,61835
 530,14; 2017,832;  333,353; 6782,175;26,12073
 530,72; 1996,086;  306,120; 6881,159;25,70274
 531,30; 1995,909;  294,045; 6980,759;25,45142
 531,89; 2046,638;  316,891; 7098,981;25,50462
 532,47; 2069,574;  340,508; 7179,358;25,28300
 533,05; 2077,522;  327,889; 7206,237;25,43682
 533,63; 2078,198;  346,816; 7320,901;24,82594
 534,22; 2055,105;  307,816; 7328,722;24,88694
 534,80; 2109,557;  338,357; 7389,806;25,11824
 535,38; 2160,663;  412,353; 7502,857;24,65705
 535,97; 2045,080;  318,046; 7407,846;24,35942
 536,55; 2090,962;  371,819; 7484,972;24,16851
 537,13; 2069,589;  378,045; 7457,091;23,89509
 537,71; 2102,204;  408,506; 7522,121;23,80924
 538,30; 2103,523;  432,817; 7585,910;23,35641
 538,88; 2113,648;  469,897; 7660,675;22,85914
 539,46; 2169,496;  541,588; 7831,755;22,33019
 540,05; 2187,521;  557,358; 7964,077;22,00925
 540,63; 2250,356;  596,666; 8108,608;22,01414
 541,21; 2253,482;  625,206; 8260,452;21,32579
 541,79; 2303,673;  662,283; 8345,751;21,36262
 542,38; 2336,060;  681,742; 8498,338;21,16416
 542,96; 2353,387;  701,977; 8638,609;20,80744
 543,54; 2376,118;  719,744; 8861,218;20,34489
 544,12; 2388,276;  696,591; 8941,174;20,51875
 544,70; 2382,323;  672,747; 9030,355;20,45533
 545,29; 2421,161;  683,743; 9151,014;20,51922
 545,87; 2391,980;  650,898; 9205,136;20,35345
 546,45; 2333,646;  605,588; 9222,491;20,05428
 547,03; 2334,972;  598,051; 9248,623;20,07868
 547,62; 2349,689;  568,745; 9376,130;20,22104
 548,20; 2372,330;  568,900; 9540,760;20,10096
 548,78; 2370,258;  525,136; 9614,143;20,30059
 549,36; 2374,383;  493,751; 9815,403;20,17488
 549,94; 2358,767;  453,053; 9900,376;20,17200
 550,53; 2393,892;  468,442;10132,079;19,92470
 551,11; 2371,680;  419,291;10261,657;19,83659
 551,69; 2419,452;  444,135;10523,829;19,59699
 552,27; 2414,078;  415,518;10761,760;19,31677
 552,85; 2475,599;  411,444;11102,716;19,30691
 553,44; 2507,581;  404,904;11349,153;19,21262
 554,02; 2573,610;  418,674;11698,555;19,10425
 554,60; 2570,198;  357,060;11986,584;19,03034
 555,18; 2681,266;  405,981;12299,240;19,13087
 555,76; 2694,631;  371,674;12580,521;19,02683
 556,34; 2746,059;  372,985;12928,483;18,90067
 556,93; 2792,699;  370,058;13278,593;18,76774
 557,51; 2817,180;  355,062;13566,586;18,63614
 558,09; 2888,638;  375,828;13889,695;18,59431
 558,67; 2938,194;  383,525;14243,901;18,43145
 559,25; 2965,217;  387,601;14502,516;18,26165
 559,83; 3000,632;  361,219;14712,948;18,39091
 560,41; 3000,560;  358,446;15061,399;17,96995
 561,00; 3084,465;  370,679;15405,602;18,04988
 561,58; 3074,973;  352,292;15564,740;17,89772
 562,16; 3108,510;  354,675;15827,248;17,79817
 562,74; 3135,133;  333,674;16170,299;17,68974
 563,32; 3195,090;  343,449;16487,161;17,66409
 563,90; 3238,214;  365,371;16893,406;17,38164
 564,48; 3283,061;  366,138;17252,932;17,27340
 565,06; 3368,157;  348,756;17790,633;17,31122
 565,65; 3462,290;  370,452;18364,895;17,18218
 566,23; 3585,526;  407,218;18999,500;17,09477
 566,81; 3628,521;  357,447;19670,421;16,93718
 567,39; 3758,685;  364,527;20526,056;16,83483
 567,97; 3846,796;  383,525;21033,571;16,77125
 568,55; 3954,158;  410,988;21775,741;16,58419
 569,13; 4027,878;  359,756;22407,065;16,63750
 569,71; 4151,506;  358,060;23291,076;16,54142
 570,29; 4315,598;  409,981;24137,455;16,46031
 570,87; 4378,574;  399,290;24791,379;16,31383
 571,45; 4454,109;  392,987;25303,173;16,30306
 572,03; 4445,370;  349,912;25699,267;16,15606
 572,61; 4564,057;  348,911;26399,372;16,18070
 573,20; 4626,419;  381,831;27027,545;15,92972
 573,78; 4681,648;  370,603;27582,819;15,84232
 574,36; 4773,514;  379,218;28016,539;15,89986
 574,94; 4825,132;  428,682;28281,862;15,78437
 575,52; 4777,645;  384,531;28548,552;15,59832
 576,10; 4877,417;  439,607;29100,078;15,48408
 576,68; 4921,002;  424,989;29663,753;15,37689
 577,26; 5000,723;  437,225;30132,352;15,36784
 577,84; 5033,931;  435,603;30649,174;15,21941
 578,42; 5090,817;  487,683;30852,657;15,15935
 579,00; 5016,976;  434,603;30962,554;15,01042
 579,58; 5071,310;  466,528;31145,999;15,00933
 580,16; 5016,364;  454,375;31274,508;14,80197
 580,74; 5009,570;  459,068;31409,801;14,70241
 581,32; 4993,909;  453,221;31471,405;14,63880
 581,90; 4986,109;  475,068;31360,832;14,60557
 582,48; 4955,538;  481,145;31530,012;14,41081
 583,06; 4930,836;  467,759;31645,146;14,31511
 583,64; 4946,860;  465,066;31726,545;14,33647
 584,22; 4906,277;  475,224;31533,208;14,26703
 584,80; 4855,246;  485,606;31311,453;14,17525
 585,38; 4760,645;  497,446;30916,404;14,01494
 585,96; 4697,369;  459,758;31068,098;13,84463
 586,54; 4683,706;  481,454;31036,758;13,75294
 587,12; 4676,235;  462,761;31161,891;13,72506
 587,70; 4717,653;  481,450;31347,237;13,72459
 588,28; 4669,231;  461,915;31385,412;13,60556
 588,86; 4685,980;  476,992;31519,846;13,55864
 589,44; 4632,117;  451,996;31455,187;13,48288
 590,02; 4636,124;  451,610;31719,238;13,38290
 590,59; 4627,912;  430,608;31929,235;13,32536
 591,17; 4703,715;  428,845;32006,144;13,53780
 591,75; 4651,365;  418,766;32126,473;13,34880
 592,33; 4678,984;  443,688;32340,353;13,27818
 592,91; 4658,532;  393,306;32671,434;13,21398
 593,49; 4678,971;  404,307;32802,681;13,19407
 594,07; 4707,870;  422,846;33033,313;13,14003
 594,65; 4712,281;  438,224;33079,333;13,09409
 595,23; 4729,290;  416,687;33409,322;13,07141
 595,81; 4748,453;  408,534;33545,835;13,09678
 596,39; 4746,927;  406,457;33624,196;13,06672
 596,97; 4750,953;  398,690;33796,195;13,03170
 597,55; 4709,982;  392,455;33700,615;12,96237
 598,12; 4680,365;  386,693;33728,117;12,87789
 598,70; 4657,201;  391,768;33818,620;12,76050
 599,28; 4738,723;  404,768;34013,287;12,89541
 599,86; 4685,306;  397,152;33965,114;12,77454
 600,44; 4649,627;  356,461;34064,721;12,73624
 601,02; 4709,950;  417,695;34218,050;12,69885
 601,60; 4670,082;  392,535;34173,150;12,66273
 602,18; 4670,506;  365,462;34152,602;12,74167
 602,75; 4656,400;  373,072;34232,157;12,65045
 603,33; 4666,302;  381,922;34418,757;12,58748
 603,91; 4641,135;  360,540;34325,147;12,60310
 604,49; 4646,331;  398,999;34393,682;12,49411
 605,07; 4658,515;  386,304;34345,533;12,58041
 605,65; 4602,283;  406,615;34436,391;12,32940
 606,23; 4653,774;  464,608;34619,214;12,26530
 606,80; 4663,590;  514,995;34630,071;12,16059
 607,38; 4683,625;  546,155;34683,826;12,11995
 607,96; 4717,720;  597,457;34728,164;12,07201
 608,54; 4698,473;  652,769;34860,921;11,82673
 609,12; 4714,113;  655,918;34823,046;11,87748
 609,70; 4722,606;  695,229;34929,540;11,76415
 610,27; 4750,740;  700,687;35001,084;11,80760
 610,85; 4711,634;  718,844;35003,187;11,64610
 611,43; 4714,950;  717,537;34987,961;11,66432
 612,01; 4659,033;  684,304;34750,674;11,66760
 612,59; 4660,739;  672,460;34737,035;11,70800
 613,16; 4635,317;  644,224;34690,217;11,72265
 613,74; 4622,825;  620,153;34677,271;11,75282
 614,32; 4643,943;  581,846;34577,418;11,94890
 614,90; 4613,799;  533,613;34521,641;12,00477
 615,48; 4550,079;  481,379;34204,658;12,06496
 616,05; 4518,641;  456,916;34228,119;12,02718
 616,63; 4497,203;  469,069;34010,964;12,00926
 617,21; 4512,335;  462,072;33849,657;12,13105
 617,79; 4493,700;  441,765;33792,598;12,14943
 618,36; 4498,474;  445,766;33676,601;12,19563
 618,94; 4399,808;  385,302;33551,233;12,10431
 619,52; 4414,859;  405,916;33249,711;12,20609
 620,10; 4408,599;  393,841;33235,799;12,22448
 620,67; 4404,494;  413,146;33193,170;12,17616
 621,25; 4398,600;  421,151;33002,568;12,20772
 621,83; 4388,367;  406,225;32912,046;12,25055
 622,41; 4446,010;  450,071;32859,540;12,32954
 622,98; 4392,563;  415,300;32663,673;12,33322
 623,56; 4379,405;  418,299;32733,532;12,25770
 624,14; 4362,172;  395,998;32622,603;12,30714
 624,72; 4349,209;  382,686;32516,489;12,34377
 625,29; 4370,158;  382,069;32529,661;12,40556
 625,87; 4443,510;  417,765;32515,376;12,54220
 626,45; 4368,259;  372,914;32343,321;12,49701
 627,02; 4363,004;  383,381;32318,396;12,46163
 627,60; 4389,756;  359,538;32308,045;12,61473
 628,18; 4340,728;  351,841;32275,815;12,49496
 628,76; 4334,770;  361,377;32234,196;12,46640
 629,33; 4408,147;  382,840;32184,576;12,65751
 629,91; 4418,445;  362,688;32279,184;12,70740
 630,49; 4451,770;  388,070;32417,596;12,68736
 631,06; 4469,689;  381,454;32548,609;12,70935
 631,64; 4469,927;  374,453;32413,461;12,78277
 632,22; 4418,545;  339,990;32414,294;12,71596
 632,79; 4514,375;  371,913;32640,346;12,83751
 633,37; 4532,693;  346,150;32776,778;12,90922
 633,95; 4575,655;  342,145;32761,252;13,05869
 634,52; 4581,723;  344,686;32872,044;13,02607
 635,10; 4610,465;  345,072;32898,950;13,10256
 635,68; 4638,104;  340,913;33024,645;13,14780
 636,25; 4644,859;  328,219;33057,515;13,18892
 636,83; 4674,385;  319,454;33308,812;13,20102
 637,41; 4703,881;  339,528;33312,742;13,23605
 637,98; 4750,945;  356,989;33467,304;13,27066
 638,56; 4765,514;  345,911;33589,662;13,29454
 639,13; 4781,765;  336,838;33647,671;13,34379
 639,71; 4886,714;  368,070;33756,978;13,53337
 640,29; 4767,728;  300,377;33598,392;13,41627
 640,86; 4832,538;  324,762;33698,719;13,50687
 641,44; 4854,117;  321,070;33764,584;13,55434
 642,02; 4922,851;  343,454;33797,372;13,68867
 642,59; 4904,430;  330,070;33899,160;13,62670
 643,17; 4940,702;  307,455;33825,564;13,82312
 643,74; 4927,050;  332,147;33897,121;13,68958
 644,32; 4982,860;  350,224;33794,602;13,85176
 644,89; 5003,055;  339,455;33886,236;13,90178
 645,47; 5053,481;  364,301;33822,870;14,01488
 646,05; 5061,829;  338,917;33844,120;14,09606
 646,62; 5060,794;  333,532;33775,754;14,13561
 647,20; 5125,296;  340,609;33996,004;14,21670
 647,77; 5085,491;  309,686;33826,177;14,24912
 648,35; 5113,301;  300,148;33744,657;14,39146
 648,92; 5122,188;  332,917;33742,599;14,33498
 649,50; 5166,152;  299,763;33743,079;14,55115
 650,08; 5184,116;  313,379;33643,868;14,61346
 650,65; 5202,926;  308,148;33873,117;14,58300
 651,23; 5343,890;  287,533;34500,213;14,77919
 651,80; 5512,547;  284,225;35347,924;14,91092
 652,38; 5630,203;  304,918;35719,482;15,03699
 652,95; 5693,936;  285,379;36081,193;15,10947
 653,53; 5749,900;  321,149;36346,443;15,06928
 654,10; 5782,480;  336,841;36454,538;15,07748
 654,68; 5810,982;  300,611;36378,250;15,27365
 655,25; 5828,023;  289,918;36456,422;15,31280
 655,83; 5873,756;  296,688;36537,364;15,38898
 656,40; 5963,490;  332,534;36506,845;15,56617
 656,98; 5936,454;  292,457;36424,171;15,62062
 657,55; 5932,956;  309,842;36363,652;15,59645
 658,13; 5905,305;  295,842;35883,286;15,76248
 658,70; 5913,654;  318,227;35800,074;15,76983
 659,28; 5820,694;  303,304;34942,170;15,92832
 659,85; 5711,043;  323,381;34232,958;15,88832
 660,43; 5755,930;  322,458;34213,516;16,03217
 661,00; 5779,202;  302,304;34383,073;16,07035
 661,58; 5884,474;  295,073;34619,630;16,28397
 662,15; 5922,515;  296,996;34827,265;16,29156
 662,73; 6025,248;  355,997;35099,514;16,31744
 663,30; 6060,058;  313,227;35312,764;16,41973
 663,88; 6149,330;  305,766;35433,783;16,63505
 664,45; 6179,217;  299,920;35638,648;16,63698
 665,03; 6288,181;  297,382;35915,513;16,81952
 665,60; 6502,145;  374,151;36403,609;17,00829
 666,17; 6424,494;  312,920;36516,166;16,88129
 666,75; 6535,073;  298,997;36774,339;17,09669
 667,32; 6628,114;  329,074;37023,204;17,16634
 667,90; 6713,309;  312,921;37335,146;17,28796
 668,47; 6796,580;  323,382;37535,934;17,39520
 669,05; 6838,698;  314,075;37830,722;17,39128
 669,62; 6900,124;  291,152;37968,895;17,54079
 670,19; 6979,473;  275,767;37959,837;17,78923
 670,77; 7064,821;  303,767;38223,317;17,83000
 671,34; 7079,862;  295,152;38101,336;17,94603
 671,92; 7187,288;  290,229;38389,586;18,10282
 672,49; 7180,636;  308,614;38431,759;18,02585
 673,06; 7241,600;  266,229;38504,701;18,24176
 673,64; 7256,411;  280,537;38489,643;18,25710
 674,21; 7297,605;  282,614;38387,662;18,40961
 674,79; 7385,492;  309,153;38620,988;18,47038
 675,36; 7477,687;  315,230;38708,699;18,65541
 675,93; 7465,651;  283,537;38668,257;18,71087
 676,51; 7563,615;  308,768;38746,045;18,87451
 677,08; 7585,810;  299,307;38908,910;18,87226
 677,65; 7614,082;  307,845;38928,621;18,91789
 678,23; 7720,277;  305,922;39173,179;19,07609
 678,80; 7715,933;  291,153;39328,351;19,01976
 679,38; 7808,589;  295,153;39473,293;19,17762
 679,95; 7893,784;  304,769;39654,620;19,28601
 680,52; 8009,056;  296,000;39890,716;19,48001
 681,10; 8136,174;  304,384;40293,888;19,58461
 681,67; 8212,292;  299,923;40502,215;19,68139
 682,24; 8254,179;  273,615;40588,849;19,79540
 682,82; 8441,758;  290,077;41102,484;19,97354
 683,39; 8611,414;  326,923;41358,964;20,19030
 683,96; 8661,148;  288,308;41611,983;20,26160
 684,54; 8734,573;  272,616;41813,848;20,37002
 685,11; 8828,230;  310,385;42132,482;20,36685
 685,68; 8986,117;  286,308;42546,424;20,58633
 686,25; 9065,773;  274,616;42635,059;20,75322
 686,83; 9151,583;  273,693;42791,462;20,88042
 687,40; 9202,317;  269,386;43071,789;20,87016
 687,97; 9356,896;  322,386;43388,808;20,97808
 688,55; 9449,475;  258,001;43466,903;21,27218
 689,12; 9525,824;  255,617;43682,692;21,34661
 689,69; 9607,480;  266,232;43795,787;21,45955
 690,26; 9665,290;  284,771;43954,499;21,48060
 690,84; 9775,024;  291,771;44189,364;21,60313
 691,41; 9851,526;  306,309;44136,844;21,77755
 691,98; 9980,798;  294,848;44588,478;21,86759
 692,56;10054,993;  282,694;44574,882;22,06326
 693,13;10147,034;  333,464;44633,593;22,15246
 693,70;10222,075;  302,925;44812,381;22,28549
 694,27;10230,654;  290,387;44812,708;22,32648
 694,84;10327,080;  282,695;45005,957;22,45897
 695,42;10414,121;  334,310;45101,899;22,51587
 695,99;10445,315;  304,079;45276,918;22,54969
 696,56;10543,126;  294,080;45164,014;22,84168
 697,13;10724,167;  298,849;45467,264;23,08099
 697,71;10724,284;  289,003;45588,129;23,03639
 698,28;10856,248;  299,080;45841,302;23,18106
 698,85;10848,443;  268,157;45908,628;23,18181
 699,42;10895,330;  267,772;46123,263;23,17620
 699,99;11022,141;  304,926;46237,128;23,33268
 700,57;11104,874;  297,311;46230,070;23,52910
 701,14;11224,838;  280,311;46376,935;23,74258
 701,71;11329,186;  310,850;46638,800;23,78335
 702,28;11396,381;  294,465;46572,511;23,98960
 702,85;11408,345;  307,081;46653,376;23,95286
 703,43;11535,540;  312,312;46872,549;24,10475
 704,00;11665,735;  327,004;47096,568;24,24382
 704,57;11656,237;  299,312;46970,971;24,33367
 705,14;11800,817;  332,004;47369,682;24,38218
 705,71;11876,319;  342,081;47427,471;24,49643
 706,28;11843,283;  310,850;47394,874;24,49330
 706,86;12020,555;  346,620;47531,354;24,74092
 707,43;12060,134;  359,235;47444,912;24,85023
 708,00;12104,560;  328,005;47556,777;24,93513
 708,57;12084,678;  301,389;47422,488;25,00640
 709,14;12223,257;  327,236;47655,815;25,13496
 709,71;12314,914;  312,543;47744,449;25,30442
 710,28;12447,647;  313,082;47915,314;25,49159
 710,86;12493,303;  309,928;48020,871;25,53581
 711,43;12624,883;  333,313;47975,352;25,79984
 712,00;12671,001;  316,467;48120,755;25,84399
 712,57;12794,580;  337,390;48233,544;26,00875
 713,14;12837,236;  314,698;48374,639;26,05608
 713,71;12878,277;  315,159;48244,197;26,21191
 714,28;12949,780;  300,544;48378,754;26,30971
 714,85;13008,975;  293,775;48046,850;26,62698
 715,42;13069,092;  293,237;48317,407;26,60297
 716,00;13260,518;  360,237;48414,042;26,84549
 716,57;13233,174;  297,468;48484,291;26,84490
 717,14;13258,908;  281,929;48384,541;26,97770
 717,71;13258,256;  280,006;48454,637;26,94001
 718,28;13428,913;  325,699;48556,348;27,16782
 718,85;13475,646;  276,468;48492,059;27,37533
 719,42;13621,379;  296,776;48717,617;27,51832
 719,99;13610,805;  283,776;48509,020;27,63496
 720,56;13756,692;  310,391;48748,654;27,75967
 721,13;13840,887;  287,392;48823,981;27,92428
 721,70;13821,389;  277,546;48758,615;27,93635
 722,27;13911,199;  304,546;48775,019;28,07205
 722,84;14041,163;  345,238;48931,961;28,18862
 723,41;14069,435;  276,546;48967,826;28,32723
 723,98;14104,245;  299,546;49080,229;28,29952
 724,55;14290,363;  310,315;49232,402;28,57615
 725,12;14288,712;  247,623;49144,498;28,71572
 725,69;14448,214;  285,239;49277,517;28,90859
 726,27;14596,024;  293,623;49382,690;29,13561
 726,84;14656,373;  298,854;49718,401;29,05231
 727,41;14799,952;  308,316;49661,189;29,36331
 727,98;14878,070;  311,162;49958,900;29,34053
 728,55;15020,419;  330,162;49853,381;29,66337
 729,12;14996,152;  273,239;49989,169;29,61408
 729,69;15125,424;  317,624;50136,957;29,72300
 730,26;15195,157;  309,778;50348,822;29,74753
 730,82;15236,660;  297,163;50277,456;29,89078
 731,39;15345,778;  291,317;50285,167;30,11263
 731,96;15488,588;  280,624;50571,802;30,23982
 732,53;15577,013;  306,240;50841,744;30,21791
 733,10;15656,131;  306,548;51018,993;30,26788
 733,67;15724,711;  314,317;51184,551;30,29354
 734,24;15740,521;  290,855;50785,416;30,59669
 734,81;15860,100;  325,702;50886,742;30,72405
 735,38;15782,295;  301,702;50707,223;30,71210
 735,95;15862,028;  299,625;50561,780;30,96247
 736,52;15965,608;  302,548;50796,491;31,01968
 737,09;15925,879;  307,548;50411,818;31,17166
 737,66;15988,228;  349,241;50647,221;31,09267
 738,23;16081,807;  293,395;50711,779;31,31479
 738,80;16271,618;  357,318;50979,490;31,43741
 739,37;16344,197;  321,395;51168,278;31,51187
 739,94;16377,776;  306,933;51266,605;31,53639
 740,51;16534,510;  399,395;51176,162;31,77657
 741,07;16489,551;  294,395;51149,489;31,84569
 741,64;16579,669;  334,626;51368,123;31,83212
 742,21;16659,863;  297,857;51408,450;32,01295
 742,78;16604,750;  271,934;51195,776;32,07302
 743,35;16763,099;  295,780;51403,334;32,22091
 743,92;16898,755;  323,396;51518,122;32,37708
 744,49;16933,796;  309,011;51500,987;32,47537
 745,06;17023,760;  304,011;51481,621;32,67005
 745,63;17017,109;  277,242;51405,409;32,74099
 746,19;17163,458;  286,781;51513,813;32,94487
 746,76;17148,345;  295,704;51484,062;32,92280
 747,33;17226,309;  284,858;51445,158;33,11445
 747,90;17384,196;  316,319;51609,408;33,27520
 748,47;17467,468;  305,396;51598,427;33,45888
 749,04;17454,509;  308,550;51568,061;33,44932
 749,61;17494,857;  334,935;51465,465;33,56101
 750,17;17589,129;  313,166;51550,714;33,71739
 750,74;17651,862;  309,474;51508,964;33,87219
 751,31;17635,365;  288,551;51351,598;33,97136
 751,88;17692,021;  272,474;51405,848;34,06688
 752,45;17873,216;  296,782;51402,174;34,39252
 753,02;17836,718;  316,859;51215,040;34,42139
 753,58;17922,221;  293,628;51275,212;34,57835
 754,15;17973,954;  295,859;51399,462;34,59266
 754,72;17894,149;  281,551;51227,404;34,57121
 755,29;17956,574;  267,244;51119,192;34,78594
 755,86;18014,462;  295,475;51214,365;34,79845
 756,42;18191,887;  299,244;51097,845;35,22271
 756,99;18069,697;  253,090;50977,326;35,12445
 757,56;18203,584;  255,937;50970,498;35,38954
 758,13;18184,318;  227,860;50886,210;35,44620
 758,70;18382,512;  250,552;51004,921;35,72493
 759,26;18354,169;  236,322;51033,863;35,66678
 759,83;18430,133;  243,322;51053,266;35,79380
 760,40;18476,251;  226,322;51003,824;35,94097
 760,97;18516,292;  230,937;50898,227;36,08907
 761,53;18474,410;  218,322;50600,554;36,23517
 762,10;18499,604;  209,245;50629,650;36,27571
 762,67;18623,338;  252,861;50692,130;36,42098
 763,24;18492,379;  196,784;50153,149;36,62315
 763,80;18644,420;  237,938;50331,860;36,74394
 764,37;18572,768;  239,938;50257,571;36,65273
 764,94;18515,963;  226,246;49867,283;36,84395
 765,50;18573,004;  239,092;49944,378;36,88524
 766,07;18646,583;  271,015;49896,244;37,02868
 766,64;18504,932;  243,246;49654,262;36,95873
 767,21;18530,819;  259,323;49628,974;37,00957
 767,77;18691,860;  276,861;49478,685;37,42747
 768,34;18633,516;  280,554;49371,396;37,38572
 768,91;18662,711;  276,016;49330,569;37,48214
 769,47;18722,675;  284,016;49375,280;37,55996
 770,04;18747,870;  291,247;49143,068;37,78083
 770,61;18716,526;  262,939;48955,087;37,89849
 771,18;18707,183;  254,247;48914,106;37,92230
 771,74;18763,070;  278,401;48989,510;37,94754
 772,31;18762,880;  279,632;48733,913;38,14575
 772,88;18754,921;  249,016;48515,393;38,34119
 773,44;18653,270;  262,939;48387,566;38,21397
 774,01;18856,464;  279,324;48493,970;38,53008
 774,58;18785,505;  255,555;48151,681;38,68779
 775,14;18884,854;  254,709;48253,700;38,81362
 775,71;18859,895;  252,171;48216,026;38,79531
 776,27;18999,782;  310,709;48202,507;39,02354
 776,84;19033,746;  336,171;48305,833;38,97792
 777,41;19031,249;  278,248;47961,699;39,32811
 777,97;18897,905;  255,940;47678,179;39,31060
 778,54;18980,946;  276,171;47718,275;39,42653
 779,11;19087,602;  291,479;47758,217;39,59851
 779,67;19091,951;  243,941;47711,928;39,70678
 780,24;19056,299;  272,941;47509,101;39,76479
 780,80;19090,802;  290,864;47501,120;39,82172
 781,37;19075,612;  271,787;47502,908;39,81236
 781,94;19120,961;  271,787;47295,234;40,08463
 782,50;19162,617;  274,556;47226,407;40,22858
 783,07;19231,581;  296,326;47330,118;40,25883
 783,63;19206,545;  264,557;47086,214;40,45561
 784,20;19213,971;  291,018;46959,925;40,54724
 784,77;19100,166;  274,095;46781,483;40,47974
 785,33;19149,822;  255,711;46631,425;40,74139
 785,90;19262,709;  268,096;46723,828;40,88756
 786,46;19276,365;  288,019;46535,616;41,05802
 787,03;19200,406;  253,173;46280,712;41,16499
 787,59;19320,293;  265,173;46207,885;41,47583
 788,16;19327,488;  267,942;46151,442;41,53900
 788,73;19332,298;  285,327;46032,461;41,63533
 789,29;19276,109;  268,096;45727,865;41,81282
 789,86;19265,919;  278,865;45739,038;41,76635
 790,42;19239,575;  282,173;45568,979;41,86076
 790,99;19251,693;  280,481;45233,691;42,20213
 791,55;19252,195;  262,789;45164,325;42,29122
 792,12;19302,313;  289,712;45206,575;42,32843
 792,68;19296,508;  276,174;44950,517;42,57552
 793,25;19195,087;  284,174;44732,536;42,54581
 793,81;19216,590;  335,405;44415,016;42,83428
 794,38;19056,939;  240,559;44239,343;42,76568
 794,94;19008,364;  261,097;44125,977;42,73867
 795,51;19030,328;  283,790;43907,688;42,97309
 796,07;18929,600;  276,328;43538,322;43,11699
 796,64;19060,872;  290,328;43800,957;43,14013
 797,20;18884,220;  272,713;43289,052;43,26613
 797,77;18746,723;  250,098;42932,994;43,33498
 798,33;18831,995;  276,329;42779,475;43,65716
 798,90;18818,035;  288,867;42734,417;43,65397
 799,46;18692,076;  264,252;42403,820;43,73045
 800,03;18597,194;  262,944;42239,455;43,67740
 800,59;18526,389;  286,406;42102,243;43,61980
 801,15;18531,738;  281,868;41835,031;43,91933
 801,72;18468,240;  273,714;41555,819;44,07364
 802,28;18345,897;  298,945;41222,607;44,09906
 802,85;18357,476;  271,176;41168,088;44,22412
 803,41;18305,594;  266,714;40968,260;44,31989
 803,98;18215,481;  253,483;40590,125;44,53023
 804,54;18050,983;  272,484;40381,606;44,32533
 805,11;17981,332;  278,484;40151,856;44,39767
 805,67;18049,219;  302,945;40103,798;44,58767
 806,23;17872,876;  276,792;39698,893;44,63507
 806,80;17880,070;  300,099;39595,989;44,73743
 807,36;17899,650;  298,946;39503,777;44,89422
 807,93;17842,537;  303,176;39394,796;44,86732
 808,49;17693,424;  254,561;38991,661;45,01850
 809,05;17651,388;  251,561;38746,373;45,20045
 809,62;17723,198;  283,254;38788,853;45,29197
 810,18;17674,547;  287,792;38594,257;45,38857
 810,74;17529,742;  255,869;38356,814;45,33712
 811,31;17498,244;  253,869;38185,756;45,46142
 811,87;17539,285;  270,331;38124,082;45,62019
 812,44;17531,403;  298,639;38078,563;45,61355
 813,00;17502,059;  227,100;37743,736;46,04613
 813,56;17487,023;  273,947;37907,216;45,73899
 814,13;17569,141;  256,485;37684,620;46,25573
 814,69;17506,951;  270,716;37579,331;46,19908
 815,25;17395,146;  241,332;37159,965;46,46384
 815,82;17399,495;  279,639;37158,369;46,42203
 816,38;17415,690;  304,101;36982,772;46,65270
 816,94;17230,807;  247,947;36683,945;46,61011
 817,51;17173,464;  241,947;36475,502;46,72883
 818,07;17207,120;  250,563;36313,367;47,01952
 818,63;17096,315;  270,948;36059,232;47,01362
 819,20;17061,125;  259,025;36002,636;47,00728
 819,76;16958,320;  245,255;35733,655;47,09444
 820,32;17003,515;  279,640;35601,981;47,34645
 820,89;16912,556;  279,102;35421,385;47,33174
 821,45;16785,520;  247,717;35149,788;47,38344
 822,01;16738,868;  263,487;34907,961;47,55558
 822,57;16706,217;  281,102;34767,826;47,62736
 823,14;16632,643;  240,333;34556,691;47,76821
 823,70;16514,530;  249,102;34326,479;47,73087
 824,26;16450,494;  245,333;34234,729;47,67711
 824,82;16524,150;  280,179;34049,363;48,10294
 825,39;16367,960;  245,564;33819,844;48,02008
 825,95;16475,386;  273,641;33877,863;48,21342
 826,51;16319,504;  261,564;33513,651;48,29152
 827,08;16414,775;  293,949;33632,208;48,35533
 827,64;16313,201;  277,872;33386,227;48,43288
 828,20;16242,780;  254,103;33196,861;48,53473
 828,76;16263,591;  272,642;33139,265;48,65407
 829,32;16284,939;  286,026;32959,438;48,96615
 829,89;16233,826;  238,027;32840,687;49,06287
 830,45;16208,944;  265,719;32805,937;48,99545
 831,01;16173,754;  253,796;32630,264;49,17139
 831,57;16175,411;  260,950;32506,359;49,35419
 832,14;16209,375;  252,565;32522,378;49,44810
 832,70;16014,877;  247,489;32309,243;49,17818
 833,26;16042,457;  226,412;32221,032;49,43345
 833,82;16119,728;  251,873;32083,897;49,84872
 834,38;16171,846;  256,335;32210,608;49,80715
 834,95;16099,349;  233,258;31973,319;49,98759
 835,51;16037,697;  210,951;31919,569;49,91308
 836,07;16191,738;  253,797;31953,588;50,27775
 836,63;16193,702;  275,643;31927,607;50,29091
 837,19;16181,205;  250,182;31857,164;50,40349
 837,75;16058,323;  221,259;31542,567;50,56323
 838,32;16178,825;  264,182;31683,048;50,65314
 838,88;16233,251;  265,720;31676,298;50,83488
 839,44;16219,292;  255,644;31588,316;50,94889
 840,00;16225,333;  249,490;31425,489;51,24404
 840,56;16132,297;  244,259;31253,200;51,23696
 841,12;16117,492;  240,721;31220,065;51,24954
 841,68;16076,225;  218,798;30958,469;51,58620
 842,25;16143,343;  235,336;31083,949;51,56798
 842,81;16057,922;  221,875;30810,276;51,77141
 843,37;16074,732;  220,875;30856,987;51,74892
 843,93;16072,235;  232,029;30698,852;51,99166
 844,49;16193,199;  262,414;30842,179;52,09584
 845,05;16085,394;  210,799;30651,736;52,14884
 845,61;16243,127;  265,645;30777,678;52,36453
 846,17;16241,168;  236,568;30496,466;52,89046
 846,73;16259,901;  246,414;30422,408;53,06697
 847,29;16155,173;  230,260;30269,735;53,01329
 847,86;16164,214;  237,876;30236,446;53,09032
 848,42;16118,870;  235,953;30102,927;53,17886
 848,98;16088,680;  248,107;30056,945;53,14052
 849,54;16073,337;  230,338;30022,195;53,17896
 850,10;16111,608;  243,338;29921,522;53,46779
 850,66;16047,957;  231,338;29752,695;53,57687
 851,22;16108,536;  220,338;29685,560;53,92187
 851,78;16170,193;  267,646;29743,194;53,95166
 852,34;16092,618;  241,800;29509,213;54,15859
 852,90;16059,121;  227,492;29446,847;54,18199
 853,46;15958,700;  227,723;29214,251;54,26996
 854,02;15990,741;  249,185;29228,654;54,31968
 854,58;15903,782;  241,723;29006,827;54,44812
 855,14;15921,131;  227,185;28966,230;54,60844
 855,70;15952,556;  198,262;28718,172;55,23963
 856,26;15905,366;  247,801;28829,114;54,78253
 856,82;15848,484;  235,031;28605,133;55,03488
 857,38;15909,064;  265,032;28495,614;55,41520
 857,94;15803,105;  245,493;28417,017;55,22460
 858,50;15767,684;  250,032;28338,267;55,24609
 859,06;15644,802;  226,878;28103,978;55,30677
 859,62;15687,843;  247,724;28130,843;55,37443
 860,18;15574,807;  239,032;28049,170;55,14455
 860,74;15588,079;  208,340;27876,112;55,58720
 861,30;15583,504;  214,648;27653,977;56,01032
 861,86;15678,007;  275,725;27715,073;56,13210
 862,42;15563,740;  240,648;27517,707;56,17575
 862,98;15584,550;  263,417;27542,341;56,16473
 863,54;15594,899;  236,033;27343,283;56,65962
 864,10;15595,324;  234,494;27331,687;56,68790
 864,66;15493,673;  213,879;27118,782;56,79186
 865,22;15472,022;  232,110;27079,494;56,76498
 865,78;15408,216;  234,725;26994,743;56,70210
 866,34;15310,565;  228,187;26833,685;56,68895
 866,90;15340,760;  241,341;26807,243;56,83759
 867,45;15247,109;  244,880;26595,185;56,93380
 868,01;15253,842;  244,341;26394,204;57,39801
 868,57;15130,344;  237,957;26249,069;57,25394
 869,13;15103,308;  215,880;26126,088;57,45777
 869,69;15054,580;  241,726;26118,414;57,24401
 870,25;14984,083;  218,957;25974,664;57,32759
 870,81;15039,970;  228,572;25969,221;57,54089
 871,37;15020,472;  245,419;25871,009;57,65742
 871,93;15058,821;  248,880;25682,721;58,22927
 872,49;14890,400;  264,727;25491,893;57,97589
 873,04;14849,133;  222,111;25348,758;58,21319
 873,60;14814,405;  222,342;25272,777;58,25074
 874,16;14725,600;  245,650;25173,181;58,08818
 874,72;14718,369;  221,727;25105,027;58,25852
 875,28;14686,369;  243,727;25044,565;58,23449
 875,84;14637,446;  240,804;24918,412;58,33889
 876,40;14693,062;  229,573;24931,412;58,55228
 876,95;14679,985;  242,342;24891,258;58,57313
 877,51;14705,677;  263,650;24825,335;58,79901
 878,07;14832,062;  278,573;24851,719;59,22517
 878,63;14786,985;  231,881;24878,796;59,05446
 879,19;14797,292;  254,342;24867,950;59,08500
 879,75;14879,600;  229,419;24956,642;59,24717
 880,30;14970,292;  235,881;24889,335;59,76611
 880,86;15096,908;  271,881;25034,181;59,86935
 881,42;15153,215;  218,573;25074,181;60,08561
 881,98;15131,446;  256,804;25141,027;59,77539
 882,54;15130,138;  225,958;25146,412;59,80702
 883,09;15303,215;  241,188;25286,258;60,13969
 883,65;15354,446;  219,419;25362,181;60,19636
 884,21;15564,523;  263,496;25535,181;60,54613
 884,77;15614,062;  235,573;25585,950;60,66375
 885,32;15665,677;  236,727;25729,335;60,52323
 885,88;15859,831;  272,419;25771,488;61,12934
 886,44;15942,523;  239,881;25922,873;61,14024
 887,00;15920,062;  261,650;25852,565;61,18738
 887,56;16099,985;  236,650;26019,873;61,52580
 888,11;16123,677;  239,958;26002,796;61,65361
 888,67;16247,446;  271,265;26241,335;61,51767
 889,23;16265,292;  243,112;26145,488;61,85603
 889,79;16257,292;  228,727;26112,335;61,92555
 890,34;16214,062;  244,573;25986,642;62,03654
 890,90;16388,215;  300,035;26218,335;62,07267
 891,46;16300,831;  217,958;26037,104;62,29049
 892,01;16315,215;  259,496;26049,412;62,25580
 892,57;16335,446;  272,342;26020,565;62,38529
 893,13;16248,369;  246,650;25776,719;62,67793
 893,69;16228,062;  223,804;25697,873;62,82568
 894,24;16267,754;  241,265;25649,719;63,07542
 894,80;16190,908;  241,804;25554,565;63,00815
 895,36;16169,215;  247,727;25397,181;63,30749
 895,91;16026,523;  232,958;25253,796;63,12165
 896,47;16043,908;  254,650;25154,488;63,41108
 897,03;15886,985;  230,419;25040,181;63,10647
 897,58;15895,677;  254,265;24929,488;63,38914
 898,14;15753,292;  245,419;24805,873;63,14164
 898,70;15746,908;  212,804;24601,719;63,69330
 899,25;15784,677;  238,496;24590,796;63,83865
 899,81;15679,985;  244,881;24447,027;63,77576
 900,37;15615,138;  219,496;24229,027;64,12305
 900,92;15669,523;  241,188;24254,796;64,24830
 901,48;15613,754;  219,573;24116,258;64,41973
 902,03;15560,523;  219,727;23871,719;64,86048
 902,59;15450,292;  232,727;23853,796;64,42369
 903,15;15476,292;  245,265;23809,027;64,63750
 903,70;15225,215;  239,881;23473,719;64,49789
 904,26;15267,446;  233,112;23408,181;64,87288
 904,82;15270,446;  236,342;23407,950;64,88157
 905,37;15186,754;  247,804;23234,873;64,98849
 905,93;15103,908;  229,881;23086,950;65,07408
 906,48;15064,754;  240,650;23093,181;64,86854
 907,04;15113,446;  248,112;23024,335;65,26690
 907,60;14991,600;  233,035;22848,104;65,25987
 908,15;15008,292;  222,958;22672,412;65,86055
 908,71;15007,754;  258,419;22698,258;65,72835
 909,26;14938,215;  224,881;22501,796;66,04745
 909,82;14931,600;  254,265;22493,412;65,99774
 910,37;14847,831;  277,881;22386,027;65,90308
 910,93;14774,985;  228,727;22198,796;66,20943
 911,48;14733,600;  214,573;22115,642;66,29369
 912,04;14705,292;  229,496;22051,950;66,33441
 912,60;14718,831;  243,496;21990,719;66,56176
 913,15;14651,138;  235,342;21874,950;66,61764
 913,71;14584,523;  227,035;21640,181;67,04988
 914,26;14507,985;  212,112;21610,412;66,80845
 914,82;14555,677;  236,342;21583,181;67,07942
 915,37;14567,600;  221,573;21462,027;67,54106
 915,93;14498,831;  272,342;21413,258;67,29363
 916,48;14396,985;  219,188;21190,873;67,60447
 917,04;14367,985;  242,496;21185,565;67,44708
 917,59;14347,523;  253,342;21147,950;67,45368
 918,15;14260,908;  201,419;20903,719;67,91269
 918,70;14161,062;  228,496;20838,796;67,60001
 919,26;14170,062;  228,496;20751,181;67,93246
 919,81;14060,908;  212,727;20559,488;68,06086
 920,37;13969,215;  231,727;20512,950;67,73501
 920,92;14006,754;  242,804;20421,796;68,20930
 921,48;13903,369;  209,881;20279,873;68,22867
 922,03;13943,908;  210,573;20264,719;68,48127
 922,59;13798,062;  227,804;20154,412;68,10119
 923,14;13756,754;  227,112;20027,642;68,32970
 923,69;13803,062;  247,112;19924,565;68,89077
 924,25;13798,985;  243,342;19947,796;68,79481
 924,80;13640,754;  220,650;19736,104;68,76655
 925,36;13645,831;  223,112;19705,642;68,89618
 925,91;13580,908;  228,804;19547,335;69,11552
 926,47;13622,523;  208,188;19500,181;69,53317
 927,02;13560,523;  268,881;19422,719;69,39414
 927,57;13454,754;  221,650;19268,335;69,47720
 928,13;13439,754;  219,035;19187,181;69,69959
 928,68;13387,600;  216,881;19171,873;69,48417
 929,24;13284,062;  193,573;18956,181;69,76903
 929,79;13234,523;  215,496;18839,027;69,90633
 930,34;13176,985;  223,035;18777,488;69,81585
 930,90;13132,446;  220,958;18733,258;69,74546
 931,45;13146,677;  237,188;18704,796;69,90342
 932,01;13075,985;  237,804;18604,258;69,90016
 932,56;13013,523;  242,342;18426,335;70,23310
 933,11;13099,138;  248,804;18460,488;70,56093
 933,67;12925,677;  212,727;18240,258;70,51964
 934,22;12935,600;  228,419;18208,873;70,67219
 934,77;12879,754;  257,958;18076,335;70,83584
 935,33;12799,677;  232,035;17948,719;70,93676
 935,88;12758,062;  235,342;17888,950;70,93575
 936,43;12729,369;  219,265;17853,873;70,94064
 936,99;12653,215;  232,650;17785,719;70,76008
 937,54;12603,215;  206,035;17585,104;71,33397
 938,09;12612,369;  227,035;17601,565;71,28443
 938,65;12512,985;  232,188;17499,642;71,12106
 939,20;12400,062;  204,112;17404,488;70,90513
 939,75;12368,600;  209,188;17267,488;71,28150
 940,31;12355,985;  207,342;17111,181;71,86913
 940,86;12356,754;  227,573;17159,027;71,63697
 941,41;12334,215;  297,958;17040,488;71,89031
 941,96;12256,754;  206,804;16943,719;71,99624
 942,52;12265,062;  221,419;16860,258;72,38271
 943,07;12180,369;  207,265;16771,258;72,28393
 943,62;12127,831;  213,727;16700,258;72,26568
 944,18;12115,754;  210,804;16651,719;72,41051
 944,73;12057,831;  218,342;16579,719;72,36242
 945,28;11967,677;  192,881;16361,565;72,82470
 945,83;11997,677;  220,650;16426,181;72,67289
 946,39;11970,369;  213,804;16281,488;73,16901
 946,94;11946,292;  240,881;16218,796;73,25994
 947,49;11879,523;  218,573;16132,027;73,27730
 948,04;11899,985;  257,881;16075,488;73,60218
 948,59;11882,985;  236,727;15972,488;74,01140
 949,15;11836,754;  206,650;15893,488;74,13925
 949,70;11805,446;  213,342;15800,950;74,36743
 950,25;11738,369;  237,035;15759,873;74,09299
 950,80;11623,446;  189,881;15703,181;73,70170
 951,36;11569,600;  199,958;15601,258;73,82261
 951,91;11571,292;  228,342;15542,873;74,06659
 952,46;11455,908;  202,265;15409,719;74,00083
 953,01;11499,446;  237,650;15412,104;74,21550
 953,56;11400,831;  197,573;15242,719;74,46427
 954,11;11477,215;  230,112;15221,642;75,02305
 954,67;11413,369;  206,650;15153,719;74,97603
 955,22;11313,369;  193,342;15033,719;74,93089
 955,77;11353,062;  241,573;15066,873;74,94950
 956,32;11297,754;  258,958;14908,719;75,35137
 956,87;11161,754;  213,419;14765,258;75,23678
 957,42;11187,831;  221,188;14795,642;75,24565
 957,98;11091,600;  214,342;14672,488;75,23273
 958,53;11102,985;  234,265;14663,181;75,32596
 959,08;11003,831;  201,881;14547,104;75,29998
 959,63;10979,831;  207,804;14474,181;75,50640
 960,18;11006,831;  232,419;14434,488;75,86508
 960,73;10988,677;  214,496;14359,258;76,17082
 961,28;10914,446;  201,804;14329,796;75,82565
 961,83;10872,523;  238,112;14196,565;76,18617
 962,39;10815,369;  209,112;14137,258;76,14982
 962,94;10800,985;  229,112;14077,104;76,34228
 963,49;10673,523;  227,419;13949,104;76,12844
 964,04;10712,138;  234,112;13925,335;76,53098
 964,59;10591,523;  191,804;13798,719;76,42966
 965,14;10569,677;  243,265;13801,488;76,16346
 965,69;10533,523;  222,496;13690,181;76,56124
 966,24;10542,831;  211,112;13623,488;77,03123
 966,79;10492,062;  231,496;13524,258;77,18912
 967,34;10351,600;  199,496;13412,104;76,83649
 967,89;10413,985;  212,419;13317,258;77,84579
 968,44;10340,215;  221,112;13282,565;77,47303
 968,99;10298,215;  225,804;13275,719;77,18373
 969,55;10252,446;  225,958;13148,950;77,58643
 970,10;10177,985;  231,573;13099,950;77,29344
 970,65;10109,985;  236,881;12999,642;77,35868
 971,20;10074,292;  210,265;12905,027;77,70155
 971,75; 9986,677;  192,419;12743,719;78,03381
 972,30;10003,062;  229,727;12757,796;78,01150
 972,85; 9889,138;  202,496;12631,719;77,93442
 973,40; 9865,369;  212,496;12491,796;78,61094
 973,95; 9791,985;  228,804;12465,796;78,14977
 974,50; 9756,369;  249,419;12374,950;78,40440
 975,05; 9693,754;  222,419;12307,950;78,36921
 975,60; 9696,369;  243,650;12237,181;78,81515
 976,15; 9609,831;  217,035;12218,873;78,26131
 976,70; 9628,677;  230,573;12122,873;79,02680
 977,25; 9559,215;  232,342;12038,104;79,00272
 977,80; 9435,831;  211,342;11892,104;78,97164
 978,35; 9347,138;  231,958;11735,873;79,23546
 978,89; 9312,523;  203,188;11688,642;79,31193
 979,44; 9301,446;  220,265;11636,719;79,54467
 979,99; 9187,292;  205,804;11508,873;79,46062
 980,54; 9237,677;  243,804;11431,104;80,39360
 981,09; 9183,523;  241,573;11321,642;80,70302
 981,64; 9052,600;  238,804;11206,642;80,36038
 982,19; 9012,985;  253,573;11203,412;79,99581
 982,74; 8901,446;  244,496;11080,719;79,88900
 983,29; 8787,677;  210,650;10954,258;79,83377
 983,84; 8738,985;  228,112;10888,565;79,83594
 984,39; 8767,215;  287,188;10869,104;80,13698
 984,94; 8639,446;  202,419;10718,565;80,22927
 985,49; 8617,908;  249,188;10677,642;80,24890
 986,03; 8559,062;  244,496;10605,258;80,25052
 986,58; 8440,446;  271,419;10455,104;80,21681
 987,13; 8359,138;  228,265;10394,642;79,97808
 987,68; 8319,138;  242,419;10296,027;80,33653
 988,23; 8332,215;  243,958;10255,027;80,79315
 988,78; 8168,446;  222,958;10075,873;80,64099
 989,33; 8156,677;  239,496; 9960,027;81,44803
 989,88; 8137,831;  259,265; 9965,873;81,16703
 990,42; 8023,985;  229,419; 9825,950;81,22274
 990,97; 7964,369;  223,804; 9701,181;81,67413
 991,52; 7937,292;  244,188; 9648,642;81,80277
 992,07; 7894,908;  258,650; 9567,796;82,02963
 992,62; 7792,523;  246,035; 9442,335;82,06005
 993,17; 7715,600;  242,265; 9361,873;81,94798
 993,71; 7682,215;  235,496; 9281,642;82,31925
 994,26; 7515,446;  215,342; 9151,412;81,69256
 994,81; 7510,985;  246,496; 9142,642;81,65883
 995,36; 7395,831;  227,112; 8950,719;82,17608
 995,91; 7341,677;  242,265; 8909,488;81,91103
 996,45; 7301,908;  236,419; 8820,719;82,30710
 997,00; 7174,215;  207,958; 8733,565;81,70981
 997,55; 7140,908;  240,035; 8674,950;81,81319
 998,10; 7081,369;  264,265; 8576,796;82,00997
 998,65; 7047,908;  231,342; 8531,488;82,12585
 999,19; 6911,215;  245,265; 8443,642;81,30817
 999,74; 6878,523;  267,804; 8278,027;82,52853
1000,29; 6821,908;  248,881; 8217,950;82,48174
1000,84; 6703,446;  230,573; 8101,873;82,23385
1001,38; 6658,446;  238,035; 8027,719;82,42197
1001,93; 6660,215;  255,342; 7980,873;82,90528
1002,48; 6514,754;  228,342; 7828,719;82,71184
1003,03; 6504,446;  239,727; 7789,488;82,97903
1003,57; 6421,754;  238,804; 7741,719;82,40730
1004,12; 6394,908;  260,496; 7623,565;83,31324
1004,67; 6320,600;  235,650; 7545,796;83,23979
1005,22; 6182,138;  217,035; 7401,719;83,02527
1005,76; 6099,908;  221,342; 7280,181;83,27950
1006,31; 6071,369;  241,188; 7239,719;83,30578
1006,86; 5957,215;  231,496; 7143,719;82,83470
1007,40; 5887,754;  208,419; 7036,181;83,18004
1007,95; 5874,677;  239,881; 6959,181;83,85987
1008,50; 5758,754;  235,496; 6838,719;83,64488
1009,04; 5735,292;  228,573; 6743,796;84,52081
1009,59; 5601,831;  241,958; 6638,719;83,79042
1010,14; 5510,985;  219,265; 6575,642;83,25056
1010,68; 5448,292;  240,804; 6468,258;83,62147
1011,23; 5372,754;  231,881; 6378,719;83,63443
1011,78; 5346,985;  241,265; 6307,719;84,16316
1012,32; 5280,754;  250,035; 6180,796;84,82417
1012,87; 5229,446;  255,496; 6195,642;83,73447
1013,42; 5107,908;  220,112; 6063,412;83,64787
1013,96; 5174,754;  251,265; 6070,027;84,61403
1014,51; 5081,754;  195,496; 5976,412;84,52394
1015,06; 5103,677;  198,958; 5961,950;85,10716
1015,60; 5179,523;  268,881; 6060,412;84,79006
1016,15; 5118,138;  228,188; 5950,104;85,46002
1016,69; 5128,600;  234,573; 5960,642;85,46922
1017,24; 5177,908;  209,035; 5988,950;85,96792
1017,79; 5262,985;  257,188; 6042,950;86,51923
1018,33; 5234,138;  224,650; 6075,642;85,61776
1018,88; 5257,369;  240,342; 6074,181;85,99873
1019,42; 5298,754;  226,958; 6056,950;86,99490
1019,97; 5260,677;  219,958; 6031,796;86,73192
1020,51; 5368,754;  253,265; 6133,027;87,00163
1021,06; 5375,215;  212,342; 6067,335;88,17899
1021,61; 5312,677;  205,650; 6056,642;87,28480
1022,15; 5359,600;  179,958; 5999,873;88,99858
1022,70; 5367,754;  222,265; 6018,027;88,78020
1023,24; 5351,062;  214,727; 5998,488;88,80613
1023,79; 5325,831;  230,804; 5954,565;89,01536
1024,33; 5303,831;  213,419; 5880,104;89,83051
1024,88; 5217,292;  233,188; 5819,104;89,22627
1025,42; 5130,138;  233,035; 5729,104;89,10193
1025,97; 5093,062;  216,188; 5628,796;90,10210
1026,51; 4976,600;  192,188; 5505,873;90,03943
1027,06; 4952,062;  218,112; 5490,258;89,79171
1027,60; 4874,600;  236,265; 5386,565;90,05950
1028,15; 4854,831;  224,265; 5324,796;90,78595
1028,69; 4710,908;  179,958; 5196,258;90,32454
1029,24; 4667,138;  221,573; 5164,258;89,94232
1029,78; 4600,677;  213,188; 5064,873;90,43227
1030,33; 4487,985;  191,035; 4969,642;89,92054
1030,87; 4453,292;  209,496; 4948,181;89,55642
1031,42; 4379,908;  197,496; 4831,258;90,25953
1031,96; 4374,369;  229,958; 4776,488;91,15547
1032,51; 4314,138;  210,804; 4713,642;91,12773
1033,05; 4297,677;  224,496; 4639,796;92,25151
1033,60; 4120,754;  189,419; 4530,565;90,55983
1034,14; 4119,446;  216,727; 4478,258;91,58022
1034,69; 4056,369;  211,958; 4464,258;90,40782
1035,23; 4010,369;  210,035; 4369,719;91,36112
1035,77; 3963,292;  216,265; 4330,412;91,07666
1036,32; 3859,446;  186,727; 4232,873;90,77080
1036,86; 3895,138;  217,419; 4206,642;92,19137
1037,41; 3800,754;  223,804; 4155,027;90,98822
1037,95; 3711,985;  192,188; 4067,027;90,83724
1038,50; 3692,215;  201,804; 4014,181;91,55473
1039,04; 3641,292;  226,650; 3986,565;90,81700
1039,58; 3565,062;  211,496; 3931,796;90,14234
1040,13; 3556,831;  217,342; 3890,181;90,92391
1040,67; 3545,446;  247,419; 3840,335;91,79250
1041,21; 3493,292;  244,419; 3791,412;91,59515
1041,76; 3394,138;  195,419; 3682,565;91,72885
1042,30; 3387,677;  213,727; 3667,104;91,90859
1042,85; 3306,908;  205,804; 3611,181;91,06492
1043,39; 3284,754;  210,958; 3527,796;92,67247
1043,93; 3242,831;  236,496; 3525,181;91,41450
1044,48; 3197,446;  216,881; 3458,412;91,94932
1045,02; 3131,754;  215,496; 3391,488;91,82194
1045,56; 3138,677;  236,881; 3390,719;92,00840
1046,11; 3080,985;  231,496; 3368,027;90,84841
1046,65; 3008,677;  228,265; 3293,565;90,70602
1047,19; 2996,369;  216,035; 3216,873;92,65193
1047,74; 2927,831;  192,804; 3173,104;91,77019
1048,28; 2908,446;  217,573; 3149,873;91,76664
1048,82; 2903,062;  246,342; 3112,488;92,69308
1049,37; 2847,600;  230,035; 3063,104;92,39327
1049,91; 2798,523;  211,188; 3040,335;91,45284
1050,45; 2774,600;  233,188; 2985,719;92,33000
1050,99; 2719,754;  229,650; 2956,181;91,32865
1051,54; 2700,754;  208,573; 2865,412;93,80250
1052,08; 2673,985;  247,265; 2883,258;92,06094
1052,62; 2669,677;  241,419; 2835,950;93,59140
1053,16; 2592,831;  208,342; 2762,873;93,34350
1053,71; 2565,292;  223,188; 2731,642;93,36842
1054,25; 2512,369;  237,419; 2712,796;91,90318
1054,79; 2500,985;  229,881; 2674,104;92,91721
1055,33; 2441,985;  201,265; 2603,258;93,28586
1055,88; 2465,446;  235,881; 2567,488;95,62352
1056,42; 2405,138;  243,881; 2579,873;92,51990
1056,96; 2392,062;  240,419; 2534,796;93,77894
1057,50; 2347,215;  227,958; 2505,258;93,06010
1058,05; 2304,446;  216,188; 2435,950;94,07577
1058,59; 2299,985;  249,881; 2436,719;93,74738
1059,13; 2213,062;  212,727; 2355,258;93,36317
1059,67; 2197,138;  228,112; 2348,950;92,84191
1060,21; 2165,754;  220,881; 2301,719;93,46584
1060,76; 2149,138;  239,727; 2287,027;93,26486
1061,30; 2122,831;  246,496; 2275,104;92,49371
1061,84; 2085,446;  233,496; 2224,027;93,03800
1062,38; 2039,369;  214,881; 2153,104;94,13202
1062,92; 2080,600;  263,496; 2191,719;94,23722
1063,46; 2005,754;  250,342; 2135,565;93,11426
1064,01; 1969,677;  221,958; 2084,335;93,84348
1064,55; 1951,908;  229,188; 2065,642;93,80684
1065,09; 1903,292;  200,573; 1974,412;95,99066
1065,63; 1949,138;  263,035; 2042,873;94,73353
1066,17; 1917,754;  255,112; 2012,258;94,62174
1066,71; 1865,523;  251,881; 1995,719;92,53393
1067,25; 1838,677;  235,650; 1933,488;94,41575
1067,80; 1835,215;  238,804; 1928,412;94,48415
1068,34; 1839,369;  260,958; 1935,027;94,28592
1068,88; 1779,754;  224,573; 1857,412;95,24401
1069,42; 1792,523;  257,804; 1866,565;95,39756
1069,96; 1740,215;  230,035; 1806,258;95,81009
1070,50; 1750,215;  262,265; 1830,412;94,88593
1071,04; 1686,908;  226,958; 1775,258;94,29374
1071,58; 1664,369;  228,265; 1753,027;94,18547
1072,12; 1657,446;  235,188; 1738,873;94,58484
1072,66; 1654,985;  221,188; 1709,181;96,35777
1073,21; 1637,831;  244,112; 1729,104;93,85363
1073,75; 1619,831;  234,958; 1680,950;95,77320
1074,29; 1579,446;  241,958; 1645,027;95,32591
1074,83; 1596,831;  245,650; 1676,181;94,45311
1075,37; 1567,215;  246,573; 1652,642;93,92442
1075,91; 1546,138;  249,881; 1618,181;94,73490
1076,45; 1516,369;  237,573; 1606,104;93,44300
1076,99; 1503,677;  247,035; 1562,719;95,51243
1077,53; 1471,446;  228,650; 1542,719;94,57616
1078,07; 1470,446;  238,727; 1527,412;95,57957
1078,61; 1447,754;  244,112; 1495,950;96,14997
1079,15; 1416,138;  237,265; 1484,488;94,51983
1079,69; 1414,215;  226,496; 1473,258;95,26435
1080,23; 1420,292;  253,265; 1479,181;95,19637
1080,77; 1432,292;  272,804; 1493,796;94,96280
1081,31; 1352,677;  226,881; 1429,104;93,64287
1081,85; 1361,292;  249,727; 1421,565;94,85654
1082,39; 1340,600;  228,188; 1389,335;95,80289
1082,93; 1340,677;  255,804; 1379,181;96,57249
1083,47; 1287,985;  233,342; 1353,104;94,18454
1084,01; 1319,523;  249,112; 1369,565;95,53375
1084,55; 1274,523;  234,419; 1334,258;94,56878
1085,09; 1272,369;  255,881; 1343,181;93,48740
1085,63; 1247,600;  241,650; 1310,412;94,12296
1086,17; 1237,523;  226,804; 1293,258;94,77384
1086,71; 1204,677;  226,958; 1264,642;94,22123
1087,24; 1233,831;  261,650; 1288,796;94,64873
1087,78; 1214,831;  244,573; 1253,488;96,16839
1088,32; 1167,831;  228,881; 1207,335;95,96263
1088,86; 1186,754;  261,881; 1225,181;96,01091
1089,40; 1155,600;  241,265; 1206,873;94,69007
1089,94; 1126,062;  213,650; 1198,565;92,63857
1090,48; 1142,062;  257,419; 1166,488;97,31297
1091,02; 1151,600;  250,958; 1173,335;97,64363
1091,56; 1110,831;  244,112; 1148,335;95,85237
1092,10; 1092,062;  218,881; 1127,412;96,10910
1092,63; 1109,369;  260,188; 1146,104;95,85348
1093,17; 1087,062;  251,188; 1109,258;97,41324
1093,71; 1057,446;  232,650; 1096,719;95,45487
1094,25; 1071,677;  258,496; 1117,104;94,70923
1094,79; 1040,908;  233,112; 1085,181;94,80405
1095,33; 1025,138;  235,958; 1056,488;96,17930
1095,87; 1017,831;  243,573; 1068,873;93,81530
1096,40;  984,600;  226,188; 1029,258;94,43912
1096,94; 1004,677;  235,342; 1011,335;99,14204
1097,48;  992,062;  247,804; 1025,796;95,66389
1098,02;  981,908;  228,573; 1004,258;97,11867
1098,56;  945,369;  208,958;  970,258;96,73079
1099,10;  946,831;  214,650;  962,873;97,85595
1099,63;  915,292;  216,881;  949,488;95,33227
1100,17;  940,215;  241,650;  972,565;95,57404
1100,71;  956,908;  265,496;  968,565;98,34189

