
Integration time [ms]: 120,000
Averaging Nr. [scans]: 13
Smoothing Nr. [pixels]: 0
Data measured with spectrometer [name]: 2009305U1
Wave   ;Sample   ;Dark     ;Reference;Reflectance
[nm]   ;[counts] ;[counts] ;[counts] ;[%]

 175,72;  187,707;  187,075;  188,459;45,70960
 176,32;  223,096;  222,460;  192,506; 0,00000
 176,92;  240,121;  242,152;  226,553; 0,00000
 177,52;  253,800;  243,998;  234,952; 0,00000
 178,12;  228,022;  223,921;  211,662; 0,00000
 178,72;  250,871;  259,152;  229,023; 0,00000
 179,32;  236,299;  256,998;  252,002; 0,00000
 179,92;  234,583;  249,229;  227,528; 0,00000
 180,52;  239,043;  231,921;  231,902; 0,00000
 181,12;  244,224;  244,921;  236,294; 0,00000
 181,73;  259,006;  260,383;  249,579; 0,00000
 182,33;  329,833;  322,152;  295,912; 0,00000
 182,93;  266,149;  257,075;  250,245; 0,00000
 183,53;  223,120;  233,768;  219,287; 0,00000
 184,13;  225,478;  224,998;  221,820; 0,00000
 184,73;  261,027;  258,922;  250,923; 0,00000
 185,33;  259,748;  228,540;  320,011;34,11778
 185,93;  279,323;  229,540;  330,249;49,43249
 186,53;  291,887;  246,463;  334,348;51,68526
 187,13;  316,686;  261,078;  379,400;46,99690
 187,73;  271,372;  234,310;  332,548;37,72652
 188,33;  273,926;  242,156;  338,588;32,94545
 188,93;  279,394;  242,310;  342,227;37,11475
 189,53;  282,008;  243,772;  349,226;36,25838
 190,13;  301,736;  282,235;  365,959;23,29214
 190,73;  254,045;  220,388;  314,071;35,92628
 191,34;  295,174;  259,080;  352,758;38,53012
 191,94;  274,611;  239,233;  328,172;39,77804
 192,54;  296,849;  245,232;  361,237;44,49561
 193,14;  292,863;  250,771;  361,822;37,90323
 193,74;  290,763;  251,617;  350,562;39,56318
 194,34;  285,042;  242,309;  363,161;35,35980
 194,94;  253,058;  207,540;  311,346;43,84890
 195,54;  234,645;  196,155;  296,355;38,41297
 196,14;  262,165;  208,693;  326,723;45,30336
 196,74;  257,081;  213,617;  314,478;43,09320
 197,34;  246,769;  193,078;  327,226;40,02403
 197,94;  267,855;  223,617;  334,037;40,06333
 198,54;  277,521;  225,309;  350,758;41,62043
 199,14;  258,730;  208,770;  358,849;33,28936
 199,74;  251,074;  193,924;  363,403;33,72115
 200,34;  256,556;  205,693;  343,814;36,82496
 200,94;  288,426;  224,386;  391,639;38,28945
 201,54;  270,149;  200,232;  402,366;34,58929
 202,14;  299,835;  232,847;  429,378;34,08534
 202,74;  288,379;  205,078;  440,939;35,31803
 203,34;  275,227;  198,000;  450,453;30,59056
 203,94;  254,707;  165,539;  446,914;31,69008
 204,54;  327,027;  244,617;  533,985;28,47926
 205,14;  303,087;  199,078;  539,269;30,57376
 205,74;  355,386;  226,616;  641,885;31,00887
 206,34;  330,925;  198,539;  636,398;30,23481
 206,94;  344,099;  207,385;  697,434;27,89809
 207,54;  337,153;  177,308;  734,704;28,67711
 208,14;  378,992;  204,847;  828,688;27,91492
 208,74;  389,854;  203,078;  873,882;27,84358
 209,34;  421,664;  196,616;  960,363;29,46627
 209,94;  461,487;  211,693; 1061,983;29,37747
 210,54;  476,922;  200,077; 1170,618;28,52480
 211,14;  500,031;  215,309; 1256,261;27,35206
 211,73;  535,900;  210,078; 1354,342;28,47438
 212,33;  579,852;  210,232; 1447,931;29,86344
 212,93;  588,397;  191,770; 1534,545;29,53788
 213,53;  591,736;  182,616; 1571,127;29,46461
 214,13;  645,824;  179,693; 1637,377;31,97754
 214,73;  651,989;  176,693; 1688,147;31,44627
 215,33;  641,410;  161,539; 1709,522;30,99975
 215,93;  704,950;  195,385; 1832,540;31,12504
 216,53;  691,682;  162,924; 1917,011;30,14433
 217,13;  829,391;  207,077; 2118,437;32,55871
 217,73;  873,407;  192,539; 2304,570;32,23758
 218,33;  914,096;  144,231; 2496,165;32,73326
 218,93; 1049,341;  180,692; 2753,964;33,75659
 219,53; 1138,978;  182,308; 3057,488;33,27340
 220,13; 1219,891;  157,462; 3339,966;33,38343
 220,73; 1358,020;  178,308; 3689,397;33,59960
 221,32; 1477,238;  183,770; 4050,267;33,45324
 221,92; 1612,447;  185,154; 4442,033;33,52909
 222,52; 1736,486;  168,308; 4827,495;33,65776
 223,12; 1876,286;  181,385; 5229,616;33,57415
 223,72; 2005,937;  184,924; 5562,170;33,86517
 224,32; 2115,332;  196,924; 5973,145;33,21217
 224,92; 2215,122;  185,231; 6253,137;33,45290
 225,52; 2331,674;  195,616; 6543,064;33,65223
 226,12; 2393,481;  183,924; 6821,149;33,29038
 226,72; 2457,212;  161,539; 7142,055;32,88687
 227,31; 2526,463;  147,847; 7465,278;32,50617
 227,91; 2628,543;  173,001; 7770,102;32,32210
 228,51; 2730,451;  171,924; 8122,020;32,18234
 229,11; 2825,902;  182,847; 8500,207;31,77757
 229,71; 2901,690;  165,847; 8763,369;31,82129
 230,31; 2979,650;  161,308; 9066,307;31,64898
 230,91; 2982,157;  149,232; 9328,972;30,86062
 231,51; 3078,735;  160,154; 9661,178;30,71859
 232,10; 3141,614;  167,693; 9909,173;30,52843
 232,70; 3152,427;  174,001;10116,699;29,95591
 233,30; 3230,996;  192,693;10333,496;29,96117
 233,90; 3193,709;  166,308;10412,258;29,54730
 234,50; 3172,245;  165,693;10439,751;29,26353
 235,10; 3153,968;  159,770;10513,368;28,91940
 235,70; 3100,941;  187,616;10501,968;28,24535
 236,29; 3037,138;  186,155;10427,118;27,83902
 236,89; 2963,964;  159,232;10362,143;27,48953
 237,49; 2893,838;  191,001;10225,261;26,93609
 238,09; 2779,848;  178,078; 9939,937;26,65241
 238,69; 2701,739;  201,386; 9752,122;26,17969
 239,29; 2591,669;  171,539; 9446,017;26,09451
 239,89; 2452,559;  182,847; 9107,227;25,43271
 240,48; 2355,330;  163,539; 8762,468;25,48912
 241,08; 2236,274;  173,770; 8411,272;25,03798
 241,68; 2175,410;  194,462; 8142,624;24,92334
 242,28; 2044,609;  164,308; 7837,571;24,50459
 242,88; 1992,860;  206,923; 7553,776;24,30887
 243,48; 1951,571;  203,616; 7309,707;24,59798
 244,07; 1879,179;  183,385; 7133,171;24,40066
 244,67; 1891,448;  192,078; 6993,872;24,98415
 245,27; 1886,285;  191,232; 6864,650;25,40007
 245,87; 1900,296;  198,077; 6758,702;25,94599
 246,47; 1928,033;  177,232; 6778,657;26,52157
 247,06; 1932,564;  176,539; 6809,359;26,47478
 247,66; 2008,627;  170,693; 6859,527;27,47765
 248,26; 2122,800;  208,847; 7030,689;28,05625
 248,86; 2235,951;  189,539; 7173,764;29,30049
 249,46; 2311,161;  148,693; 7392,471;29,85276
 250,05; 2506,951;  188,462; 7742,284;30,69292
 250,65; 2674,105;  161,155; 8058,037;31,82206
 251,25; 2881,384;  168,924; 8533,670;32,42729
 251,85; 3179,705;  179,309; 9087,178;33,68254
 252,44; 3437,720;  146,924; 9637,951;34,67271
 253,04; 3824,559;  190,385;10310,859;35,90912
 253,64; 4123,898;  149,001;10994,460;36,65033
 254,24; 4579,607;  185,231;11813,885;37,78920
 254,84; 4993,776;  172,308;12648,163;38,64639
 255,43; 5460,513;  176,232;13613,715;39,32493
 256,03; 5945,544;  180,616;14370,735;40,62635
 256,63; 6508,908;  181,386;15429,520;41,49703
 257,23; 6965,085;  170,540;16196,361;42,39749
 257,82; 7466,042;  179,078;17059,810;43,16734
 258,42; 7904,988;  150,155;17736,429;44,09594
 259,02; 8462,110;  182,770;18626,956;44,88862
 259,62; 8819,911;  173,540;19238,626;45,35186
 260,21; 9187,595;  181,232;19667,071;46,22004
 260,81; 9586,102;  179,001;20110,119;47,19806
 261,41; 9868,150;  162,770;20588,282;47,51597
 262,01;10199,140;  205,694;20985,359;48,09243
 262,60;10480,393;  161,924;21219,977;49,00011
 263,20;10688,913;  164,155;21594,131;49,11232
 263,80;10895,691;  188,309;21742,764;49,67596
 264,40;11041,704;  160,001;21874,356;50,11294
 264,99;11183,968;  192,309;22059,488;50,26555
 265,59;11349,769;  174,771;22162,901;50,82287
 266,19;11491,958;  163,078;22378,701;50,99510
 266,78;11590,171;  199,309;22401,840;51,30434
 267,38;11583,999;  181,925;22464,166;51,17113
 267,98;11679,089;  174,925;22480,331;51,57568
 268,58;11682,866;  178,694;22545,082;51,43509
 269,17;11635,464;  177,002;22548,340;51,21939
 269,77;11625,795;  184,386;22218,318;51,92632
 270,37;11594,365;  149,617;22129,278;52,06972
 270,96;11459,167;  211,001;22046,076;51,51421
 271,56;11334,236;  173,309;21848,667;51,49132
 272,16;11216,378;  174,309;21674,511;51,35798
 272,75;11132,785;  179,155;21639,813;51,04051
 273,35;11102,457;  174,540;21632,931;50,92608
 273,95;11013,129;  187,540;21506,905;50,77820
 274,54;10958,117;  154,693;21570,843;50,44522
 275,14;11121,731;  197,770;21997,303;50,11099
 275,74;11075,693;  147,770;22046,791;49,90142
 276,33;11248,557;  191,309;22486,499;49,59477
 276,93;11372,117;  178,847;22777,492;49,53071
 277,53;11539,636;  180,770;23264,902;49,20638
 278,12;11714,949;  159,309;23713,001;49,06084
 278,72;11966,038;  203,462;24239,738;48,93677
 279,32;12220,979;  171,770;24752,421;49,01908
 279,91;12500,287;  151,847;25397,002;48,91410
 280,51;12690,602;  167,539;25968,428;48,53733
 281,11;13018,154;  175,770;26603,457;48,59443
 281,70;13165,626;  148,078;26971,705;48,53016
 282,30;13455,082;  163,001;27555,128;48,52519
 282,90;13639,459;  164,770;27877,232;48,62321
 283,49;13893,724;  193,155;28390,562;48,58805
 284,09;14114,651;  195,309;28765,822;48,71926
 284,69;14292,244;  200,539;28991,741;48,94448
 285,28;14575,923;  189,078;29418,038;49,22120
 285,88;14663,062;  229,770;29544,230;49,23608
 286,47;14731,885;  187,770;29594,987;49,45764
 287,07;14826,405;  210,847;29572,252;49,77813
 287,67;15045,109;  193,924;29813,630;50,13954
 288,26;15088,467;  179,309;29639,615;50,60761
 288,86;15227,736;  173,078;29693,179;50,99799
 289,46;15458,205;  201,001;29782,109;51,57753
 290,05;15619,656;  168,385;29886,424;51,99290
 290,65;15852,511;  178,309;30124,697;52,34088
 291,24;16103,800;  190,847;30247,304;52,94354
 291,84;16249,908;  191,770;30351,905;53,24292
 292,44;16512,099;  192,001;30411,843;54,00458
 293,03;16717,618;  242,155;30532,416;54,39195
 293,63;16907,018;  172,616;30676,917;54,85916
 294,22;17025,797;  198,232;30784,268;55,01715
 294,82;17022,363;  186,001;30631,574;55,29987
 295,41;16847,780;  174,309;30405,474;55,15325
 296,01;16903,150;  220,617;30330,710;55,40512
 296,61;16676,120;  197,462;30135,709;55,04216
 297,20;16486,439;  186,232;29716,181;55,19890
 297,80;16331,705;  190,155;29679,185;54,73747
 298,39;16021,167;  167,847;29242,947;54,52542
 298,99;15820,916;  200,386;29073,160;54,10125
 299,58;15660,335;  201,308;28989,549;53,69910
 300,18;15450,987;  208,770;28857,804;53,20325
 300,78;15131,415;  185,462;28550,031;52,69233
 301,37;14963,242;  192,232;28489,365;52,19967
 301,97;14870,995;  198,462;28456,025;51,92427
 302,56;14662,421;  179,770;28378,369;51,35947
 303,16;14469,393;  164,078;28297,293;50,84849
 303,75;14337,007;  181,616;28462,454;50,05294
 304,35;14294,068;  165,770;28654,021;49,59342
 304,94;14080,269;  179,462;28587,320;48,93296
 305,54;13903,546;  186,539;28536,882;48,38392
 306,13;13734,707;  157,385;28414,785;48,04873
 306,73;13495,091;  168,308;28197,486;47,54611
 307,33;13303,289;  193,539;28209,901;46,79319
 307,92;13137,213;  189,155;28305,039;46,05247
 308,52;13096,678;  171,617;28673,298;45,34842
 309,11;13227,447;  176,001;29131,119;45,07475
 309,71;13083,629;  156,925;29352,016;44,27698
 310,30;13055,113;  171,232;29495,275;43,93624
 310,90;13050,343;  189,462;29797,736;43,43678
 311,49;12971,341;  187,232;29934,811;42,97529
 312,09;12809,966;  153,770;30172,965;42,16035
 312,68;12850,120;  220,462;30429,051;41,80817
 313,28;12708,597;  162,078;30530,808;41,31394
 313,87;12554,272;  143,155;30589,707;40,76362
 314,47;12513,314;  172,078;30835,915;40,24687
 315,06;12385,123;  149,924;30935,019;39,74391
 315,66;12291,966;  153,924;31114,349;39,20502
 316,25;12036,318;  137,770;30991,372;38,56454
 316,85;11919,799;  140,770;31008,560;38,15961
 317,44;11842,498;  162,078;31159,464;37,68195
 318,04;11648,747;  148,078;31143,701;37,10417
 318,63;11470,735;  155,924;31146,682;36,51028
 319,22;11419,216;  174,616;31318,948;36,10480
 319,82;11217,062;  174,924;31304,631;35,47138
 320,41;11000,393;  175,078;31212,327;34,87846
 321,01;10976,697;  178,462;31347,255;34,64438
 321,60;10828,105;  174,616;31342,388;34,18111
 322,20;10641,872;  160,539;31280,103;33,68085
 322,79;10542,305;  199,847;31382,292;33,16757
 323,39;10420,078;  166,616;31403,500;32,82486
 323,98;10234,238;  155,232;31341,959;32,31826
 324,58;10164,244;  164,232;31195,110;32,22601
 325,17;10001,159;  176,463;31072,248;31,79947
 325,76; 9870,795;  196,001;30830,761;31,58110
 326,36; 9677,612;  155,232;30506,975;31,37342
 326,95; 9549,359;  189,616;30215,690;31,17205
 327,55; 9332,431;  162,463;29913,532;30,82232
 328,14; 9095,763;  168,539;29532,810;30,40165
 328,74; 8978,154;  189,309;29144,585;30,35317
 329,33; 8800,982;  183,616;28775,568;30,13913
 329,92; 8562,568;  165,694;28312,568;29,83235
 330,52; 8366,815;  183,462;27684,693;29,75631
 331,11; 8160,903;  172,847;27316,815;29,42847
 331,71; 7988,133;  171,847;26723,233;29,43834
 332,30; 7819,423;  184,770;26328,397;29,20273
 332,89; 7697,210;  224,155;25922,335;29,08009
 333,49; 7495,387;  183,232;25363,809;29,03887
 334,08; 7336,864;  171,463;25043,413;28,80917
 334,68; 7239,103;  171,309;24616,386;28,91296
 335,27; 7111,799;  190,616;24417,321;28,56841
 335,86; 7020,441;  213,924;24067,276;28,53485
 336,46; 6960,304;  193,770;23925,077;28,51311
 337,05; 6820,692;  170,309;23784,961;28,16211
 337,65; 6807,746;  156,770;23626,505;28,33852
 338,24; 6816,769;  223,462;23718,294;28,06280
 338,83; 6828,861;  197,924;23585,085;28,35290
 339,43; 6755,054;  168,309;23533,975;28,18985
 340,02; 6826,142;  176,770;23450,531;28,57025
 340,61; 6799,172;  172,385;23437,823;28,48339
 341,21; 6856,231;  206,924;23488,124;28,56084
 341,80; 6886,423;  177,155;23410,406;28,87787
 342,40; 6876,445;  176,308;23537,100;28,68112
 342,99; 6945,748;  180,155;23603,105;28,88446
 343,58; 7026,905;  172,693;23759,107;29,06000
 344,18; 7087,194;  190,078;23859,655;29,13916
 344,77; 7169,211;  167,924;24178,636;29,15901
 345,36; 7348,667;  164,155;24414,383;29,62658
 345,96; 7437,423;  188,616;24733,960;29,53231
 346,55; 7561,737;  155,154;24919,565;29,90817
 347,14; 7696,992;  158,308;25212,150;30,08993
 347,74; 7879,144;  140,923;25687,311;30,29086
 348,33; 8130,475;  174,693;26237,118;30,52587
 348,92; 8341,454;  189,462;26796,689;30,63826
 349,52; 8522,039;  155,000;27234,149;30,89846
 350,11; 8661,460;  171,924;27284,088;31,31264
 350,70; 8719,779;  166,309;27335,696;31,48202
 351,29; 8748,038;  152,540;27158,678;31,82794
 351,89; 8860,265;  181,386;27113,231;32,22534
 352,48; 8893,695;  152,847;27210,647;32,30436
 353,07; 8971,276;  176,308;27085,958;32,68332
 353,67; 9050,618;  191,154;27112,971;32,90812
 354,26; 9035,789;  180,385;26877,576;33,16980
 354,85; 9110,576;  168,616;26743,840;33,64773
 355,45; 9122,923;  161,386;26523,389;33,99415
 356,04; 9176,489;  180,539;26489,122;34,19397
 356,63; 9243,787;  200,386;26331,909;34,60725
 357,22; 9275,281;  180,001;26172,459;34,99200
 357,82; 9322,655;  177,848;26074,398;35,31284
 358,41; 9377,262;  187,847;25919,270;35,71281
 359,00; 9422,390;  167,232;25748,633;36,17925
 359,60; 9513,279;  186,232;25672,483;36,59639
 360,19; 9562,737;  180,077;25558,761;36,97063
 360,78; 9602,613;  182,847;25469,267;37,25227
 361,37; 9632,495;  171,616;25195,281;37,80773
 361,97; 9744,231;  179,386;25071,610;38,42503
 362,56; 9711,934;  155,078;24792,646;38,78977
 363,15; 9767,128;  212,693;24556,733;39,24753
 363,74; 9712,839;  175,694;24311,664;39,51424
 364,34; 9723,942;  192,078;23974,576;40,07932
 364,93; 9629,434;  166,617;23631,937;40,32682
 365,52; 9616,903;  145,232;23157,584;41,15907
 366,11; 9619,034;  177,078;23012,598;41,34767
 366,71; 9564,524;  153,386;22691,255;41,75700
 367,30; 9531,457;  165,616;22351,606;42,21511
 367,89; 9585,051;  213,462;22201,245;42,62180
 368,48; 9562,219;  194,155;21895,463;43,16820
 369,07; 9497,933;  182,385;21496,927;43,70513
 369,67; 9464,803;  197,694;21234,299;44,05231
 370,26; 9535,236;  165,309;21015,110;44,94013
 370,85; 9479,259;  178,770;20829,080;45,03801
 371,44; 9512,446;  174,770;20624,204;45,66227
 372,03; 9486,662;  158,847;20387,002;46,11303
 372,63; 9449,192;  150,770;20125,440;46,55107
 373,22; 9457,546;  171,693;19894,386;47,08207
 373,81; 9425,308;  167,078;19640,653;47,54253
 374,40; 9422,561;  164,693;19467,391;47,96152
 374,99; 9400,987;  159,539;19249,830;48,40915
 375,59; 9386,425;  168,924;18966,150;49,03650
 376,18; 9451,087;  189,770;18915,286;49,45827
 376,77; 9439,631;  183,924;18659,710;50,09642
 377,36; 9553,867;  196,463;18690,415;50,59710
 377,95; 9493,749;  180,616;18413,439;51,07894
 378,55; 9501,774;  162,385;18301,332;51,48804
 379,14; 9530,762;  185,693;18214,065;51,83534
 379,73; 9559,436;  185,924;18181,161;52,08885
 380,32; 9709,797;  185,386;18198,883;52,87375
 380,91; 9705,452;  168,001;18080,312;53,24523
 381,50; 9782,354;  188,386;17985,353;53,90789
 382,10; 9809,874;  164,539;17923,191;54,31344
 382,69; 9890,062;  148,924;17867,631;54,97657
 383,28; 9960,477;  187,847;17789,727;55,52038
 383,87; 9997,190;  172,770;17665,258;56,16365
 384,46;10031,832;  157,155;17646,239;56,46194
 385,05;10122,172;  196,232;17675,849;56,78580
 385,64;10210,188;  180,693;17646,906;57,42226
 386,24;10263,145;  142,848;17650,748;57,80417
 386,83;10370,455;  186,309;17699,870;58,15006
 387,42;10524,106;  185,540;17807,320;58,66925
 388,01;10673,471;  179,309;18002,987;58,87765
 388,60;10844,214;  177,463;18166,502;59,29584
 389,19;11077,290;  165,771;18353,236;59,99472
 389,78;11307,997;  176,310;18572,446;60,51101
 390,37;11623,984;  223,309;19029,323;60,62249
 390,96;11786,024;  184,924;19142,914;61,19372
 391,56;11958,236;  183,617;19240,471;61,78679
 392,15;12149,556;  168,233;19490,934;62,00646
 392,74;12309,770;  142,618;19614,031;62,48726
 393,33;12572,721;  168,464;19934,662;62,75489
 393,92;12854,404;  180,849;20358,535;62,80976
 394,51;13032,369;  162,694;20532,521;63,18009
 395,10;13267,259;  199,695;20657,167;63,87673
 395,69;13454,710;  188,541;20688,568;64,71293
 396,28;13539,178;  186,619;20821,138;64,70981
 396,87;13704,381;  193,081;20996,328;64,94804
 397,46;13868,257;  191,696;20987,089;65,76726
 398,06;14071,835;  198,466;21204,295;66,04533
 398,65;14103,652;  191,544;21302,211;65,90085
 399,24;14282,707;  188,852;21330,037;66,66540
 399,83;14382,505;  169,853;21377,038;67,01810
 400,42;14585,247;  205,085;21529,288;67,43587
 401,01;14711,991;  182,548;21658,712;67,65381
 401,60;14740,727;  187,704;21686,470;67,69236
 402,19;14814,164;  208,936;21587,595;68,31686
 402,78;14853,109;  209,708;21666,855;68,24486
 403,37;14894,614;  188,710;21513,101;68,96283
 403,96;14851,490;  189,866;21383,933;69,17796
 404,55;14879,815;  196,638;21282,772;69,63428
 405,14;14806,443;  185,795;21192,041;69,60143
 405,73;14812,171;  199,490;21031,306;70,14598
 406,32;14887,835;  199,108;20984,933;70,66704
 406,91;14763,849;  197,803;20662,032;71,17808
 407,50;14690,996;  200,958;20552,044;71,20032
 408,09;14536,309;  174,266;20243,622;71,56205
 408,68;14570,018;  188,575;20191,082;71,89820
 409,27;14550,752;  183,728;20060,349;72,28102
 409,86;14499,283;  203,187;19937,494;72,44285
 410,45;14503,517;  219,724;19877,180;72,66349
 411,04;14528,141;  227,953;19756,870;73,22571
 411,63;14424,123;  212,567;19535,596;73,54725
 412,22;14280,457;  208,026;19281,942;73,77840
 412,81;14159,817;  215,641;19137,775;73,69241
 413,40;13972,363;  231,794;18788,832;74,04505
 413,99;13857,846;  261,640;18552,962;74,33145
 414,58;13564,484;  201,794;18250,906;74,03517
 415,17;13472,699;  204,872;18050,020;74,34977
 415,76;13389,483;  202,334;17923,179;74,41603
 416,35;13336,805;  187,410;17743,747;74,89828
 416,94;13358,595;  222,718;17851,834;74,51239
 417,53;13651,783;  196,410;18020,796;75,48856
 418,12;13733,806;  201,795;18102,893;75,59319
 418,71;13947,604;  215,102;18433,346;75,37775
 419,30;14122,213;  206,564;18501,691;76,06205
 419,89;14285,128;  188,410;18659,205;76,31896
 420,48;14539,437;  223,255;18894,403;76,67543
 421,07;14581,883;  210,794;18965,098;76,62822
 421,66;14635,956;  188,409;18944,137;77,03005
 422,25;14650,998;  206,254;18915,524;77,20635
 422,84;14741,613;  222,100;18909,857;77,69532
 423,43;14476,186;  201,254;18581,358;77,66513
 424,02;14408,939;  231,716;18379,745;78,11991
 424,60;14067,470;  195,638;17906,969;78,32180
 425,19;13931,941;  208,561;17758,250;78,19728
 425,78;13939,576;  228,561;17800,046;78,02992
 426,37;13876,081;  229,330;17603,161;78,54774
 426,96;13778,578;  208,023;17523,253;78,37352
 427,55;13699,120;  202,407;17382,794;78,55884
 428,14;13575,143;  197,022;17201,233;78,67534
 428,73;13534,982;  210,945;16981,372;79,44960
 429,32;13471,955;  222,023;16984,784;79,04385
 429,91;13535,300;  229,176;16950,886;79,57395
 430,50;13474,789;  224,483;16817,021;79,85702
 431,08;13355,914;  228,329;16731,149;79,54753
 431,67;13290,247;  262,175;16692,282;79,29390
 432,26;13196,711;  255,329;16476,421;79,78120
 432,85;12978,295;  275,790;16097,496;80,28531
 433,44;12723,677;  277,790;15809,732;80,13091
 434,03;12493,955;  280,020;15524,919;80,11817
 434,62;12210,561;  241,944;15148,057;80,29335
 435,21;12074,665;  271,560;15054,200;79,84436
 435,79;11985,442;  266,636;14848,549;80,36536
 436,38;11898,754;  253,251;14772,211;80,20894
 436,97;11828,105;  244,943;14742,770;79,89585
 437,56;11737,370;  257,481;14489,305;80,66352
 438,15;11659,571;  239,558;14487,696;80,15091
 438,74;11719,929;  261,250;14546,844;80,21143
 439,33;11744,666;  239,327;14518,148;80,57625
 439,91;11755,734;  206,019;14570,380;80,40535
 440,50;11842,780;  260,404;14542,370;81,09791
 441,09;11933,425;  258,403;14656,883;81,08510
 441,68;11973,632;  245,172;14705,853;81,10586
 442,27;11911,204;  220,634;14773,763;80,33028
 442,86;11916,520;  205,633;14659,282;81,02374
 443,44;12001,623;  222,249;14721,220;81,24283
 444,03;12043,033;  269,787;14732,781;81,40255
 444,62;11926,081;  225,864;14585,354;81,48073
 445,21;11842,235;  233,249;14465,978;81,56543
 445,80;11784,339;  267,248;14441,635;81,25284
 446,39;11565,014;  271,864;14150,884;81,36850
 446,97;11421,720;  207,094;13972,092;81,47205
 447,56;11255,612;  215,632;13803,013;81,25171
 448,15;11197,348;  220,325;13657,805;81,68960
 448,74;11015,782;  244,863;13426,258;81,71304
 449,33;10862,658;  219,555;13344,934;81,08797
 449,91;10738,880;  224,247;13131,960;81,46008
 450,50;10552,434;  220,324;12895,760;81,51285
 451,09;10487,567;  239,478;12832,109;81,38163
 451,68;10486,026;  234,093;12787,013;81,66971
 452,26;10388,017;  247,785;12717,253;81,32049
 452,85;10279,630;  224,401;12611,106;81,17760
 453,44;10296,152;  242,323;12614,261;81,26317
 454,03;10280,930;  226,246;12532,996;81,70056
 454,61;10261,703;  221,092;12588,161;81,18828
 455,20;10389,905;  239,553;12704,563;81,43076
 455,79;10326,004;  247,477;12725,471;80,77041
 456,38;10406,579;  244,245;12806,392;80,89647
 456,97;10492,146;  226,476;12850,828;81,31641
 457,55;10487,173;  227,091;12827,425;81,42707
 458,14;10404,282;  256,784;12830,692;80,70281
 458,73;10375,955;  240,630;12766,786;80,91329
 459,31;10430,508;  266,399;12818,970;80,97233
 459,90;10464,334;  267,322;12832,687;81,15174
 460,49;10578,983;  300,322;12948,939;81,26312
 461,08;10588,756;  236,860;13048,019;80,80374
 461,66;10606,687;  234,322;13130,625;80,42898
 462,25;10686,799;  254,475;13210,647;80,52011
 462,84;10707,000;  272,014;13282,304;80,20563
 463,43;10643,385;  208,321;13219,031;80,20365
 464,01;10710,703;  239,859;13134,724;81,20166
 464,60;10694,765;  279,013;13092,651;81,28646
 465,19;10447,556;  218,167;12903,764;80,63782
 465,77;10416,702;  237,167;12835,774;80,79890
 466,36;10378,798;  248,321;12722,689;81,21035
 466,95;10117,511;  236,244;12466,638;80,79271
 467,53; 9929,809;  237,705;12208,724;80,96307
 468,12; 9713,048;  260,089;12042,038;80,23255
 468,71; 9553,626;  240,705;11800,133;80,56558
 469,29; 9363,047;  222,782;11587,534;80,42644
 469,88; 9168,447;  225,320;11386,196;80,12925
 470,47; 9266,136;  289,089;11494,201;80,11563
 471,06; 9249,677;  241,243;11430,588;80,50903
 471,64; 9316,041;  249,781;11545,297;80,26424
 472,23; 9307,811;  223,704;11595,511;79,88271
 472,81; 9343,684;  226,012;11680,731;79,59752
 473,40; 9451,960;  225,781;11837,771;79,45390
 473,99; 9550,632;  303,473;11971,394;79,25284
 474,57; 9584,342;  242,319;12141,692;78,50853
 475,16; 9747,330;  253,781;12187,502;79,55230
 475,75; 9822,985;  268,626;12283,750;79,51943
 476,33; 9825,420;  268,088;12373,650;78,94993
 476,92; 9894,437;  271,165;12474,981;78,85461
 477,51; 9946,620;  258,626;12487,230;79,22404
 478,09; 9913,349;  256,703;12523,321;78,72296
 478,68; 9870,433;  261,242;12427,285;78,98370
 479,27; 9910,190;  275,088;12449,480;79,14237
 479,85; 9823,843;  259,857;12471,787;78,31675
 480,44; 9926,197;  239,857;12655,767;78,01554
 481,02;10876,627;  250,472;14348,509;75,37330
 481,61;12252,291;  270,703;15935,860;76,48559
 482,20;13057,383;  265,780;16932,719;76,74836
 482,78;13657,197;  289,934;17581,964;77,30303
 483,37;13984,390;  265,856;17999,930;77,35692
 483,95;14167,574;  302,702;18217,778;77,39221
 484,54;14303,125;  296,703;18283,114;77,87225
 485,13;14178,999;  262,856;18159,890;77,75670
 485,71;13988,915;  255,164;17960,696;77,56757
 486,30;13877,105;  278,702;17723,941;77,94907
 486,88;13553,353;  315,087;17320,461;77,84754
 487,47;13047,986;  301,471;16635,289;78,03757
 488,05;12428,906;  278,240;15825,696;78,15212
 488,64;11481,398;  274,778;14497,680;78,79278
 489,23;10197,119;  290,932;12624,971;80,31584
 489,81; 8731,886;  283,779;11145,114;77,78148
 490,40; 8303,691;  257,163;10686,009;77,15645
 490,98; 8137,895;  233,932;10477,883;77,15737
 491,57; 8044,278;  272,163;10429,514;76,51715
 492,15; 8000,608;  249,778;10349,448;76,74340
 492,74; 7900,099;  246,779;10268,713;76,36569
 493,32; 7840,270;  271,778;10178,985;76,39380
 493,91; 7763,969;  254,701;10106,632;76,22128
 494,50; 7762,188;  255,855;10051,382;76,63022
 495,08; 7655,640;  241,701;10034,792;75,70581
 495,67; 7589,572;  259,394;10035,886;74,97759
 496,25; 7561,399;  218,163; 9886,989;75,94755
 496,84; 7505,974;  221,624; 9887,569;75,36098
 497,42; 7458,238;  216,701; 9841,546;75,23796
 498,01; 7398,787;  253,394; 9813,590;74,74108
 498,59; 7310,866;  207,470; 9767,215;74,30528
 499,18; 7289,169;  223,470; 9682,160;74,70061
 499,76; 7256,771;  243,855; 9594,430;74,99984
 500,35; 7101,401;  233,008; 9457,691;74,45668
 500,93; 7042,773;  230,547; 9392,774;74,35121
 501,52; 7007,263;  227,932; 9383,466;74,04627
 502,10; 6917,134;  248,931; 9321,120;73,50159
 502,69; 6835,261;  225,469; 9212,643;73,54695
 503,27; 6724,037;  208,778; 9016,461;73,97245
 503,86; 6624,587;  226,470; 8969,753;73,17751
 504,44; 6515,833;  211,700; 8841,801;73,04820
 505,03; 6357,938;  195,469; 8589,612;73,41391
 505,61; 6274,859;  220,316; 8544,576;72,73371
 506,19; 6155,607;  236,316; 8418,156;72,34671
 506,78; 5995,104;  209,777; 8233,793;72,10014
 507,36; 5892,872;  214,854; 8064,630;72,33350
 507,95; 5791,986;  221,084; 7971,603;71,87779
 508,53; 5695,242;  210,931; 7836,694;71,91820
 509,12; 5585,593;  229,623; 7727,365;71,43444
 509,70; 5491,465;  230,161; 7609,319;71,29951
 510,29; 5408,244;  241,546; 7479,166;71,38670
 510,87; 5275,109;  214,700; 7307,379;71,34693
 511,46; 5169,917;  190,700; 7165,276;71,39095
 512,04; 5041,970;  210,700; 7058,341;70,55379
 512,62; 4942,029;  217,161; 6916,060;70,53201
 513,21; 4805,939;  196,699; 6776,168;70,05489
 513,79; 4747,873;  204,699; 6683,793;70,12052
 514,38; 4645,330;  190,930; 6505,763;70,53868
 514,96; 4599,228;  235,853; 6439,305;70,33785
 515,54; 4510,384;  195,622; 6286,836;70,83582
 516,13; 4426,648;  210,007; 6219,960;70,16096
 516,71; 4320,763;  208,083; 6133,113;69,41196
 517,30; 4202,706;  197,852; 6020,319;68,78276
 517,88; 4185,298;  221,545; 5941,862;69,29254
 518,46; 4090,375;  211,468; 5848,930;68,80590
 519,05; 4004,487;  206,391; 5810,047;67,77889
 519,63; 3994,490;  211,006; 5772,828;68,02598
 520,22; 3932,976;  226,313; 5710,567;67,58737
 520,80; 3891,435;  206,083; 5628,830;67,96098
 521,38; 3862,687;  232,160; 5606,652;67,55107
 521,97; 3791,932;  201,159; 5579,793;66,75994
 522,55; 3796,694;  214,082; 5586,743;66,68225
 523,13; 3742,396;  206,698; 5574,479;65,86890
 523,72; 3715,044;  211,314; 5551,013;65,61663
 524,30; 3788,772;  229,236; 5725,300;64,76519
 524,89; 3764,852;  201,390; 5671,748;65,14131
 525,47; 3821,852;  221,313; 5800,106;64,53975
 526,05; 3825,375;  191,159; 5846,348;64,26338
 526,64; 3882,703;  220,390; 5972,640;63,66748
 527,22; 3936,095;  211,236; 6060,664;63,67903
 527,80; 3963,210;  245,543; 6163,749;62,81746
 528,39; 4010,046;  206,389; 6203,723;63,42246
 528,97; 4056,351;  212,390; 6406,379;62,05955
 529,55; 4121,837;  216,775; 6572,332;61,44327
 530,14; 4226,464;  236,466; 6736,034;61,38866
 530,72; 4264,387;  212,851; 6807,701;61,43485
 531,30; 4291,153;  190,389; 6936,758;60,78476
 531,89; 4353,020;  209,543; 7005,597;60,96886
 532,47; 4405,584;  236,312; 7068,936;61,02007
 533,05; 4412,021;  229,390; 7111,273;60,77742
 533,63; 4391,653;  222,081; 7182,997;59,89976
 534,22; 4388,045;  200,620; 7187,585;59,93196
 534,80; 4430,532;  226,466; 7271,718;59,67232
 535,38; 4495,158;  289,005; 7317,224;59,84665
 535,97; 4391,061;  206,466; 7292,035;59,05799
 536,55; 4452,634;  242,235; 7356,638;59,18134
 537,13; 4416,738;  236,774; 7324,098;58,97802
 537,71; 4439,664;  267,236; 7384,528;58,62381
 538,30; 4431,868;  262,081; 7491,504;57,67800
 538,88; 4477,239;  276,773; 7556,569;57,70032
 539,46; 4594,986;  314,774; 7764,361;57,45569
 540,05; 4593,039;  312,773; 7865,776;56,66972
 540,63; 4720,160;  336,466; 8031,994;56,96417
 541,21; 4748,662;  335,312; 8159,158;56,40895
 541,79; 4787,913;  361,081; 8262,843;56,02335
 542,38; 4834,888;  369,004; 8415,206;55,50301
 542,96; 4894,156;  374,773; 8555,307;55,24558
 543,54; 4958,077;  382,389; 8746,861;54,70385
 544,12; 4997,262;  355,235; 8892,170;54,37580
 544,70; 5039,187;  343,004; 8928,890;54,69654
 545,29; 5097,490;  370,158; 9109,493;54,09258
 545,87; 5057,759;  355,542; 9096,536;53,79499
 546,45; 5032,326;  330,466; 9126,903;53,45187
 547,03; 5063,847;  324,696; 9142,596;53,74466
 547,62; 5053,749;  315,004; 9344,364;52,48151
 548,20; 5156,033;  319,158; 9505,702;52,65174
 548,78; 5128,609;  297,926; 9602,102;51,91951
 549,36; 5184,588;  291,696; 9792,152;51,50166
 549,94; 5187,744;  265,235; 9906,351;51,05746
 550,53; 5247,032;  271,619;10086,325;50,69345
 551,11; 5296,314;  243,157;10255,806;50,46773
 551,69; 5410,209;  260,850;10558,738;50,00403
 552,27; 5468,332;  221,311;10774,899;49,71789
 552,85; 5579,278;  247,696;11107,868;49,09298
 553,44; 5711,222;  241,157;11402,835;49,00755
 554,02; 5827,701;  248,926;11672,047;48,83757
 554,60; 5831,129;  196,849;11956,026;47,91390
 555,18; 5999,532;  250,619;12281,991;47,78269
 555,76; 6115,883;  234,311;12620,628;47,48443
 556,34; 6198,762;  233,234;12935,383;46,96471
 556,93; 6353,506;  220,157;13250,413;47,07006
 557,51; 6459,162;  207,695;13594,636;46,69824
 558,09; 6561,576;  230,003;13929,594;46,21724
 558,67; 6679,105;  238,695;14272,731;45,89136
 559,25; 6728,639;  248,311;14477,462;45,54262
 559,83; 6821,184;  226,772;14735,801;45,45040
 560,41; 6936,208;  224,311;15005,865;45,40725
 561,00; 7045,854;  225,541;15387,354;44,98349
 561,58; 7035,541;  217,926;15587,444;44,35803
 562,16; 7139,244;  217,696;15870,932;44,21800
 562,74; 7250,709;  195,080;16255,789;43,93099
 563,32; 7370,917;  194,234;16615,940;43,70242
 563,90; 7506,364;  218,772;16952,388;43,55061
 564,48; 7584,193;  225,388;17305,579;43,08386
 565,06; 7763,087;  209,926;17902,399;42,69138
 565,65; 7960,453;  219,695;18439,877;42,48452
 566,23; 8227,938;  267,311;19140,403;42,17977
 566,81; 8426,987;  220,772;19746,293;42,02815
 567,39; 8723,269;  229,387;20593,039;41,71099
 567,97; 8902,846;  231,080;21133,270;41,48736
 568,55; 9195,384;  246,541;21950,295;41,23177
 569,13; 9393,107;  212,311;22517,502;41,15991
 569,71; 9668,439;  216,542;23412,456;40,74811
 570,29;10009,519;  252,696;24323,587;40,53370
 570,87;10237,293;  245,773;24926,702;40,48276
 571,45;10369,418;  242,926;25475,471;40,13266
 572,03;10501,653;  186,233;25860,842;40,17752
 572,61;10684,782;  196,541;26487,315;39,89324
 573,20;10892,695;  217,541;27109,281;39,69678
 573,78;11010,100;  201,464;27641,598;39,38988
 574,36;11165,672;  213,387;28059,576;39,33136
 574,94;11269,038;  249,926;28409,337;39,13119
 575,52;11228,142;  200,695;28565,045;38,87784
 576,10;11359,573;  245,002;29191,317;38,39719
 576,68;11483,645;  231,003;29601,254;38,31306
 577,26;11707,208;  243,156;30309,711;38,12892
 577,84;11737,807;  242,541;30677,894;37,76945
 578,42;11832,958;  277,156;30917,557;37,71426
 579,00;11772,282;  222,618;31061,640;37,45146
 579,58;11756,717;  254,464;31166,856;37,20920
 580,16;11670,796;  227,926;31253,465;36,88210
 580,74;11650,499;  228,310;31459,747;36,57273
 581,32;11610,722;  221,079;31409,553;36,51876
 581,90;11474,348;  240,387;31468,177;35,97424
 582,48;11448,363;  221,387;31538,891;35,84888
 583,06;11419,222;  229,156;31677,074;35,58285
 583,64;11377,597;  216,926;31739,099;35,40578
 584,22;11215,437;  220,618;31577,675;35,06330
 584,80;11020,896;  227,002;31340,733;34,69174
 585,38;10834,585;  237,157;31069,312;34,37135
 585,96;10732,812;  201,310;31135,240;34,04515
 586,54;10688,303;  227,464;31164,095;33,81376
 587,12;10651,855;  192,156;31304,739;33,61887
 587,70;10629,976;  232,310;31469,061;33,28664
 588,28;10541,973;  217,310;31431,263;33,07708
 588,86;10477,093;  221,387;31530,130;32,75668
 589,44;10398,577;  202,233;31598,637;32,47615
 590,02;10406,118;  213,925;31888,879;32,17745
 590,59;10407,470;  194,387;31984,269;32,12684
 591,17;10401,369;  209,156;32163,836;31,89584
 591,75;10357,174;  197,694;32250,099;31,69647
 592,33;10353,910;  221,694;32514,326;31,37625
 592,91;10351,197;  183,925;32683,470;31,28435
 593,49;10387,350;  197,617;32940,341;31,12060
 594,07;10409,440;  215,002;33256,207;30,85371
 594,65;10312,167;  226,695;33184,196;30,60145
 595,23;10366,152;  225,771;33574,507;30,40709
 595,81;10366,603;  207,848;33637,831;30,38815
 596,39;10325,172;  205,079;33822,798;30,10345
 596,97;10304,294;  207,002;33854,770;30,00880
 597,55;10254,542;  207,618;33839,828;29,87292
 598,12;10122,417;  184,925;33895,511;29,47885
 598,70;10114,128;  185,232;34017,938;29,34703
 599,28;10061,058;  218,079;34110,603;29,04174
 599,86;10009,922;  202,309;34083,593;28,94699
 600,44; 9981,563;  174,925;34239,778;28,78814
 601,02;10016,949;  226,847;34294,249;28,73745
 601,60; 9952,007;  211,156;34301,541;28,57360
 602,18; 9825,232;  168,771;34268,544;28,31826
 602,75; 9836,593;  185,771;34310,317;28,28117
 603,33; 9785,115;  193,386;34330,380;28,09775
 603,91; 9672,329;  187,924;34373,485;27,74389
 604,49; 9693,676;  201,232;34471,374;27,69888
 605,07; 9660,908;  200,310;34433,854;27,63546
 605,65; 9604,232;  200,694;34511,664;27,40680
 606,23; 9708,465;  236,772;34698,495;27,48468
 606,80; 9627,844;  223,848;34757,079;27,23173
 607,38; 9547,588;  229,155;34743,031;26,99909
 607,96; 9521,395;  248,233;34821,253;26,82196
 608,54; 9524,714;  282,309;34840,195;26,74471
 609,12; 9472,621;  257,848;34946,206;26,56445
 609,70; 9435,774;  280,848;34939,795;26,41432
 610,27; 9492,734;  272,464;34916,033;26,61467
 610,85; 9413,415;  278,079;35029,835;26,28741
 611,43; 9419,869;  279,694;35010,973;26,31684
 612,01; 9281,574;  252,387;34824,703;26,11681
 612,59; 9223,361;  259,156;34835,522;25,92582
 613,16; 9179,570;  231,156;34684,298;25,97271
 613,74; 9079,892;  243,617;34580,891;25,73377
 614,32; 9001,786;  238,463;34567,455;25,52747
 614,90; 8961,377;  254,694;34462,245;25,45252
 615,48; 8877,801;  209,002;34170,255;25,52556
 616,05; 8791,488;  209,848;34162,678;25,27518
 616,63; 8737,329;  212,772;34057,332;25,18738
 617,21; 8711,629;  219,387;33896,375;25,21675
 617,79; 8581,054;  209,771;33903,582;24,84516
 618,36; 8600,159;  231,771;33739,000;24,97487
 618,94; 8435,742;  174,079;33508,356;24,78429
 619,52; 8381,537;  203,925;33206,371;24,77880
 620,10; 8346,146;  194,387;33196,647;24,70061
 620,67; 8281,722;  203,541;33120,689;24,54095
 621,25; 8213,825;  211,463;33071,653;24,35276
 621,83; 8216,231;  205,079;32953,706;24,46256
 622,41; 8188,795;  240,848;32885,900;24,34656
 622,98; 8107,804;  215,925;32670,890;24,31640
 623,56; 8073,617;  221,079;32683,690;24,18948
 624,14; 7967,956;  209,079;32605,341;23,94991
 624,72; 7971,042;  212,310;32450,076;24,06721
 625,29; 7902,163;  190,695;32467,739;23,89149
 625,87; 7963,033;  236,156;32472,590;23,96939
 626,45; 7814,386;  195,618;32404,655;23,65413
 627,02; 7806,708;  204,002;32353,445;23,64802
 627,60; 7802,576;  189,002;32271,875;23,73096
 628,18; 7742,082;  174,540;32301,360;23,55522
 628,76; 7707,583;  175,925;32341,711;23,41512
 629,33; 7714,962;  197,233;32349,039;23,38198
 629,91; 7709,916;  198,464;32379,340;23,34135
 630,49; 7742,885;  224,464;32581,390;23,23590
 631,06; 7743,083;  218,156;32536,574;23,28371
 631,64; 7754,319;  210,156;32579,476;23,30652
 632,22; 7712,135;  180,541;32517,364;23,29108
 632,79; 7750,527;  201,772;32729,644;23,20704
 633,37; 7779,128;  197,848;32724,494;23,30791
 633,95; 7769,881;  206,387;32873,207;23,15344
 634,52; 7755,285;  200,771;33030,019;23,01154
 635,10; 7737,100;  201,079;32900,273;23,04650
 635,68; 7810,240;  212,233;33149,483;23,06813
 636,25; 7795,453;  195,157;33224,280;23,01089
 636,83; 7817,814;  182,156;33308,326;23,05023
 637,41; 7770,856;  196,156;33345,372;22,85031
 637,98; 7906,748;  230,464;33568,635;23,02551
 638,56; 7924,977;  216,849;33621,070;23,07531
 639,13; 7934,627;  198,310;33659,049;23,12058
 639,71; 7983,378;  241,079;33809,400;23,06430
 640,29; 7901,398;  174,772;33660,891;23,07412
 640,86; 7902,408;  199,618;33802,983;22,92267
 641,44; 7917,418;  195,387;33880,151;22,92440
 642,02; 7933,736;  231,233;33788,704;22,95317
 642,59; 7952,977;  202,618;33907,334;22,99488
 643,17; 7964,449;  191,233;33894,349;23,06379
 643,74; 7947,074;  192,387;33958,132;22,96614
 644,32; 7948,777;  217,002;33810,916;23,01540
 644,89; 7968,095;  214,618;33931,854;22,99559
 645,47; 7976,028;  221,387;33873,945;23,04324
 646,05; 7971,654;  210,079;33792,652;23,11191
 646,62; 7987,049;  204,079;33811,128;23,15874
 647,20; 8000,213;  215,233;33957,296;23,07203
 647,77; 7947,300;  183,310;33814,311;23,08581
 648,35; 7914,079;  176,387;33633,172;23,12742
 648,92; 7969,013;  207,387;33807,263;23,10016
 649,50; 7946,869;  175,618;33626,662;23,23172
 650,08; 7956,418;  180,002;33696,215;23,20195
 650,65; 7938,582;  186,310;33912,460;22,98594
 651,23; 8200,592;  165,079;34674,629;23,28490
 651,80; 8399,833;  181,771;35443,028;23,30621
 652,38; 8494,228;  183,617;35773,735;23,35089
 652,95; 8558,700;  164,156;36156,442;23,32317
 653,53; 8715,710;  199,848;36303,456;23,58729
 654,10; 8776,258;  220,079;36407,778;23,64389
 654,68; 8714,730;  187,002;36276,562;23,62935
 655,25; 8753,587;  179,233;36302,269;23,73653
 655,83; 8759,751;  177,002;36514,976;23,61923
 656,40; 8852,530;  213,848;36407,067;23,86823
 656,98; 8824,233;  173,694;36276,236;23,96102
 657,55; 8792,705;  196,387;36190,712;23,88243
 658,13; 8758,176;  179,694;35822,803;24,06772
 658,70; 8729,956;  196,387;35575,741;24,12019
 659,28; 8525,581;  185,233;34649,217;24,20019
 659,85; 8362,207;  195,463;34064,154;24,11296
 660,43; 8396,140;  198,848;34264,092;24,06351
 661,00; 8471,535;  176,694;34345,953;24,27574
 661,58; 8486,084;  181,617;34643,198;24,09775
 662,15; 8586,248;  164,694;34851,520;24,27882
 662,73; 8749,489;  237,540;35154,612;24,37761
 663,30; 8834,115;  182,540;35399,934;24,56620
 663,88; 8837,356;  189,540;35554,333;24,45318
 664,45; 8879,366;  184,156;35695,886;24,48546
 665,03; 9063,607;  183,848;36017,824;24,78028
 665,60; 9217,309;  245,310;36549,531;24,71338
 666,17; 9215,858;  189,540;36517,314;24,84688
 666,75; 9336,484;  178,386;36891,021;24,94536
 667,32; 9465,109;  211,233;37209,343;25,01175
 667,90; 9516,966;  188,233;37437,358;25,04417
 668,47; 9603,668;  197,925;37596,911;25,14973
 669,05; 9708,601;  186,617;37894,002;25,25231
 669,62; 9737,304;  162,079;38049,555;25,27280
 670,19; 9793,160;  164,848;38140,493;25,35391
 670,77; 9910,632;  194,540;38302,892;25,49596
 671,34; 9915,796;  182,463;38265,214;25,55838
 671,92;10025,422;  176,002;38587,844;25,64162
 672,49;10063,663;  202,771;38568,166;25,70257
 673,06;10103,212;  154,540;38603,258;25,87517
 673,64;10111,760;  165,232;38541,888;25,91817
 674,21;10159,386;  161,925;38523,979;26,06081
 674,79;10269,319;  194,540;38697,840;26,16601
 675,36;10344,560;  195,386;38771,931;26,30918
 675,93;10305,878;  171,771;38632,869;26,34898
 676,51;10458,042;  190,155;38824,883;26,57683
 677,08;10445,283;  186,540;38818,975;26,55474
 677,65;10513,986;  196,617;38969,836;26,60952
 678,23;10588,611;  179,386;39144,619;26,71414
 678,80;10690,391;  172,386;39197,865;26,95164
 679,38;10785,863;  177,232;39476,648;26,99437
 679,95;10941,565;  179,232;39625,817;27,28331
 680,52;10985,345;  177,694;39859,370;27,23587
 681,10;11182,355;  189,925;40365,461;27,36100
 681,67;11238,827;  189,771;40600,322;27,34201
 682,24;11306,145;  164,848;40562,567;27,57902
 682,82;11467,001;  171,925;41196,351;27,53256
 683,39;11631,396;  220,925;41451,596;27,67472
 683,96;11716,944;  183,694;41835,842;27,68945
 684,54;11860,262;  173,232;42144,087;27,84559
 685,11;12001,965;  212,155;42374,101;27,96315
 685,68;12158,514;  182,001;42814,501;28,09245
 686,25;12258,370;  177,925;42845,361;28,31303
 686,83;12315,919;  178,771;43093,991;28,28169
 687,40;12440,314;  167,463;43333,929;28,43145
 687,97;12687,016;  206,386;43764,866;28,65258
 688,55;12738,565;  171,617;43761,958;28,82966
 689,12;12867,729;  152,309;44011,126;28,99171
 689,69;12950,047;  168,155;44078,602;29,10900
 690,26;13010,672;  188,617;44168,309;29,15449
 690,84;13075,913;  178,078;44287,939;29,24025
 691,41;13197,231;  196,078;44337,646;29,45331
 691,98;13357,395;  189,771;44635,814;29,62609
 692,56;13481,252;  179,463;44761,367;29,83674
 693,13;13553,108;  232,924;44814,997;29,87789
 693,70;13647,580;  199,386;44999,627;30,01813
 694,27;13722,821;  172,309;45029,565;30,20807
 694,84;13814,216;  177,078;45176,810;30,30493
 695,42;13933,611;  217,924;45200,440;30,49115
 695,99;13984,621;  183,694;45436,454;30,49743
 696,56;14053,323;  175,386;45253,469;30,78644
 697,13;14235,026;  198,771;45638,637;30,88974
 697,71;14292,344;  160,694;45661,498;31,05802
 698,28;14438,893;  175,770;46003,743;31,12318
 698,85;14506,211;  149,694;45920,142;31,36635
 699,42;14632,528;  163,463;46172,542;31,44828
 699,99;14748,077;  196,770;46205,248;31,62745
 700,57;14822,164;  198,694;46156,955;31,81902
 701,14;14865,098;  172,155;46431,201;31,76231
 701,71;15079,877;  197,386;46570,830;32,09270
 702,28;15105,195;  173,540;46557,614;32,19134
 702,85;15187,667;  177,078;46695,706;32,26791
 703,43;15355,446;  179,232;46877,336;32,49857
 704,00;15430,610;  198,617;47110,427;32,46942
 704,57;15495,697;  166,617;47050,365;32,69594
 705,14;15654,631;  198,386;47202,225;32,88294
 705,71;15749,026;  209,540;47296,701;33,00153
 706,28;15702,267;  173,693;47120,947;33,07664
 706,86;15896,738;  210,770;47452,500;33,20363
 707,43;16022,595;  215,155;47396,206;33,50379
 708,00;16059,990;  194,924;47491,144;33,54405
 708,57;16064,538;  169,770;47389,466;33,66131
 709,14;16174,010;  191,924;47408,558;33,84842
 709,71;16234,943;  179,232;47482,957;33,94175
 710,28;16442,800;  183,539;47765,741;34,17089
 710,86;16419,425;  189,693;47900,601;34,01682
 711,43;16644,128;  213,770;47990,539;34,38985
 712,00;16668,369;  183,463;47938,630;34,51963
 712,57;16729,379;  210,463;48089,953;34,50103
 713,14;16838,005;  194,309;48201,967;34,66884
 713,71;16941,400;  202,155;48067,751;34,97135
 714,28;17053,102;  193,770;48156,919;35,15059
 714,85;17011,112;  186,924;47798,088;35,33665
 715,42;17167,892;  196,078;48060,333;35,45822
 716,00;17238,287;  246,078;48067,501;35,53263
 716,57;17306,143;  190,693;48242,208;35,61896
 717,14;17365,692;  181,770;48091,684;35,86715
 717,71;17541,625;  177,539;48238,160;36,12955
 718,28;17680,866;  226,693;48321,329;36,29131
 718,85;17621,492;  187,309;48279,882;36,25130
 719,42;17889,040;  205,693;48421,973;36,67506
 719,99;17853,128;  189,232;48239,603;36,76121
 720,56;17988,984;  211,001;48519,771;36,80074
 721,13;18132,302;  184,616;48524,017;37,12848
 721,70;18173,158;  177,924;48456,108;37,27405
 722,27;18279,938;  216,385;48550,277;37,37244
 722,84;18471,410;  253,539;48640,829;37,65011
 723,41;18513,343;  174,462;48564,844;37,89778
 723,98;18597,738;  196,155;48799,705;37,86057
 724,55;18808,133;  221,539;48976,642;38,12235
 725,12;18801,297;  166,693;48797,657;38,31839
 725,69;19038,768;  193,693;48972,902;38,63342
 726,27;19108,394;  199,078;49115,455;38,65641
 726,84;19234,943;  200,001;49280,008;38,78349
 727,41;19399,568;  212,847;49317,869;39,07283
 727,98;19534,348;  213,693;49605,191;39,11737
 728,55;19604,743;  227,770;49457,129;39,36060
 729,12;19741,214;  177,231;49647,835;39,54668
 729,69;19882,148;  221,616;49753,773;39,69246
 730,26;19994,466;  216,155;49962,557;39,75827
 730,82;20061,707;  199,308;49850,187;40,00412
 731,39;20105,717;  195,462;49816,278;40,12480
 731,96;20386,727;  173,154;50163,062;40,43531
 732,53;20511,430;  205,847;50357,153;40,48864
 733,10;20694,517;  214,539;50522,091;40,70955
 733,67;20814,758;  214,231;50676,029;40,82400
 734,24;20742,460;  190,924;50330,889;40,98833
 734,81;20871,855;  222,847;50432,058;41,12594
 735,38;20886,635;  209,462;50267,072;41,30675
 735,95;20972,029;  191,077;50113,702;41,62632
 736,52;21073,194;  200,308;50226,332;41,72405
 737,09;21054,281;  215,001;49921,270;41,92485
 737,66;21276,291;  255,231;50098,669;42,17418
 738,23;21429,686;  190,693;50154,068;42,50912
 738,80;21595,542;  256,077;50414,236;42,54435
 739,37;21703,860;  223,539;50601,405;42,63841
 739,94;21777,486;  207,693;50644,881;42,76565
 740,51;21959,881;  296,693;50688,511;42,98949
 741,07;22014,968;  202,770;50668,294;43,22198
 741,64;22133,440;  238,308;50922,309;43,19930
 742,21;22213,142;  200,924;50853,323;43,45740
 742,78;22221,998;  176,924;50692,723;43,63996
 743,35;22347,393;  197,847;50855,737;43,72378
 743,92;22536,942;  235,924;51007,982;43,92380
 744,49;22542,875;  224,462;50943,151;44,00432
 745,06;22674,193;  195,077;51001,242;44,24486
 745,63;22705,896;  191,462;50902,026;44,39792
 746,19;22786,521;  191,923;50930,348;44,53153
 746,76;22873,070;  205,616;50968,747;44,65338
 747,33;23032,003;  213,462;50905,531;45,01403
 747,90;23203,475;  218,847;51071,007;45,19892
 748,47;23301,639;  207,923;51065,329;45,40876
 749,04;23339,573;  216,000;50956,729;45,57201
 749,61;23528,814;  219,308;50944,128;45,95286
 750,17;23581,285;  221,154;51023,142;45,98271
 750,74;23643,988;  222,462;50913,234;46,20471
 751,31;23597,075;  189,154;50880,248;46,17758
 751,88;23706,778;  189,770;50717,494;46,54278
 752,45;23883,480;  200,923;50994,431;46,62516
 753,02;23852,029;  209,462;50649,215;46,87288
 753,58;23916,347;  188,539;50671,768;47,00137
 754,15;24039,357;  201,308;50812,090;47,10073
 754,72;23994,059;  191,231;50637,105;47,18489
 755,29;23965,224;  190,231;50426,504;47,32635
 755,86;24166,157;  210,231;50544,826;47,59336
 756,42;24263,706;  219,231;50527,533;47,79425
 756,99;24193,562;  183,616;50505,547;47,71269
 757,56;24315,803;  194,846;50361,793;48,08137
 758,13;24320,121;  163,769;50253,192;48,22645
 758,70;24572,208;  184,923;50276,437;48,68546
 759,26;24598,372;  185,846;50461,913;48,55695
 759,83;24768,690;  200,385;50451,543;48,89102
 760,40;24707,085;  181,000;50317,558;48,91857
 760,97;24767,941;  175,308;50289,572;49,07312
 761,53;24684,952;  169,846;49973,510;49,22350
 762,10;24671,193;  161,000;49908,293;49,26940
 762,67;24918,895;  201,769;49960,154;49,67429
 763,24;24713,828;  147,615;49558,015;49,71871
 763,80;24852,608;  181,923;49772,183;49,74905
 764,37;24932,003;  190,385;49732,198;49,94088
 764,94;24768,167;  167,308;49316,828;50,05310
 765,50;24893,639;  169,615;49164,688;50,46226
 766,07;25040,110;  202,231;49319,472;50,56856
 766,64;24936,890;  172,308;48949,410;50,77092
 767,21;24962,746;  177,846;48985,578;50,78068
 767,77;25090,526;  200,077;48824,054;51,18966
 768,34;25021,074;  200,538;48763,069;51,11047
 768,91;25103,008;  204,077;48671,160;51,37287
 769,47;25143,556;  192,385;48647,713;51,49314
 770,04;25147,336;  197,308;48582,958;51,56493
 770,61;25003,038;  189,385;48406,204;51,46265
 771,18;25060,818;  170,000;48330,449;51,68311
 771,74;25269,982;  192,308;48392,079;52,02862
 772,31;25189,531;  200,385;48271,786;51,98339
 772,88;25169,695;  182,154;47999,262;52,25649
 773,44;25074,089;  183,846;47768,815;52,30694
 774,01;25285,561;  203,538;47902,445;52,58406
 774,58;25214,648;  180,692;47572,536;52,82334
 775,14;25438,582;  185,308;47771,397;53,06861
 775,71;25383,130;  174,923;47581,873;53,17408
 776,27;25502,294;  231,308;47574,734;53,37803
 776,84;25652,151;  253,154;47573,748;53,67430
 777,41;25576,930;  204,384;47399,840;53,76057
 777,97;25518,094;  181,923;47193,316;53,89368
 778,54;25486,412;  194,846;47166,792;53,84398
 779,11;25589,192;  216,923;47120,345;54,09471
 779,67;25614,817;  182,461;47053,052;54,26080
 780,24;25602,751;  207,923;46872,989;54,41935
 780,80;25618,838;  215,077;46855,234;54,46757
 781,37;25627,387;  210,615;46853,864;54,49185
 781,94;25579,243;  193,154;46577,417;54,72996
 782,50;25668,176;  207,461;46574,970;54,91068
 783,07;25689,340;  232,615;46587,908;54,91654
 783,63;25639,812;  196,461;46351,384;55,12597
 784,20;25720,899;  228,769;46298,937;55,33327
 784,77;25646,140;  213,384;46110,875;55,41208
 785,33;25657,766;  180,077;45908,197;55,71558
 785,90;25699,468;  200,846;46000,673;55,67406
 786,46;25713,248;  229,538;45769,918;55,95849
 787,03;25668,027;  194,769;45668,779;56,01718
 787,59;25738,961;  197,538;45590,486;56,26738
 788,16;25775,279;  213,615;45589,269;56,33343
 788,73;25729,673;  213,461;45375,822;56,49884
 789,29;25715,761;  209,000;45105,452;56,81242
 789,86;25708,155;  220,461;44895,467;57,05135
 790,42;25764,627;  213,615;44861,866;57,22735
 790,99;25650,022;  227,153;44486,265;57,44098
 791,55;25711,878;  203,846;44553,203;57,51613
 792,12;25770,350;  232,923;44453,602;57,74997
 792,68;25617,514;  205,461;44174,924;57,79478
 793,25;25600,832;  224,692;44065,708;57,88219
 793,81;25474,535;  269,769;43608,184;58,15802
 794,38;25367,853;  185,923;43459,429;58,19249
 794,94;25403,171;  206,923;43264,059;58,51817
 795,51;25414,873;  217,923;43071,228;58,79815
 796,07;25261,960;  212,615;42806,165;58,81018
 796,64;25410,124;  224,153;42989,487;58,89343
 797,20;25148,827;  221,153;42433,810;59,05261
 797,77;25138,914;  192,923;42211,747;59,36861
 798,33;25094,770;  219,999;42050,454;59,46570
 798,90;25150,088;  243,307;41964,161;59,69864
 799,46;24927,714;  206,153;41599,945;59,72287
 800,03;24878,955;  220,461;41487,421;59,75360
 800,59;24852,581;  237,692;41300,897;59,94391
 801,15;24806,822;  241,538;41080,527;60,15155
 801,72;24669,832;  229,846;40827,926;60,19986
 802,28;24570,227;  247,999;40532,017;60,37687
 802,85;24515,852;  217,307;40307,032;60,61041
 803,41;24480,863;  209,153;40049,893;60,92183
 803,98;24403,257;  214,692;39894,292;60,95970
 804,54;24257,422;  217,845;39624,075;61,00451
 805,11;24322,432;  229,153;39414,013;61,48619
 805,67;24283,442;  231,845;39346,720;61,48964
 806,23;24078,529;  222,615;38962,273;61,58009
 806,80;24081,924;  234,230;38930,441;61,62798
 807,36;24174,088;  242,461;38854,071;61,98039
 807,93;24127,329;  248,230;38646,240;62,18838
 808,49;23930,185;  202,461;38245,408;62,37089
 809,05;23878,734;  197,153;38158,192;62,38391
 809,62;23849,898;  240,692;38037,283;62,46385
 810,18;23954,139;  233,768;38080,836;62,67426
 810,74;23882,765;  204,230;37756,158;63,05544
 811,31;23887,544;  200,999;37561,327;63,40026
 811,87;23855,247;  219,768;37431,726;63,51582
 812,44;23867,872;  249,922;37464,125;63,46488
 813,00;23733,113;  180,768;37153,063;63,70269
 813,56;23792,047;  240,999;37204,385;63,71453
 814,13;23789,057;  222,230;37188,092;63,75295
 814,69;23692,913;  221,922;37082,491;63,67507
 815,25;23542,308;  191,691;36620,275;64,09971
 815,82;23553,088;  242,461;36517,981;64,25994
 816,38;23562,329;  255,384;36435,919;64,41846
 816,94;23415,339;  210,922;36113,241;64,63208
 817,51;23405,503;  198,230;35930,102;64,94838
 818,07;23199,359;  206,614;35732,655;64,72082
 818,63;23155,677;  229,922;35501,592;64,99765
 819,20;23162,072;  228,999;35439,915;65,13058
 819,76;22971,852;  198,999;35037,545;65,36683
 820,32;22999,246;  249,999;34969,790;65,52242
 820,89;22951,180;  243,691;34715,651;65,87235
 821,45;22837,575;  206,461;34476,742;66,03714
 822,01;22820,123;  234,999;34225,910;66,44460
 822,57;22724,749;  231,230;34047,925;66,51602
 823,14;22650,682;  198,537;33943,786;66,53424
 823,70;22603,077;  219,461;33684,416;66,88674
 824,26;22476,549;  210,845;33503,815;66,87809
 824,82;22501,328;  236,230;33390,214;67,15663
 825,39;22386,416;  216,307;33055,459;67,51121
 825,95;22458,580;  238,384;33157,397;67,49958
 826,51;22227,590;  225,768;32741,719;67,66470
 827,08;22390,523;  266,307;32869,426;67,85920
 827,64;22244,380;  233,691;32640,133;67,92072
 828,20;22216,313;  209,384;32367,763;68,43296
 828,76;22294,323;  232,307;32374,931;68,63788
 829,32;22288,410;  246,384;32209,484;68,96085
 829,89;22237,344;  194,922;32119,345;69,04564
 830,45;22238,123;  223,460;32096,667;69,06949
 831,01;22239,441;  223,999;31878,681;69,54877
 831,57;22215,374;  227,460;31849,927;69,53257
 832,14;22296,692;  215,383;31775,403;69,96608
 832,70;22174,856;  216,460;31590,494;69,98907
 833,26;22255,943;  195,383;31556,586;70,34348
 833,82;22219,338;  226,153;31468,600;70,39521
 834,38;22284,041;  210,306;31425,615;70,71445
 834,95;22246,282;  205,768;31300,168;70,88258
 835,51;22175,061;  186,922;31186,721;70,92994
 836,07;22268,148;  214,999;31286,889;70,97460
 836,63;22345,774;  235,076;31247,904;71,29533
 837,19;22300,323;  222,230;31169,457;71,34110
 837,75;22267,794;  189,383;30892,625;71,90906
 838,32;22358,343;  230,229;30922,024;72,09782
 838,88;22407,815;  232,845;31025,731;72,01329
 839,44;22400,441;  222,999;30902,130;72,28836
 840,00;22463,989;  222,614;30874,068;72,56222
 840,56;22317,846;  207,691;30617,159;72,70813
 841,12;22437,394;  206,076;30498,404;73,38927
 841,68;22311,481;  189,383;30361,727;73,31913
 842,25;22445,107;  210,845;30317,280;73,85219
 842,81;22395,117;  199,999;30157,679;74,08824
 843,37;22407,128;  187,999;30128,616;74,21066
 843,93;22419,676;  218,922;30065,631;74,38259
 844,49;22472,840;  217,076;30078,030;74,53132
 845,05;22405,235;  180,076;29989,814;74,55671
 845,61;22444,861;  230,460;30019,213;74,57311
 846,17;22383,410;  206,845;29852,766;74,80478
 846,73;22339,035;  213,614;29780,473;74,83183
 847,29;22343,276;  194,614;29625,180;75,25734
 847,86;22345,133;  199,306;29632,579;75,24079
 848,42;22238,143;  185,537;29445,055;75,36900
 848,98;22356,153;  209,691;29466,992;75,69550
 849,54;22389,779;  202,306;29404,392;75,97907
 850,10;22351,712;  215,383;29217,175;76,32745
 850,66;22214,338;  191,999;29161,190;76,01986
 851,22;22238,655;  198,075;29038,820;76,42168
 851,78;22266,127;  241,998;29025,834;76,51561
 852,34;22176,830;  211,229;28886,310;76,60170
 852,90;22212,763;  214,460;28795,940;76,96698
 853,46;22115,389;  202,383;28615,801;77,12203
 854,02;22167,630;  215,922;28607,277;77,31828
 854,58;22054,794;  201,845;28342,138;77,65715
 855,14;22143,112;  192,460;28224,460;78,30569
 855,70;22031,507;  169,614;28179,397;78,05092
 856,26;22063,363;  227,998;28090,181;78,36918
 856,82;21978,989;  202,075;27894,119;78,63960
 857,38;21948,306;  229,229;27830,749;78,68798
 857,94;21901,547;  207,152;27712,302;78,87394
 858,50;21777,865;  216,152;27584,162;78,78437
 859,06;21720,645;  197,460;27413,869;79,08165
 859,62;21810,194;  224,537;27445,115;79,29904
 860,18;21687,819;  215,460;27255,975;79,40810
 860,74;21703,983;  178,460;27075,451;80,02948
 861,30;21569,609;  183,460;26948,774;79,90248
 861,86;21681,388;  236,306;26929,788;80,33827
 862,42;21552,937;  206,998;26838,187;80,15391
 862,98;21598,178;  236,998;26816,202;80,36802
 863,54;21498,265;  215,383;26607,755;80,64028
 864,10;21660,891;  215,152;26677,154;81,04352
 864,66;21380,516;  203,614;26435,245;80,73041
 865,22;21377,527;  206,767;26314,721;81,08931
 865,78;21342,998;  211,075;26260,121;81,12360
 866,34;21301,624;  199,691;26237,212;81,04433
 866,90;21248,711;  213,767;26098,534;81,26379
 867,45;21145,337;  222,921;25859,241;81,61240
 868,01;21072,732;  214,998;25799,871;81,52369
 868,57;21022,511;  208,537;25535,732;82,18034
 869,13;20976,752;  190,460;25443,131;82,31324
 869,69;20933,532;  213,537;25428,145;82,17456
 870,25;20913,234;  191,229;25281,929;82,58839
 870,81;20892,398;  209,844;25314,559;82,38514
 871,37;20849,716;  211,537;25106,958;82,89950
 871,93;20764,034;  228,998;25059,203;82,70184
 872,49;20655,506;  235,690;24710,910;83,43057
 873,04;20634,747;  197,229;24620,463;83,68064
 873,60;20580,526;  194,229;24500,170;83,87372
 874,16;20598,844;  217,229;24490,877;83,96602
 874,72;20569,152;  209,075;24397,646;84,17230
 875,28;20585,998;  218,383;24393,569;84,25009
 875,84;20559,998;  213,152;24287,031;84,51835
 876,40;20654,306;  200,537;24244,031;85,06987
 876,95;20618,229;  220,844;24253,031;84,87528
 877,51;20628,998;  234,844;24252,646;84,91266
 878,07;20712,921;  247,537;24268,800;85,19695
 878,63;20808,229;  204,921;24325,338;85,41854
 879,19;20744,306;  225,383;24259,185;85,37527
 879,75;20845,767;  210,690;24315,877;85,60430
 880,30;20862,844;  206,921;24342,338;85,58345
 880,86;21008,460;  262,690;24542,877;85,44320
 881,42;21138,844;  200,229;24530,338;86,06051
 881,98;21249,460;  228,767;24587,185;86,29745
 882,54;21357,537;  210,613;24670,185;86,45664
 883,09;21395,998;  218,844;24794,185;86,17237
 883,65;21552,537;  204,537;24889,262;86,48263
 884,21;21714,075;  235,383;25072,800;86,47716
 884,77;21838,844;  193,767;25121,877;86,83000
 885,32;21956,306;  215,921;25254,877;86,82624
 885,88;22110,537;  247,152;25438,646;86,78876
 886,44;22266,921;  220,383;25521,031;87,13824
 887,00;22225,383;  228,844;25539,108;86,90758
 887,56;22465,844;  207,306;25738,492;87,18176
 888,11;22443,844;  204,767;25713,646;87,18171
 888,67;22629,844;  247,537;25874,185;87,33997
 889,23;22662,613;  226,844;25864,954;87,50945
 889,79;22593,690;  198,690;25870,031;87,23736
 890,34;22630,383;  214,306;25781,185;87,67624
 890,90;22794,998;  274,921;25876,877;87,96233
 891,46;22685,229;  216,767;25815,723;87,77101
 892,01;22769,229;  232,306;25795,185;88,16270
 892,57;22746,075;  248,844;25656,031;88,54672
 893,13;22596,075;  217,844;25448,723;88,69382
 893,69;22587,306;  206,383;25488,262;88,52555
 894,24;22563,767;  217,460;25362,646;88,86913
 894,80;22521,767;  227,537;25288,646;88,95947
 895,36;22486,152;  214,537;25049,800;89,67739
 895,91;22364,229;  214,767;24927,108;89,62915
 896,47;22421,690;  233,921;24837,646;90,18053
 897,03;22203,229;  216,537;24711,338;89,76065
 897,58;22203,537;  232,998;24565,723;90,29214
 898,14;22017,306;  229,998;24326,877;90,41548
 898,70;21916,921;  202,998;24235,262;90,35322
 899,25;22000,537;  220,844;24180,954;90,89980
 899,81;21832,921;  240,998;24065,185;90,63026
 900,37;21759,767;  198,306;23850,108;91,16202
 900,92;21860,998;  220,613;23841,492;91,61549
 901,48;21722,537;  202,844;23672,569;91,69128
 902,03;21617,306;  211,690;23469,262;92,03719
 902,59;21553,690;  220,690;23371,415;92,14830
 903,15;21416,460;  235,383;23337,877;91,68307
 903,70;21224,229;  223,844;23107,646;91,76965
 904,26;21230,613;  210,229;23010,415;92,19392
 904,82;21282,075;  223,383;22963,877;92,60437
 905,37;21153,690;  230,844;22839,262;92,54450
 905,93;21088,613;  206,152;22630,723;93,12313
 906,48;21195,460;  224,844;22631,646;93,59040
 907,04;21247,921;  230,075;22626,185;93,84597
 907,60;20978,306;  212,229;22360,877;93,75776
 908,15;20909,152;  207,690;22275,954;93,80648
 908,71;20921,998;  238,152;22240,646;94,00682
 909,26;20860,229;  216,690;22060,877;94,50358
 909,82;20866,460;  231,844;22001,185;94,78751
 910,37;20899,075;  257,690;21886,723;95,43369
 910,93;20726,383;  206,229;21749,723;95,24989
 911,48;20562,767;  211,460;21592,262;95,18496
 912,04;20589,229;  209,998;21567,954;95,41752
 912,60;20597,998;  227,690;21463,877;95,92263
 913,15;20536,537;  216,306;21344,954;96,17383
 913,71;20437,537;  200,229;21241,338;96,17985
 914,26;20452,075;  196,537;21165,108;96,59952
 914,82;20396,613;  227,075;21104,492;96,60936
 915,37;20368,767;  205,229;20969,262;97,10801
 915,93;20357,152;  253,152;20882,954;97,45125
 916,48;20253,306;  209,460;20764,800;97,51162
 917,04;20241,690;  233,921;20683,338;97,84029
 917,59;20200,460;  242,921;20578,800;98,13954
 918,15;19967,613;  191,383;20385,185;97,93218
 918,70;19992,998;  218,767;20309,415;98,42505
 919,26;19995,229;  220,844;20177,338;99,08747
 919,81;19856,537;  203,844;20088,108;98,83540
 920,37;19879,460;  217,383;20045,492;99,16264
 920,92;19887,383;  216,921;19921,185;99,82845
 921,48;19758,306;  196,229;19699,338;100,30235
 922,03;19693,844;  212,383;19717,185;99,88034
 922,59;19661,460;  200,537;19613,723;100,24590
 923,14;19594,690;  209,767;19494,185;100,52118
 923,69;19600,690;  233,229;19379,800;101,15368
 924,25;19583,460;  234,075;19368,569;101,12305
 924,80;19464,152;  219,229;19185,954;101,46677
 925,36;19447,844;  213,690;19153,569;101,55373
 925,91;19332,075;  210,767;19094,877;101,25607
 926,47;19314,306;  198,767;18967,646;101,84699
 927,02;19287,690;  250,229;18917,185;101,98482
 927,57;19165,921;  210,460;18711,108;102,45837
 928,13;19136,998;  206,075;18681,800;102,46376
 928,68;19180,152;  216,152;18613,338;103,08098
 929,24;19065,767;  189,229;18417,723;103,55512
 929,79;18998,613;  195,537;18326,569;103,70660
 930,34;18890,229;  211,998;18183,262;103,93388
 930,90;18839,690;  205,383;18191,262;103,60521
 931,45;18872,383;  227,998;18098,954;104,32785
 932,01;18733,921;  222,075;18012,262;104,05650
 932,56;18708,075;  238,998;17928,800;104,40522
 933,11;18641,767;  238,767;17816,723;104,69363
 933,67;18490,306;  202,921;17697,492;104,53177
 934,22;18532,767;  214,921;17585,646;105,45240
 934,77;18392,152;  239,844;17508,031;105,11994
 935,33;18347,537;  224,998;17450,338;105,20859
 935,88;18370,767;  227,383;17373,800;105,81444
 936,43;18369,613;  208,383;17232,185;106,68140
 936,99;18324,613;  217,998;17185,569;106,71307
 937,54;18181,998;  194,229;16987,108;107,11546
 938,09;18131,921;  227,690;16939,954;107,13229
 938,65;17989,152;  229,306;16871,185;106,71780
 939,20;17969,306;  192,921;16814,031;106,95065
 939,75;17918,844;  198,229;16671,723;107,57047
 940,31;17810,152;  192,152;16575,954;107,53304
 940,86;17870,075;  218,613;16584,262;107,85678
 941,41;17787,152;  284,844;16477,646;108,08696
 941,96;17746,613;  204,460;16399,954;108,31503
 942,52;17676,613;  215,613;16384,185;107,99346
 943,07;17581,844;  198,998;16153,338;108,95371
 943,62;17555,844;  214,229;16141,877;108,87744
 944,18;17540,844;  204,306;16094,031;109,10534
 944,73;17465,690;  217,844;15979,338;109,43027
 945,28;17288,844;  186,690;15779,723;109,67818
 945,83;17317,537;  210,460;15774,877;109,91145
 946,39;17275,998;  207,537;15739,108;109,89527
 946,94;17175,383;  218,383;15678,031;109,68555
 947,49;17129,921;  200,767;15619,877;109,79333
 948,04;17091,460;  231,152;15569,954;109,91933
 948,59;17071,075;  223,844;15473,492;110,47619
 949,15;17012,075;  199,690;15381,646;110,73925
 949,70;16971,152;  207,690;15281,723;111,20754
 950,25;16832,537;  223,075;15248,031;110,54583
 950,80;16735,383;  184,306;15173,415;110,42068
 951,36;16740,767;  186,152;15057,338;111,32007
 951,91;16807,767;  217,537;14964,954;112,49584
 952,46;16615,844;  192,152;14841,492;112,11216
 953,01;16639,460;  221,921;14868,646;112,09017
 953,56;16541,767;  190,690;14784,031;112,04479
 954,11;16508,690;  220,844;14694,415;112,53509
 954,67;16465,844;  205,690;14633,262;112,70195
 955,22;16267,229;  187,306;14435,954;112,85227
 955,77;16293,152;  235,537;14495,569;112,60574
 956,32;16294,921;  243,998;14359,646;113,71014
 956,87;16138,383;  196,921;14220,569;113,67557
 957,42;16069,537;  198,998;14269,800;112,79058
 957,98;16048,460;  201,921;14134,492;113,73736
 958,53;15959,767;  228,229;14041,415;113,88783
 959,08;15885,383;  199,306;14049,185;113,25786
 959,63;15847,537;  199,152;13927,108;113,98918
 960,18;15759,690;  224,767;13895,108;113,63962
 960,73;15809,152;  213,537;13836,954;114,47653
 961,28;15761,613;  184,690;13767,262;114,68317
 961,83;15669,921;  225,075;13735,108;114,32131
 962,39;15574,460;  203,613;13566,492;115,02646
 962,94;15593,075;  218,537;13549,723;115,32761
 963,49;15414,306;  210,690;13411,723;115,16989
 964,04;15402,537;  225,306;13391,492;115,27431
 964,59;15352,229;  180,537;13264,954;115,95237
 965,14;15378,767;  222,613;13246,185;116,37479
 965,69;15310,690;  215,537;13127,338;116,90974
 966,24;15186,921;  208,306;13055,800;116,58784
 966,79;15099,229;  217,075;12979,185;116,61202
 967,34;15044,921;  199,921;12882,954;117,04614
 967,89;15056,383;  194,921;12813,108;117,77811
 968,44;14966,229;  210,383;12775,108;117,43867
 968,99;14923,229;  209,075;12733,492;117,48374
 969,55;14865,537;  217,690;12580,185;118,48617
 970,10;14828,229;  231,690;12478,492;119,18653
 970,65;14753,921;  219,537;12405,723;119,26934
 971,20;14642,229;  200,998;12356,569;118,80339
 971,75;14539,921;  186,844;12228,569;119,19453
 972,30;14460,613;  210,921;12181,031;119,04396
 972,85;14383,690;  199,075;12096,492;119,22432
 973,40;14295,075;  206,383;11946,723;120,00242
 973,95;14256,613;  213,152;11923,954;119,91887
 974,50;14210,306;  225,075;11874,415;120,05170
 975,05;14116,306;  221,460;11791,492;120,09340
 975,60;14027,537;  227,690;11710,108;120,18241
 976,15;13983,537;  202,075;11617,877;120,72268
 976,70;13944,306;  223,306;11509,031;121,57837
 977,25;13828,690;  227,690;11476,569;120,90983
 977,80;13707,152;  206,460;11351,800;121,13306
 978,35;13505,075;  221,844;11268,185;120,25006
 978,89;13506,690;  194,690;11159,723;121,40411
 979,44;13560,152;  217,844;11173,262;121,78731
 979,99;13405,229;  196,690;10982,954;122,45704
 980,54;13326,767;  239,383;10951,415;122,17461
 981,09;13215,306;  231,998;10848,954;122,28842
 981,64;13115,075;  218,075;10733,954;122,64310
 982,19;13126,537;  251,229;10714,415;123,05341
 982,74;13019,690;  231,613;10532,338;124,14735
 983,29;12854,921;  199,229;10432,800;123,66839
 983,84;12820,383;  219,075;10387,569;123,92501
 984,39;12793,075;  271,306;10298,800;124,87436
 984,94;12671,537;  190,767;10218,492;124,46262
 985,49;12543,690;  248,537;10121,800;124,52979
 986,03;12492,383;  231,075;10067,646;124,65022
 986,58;12370,229;  260,844; 9971,415;124,70311
 987,13;12287,767;  228,844; 9863,031;125,16805
 987,68;12210,229;  240,613; 9761,492;125,71965
 988,23;12146,844;  236,921; 9718,492;125,61128
 988,78;12022,537;  207,767; 9598,569;125,81214
 989,33;11904,460;  230,998; 9511,031;125,79117
 989,88;11918,306;  244,921; 9447,569;126,84810
 990,42;11754,229;  220,921; 9285,108;127,24041
 990,97;11626,998;  213,690; 9250,492;126,29808
 991,52;11631,690;  237,306; 9181,723;127,39102
 992,07;11489,613;  244,306; 9049,800;127,70785
 992,62;11425,844;  226,613; 8967,646;128,12251
 993,17;11252,767;  234,690; 8882,877;127,40332
 993,71;11211,306;  235,767; 8817,877;127,88858
 994,26;11036,460;  214,229; 8673,877;127,92767
 994,81;11084,306;  232,921; 8648,108;128,95002
 995,36;10867,613;  212,613; 8540,646;127,94138
 995,91;10904,075;  236,075; 8479,108;129,41839
 996,45;10697,921;  226,229; 8368,569;128,60789
 997,00;10566,690;  193,921; 8271,031;128,42180
 997,55;10566,460;  233,229; 8188,492;129,89175
 998,10;10431,844;  240,152; 8111,415;129,47975
 998,65;10348,921;  221,690; 8051,338;129,34465
 999,19;10254,767;  238,075; 7942,723;130,00843
 999,74;10121,306;  267,921; 7846,723;130,01243
1000,29;10058,690;  233,844; 7798,877;129,87183
1000,84; 9890,537;  214,690; 7684,877;129,52617
1001,38; 9859,998;  223,690; 7594,108;130,74304
1001,93; 9782,921;  230,844; 7561,031;130,31151
1002,48; 9617,921;  199,690; 7451,569;129,87297
1003,03; 9609,998;  229,998; 7389,569;131,01343
1003,57; 9489,921;  240,613; 7287,646;131,25110
1004,12; 9458,075;  256,844; 7173,877;133,02280
1004,67; 9298,921;  212,229; 7105,262;131,82430
1005,22; 9153,460;  210,537; 6965,108;132,39809
1005,76; 8961,613;  218,767; 6846,338;131,91629
1006,31; 8960,690;  240,152; 6824,185;132,44980
1006,86; 8764,844;  218,152; 6700,723;131,84109
1007,40; 8693,306;  209,229; 6583,185;133,10536
1007,95; 8602,613;  220,844; 6555,185;132,32268
1008,50; 8437,998;  233,998; 6415,185;132,72533
1009,04; 8383,921;  226,152; 6352,954;133,14890
1009,59; 8259,844;  232,613; 6204,569;134,41544
1010,14; 8138,152;  203,844; 6121,569;134,07699
1010,68; 8003,690;  226,921; 6027,954;134,05836
1011,23; 7931,152;  224,152; 5883,262;136,18750
1011,78; 7825,690;  237,690; 5858,338;135,00223
1012,32; 7724,921;  228,537; 5761,646;135,48231
1012,87; 7721,537;  241,306; 5755,338;135,65808
1013,42; 7587,229;  212,921; 5646,262;135,72328
1013,96; 7591,998;  250,613; 5649,800;135,97205
1014,51; 7458,229;  193,075; 5590,954;134,59275
1015,06; 7482,537;  200,690; 5596,031;134,96546
1015,60; 7511,075;  267,383; 5671,031;134,05189
1016,15; 7467,460;  210,306; 5603,185;134,56920
1016,69; 7528,075;  224,460; 5682,415;133,81595
1017,24; 7535,613;  207,229; 5626,800;135,22075
1017,79; 7598,537;  245,998; 5707,800;134,61745
1018,33; 7621,998;  213,844; 5716,723;134,62324
1018,88; 7666,229;  226,921; 5789,108;133,74790
1019,42; 7684,383;  223,460; 5776,185;134,36507
1019,97; 7646,613;  216,460; 5782,800;133,48364
1020,51; 7730,152;  233,767; 5820,723;134,17655
1021,06; 7726,998;  204,537; 5811,569;134,16119
1021,61; 7731,613;  182,460; 5788,262;134,66680
1022,15; 7655,460;  165,767; 5762,031;133,83380
1022,70; 7692,306;  207,613; 5764,954;134,68119
1023,24; 7668,152;  214,075; 5702,031;135,82611
1023,79; 7622,844;  215,613; 5682,108;135,50240
1024,33; 7567,460;  212,767; 5642,723;135,44663
1024,88; 7481,537;  223,537; 5540,338;136,51063
1025,42; 7368,998;  219,460; 5474,492;136,05127
1025,97; 7291,460;  212,921; 5363,646;137,42800
1026,51; 7145,383;  177,844; 5273,877;136,72476
1027,06; 7157,383;  203,844; 5223,723;138,52005
1027,60; 7039,613;  221,921; 5139,800;138,63075
1028,15; 6945,921;  234,690; 5039,108;139,68876
1028,69; 6798,075;  183,844; 4909,723;139,95769
1029,24; 6739,383;  206,383; 4886,646;139,58616
1029,78; 6633,152;  197,921; 4781,800;140,38833
1030,33; 6504,921;  179,767; 4689,492;140,25587
1030,87; 6450,075;  201,152; 4647,492;140,54082
1031,42; 6320,383;  192,921; 4555,262;140,46271
1031,96; 6323,152;  219,152; 4510,954;142,22464
1032,51; 6227,998;  196,613; 4436,646;142,24854
1033,05; 6174,690;  224,537; 4360,415;143,86673
1033,60; 6026,306;  176,537; 4252,954;143,50271
1034,14; 5955,229;  215,460; 4215,723;143,48478
1034,69; 5903,229;  199,460; 4193,800;142,79627
1035,23; 5821,537;  210,152; 4103,569;144,12492
1035,77; 5699,767;  200,690; 4048,338;142,92048
1036,32; 5634,613;  188,152; 4005,108;142,69124
1036,86; 5590,075;  206,152; 3916,877;145,09087
1037,41; 5493,306;  229,306; 3864,954;144,78849
1037,95; 5452,537;  188,844; 3809,338;145,38602
1038,50; 5376,075;  193,306; 3776,262;144,65066
1039,04; 5342,613;  222,921; 3748,569;145,21280
1039,58; 5215,613;  181,075; 3666,415;144,44898
1040,13; 5153,998;  197,998; 3587,954;146,19660
1040,67; 5117,690;  235,306; 3587,954;145,62771
1041,21; 5033,229;  241,306; 3548,800;144,88077
1041,76; 4941,921;  197,613; 3446,185;146,04291
1042,30; 4924,306;  205,998; 3406,954;147,40309
1042,85; 4853,229;  210,690; 3349,877;147,88986
1043,39; 4771,613;  194,921; 3274,185;148,62945
1043,93; 4721,844;  225,767; 3278,954;147,25851
1044,48; 4647,229;  206,306; 3208,492;147,92296
1045,02; 4598,998;  210,460; 3132,800;150,17205
1045,56; 4558,921;  229,921; 3120,723;149,75083
1046,11; 4473,306;  217,229; 3092,877;148,00410
1046,65; 4433,075;  215,767; 3036,415;149,51556
1047,19; 4360,075;  200,921; 2989,492;149,15000
1047,74; 4276,613;  176,383; 2941,800;148,26807
1048,28; 4268,537;  212,613; 2907,569;150,50054
1048,82; 4261,844;  230,998; 2890,338;151,57316
1049,37; 4134,690;  213,306; 2838,723;149,36234
1049,91; 4104,921;  205,844; 2769,262;152,10465
1050,45; 4038,229;  226,613; 2764,723;150,17537
1050,99; 3977,075;  224,306; 2703,877;151,34751
1051,54; 3936,998;  199,690; 2670,569;151,25419
1052,08; 3903,075;  225,690; 2652,262;151,54654
1052,62; 3839,613;  225,075; 2609,492;151,59001
1053,16; 3797,229;  205,383; 2544,031;153,58643
1053,71; 3747,998;  222,921; 2538,031;152,26393
1054,25; 3684,229;  230,921; 2499,723;152,20843
1054,79; 3633,460;  221,921; 2466,415;151,99587
1055,33; 3568,383;  189,690; 2416,569;151,72322
1055,88; 3555,306;  226,921; 2395,492;153,48284
1056,42; 3520,537;  233,229; 2374,723;153,50533
1056,96; 3492,537;  229,767; 2332,108;155,19700
1057,50; 3438,998;  218,690; 2295,415;155,06664
1058,05; 3362,613;  215,613; 2258,800;154,02412
1058,59; 3323,998;  237,229; 2225,262;155,26753
1059,13; 3259,229;  204,152; 2172,723;155,19261
1059,67; 3221,075;  225,690; 2183,646;152,98531
1060,21; 3188,460;  208,613; 2118,492;156,02278
1060,76; 3119,229;  239,998; 2108,492;154,09364
1061,30; 3112,613;  238,229; 2061,031;157,69045
1061,84; 3036,460;  217,306; 2030,569;155,47403
1062,38; 2995,844;  199,229; 1978,338;157,19185
1062,92; 3035,075;  259,383; 2015,877;158,02456
1063,46; 2960,767;  232,383; 1961,415;157,79832
1064,01; 2905,383;  216,075; 1923,031;157,54993
1064,55; 2886,921;  220,537; 1897,723;158,97961
1065,09; 2797,998;  194,537; 1862,800;156,05818
1065,63; 2830,383;  250,075; 1888,031;157,53220
1066,17; 2770,075;  259,152; 1859,877;156,86161
1066,71; 2764,767;  237,844; 1836,954;158,02063
1067,25; 2668,921;  215,613; 1785,877;156,23542
1067,80; 2695,152;  237,921; 1796,954;157,61252
1068,34; 2674,075;  248,767; 1771,646;159,25809
1068,88; 2601,460;  213,998; 1706,108;160,00577
1069,42; 2627,767;  244,767; 1734,338;159,97893
1069,96; 2522,921;  222,460; 1669,262;159,00321
1070,50; 2544,767;  244,613; 1685,108;159,67810
1071,04; 2471,383;  212,613; 1642,800;157,93529
1071,58; 2467,152;  207,383; 1625,262;159,37675
1072,12; 2426,690;  228,998; 1602,262;160,03428
1072,66; 2408,537;  222,075; 1598,338;158,86940
1073,21; 2397,767;  233,075; 1599,185;158,45671
1073,75; 2350,537;  230,613; 1565,723;158,78270
1074,29; 2350,690;  231,306; 1535,031;162,56378
1074,83; 2318,075;  254,921; 1532,031;161,54869
1075,37; 2269,460;  242,844; 1509,723;159,96915
1075,91; 2275,152;  235,690; 1501,415;161,12991
1076,45; 2228,844;  232,306; 1479,646;160,06364
1076,99; 2179,921;  241,306; 1447,646;160,70219
1077,53; 2143,998;  218,690; 1411,415;161,42092
1078,07; 2144,306;  229,306; 1391,800;164,73200
1078,61; 2117,306;  231,075; 1400,877;161,24360
1079,15; 2084,613;  234,690; 1371,185;162,77452
1079,69; 2056,537;  231,152; 1373,031;159,85799
1080,23; 2054,613;  242,229; 1359,108;162,27227
1080,77; 2052,767;  262,921; 1342,338;165,81596
1081,31; 1984,690;  221,537; 1303,800;162,91355
1081,85; 2009,998;  250,229; 1321,877;164,21149
1082,39; 1958,460;  224,537; 1273,569;165,28780
1082,93; 1961,998;  233,921; 1279,954;165,20296
1083,47; 1888,921;  215,306; 1246,415;162,31207
1084,01; 1892,767;  241,844; 1255,569;162,85709
1084,55; 1862,460;  219,537; 1200,723;167,44248
1085,09; 1856,075;  240,690; 1224,492;164,19816
1085,63; 1798,844;  228,460; 1193,569;162,71567
1086,17; 1792,075;  220,229; 1190,185;162,05338
1086,71; 1750,998;  220,844; 1162,185;162,55054
1087,24; 1776,075;  242,152; 1178,723;163,78073
1087,78; 1743,921;  237,844; 1150,338;165,05057
1088,32; 1695,152;  218,075; 1108,646;165,85726
1088,86; 1727,460;  248,229; 1161,108;162,04021
1089,40; 1684,921;  230,152; 1121,185;163,26777
1089,94; 1648,152;  207,075; 1063,185;168,32855
1090,48; 1648,383;  227,537; 1081,492;166,38405
1091,02; 1634,537;  241,460; 1069,569;168,22373
1091,56; 1623,383;  235,152; 1079,185;164,47595
1092,10; 1569,229;  217,844; 1040,492;164,27251
1092,63; 1589,306;  249,537; 1062,492;164,80223
1093,17; 1556,998;  242,613; 1025,954;167,79227
1093,71; 1524,844;  226,229;  997,800;168,30792
1094,25; 1520,383;  247,690; 1043,954;159,83307
1094,79; 1481,998;  224,613;  975,800;167,38647
1095,33; 1492,537;  226,844;  963,262;171,87161
1095,87; 1473,921;  237,383;  957,492;171,71531
1096,40; 1412,537;  209,690;  936,415;165,51600
1096,94; 1434,613;  231,921;  949,877;167,51621
1097,48; 1421,844;  243,306;  939,954;169,17271
1098,02; 1385,229;  229,844;  931,723;164,61311
1098,56; 1349,306;  202,690;  887,646;167,39992
1099,10; 1335,613;  208,690;  894,185;164,39571
1099,63; 1339,613;  211,229;  889,185;166,43927
1100,17; 1318,998;  239,613;  890,569;165,81535
1100,71; 1318,844;  258,767;  887,723;168,54554

