
Integration time [ms]: 120,000
Averaging Nr. [scans]: 13
Smoothing Nr. [pixels]: 0
Data measured with spectrometer [name]: 2009305U1
Wave   ;Sample   ;Dark     ;Reference;Reflectance
[nm]   ;[counts] ;[counts] ;[counts] ;[%]

 175,72;  204,628;  201,729;  206,872;56,35641
 176,32;  219,721;  218,186;  213,932; 0,00000
 176,92;  257,915;  251,189;  249,591; 0,00000
 177,52;  255,001;  249,113;  256,862;75,97404
 178,12;  234,528;  238,725;  218,250; 0,00000
 178,72;  246,982;  262,954;  247,860; 0,00000
 179,32;  250,312;  250,340;  247,043; 0,00000
 179,92;  243,177;  250,342;  243,729; 0,00000
 180,52;  241,778;  238,347;  240,736;143,61932
 181,12;  256,974;  258,034;  250,818; 0,00000
 181,73;  270,738;  272,650;  268,353; 0,00000
 182,33;  345,721;  341,884;  351,655;39,26825
 182,93;  266,211;  275,575;  267,614; 0,00000
 183,53;  226,470;  239,569;  226,246; 0,00000
 184,13;  236,294;  234,262;  230,039; 0,00000
 184,73;  273,975;  277,568;  272,393; 0,00000
 185,33;  262,497;  232,615;  345,677;26,42923
 185,93;  268,848;  245,073;  348,991;22,87876
 186,53;  283,382;  251,383;  367,173;27,63548
 187,13;  306,729;  271,464;  401,161;27,19043
 187,73;  263,942;  239,766;  346,389;22,67368
 188,33;  275,849;  238,149;  355,651;32,08434
 188,93;  276,935;  255,681;  354,167;21,58054
 189,53;  276,146;  258,060;  373,340;15,68871
 190,13;  308,596;  290,822;  407,960;15,17415
 190,73;  250,733;  217,519;  341,075;26,88166
 191,34;  285,730;  266,833;  379,465;16,77745
 191,94;  267,382;  235,608;  351,373;27,44689
 192,54;  285,890;  251,390;  369,660;29,17039
 193,14;  290,216;  263,925;  377,413;23,16616
 193,74;  298,494;  263,078;  378,201;30,76328
 194,34;  290,822;  260,310;  380,482;25,39004
 194,94;  256,810;  223,386;  339,780;28,71633
 195,54;  244,433;  203,693;  312,414;37,47274
 196,14;  247,149;  220,157;  353,619;20,22398
 196,74;  247,443;  214,922;  338,653;26,28305
 197,34;  235,933;  196,698;  319,609;31,92131
 197,94;  259,337;  237,079;  365,572;17,32222
 198,54;  264,509;  247,080;  380,114;13,10068
 199,14;  243,150;  210,546;  368,519;20,63897
 199,74;  229,863;  207,392;  366,691;14,10619
 200,34;  241,778;  197,469;  355,354;28,06381
 200,94;  263,718;  228,390;  407,380;19,73715
 201,54;  251,400;  222,622;  409,009;15,43981
 202,14;  288,681;  243,778;  440,040;22,87902
 202,74;  259,748;  221,853;  441,142;17,28077
 203,34;  243,645;  198,087;  459,415;17,43323
 203,94;  216,323;  171,394;  466,821;15,20831
 204,54;  283,599;  242,156;  543,763;13,74044
 205,14;  264,433;  198,315;  561,400;18,21013
 205,74;  308,758;  232,933;  638,687;18,68722
 206,34;  266,713;  204,470;  636,056;14,42175
 206,94;  288,854;  218,547;  688,144;14,97178
 207,54;  248,521;  174,778;  718,661;13,55859
 208,14;  281,027;  205,317;  793,743;12,86649
 208,74;  295,318;  214,161;  871,081;12,35421
 209,34;  289,646;  198,623;  933,736;12,38216
 209,94;  317,734;  210,315; 1008,119;13,46428
 210,54;  323,371;  210,240; 1112,466;12,53908
 211,14;  339,077;  213,392; 1206,006;12,66199
 211,73;  347,677;  204,314; 1298,510;13,10211
 212,33;  361,389;  225,698; 1403,055;11,52509
 212,93;  364,277;  204,468; 1488,353;12,44723
 213,53;  344,339;  178,853; 1530,484;12,24342
 214,13;  377,198;  193,089; 1619,086;12,91092
 214,73;  378,296;  189,855; 1644,501;12,95444
 215,33;  372,349;  170,469; 1671,042;13,45353
 215,93;  407,436;  199,010; 1779,950;13,18368
 216,53;  378,288;  175,314; 1843,429;12,16781
 217,13;  463,291;  219,164; 2025,749;13,51318
 217,73;  466,863;  195,703; 2217,986;13,40860
 218,33;  453,910;  149,166; 2386,125;13,62314
 218,93;  522,264;  177,401; 2679,163;13,78483
 219,53;  552,931;  199,705; 2920,374;12,98307
 220,13;  572,901;  159,475; 3206,578;13,56785
 220,73;  617,160;  187,392; 3517,693;12,90477
 221,32;  670,395;  188,392; 3874,081;13,07770
 221,92;  740,199;  202,551; 4264,174;13,23726
 222,52;  754,824;  174,934; 4661,073;12,92626
 223,12;  822,809;  181,165; 5075,819;13,10909
 223,72;  881,676;  195,319; 5442,991;13,07928
 224,32;  925,249;  192,626; 5845,976;12,95909
 224,92;  931,662;  189,088; 6108,737;12,54422
 225,52;  995,336;  203,008; 6452,854;12,67756
 226,12; 1012,245;  185,856; 6698,534;12,68894
 226,72; 1026,264;  158,702; 7028,198;12,62919
 227,31; 1059,138;  155,240; 7354,420;12,55556
 227,91; 1132,823;  192,316; 7785,953;12,38547
 228,51; 1169,360;  178,083; 8109,623;12,49792
 229,11; 1205,841;  184,394; 8495,572;12,29004
 229,71; 1251,053;  186,699; 8716,250;12,47843
 230,31; 1272,632;  179,473; 9075,403;12,28830
 230,91; 1308,541;  166,235; 9391,911;12,38181
 231,51; 1308,044;  172,318; 9652,900;11,97950
 232,10; 1368,344;  171,474; 9976,672;12,20648
 232,70; 1407,284;  186,926;10145,097;12,25484
 233,30; 1484,759;  202,625;10365,435;12,61593
 233,90; 1458,633;  176,164;10513,657;12,40599
 234,50; 1473,558;  175,780;10561,473;12,49583
 235,10; 1494,969;  173,857;10664,121;12,59370
 235,70; 1533,316;  198,008;10648,200;12,77784
 236,29; 1538,021;  191,392;10629,618;12,90095
 236,89; 1523,754;  159,543;10478,016;13,22105
 237,49; 1557,221;  194,625;10431,184;13,31108
 238,09; 1541,328;  184,547;10154,902;13,60815
 238,69; 1562,554;  225,388; 9983,329;13,70336
 239,29; 1547,224;  176,470; 9652,505;14,46548
 239,89; 1533,418;  195,466; 9366,333;14,58915
 240,48; 1484,279;  177,163; 8974,124;14,85873
 241,08; 1474,190;  181,701; 8634,289;15,29104
 241,68; 1504,625;  192,009; 8356,134;16,07785
 242,28; 1492,567;  174,394; 8035,117;16,76910
 242,88; 1513,219;  219,166; 7828,258;17,00667
 243,48; 1527,123;  211,086; 7510,243;18,02999
 244,07; 1540,697;  192,316; 7275,406;19,03663
 244,67; 1586,376;  193,163; 7151,240;20,02296
 245,27; 1605,754;  196,314; 6989,894;20,74664
 245,87; 1647,346;  220,242; 6894,092;21,38351
 246,47; 1701,110;  191,545; 6923,749;22,42305
 247,06; 1744,815;  182,239; 6907,078;23,23588
 247,66; 1824,824;  174,855; 6941,503;24,38384
 248,26; 1940,113;  213,237; 7050,026;25,25857
 248,86; 2030,383;  202,776; 7247,862;25,94158
 249,46; 2095,716;  155,010; 7422,575;26,70366
 250,05; 2297,699;  205,393; 7732,627;27,79648
 250,65; 2419,188;  169,391; 8052,190;28,54059
 251,25; 2598,249;  188,700; 8492,681;29,01679
 251,85; 2778,268;  186,159; 8978,281;29,48218
 252,44; 2972,654;  152,930; 9520,688;30,10031
 253,04; 3281,544;  201,854;10265,000;30,60366
 253,64; 3472,906;  154,236;10900,597;30,88180
 254,24; 3797,524;  204,009;11741,224;31,14717
 254,84; 4107,177;  179,779;12519,882;31,82630
 255,43; 4412,105;  179,700;13422,613;31,95977
 256,03; 4749,891;  185,775;14398,265;32,11342
 256,63; 5073,936;  193,389;15343,007;32,21564
 257,23; 5328,771;  169,928;16095,163;32,39414
 257,82; 5656,786;  188,465;17044,616;32,44110
 258,42; 5916,540;  147,079;17784,581;32,71132
 259,02; 6244,576;  201,469;18712,709;32,64561
 259,62; 6407,576;  169,002;19302,986;32,60468
 260,21; 6595,371;  188,699;19810,500;32,65078
 260,81; 6735,512;  190,009;20287,806;32,56826
 261,41; 6875,577;  163,388;20645,074;32,77166
 262,01; 7047,497;  203,617;21237,688;32,53712
 262,60; 7017,079;  169,697;21451,470;32,17486
 263,20; 7083,785;  173,852;21765,449;32,00288
 263,80; 7144,837;  201,232;21997,474;31,85689
 264,40; 7072,525;  169,386;22117,392;31,45223
 264,99; 7154,082;  187,385;22332,574;31,45919
 265,59; 7125,172;  175,691;22368,883;31,31357
 266,19; 7075,011;  172,078;22546,184;30,85233
 266,78; 7101,053;  213,000;22692,956;30,64087
 267,38; 7041,751;  193,076;22721,709;30,39987
 267,98; 6955,864;  182,692;22678,223;30,10897
 268,58; 6868,241;  189,460;22711,392;29,65456
 269,17; 6817,088;  184,074;22772,031;29,36527
 269,77; 6663,874;  184,850;22568,779;28,94498
 270,37; 6575,883;  160,385;22470,206;28,75638
 270,96; 6483,761;  220,080;22415,265;28,22090
 271,56; 6292,195;  181,851;22134,075;27,83474
 272,16; 6176,847;  182,618;21964,063;27,51988
 272,75; 6082,374;  187,926;21924,911;27,11714
 273,35; 6006,541;  192,850;21843,823;26,85187
 273,95; 5922,395;  180,849;21764,698;26,60112
 274,54; 5817,731;  161,470;21761,566;26,18628
 275,14; 5828,788;  200,773;22189,200;25,59535
 275,74; 5759,920;  154,926;22167,808;25,46234
 276,33; 5833,263;  205,850;22504,881;25,23613
 276,93; 5794,079;  188,855;22848,853;24,73621
 277,53; 5856,042;  195,238;23368,098;24,42860
 278,12; 5949,956;  178,775;23806,277;24,42569
 278,72; 6034,494;  219,238;24373,847;24,07514
 279,32; 6113,484;  186,391;24798,059;24,08245
 279,91; 6218,828;  159,468;25562,541;23,85286
 280,51; 6300,675;  188,469;25967,321;23,71016
 281,11; 6455,164;  180,006;26630,763;23,72393
 281,70; 6536,465;  167,698;27049,153;23,69205
 282,30; 6651,887;  171,312;27551,998;23,66842
 282,90; 6699,660;  173,851;27939,485;23,50319
 283,49; 6854,331;  198,311;28439,687;23,56833
 284,09; 6976,759;  201,390;28910,339;23,60020
 284,69; 7048,005;  211,314;29098,297;23,66703
 285,28; 7140,661;  197,159;29476,937;23,71433
 285,88; 7275,619;  245,541;29721,166;23,85048
 286,47; 7288,331;  186,235;29759,467;24,01528
 287,07; 7389,463;  209,930;29811,041;24,25427
 287,67; 7493,277;  202,163;29911,397;24,54157
 288,26; 7576,163;  176,853;29846,860;24,93869
 288,86; 7707,063;  181,159;29866,006;25,35268
 289,46; 7886,331;  192,698;30055,269;25,76346
 290,05; 7993,613;  175,470;30059,663;26,16147
 290,65; 8234,710;  193,235;30239,781;26,76339
 291,24; 8453,574;  191,699;30304,873;27,43608
 291,84; 8660,782;  211,466;30425,700;27,96469
 292,44; 8842,514;  188,702;30600,545;28,45540
 293,03; 9144,242;  261,776;30732,753;29,15058
 293,63; 9228,996;  177,235;30773,553;29,58448
 294,22; 9395,419;  198,544;30973,729;29,88406
 294,82; 9481,849;  183,617;30975,077;30,19744
 295,41; 9549,773;  170,390;30638,076;30,78469
 296,01; 9642,844;  216,464;30605,787;31,01872
 296,61; 9617,914;  210,622;30362,350;31,19984
 297,20; 9542,469;  199,157;30000,191;31,35231
 297,80; 9551,399;  201,316;29818,216;31,57009
 298,39; 9378,729;  183,313;29490,512;31,37597
 298,99; 9405,195;  194,619;29344,735;31,59705
 299,58; 9390,278;  204,009;29207,145;31,67336
 300,18; 9288,910;  198,624;28990,588;31,57230
 300,78; 9152,077;  178,007;28703,929;31,45935
 301,37; 9101,905;  194,462;28642,972;31,31075
 301,97; 9137,205;  192,929;28648,490;31,43244
 302,56; 9058,293;  193,158;28653,764;31,14879
 303,16; 9002,921;  170,004;28481,819;31,19869
 303,75; 8958,974;  189,315;28525,061;30,94910
 304,35; 9101,764;  181,472;28720,066;31,25694
 304,94; 9016,761;  181,699;28731,637;30,94599
 305,54; 8976,549;  218,546;28672,081;30,78002
 306,13; 8877,599;  161,934;28573,068;30,67694
 306,73; 8831,210;  158,548;28317,031;30,79946
 307,33; 8802,187;  204,317;28321,045;30,57920
 307,92; 8810,983;  193,084;28380,531;30,57354
 308,52; 8852,778;  170,696;28741,356;30,38810
 309,11; 9036,656;  178,541;29205,878;30,51646
 309,71; 9066,522;  171,617;29443,116;30,38760
 310,30; 9124,994;  172,776;29648,606;30,37139
 310,90; 9257,071;  208,853;29955,991;30,41711
 311,49; 9226,341;  185,314;30028,673;30,29494
 312,09; 9217,266;  161,008;30225,597;30,12267
 312,68; 9423,031;  231,930;30664,330;30,20170
 313,28; 9368,907;  167,314;30631,838;30,20429
 313,87; 9386,184;  154,776;30809,032;30,11460
 314,47; 9409,647;  172,157;30963,772;30,00002
 315,06; 9479,106;  159,391;31159,668;30,06333
 315,66; 9529,036;  174,547;31275,674;30,07765
 316,25; 9492,035;  156,620;31163,214;30,10784
 316,85; 9525,696;  151,778;31200,812;30,19069
 317,44; 9574,131;  179,387;31341,615;30,14786
 318,04; 9589,862;  164,466;31348,802;30,22478
 318,63; 9576,696;  162,471;31389,074;30,14809
 319,22; 9591,587;  188,158;31575,797;29,95902
 319,82; 9630,207;  185,621;31708,679;29,96088
 320,41; 9623,115;  187,158;31426,645;30,20522
 321,01; 9678,900;  197,008;31533,415;30,25839
 321,60; 9744,917;  189,390;31561,672;30,45850
 322,20; 9706,924;  169,315;31579,831;30,36438
 322,79; 9775,438;  204,391;31614,250;30,47147
 323,39; 9831,681;  181,472;31629,533;30,68618
 323,98; 9781,087;  168,930;31550,158;30,63028
 324,58; 9838,264;  170,619;31501,168;30,85693
 325,17; 9877,000;  174,543;31304,557;31,16753
 325,76; 9913,806;  206,776;31146,621;31,37388
 326,36; 9820,134;  171,239;30813,671;31,48867
 326,95; 9813,367;  200,390;30497,135;31,72941
 327,55; 9719,676;  163,774;30140,191;31,87806
 328,14; 9738,716;  168,855;29824,158;32,27032
 328,74; 9664,657;  199,004;29444,362;32,36634
 329,33; 9687,372;  198,931;29099,182;32,83169
 329,92; 9573,750;  163,464;28602,332;33,08952
 330,52; 9445,499;  184,240;28056,741;33,22723
 331,11; 9374,710;  173,390;27658,869;33,47702
 331,71; 9323,443;  179,929;27078,464;33,99261
 332,30; 9248,376;  201,083;26683,099;34,16391
 332,89; 9191,334;  237,161;26152,787;34,55125
 333,49; 9085,392;  187,159;25730,178;34,83626
 334,08; 9061,959;  176,851;25392,148;35,23698
 334,68; 8995,263;  185,928;24979,661;35,53049
 335,27; 8954,701;  201,086;24699,617;35,73118
 335,86; 9021,864;  229,544;24407,330;36,36528
 336,46; 8994,333;  201,625;24132,917;36,74147
 337,05; 9038,815;  178,698;23990,860;37,20837
 337,65; 9045,365;  166,851;23853,243;37,48360
 338,24; 9191,322;  226,161;23820,953;37,99636
 338,83; 9274,776;  209,546;23747,210;38,51372
 339,43; 9304,822;  166,158;23655,207;38,90606
 340,02; 9456,123;  179,542;23628,981;39,55993
 340,61; 9588,697;  175,622;23638,933;40,11827
 341,21; 9768,734;  213,312;23703,977;40,67753
 341,80; 9811,295;  189,082;23583,139;41,13101
 342,40; 9962,722;  191,932;23701,383;41,56112
 342,99;10112,719;  184,623;23787,787;42,06256
 343,58;10331,372;  187,392;23957,336;42,67566
 344,18;10571,229;  197,239;24025,125;43,53718
 344,77;10788,742;  175,542;24256,853;44,07235
 345,36;11027,367;  158,083;24541,058;44,57735
 345,96;11361,806;  208,239;24819,807;45,31839
 346,55;11598,467;  181,703;25003,141;45,99558
 347,14;11877,488;  169,778;25317,973;46,55487
 347,74;12199,696;  150,628;25676,600;47,20317
 348,33;12597,260;  178,089;26274,468;47,58963
 348,92;13025,815;  197,629;26750,416;48,31201
 349,52;13449,558;  164,167;27227,383;49,09021
 350,11;13736,502;  175,773;27467,218;49,68857
 350,70;13898,085;  181,622;27518,189;50,17624
 351,29;13933,851;  167,461;27205,563;50,91478
 351,89;14145,247;  187,156;27278,374;51,52257
 352,48;14322,396;  152,237;27344,522;52,11095
 353,07;14463,001;  183,548;27195,951;52,86258
 353,67;14567,618;  191,630;27196,094;53,23560
 354,26;14619,282;  177,778;27049,324;53,74273
 354,85;14704,154;  190,931;26835,017;54,47071
 355,45;14742,852;  168,313;26713,111;54,90544
 356,04;14860,088;  182,548;26689,894;55,37159
 356,63;14949,077;  218,467;26476,589;56,09925
 357,22;15014,887;  191,924;26303,231;56,76837
 357,82;15157,703;  184,463;26171,051;57,61911
 358,41;15226,534;  207,160;26032,662;58,15714
 359,00;15223,692;  173,004;25832,557;58,65530
 359,60;15303,221;  187,238;25782,294;59,05821
 360,19;15406,580;  193,548;25704,162;59,63413
 360,78;15482,008;  191,313;25485,157;60,45224
 361,37;15496,337;  177,159;25361,021;60,82934
 361,97;15603,164;  191,852;25288,609;61,40758
 362,56;15547,841;  171,388;24946,234;62,06478
 363,15;15614,942;  217,544;24762,617;62,73112
 363,74;15565,462;  192,157;24476,679;63,30495
 364,34;15408,493;  205,773;24153,881;63,48193
 364,93;15260,090;  177,696;23823,975;63,78337
 365,52;15200,633;  154,467;23477,638;64,51167
 366,11;15102,948;  187,774;23182,062;64,86469
 366,71;15021,818;  191,389;22803,643;65,58581
 367,30;14891,472;  188,467;22570,511;65,69108
 367,89;14932,801;  227,393;22379,572;66,38358
 368,48;14887,657;  202,234;22074,561;67,14157
 369,07;14732,162;  189,391;21656,189;67,74541
 369,67;14613,943;  210,926;21477,410;67,72637
 370,26;14522,280;  175,468;21171,532;68,33096
 370,85;14453,071;  182,082;20922,749;68,80680
 371,44;14384,709;  188,237;20753,120;69,03259
 372,03;14315,672;  163,235;20556,770;69,39668
 372,63;14205,489;  158,775;20244,119;69,93515
 373,22;14129,739;  175,930;20036,179;70,25999
 373,81;13997,123;  159,236;19782,321;70,51841
 374,40;13936,587;  173,778;19460,047;71,36066
 374,99;13821,128;  176,467;19282,864;71,41410
 375,59;13750,038;  172,085;19059,643;71,88835
 376,18;13757,963;  201,005;18980,250;72,19118
 376,77;13723,849;  196,006;18709,635;73,06964
 377,36;13655,074;  208,390;18763,235;72,46993
 377,95;13540,860;  191,543;18407,371;73,28416
 378,55;13511,669;  172,931;18324,569;73,48504
 379,14;13536,434;  186,159;18193,346;74,13859
 379,73;13558,748;  190,005;18150,868;74,43263
 380,32;13594,573;  184,775;18138,729;74,68994
 380,91;13554,926;  157,311;18041,879;74,91160
 381,50;13586,246;  201,158;18028,560;75,08154
 382,10;13534,957;  168,621;17937,882;75,22168
 382,69;13555,130;  168,621;17884,833;75,56079
 383,28;13568,917;  202,466;17890,255;75,56881
 383,87;13567,868;  176,542;17716,016;76,34965
 384,46;13498,307;  170,540;17679,514;76,11964
 385,05;13619,760;  208,696;17677,748;76,77042
 385,64;13620,178;  192,235;17644,677;76,94020
 386,24;13566,804;  163,386;17642,555;76,68224
 386,83;13638,725;  199,540;17686,201;76,85392
 387,42;13731,758;  196,851;17786,251;76,94923
 388,01;13951,939;  194,076;17924,233;77,59584
 388,60;14118,310;  191,925;18158,714;77,51182
 389,19;14291,866;  177,997;18305,830;77,85745
 389,78;14503,591;  179,228;18564,528;77,91204
 390,37;14834,880;  240,000;18893,698;78,24122
 390,96;14908,018;  189,001;18997,024;78,25924
 391,56;15027,773;  194,919;19208,103;78,01352
 392,15;15292,737;  184,690;19430,345;78,50108
 392,74;15362,069;  159,069;19627,742;78,08955
 393,33;15598,414;  183,688;19819,125;78,50463
 393,92;15892,322;  193,298;20196,938;78,48084
 394,51;16010,628;  169,303;20392,440;78,33268
 395,10;16156,373;  207,062;20651,962;78,01120
 395,69;16280,497;  202,678;20752,398;78,23863
 396,28;16365,637;  208,983;20771,541;78,57317
 396,87;16422,708;  208,363;20898,450;78,36770
 397,46;16471,950;  215,129;20943,923;78,42628
 398,06;16637,607;  223,279;21139,960;78,47482
 398,65;16633,854;  204,578;21271,406;77,98647
 399,24;16784,896;  225,422;21394,542;78,22467
 399,83;16727,288;  198,331;21390,949;77,99393
 400,42;16800,060;  254,088;21553,748;77,68186
 401,01;16877,861;  213,074;21665,870;77,68119
 401,60;16899,339;  228,285;21657,881;77,79453
 402,19;16769,751;  249,039;21683,120;77,07684
 402,78;16882,454;  253,477;21718,293;77,47086
 403,37;16733,611;  237,763;21500,734;77,58016
 403,96;16667,183;  234,660;21369,983;77,74910
 404,55;16577,249;  263,323;21325,723;77,45521
 405,14;16444,253;  239,527;21175,396;77,40173
 405,73;16322,494;  256,881;21100,947;77,07524
 406,32;16342,732;  257,091;21055,753;77,33979
 406,91;16088,551;  238,759;20761,509;77,23035
 407,50;15985,659;  263,593;20641,761;77,15152
 408,09;15722,544;  237,815;20373,194;76,90310
 408,68;15651,588;  246,270;20291,234;76,85381
 409,27;15531,753;  245,355;20085,614;77,04737
 409,86;15414,871;  256,989;20002,333;76,76687
 410,45;15418,009;  288,928;19955,774;76,92683
 411,04;15248,147;  289,559;19904,468;76,26132
 411,63;15091,049;  273,350;19624,100;76,57429
 412,22;14906,344;  280,523;19482,421;76,16862
 412,81;14688,191;  293,145;19202,463;76,12673
 413,40;14381,337;  298,077;18947,508;75,51576
 413,99;14236,085;  328,535;18631,139;75,98673
 414,58;13864,580;  271,614;18284,849;75,46100
 415,17;13705,058;  279,991;18101,481;75,33078
 415,76;13625,828;  256,368;17999,166;75,35147
 416,35;13424,874;  258,680;17838,897;74,89211
 416,94;13401,432;  295,139;17844,585;74,68209
 417,53;13504,633;  266,761;18068,435;74,36307
 418,12;13508,283;  261,609;18120,991;74,17207
 418,71;13804,987;  299,923;18412,108;74,56341
 419,30;13843,005;  278,225;18537,049;74,29164
 419,89;13942,130;  270,303;18741,244;74,01803
 420,48;14115,263;  290,231;18964,708;74,03170
 421,07;14135,161;  282,078;19006,851;73,98265
 421,66;14083,756;  257,159;19023,831;73,67634
 422,25;14064,265;  270,782;19022,155;73,55986
 422,84;13981,310;  301,245;19019,094;73,08567
 423,43;13788,434;  279,781;18735,300;73,19574
 424,02;13603,794;  302,397;18536,212;72,94906
 424,60;13312,449;  262,406;18159,979;72,91515
 425,19;13108,388;  274,402;17884,214;72,87974
 425,78;12982,072;  288,248;17869,031;72,20283
 426,37;12895,486;  290,329;17674,825;72,50804
 426,96;12752,661;  276,406;17574,765;72,12392
 427,55;12659,641;  262,565;17458,296;72,09392
 428,14;12465,178;  276,951;17277,370;71,69368
 428,73;12283,472;  281,178;17176,404;71,03956
 429,32;12264,624;  289,944;17161,119;70,97716
 429,91;12313,583;  302,947;17156,620;71,26420
 430,50;12143,195;  287,873;16968,792;71,07116
 431,08;12029,528;  301,183;16859,955;70,82859
 431,67;11920,410;  337,494;16810,809;70,31321
 432,26;11760,995;  350,957;16658,199;69,96914
 432,85;11548,969;  376,957;16259,013;70,34361
 433,44;11239,677;  372,883;15957,398;69,72815
 434,03;11046,249;  388,580;15678,711;69,70293
 434,62;10742,043;  356,807;15263,888;69,66646
 435,21;10565,247;  369,419;15092,581;69,25026
 435,79;10460,036;  378,809;14993,266;68,98120
 436,38;10359,438;  360,429;14891,432;68,81155
 436,97;10244,495;  363,276;14828,789;68,30881
 437,56;10124,814;  357,591;14579,542;68,67709
 438,15;10022,168;  330,897;14590,165;67,96472
 438,74; 9980,991;  347,051;14560,189;67,78194
 439,33;10039,773;  329,127;14514,915;68,45334
 439,91; 9968,098;  288,284;14558,280;67,83333
 440,50;10021,845;  339,669;14649,975;67,65876
 441,09;10022,192;  341,211;14755,578;67,16202
 441,68; 9976,220;  323,215;14746,260;66,92765
 442,27; 9942,158;  313,368;14780,559;66,55605
 442,86; 9908,228;  285,530;14782,373;66,37788
 443,44; 9960,246;  302,067;14802,621;66,60559
 444,03; 9977,626;  356,300;14838,956;66,43343
 444,62; 9840,986;  306,069;14699,606;66,24443
 445,21; 9719,597;  315,068;14587,723;65,89194
 445,80; 9653,603;  345,919;14524,583;65,64570
 446,39; 9568,377;  356,302;14305,874;66,03841
 446,97; 9322,469;  292,385;14107,313;65,36468
 447,56; 9186,732;  312,927;13923,327;65,19870
 448,15; 9041,347;  304,846;13730,790;65,07178
 448,74; 8929,517;  322,693;13558,650;65,02608
 449,33; 8772,321;  317,773;13412,294;64,56554
 449,91; 8634,536;  316,162;13256,983;64,28012
 450,50; 8501,063;  299,238;12957,665;64,79340
 451,09; 8378,537;  319,854;12948,808;63,81117
 451,68; 8339,354;  331,779;12840,793;64,01444
 452,26; 8238,982;  330,781;12763,121;63,60991
 452,85; 8179,555;  309,241;12702,998;63,50225
 453,44; 8159,665;  337,093;12715,419;63,19572
 454,03; 8074,531;  305,474;12641,459;62,97881
 454,61; 8087,353;  302,171;12612,877;63,23912
 455,20; 8177,876;  334,173;12819,368;62,82403
 455,79; 8133,773;  334,631;12800,040;62,56628
 456,38; 8170,514;  334,869;12835,957;62,67971
 456,97; 8141,150;  314,175;12930,733;62,03732
 457,55; 8155,762;  327,024;12986,367;61,84158
 458,14; 8115,771;  359,328;12929,255;61,70635
 458,73; 8047,296;  336,255;12858,286;61,57979
 459,31; 8075,419;  360,105;12888,016;61,58500
 459,90; 8065,690;  365,642;13009,337;60,90030
 460,49; 8151,669;  401,179;13084,693;61,10680
 461,08; 8132,880;  331,646;13146,916;60,87452
 461,66; 8183,790;  333,874;13133,433;61,32958
 462,25; 8167,480;  346,724;13253,540;60,59400
 462,84; 8155,875;  372,415;13264,835;60,37238
 463,43; 8103,396;  312,728;13273,642;60,10894
 464,01; 8103,014;  335,346;13300,720;59,91087
 464,60; 8109,547;  382,881;13257,123;60,01647
 465,19; 7945,630;  310,193;13024,885;60,05208
 465,77; 7871,643;  346,195;12957,829;59,67068
 466,36; 7854,190;  355,190;12871,454;59,91405
 466,95; 7649,566;  338,421;12568,117;59,78191
 467,53; 7473,560;  349,274;12329,878;59,46517
 468,12; 7313,135;  370,198;12130,524;59,03694
 468,71; 7201,751;  358,578;11902,890;59,27745
 469,29; 7045,484;  329,044;11685,581;59,14162
 469,88; 6885,675;  343,892;11486,547;58,70938
 470,47; 6965,922;  405,357;11586,317;58,67622
 471,06; 6902,652;  349,127;11501,943;58,76117
 471,64; 6884,466;  352,280;11596,839;58,09197
 472,23; 6933,724;  321,594;11583,969;58,70991
 472,81; 6951,236;  323,437;11719,893;58,15667
 473,40; 6995,766;  338,671;11817,928;57,99238
 473,99; 7134,738;  438,979;12040,937;57,71232
 474,57; 7114,882;  340,133;12159,994;57,31665
 475,16; 7212,493;  360,361;12218,465;57,78439
 475,75; 7267,340;  373,289;12384,013;57,39913
 476,33; 7314,326;  377,523;12477,109;57,33091
 476,92; 7319,415;  374,980;12492,704;57,30808
 477,51; 7337,798;  368,983;12553,558;57,19375
 478,09; 7306,127;  376,598;12581,345;56,77732
 478,68; 7241,281;  378,292;12542,433;56,41984
 479,27; 7326,431;  397,751;12597,596;56,79318
 479,85; 7207,344;  370,599;12553,004;56,11983
 480,44; 7280,635;  361,908;12606,505;56,50432
 481,02; 7853,006;  378,757;13796,042;55,70612
 481,61; 8917,670;  402,064;15652,194;55,83956
 482,20; 9514,744;  389,526;16794,488;55,62474
 482,78; 9998,979;  417,446;17518,987;56,02731
 483,37;10198,640;  400,222;18018,243;55,61588
 483,95;10307,512;  423,531;18194,276;55,61940
 484,54;10434,751;  435,063;18409,352;55,63329
 485,13;10295,889;  397,380;18366,598;55,08592
 485,71;10182,812;  376,840;18058,972;55,45695
 486,30;10031,371;  431,071;17894,682;54,97317
 486,88; 9857,212;  442,688;17531,852;55,09060
 487,47; 9487,283;  433,535;16893,254;55,00548
 488,05; 9024,675;  429,767;16157,182;54,64921
 488,64; 8402,094;  425,000;14969,596;54,84576
 489,23; 7484,571;  430,229;13365,258;54,53673
 489,81; 6403,230;  430,538;11432,053;54,28972
 490,40; 5983,522;  382,077;10874,205;53,38713
 490,98; 5851,309;  357,462;10591,516;53,68202
 491,57; 5794,801;  397,999;10567,510;53,06845
 492,15; 5711,993;  373,771;10500,179;52,71585
 492,74; 5664,733;  389,152;10406,749;52,66314
 493,32; 5630,583;  402,616;10315,377;52,73976
 493,91; 5550,972;  379,387;10229,194;52,50443
 494,50; 5542,498;  391,392;10263,082;52,18059
 495,08; 5477,618;  369,546;10121,789;52,37843
 495,67; 5467,208;  390,772;10132,736;52,10896
 496,25; 5355,729;  326,544;10026,577;51,84709
 496,84; 5340,890;  347,156;10026,563;51,59132
 497,42; 5303,198;  330,468; 9959,484;51,64318
 498,01; 5286,102;  367,080; 9902,920;51,58457
 498,59; 5195,501;  317,237; 9817,250;51,35008
 499,18; 5145,951;  328,080; 9836,658;50,66867
 499,76; 5110,851;  354,775; 9744,638;50,65118
 500,35; 5014,589;  347,086; 9572,984;50,59132
 500,93; 4974,699;  325,852; 9577,089;50,25108
 501,52; 4916,841;  330,237; 9470,573;50,17981
 502,10; 4913,654;  346,011; 9496,038;49,91945
 502,69; 4832,098;  334,090; 9334,329;49,97653
 503,27; 4720,690;  317,777; 9147,938;49,86220
 503,86; 4677,278;  327,474; 9068,484;49,76317
 504,44; 4584,854;  311,398; 8999,373;49,18817
 505,03; 4480,109;  292,860; 8772,262;49,38142
 505,61; 4407,954;  315,167; 8645,426;49,13157
 506,19; 4352,120;  329,629; 8542,030;48,98070
 506,78; 4228,195;  302,940; 8351,751;48,76812
 507,36; 4150,564;  305,244; 8211,729;48,63501
 507,95; 4065,030;  326,558; 8031,400;48,52107
 508,53; 4005,586;  308,094; 7979,494;48,19840
 509,12; 3966,146;  315,403; 7891,907;48,18506
 509,70; 3892,445;  323,250; 7716,130;48,27882
 510,29; 3801,524;  341,483; 7629,516;47,47566
 510,87; 3663,230;  305,402; 7432,639;47,11262
 511,46; 3583,483;  302,941; 7270,954;47,08002
 512,04; 3522,349;  300,635; 7159,948;46,96846
 512,62; 3456,042;  326,710; 7059,818;46,47678
 513,21; 3375,332;  290,714; 6856,757;46,97833
 513,79; 3297,195;  306,027; 6749,780;46,41965
 514,38; 3209,228;  290,640; 6580,820;46,39911
 514,96; 3183,047;  329,640; 6537,501;45,96441
 515,54; 3064,551;  284,641; 6411,547;45,37216
 516,13; 3070,036;  316,257; 6365,150;45,52533
 516,71; 3006,949;  293,413; 6187,097;46,04143
 517,30; 2936,909;  298,492; 6100,160;45,47687
 517,88; 2883,920;  317,031; 6059,697;44,69856
 518,46; 2827,078;  286,109; 5948,733;44,87265
 519,05; 2790,452;  296,187; 5904,152;44,47718
 519,63; 2759,793;  312,494; 5837,280;44,29672
 520,22; 2712,833;  314,651; 5819,016;43,56873
 520,80; 2710,836;  310,883; 5738,447;44,21787
 521,38; 2692,507;  334,495; 5731,616;43,69018
 521,97; 2636,594;  293,500; 5657,788;43,67950
 522,55; 2626,367;  318,038; 5672,813;43,10786
 523,13; 2602,175;  293,962; 5633,143;43,23159
 523,72; 2569,858;  301,647; 5659,501;42,33433
 524,30; 2630,762;  324,733; 5771,568;42,33704
 524,89; 2619,751;  294,346; 5746,142;42,65392
 525,47; 2634,533;  313,426; 5873,635;41,74495
 526,05; 2638,427;  278,657; 5922,665;41,81018
 526,64; 2691,459;  323,351; 6001,539;41,70536
 527,22; 2724,872;  318,349; 6135,190;41,37165
 527,80; 2794,089;  347,504; 6262,947;41,35929
 528,39; 2770,715;  301,198; 6336,439;40,91829
 528,97; 2794,637;  295,736; 6473,141;40,45228
 529,55; 2858,455;  310,039; 6638,152;40,27133
 530,14; 2929,856;  333,353; 6782,175;40,26322
 530,72; 2928,119;  306,120; 6881,159;39,87807
 531,30; 2957,474;  294,045; 6980,759;39,83166
 531,89; 3024,502;  316,891; 7098,981;39,92296
 532,47; 3036,570;  340,508; 7179,358;39,42275
 533,05; 3030,761;  327,889; 7206,237;39,29537
 533,63; 3045,538;  346,816; 7320,901;38,69643
 534,22; 3047,842;  307,816; 7328,722;39,02667
 534,80; 3060,570;  338,357; 7389,806;38,60501
 535,38; 3107,935;  412,353; 7502,857;38,01678
 535,97; 3007,486;  318,046; 7407,846;37,93393
 536,55; 3072,751;  371,819; 7484,972;37,97095
 537,13; 3030,566;  378,045; 7457,091;37,47003
 537,71; 3049,871;  408,506; 7522,121;37,13111
 538,30; 3064,395;  432,817; 7585,910;36,78938
 538,88; 3064,264;  469,897; 7660,675;36,07908
 539,46; 3146,958;  541,588; 7831,755;35,73814
 540,05; 3156,091;  557,358; 7964,077;35,08615
 540,63; 3217,416;  596,666; 8108,608;34,88778
 541,21; 3263,594;  625,206; 8260,452;34,55537
 541,79; 3290,776;  662,283; 8345,751;34,20972
 542,38; 3329,242;  681,742; 8498,338;33,87024
 542,96; 3355,124;  701,977; 8638,609;33,42913
 543,54; 3435,616;  719,744; 8861,218;33,35847
 544,12; 3440,334;  696,591; 8941,174;33,27934
 544,70; 3456,417;  672,747; 9030,355;33,30702
 545,29; 3485,287;  683,743; 9151,014;33,08675
 545,87; 3499,929;  650,898; 9205,136;33,30550
 546,45; 3436,407;  605,588; 9222,491;32,85193
 547,03; 3466,344;  598,051; 9248,623;33,15726
 547,62; 3474,705;  568,745; 9376,130;32,99459
 548,20; 3525,299;  568,900; 9540,760;32,95191
 548,78; 3530,032;  525,136; 9614,143;33,06077
 549,36; 3545,732;  493,751; 9815,403;32,74078
 549,94; 3549,095;  453,053; 9900,376;32,77163
 550,53; 3599,661;  468,442;10132,079;32,40207
 551,11; 3632,683;  419,291;10261,657;32,64858
 551,69; 3712,229;  444,135;10523,829;32,42255
 552,27; 3728,737;  415,518;10761,760;32,02341
 552,85; 3819,739;  411,444;11102,716;31,87923
 553,44; 3911,722;  404,904;11349,153;32,04256
 554,02; 3985,409;  418,674;11698,555;31,62032
 554,60; 3989,892;  357,060;11986,584;31,23801
 555,18; 4134,760;  405,981;12299,240;31,35204
 555,76; 4213,510;  371,674;12580,521;31,46764
 556,34; 4305,737;  372,985;12928,483;31,32295
 556,93; 4351,235;  370,058;13278,593;30,84143
 557,51; 4420,730;  355,062;13566,586;30,77365
 558,09; 4529,700;  375,828;13889,695;30,73785
 558,67; 4613,803;  383,525;14243,901;30,52066
 559,25; 4649,994;  387,601;14502,516;30,19779
 559,83; 4700,922;  361,219;14712,948;30,23819
 560,41; 4758,473;  358,446;15061,399;29,92614
 561,00; 4849,852;  370,679;15405,602;29,79179
 561,58; 4884,305;  352,292;15564,740;29,79148
 562,16; 4942,141;  354,675;15827,248;29,64902
 562,74; 4988,252;  333,674;16170,299;29,39122
 563,32; 5061,286;  343,449;16487,161;29,22399
 563,90; 5123,135;  365,371;16893,406;28,78602
 564,48; 5214,901;  366,138;17252,932;28,71334
 565,06; 5338,080;  348,756;17790,633;28,60543
 565,65; 5500,682;  370,452;18364,895;28,51008
 566,23; 5652,540;  407,218;18999,500;28,21237
 566,81; 5768,896;  357,447;19670,421;28,01976
 567,39; 5990,344;  364,527;20526,056;27,90372
 567,97; 6126,353;  383,525;21033,571;27,81025
 568,55; 6281,706;  410,988;21775,741;27,47852
 569,13; 6439,225;  359,756;22407,065;27,57465
 569,71; 6596,582;  358,060;23291,076;27,20323
 570,29; 6909,113;  409,981;24137,455;27,39074
 570,87; 6975,384;  399,290;24791,379;26,95994
 571,45; 7071,377;  392,987;25303,173;26,80988
 572,03; 7131,077;  349,912;25699,267;26,75084
 572,61; 7309,891;  348,911;26399,372;26,72114
 573,20; 7428,387;  381,831;27027,545;26,44536
 573,78; 7539,464;  370,603;27582,819;26,34427
 574,36; 7653,176;  379,218;28016,539;26,31933
 574,94; 7718,887;  428,682;28281,862;26,17369
 575,52; 7665,232;  384,531;28548,552;25,85107
 576,10; 7862,934;  439,607;29100,078;25,90093
 576,68; 7881,850;  424,989;29663,753;25,50334
 577,26; 7993,935;  437,225;30132,352;25,44764
 577,84; 8075,186;  435,603;30649,174;25,28527
 578,42; 8130,238;  487,683;30852,657;25,16898
 579,00; 8089,489;  434,603;30962,554;25,07501
 579,58; 8117,163;  466,528;31145,999;24,93731
 580,16; 8050,051;  454,375;31274,508;24,64518
 580,74; 8034,162;  459,068;31409,801;24,47468
 581,32; 7993,315;  453,221;31471,405;24,30863
 581,90; 7967,698;  475,068;31360,832;24,25917
 582,48; 7964,460;  481,145;31530,012;24,10173
 583,06; 7915,411;  467,759;31645,146;23,88799
 583,64; 7941,068;  465,066;31726,545;23,91442
 584,22; 7806,318;  475,224;31533,208;23,60454
 584,80; 7724,615;  485,606;31311,453;23,48357
 585,38; 7630,363;  497,446;30916,404;23,44892
 585,96; 7591,148;  459,758;31068,098;23,29885
 586,54; 7572,690;  481,454;31036,758;23,20787
 587,12; 7562,640;  462,761;31161,891;23,12730
 587,70; 7568,798;  481,450;31347,237;22,96182
 588,28; 7525,696;  461,915;31385,412;22,84276
 588,86; 7534,985;  476,992;31519,846;22,73629
 589,44; 7475,064;  451,996;31455,187;22,65273
 590,02; 7509,867;  451,610;31719,238;22,57369
 590,59; 7485,952;  430,608;31929,235;22,39889
 591,17; 7552,758;  428,845;32006,144;22,56024
 591,75; 7517,232;  418,766;32126,473;22,38719
 592,33; 7554,706;  443,688;32340,353;22,29392
 592,91; 7571,149;  393,306;32671,434;22,23748
 593,49; 7619,271;  404,307;32802,681;22,26952
 594,07; 7617,995;  422,846;33033,313;22,06392
 594,65; 7666,567;  438,224;33079,333;22,14491
 595,23; 7728,388;  416,687;33409,322;22,16162
 595,81; 7632,435;  408,534;33545,835;21,79991
 596,39; 7664,190;  406,457;33624,196;21,84897
 596,97; 7672,100;  398,690;33796,195;21,77830
 597,55; 7621,613;  392,455;33700,615;21,70387
 598,12; 7615,087;  386,693;33728,117;21,67992
 598,70; 7590,570;  391,768;33818,620;21,53599
 599,28; 7623,028;  404,768;34013,287;21,47747
 599,86; 7578,480;  397,152;33965,114;21,39340
 600,44; 7543,547;  356,461;34064,721;21,32144
 601,02; 7541,562;  417,695;34218,050;21,07631
 601,60; 7537,816;  392,535;34173,150;21,15201
 602,18; 7475,486;  365,462;34152,602;21,04358
 602,75; 7476,247;  373,072;34232,157;20,97864
 603,33; 7539,385;  381,922;34418,757;21,02858
 603,91; 7469,482;  360,540;34325,147;20,93044
 604,49; 7427,528;  398,999;34393,682;20,67538
 605,07; 7437,904;  386,304;34345,533;20,76490
 605,65; 7445,214;  406,615;34436,391;20,68365
 606,23; 7439,107;  464,608;34619,214;20,42038
 606,80; 7439,813;  514,995;34630,071;20,29841
 607,38; 7467,389;  546,155;34683,826;20,27448
 607,96; 7464,230;  597,457;34728,164;20,11905
 608,54; 7438,781;  652,769;34860,921;19,83741
 609,12; 7429,964;  655,918;34823,046;19,82621
 609,70; 7440,977;  695,229;34929,540;19,70464
 610,27; 7400,405;  700,687;35001,084;19,53248
 610,85; 7454,117;  718,844;35003,187;19,64533
 611,43; 7409,315;  717,537;34987,961;19,52639
 612,01; 7336,646;  684,304;34750,674;19,52759
 612,59; 7376,337;  672,460;34737,035;19,67991
 613,16; 7343,367;  644,224;34690,217;19,67674
 613,74; 7269,689;  620,153;34677,271;19,52466
 614,32; 7322,976;  581,846;34577,418;19,82944
 614,90; 7246,787;  533,613;34521,641;19,75158
 615,48; 7203,561;  481,379;34204,658;19,93336
 616,05; 7118,983;  456,916;34228,119;19,72706
 616,63; 7143,866;  469,069;34010,964;19,89988
 617,21; 7159,227;  462,072;33849,657;20,05882
 617,79; 7124,826;  441,765;33792,598;20,03866
 618,36; 7097,239;  445,766;33676,601;20,01597
 618,94; 6991,822;  385,302;33551,233;19,91960
 619,52; 6962,764;  405,916;33249,711;19,96374
 620,10; 6937,163;  393,841;33235,799;19,92366
 620,67; 6927,632;  413,146;33193,170;19,87334
 621,25; 6934,561;  421,151;33002,568;19,99118
 621,83; 6895,770;  406,225;32912,046;19,96426
 622,41; 6971,372;  450,071;32859,540;20,12159
 622,98; 6902,129;  415,300;32663,673;20,11521
 623,56; 6889,182;  418,299;32733,532;20,02425
 624,14; 6863,422;  395,998;32622,603;20,06859
 624,72; 6846,595;  382,686;32516,489;20,11561
 625,29; 6843,871;  382,069;32529,661;20,10042
 625,87; 6907,875;  417,765;32515,376;20,21992
 626,45; 6855,295;  372,914;32343,321;20,27619
 627,02; 6878,039;  383,381;32318,396;20,33711
 627,60; 6840,656;  359,538;32308,045;20,28614
 628,18; 6818,887;  351,841;32275,815;20,25764
 628,76; 6844,009;  361,377;32234,196;20,33906
 629,33; 6866,747;  382,840;32184,576;20,38853
 629,91; 6894,240;  362,688;32279,184;20,46450
 630,49; 6934,245;  388,070;32417,596;20,43794
 631,06; 6918,453;  381,454;32548,609;20,32197
 631,64; 6986,791;  374,453;32413,461;20,63840
 632,22; 6960,032;  339,990;32414,294;20,63971
 632,79; 7052,644;  371,913;32640,346;20,70361
 633,37; 7071,331;  346,150;32776,778;20,73713
 633,95; 7083,432;  342,145;32761,252;20,79418
 634,52; 7111,242;  344,686;32872,044;20,80266
 635,10; 7153,954;  345,072;32898,950;20,91573
 635,68; 7218,672;  340,913;33024,645;21,04337
 636,25; 7195,519;  328,219;33057,515;20,98212
 636,83; 7255,086;  319,454;33308,812;21,02385
 637,41; 7319,016;  339,528;33312,742;21,16714
 637,98; 7358,492;  356,989;33467,304;21,14599
 638,56; 7382,794;  345,911;33589,662;21,16754
 639,13; 7434,678;  336,838;33647,671;21,30790
 639,71; 7517,575;  368,070;33756,978;21,41282
 640,29; 7404,746;  300,377;33598,392;21,33571
 640,86; 7470,965;  324,762;33698,719;21,41251
 641,44; 7522,876;  321,070;33764,584;21,53424
 642,02; 7579,172;  343,454;33797,372;21,62891
 642,59; 7530,084;  330,070;33899,160;21,44834
 643,17; 7618,764;  307,455;33825,564;21,81301
 643,74; 7633,214;  332,147;33897,121;21,75204
 644,32; 7628,356;  350,224;33794,602;21,76190
 644,89; 7717,344;  339,455;33886,236;21,99284
 645,47; 7730,333;  364,301;33822,870;22,01538
 646,05; 7763,475;  338,917;33844,120;22,15942
 646,62; 7736,309;  333,532;33775,754;22,13602
 647,20; 7819,682;  340,609;33996,004;22,22251
 647,77; 7764,824;  309,686;33826,177;22,24319
 648,35; 7778,890;  300,148;33744,657;22,36164
 648,92; 7803,339;  332,917;33742,599;22,36005
 649,50; 7808,328;  299,763;33743,079;22,45161
 650,08; 7832,239;  313,379;33643,868;22,55851
 650,65; 7884,689;  308,148;33873,117;22,57276
 651,23; 8037,677;  287,533;34500,213;22,65284
 651,80; 8323,743;  284,225;35347,924;22,92832
 652,38; 8414,731;  304,918;35719,482;22,89966
 652,95; 8516,335;  285,379;36081,193;22,99418
 653,53; 8624,323;  321,149;36346,443;23,04818
 654,10; 8716,542;  336,841;36454,538;23,20109
 654,68; 8725,223;  300,611;36378,250;23,35134
 655,25; 8750,519;  289,918;36456,422;23,39347
 655,83; 8777,891;  296,688;36537,364;23,40244
 656,40; 8839,726;  332,534;36506,845;23,51722
 656,98; 8863,945;  292,457;36424,171;23,72289
 657,55; 8832,549;  309,842;36363,652;23,63885
 658,13; 8800,306;  295,842;35883,286;23,89737
 658,70; 8800,910;  318,227;35800,074;23,90711
 659,28; 8591,821;  303,304;34942,170;23,92837
 659,85; 8457,579;  323,381;34232,958;23,98791
 660,43; 8488,952;  322,458;34213,516;24,09631
 661,00; 8554,632;  302,304;34383,073;24,21403
 661,58; 8657,390;  295,073;34619,630;24,36249
 662,15; 8744,147;  296,996;34827,265;24,46303
 662,73; 8891,520;  355,997;35099,514;24,56724
 663,30; 8956,432;  313,227;35312,764;24,69520
 663,88; 8990,420;  305,766;35433,783;24,72287
 664,45; 9024,716;  299,920;35638,648;24,68905
 665,03; 9237,858;  297,382;35915,513;25,10091
 665,60; 9423,385;  374,151;36403,609;25,11621
 666,17; 9384,527;  312,920;36516,166;25,05744
 666,75; 9515,438;  298,997;36774,339;25,26759
 667,32; 9645,888;  329,074;37023,204;25,39048
 667,90; 9729,492;  312,921;37335,146;25,43491
 668,47; 9871,096;  323,382;37535,934;25,65724
 669,05; 9968,084;  314,075;37830,722;25,73260
 669,62;10009,303;  291,152;37968,895;25,79282
 670,19;10105,753;  275,767;37959,837;26,08526
 670,77;10211,510;  303,767;38223,317;26,12832
 671,34;10235,268;  295,152;38101,336;26,29230
 671,92;10368,179;  290,229;38389,586;26,45176
 672,49;10392,475;  308,614;38431,759;26,45076
 673,06;10399,541;  266,229;38504,701;26,50030
 673,64;10473,375;  280,537;38489,643;26,67646
 674,21;10497,594;  282,614;38387,662;26,80742
 674,79;10638,352;  309,153;38620,988;26,96086
 675,36;10733,725;  315,230;38708,699;27,13611
 675,93;10711,559;  283,537;38668,257;27,16712
 676,51;10816,163;  308,768;38746,045;27,33647
 677,08;10904,151;  299,307;38908,910;27,46686
 677,65;10992,832;  307,845;38928,621;27,66642
 678,23;11097,435;  305,922;39173,179;27,76505
 678,80;11164,885;  291,153;39328,351;27,85480
 679,38;11236,797;  295,153;39473,293;27,92793
 679,95;11348,939;  304,769;39654,620;28,06661
 680,52;11469,542;  296,000;39890,716;28,21978
 681,10;11652,838;  304,384;40293,888;28,37858
 681,67;11739,673;  299,923;40502,215;28,45547
 682,24;11815,892;  273,615;40588,849;28,63006
 682,82;12025,188;  290,077;41102,484;28,75378
 683,39;12176,561;  326,923;41358,964;28,87899
 683,96;12291,857;  288,308;41611,983;29,04763
 684,54;12488,768;  272,616;41813,848;29,40729
 685,11;12637,449;  310,385;42132,482;29,47500
 685,68;12717,052;  286,308;42546,424;29,41484
 686,25;12805,810;  274,616;42635,059;29,58230
 686,83;12970,798;  273,693;42791,462;29,86306
 687,40;13113,094;  269,386;43071,789;30,00698
 687,97;13298,775;  322,386;43388,808;30,13111
 688,55;13349,609;  258,001;43466,903;30,29841
 689,12;13444,059;  255,617;43682,692;30,36917
 689,69;13568,817;  266,232;43795,787;30,55989
 690,26;13684,420;  284,771;43954,499;30,68407
 690,84;13828,409;  291,771;44189,364;30,83686
 691,41;13916,166;  306,309;44136,844;31,05109
 691,98;14055,847;  294,848;44588,478;31,06767
 692,56;14135,989;  282,694;44574,882;31,27706
 693,13;14290,977;  333,464;44633,593;31,50671
 693,70;14352,196;  302,925;44812,381;31,56469
 694,27;14488,877;  290,387;44812,708;31,89072
 694,84;14504,019;  282,695;45005,957;31,79850
 695,42;14694,007;  334,310;45101,899;32,07610
 695,99;14730,380;  304,079;45276,918;32,07781
 696,56;14745,446;  294,080;45164,014;32,20724
 697,13;14965,665;  298,849;45467,264;32,47140
 697,71;15040,345;  289,003;45588,129;32,56430
 698,28;15102,026;  299,080;45841,302;32,50379
 698,85;15200,014;  268,157;45908,628;32,71626
 699,42;15357,541;  267,772;46123,263;32,90722
 699,99;15413,914;  304,926;46237,128;32,89411
 700,57;15478,825;  297,311;46230,070;33,05161
 701,14;15630,967;  280,311;46376,935;33,30104
 701,71;15735,417;  310,850;46638,800;33,29430
 702,28;15780,483;  294,465;46572,511;33,46299
 702,85;15853,548;  307,081;46653,376;33,54414
 703,43;15990,305;  312,312;46872,549;33,67250
 704,00;16108,986;  327,004;47096,568;33,74413
 704,57;16136,743;  299,312;46970,971;33,93372
 705,14;16248,270;  332,004;47369,682;33,83727
 705,71;16383,951;  342,081;47427,471;34,06974
 706,28;16333,016;  310,850;47394,874;34,02888
 706,86;16528,312;  346,620;47531,354;34,29434
 707,43;16531,223;  359,235;47444,912;34,34588
 708,00;16620,442;  328,005;47556,777;34,49685
 708,57;16597,662;  301,389;47422,488;34,58381
 709,14;16762,650;  327,236;47655,815;34,72619
 709,71;16869,946;  312,543;47744,449;34,90773
 710,28;17019,934;  313,082;47915,314;35,09678
 710,86;17004,538;  309,928;48020,871;34,99115
 711,43;17133,834;  333,313;47975,352;35,26407
 712,00;17212,668;  316,467;48120,755;35,34453
 712,57;17319,503;  337,390;48233,544;35,45611
 713,14;17420,876;  314,698;48374,639;35,59342
 713,71;17417,479;  315,159;48244,197;35,68259
 714,28;17524,006;  300,544;48378,754;35,82384
 714,85;17518,456;  293,775;48046,850;36,07031
 715,42;17633,060;  293,237;48317,407;36,10645
 716,00;17787,663;  360,237;48414,042;36,26649
 716,57;17902,652;  297,468;48484,291;36,53527
 717,14;17964,563;  281,929;48384,541;36,76024
 717,71;18030,859;  280,006;48454,637;36,84689
 718,28;18126,155;  325,699;48556,348;36,90694
 718,85;18190,066;  276,468;48492,059;37,15312
 719,42;18324,132;  296,776;48717,617;37,23057
 719,99;18290,889;  283,776;48509,020;37,33960
 720,56;18433,647;  310,391;48748,654;37,41516
 721,13;18568,173;  287,392;48823,981;37,66392
 721,70;18628,854;  277,546;48758,615;37,85252
 722,27;18700,304;  304,546;48775,019;37,95250
 722,84;18884,600;  345,238;48931,961;38,15726
 723,41;18878,665;  276,546;48967,826;38,20421
 723,98;19074,500;  299,546;49080,229;38,48850
 724,55;19139,026;  310,315;49232,402;38,48714
 725,12;19141,399;  247,623;49144,498;38,64005
 725,69;19331,926;  285,239;49277,517;38,87692
 726,27;19454,761;  293,623;49382,690;39,03341
 726,84;19621,057;  298,854;49718,401;39,09830
 727,41;19657,353;  308,316;49661,189;39,20549
 727,98;19844,879;  311,162;49958,900;39,34463
 728,55;19874,791;  330,162;49853,381;39,46559
 729,12;19935,164;  273,239;49989,169;39,54854
 729,69;20018,613;  317,624;50136,957;39,54487
 730,26;20129,986;  309,778;50348,822;39,60949
 730,82;20117,667;  297,163;50277,456;39,65664
 731,39;20249,194;  291,317;50285,167;39,92066
 731,96;20476,490;  280,624;50571,802;40,15787
 732,53;20586,093;  306,240;50841,744;40,12991
 733,10;20652,928;  306,548;51018,993;40,12108
 733,67;20909,685;  314,317;51184,551;40,48609
 734,24;20748,520;  290,855;50785,416;40,51459
 734,81;20841,970;  325,702;50886,742;40,57723
 735,38;20854,189;  301,702;50707,223;40,77428
 735,95;20811,408;  299,625;50561,780;40,80960
 736,52;20943,319;  302,548;50796,491;40,87772
 737,09;20865,538;  307,548;50411,818;41,03042
 737,66;21045,373;  349,241;50647,221;41,14704
 738,23;21163,284;  293,395;50711,779;41,39341
 738,80;21363,426;  357,318;50979,490;41,49587
 739,37;21452,415;  321,395;51168,278;41,55814
 739,94;21544,326;  306,933;51266,605;41,67490
 740,51;21635,314;  399,395;51176,162;41,82212
 741,07;21655,533;  294,395;51149,489;42,00393
 741,64;21797,445;  334,626;51368,123;42,05634
 742,21;21799,818;  297,857;51408,450;42,06948
 742,78;21906,652;  271,934;51195,776;42,48446
 743,35;22046,563;  295,780;51403,334;42,55884
 743,92;22164,629;  323,396;51518,122;42,66305
 744,49;22259,155;  309,011;51500,987;42,87810
 745,06;22221,682;  304,011;51481,621;42,82668
 745,63;22296,209;  277,242;51405,409;43,06622
 746,19;22417,659;  286,781;51513,813;43,20156
 746,76;22348,724;  295,704;51484,062;43,08210
 747,33;22528,712;  284,858;51445,158;43,47874
 747,90;22779,701;  316,319;51609,408;43,79417
 748,47;22759,151;  305,396;51598,427;43,77545
 749,04;22886,677;  308,550;51568,061;44,04671
 749,61;22915,281;  334,935;51465,465;44,16216
 750,17;22932,654;  313,166;51550,714;44,14631
 750,74;22985,104;  309,474;51508,964;44,28878
 751,31;22997,938;  288,551;51351,598;44,47323
 751,88;23032,003;  272,474;51405,848;44,51013
 752,45;23156,761;  296,782;51402,174;44,73105
 753,02;23095,595;  316,859;51215,040;44,75354
 753,58;23086,199;  293,628;51275,212;44,70746
 754,15;23208,341;  295,859;51399,462;44,83536
 754,72;23130,637;  281,551;51227,404;44,84975
 755,29;23207,856;  267,244;51119,192;45,11255
 755,86;23339,383;  295,475;51214,365;45,25611
 756,42;23324,910;  299,244;51097,845;45,32736
 756,99;23402,744;  253,090;50977,326;45,63825
 757,56;23444,733;  255,937;50970,498;45,72414
 758,13;23332,106;  227,860;50886,210;45,60797
 758,70;23593,017;  250,552;51004,921;45,99105
 759,26;23534,621;  236,322;51033,863;45,86501
 759,83;23651,301;  243,322;51053,266;46,06968
 760,40;23646,213;  226,322;51003,824;46,12257
 760,97;23667,201;  230,937;50898,227;46,25521
 761,53;23578,112;  218,322;50600,554;46,36514
 762,10;23532,639;  209,245;50629,650;46,25785
 762,67;23647,935;  252,861;50692,130;46,38266
 763,24;23461,923;  196,784;50153,149;46,57092
 763,80;23522,142;  237,938;50331,860;46,48110
 764,37;23623,746;  239,938;50257,571;46,75113
 764,94;23441,888;  226,246;49867,283;46,76704
 765,50;23464,953;  239,092;49944,378;46,72715
 766,07;23566,403;  271,015;49896,244;46,94263
 766,64;23446,699;  243,246;49654,262;46,96008
 767,21;23493,841;  259,323;49628,974;47,06235
 767,77;23512,291;  276,861;49478,685;47,22473
 768,34;23515,818;  280,554;49371,396;47,33116
 768,91;23545,191;  276,016;49330,569;47,43530
 769,47;23582,718;  284,016;49375,280;47,45998
 770,04;23553,475;  291,247;49143,068;47,61794
 770,61;23465,771;  262,939;48955,087;47,65210
 771,18;23508,837;  254,247;48914,106;47,79009
 771,74;23628,594;  278,401;48989,510;47,93607
 772,31;23606,659;  279,632;48733,913;48,14235
 772,88;23538,186;  249,016;48515,393;48,25133
 773,44;23520,944;  262,939;48387,566;48,32870
 774,01;23661,009;  279,324;48493,970;48,49498
 774,58;23570,613;  255,555;48151,681;48,67838
 775,14;23722,755;  254,709;48253,700;48,89279
 775,71;23669,820;  252,171;48216,026;48,82353
 776,27;23765,347;  310,709;48202,507;48,97423
 776,84;23821,181;  336,171;48305,833;48,95805
 777,41;23762,708;  278,248;47961,699;49,25076
 777,97;23719,388;  255,940;47678,179;49,47773
 778,54;23793,992;  276,171;47718,275;49,57162
 779,11;23808,134;  291,479;47758,217;49,54344
 779,67;23837,584;  243,941;47711,928;49,70433
 780,24;23803,034;  272,941;47509,101;49,81373
 780,80;23868,561;  290,864;47501,120;49,94190
 781,37;23900,011;  271,787;47502,908;50,02681
 781,94;23831,384;  271,787;47295,234;50,10181
 782,50;23967,833;  274,556;47226,407;50,46292
 783,07;23998,129;  296,326;47330,118;50,39314
 783,63;23900,425;  264,557;47086,214;50,48063
 784,20;23844,029;  291,018;46959,925;50,46831
 784,77;23756,864;  274,095;46781,483;50,49256
 785,33;23759,621;  255,711;46631,425;50,68151
 785,90;23792,609;  268,096;46723,828;50,63856
 786,46;23864,598;  288,019;46535,616;50,97903
 787,03;23763,586;  253,173;46280,712;51,07901
 787,59;23884,190;  265,173;46207,885;51,40971
 788,16;23981,332;  267,942;46151,442;51,68174
 788,73;23792,782;  285,327;46032,461;51,38563
 789,29;23671,693;  268,096;45727,865;51,48200
 789,86;23830,912;  278,865;45739,038;51,80809
 790,42;23670,362;  282,173;45568,979;51,64460
 790,99;23577,889;  280,481;45233,691;51,82590
 791,55;23655,877;  262,789;45164,325;52,09864
 792,12;23651,558;  289,712;45206,575;52,01130
 792,68;23565,315;  276,174;44950,517;52,13091
 793,25;23498,534;  284,174;44732,536;52,22771
 793,81;23462,984;  335,405;44415,016;52,46775
 794,38;23319,665;  240,559;44239,343;52,45396
 794,94;23390,422;  261,097;44125,977;52,72857
 795,51;23251,564;  283,790;43907,688;52,64952
 796,07;23214,322;  276,328;43538,322;53,02112
 796,64;23284,695;  290,328;43800,957;52,84770
 797,20;23130,760;  272,713;43289,052;53,13806
 797,77;22958,595;  250,098;42932,994;53,20280
 798,33;23059,044;  276,329;42779,475;53,60242
 798,90;23022,648;  288,867;42734,417;53,55987
 799,46;22827,175;  264,252;42403,820;53,54332
 800,03;22846,317;  262,944;42239,455;53,80002
 800,59;22750,690;  286,406;42102,243;53,72195
 801,15;22641,140;  281,868;41835,031;53,80883
 801,72;22560,051;  273,714;41555,819;53,98547
 802,28;22435,655;  298,945;41222,607;54,09269
 802,85;22399,951;  271,176;41168,088;54,10867
 803,41;22344,247;  266,714;40968,260;54,24249
 803,98;22257,312;  253,483;40590,125;54,55047
 804,54;22157,531;  272,484;40381,606;54,56377
 805,11;22182,981;  278,484;40151,856;54,93515
 805,67;22220,200;  302,945;40103,798;55,06730
 806,23;22108,034;  276,792;39698,893;55,37818
 806,80;22091,561;  300,099;39595,989;55,45481
 807,36;22090,165;  298,946;39503,777;55,58299
 807,93;21936,076;  303,176;39394,796;55,33897
 808,49;21791,372;  254,561;38991,661;55,59738
 809,05;21857,438;  251,561;38746,373;56,12672
 809,62;21816,810;  283,254;38788,853;55,92318
 810,18;21816,799;  287,792;38594,257;56,20202
 810,74;21733,787;  255,869;38356,814;56,37109
 811,31;21647,468;  253,869;38185,756;56,40004
 811,87;21614,302;  270,331;38124,082;56,38535
 812,44;21768,983;  298,639;38078,563;56,83003
 813,00;21574,817;  227,100;37743,736;56,90200
 813,56;21674,882;  273,947;37907,216;56,86706
 814,13;21665,101;  256,485;37684,620;57,19926
 814,69;21565,551;  270,716;37579,331;57,07753
 815,25;21376,617;  241,332;37159,965;57,24829
 815,82;21496,605;  279,639;37158,369;57,53172
 816,38;21356,978;  304,101;36982,772;57,39814
 816,94;21213,966;  247,947;36683,945;57,54205
 817,51;21157,877;  241,947;36475,502;57,72531
 818,07;21097,866;  250,563;36313,367;57,80832
 818,63;20979,162;  270,948;36059,232;57,86311
 819,20;20992,612;  259,025;36002,636;58,00641
 819,76;20773,369;  245,255;35733,655;57,84457
 820,32;20791,127;  279,640;35601,981;58,06944
 820,89;20730,884;  279,102;35421,385;58,19708
 821,45;20540,026;  247,717;35149,788;58,14070
 822,01;20486,553;  263,487;34907,961;58,37314
 822,57;20409,388;  281,102;34767,826;58,36532
 823,14;20319,530;  240,333;34556,691;58,51203
 823,70;20262,441;  249,102;34326,479;58,72911
 824,26;20176,352;  245,333;34234,729;58,63893
 824,82;20190,033;  280,179;34049,363;58,95865
 825,39;20107,560;  245,564;33819,844;59,15837
 825,95;20096,933;  273,641;33877,863;58,99048
 826,51;19935,690;  261,564;33513,651;59,16659
 827,08;19989,832;  293,949;33632,208;59,07892
 827,64;19932,821;  277,872;33386,227;59,36552
 828,20;19789,501;  254,103;33196,861;59,30104
 828,76;19763,720;  272,642;33139,265;59,30356
 829,32;19748,863;  286,026;32959,438;59,56781
 829,89;19717,697;  238,027;32840,687;59,74871
 830,45;19735,762;  265,719;32805,937;59,83378
 831,01;19580,674;  253,796;32630,264;59,69421
 831,57;19548,970;  260,950;32506,359;59,81633
 832,14;19534,496;  252,565;32522,378;59,75222
 832,70;19411,716;  247,489;32309,243;59,77286
 833,26;19432,781;  226,412;32221,032;60,03000
 833,82;19414,231;  251,873;32083,897;60,19836
 834,38;19409,142;  256,335;32210,608;59,93817
 834,95;19336,823;  233,258;31973,319;60,18755
 835,51;19286,426;  210,951;31919,569;60,15865
 836,07;19405,568;  253,797;31953,588;60,41608
 836,63;19400,480;  275,643;31927,607;60,42228
 837,19;19308,314;  250,182;31857,164;60,29722
 837,75;19194,303;  221,259;31542,567;60,57551
 838,32;19237,291;  264,182;31683,048;60,38763
 838,88;19306,510;  265,720;31676,298;60,61904
 839,44;19337,421;  255,644;31588,316;60,90057
 840,00;19242,871;  249,490;31425,489;60,92309
 840,56;19126,783;  244,259;31253,200;60,89380
 841,12;19173,925;  240,721;31220,065;61,11557
 841,68;18992,682;  218,798;30958,469;61,07380
 842,25;19078,671;  235,336;31083,949;61,08325
 842,81;18967,274;  221,875;30810,276;61,28270
 843,37;18989,339;  220,875;30856,987;61,26255
 843,93;18993,405;  232,029;30698,852;61,57969
 844,49;19061,316;  262,414;30842,179;61,47497
 845,05;19005,920;  210,799;30651,736;61,74291
 845,61;19057,139;  265,645;30777,678;61,58716
 846,17;18953,512;  236,568;30496,466;61,85395
 846,73;18939,038;  246,414;30422,408;61,94535
 847,29;18939,027;  230,260;30269,735;62,28060
 847,86;18945,323;  237,876;30236,446;62,36113
 848,42;18817,696;  235,953;30102,927;62,21502
 848,98;18840,761;  248,107;30056,945;62,37296
 849,54;18888,980;  230,338;30022,195;62,63001
 850,10;18820,122;  243,338;29921,522;62,59407
 850,66;18636,957;  231,338;29752,695;62,34679
 851,22;18750,330;  220,338;29685,560;62,88767
 851,78;18758,318;  267,646;29743,194;62,73224
 852,34;18696,922;  241,800;29509,213;63,05689
 852,90;18637,602;  227,492;29446,847;63,00656
 853,46;18565,975;  227,723;29214,251;63,26474
 854,02;18621,579;  249,185;29228,654;63,39797
 854,58;18522,106;  241,723;29006,827;63,55055
 855,14;18419,248;  227,185;28966,230;63,30086
 855,70;18414,698;  198,262;28718,172;63,87270
 856,26;18402,609;  247,801;28829,114;63,51985
 856,82;18306,059;  235,031;28605,133;63,69744
 857,38;18360,432;  265,032;28495,614;64,09857
 857,94;18346,958;  245,493;28417,017;64,25448
 858,50;18248,947;  250,032;28338,267;64,07991
 859,06;18144,627;  226,878;28103,978;64,27408
 859,62;18208,616;  247,724;28130,843;64,41493
 860,18;18072,219;  239,032;28049,170;64,12477
 860,74;18105,977;  208,340;27876,112;64,68767
 861,30;18004,888;  214,648;27653,977;64,83482
 861,86;18038,338;  275,725;27715,073;64,73409
 862,42;17974,942;  240,648;27517,707;65,01542
 862,98;17973,315;  263,417;27542,341;64,92154
 863,54;17882,149;  236,033;27343,283;65,09740
 864,10;17914,522;  234,494;27331,687;65,24671
 864,66;17823,510;  213,879;27118,782;65,45138
 865,22;17806,345;  232,110;27079,494;65,45977
 865,78;17736,564;  234,725;26994,743;65,40294
 866,34;17684,168;  228,187;26833,685;65,61043
 866,90;17655,541;  241,341;26807,243;65,55094
 867,45;17529,837;  244,880;26595,185;65,59680
 868,01;17486,133;  244,341;26394,204;65,93454
 868,57;17306,890;  237,957;26249,069;65,62170
 869,13;17310,571;  215,880;26126,088;65,97666
 869,69;17327,328;  241,726;26118,414;66,02700
 870,25;17260,393;  218,957;25974,664;66,16567
 870,81;17255,689;  228,572;25969,221;66,14875
 871,37;17239,293;  245,419;25871,009;66,31603
 871,93;17158,281;  248,880;25682,721;66,48387
 872,49;17154,962;  264,727;25491,893;66,95257
 873,04;16994,258;  222,111;25348,758;66,75044
 873,60;16985,939;  222,342;25272,777;66,91938
 874,16;16873,312;  245,650;25173,181;66,70401
 874,72;16903,850;  221,727;25105,027;67,04144
 875,28;16845,004;  243,727;25044,565;66,93837
 875,84;16834,850;  240,804;24918,412;67,24333
 876,40;16865,542;  229,573;24931,412;67,34709
 876,95;16820,158;  242,342;24891,258;67,25576
 877,51;16765,850;  263,650;24825,335;67,18676
 878,07;16858,465;  278,573;24851,719;67,47159
 878,63;16846,004;  231,881;24878,796;67,40853
 879,19;16823,312;  254,342;24867,950;67,31630
 879,75;16953,850;  229,419;24956,642;67,63570
 880,30;17016,235;  235,881;24889,335;68,06492
 880,86;17117,619;  271,881;25034,181;68,02978
 881,42;17157,465;  218,573;25074,181;68,14918
 881,98;17236,696;  256,804;25141,027;68,23557
 882,54;17349,312;  225,958;25146,412;68,71205
 883,09;17438,465;  241,188;25286,258;68,66532
 883,65;17507,158;  219,419;25362,181;68,75831
 884,21;17677,388;  263,496;25535,181;68,90673
 884,77;17698,312;  235,573;25585,950;68,88552
 885,32;17836,004;  236,727;25729,335;69,03679
 885,88;18042,081;  272,419;25771,488;69,68749
 886,44;18040,004;  239,881;25922,873;69,30705
 887,00;18079,388;  261,650;25852,565;69,62525
 887,56;18169,927;  236,650;26019,873;69,55405
 888,11;18278,542;  239,958;26002,796;70,01785
 888,67;18414,235;  271,265;26241,335;69,86107
 889,23;18407,081;  243,112;26145,488;70,12472
 889,79;18301,388;  228,727;26112,335;69,82281
 890,34;18339,773;  244,573;25986,642;70,29427
 890,90;18484,850;  300,035;26218,335;70,16207
 891,46;18434,465;  217,958;26037,104;70,55426
 892,01;18484,388;  259,496;26049,412;70,66674
 892,57;18460,619;  272,342;26020,565;70,63896
 893,13;18322,388;  246,650;25776,719;70,80176
 893,69;18388,773;  223,804;25697,873;71,30769
 894,24;18284,850;  241,265;25649,719;71,01410
 894,80;18267,927;  241,804;25554,565;71,21358
 895,36;18230,004;  247,727;25397,181;71,50166
 895,91;18086,542;  232,958;25253,796;71,35486
 896,47;18048,465;  254,650;25154,488;71,46157
 897,03;17905,619;  230,419;25040,181;71,24293
 897,58;17862,312;  254,265;24929,488;71,35922
 898,14;17665,081;  245,419;24805,873;70,92565
 898,70;17667,927;  212,804;24601,719;71,56990
 899,25;17730,235;  238,496;24590,796;71,82787
 899,81;17587,773;  244,881;24447,027;71,65849
 900,37;17522,004;  219,496;24229,027;72,06516
 900,92;17495,081;  241,188;24254,796;71,85048
 901,48;17402,465;  219,573;24116,258;71,90492
 902,03;17324,158;  219,727;23871,719;72,31708
 902,59;17344,850;  232,727;23853,796;72,44432
 903,15;17308,619;  245,265;23809,027;72,41354
 903,70;17139,773;  239,881;23473,719;72,73827
 904,26;17056,388;  233,112;23408,181;72,59213
 904,82;17049,696;  236,342;23407,950;72,56015
 905,37;17005,696;  247,804;23234,873;72,90139
 905,93;16932,312;  229,881;23086,950;73,07337
 906,48;17002,619;  240,650;23093,181;73,34842
 907,04;17014,081;  248,112;23024,335;73,61172
 907,60;16860,081;  233,035;22848,104;73,52198
 908,15;16801,004;  222,958;22672,412;73,84610
 908,71;16836,158;  258,419;22698,258;73,87637
 909,26;16756,619;  224,881;22501,796;74,21018
 909,82;16703,542;  254,265;22493,412;73,96542
 910,37;16593,619;  277,881;22386,027;73,79967
 910,93;16561,004;  228,727;22198,796;74,33876
 911,48;16473,388;  214,573;22115,642;74,23754
 912,04;16468,004;  229,496;22051,950;74,41192
 912,60;16503,388;  243,496;21990,719;74,76767
 913,15;16332,004;  235,342;21874,950;74,38518
 913,71;16291,696;  227,035;21640,181;75,02243
 914,26;16205,465;  212,112;21610,412;74,74124
 914,82;16246,158;  236,342;21583,181;74,99853
 915,37;16203,004;  221,573;21462,027;75,24053
 915,93;16142,465;  272,342;21413,258;75,06829
 916,48;16072,542;  219,188;21190,873;75,59409
 917,04;15977,158;  242,496;21185,565;75,13064
 917,59;15974,158;  253,342;21147,950;75,23862
 918,15;15788,619;  201,419;20903,719;75,29212
 918,70;15784,850;  228,496;20838,796;75,47854
 919,26;15766,465;  228,496;20751,181;75,71119
 919,81;15720,158;  212,727;20559,488;76,21572
 920,37;15616,312;  231,727;20512,950;75,85630
 920,92;15663,235;  242,804;20421,796;76,41824
 921,48;15523,850;  209,881;20279,873;76,30282
 922,03;15503,081;  210,573;20264,719;76,25609
 922,59;15419,542;  227,804;20154,412;76,23846
 923,14;15362,927;  227,112;20027,642;76,44146
 923,69;15295,619;  247,112;19924,565;76,47589
 924,25;15346,927;  243,342;19947,796;76,65061
 924,80;15125,696;  220,650;19736,104;76,37561
 925,36;15079,004;  223,112;19705,642;76,25237
 925,91;14988,542;  228,804;19547,335;76,40197
 926,47;15068,158;  208,188;19500,181;77,02662
 927,02;15068,696;  268,881;19422,719;77,26814
 927,57;14920,619;  221,650;19268,335;77,17337
 928,13;14872,927;  219,035;19187,181;77,25527
 928,68;14867,235;  216,881;19171,873;77,29021
 929,24;14739,619;  193,573;18956,181;77,52678
 929,79;14667,312;  215,496;18839,027;77,59976
 930,34;14647,235;  223,035;18777,488;77,73983
 930,90;14658,542;  220,958;18733,258;77,98915
 931,45;14630,850;  237,188;18704,796;77,94004
 932,01;14589,465;  237,804;18604,258;78,14062
 932,56;14436,158;  242,342;18426,335;78,05665
 933,11;14518,542;  248,804;18460,488;78,35485
 933,67;14435,927;  212,727;18240,258;78,89711
 934,22;14366,235;  228,419;18208,873;78,62880
 934,77;14349,004;  257,958;18076,335;79,08154
 935,33;14301,465;  232,035;17948,719;79,41345
 935,88;14191,081;  235,342;17888,950;79,05318
 936,43;14114,081;  219,265;17853,873;78,79288
 936,99;14098,542;  232,650;17785,719;78,99412
 937,54;13993,158;  206,035;17585,104;79,33177
 938,09;14024,927;  227,035;17601,565;79,41447
 938,65;13973,158;  232,188;17499,642;79,57727
 939,20;13967,004;  204,112;17404,488;80,01506
 939,75;13855,850;  209,188;17267,488;80,00013
 940,31;13836,542;  207,342;17111,181;80,62784
 940,86;13816,619;  227,573;17159,027;80,25918
 941,41;13805,542;  297,958;17040,488;80,67827
 941,96;13703,850;  206,804;16943,719;80,64238
 942,52;13668,542;  221,419;16860,258;80,81768
 943,07;13608,696;  207,265;16771,258;80,90701
 943,62;13601,004;  213,727;16700,258;81,20130
 944,18;13532,773;  210,804;16651,719;81,02936
 944,73;13498,158;  218,342;16579,719;81,16563
 945,28;13295,619;  192,881;16361,565;81,03775
 945,83;13282,542;  220,650;16426,181;80,60145
 946,39;13327,388;  213,804;16281,488;81,61465
 946,94;13273,465;  240,881;16218,796;81,56624
 947,49;13219,312;  218,573;16132,027;81,69652
 948,04;13226,312;  257,881;16075,488;81,98731
 948,59;13161,004;  236,727;15972,488;82,13315
 949,15;13132,235;  206,650;15893,488;82,39764
 949,70;13067,850;  213,342;15800,950;82,46620
 950,25;13012,927;  237,035;15759,873;82,30384
 950,80;12961,004;  189,881;15703,181;82,32370
 951,36;12944,696;  199,958;15601,258;82,75106
 951,91;12987,004;  228,342;15542,873;83,31082
 952,46;12816,850;  202,265;15409,719;82,95001
 953,01;12889,388;  237,650;15412,104;83,37525
 953,56;12785,927;  197,573;15242,719;83,67053
 954,11;12773,081;  230,112;15221,642;83,66703
 954,67;12750,158;  206,650;15153,719;83,91951
 955,22;12595,850;  193,342;15033,719;83,57273
 955,77;12610,773;  241,573;15066,873;83,43305
 956,32;12559,081;  258,958;14908,719;83,96125
 956,87;12415,388;  213,419;14765,258;83,85174
 957,42;12419,312;  221,188;14795,642;83,69523
 957,98;12432,158;  214,342;14672,488;84,50472
 958,53;12440,081;  234,265;14663,181;84,59274
 959,08;12277,619;  201,881;14547,104;84,17951
 959,63;12241,619;  207,804;14474,181;84,35089
 960,18;12261,927;  232,419;14434,488;84,70250
 960,73;12271,004;  214,496;14359,258;85,23656
 961,28;12194,235;  201,804;14329,796;84,88418
 961,83;12202,696;  238,112;14196,565;85,71569
 962,39;12055,388;  209,112;14137,258;85,05279
 962,94;12076,235;  229,112;14077,104;85,55120
 963,49;11980,619;  227,419;13949,104;85,65421
 964,04;12010,465;  234,112;13925,335;86,01389
 964,59;12003,465;  191,804;13798,719;86,80631
 965,14;11963,542;  243,265;13801,488;86,44405
 965,69;11872,850;  222,496;13690,181;86,50599
 966,24;11791,850;  211,112;13623,488;86,34367
 966,79;11758,081;  231,496;13524,258;86,71324
 967,34;11666,158;  199,496;13412,104;86,78576
 967,89;11684,081;  212,419;13317,258;87,53760
 968,44;11531,004;  221,112;13282,565;86,58984
 968,99;11494,542;  225,804;13275,719;86,35105
 969,55;11429,542;  225,958;13148,950;86,69497
 970,10;11393,619;  231,573;13099,950;86,74012
 970,65;11332,004;  236,881;12999,642;86,93356
 971,20;11266,850;  210,265;12905,027;87,09565
 971,75;11187,388;  192,419;12743,719;87,60024
 972,30;11173,619;  229,727;12757,796;87,35498
 972,85;11099,004;  202,496;12631,719;87,66845
 973,40;11040,696;  212,496;12491,796;88,18255
 973,95;11017,927;  228,804;12465,796;88,16810
 974,50;11001,081;  249,419;12374,950;88,66962
 975,05;10872,696;  222,419;12307,950;88,12420
 975,60;10849,542;  243,650;12237,181;88,43011
 976,15;10765,619;  217,035;12218,873;87,89141
 976,70;10746,388;  230,573;12122,873;88,42541
 977,25;10693,004;  232,342;12038,104;88,60641
 977,80;10616,004;  211,342;11892,104;89,07520
 978,35;10463,081;  231,958;11735,873;88,93601
 978,89;10434,004;  203,188;11688,642;89,07628
 979,44;10520,158;  220,265;11636,719;90,21972
 979,99;10362,927;  205,804;11508,873;89,86164
 980,54;10332,696;  243,804;11431,104;90,18166
 981,09;10246,004;  241,573;11321,642;90,29213
 981,64;10205,696;  238,804;11206,642;90,87381
 982,19;10128,850;  253,573;11203,412;90,18651
 982,74;10045,235;  244,496;11080,719;90,44423
 983,29; 9956,004;  210,650;10954,258;90,70839
 983,84; 9858,465;  228,112;10888,565;90,33718
 984,39; 9891,235;  287,188;10869,104;90,75905
 984,94; 9766,081;  202,419;10718,565;90,94265
 985,49; 9732,004;  249,188;10677,642;90,93213
 986,03; 9673,158;  244,496;10605,258;91,00356
 986,58; 9605,235;  271,419;10455,104;91,65460
 987,13; 9471,773;  228,265;10394,642;90,92234
 987,68; 9358,619;  242,419;10296,027;90,67591
 988,23; 9339,235;  243,958;10255,027;90,85220
 988,78; 9214,388;  222,958;10075,873;91,25655
 989,33; 9214,927;  239,496; 9960,027;92,33478
 989,88; 9182,004;  259,265; 9965,873;91,92438
 990,42; 9012,927;  229,419; 9825,950;91,52795
 990,97; 8912,773;  223,804; 9701,181;91,68116
 991,52; 8947,312;  244,188; 9648,642;92,54257
 992,07; 8859,773;  258,650; 9567,796;92,39433
 992,62; 8787,388;  246,035; 9442,335;92,87816
 993,17; 8676,235;  242,265; 9361,873;92,48171
 993,71; 8627,312;  235,496; 9281,642;92,76675
 994,26; 8488,081;  215,342; 9151,412;92,57693
 994,81; 8487,465;  246,496; 9142,642;92,63527
 995,36; 8362,542;  227,112; 8950,719;93,25764
 995,91; 8338,004;  242,265; 8909,488;93,40637
 996,45; 8209,927;  236,419; 8820,719;92,88477
 997,00; 8145,081;  207,958; 8733,565;93,09745
 997,55; 8120,388;  240,035; 8674,950;93,42540
 998,10; 8062,773;  264,265; 8576,796;93,81629
 998,65; 7981,850;  231,342; 8531,488;93,37797
 999,19; 7896,004;  245,265; 8443,642;93,32016
 999,74; 7794,312;  267,804; 8278,027;93,96127
1000,29; 7732,696;  248,881; 8217,950;93,91078
1000,84; 7628,235;  230,573; 8101,873;93,98272
1001,38; 7581,004;  238,035; 8027,719;94,26530
1001,93; 7539,619;  255,342; 7980,873;94,28837
1002,48; 7438,619;  228,342; 7828,719;94,86736
1003,03; 7416,235;  239,727; 7789,488;95,05608
1003,57; 7352,158;  238,804; 7741,719;94,80786
1004,12; 7271,235;  260,496; 7623,565;95,21489
1004,67; 7192,696;  235,650; 7545,796;95,16973
1005,22; 7061,927;  217,035; 7401,719;95,27060
1005,76; 6996,696;  221,342; 7280,181;95,98398
1006,31; 6958,312;  241,188; 7239,719;95,97905
1006,86; 6813,927;  231,496; 7143,719;95,22885
1007,40; 6754,696;  208,419; 7036,181;95,87735
1007,95; 6686,619;  239,881; 6959,181;95,94360
1008,50; 6583,619;  235,496; 6838,719;96,13674
1009,04; 6535,696;  228,573; 6743,796;96,80594
1009,59; 6415,696;  241,958; 6638,719;96,51350
1010,14; 6375,696;  219,265; 6575,642;96,85440
1010,68; 6266,235;  240,804; 6468,258;96,75593
1011,23; 6174,619;  231,881; 6378,719;96,67959
1011,78; 6091,158;  241,265; 6307,719;96,43018
1012,32; 5978,927;  250,035; 6180,796;96,59623
1012,87; 5991,542;  255,496; 6195,642;96,56406
1013,42; 5902,465;  220,112; 6063,412;97,24563
1013,96; 5872,542;  251,265; 6070,027;96,60607
1014,51; 5793,388;  195,496; 5976,412;96,83401
1015,06; 5785,158;  198,958; 5961,950;96,93228
1015,60; 5895,388;  268,881; 6060,412;97,15061
1016,15; 5799,465;  228,188; 5950,104;97,36734
1016,69; 5849,927;  234,573; 5960,642;98,06647
1017,24; 5860,927;  209,035; 5988,950;97,78504
1017,79; 5952,619;  257,188; 6042,950;98,43874
1018,33; 5967,235;  224,650; 6075,642;98,14719
1018,88; 6010,388;  240,342; 6074,181;98,90651
1019,42; 6041,312;  226,958; 6056,950;99,73176
1019,97; 6008,542;  219,958; 6031,796;99,59989
1020,51; 6135,158;  253,265; 6133,027;100,03624
1021,06; 6086,158;  212,342; 6067,335;100,32149
1021,61; 6087,004;  205,650; 6056,642;100,51891
1022,15; 6080,619;  179,958; 5999,873;101,38741
1022,70; 6088,158;  222,265; 6018,027;101,21004
1023,24; 6028,388;  214,727; 5998,488;100,51696
1023,79; 5973,081;  230,804; 5954,565;100,32348
1024,33; 5948,927;  213,419; 5880,104;101,21452
1024,88; 5899,158;  233,188; 5819,104;101,43314
1025,42; 5844,158;  233,035; 5729,104;102,09338
1025,97; 5755,388;  216,188; 5628,796;102,33884
1026,51; 5682,081;  192,188; 5505,873;103,31611
1027,06; 5573,388;  218,112; 5490,258;101,57679
1027,60; 5491,081;  236,265; 5386,565;102,02931
1028,15; 5442,158;  224,265; 5324,796;102,30097
1028,69; 5321,312;  179,958; 5196,258;102,49295
1029,24; 5294,081;  221,573; 5164,258;102,62657
1029,78; 5184,158;  213,188; 5064,873;102,45862
1030,33; 5120,927;  191,035; 4969,642;103,16587
1030,87; 5058,158;  209,496; 4948,181;102,32083
1031,42; 4944,312;  197,496; 4831,258;102,43979
1031,96; 4954,619;  229,958; 4776,488;103,91795
1032,51; 4820,696;  210,804; 4713,642;102,37747
1033,05; 4824,004;  224,496; 4639,796;104,17203
1033,60; 4671,927;  189,419; 4530,565;103,25632
1034,14; 4626,927;  216,727; 4478,258;103,48863
1034,69; 4605,465;  211,958; 4464,258;103,32074
1035,23; 4527,004;  210,035; 4369,719;103,78117
1035,77; 4490,235;  216,265; 4330,412;103,88472
1036,32; 4386,850;  186,727; 4232,873;103,80552
1036,86; 4352,542;  217,419; 4206,642;103,65735
1037,41; 4284,388;  223,804; 4155,027;103,29062
1037,95; 4246,081;  192,188; 4067,027;104,62094
1038,50; 4185,927;  201,804; 4014,181;104,50496
1039,04; 4127,465;  226,650; 3986,565;103,74742
1039,58; 4066,235;  211,496; 3931,796;103,61365
1040,13; 4009,081;  217,342; 3890,181;103,23728
1040,67; 4007,388;  247,419; 3840,335;104,64953
1041,21; 3949,850;  244,419; 3791,412;104,46684
1041,76; 3863,004;  195,419; 3682,565;105,17439
1042,30; 3828,619;  213,727; 3667,104;104,67703
1042,85; 3753,696;  205,804; 3611,181;104,18501
1043,39; 3705,465;  210,958; 3527,796;105,35658
1043,93; 3699,004;  236,496; 3525,181;105,28549
1044,48; 3595,235;  216,881; 3458,412;104,22094
1045,02; 3538,081;  215,496; 3391,488;104,61564
1045,56; 3569,850;  236,881; 3390,719;105,67977
1046,11; 3504,465;  231,496; 3368,027;104,34998
1046,65; 3434,158;  228,265; 3293,565;104,58658
1047,19; 3413,619;  216,035; 3216,873;106,55637
1047,74; 3352,773;  192,804; 3173,104;106,02856
1048,28; 3278,696;  217,573; 3149,873;104,39324
1048,82; 3298,850;  246,342; 3112,488;106,50216
1049,37; 3234,542;  230,035; 3063,104;106,05133
1049,91; 3190,081;  211,188; 3040,335;105,29298
1050,45; 3155,927;  233,188; 2985,719;106,18368
1050,99; 3111,773;  229,650; 2956,181;105,70660
1051,54; 3060,235;  208,573; 2865,412;107,33289
1052,08; 3037,850;  247,265; 2883,258;105,86467
1052,62; 3029,696;  241,419; 2835,950;107,46748
1053,16; 2968,773;  208,342; 2762,873;108,06019
1053,71; 2935,850;  223,188; 2731,642;108,14078
1054,25; 2894,696;  237,419; 2712,796;107,34838
1054,79; 2851,465;  229,881; 2674,104;107,25636
1055,33; 2786,850;  201,265; 2603,258;107,64333
1055,88; 2784,773;  235,881; 2567,488;109,31909
1056,42; 2743,004;  243,881; 2579,873;106,98336
1056,96; 2724,388;  240,419; 2534,796;108,26335
1057,50; 2668,158;  227,958; 2505,258;107,15321
1058,05; 2615,004;  216,188; 2435,950;108,06636
1058,59; 2620,773;  249,881; 2436,719;108,41644
1059,13; 2542,312;  212,727; 2355,258;108,73051
1059,67; 2513,158;  228,112; 2348,950;107,74258
1060,21; 2488,465;  220,881; 2301,719;108,97456
1060,76; 2458,542;  239,727; 2287,027;108,37764
1061,30; 2434,773;  246,496; 2275,104;107,87088
1061,84; 2375,004;  233,496; 2224,027;107,58476
1062,38; 2304,081;  214,881; 2153,104;107,78945
1062,92; 2337,927;  263,496; 2191,719;107,58251
1063,46; 2303,773;  250,342; 2135,565;108,92243
1064,01; 2234,465;  221,958; 2084,335;108,06125
1064,55; 2226,312;  229,188; 2065,642;108,74888
1065,09; 2168,927;  200,573; 1974,412;110,96579
1065,63; 2219,158;  263,035; 2042,873;109,90453
1066,17; 2166,465;  255,112; 2012,258;108,77603
1066,71; 2127,542;  251,881; 1995,719;107,55936
1067,25; 2058,927;  235,650; 1933,488;107,38813
1067,80; 2069,081;  238,804; 1928,412;108,32556
1068,34; 2068,850;  260,958; 1935,027;107,99388
1068,88; 2000,696;  224,573; 1857,412;108,77519
1069,42; 2020,235;  257,804; 1866,565;109,55202
1069,96; 1970,850;  230,035; 1806,258;110,44220
1070,50; 1966,927;  262,265; 1830,412;108,70553
1071,04; 1926,388;  226,958; 1775,258;109,76108
1071,58; 1890,850;  228,265; 1753,027;109,03899
1072,12; 1868,850;  235,188; 1738,873;108,64390
1072,66; 1863,081;  221,188; 1709,181;110,34280
1073,21; 1871,388;  244,112; 1729,104;109,58151
1073,75; 1813,542;  234,958; 1680,950;109,16964
1074,29; 1798,081;  241,958; 1645,027;110,90850
1074,83; 1785,542;  245,650; 1676,181;107,64482
1075,37; 1759,312;  246,573; 1652,642;107,58634
1075,91; 1729,235;  249,881; 1618,181;108,11619
1076,45; 1707,388;  237,573; 1606,104;107,40097
1076,99; 1710,619;  247,035; 1562,719;111,24130
1077,53; 1661,850;  228,650; 1542,719;109,06579
1078,07; 1653,158;  238,727; 1527,412;109,75771
1078,61; 1616,388;  244,112; 1495,950;109,62093
1079,15; 1626,773;  237,265; 1484,488;111,40811
1079,69; 1602,388;  226,496; 1473,258;110,35729
1080,23; 1618,312;  253,265; 1479,181;111,34913
1080,77; 1607,081;  272,804; 1493,796;109,27808
1081,31; 1534,158;  226,881; 1429,104;108,73830
1081,85; 1556,850;  249,727; 1421,565;111,54465
1082,39; 1533,081;  228,188; 1389,335;112,37968
1082,93; 1511,004;  255,804; 1379,181;111,73454
1083,47; 1456,696;  233,342; 1353,104;109,25128
1084,01; 1480,773;  249,112; 1369,565;109,92524
1084,55; 1451,235;  234,419; 1334,258;110,63583
1085,09; 1450,927;  255,881; 1343,181;109,90951
1085,63; 1420,927;  241,650; 1310,412;110,34051
1086,17; 1421,235;  226,804; 1293,258;112,00023
1086,71; 1381,465;  226,958; 1264,642;111,25805
1087,24; 1409,081;  261,650; 1288,796;111,71056
1087,78; 1376,619;  244,573; 1253,488;112,20427
1088,32; 1349,004;  228,881; 1207,335;114,47889
1088,86; 1358,312;  261,881; 1225,181;113,82028
1089,40; 1337,004;  241,265; 1206,873;113,47657
1089,94; 1283,081;  213,650; 1198,565;108,58098
1090,48; 1304,619;  257,419; 1166,488;115,19475
1091,02; 1279,004;  250,958; 1173,335;111,45619
1091,56; 1257,773;  244,112; 1148,335;112,10304
1092,10; 1230,619;  218,881; 1127,412;111,35985
1092,63; 1249,004;  260,188; 1146,104;111,61510
1093,17; 1211,542;  251,188; 1109,258;111,92032
1093,71; 1202,158;  232,650; 1096,719;112,20255
1094,25; 1211,465;  258,496; 1117,104;110,99006
1094,79; 1191,850;  233,112; 1085,181;112,51885
1095,33; 1167,619;  235,958; 1056,488;113,54377
1095,87; 1148,235;  243,573; 1068,873;109,61608
1096,40; 1128,004;  226,188; 1029,258;112,29609
1096,94; 1142,158;  235,342; 1011,335;116,85881
1097,48; 1129,773;  247,804; 1025,796;113,36478
1098,02; 1107,773;  228,573; 1004,258;113,34504
1098,56; 1067,696;  208,958;  970,258;112,79896
1099,10; 1067,465;  214,650;  962,873;113,97876
1099,63; 1058,388;  216,881;  949,488;114,86471
1100,17; 1050,235;  241,650;  972,565;110,62630
1100,71; 1082,850;  265,496;  968,565;116,25510

