
Integration time [ms]: 120,000
Averaging Nr. [scans]: 13
Smoothing Nr. [pixels]: 0
Data measured with spectrometer [name]: 2009305U1
Wave   ;Sample   ;Dark     ;Reference;Reflectance
[nm]   ;[counts] ;[counts] ;[counts] ;[%]

 175,72;  202,624;  203,396;  206,415;-25,58888
 176,32;  223,435;  232,238;  221,005; 0,00000
 176,92;  254,245;  247,318;  255,764;82,01736
 177,52;  252,268;  258,088;  254,242; 0,00000
 178,12;  232,924;  225,239;  236,618;67,53190
 178,72;  263,793;  252,468;  247,609; 0,00000
 179,32;  260,733;  251,777;  252,264; 0,00000
 179,92;  245,165;  252,009;  253,834;-375,02589
 180,52;  245,203;  243,091;  251,014;26,65204
 181,12;  257,431;  248,932;  250,733;471,99805
 181,73;  269,590;  266,394;  270,722;73,83975
 182,33;  354,282;  342,551;  361,599;61,58622
 182,93;  265,615;  265,011;  272,969; 7,59047
 183,53;  244,388;  234,237;  231,203; 0,00000
 184,13;  242,457;  243,468;  230,540; 0,00000
 184,73;  272,971;  267,775;  273,447;91,61472
 185,33;  252,253;  227,443;  345,598;20,99727
 185,93;  261,617;  241,133;  358,546;17,44582
 186,53;  278,501;  255,981;  380,144;18,13742
 187,13;  306,519;  272,984;  407,516;24,92705
 187,73;  267,659;  241,287;  363,269;21,61990
 188,33;  264,738;  240,209;  362,629;20,03666
 188,93;  277,803;  245,742;  378,979;24,06354
 189,53;  272,306;  251,815;  383,112;15,60630
 190,13;  304,685;  280,501;  415,888;17,86326
 190,73;  259,005;  224,505;  369,988;23,71392
 191,34;  292,803;  261,894;  396,267;23,00223
 191,94;  270,808;  239,284;  361,088;25,88071
 192,54;  270,989;  242,755;  397,442;18,25241
 193,14;  289,244;  262,137;  384,184;22,20985
 193,74;  278,799;  253,983;  388,973;18,38342
 194,34;  278,638;  249,600;  378,777;22,47984
 194,94;  241,898;  214,214;  353,835;19,82805
 195,54;  213,886;  216,674;  342,009;-2,22508
 196,14;  238,553;  221,292;  354,658;12,94222
 196,74;  240,183;  228,135;  356,800; 9,36367
 197,34;  228,452;  197,833;  349,603;20,17456
 197,94;  255,729;  230,138;  376,501;17,48488
 198,54;  249,390;  232,908;  397,071;10,03992
 199,14;  251,775;  213,526;  383,801;22,46290
 199,74;  227,505;  193,603;  378,842;18,30160
 200,34;  216,692;  192,296;  402,209;11,62212
 200,94;  263,131;  230,602;  433,790;16,00945
 201,54;  251,041;  207,910;  427,072;19,67986
 202,14;  266,249;  243,066;  476,318; 9,93901
 202,74;  254,632;  210,218;  468,075;17,22411
 203,34;  234,819;  190,452;  474,780;15,60415
 203,94;  215,438;  167,682;  479,987;15,29147
 204,54;  278,274;  239,446;  569,638;11,75937
 205,14;  247,535;  207,834;  575,137;10,80872
 205,74;  293,513;  243,298;  662,389;11,98179
 206,34;  248,202;  200,681;  678,382; 9,94775
 206,94;  273,746;  213,758;  737,667;11,45012
 207,54;  252,483;  183,758;  755,999;12,00972
 208,14;  270,507;  198,681;  854,932;10,94477
 208,74;  278,508;  205,295;  920,831;10,23185
 209,34;  285,522;  200,757;  996,638;10,65048
 209,94;  310,053;  219,757; 1096,814;10,29531
 210,54;  303,126;  205,913; 1200,696; 9,77227
 211,14;  316,362;  223,603; 1269,731; 8,86687
 211,73;  327,419;  203,679; 1406,089;10,29099
 212,33;  353,170;  221,832; 1487,287;10,37870
 212,93;  340,817;  198,834; 1587,825;10,22204
 213,53;  325,161;  176,295; 1656,334;10,05822
 214,13;  356,585;  210,145; 1766,419; 9,40962
 214,73;  335,326;  184,758; 1744,780; 9,65164
 215,33;  322,053;  171,219; 1778,968; 9,38170
 215,93;  347,111;  212,529; 1866,132; 8,13871
 216,53;  324,886;  154,218; 1934,078; 9,58883
 217,13;  391,769;  221,836; 2160,304; 8,76638
 217,73;  382,571;  194,452; 2358,138; 8,69437
 218,33;  369,984;  151,069; 2513,919; 9,26488
 218,93;  414,561;  181,610; 2817,997; 8,83597
 219,53;  474,637;  188,915; 3082,652; 9,87381
 220,13;  462,456;  159,762; 3367,589; 9,43611
 220,73;  509,667;  178,449; 3702,204; 9,39955
 221,32;  574,277;  179,065; 4090,215;10,10476
 221,92;  627,256;  187,992; 4480,570;10,23310
 222,52;  646,982;  172,221; 4890,290;10,06261
 223,12;  703,326;  186,144; 5324,030;10,06604
 223,72;  764,595;  197,067; 5776,609;10,17157
 224,32;  816,650;  193,452; 6174,831;10,41896
 224,92;  843,400;  171,452; 6496,656;10,62334
 225,52;  916,861;  211,604; 6849,016;10,62548
 226,12;  981,030;  183,990; 7219,368;11,32903
 226,72;  990,042;  162,297; 7536,482;11,22490
 227,31; 1052,331;  168,297; 7998,538;11,29000
 227,91; 1147,893;  189,296; 8323,145;11,78528
 228,51; 1194,166;  185,371; 8784,073;11,73194
 229,11; 1279,708;  174,066; 9235,022;12,20226
 229,71; 1345,760;  172,064; 9534,301;12,53649
 230,31; 1420,219;  169,222; 9935,594;12,80923
 230,91; 1489,091;  162,986;10333,594;13,03860
 231,51; 1567,706;  171,759;10659,579;13,31017
 232,10; 1636,926;  169,761;10995,785;13,55220
 232,70; 1730,331;  184,446;11237,239;13,98638
 233,30; 1844,920;  202,528;11520,547;14,51130
 233,90; 1888,440;  174,836;11631,141;14,95774
 234,50; 1946,619;  177,682;11734,915;15,30589
 235,10; 2021,477;  166,529;11775,656;15,97836
 235,70; 2104,846;  196,219;11812,901;16,43005
 236,29; 2125,269;  188,757;11778,545;16,70878
 236,89; 2148,002;  152,755;11704,249;17,27263
 237,49; 2214,405;  191,682;11622,550;17,69527
 238,09; 2223,586;  177,297;11388,459;18,25225
 238,69; 2277,591;  211,139;11131,546;18,92285
 239,29; 2227,551;  168,219;10801,560;19,36675
 239,89; 2194,944;  188,678;10452,500;19,54696
 240,48; 2152,260;  171,297;10068,285;20,01582
 241,08; 2124,035;  182,065; 9752,646;20,29103
 241,68; 2086,287;  194,912; 9398,898;20,54952
 242,28; 2049,970;  172,221; 9078,164;21,08423
 242,88; 2019,315;  212,607; 8743,230;21,17909
 243,48; 1988,060;  218,297; 8428,893;21,55462
 244,07; 1913,644;  194,296; 8176,201;21,54057
 244,67; 1868,121;  195,374; 8034,323;21,33892
 245,27; 1868,804;  206,525; 7879,781;21,66327
 245,87; 1852,280;  198,991; 7804,792;21,73721
 246,47; 1817,130;  189,987; 7771,725;21,46135
 247,06; 1804,542;  173,066; 7771,896;21,47010
 247,66; 1785,872;  181,066; 7821,219;21,00490
 248,26; 1818,387;  216,141; 7971,037;20,66108
 248,86; 1815,360;  198,756; 8097,577;20,46639
 249,46; 1769,822;  147,067; 8322,076;19,85019
 250,05; 1844,184;  198,220; 8709,433;19,33878
 250,65; 1839,846;  172,217; 9080,959;18,71901
 251,25; 1866,738;  179,758; 9489,151;18,12127
 251,85; 1947,146;  191,293;10093,892;17,73123
 252,44; 1955,258;  155,911;10660,272;17,12953
 253,04; 2051,205;  205,526;11430,743;16,44226
 253,64; 2044,186;  146,140;12067,396;15,92153
 254,24; 2186,454;  203,681;13054,776;15,42883
 254,84; 2227,129;  172,836;13907,999;14,95645
 255,43; 2316,420;  179,526;14928,557;14,48837
 256,03; 2375,684;  191,756;15909,828;13,89438
 256,63; 2448,829;  184,755;16890,074;13,55301
 257,23; 2467,991;  177,294;17824,052;12,98084
 257,82; 2519,691;  188,754;18820,164;12,51079
 258,42; 2517,594;  151,599;19574,214;12,18165
 259,02; 2610,543;  195,757;20491,653;11,89790
 259,62; 2598,311;  176,906;21225,981;11,50362
 260,21; 2600,729;  185,449;21823,782;11,16204
 260,81; 2584,185;  179,143;22350,439;10,84755
 261,41; 2560,675;  164,907;22820,132;10,57490
 262,01; 2600,309;  208,598;23240,750;10,38423
 262,60; 2538,298;  171,217;23577,206;10,11315
 263,20; 2534,141;  188,064;23878,768; 9,90294
 263,80; 2539,492;  194,983;24112,198; 9,80260
 264,40; 2485,036;  167,598;24287,495; 9,60799
 264,99; 2500,071;  191,675;24467,920; 9,50887
 265,59; 2466,615;  174,442;24619,032; 9,37702
 266,19; 2465,684;  161,444;24758,239; 9,36805
 266,78; 2508,342;  208,366;24913,405; 9,30974
 267,38; 2483,360;  184,212;24901,804; 9,30167
 267,98; 2468,110;  181,597;24907,718; 9,24736
 268,58; 2483,572;  185,827;25016,167; 9,25378
 269,17; 2494,485;  170,364;24988,792; 9,36450
 269,77; 2512,277;  186,062;24752,107; 9,46923
 270,37; 2487,640;  167,136;24681,907; 9,46574
 270,96; 2552,066;  223,600;24538,654; 9,57623
 271,56; 2491,733;  170,217;24297,592; 9,62192
 272,16; 2519,648;  182,753;24038,749; 9,79584
 272,75; 2549,425;  186,292;24019,881; 9,91514
 273,35; 2553,266;  174,908;23944,212;10,00601
 273,95; 2586,001;  185,984;23884,307;10,12737
 274,54; 2610,522;  168,143;23891,727;10,29515
 275,14; 2708,870;  208,216;24297,630;10,38072
 275,74; 2711,292;  157,446;24328,050;10,56592
 276,33; 2828,095;  205,139;24746,269;10,68800
 276,93; 2898,113;  185,143;25131,191;10,87535
 277,53; 3004,999;  174,218;25555,741;11,15292
 278,12; 3117,997;  160,371;26123,189;11,39178
 278,72; 3273,107;  206,833;26741,722;11,55563
 279,32; 3362,677;  180,295;27291,472;11,73827
 279,91; 3489,009;  163,910;28007,777;11,94194
 280,51; 3675,219;  182,218;28570,005;12,30459
 281,11; 3810,759;  180,602;29225,449;12,49846
 281,70; 3915,685;  160,371;29692,206;12,71616
 282,30; 4096,887;  180,755;30403,438;12,95759
 282,90; 4231,782;  172,447;30816,138;13,24689
 283,49; 4434,380;  182,677;31264,176;13,67921
 284,09; 4588,437;  211,832;31783,103;13,86262
 284,69; 4784,457;  213,833;32162,515;14,30614
 285,28; 4957,707;  190,986;32511,908;14,74810
 285,88; 5103,158;  235,753;32632,603;15,02432
 286,47; 5245,359;  192,216;32827,020;15,48391
 287,07; 5438,024;  209,833;32883,815;16,00108
 287,67; 5636,290;  199,990;33014,893;16,56656
 288,26; 5784,198;  171,910;32884,291;17,15646
 288,86; 6017,619;  176,063;33004,788;17,79404
 289,46; 6257,085;  196,833;33129,167;18,40213
 290,05; 6511,085;  174,450;33145,879;19,21856
 290,65; 6824,285;  188,755;33413,316;19,97176
 291,24; 7136,463;  188,295;33554,191;20,82416
 291,84; 7438,829;  200,447;33571,997;21,69028
 292,44; 7721,364;  179,759;33788,751;22,43925
 293,03; 8098,531;  244,449;33928,526;23,31690
 293,63; 8310,609;  182,601;34108,963;23,95779
 294,22; 8652,846;  197,217;34208,344;24,86136
 294,82; 8826,948;  180,137;34351,144;25,30453
 295,41; 9012,455;  168,525;33973,437;26,16167
 296,01; 9232,853;  218,599;33979,053;26,70063
 296,61; 9294,647;  203,987;33634,331;27,19284
 297,20; 9382,437;  190,446;33442,533;27,64335
 297,80; 9500,205;  200,758;33170,755;28,20579
 298,39; 9505,685;  175,370;32777,584;28,61865
 298,99; 9659,700;  203,446;32677,521;29,11940
 299,58; 9631,237;  190,989;32559,281;29,16511
 300,18; 9697,554;  207,758;32312,702;29,55868
 300,78; 9648,285;  185,142;31897,885;29,84019
 301,37; 9780,162;  205,521;31938,182;30,17283
 301,97; 9857,835;  193,141;31873,378;30,50701
 302,56; 9811,948;  185,139;31812,098;30,43862
 303,16; 9890,117;  165,600;31709,432;30,82858
 303,75; 9947,868;  178,219;31737,295;30,95670
 304,35;10054,510;  172,683;31988,324;31,05965
 304,94;10099,901;  186,448;32052,335;31,10992
 305,54;10114,277;  203,603;31958,446;31,20996
 306,13;10098,518;  150,452;31881,840;31,35087
 306,73;10026,952;  169,221;31632,912;31,33050
 307,33;10140,888;  198,066;31628,713;31,63416
 307,92;10128,781;  189,987;31616,393;31,62561
 308,52;10291,955;  168,370;32189,992;31,61484
 309,11;10478,644;  185,214;32645,139;31,71119
 309,71;10643,934;  157,983;32939,798;31,98710
 310,30;10727,003;  170,833;33093,031;32,06399
 310,90;10829,773;  218,295;33487,954;31,89536
 311,49;10857,130;  185,372;33619,494;31,91876
 312,09;10871,650;  148,527;33792,185;31,87264
 312,68;11078,853;  230,988;34163,564;31,96888
 313,28;11064,319;  162,526;34301,316;31,93374
 313,87;11126,082;  163,064;34460,179;31,96484
 314,47;11236,908;  174,369;34707,813;32,03428
 315,06;11202,289;  158,449;34834,406;31,84870
 315,66;11259,266;  167,681;35121,185;31,73240
 316,25;11187,990;  153,908;35029,122;31,63875
 316,85;11186,159;  141,065;35072,352;31,61949
 317,44;11184,046;  178,753;35374,627;31,26870
 318,04;11122,185;  150,217;35390,466;31,13476
 318,63;11096,730;  151,836;35376,884;31,07134
 319,22;11170,392;  180,832;35541,149;31,07879
 319,82;11064,497;  175,371;35624,692;30,71745
 320,41;11018,246;  191,832;35502,126;30,66079
 321,01;10943,509;  197,834;35601,991;30,35145
 321,60;10929,640;  173,294;35642,649;30,32574
 322,20;10826,693;  170,064;35616,966;30,06364
 322,79;10877,222;  203,834;35745,763;30,03041
 323,39;10746,974;  178,452;35765,620;29,69756
 323,98;10652,431;  167,834;35687,523;29,51771
 324,58;10557,195;  167,216;35551,964;29,36288
 325,17;10450,219;  174,139;35381,820;29,18704
 325,76;10342,333;  193,295;35215,578;28,97880
 326,36;10185,403;  157,757;34847,075;28,90701
 326,95;10034,878;  196,525;34498,088;28,68194
 327,55; 9815,594;  161,217;34156,630;28,39906
 328,14; 9657,866;  165,758;33819,620;28,20511
 328,74; 9502,141;  194,755;33386,749;28,04106
 329,33; 9345,116;  198,757;33012,783;27,87332
 329,92; 9048,787;  159,215;32478,557;27,50543
 330,52; 8839,806;  187,220;31800,031;27,37051
 331,11; 8646,495;  184,140;31400,313;27,10888
 331,71; 8412,240;  183,371;30765,546;26,90740
 332,30; 8207,747;  193,295;30257,873;26,65746
 332,89; 8058,704;  228,219;29819,246;26,46237
 333,49; 7768,657;  194,910;29188,214;26,12240
 334,08; 7611,046;  180,678;28766,581;25,99312
 334,68; 7438,997;  175,909;28253,189;25,86820
 335,27; 7283,725;  206,066;27924,741;25,53390
 335,86; 7167,572;  232,909;27733,005;25,21687
 336,46; 6998,560;  197,451;27428,390;24,97567
 337,05; 6841,938;  173,756;27255,369;24,62254
 337,65; 6761,084;  161,525;27009,238;24,58146
 338,24; 6741,249;  227,218;27063,684;24,27306
 338,83; 6634,767;  206,680;26875,977;24,10295
 339,43; 6524,594;  176,831;26789,771;23,85217
 340,02; 6419,751;  176,370;26769,914;23,47706
 340,61; 6368,895;  172,526;26764,973;23,30124
 341,21; 6341,449;  209,062;26772,672;23,08567
 341,80; 6261,950;  175,909;26746,022;22,90559
 342,40; 6217,324;  185,374;26814,170;22,65198
 342,99; 6134,935;  176,526;26901,323;22,29543
 343,58; 6111,270;  175,680;27040,321;22,09443
 344,18; 6133,700;  191,681;27106,032;22,07751
 344,77; 6111,723;  176,600;27457,383;21,75569
 345,36; 6117,186;  156,525;27770,780;21,58545
 345,96; 6127,135;  205,142;28138,496;21,20044
 346,55; 6096,117;  180,606;28308,423;21,03082
 347,14; 6083,814;  163,835;28633,240;20,79418
 347,74; 6104,719;  152,454;29076,026;20,57929
 348,33; 6208,213;  182,223;29727,617;20,39570
 348,92; 6281,774;  190,685;30325,106;20,21306
 349,52; 6285,839;  152,146;30821,826;19,99921
 350,11; 6292,908;  176,139;31060,441;19,80543
 350,70; 6249,098;  182,910;31140,750;19,59500
 351,29; 6104,015;  165,905;30902,230;19,31952
 351,89; 6105,250;  179,830;30893,167;19,29266
 352,48; 5974,762;  146,680;30871,449;18,96868
 353,07; 5957,243;  187,297;30848,418;18,81844
 353,67; 5889,983;  195,993;30772,174;18,62230
 354,26; 5731,670;  187,758;30523,596;18,27512
 354,85; 5671,110;  185,373;30321,267;18,20333
 355,45; 5572,655;  152,986;30321,444;17,96469
 356,04; 5508,674;  167,759;30123,284;17,82948
 356,63; 5394,868;  204,679;29949,660;17,44896
 357,22; 5337,458;  180,136;29745,530;17,44378
 357,82; 5240,507;  185,906;29537,851;17,22067
 358,41; 5141,027;  206,371;29434,573;16,88320
 359,00; 5040,912;  172,062;29247,897;16,74535
 359,60; 4987,855;  184,911;29215,097;16,54465
 360,19; 4985,372;  183,298;29049,190;16,63581
 360,78; 4885,296;  187,602;28855,756;16,38645
 361,37; 4781,795;  172,063;28623,643;16,20202
 361,97; 4766,990;  181,448;28507,987;16,18815
 362,56; 4648,476;  173,062;28250,966;15,93927
 363,15; 4620,595;  220,524;27987,393;15,84648
 363,74; 4511,033;  178,215;27757,057;15,71066
 364,34; 4407,095;  202,985;27318,422;15,50449
 364,93; 4289,873;  171,985;26938,465;15,38450
 365,52; 4186,495;  148,986;26498,236;15,32305
 366,11; 4152,306;  175,985;26150,100;15,30878
 366,71; 4033,930;  169,832;25798,995;15,07696
 367,30; 4003,398;  184,140;25445,760;15,11882
 367,89; 3989,678;  207,758;25249,023;15,10275
 368,48; 3852,954;  194,215;24893,140;14,81335
 369,07; 3766,636;  177,064;24550,211;14,72757
 369,67; 3752,124;  202,677;24224,249;14,77608
 370,26; 3637,712;  176,064;23890,986;14,59692
 370,85; 3559,332;  189,986;23657,110;14,35773
 371,44; 3572,780;  174,602;23421,233;14,61794
 372,03; 3509,489;  166,216;23182,548;14,52566
 372,63; 3446,849;  158,525;22892,871;14,46412
 373,22; 3407,686;  169,218;22610,905;14,43059
 373,81; 3361,861;  159,679;22294,369;14,46680
 374,40; 3306,798;  170,066;22019,746;14,35596
 374,99; 3255,548;  172,909;21755,688;14,28286
 375,59; 3193,445;  158,989;21481,419;14,23129
 376,18; 3228,633;  192,448;21318,589;14,37170
 376,77; 3173,970;  191,064;21097,972;14,26756
 377,36; 3185,534;  199,909;21033,349;14,33093
 377,95; 3172,314;  190,524;20770,462;14,48882
 378,55; 3092,586;  162,911;20590,145;14,34200
 379,14; 3117,910;  182,063;20548,838;14,41488
 379,73; 3080,466;  184,293;20439,314;14,29854
 380,32; 3117,769;  187,294;20454,344;14,45930
 380,91; 3093,058;  179,907;20352,292;14,44128
 381,50; 3128,821;  188,216;20279,700;14,63608
 382,10; 3099,077;  175,679;20164,497;14,62516
 382,69; 3109,881;  155,832;20101,000;14,81085
 383,28; 3158,145;  208,754;20160,886;14,78233
 383,87; 3109,203;  176,139;19975,557;14,81389
 384,46; 3093,361;  165,906;19926,060;14,81494
 385,05; 3151,812;  200,446;19952,420;14,94213
 385,64; 3147,844;  174,370;19871,869;15,09569
 386,24; 3169,209;  157,675;19841,362;15,29964
 386,83; 3202,645;  197,137;19919,742;15,23890
 387,42; 3243,766;  197,832;20050,490;15,34270
 388,01; 3278,415;  178,443;20213,564;15,47269
 388,60; 3355,925;  176,214;20488,910;15,65381
 389,19; 3415,913;  164,518;20605,349;15,90638
 389,78; 3474,638;  172,749;20910,798;15,92189
 390,37; 3616,153;  225,675;21383,133;16,02498
 390,96; 3649,143;  188,522;21431,328;16,29079
 391,56; 3665,894;  189,825;21602,399;16,23377
 392,15; 3727,440;  165,826;21874,241;16,40661
 392,74; 3789,372;  149,899;22061,541;16,60977
 393,33; 3899,542;  184,055;22338,912;16,77053
 393,92; 3983,169;  177,820;22828,054;16,80049
 394,51; 4051,476;  155,593;22921,725;17,11262
 395,10; 4154,674;  194,047;23179,407;17,23109
 395,69; 4197,724;  187,124;23371,497;17,29872
 396,28; 4253,464;  186,815;23369,787;17,54153
 396,87; 4283,599;  191,042;23560,563;17,51237
 397,46; 4379,833;  190,808;23627,905;17,87348
 398,06; 4470,710;  204,728;23870,233;18,02616
 398,65; 4495,784;  183,259;23917,529;18,17003
 399,24; 4585,080;  194,643;24031,775;18,41848
 399,83; 4589,856;  168,478;24112,609;18,46540
 400,42; 4700,924;  199,083;24264,429;18,70674
 401,01; 4751,117;  181,764;24384,700;18,87933
 401,60; 4813,784;  179,749;24453,496;19,09073
 402,19; 4866,488;  207,813;24319,300;19,32139
 402,78; 4907,037;  206,487;24403,792;19,42592
 403,37; 4858,159;  193,161;24164,420;19,46080
 403,96; 4926,551;  184,448;24034,585;19,88292
 404,55; 4952,906;  190,886;23966,363;20,02913
 405,14; 4956,907;  171,788;23822,006;20,23287
 405,73; 4980,829;  189,302;23733,758;20,35098
 406,32; 5027,110;  186,747;23628,388;20,64857
 406,91; 5006,885;  186,343;23371,961;20,79109
 407,50; 5027,473;  195,718;23263,146;20,94623
 408,09; 4999,380;  173,403;22909,949;21,22564
 408,68; 5044,039;  186,244;22801,213;21,48044
 409,27; 5035,736;  164,327;22635,206;21,67876
 409,86; 5058,978;  174,265;22510,602;21,86890
 410,45; 5108,960;  214,355;22380,437;22,08151
 411,04; 5138,073;  209,214;22359,191;22,25221
 411,63; 5148,906;  195,846;22070,608;22,64280
 412,22; 5093,672;  197,631;21906,435;22,55325
 412,81; 5100,498;  209,406;21664,950;22,79640
 413,40; 5074,083;  212,874;21278,980;23,07597
 413,99; 5074,264;  244,026;20934,947;23,34472
 414,58; 4938,121;  181,873;20559,855;23,34013
 415,17; 4950,459;  182,713;20325,684;23,66953
 415,76; 4926,448;  181,169;20153,483;23,75929
 416,35; 4922,025;  182,018;20024,331;23,88838
 416,94; 5018,720;  201,555;20020,839;24,30545
 417,53; 5125,617;  182,406;20224,833;24,66373
 418,12; 5175,320;  183,100;20330,971;24,77790
 418,71; 5302,830;  195,643;20671,509;24,94247
 419,30; 5338,380;  176,793;20789,490;25,04082
 419,89; 5419,894;  171,178;20987,581;25,21432
 420,48; 5570,570;  209,336;21198,984;25,54228
 421,07; 5629,670;  192,337;21377,852;25,66533
 421,66; 5630,293;  161,571;21367,565;25,78857
 422,25; 5659,399;  173,808;21313,787;25,94890
 422,84; 5718,017;  220,963;21402,871;25,95165
 423,43; 5649,561;  191,883;21064,515;26,14753
 424,02; 5684,584;  212,500;20822,691;26,55038
 424,60; 5588,087;  183,353;20363,969;26,78181
 425,19; 5580,568;  198,734;20092,478;27,05290
 425,78; 5552,755;  209,658;20059,537;26,91753
 426,37; 5565,674;  216,045;19881,047;27,20381
 426,96; 5540,404;  198,506;19742,088;27,33326
 427,55; 5552,851;  190,434;19560,799;27,68362
 428,14; 5496,223;  183,820;19414,171;27,62509
 428,73; 5514,468;  194,817;19177,005;28,02444
 429,32; 5574,015;  206,121;19222,016;28,22846
 429,91; 5582,446;  231,432;19202,303;28,20648
 430,50; 5598,563;  203,511;19019,364;28,67291
 431,08; 5520,893;  212,744;18903,174;28,40036
 431,67; 5582,214;  237,131;18764,698;28,84935
 432,26; 5558,219;  253,594;18672,937;28,79921
 432,85; 5501,284;  262,670;18309,887;29,02727
 433,44; 5437,008;  263,981;17871,444;29,37974
 434,03; 5395,008;  277,831;17595,417;29,54902
 434,62; 5244,073;  235,750;17102,022;29,69431
 435,21; 5225,357;  252,901;16855,135;29,95052
 435,79; 5189,757;  241,214;16766,153;29,94591
 436,38; 5179,229;  233,064;16658,707;30,11246
 436,97; 5182,425;  238,680;16540,590;30,32617
 437,56; 5098,681;  249,762;16313,893;30,18476
 438,15; 5121,872;  210,222;16256,300;30,60966
 438,74; 5159,019;  246,531;16245,714;30,70462
 439,33; 5179,827;  224,684;16323,820;30,77894
 439,91; 5190,420;  198,225;16398,842;30,81485
 440,50; 5227,128;  241,071;16402,951;30,85073
 441,09; 5315,608;  241,613;16486,630;31,23416
 441,68; 5303,018;  225,077;16535,749;31,13263
 442,27; 5317,180;  213,384;16488,631;31,35925
 442,86; 5297,995;  187,775;16505,583;31,31683
 443,44; 5347,513;  199,774;16579,396;31,42771
 444,03; 5438,244;  263,545;16673,533;31,53384
 444,62; 5363,773;  201,391;16496,407;31,68074
 445,21; 5345,745;  217,467;16323,325;31,84107
 445,80; 5376,687;  233,471;16243,473;32,12502
 446,39; 5282,243;  261,316;15992,026;31,91800
 446,97; 5221,977;  193,936;15812,419;32,19289
 447,56; 5158,590;  201,708;15544,776;32,30698
 448,15; 5131,622;  198,936;15364,714;32,52511
 448,74; 5084,973;  212,475;15120,591;32,68353
 449,33; 5022,809;  198,246;14915,573;32,78152
 449,91; 4953,406;  192,865;14743,987;32,71597
 450,50; 4878,127;  187,018;14549,813;32,66153
 451,09; 4883,429;  218,096;14400,990;32,89408
 451,68; 4893,303;  228,943;14402,155;32,90969
 452,26; 4839,331;  216,330;14273,557;32,88700
 452,85; 4816,507;  198,790;14204,785;32,96957
 453,44; 4847,770;  220,257;14170,290;33,17206
 454,03; 4824,125;  187,254;14128,650;33,25973
 454,61; 4823,545;  191,026;14065,587;33,38858
 455,20; 4894,283;  228,797;14258,086;33,25533
 455,79; 4900,359;  214,948;14251,587;33,37987
 456,38; 4938,181;  216,723;14341,120;33,42768
 456,97; 4976,701;  197,107;14428,933;33,58385
 457,55; 4969,049;  197,801;14423,917;33,53866
 458,14; 5022,950;  229,721;14400,024;33,82587
 458,73; 4943,131;  210,263;14278,291;33,64273
 459,31; 5053,785;  239,035;14379,523;34,04939
 459,90; 5031,748;  245,418;14448,611;33,69897
 460,49; 5124,116;  274,263;14532,573;34,01422
 461,08; 5066,564;  212,114;14592,206;33,75813
 461,66; 5110,306;  218,574;14701,343;33,77622
 462,25; 5181,402;  214,577;14809,171;34,03196
 462,84; 5215,877;  235,037;14834,042;34,11767
 463,43; 5196,504;  175,657;14744,910;34,46194
 464,01; 5218,793;  207,428;14779,293;34,39069
 464,60; 5204,576;  250,887;14762,986;34,13489
 465,19; 5108,003;  189,967;14538,983;34,27438
 465,77; 5067,338;  215,199;14491,462;33,98746
 466,36; 5088,821;  235,349;14343,421;34,40209
 466,95; 4980,624;  204,350;14058,326;34,47584
 467,53; 4848,583;  214,278;13774,595;34,17549
 468,12; 4790,587;  228,432;13496,206;34,38523
 468,71; 4743,027;  217,737;13235,300;34,76296
 469,29; 4598,793;  195,741;12990,285;34,41352
 469,88; 4527,468;  203,434;12705,431;34,58675
 470,47; 4642,192;  265,975;12837,219;34,81133
 471,06; 4575,911;  206,283;12812,217;34,66326
 471,64; 4611,133;  221,359;12910,233;34,59546
 472,23; 4599,071;  182,211;12872,417;34,80527
 472,81; 4616,278;  185,747;13041,453;34,46354
 473,40; 4643,377;  199,288;13161,269;34,28557
 473,99; 4794,166;  284,057;13322,828;34,58998
 474,57; 4781,658;  200,596;13524,347;34,38268
 475,16; 4849,290;  216,055;13618,656;34,56967
 475,75; 4898,622;  222,829;13741,639;34,58731
 476,33; 4921,593;  228,985;13858,601;34,42950
 476,92; 4963,025;  226,750;13935,333;34,54970
 477,51; 4961,529;  214,676;13911,087;34,65764
 478,09; 4995,259;  214,061;13997,282;34,68854
 478,68; 4936,469;  221,523;13903,510;34,46097
 479,27; 5014,639;  247,752;13895,896;34,92700
 479,85; 4951,605;  209,523;13970,638;34,46002
 480,44; 4976,726;  205,293;14049,059;34,46629
 481,02; 5432,644;  227,911;15303,255;34,52480
 481,61; 6126,453;  236,525;17450,586;34,21579
 482,20; 6547,691;  222,911;18702,884;34,22505
 482,78; 6864,443;  249,216;19458,442;34,43776
 483,37; 7035,008;  228,144;20073,355;34,29978
 483,95; 7186,559;  264,607;20290,174;34,56557
 484,54; 7237,909;  265,371;20433,212;34,57255
 485,13; 7157,219;  235,532;20376,454;34,36629
 485,71; 7061,394;  213,685;20220,457;34,22696
 486,30; 7009,663;  247,070;19894,421;34,41987
 486,88; 6922,106;  273,609;19530,330;34,52559
 487,47; 6682,550;  261,225;18817,085;34,60537
 488,05; 6371,680;  240,995;18005,094;34,51165
 488,64; 5952,055;  239,767;16715,615;34,67068
 489,23; 5369,239;  251,842;14945,116;34,82816
 489,81; 4586,625;  248,304;12677,892;34,90318
 490,40; 4289,253;  202,689;12032,320;34,54515
 490,98; 4170,606;  200,844;11754,736;34,35866
 491,57; 4170,370;  234,227;11638,805;34,51371
 492,15; 4143,178;  215,460;11594,871;34,51601
 492,74; 4065,668;  215,534;11529,442;34,03010
 493,32; 4060,859;  233,536;11409,206;34,24692
 493,91; 3976,327;  208,538;11276,747;34,04154
 494,50; 3959,103;  221,388;11303,165;33,72848
 495,08; 3970,586;  209,234;11133,405;34,43147
 495,67; 3959,707;  226,768;11157,296;34,15149
 496,25; 3916,399;  175,848;11091,481;34,26783
 496,84; 3859,122;  188,537;11049,200;33,79706
 497,42; 3841,706;  177,772;11000,801;33,85313
 498,01; 3865,933;  217,923;10952,006;33,98530
 498,59; 3824,865;  188,387;10879,252;34,01481
 499,18; 3838,882;  191,923;10876,318;34,13351
 499,76; 3792,600;  215,078;10813,648;33,75475
 500,35; 3723,561;  202,235;10572,804;33,95499
 500,93; 3659,756;  194,002;10516,495;33,57477
 501,52; 3665,664;  196,849;10465,777;33,77972
 502,10; 3668,733;  215,314;10495,311;33,59358
 502,69; 3600,215;  197,392;10305,806;33,66327
 503,27; 3510,591;  182,696;10127,163;33,46479
 503,86; 3528,886;  199,084;10087,093;33,67515
 504,44; 3482,946;  174,778; 9992,777;33,69493
 505,03; 3376,263;  164,547; 9675,595;33,76826
 505,61; 3336,568;  191,239; 9624,748;33,34209
 506,19; 3287,024;  198,162; 9449,771;33,38729
 506,78; 3199,889;  170,396; 9229,137;33,44276
 507,36; 3175,419;  194,700; 9134,661;33,34152
 507,95; 3125,776;  181,013; 8946,263;33,59589
 508,53; 3059,679;  183,703; 8860,691;33,14486
 509,12; 2998,465;  191,320; 8715,883;32,93008
 509,70; 2970,629;  207,397; 8559,862;33,08283
 510,29; 2966,995;  205,245; 8401,244;33,69632
 510,87; 2850,737;  184,473; 8227,516;33,14994
 511,46; 2784,085;  173,473; 8038,943;33,19079
 512,04; 2742,517;  188,398; 7912,437;33,06714
 512,62; 2690,892;  184,319; 7804,754;32,89278
 513,21; 2609,637;  161,476; 7630,858;32,77596
 513,79; 2580,781;  181,404; 7489,410;32,83218
 514,38; 2507,571;  166,325; 7326,945;32,69613
 514,96; 2504,151;  211,940; 7244,507;32,59423
 515,54; 2430,744;  166,095; 7094,433;32,68676
 516,13; 2414,500;  197,480; 7026,710;32,46369
 516,71; 2399,697;  182,636; 6897,990;33,01480
 517,30; 2319,733;  171,945; 6780,825;32,49852
 517,88; 2289,956;  196,253; 6684,232;32,27050
 518,46; 2253,753;  168,100; 6554,929;32,65554
 519,05; 2247,794;  171,793; 6549,670;32,55003
 519,63; 2198,870;  189,946; 6433,740;32,17472
 520,22; 2221,680;  201,565; 6469,577;32,22897
 520,80; 2176,013;  178,642; 6342,966;32,40212
 521,38; 2163,194;  217,870; 6324,394;31,85649
 521,97; 2130,208;  178,720; 6246,476;32,16161
 522,55; 2131,718;  189,874; 6265,637;31,96050
 523,13; 2122,801;  176,721; 6252,248;32,03146
 523,72; 2101,437;  180,023; 6163,028;32,11454
 524,30; 2152,391;  208,030; 6362,032;31,59507
 524,89; 2138,772;  173,874; 6386,557;31,62720
 525,47; 2180,471;  205,031; 6514,802;31,30763
 526,05; 2163,389;  160,108; 6568,896;31,25835
 526,64; 2239,860;  196,955; 6676,188;31,53004
 527,22; 2260,269;  198,569; 6816,635;31,15261
 527,80; 2312,439;  233,647; 6913,910;31,11841
 528,39; 2305,310;  190,186; 7005,696;31,03397
 528,97; 2345,538;  190,494; 7176,310;30,84886
 529,55; 2406,974;  200,336; 7390,423;30,69000
 530,14; 2474,887;  210,572; 7594,744;30,66444
 530,72; 2485,730;  185,801; 7654,121;30,79580
 531,30; 2473,912;  167,726; 7810,517;30,17466
 531,89; 2549,047;  191,803; 7893,650;30,60622
 532,47; 2607,211;  218,265; 8050,398;30,50186
 533,05; 2587,478;  217,570; 8074,023;30,16512
 533,63; 2647,851;  207,419; 8137,561;30,77412
 534,22; 2601,879;  180,958; 8149,477;30,38107
 534,80; 2635,277;  211,114; 8273,232;30,06857
 535,38; 2719,889;  277,034; 8325,898;30,35031
 535,97; 2631,345;  198,342; 8260,998;30,17620
 536,55; 2687,774;  226,498; 8343,900;30,32097
 537,13; 2646,645;  219,495; 8297,624;30,04595
 537,71; 2669,466;  269,110; 8298,389;29,89504
 538,30; 2676,207;  255,266; 8423,966;29,63679
 538,88; 2717,235;  285,731; 8462,765;29,73578
 539,46; 2799,018;  328,883; 8646,701;29,69691
 540,05; 2805,936;  316,115; 8775,884;29,43132
 540,63; 2888,310;  361,038; 8905,380;29,57831
 541,21; 2922,275;  366,116; 9075,653;29,34897
 541,79; 2932,872;  390,654; 9170,864;28,95395
 542,38; 3023,988;  412,807; 9330,650;29,28041
 542,96; 3020,034;  408,656; 9479,706;28,78805
 543,54; 3118,182;  430,654; 9661,083;29,11596
 544,12; 3084,271;  388,578; 9823,594;28,57116
 544,70; 3099,686;  383,964; 9914,522;28,49489
 545,29; 3177,958;  407,499;10096,663;28,59338
 545,87; 3194,564;  399,039;10157,787;28,64635
 546,45; 3140,826;  363,730;10156,749;28,35792
 547,03; 3158,284;  342,500;10258,850;28,39537
 547,62; 3165,100;  326,885;10368,644;28,26412
 548,20; 3232,864;  355,117;10597,289;28,09704
 548,78; 3210,861;  317,044;10698,351;27,87527
 549,36; 3267,982;  292,275;10921,984;27,99424
 549,94; 3284,535;  272,117;11092,114;27,84121
 550,53; 3324,769;  286,274;11315,691;27,54901
 551,11; 3375,765;  254,584;11509,573;27,73153
 551,69; 3462,829;  268,198;11862,748;27,55287
 552,27; 3478,174;  233,119;12089,540;27,36960
 552,85; 3553,958;  233,430;12540,839;26,97991
 553,44; 3645,628;  233,736;12820,273;27,10747
 554,02; 3768,533;  257,814;13201,336;27,12337
 554,60; 3799,935;  201,584;13494,682;27,06932
 555,18; 3915,578;  243,121;13918,271;26,85497
 555,76; 3948,697;  226,198;14301,923;26,44623
 556,34; 4059,867;  233,662;14674,211;26,49626
 556,93; 4117,980;  219,583;15083,144;26,22788
 557,51; 4222,001;  203,278;15387,273;26,46684
 558,09; 4332,183;  224,198;15830,305;26,32293
 558,67; 4450,139;  233,048;16219,568;26,37904
 559,25; 4526,725;  242,355;16487,953;26,37250
 559,83; 4534,348;  229,280;16758,879;26,04460
 560,41; 4670,912;  208,585;17153,685;26,33403
 561,00; 4746,235;  222,125;17470,204;26,22964
 561,58; 4770,664;  212,662;17727,120;26,02423
 562,16; 4833,562;  210,584;18055,027;25,90711
 562,74; 4910,408;  190,352;18460,559;25,83471
 563,32; 4999,771;  199,511;18857,914;25,72707
 563,90; 5072,610;  216,125;19201,847;25,57967
 564,48; 5157,573;  227,123;19670,236;25,35834
 565,06; 5307,902;  217,279;20219,584;25,45018
 565,65; 5482,237;  216,513;20925,774;25,42691
 566,23; 5626,648;  264,433;21708,119;25,00603
 566,81; 5782,534;  213,740;22407,220;25,09203
 567,39; 6008,351;  225,819;23319,797;25,03914
 567,97; 6150,539;  237,202;24005,747;24,87884
 568,55; 6335,542;  245,895;24831,062;24,76960
 569,13; 6485,243;  215,279;25450,181;24,84640
 569,71; 6668,140;  209,660;26444,524;24,61793
 570,29; 6989,933;  258,736;27448,131;24,75670
 570,87; 7119,962;  261,737;28161,745;24,58144
 571,45; 7243,833;  235,433;28793,947;24,54049
 572,03; 7305,865;  196,281;29276,799;24,44793
 572,61; 7466,341;  194,587;30040,895;24,36400
 573,20; 7572,230;  215,047;30685,741;24,14511
 573,78; 7732,935;  222,049;31358,732;24,12230
 574,36; 7849,124;  223,818;31822,003;24,13210
 574,94; 7947,379;  267,050;32220,109;24,03629
 575,52; 7978,779;  221,130;32436,480;24,08060
 576,10; 8152,869;  266,514;33090,274;24,02636
 576,68; 8193,221;  249,665;33505,806;23,88598
 577,26; 8367,650;  262,131;34187,650;23,89210
 577,84; 8427,862;  272,818;34734,484;23,66410
 578,42; 8520,226;  305,743;35110,116;23,60187
 579,00; 8486,021;  248,049;35113,781;23,62770
 579,58; 8504,195;  279,666;35455,584;23,38114
 580,16; 8527,712;  258,975;35470,356;23,48314
 580,74; 8482,998;  255,975;35730,039;23,19166
 581,32; 8471,018;  251,512;35778,119;23,13620
 581,90; 8406,357;  276,513;35652,497;22,98125
 582,48; 8403,413;  277,975;35829,559;22,85535
 583,06; 8398,108;  258,820;36024,002;22,75757
 583,64; 8423,360;  246,897;36134,165;22,78374
 584,22; 8280,879;  267,284;35945,573;22,46070
 584,80; 8258,898;  274,897;35793,562;22,47832
 585,38; 8116,936;  275,124;35326,464;22,37236
 585,96; 8090,045;  257,434;35489,175;22,23169
 586,54; 8081,500;  277,592;35445,780;22,19025
 587,12; 8098,348;  234,744;35572,147;22,25292
 587,70; 8101,639;  277,511;35778,551;22,03915
 588,28; 8088,387;  256,591;35861,182;21,99659
 588,86; 8107,275;  268,360;35959,988;21,96289
 589,44; 8082,212;  243,978;36002,057;21,92018
 590,02; 8122,058;  264,362;36238,897;21,84238
 590,59; 8102,145;  235,515;36415,306;21,74316
 591,17; 8146,380;  257,750;36680,742;21,65838
 591,75; 8144,440;  235,287;36860,235;21,59499
 592,33; 8217,555;  263,440;37061,033;21,61586
 592,91; 8175,552;  203,519;37315,217;21,48119
 593,49; 8179,940;  222,059;37674,071;21,24821
 594,07; 8228,047;  239,520;37925,442;21,19764
 594,65; 8195,891;  250,284;37876,764;21,11706
 595,23; 8206,684;  239,978;38306,171;20,92856
 595,81; 8184,118;  245,286;38397,031;20,80857
 596,39; 8213,462;  226,671;38542,232;20,84477
 596,97; 8188,456;  223,750;38692,197;20,70452
 597,55; 8124,787;  234,515;38665,316;20,53111
 598,12; 8116,451;  222,521;38696,469;20,51760
 598,70; 8086,787;  211,365;38773,674;20,42259
 599,28; 8119,277;  239,442;39030,128;20,31373
 599,86; 8052,154;  232,673;38969,186;20,18633
 600,44; 8014,472;  189,904;39112,856;20,10271
 601,02; 8075,711;  254,677;39160,333;20,10256
 601,60; 7996,487;  236,826;39101,094;19,96605
 602,18; 7935,261;  195,367;39178,268;19,85459
 602,75; 7878,293;  220,516;39266,809;19,61205
 603,33; 7899,911;  217,289;39268,148;19,67338
 603,91; 7831,937;  206,829;39221,947;19,54398
 604,49; 7856,765;  232,750;39381,511;19,47447
 605,07; 7833,633;  238,056;39291,270;19,44930
 605,65; 7807,901;  248,982;39463,035;19,27605
 606,23; 7799,553;  287,053;39628,463;19,09566
 606,80; 7820,813;  305,901;39619,481;19,11531
 607,38; 7773,664;  334,752;39785,301;18,85629
 607,96; 7746,612;  359,593;39643,237;18,80431
 608,54; 7740,420;  403,905;39804,091;18,62051
 609,12; 7752,226;  378,670;39785,242;18,71149
 609,70; 7708,694;  418,827;39870,257;18,47808
 610,27; 7683,211;  418,132;39954,589;18,37565
 610,85; 7669,061;  425,980;39954,538;18,32367
 611,43; 7640,316;  431,904;39861,625;18,28167
 612,01; 7491,059;  413,517;39660,987;18,03312
 612,59; 7483,530;  409,827;39664,131;18,02020
 613,16; 7362,821;  381,284;39732,901;17,74142
 613,74; 7318,862;  375,981;39599,910;17,70063
 614,32; 7281,804;  345,213;39499,943;17,71584
 614,90; 7237,175;  337,595;39429,573;17,64960
 615,48; 7079,950;  297,362;39101,288;17,47913
 616,05; 7051,459;  277,207;39046,981;17,47302
 616,63; 6969,738;  278,976;38958,059;17,29814
 617,21; 6866,202;  295,285;38882,617;17,02869
 617,79; 6847,038;  271,517;38756,350;17,08601
 618,36; 6773,614;  291,825;38720,557;16,86704
 618,94; 6642,110;  229,823;38321,579;16,83379
 619,52; 6546,628;  249,360;38017,161;16,67364
 620,10; 6541,273;  234,670;38077,333;16,66533
 620,67; 6484,920;  253,899;37938,282;16,53476
 621,25; 6451,631;  270,287;37750,276;16,49238
 621,83; 6410,889;  249,439;37684,782;16,45891
 622,41; 6385,872;  300,439;37741,832;16,25322
 622,98; 6295,306;  256,360;37503,046;16,21338
 623,56; 6271,474;  274,667;37527,385;16,09763
 624,14; 6240,728;  257,211;37256,457;16,17200
 624,72; 6202,851;  247,516;37240,510;16,09855
 625,29; 6156,810;  241,975;37337,839;15,94473
 625,87; 6197,903;  275,209;37290,909;16,00049
 626,45; 6062,191;  231,359;37086,075;15,82113
 627,02; 6012,795;  248,132;37006,005;15,68280
 627,60; 6006,117;  228,289;37018,074;15,70498
 628,18; 5945,226;  210,747;37125,396;15,53443
 628,76; 5924,669;  225,360;37122,575;15,44645
 629,33; 5882,772;  254,284;37117,201;15,26870
 629,91; 5877,735;  232,978;37096,333;15,31265
 630,49; 5850,951;  255,207;37162,507;15,16162
 631,06; 5818,887;  248,976;37310,230;15,02893
 631,64; 5804,246;  255,437;37284,604;14,98497
 632,22; 5697,489;  212,589;37177,783;14,83801
 632,79; 5742,210;  230,205;37487,314;14,79451
 633,37; 5698,347;  225,902;37466,818;14,69471
 633,95; 5661,124;  236,436;37626,426;14,50840
 634,52; 5655,420;  226,593;37730,266;14,47545
 635,10; 5610,873;  233,593;37751,993;14,33238
 635,68; 5611,730;  232,359;37921,293;14,27308
 636,25; 5569,797;  202,434;38006,841;14,19772
 636,83; 5510,515;  207,360;38113,037;13,99040
 637,41; 5505,985;  222,358;38123,060;13,94071
 637,98; 5527,410;  246,666;38412,090;13,83646
 638,56; 5518,534;  237,049;38524,700;13,79423
 639,13; 5482,913;  224,898;38519,838;13,73031
 639,71; 5546,165;  266,899;38742,551;13,72106
 640,29; 5402,633;  183,514;38394,662;13,65863
 640,86; 5412,765;  203,976;38724,562;13,52209
 641,44; 5400,128;  203,053;38562,538;13,54834
 642,02; 5412,721;  237,669;38730,514;13,44419
 642,59; 5426,545;  210,207;38880,106;13,48940
 643,17; 5305,600;  209,361;38775,466;13,21430
 643,74; 5312,963;  209,592;38758,673;13,23863
 644,32; 5295,326;  233,515;38873,265;13,10001
 644,89; 5271,457;  230,130;38821,472;13,06336
 645,47; 5253,743;  253,669;38837,833;12,95888
 646,05; 5203,259;  235,361;38730,117;12,90539
 646,62; 5190,545;  224,285;38751,247;12,89035
 647,20; 5211,908;  232,362;38965,300;12,85610
 647,77; 5099,040;  195,669;38789,430;12,70509
 648,35; 5058,941;  202,669;38628,637;12,63799
 648,92; 5066,688;  225,516;38666,844;12,59366
 649,50; 4962,589;  195,131;38549,743;12,42995
 650,08; 4960,413;  205,977;38472,027;12,42468
 650,65; 4955,853;  204,362;38580,696;12,38130
 651,23; 4988,061;  187,670;39402,980;12,24112
 651,80; 5099,116;  187,593;40441,418;12,20138
 652,38; 5123,710;  207,747;40831,778;12,10112
 652,95; 5108,457;  180,593;41162,601;12,02446
 653,53; 5163,281;  217,362;41458,346;11,99273
 654,10; 5206,259;  238,593;41596,938;12,01128
 654,68; 5095,775;  200,286;41438,991;11,87110
 655,25; 5070,753;  195,440;41513,121;11,79958
 655,83; 5012,500;  198,440;41557,559;11,63966
 656,40; 5038,555;  226,824;41553,381;11,64319
 656,98; 4974,072;  211,132;41612,050;11,50443
 657,55; 4945,819;  202,132;41424,565;11,50754
 658,13; 4917,720;  200,055;41004,618;11,56161
 658,70; 4824,006;  218,132;40836,286;11,33945
 659,28; 4709,830;  207,517;39943,955;11,33044
 659,85; 4612,654;  221,133;39137,469;11,28452
 660,43; 4612,170;  211,517;39171,292;11,29538
 661,00; 4551,302;  203,287;39186,883;11,15345
 661,58; 4533,742;  198,825;39684,398;10,97848
 662,15; 4555,335;  200,671;39787,759;11,00021
 662,73; 4612,390;  259,287;40132,658;10,91732
 663,30; 4537,983;  208,825;40338,327;10,78797
 663,88; 4573,885;  203,133;40417,534;10,86862
 664,45; 4568,401;  191,595;40816,895;10,77360
 665,03; 4576,994;  204,287;41034,256;10,70955
 665,60; 4683,588;  283,980;41597,539;10,64931
 666,17; 4559,873;  219,287;41755,285;10,45018
 666,75; 4591,236;  194,057;41987,030;10,52134
 667,32; 4617,137;  211,980;42377,007;10,44742
 667,90; 4631,807;  198,057;42671,060;10,43899
 668,47; 4646,016;  224,595;42877,959;10,36594
 669,05; 4642,763;  207,134;43213,243;10,31395
 669,62; 4599,972;  169,365;43318,065;10,26823
 670,19; 4566,796;  186,596;43414,888;10,13272
 670,77; 4604,082;  201,365;43623,249;10,13940
 671,34; 4565,214;  188,519;43622,533;10,07665
 671,92; 4612,422;  195,211;43894,893;10,10811
 672,49; 4590,631;  220,134;43936,177; 9,99747
 673,06; 4542,378;  167,673;43929,077; 9,99672
 673,64; 4524,049;  185,904;43829,437; 9,93995
 674,21; 4497,104;  171,827;43843,260; 9,90413
 674,79; 4530,005;  215,442;44122,928; 9,82648
 675,36; 4528,136;  212,289;44363,597; 9,77513
 675,93; 4458,576;  186,443;44148,342; 9,71781
 676,51; 4464,631;  203,673;44467,396; 9,62630
 677,08; 4450,763;  206,443;44381,833; 9,60788
 677,65; 4439,510;  209,904;44546,579; 9,53974
 678,23; 4448,565;  196,520;44795,709; 9,53391
 678,80; 4432,235;  191,058;44857,762; 9,49516
 679,38; 4366,290;  192,058;44996,277; 9,31660
 679,95; 4428,422;  204,597;45358,638; 9,35426
 680,52; 4412,092;  187,520;45587,845; 9,30516
 681,10; 4477,762;  213,136;45975,744; 9,31902
 681,67; 4451,433;  203,597;46311,489; 9,21282
 682,24; 4396,949;  185,597;46273,927; 9,13757
 682,82; 4467,619;  195,367;46900,288; 9,14733
 683,39; 4565,290;  238,521;47203,495; 9,21276
 683,96; 4546,498;  204,521;47468,240; 9,18670
 684,54; 4516,323;  181,367;47753,601; 9,11237
 685,11; 4560,685;  239,521;48220,193; 9,00605
 685,68; 4561,817;  205,598;48535,477; 9,01351
 686,25; 4563,410;  184,367;48735,145; 9,01951
 686,83; 4554,927;  198,444;48885,045; 8,94801
 687,40; 4572,289;  186,213;49219,021; 8,94519
 687,97; 4632,190;  228,983;49642,689; 8,91090
 688,55; 4593,322;  184,137;49562,819; 8,92933
 689,12; 4566,070;  166,829;49904,488; 8,84489
 689,69; 4616,278;  174,906;50041,772; 8,90646
 690,26; 4619,564;  202,983;50050,056; 8,86026
 690,84; 4597,696;  188,983;50302,109; 8,79752
 691,41; 4615,443;  203,060;50265,701; 8,81372
 691,98; 4628,036;  201,983;50695,292; 8,76562
 692,56; 4612,860;  189,753;50778,961; 8,74318
 693,13; 4659,377;  244,137;50830,706; 8,72809
 693,70; 4611,509;  207,061;50932,221; 8,68297
 694,27; 4596,794;  198,214;51258,813; 8,61443
 694,84; 4589,465;  190,061;51133,404; 8,63588
 695,42; 4628,212;  230,061;51318,765; 8,60885
 695,99; 4553,498;  195,369;51420,510; 8,50779
 696,56; 4588,937;  197,522;51374,025; 8,58092
 697,13; 4580,146;  203,523;51868,848; 8,47110
 697,71; 4585,355;  175,292;51889,285; 8,52779
 698,28; 4584,563;  189,830;52164,108; 8,45559
 698,85; 4544,388;  157,446;52182,699; 8,43233
 699,42; 4558,058;  162,907;52472,752; 8,40215
 699,99; 4614,651;  197,215;52494,498; 8,44678
 700,57; 4585,475;  193,677;52598,628; 8,38050
 701,14; 4564,376;  179,677;52679,604; 8,35182
 701,71; 4582,431;  198,908;52900,196; 8,31768
 702,28; 4562,332;  187,600;52938,864; 8,29313
 702,85; 4567,156;  199,908;52906,994; 8,28588
 703,43; 4613,058;  207,831;53360,894; 8,28781
 704,00; 4610,497;  225,062;53470,408; 8,23628
 704,57; 4581,244;  208,524;53381,231; 8,22362
 705,14; 4615,068;  216,447;53670,669; 8,22876
 705,71; 4650,816;  211,062;53798,491; 8,28507
 706,28; 4603,332;  189,678;53673,160; 8,25237
 706,86; 4626,002;  225,216;53871,597; 8,20332
 707,43; 4652,980;  239,755;53866,420; 8,22954
 708,00; 4659,343;  218,678;53859,627; 8,27850
 708,57; 4600,321;  190,832;53769,988; 8,22986
 709,14; 4628,991;  221,909;53938,271; 8,20436
 709,71; 4598,738;  195,601;54030,786; 8,17892
 710,28; 4618,716;  204,678;54240,378; 8,16874
 710,86; 4628,233;  203,832;54357,662; 8,17006
 711,43; 4651,672;  226,986;54343,869; 8,17617
 712,00; 4647,112;  210,371;54522,076; 8,16903
 712,57; 4689,936;  219,986;54547,283; 8,22782
 713,14; 4644,991;  209,294;54769,567; 8,12990
 713,71; 4660,738;  222,448;54599,851; 8,16201
 714,28; 4655,793;  210,294;54662,211; 8,16408
 714,85; 4584,463;  190,371;54369,341; 8,11033
 715,42; 4646,441;  202,217;54618,010; 8,16716
 716,00; 4731,727;  263,987;54710,063; 8,20581
 716,57; 4677,474;  204,371;54790,732; 8,19454
 717,14; 4629,298;  197,679;54877,093; 8,10473
 717,71; 4639,584;  179,679;54784,761; 8,16756
 718,28; 4717,023;  233,372;54958,891; 8,19298
 718,85; 4620,386;  187,449;55041,944; 8,08127
 719,42; 4670,672;  217,833;55159,690; 8,10464
 719,99; 4677,034;  181,141;55005,128; 8,20060
 720,56; 4698,628;  216,218;55192,873; 8,15330
 721,13; 4682,990;  195,141;55296,618; 8,14470
 721,70; 4662,584;  192,449;55204,056; 8,12580
 722,27; 4722,946;  217,526;55252,263; 8,18650
 722,84; 4766,155;  256,757;55392,701; 8,17869
 723,41; 4721,210;  185,911;55387,370; 8,21590
 723,98; 4728,342;  194,757;55579,653; 8,18560
 724,55; 4799,397;  223,680;55786,245; 8,23525
 725,12; 4687,836;  154,296;55632,298; 8,17178
 725,69; 4772,122;  200,450;55798,505; 8,22272
 726,27; 4794,638;  195,450;55981,328; 8,24436
 726,84; 4811,693;  197,834;56216,612; 8,23627
 727,41; 4829,056;  214,142;56164,972; 8,24816
 727,98; 4869,495;  215,450;56552,102; 8,26113
 728,55; 4901,781;  234,296;56450,233; 8,30278
 729,12; 4833,220;  181,373;56490,055; 8,26133
 729,69; 4863,737;  219,296;56778,954; 8,21158
 730,26; 4931,407;  222,912;56899,007; 8,30773
 730,82; 4909,924;  207,297;56748,137; 8,31722
 731,39; 4937,055;  197,143;56856,191; 8,36568
 731,96; 4955,726;  190,143;57225,782; 8,35545
 732,53; 5003,011;  201,758;57488,451; 8,38110
 733,10; 5038,682;  213,374;57534,196; 8,41807
 733,67; 5080,352;  206,989;57751,096; 8,46892
 734,24; 5045,330;  190,682;57308,610; 8,49934
 734,81; 5082,770;  227,297;57476,586; 8,48128
 735,38; 5062,748;  205,759;57341,409; 8,50080
 735,95; 5050,418;  199,143;57096,000; 8,52644
 736,52; 5108,934;  217,374;57264,823; 8,57455
 737,09; 5090,374;  214,605;56955,876; 8,59298
 737,66; 5148,121;  255,451;57133,698; 8,60200
 738,23; 5112,714;  196,451;57238,521; 8,61866
 738,80; 5235,308;  262,528;57491,805; 8,68922
 739,37; 5180,747;  234,298;57758,089; 8,59896
 739,94; 5189,879;  213,529;57798,834; 8,64170
 740,51; 5331,703;  317,990;57901,118; 8,70691
 741,07; 5206,835;  201,837;57796,863; 8,68998
 741,64; 5268,044;  238,452;58036,917; 8,70195
 742,21; 5316,637;  215,991;58049,277; 8,81957
 742,78; 5241,307;  195,221;57761,792; 8,76565
 743,35; 5323,978;  212,221;58071,076; 8,83487
 743,92; 5366,033;  248,760;58380,052; 8,80296
 744,49; 5329,703;  229,222;57986,336; 8,83091
 745,06; 5348,989;  213,376;58040,005; 8,88105
 745,63; 5334,505;  194,837;58088,135; 8,87783
 746,19; 5368,791;  199,760;58059,265; 8,93376
 746,76; 5374,999;  213,222;58131,010; 8,91225
 747,33; 5398,670;  214,530;58115,063; 8,95353
 747,90; 5445,186;  214,914;58300,347; 9,00445
 748,47; 5432,549;  221,838;58159,093; 8,99371
 749,04; 5449,681;  230,376;58126,531; 9,01494
 749,61; 5487,966;  238,684;58085,199; 9,07450
 750,17; 5486,252;  218,453;58233,329; 9,08008
 750,74; 5482,384;  223,838;58144,382; 9,07890
 751,31; 5485,131;  198,992;58062,897; 9,13547
 751,88; 5468,878;  189,453;57927,643; 9,14373
 752,45; 5518,395;  211,992;58131,234; 9,16173
 753,02; 5516,911;  234,684;57998,210; 9,14457
 753,58; 5533,735;  193,069;57799,648; 9,27093
 754,15; 5540,021;  195,531;57940,624; 9,25531
 754,72; 5529,460;  199,531;57836,524; 9,24741
 755,29; 5521,054;  183,992;57553,885; 9,30290
 755,86; 5561,801;  209,146;57743,399; 9,30342
 756,42; 5642,548;  218,300;57561,222; 9,45932
 756,99; 5584,988;  197,070;57557,890; 9,39303
 757,56; 5599,504;  208,377;57604,559; 9,39283
 758,13; 5616,559;  165,300;57528,612; 9,50304
 758,70; 5697,691;  194,070;57577,588; 9,59094
 759,26; 5692,053;  200,301;57653,026; 9,55873
 759,83; 5742,570;  214,608;57756,002; 9,60693
 760,40; 5742,856;  190,532;57602,901; 9,67095
 760,97; 5772,680;  181,532;57745,724; 9,71289
 761,53; 5772,965;  173,686;57327,085; 9,79693
 762,10; 5767,559;  164,686;57321,369; 9,80266
 762,67; 5826,691;  205,840;57303,499; 9,84428
 763,24; 5748,822;  158,224;56833,552; 9,86425
 763,80; 5867,800;  198,147;56985,990; 9,98392
 764,37; 5816,240;  189,917;56905,658; 9,92021
 764,94; 5793,679;  178,917;56441,711; 9,97953
 765,50; 5812,119;  176,302;56408,764;10,02236
 766,07; 5872,789;  205,917;56378,510;10,08832
 766,64; 5804,690;  184,917;56131,409;10,04491
 767,21; 5846,899;  181,917;56024,462;10,14456
 767,77; 5894,031;  202,763;55931,592;10,21243
 768,34; 5930,086;  209,148;55892,722;10,27401
 768,91; 5946,833;  210,456;55688,314;10,33994
 769,47; 5927,580;  205,225;55727,752;10,30637
 770,04; 5978,020;  209,225;55589,343;10,41672
 770,61; 5974,536;  190,533;55380,166;10,48023
 771,18; 5982,822;  190,379;55216,142;10,52678
 771,74; 6023,492;  195,918;55472,888;10,54250
 772,31; 6000,701;  207,149;55135,018;10,54756
 772,88; 6028,217;  172,456;54969,378;10,68630
 773,44; 6039,888;  185,072;54724,893;10,73494
 774,01; 6057,404;  208,149;54924,792;10,69008
 774,58; 6069,767;  192,303;54459,846;10,83053
 775,14; 6076,052;  179,380;54622,053;10,83098
 775,71; 6133,030;  189,457;54557,029;10,93220
 776,27; 6144,393;  238,534;54489,620;10,88616
 776,84; 6235,140;  270,226;54588,981;10,98132
 777,41; 6180,657;  209,457;54333,573;11,03242
 777,97; 6153,711;  187,996;54079,857;11,06979
 778,54; 6185,843;  202,303;54161,295;11,08905
 779,11; 6303,129;  234,304;54029,502;11,28135
 779,67; 6241,415;  194,534;54077,939;11,22216
 780,24; 6249,777;  206,227;53719,454;11,29356
 780,80; 6296,140;  226,381;53780,738;11,33383
 781,37; 6333,656;  219,458;53756,176;11,42057
 781,94; 6312,711;  201,227;53600,614;11,44486
 782,50; 6332,997;  208,227;53384,282;11,51791
 783,07; 6406,206;  230,381;53494,104;11,59480
 783,63; 6406,107;  196,381;53211,388;11,71315
 784,20; 6415,623;  223,766;53191,442;11,68988
 784,77; 6415,909;  209,689;52920,110;11,77418
 785,33; 6416,733;  189,612;52761,548;11,84495
 785,90; 6465,788;  209,920;52792,909;11,89713
 786,46; 6481,997;  229,151;52641,577;11,93008
 787,03; 6515,667;  205,689;52420,553;12,08464
 787,59; 6555,722;  205,228;52470,607;12,15048
 788,16; 6551,700;  222,689;52317,814;12,14895
 788,73; 6552,293;  228,074;52168,098;12,17600
 789,29; 6534,656;  210,382;51840,151;12,24928
 789,86; 6582,018;  227,844;51718,819;12,34037
 790,42; 6599,150;  222,228;51698,642;12,38805
 790,99; 6560,282;  226,382;51221,464;12,42061
 791,55; 6568,875;  205,767;51189,517;12,48066
 792,12; 6619,853;  235,459;51250,724;12,51467
 792,68; 6610,600;  214,844;50930,162;12,61109
 793,25; 6658,963;  218,382;50748,907;12,74592
 793,81; 6685,018;  272,613;50268,961;12,82575
 794,38; 6571,150;  197,460;50098,783;12,77259
 794,94; 6636,512;  206,613;50010,836;12,91035
 795,51; 6659,029;  234,614;49636,120;13,00449
 796,07; 6644,853;  216,075;49489,250;13,04722
 796,64; 6678,908;  229,537;49531,303;13,08142
 797,20; 6659,732;  227,922;49147,049;13,14784
 797,77; 6660,710;  194,614;48731,179;13,32211
 798,33; 6651,073;  222,614;48696,924;13,26158
 798,90; 6700,435;  237,614;48520,439;13,38534
 799,46; 6671,490;  209,922;48030,569;13,51209
 800,03; 6665,468;  218,537;47993,084;13,49449
 800,59; 6722,215;  231,537;47753,445;13,65829
 801,15; 6673,193;  244,230;47560,575;13,58719
 801,72; 6656,940;  219,307;47296,705;13,67457
 802,28; 6679,457;  248,845;46915,989;13,77974
 802,85; 6594,358;  220,768;46647,042;13,72841
 803,41; 6583,798;  218,922;46464,249;13,76328
 803,98; 6567,545;  216,538;46099,763;13,84167
 804,54; 6557,600;  213,999;45879,432;13,89147
 805,11; 6515,116;  222,307;45628,947;13,85879
 805,67; 6581,863;  249,846;45488,384;13,99695
 806,23; 6497,149;  232,231;45109,207;13,96021
 806,80; 6539,512;  249,231;45059,414;14,03761
 807,36; 6539,643;  243,615;44980,390;14,07350
 807,93; 6596,314;  248,154;44652,982;14,29610
 808,49; 6548,061;  215,692;44293,496;14,36634
 809,05; 6498,347;  205,231;44215,011;14,29936
 809,62; 6562,863;  237,308;44081,295;14,42742
 810,18; 6586,995;  235,462;43991,964;14,51563
 810,74; 6520,127;  201,077;43586,094;14,56505
 811,31; 6574,412;  204,770;43439,378;14,73274
 811,87; 6607,313;  220,693;43221,969;14,85216
 812,44; 6622,368;  253,924;43351,638;14,77676
 813,00; 6577,500;  182,385;43052,614;14,91738
 813,56; 6667,170;  234,616;43028,975;15,03131
 814,13; 6658,225;  220,001;42955,182;15,06540
 814,69; 6706,357;  224,078;42729,620;15,25043
 815,25; 6636,335;  187,924;42265,980;15,32488
 815,82; 6671,928;  235,770;42261,803;15,31469
 816,38; 6732,137;  268,617;42136,010;15,43808
 816,94; 6674,577;  210,617;41705,524;15,57772
 817,51; 6618,555;  207,848;41603,655;15,48637
 818,07; 6580,687;  210,232;41236,169;15,52787
 818,63; 6660,588;  233,617;41066,222;15,73980
 819,20; 6684,258;  226,925;40996,122;15,83875
 819,76; 6644,928;  201,156;40596,252;15,95187
 820,32; 6691,906;  248,694;40578,766;15,97620
 820,89; 6700,269;  236,310;40284,589;16,14042
 821,45; 6656,478;  222,848;39917,873;16,20765
 822,01; 6644,686;  229,617;39761,387;16,22763
 822,57; 6658,972;  234,848;39616,287;16,31257
 823,14; 6629,719;  200,310;39335,494;16,42872
 823,70; 6654,620;  212,387;39129,855;16,55358
 824,26; 6677,137;  213,387;38920,985;16,69892
 824,82; 6714,653;  249,002;38790,346;16,77588
 825,39; 6645,093;  215,310;38492,476;16,79796
 825,95; 6714,071;  233,156;38548,683;16,91459
 826,51; 6646,741;  237,310;38121,351;16,91855
 827,08; 6719,796;  262,157;38176,943;17,03198
 827,64; 6686,158;  241,618;38010,304;17,06318
 828,20; 6674,444;  211,618;37685,588;17,24617
 828,76; 6716,114;  250,388;37665,641;17,28099
 829,32; 6707,246;  248,234;37578,463;17,30236
 829,89; 6718,455;  200,080;37370,901;17,53627
 830,45; 6740,125;  241,003;37326,262;17,52481
 831,01; 6724,565;  221,465;37130,930;17,61906
 831,57; 6726,312;  223,388;37025,753;17,66985
 832,14; 6734,136;  221,542;37007,190;17,70417
 832,70; 6761,883;  202,619;36693,936;17,97486
 833,26; 6741,246;  183,234;36693,681;17,96201
 833,82; 6790,685;  217,081;36566,965;18,08425
 834,38; 6775,048;  216,927;36445,172;18,10223
 834,95; 6802,872;  201,465;36371,764;18,25090
 835,51; 6836,389;  169,466;36375,509;18,41384
 836,07; 6890,367;  221,389;36354,332;18,45678
 836,63; 6908,498;  238,696;36262,231;18,51512
 837,19; 6887,476;  231,158;36133,900;18,53986
 837,75; 6857,224;  182,158;35783,183;18,74964
 838,32; 6989,278;  244,851;35931,929;18,89880
 838,88; 7001,564;  240,004;36031,367;18,89160
 839,44; 6978,234;  231,312;35826,804;18,95443
 840,00; 7025,366;  221,851;35768,396;19,13974
 840,56; 6971,806;  204,928;35450,834;19,19905
 841,12; 6996,168;  207,312;35470,964;19,25171
 841,68; 6977,762;  194,313;35269,632;19,33966
 842,25; 7001,201;  204,159;35319,224;19,35649
 842,81; 6980,179;  201,236;34981,585;19,49073
 843,37; 7029,080;  196,467;35065,715;19,59496
 843,93; 7107,520;  201,313;34900,537;19,90306
 844,49; 7084,498;  223,467;35037,206;19,70783
 845,05; 7048,630;  180,698;34748,336;19,86810
 845,61; 7142,454;  233,082;34749,543;20,01761
 846,17; 7168,432;  216,467;34727,519;20,14417
 846,73; 7157,717;  214,313;34654,957;20,16049
 847,29; 7152,080;  198,083;34464,241;20,29407
 847,86; 7164,366;  199,467;34366,679;20,38474
 848,42; 7149,574;  199,237;34149,732;20,47198
 848,98; 7185,475;  222,314;34060,708;20,57770
 849,54; 7220,069;  200,929;34173,684;20,66108
 850,10; 7259,431;  215,083;34019,661;20,83845
 850,66; 7210,333;  190,468;33877,560;20,83844
 851,22; 7225,541;  193,929;33775,151;20,93912
 851,78; 7330,519;  250,083;33848,820;21,07352
 852,34; 7261,497;  230,237;33620,104;21,05807
 852,90; 7276,937;  204,160;33484,772;21,25194
 853,46; 7242,376;  202,776;33288,672;21,27674
 854,02; 7334,123;  208,776;33279,417;21,54584
 854,58; 7319,640;  205,084;33035,163;21,67085
 855,14; 7317,387;  209,315;32941,216;21,71604
 855,70; 7314,442;  179,084;32930,038;21,78672
 856,26; 7381,497;  226,238;32714,476;22,02415
 856,82; 7345,706;  204,853;32531,683;22,08955
 857,38; 7382,991;  237,776;32537,582;22,12154
 857,94; 7363,508;  211,161;32329,943;22,26842
 858,50; 7396,409;  223,469;32305,227;22,35831
 859,06; 7349,618;  203,007;31977,357;22,49176
 859,62; 7384,980;  232,854;31969,103;22,53614
 860,18; 7374,112;  214,700;31814,617;22,65643
 860,74; 7330,552;  186,469;31707,747;22,66432
 861,30; 7306,145;  196,239;31471,108;22,73361
 861,86; 7409,431;  259,008;31502,546;22,88609
 862,42; 7352,716;  220,008;31344,061;22,91703
 862,98; 7419,925;  245,239;31302,960;23,10114
 863,54; 7344,441;  217,623;31021,398;23,13618
 864,10; 7393,804;  219,624;31180,143;23,17203
 864,66; 7371,474;  191,008;30899,966;23,38232
 865,22; 7397,914;  212,547;30794,096;23,49576
 865,78; 7376,430;  211,162;30645,226;23,54358
 866,34; 7381,562;  197,778;30510,202;23,69914
 866,90; 7366,463;  222,470;30363,871;23,70160
 867,45; 7294,826;  215,316;30152,924;23,64755
 868,01; 7278,496;  220,163;30001,285;23,70070
 868,57; 7287,474;  216,393;29747,799;23,94427
 869,13; 7297,067;  204,317;29714,622;24,03483
 869,69; 7247,045;  206,394;29664,598;23,90048
 870,25; 7251,639;  188,624;29505,420;24,09204
 870,81; 7302,386;  216,471;29362,704;24,31160
 871,37; 7324,364;  215,240;29343,834;24,40600
 871,93; 7337,111;  229,855;29159,503;24,56738
 872,49; 7282,166;  241,702;28918,633;24,55097
 873,04; 7268,836;  201,933;28846,378;24,67111
 873,60; 7267,584;  195,702;28661,970;24,84302
 874,16; 7330,869;  219,394;28592,177;25,06443
 874,72; 7249,869;  202,471;28505,023;24,90022
 875,28; 7297,023;  216,394;28451,946;25,07700
 875,84; 7266,254;  212,779;28416,485;25,00904
 876,40; 7286,638;  202,702;28364,023;25,15484
 876,95; 7354,023;  222,548;28281,100;25,41640
 877,51; 7358,869;  237,240;28300,485;25,37707
 878,07; 7380,485;  244,625;28271,485;25,46079
 878,63; 7437,177;  207,240;28237,100;25,79370
 879,19; 7471,792;  225,933;28303,254;25,80681
 879,75; 7531,023;  202,010;28379,177;26,01047
 880,30; 7577,562;  205,010;28285,792;26,25479
 880,86; 7663,023;  252,856;28427,562;26,30078
 881,42; 7661,638;  200,702;28463,023;26,39888
 881,98; 7729,023;  234,856;28522,638;26,49259
 882,54; 7837,254;  199,317;28608,331;26,88561
 883,09; 7886,715;  222,933;28754,946;26,86029
 883,65; 7943,023;  201,933;28861,792;27,01022
 884,21; 8060,869;  244,471;29072,946;27,11346
 884,77; 8019,946;  204,933;29068,023;27,07615
 885,32; 8118,638;  207,625;29326,638;27,16786
 885,88; 8276,946;  249,548;29431,792;27,50782
 886,44; 8324,100;  216,471;29416,254;27,76606
 887,00; 8327,715;  235,163;29470,100;27,68110
 887,56; 8399,715;  216,702;29674,177;27,77907
 888,11; 8440,792;  213,856;29634,177;27,96345
 888,67; 8518,638;  248,856;29821,331;27,96446
 889,23; 8572,715;  224,779;29841,023;28,18702
 889,79; 8525,715;  200,933;29749,715;28,17301
 890,34; 8558,485;  224,087;29662,562;28,31124
 890,90; 8700,254;  289,471;29787,100;28,51342
 891,46; 8651,408;  207,933;29726,177;28,60426
 892,01; 8686,254;  229,856;29682,023;28,71231
 892,57; 8706,869;  244,087;29601,177;28,82705
 893,13; 8637,562;  215,240;29331,100;28,92692
 893,69; 8662,177;  214,702;29356,638;28,98735
 894,24; 8654,562;  226,163;29248,562;29,04101
 894,80; 8639,638;  224,933;29131,254;29,11026
 895,36; 8597,254;  227,625;29013,946;29,07502
 895,91; 8588,331;  220,317;28725,946;29,35565
 896,47; 8613,638;  234,548;28766,331;29,36757
 897,03; 8552,485;  215,240;28519,408;29,45589
 897,58; 8544,562;  224,010;28410,715;29,51942
 898,14; 8566,254;  228,779;28245,485;29,75894
 898,70; 8521,254;  205,087;28088,562;29,82472
 899,25; 8586,023;  221,856;28018,254;30,09083
 899,81; 8592,331;  235,163;27872,100;30,23912
 900,37; 8509,331;  200,625;27663,331;30,25451
 900,92; 8526,331;  221,702;27718,177;30,20252
 901,48; 8481,946;  211,779;27456,254;30,35539
 902,03; 8481,408;  210,010;27343,869;30,48368
 902,59; 8510,638;  219,087;27251,100;30,67308
 903,15; 8510,177;  240,702;27038,408;30,85889
 903,70; 8430,485;  227,010;26772,485;30,90348
 904,26; 8450,715;  210,856;26691,946;31,11601
 904,82; 8448,946;  224,933;26620,715;31,15654
 905,37; 8471,254;  232,240;26556,638;31,29801
 905,93; 8380,869;  208,702;26433,715;31,16173
 906,48; 8450,177;  235,779;26319,408;31,49254
 907,04; 8457,638;  236,010;26205,715;31,65854
 907,60; 8386,792;  226,625;25990,408;31,67302
 908,15; 8339,485;  200,471;25854,485;31,72608
 908,71; 8406,792;  243,317;25959,100;31,74500
 909,26; 8342,177;  211,317;25708,869;31,88879
 909,82; 8358,715;  241,394;25696,792;31,88841
 910,37; 8399,408;  255,163;25506,100;32,25324
 910,93; 8289,100;  212,163;25377,023;32,09609
 911,48; 8267,177;  210,471;25194,792;32,24705
 912,04; 8234,254;  209,779;25031,100;32,32896
 912,60; 8282,562;  225,548;25080,485;32,41615
 913,15; 8242,023;  217,548;24820,869;32,61541
 913,71; 8189,638;  203,394;24704,485;32,59546
 914,26; 8175,638;  203,856;24682,869;32,56578
 914,82; 8193,100;  226,317;24523,869;32,78842
 915,37; 8180,715;  201,087;24410,023;32,96150
 915,93; 8204,485;  258,394;24353,408;32,97815
 916,48; 8137,792;  202,240;24169,946;33,10935
 917,04; 8180,331;  235,317;24069,100;33,33509
 917,59; 8239,869;  251,394;23976,177;33,67144
 918,15; 8103,254;  191,856;23859,792;33,42665
 918,70; 8070,177;  216,856;23817,946;33,27525
 919,26; 8140,869;  223,010;23684,177;33,74879
 919,81; 8073,485;  203,010;23426,562;33,89006
 920,37; 8131,792;  211,163;23411,715;34,13983
 920,92; 8120,869;  232,856;23239,408;34,28594
 921,48; 8078,485;  199,317;23019,869;34,52663
 922,03; 8108,946;  207,394;23052,177;34,58799
 922,59; 8094,177;  212,933;22870,715;34,78383
 923,14; 8060,331;  209,471;22770,485;34,79835
 923,69; 8131,100;  229,548;22779,715;35,03988
 924,25; 8099,485;  232,163;22623,792;35,13510
 924,80; 8034,715;  213,087;22481,638;35,12410
 925,36; 8002,408;  216,779;22339,946;35,19220
 925,91; 8014,023;  212,702;22210,485;35,46413
 926,47; 8016,638;  191,087;22149,023;35,63883
 927,02; 8045,869;  271,240;22125,792;35,57441
 927,57; 7971,562;  209,856;21936,023;35,72515
 928,13; 7972,408;  206,548;21810,869;35,94586
 928,68; 7988,715;  215,163;21760,100;36,08064
 929,24; 7928,869;  196,394;21569,562;36,17842
 929,79; 7906,331;  202,702;21532,792;36,11625
 930,34; 7951,792;  216,394;21315,408;36,66237
 930,90; 7905,254;  214,163;21233,638;36,59031
 931,45; 7917,946;  224,394;21307,869;36,49091
 932,01; 7917,792;  232,240;21098,177;36,83301
 932,56; 7844,715;  237,240;20955,331;36,71900
 933,11; 7873,562;  249,702;20967,254;36,79904
 933,67; 7813,177;  216,010;20769,946;36,96210
 934,22; 7859,792;  226,548;20745,254;37,20139
 934,77; 7801,177;  243,010;20597,485;37,13271
 935,33; 7784,792;  221,240;20489,562;37,31711
 935,88; 7757,100;  221,087;20395,100;37,35505
 936,43; 7778,715;  208,010;20289,715;37,69952
 936,99; 7745,485;  218,087;20199,485;37,67203
 937,54; 7702,254;  202,933;19966,408;37,94536
 938,09; 7749,485;  219,779;20040,869;37,98835
 938,65; 7699,792;  218,471;19837,100;38,13376
 939,20; 7661,792;  191,702;19767,408;38,16001
 939,75; 7637,100;  196,702;19645,869;38,25561
 940,31; 7633,485;  201,010;19523,562;38,46529
 940,86; 7683,023;  218,240;19571,869;38,57045
 941,41; 7639,177;  298,548;19481,254;38,26691
 941,96; 7541,485;  210,933;19300,254;38,40132
 942,52; 7507,562;  208,471;19239,792;38,35304
 943,07; 7513,485;  201,625;19097,946;38,69462
 943,62; 7475,638;  208,471;19001,100;38,67031
 944,18; 7468,023;  195,702;18939,100;38,79937
 944,73; 7530,100;  220,625;18894,792;39,14217
 945,28; 7387,177;  178,394;18645,715;39,03535
 945,83; 7440,023;  213,163;18682,100;39,12981
 946,39; 7465,254;  209,010;18585,023;39,48759
 946,94; 7452,408;  241,163;18501,946;39,49033
 947,49; 7399,023;  207,240;18407,638;39,51443
 948,04; 7440,254;  247,163;18397,254;39,63115
 948,59; 7386,023;  236,548;18291,792;39,59778
 949,15; 7374,869;  201,933;18110,562;40,05296
 949,70; 7315,792;  220,010;18106,869;39,67037
 950,25; 7309,869;  236,240;17984,562;39,85520
 950,80; 7316,023;  179,317;17871,638;40,33787
 951,36; 7242,023;  178,625;17785,177;40,11801
 951,91; 7305,485;  232,010;17830,715;40,19315
 952,46; 7213,869;  199,163;17579,254;40,36058
 953,01; 7279,408;  224,240;17595,408;40,61424
 953,56; 7191,792;  190,471;17396,946;40,69004
 954,11; 7209,869;  220,087;17374,562;40,74612
 954,67; 7186,408;  209,779;17376,715;40,63992
 955,22; 7109,869;  189,240;17149,485;40,80501
 955,77; 7176,946;  235,856;17149,331;41,03882
 956,32; 7211,869;  259,856;17000,869;41,52684
 956,87; 7100,638;  196,702;16885,792;41,36796
 957,42; 7134,946;  209,163;16839,562;41,64532
 957,98; 7111,869;  209,317;16755,023;41,71809
 958,53; 7118,562;  235,317;16758,100;41,65911
 959,08; 7038,638;  198,779;16575,177;41,76657
 959,63; 7030,408;  203,625;16436,485;42,05533
 960,18; 7059,177;  227,240;16404,715;42,23117
 960,73; 7065,485;  218,471;16338,177;42,47604
 961,28; 7013,100;  187,933;16310,638;42,33264
 961,83; 6995,408;  239,163;16255,023;42,18471
 962,39; 6977,715;  194,933;16131,254;42,56178
 962,94; 6940,254;  222,010;16006,485;42,56235
 963,49; 6950,562;  217,394;15937,408;42,83182
 964,04; 6959,023;  226,548;15870,177;43,03653
 964,59; 6943,562;  186,933;15730,408;43,46923
 965,14; 6917,715;  224,087;15700,869;43,24949
 965,69; 6866,792;  205,856;15567,177;43,36174
 966,24; 6905,869;  202,625;15422,100;44,04386
 966,79; 6893,946;  230,933;15378,869;43,98628
 967,34; 6803,177;  192,471;15215,331;44,00431
 967,89; 6830,792;  206,087;15166,023;44,28298
 968,44; 6828,408;  213,010;15120,638;44,37592
 968,99; 6798,792;  219,163;15072,177;44,29828
 969,55; 6809,408;  225,625;14979,023;44,62553
 970,10; 6779,562;  216,548;14840,485;44,87857
 970,65; 6760,254;  227,548;14746,177;44,99534
 971,20; 6730,485;  198,548;14626,715;45,27212
 971,75; 6668,100;  188,933;14519,485;45,21227
 972,30; 6662,946;  220,240;14463,408;45,23366
 972,85; 6607,331;  202,471;14373,792;45,19592
 973,40; 6555,946;  194,625;14285,254;45,14576
 973,95; 6642,562;  226,087;14183,254;45,97262
 974,50; 6610,869;  240,933;14163,254;45,75341
 975,05; 6494,715;  223,010;14003,715;45,51077
 975,60; 6551,177;  222,856;13962,254;46,05967
 976,15; 6507,177;  205,625;13834,485;46,23682
 976,70; 6481,946;  226,010;13747,946;46,26509
 977,25; 6475,331;  233,779;13691,638;46,37849
 977,80; 6442,100;  202,702;13509,023;46,89048
 978,35; 6336,946;  217,394;13366,638;46,53919
 978,89; 6311,792;  191,471;13324,946;46,60093
 979,44; 6313,792;  221,240;13314,792;46,53093
 979,99; 6271,254;  199,625;13033,485;47,30945
 980,54; 6200,792;  240,240;13037,485;46,57684
 981,09; 6228,408;  230,856;12928,254;47,23450
 981,64; 6167,100;  225,702;12795,177;47,26847
 982,19; 6235,331;  257,548;12768,792;47,77928
 982,74; 6104,715;  226,240;12684,946;47,18367
 983,29; 6054,331;  209,548;12498,177;47,56253
 983,84; 6068,869;  223,933;12372,100;48,11373
 984,39; 6067,485;  284,240;12408,792;47,69862
 984,94; 5974,254;  189,317;12135,254;48,42598
 985,49; 5979,408;  237,702;12149,792;48,20066
 986,03; 5970,254;  236,471;12058,946;48,49900
 986,58; 5902,792;  260,933;11876,100;48,57321
 987,13; 5888,946;  222,240;11805,408;48,92190
 987,68; 5839,715;  239,394;11672,562;48,98311
 988,23; 5790,946;  236,702;11640,023;48,70725
 988,78; 5760,331;  212,856;11427,023;49,46845
 989,33; 5754,485;  233,240;11375,562;49,55201
 989,88; 5729,408;  249,087;11319,638;49,50359
 990,42; 5690,254;  222,625;11187,331;49,86571
 990,97; 5634,946;  206,779;11049,331;50,06356
 991,52; 5663,715;  245,779;10962,254;50,55708
 992,07; 5612,638;  247,933;10895,792;50,38295
 992,62; 5535,638;  236,933;10746,100;50,41984
 993,17; 5541,715;  237,779;10666,408;50,85939
 993,71; 5470,638;  239,471;10564,638;50,66424
 994,26; 5402,869;  213,471;10373,792;51,07514
 994,81; 5404,946;  251,240;10370,100;50,93169
 995,36; 5372,792;  219,240;10219,331;51,53505
 995,91; 5332,023;  227,163;10148,562;51,45303
 996,45; 5327,715;  228,471;10034,946;51,99875
 997,00; 5219,792;  206,394; 9881,254;51,81882
 997,55; 5259,331;  239,625; 9831,562;52,33256
 998,10; 5206,177;  256,548; 9740,638;52,18876
 998,65; 5158,408;  232,394; 9689,331;52,08889
 999,19; 5130,023;  253,625; 9552,715;52,43952
 999,74; 5052,869;  264,625; 9371,792;52,57666
1000,29; 5022,177;  237,625; 9336,100;52,58631
1000,84; 4975,100;  231,087; 9207,946;52,84714
1001,38; 4924,638;  227,702; 9067,023;53,13685
1001,93; 4911,562;  245,010; 9071,177;52,87178
1002,48; 4809,638;  213,779; 8896,331;52,93213
1003,03; 4828,177;  232,933; 8861,792;53,25436
1003,57; 4768,946;  236,087; 8769,254;53,12048
1004,12; 4776,715;  260,702; 8650,946;53,82458
1004,67; 4686,715;  220,010; 8534,792;53,72005
1005,22; 4634,023;  215,702; 8437,100;53,74173
1005,76; 4558,177;  210,010; 8245,177;54,11421
1006,31; 4534,485;  234,702; 8237,254;53,73014
1006,86; 4489,869;  226,087; 8080,331;54,28635
1007,40; 4446,946;  207,779; 7979,023;54,54940
1007,95; 4427,946;  226,317; 7911,562;54,67138
1008,50; 4320,331;  236,163; 7762,869;54,26235
1009,04; 4279,023;  225,163; 7689,177;54,31206
1009,59; 4209,177;  237,702; 7508,100;54,62528
1010,14; 4136,638;  218,856; 7450,638;54,17451
1010,68; 4117,100;  226,163; 7322,715;54,82855
1011,23; 4057,485;  224,163; 7241,023;54,63015
1011,78; 4005,023;  239,625; 7121,331;54,71606
1012,32; 3977,331;  246,779; 6990,792;55,31650
1012,87; 3961,715;  254,394; 6989,408;55,04549
1013,42; 3857,023;  218,933; 6858,946;54,79041
1013,96; 3883,100;  256,317; 6901,562;54,57712
1014,51; 3810,254;  195,933; 6746,254;55,17777
1015,06; 3826,638;  208,010; 6779,254;55,06764
1015,60; 3902,177;  260,471; 6820,254;55,51565
1016,15; 3867,254;  219,856; 6777,408;55,62134
1016,69; 3859,638;  228,163; 6822,562;55,06909
1017,24; 3900,177;  212,394; 6819,715;55,81358
1017,79; 3925,792;  259,933; 6863,946;55,50957
1018,33; 3903,331;  216,394; 6880,638;55,32415
1018,88; 3975,562;  236,394; 6917,254;55,96836
1019,42; 3971,254;  217,010; 6946,946;55,78424
1019,97; 4011,023;  207,317; 6931,869;56,56445
1020,51; 4067,869;  254,087; 6983,792;56,67087
1021,06; 4026,715;  206,471; 6926,792;56,84616
1021,61; 4026,792;  188,933; 6906,715;57,12986
1022,15; 4006,177;  183,471; 6878,562;57,09715
1022,70; 4041,177;  227,010; 6876,638;57,35910
1023,24; 4039,408;  213,856; 6841,254;57,72329
1023,79; 4024,408;  228,317; 6780,869;57,93301
1024,33; 4005,638;  219,702; 6723,023;58,21543
1024,88; 3973,485;  231,471; 6608,562;58,67901
1025,42; 3953,869;  233,010; 6528,100;59,10733
1025,97; 3875,946;  220,471; 6481,100;58,38830
1026,51; 3808,100;  186,625; 6314,254;59,10076
1027,06; 3795,792;  209,548; 6251,100;59,35965
1027,60; 3764,023;  226,471; 6163,023;59,58934
1028,15; 3740,869;  240,087; 6059,946;60,15236
1028,69; 3636,562;  197,240; 5920,562;60,09310
1029,24; 3647,254;  221,317; 5901,177;60,31727
1029,78; 3601,177;  202,548; 5790,715;60,81831
1030,33; 3518,023;  193,625; 5668,254;60,72372
1030,87; 3523,562;  210,010; 5598,023;61,49858
1031,42; 3434,715;  195,087; 5524,254;60,79053
1031,96; 3425,869;  224,779; 5448,792;61,27646
1032,51; 3374,792;  207,087; 5353,023;61,55742
1033,05; 3336,100;  218,087; 5307,100;61,26951
1033,60; 3272,562;  184,548; 5169,792;61,94307
1034,14; 3234,946;  210,471; 5137,408;61,38652
1034,69; 3238,177;  212,702; 5090,023;62,03149
1035,23; 3185,715;  198,779; 5015,331;62,01400
1035,77; 3162,408;  198,548; 4943,562;62,46262
1036,32; 3104,946;  186,240; 4832,100;62,82380
1036,86; 3096,715;  218,702; 4793,638;62,90827
1037,41; 3044,408;  220,702; 4727,254;62,65779
1037,95; 2986,485;  190,163; 4612,408;63,23308
1038,50; 2954,792;  200,394; 4609,562;62,46980
1039,04; 2942,408;  224,240; 4565,638;62,61041
1039,58; 2886,562;  183,702; 4440,562;63,49422
1040,13; 2900,485;  204,702; 4391,562;64,38675
1040,67; 2908,792;  239,240; 4383,177;64,42068
1041,21; 2841,408;  227,471; 4300,177;64,18182
1041,76; 2766,331;  196,779; 4221,408;63,84569
1042,30; 2758,408;  211,163; 4185,100;64,09876
1042,85; 2688,946;  205,163; 4093,638;63,87550
1043,39; 2702,331;  211,317; 4014,485;65,49839
1043,93; 2660,946;  227,471; 3991,946;64,64314
1044,48; 2659,869;  213,856; 3927,485;65,86586
1045,02; 2619,869;  205,625; 3871,638;65,85476
1045,56; 2593,331;  234,240; 3864,408;64,98572
1046,11; 2583,562;  207,856; 3784,100;66,43019
1046,65; 2526,562;  221,702; 3705,254;66,16407
1047,19; 2480,100;  207,933; 3653,562;65,94347
1047,74; 2436,408;  192,856; 3590,638;66,02988
1048,28; 2414,946;  216,933; 3554,408;65,85857
1048,82; 2436,100;  240,087; 3521,408;66,92467
1049,37; 2386,485;  227,856; 3472,177;66,53561
1049,91; 2325,562;  225,317; 3429,100;65,55514
1050,45; 2331,485;  235,240; 3373,792;66,79017
1050,99; 2290,792;  222,317; 3323,638;66,69658
1051,54; 2239,485;  206,010; 3256,177;66,66765
1052,08; 2267,408;  243,240; 3236,023;67,63496
1052,62; 2234,562;  233,163; 3212,485;67,17631
1053,16; 2176,869;  213,010; 3153,485;66,78716
1053,71; 2194,177;  217,163; 3094,023;68,72124
1054,25; 2150,408;  228,856; 3051,638;68,07297
1054,79; 2113,100;  232,010; 3029,638;67,23874
1055,33; 2070,485;  182,548; 2962,177;67,92045
1055,88; 2067,023;  229,394; 2943,023;67,71850
1056,42; 2067,869;  233,163; 2932,331;67,97303
1056,96; 2031,100;  235,856; 2842,254;68,87836
1057,50; 1981,177;  222,933; 2837,254;67,25433
1058,05; 1968,792;  218,779; 2793,562;67,96742
1058,59; 1961,946;  250,394; 2746,254;68,57565
1059,13; 1887,254;  203,548; 2659,792;68,54798
1059,67; 1881,946;  229,779; 2629,946;68,83551
1060,21; 1851,331;  223,856; 2607,023;68,29042
1060,76; 1840,638;  230,779; 2567,408;68,89668
1061,30; 1830,869;  251,010; 2541,408;68,97751
1061,84; 1788,331;  221,779; 2478,254;69,42474
1062,38; 1743,715;  211,779; 2426,869;69,15910
1062,92; 1764,023;  252,471; 2455,638;68,60813
1063,46; 1731,946;  238,702; 2404,792;68,93730
1064,01; 1700,562;  225,702; 2381,023;68,42876
1064,55; 1679,638;  231,779; 2324,408;69,18855
1065,09; 1626,946;  203,933; 2303,177;67,78694
1065,63; 1678,792;  259,933; 2301,408;69,50169
1066,17; 1625,100;  257,856; 2265,485;68,10244
1066,71; 1634,100;  247,010; 2241,100;69,56006
1067,25; 1578,023;  217,087; 2177,408;69,42416
1067,80; 1591,408;  248,548; 2184,177;69,37588
1068,34; 1573,562;  252,856; 2149,792;69,62309
1068,88; 1523,869;  226,087; 2092,254;69,54268
1069,42; 1551,100;  253,548; 2100,408;70,25720
1069,96; 1521,869;  225,625; 2046,638;71,18257
1070,50; 1544,869;  257,779; 2045,254;72,00606
1071,04; 1474,869;  214,010; 1980,562;71,37405
1071,58; 1485,023;  221,163; 1952,408;73,00296
1072,12; 1439,408;  239,163; 1941,869;70,49041
1072,66; 1436,792;  226,933; 1951,177;70,16753
1073,21; 1454,485;  240,163; 1947,946;71,10513
1073,75; 1418,408;  227,317; 1904,946;70,99844
1074,29; 1428,023;  247,933; 1861,331;73,14316
1074,83; 1404,562;  248,856; 1857,331;71,85102
1075,37; 1410,408;  249,548; 1841,638;72,91418
1075,91; 1375,485;  251,010; 1813,715;71,95692
1076,45; 1362,715;  235,625; 1789,869;72,51694
1076,99; 1359,177;  244,625; 1763,946;73,35855
1077,53; 1320,869;  229,779; 1720,715;73,18154
1078,07; 1323,792;  234,087; 1738,638;72,42726
1078,61; 1313,792;  236,010; 1687,792;74,23857
1079,15; 1269,100;  230,702; 1680,946;71,60160
1079,69; 1280,177;  231,317; 1660,562;73,38561
1080,23; 1271,331;  250,779; 1638,562;73,53831
1080,77; 1285,100;  277,933; 1655,177;73,12917
1081,31; 1214,792;  223,317; 1575,177;73,34157
1081,85; 1240,485;  253,087; 1587,946;73,97018
1082,39; 1203,946;  228,010; 1561,638;73,17902
1082,93; 1202,715;  244,625; 1558,331;72,93036
1083,47; 1155,485;  218,933; 1495,485;73,36575
1084,01; 1190,869;  253,856; 1518,177;74,11198
1084,55; 1159,331;  235,087; 1476,792;74,43343
1085,09; 1163,023;  253,625; 1495,100;73,25142
1085,63; 1149,946;  237,087; 1444,792;75,58626
1086,17; 1129,254;  227,163; 1443,715;74,15141
1086,71; 1107,177;  230,240; 1414,331;74,05993
1087,24; 1129,562;  260,394; 1423,638;74,71925
1087,78; 1107,792;  248,163; 1414,408;73,70916
1088,32; 1067,562;  220,163; 1367,331;73,86874
1088,86; 1095,408;  253,394; 1386,946;74,28098
1089,40; 1075,100;  238,471; 1338,408;76,06156
1089,94; 1050,023;  221,087; 1311,562;76,01610
1090,48; 1036,638;  244,010; 1317,562;73,83237
1091,02; 1046,408;  247,240; 1305,792;75,49628
1091,56; 1038,408;  239,087; 1292,869;75,85256
1092,10;  984,177;  218,471; 1240,792;74,89875
1092,63; 1032,792;  258,471; 1270,100;76,54202
1093,17; 1006,485;  247,856; 1250,946;75,62916
1093,71;  977,177;  229,240; 1210,792;76,19939
1094,25; 1002,408;  253,010; 1244,177;75,60763
1094,79;  968,715;  237,471; 1191,331;76,66162
1095,33;  954,715;  250,779; 1192,946;74,71460
1095,87;  943,254;  231,394; 1167,638;76,03354
1096,40;  918,023;  220,163; 1142,485;75,66341
1096,94;  940,792;  242,394; 1159,792;76,12814
1097,48;  925,869;  243,856; 1143,254;75,82999
1098,02;  893,331;  233,779; 1105,562;75,65554
1098,56;  856,638;  216,779; 1073,562;74,68167
1099,10;  859,638;  214,087; 1059,485;76,36070
1099,63;  847,485;  221,625; 1069,331;73,82982
1100,17;  878,100;  247,779; 1086,408;75,16092
1100,71;  879,869;  265,010; 1090,100;74,52027

