
Integration time [ms]: 120,000
Averaging Nr. [scans]: 13
Smoothing Nr. [pixels]: 0
Data measured with spectrometer [name]: 2009305U1
Wave   ;Sample   ;Dark     ;Reference;Reflectance
[nm]   ;[counts] ;[counts] ;[counts] ;[%]

 175,72;  198,944;  196,668;  197,919;181,96135
 176,32;  213,897;  224,824;  212,280; 0,00000
 176,92;  245,160;  241,130;  242,571;279,70340
 177,52;  257,836;  242,515;  254,327;129,70436
 178,12;  231,859;  234,286;  223,116; 0,00000
 178,72;  258,411;  259,440;  254,402; 0,00000
 179,32;  246,040;  246,671;  235,386; 0,00000
 179,92;  241,134;  234,900;  248,482;45,89408
 180,52;  242,460;  240,436;  237,089; 0,00000
 181,12;  247,191;  253,977;  245,596; 0,00000
 181,73;  277,839;  269,515;  273,796;194,45075
 182,33;  332,865;  335,668;  334,695; 0,00000
 182,93;  255,410;  254,130;  265,674;11,08446
 183,53;  238,419;  236,441;  221,261; 0,00000
 184,13;  242,994;  237,671;  221,796; 0,00000
 184,73;  265,732;  262,518;  271,534;35,64450
 185,33;  251,765;  229,840;  336,352;20,58436
 185,93;  257,362;  230,227;  351,774;22,32505
 186,53;  278,753;  244,918;  379,899;25,06634
 187,13;  302,171;  274,916;  403,937;21,12401
 187,73;  264,053;  235,688;  356,935;23,39408
 188,33;  262,620;  241,766;  349,541;19,34943
 188,93;  274,970;  249,615;  369,880;21,08251
 189,53;  263,777;  249,772;  385,703;10,30290
 190,13;  301,112;  275,006;  414,463;18,71913
 190,73;  249,545;  214,465;  357,542;24,51789
 191,34;  290,853;  255,616;  380,255;28,27073
 191,94;  246,631;  233,998;  358,715;10,12909
 192,54;  281,438;  238,761;  386,808;28,82699
 193,14;  278,103;  254,609;  383,084;18,28716
 193,74;  277,076;  248,378;  396,443;19,38225
 194,34;  267,246;  252,224;  387,868;11,07461
 194,94;  239,599;  212,609;  342,507;20,77830
 195,54;  219,024;  192,610;  327,986;19,51220
 196,14;  247,444;  222,454;  364,863;17,54808
 196,74;  242,497;  216,764;  341,279;20,66693
 197,34;  228,109;  194,760;  337,313;23,39375
 197,94;  246,003;  225,608;  364,072;14,72935
 198,54;  259,126;  230,300;  376,969;19,65357
 199,14;  233,900;  205,914;  371,989;16,85139
 199,74;  224,942;  202,991;  371,028;13,06341
 200,34;  234,699;  185,529;  381,448;25,09701
 200,94;  266,058;  230,838;  425,835;18,06195
 201,54;  237,279;  210,991;  424,829;12,29336
 202,14;  261,629;  228,221;  464,972;14,11098
 202,74;  247,441;  209,452;  467,115;14,74373
 203,34;  228,301;  188,758;  473,666;13,87932
 203,94;  205,686;  173,913;  479,547;10,39570
 204,54;  275,105;  230,608;  560,734;13,47888
 205,14;  241,043;  194,529;  577,711;12,13889
 205,74;  283,294;  234,297;  662,667;11,43808
 206,34;  241,653;  194,990;  656,194;10,11763
 206,94;  268,161;  206,682;  723,812;11,88852
 207,54;  241,152;  180,990;  761,512;10,36346
 208,14;  254,821;  194,759;  845,961; 9,22332
 208,74;  269,081;  208,529;  911,260; 8,61664
 209,34;  254,970;  205,914;  978,815; 6,34711
 209,94;  295,876;  213,375; 1077,076; 9,55197
 210,54;  279,708;  203,989; 1184,084; 7,72563
 211,14;  295,791;  215,606; 1280,692; 7,52852
 211,73;  291,715;  202,914; 1388,013; 7,49311
 212,33;  318,324;  218,530; 1506,797; 7,74634
 212,93;  305,304;  198,914; 1587,260; 7,66310
 213,53;  286,969;  178,298; 1618,606; 7,54498
 214,13;  314,071;  200,450; 1689,169; 7,63215
 214,73;  297,013;  178,451; 1740,510; 7,59010
 215,33;  285,799;  160,837; 1762,383; 7,80258
 215,93;  337,650;  204,605; 1872,417; 7,97725
 216,53;  303,055;  159,606; 1926,444; 8,11898
 217,13;  370,278;  214,605; 2158,920; 8,00658
 217,73;  382,273;  190,528; 2304,263; 9,07140
 218,33;  375,576;  152,219; 2518,725; 9,43827
 218,93;  422,392;  182,832; 2769,091; 9,26279
 219,53;  454,388;  193,450; 3043,686; 9,15496
 220,13;  462,565;  158,449; 3363,047; 9,48998
 220,73;  490,960;  180,221; 3703,613; 8,81930
 221,32;  546,466;  184,529; 4093,106; 9,26006
 221,92;  599,043;  183,065; 4469,423; 9,70471
 222,52;  622,312;  183,066; 4860,098; 9,39156
 223,12;  665,592;  181,835; 5272,367; 9,50308
 223,72;  713,404;  191,912; 5711,636; 9,44779
 224,32;  749,321;  191,681; 6080,154; 9,47002
 224,92;  776,761;  176,296; 6396,211; 9,65390
 225,52;  828,357;  194,375; 6776,081; 9,63250
 226,12;  842,379;  184,066; 7115,680; 9,49725
 226,72;  855,144;  163,836; 7436,883; 9,50507
 227,31;  889,431;  150,836; 7843,941; 9,60074
 227,91;  971,444;  191,529; 8225,304; 9,70795
 228,51; 1001,038;  176,068; 8674,641; 9,70716
 229,11; 1050,028;  180,451; 9046,663; 9,80776
 229,71; 1052,318;  178,683; 9391,280; 9,48305
 230,31; 1078,785;  167,758; 9800,650; 9,45746
 230,91; 1137,430;  165,146;10128,599; 9,75850
 231,51; 1180,944;  167,066;10384,244; 9,92327
 232,10; 1203,674;  162,988;10757,667; 9,82272
 232,70; 1242,861;  186,608;11009,483; 9,75945
 233,30; 1305,677;  196,066;11238,918;10,04823
 233,90; 1302,426;  171,374;11352,438;10,11578
 234,50; 1337,087;  174,451;11517,427;10,24984
 235,10; 1342,146;  156,450;11505,442;10,44758
 235,70; 1388,699;  193,760;11579,833;10,49474
 236,29; 1397,063;  192,068;11503,674;10,65273
 236,89; 1362,665;  152,992;11438,703;10,71862
 237,49; 1385,369;  180,913;11287,940;10,84409
 238,09; 1372,883;  180,451;10997,578;11,02356
 238,69; 1372,179;  202,146;10858,055;10,98013
 239,29; 1316,211;  166,682;10503,772;11,12043
 239,89; 1301,994;  180,915;10194,569;11,19550
 240,48; 1250,785;  154,451; 9754,405;11,42020
 241,08; 1226,217;  170,529; 9405,870;11,43097
 241,68; 1202,671;  194,836; 9140,318;11,26641
 242,28; 1114,254;  174,220; 8763,467;10,94431
 242,88; 1152,652;  208,065; 8530,515;11,34986
 243,48; 1144,711;  199,374; 8222,440;11,78274
 244,07; 1070,423;  185,452; 8005,746;11,31634
 244,67; 1075,444;  194,220; 7827,115;11,54508
 245,27; 1048,715;  201,683; 7655,244;11,36412
 245,87; 1054,056;  198,988; 7542,632;11,64365
 246,47; 1027,505;  191,299; 7517,879;11,41333
 247,06; 1018,585;  176,221; 7552,186;11,42040
 247,66; 1041,416;  173,067; 7597,404;11,69598
 248,26; 1069,552;  204,375; 7721,867;11,50884
 248,86; 1074,974;  196,068; 7946,032;11,34078
 249,46; 1066,594;  150,220; 8117,436;11,50181
 250,05; 1111,547;  205,605; 8529,406;10,88375
 250,65; 1137,043;  158,684; 8867,977;11,23351
 251,25; 1185,836;  180,529; 9300,687;11,02291
 251,85; 1260,193;  183,915; 9897,809;11,07978
 252,44; 1286,675;  143,760;10426,548;11,11484
 253,04; 1410,729;  193,837;11157,152;11,09968
 253,64; 1446,436;  144,299;11872,353;11,10276
 254,24; 1581,736;  199,990;12750,291;11,00966
 254,84; 1684,671;  178,374;13710,898;11,13094
 255,43; 1785,924;  177,606;14641,288;11,11970
 256,03; 1933,255;  173,068;15619,314;11,39557
 256,63; 2037,336;  187,607;16570,915;11,29033
 257,23; 2123,046;  165,530;17440,270;11,33167
 257,82; 2267,100;  185,685;18410,923;11,42051
 258,42; 2326,409;  140,301;19238,014;11,44696
 259,02; 2512,369;  195,529;20100,066;11,63976
 259,62; 2586,400;  164,301;20780,805;11,74835
 260,21; 2674,378;  185,760;21389,750;11,73656
 260,81; 2750,218;  179,297;21840,834;11,86860
 261,41; 2818,526;  165,070;22271,751;12,00296
 262,01; 2946,353;  205,071;22747,222;12,16069
 262,60; 2993,431;  153,146;23059,270;12,39968
 263,20; 3079,201;  175,530;23358,004;12,52529
 263,80; 3167,300;  188,609;23556,520;12,74693
 264,40; 3179,410;  157,224;23717,182;12,82763
 264,99; 3263,404;  188,609;23856,252;12,99155
 265,59; 3286,487;  163,226;24016,091;13,09386
 266,19; 3359,880;  174,224;24242,712;13,23580
 266,78; 3428,069;  208,533;24397,709;13,30982
 267,38; 3411,034;  179,149;24300,377;13,39851
 267,98; 3424,537;  173,764;24345,555;13,44863
 268,58; 3500,475;  178,072;24350,973;13,74433
 269,17; 3465,808;  172,919;24355,377;13,61685
 269,77; 3500,593;  194,454;24203,591;13,77034
 270,37; 3478,274;  161,455;24082,628;13,86562
 270,96; 3512,551;  221,993;24011,182;13,83216
 271,56; 3475,700;  169,607;23734,204;14,02991
 272,16; 3458,102;  176,301;23539,069;14,04714
 272,75; 3456,351;  176,916;23407,117;14,11712
 273,35; 3457,381;  184,069;23453,806;14,06682
 273,95; 3468,855;  184,839;23409,924;14,13995
 274,54; 3485,495;  164,144;23390,628;14,29984
 275,14; 3584,147;  201,916;23686,758;14,40176
 275,74; 3549,596;  154,454;23785,213;14,36747
 276,33; 3667,484;  203,223;24173,832;14,45212
 276,93; 3747,349;  186,451;24621,375;14,57299
 277,53; 3836,874;  189,606;25047,943;14,67221
 278,12; 3917,841;  166,145;25551,471;14,77899
 278,72; 4042,968;  213,529;26164,319;14,75654
 279,32; 4139,831;  179,453;26731,464;14,91555
 279,91; 4265,361;  159,760;27416,178;15,06288
 280,51; 4423,717;  171,452;27950,740;15,30732
 281,11; 4544,340;  179,991;28722,006;15,29096
 281,70; 4648,325;  161,530;29076,084;15,51743
 282,30; 4773,853;  172,992;29653,281;15,60657
 282,90; 4890,899;  175,453;30050,521;15,78388
 283,49; 5056,500;  201,377;30707,229;15,91538
 284,09; 5230,142;  206,761;31099,989;16,26046
 284,69; 5328,142;  199,299;31383,821;16,44676
 285,28; 5457,408;  196,684;31825,797;16,63254
 285,88; 5664,071;  220,762;32019,926;17,11777
 286,47; 5735,241;  181,223;32128,176;17,38513
 287,07; 5919,096;  214,837;32257,888;17,80186
 287,67; 6055,634;  200,143;32393,594;18,18845
 288,26; 6176,802;  177,683;32269,677;18,69351
 288,86; 6366,328;  180,684;32334,209;19,23784
 289,46; 6591,984;  193,376;32530,562;19,78715
 290,05; 6854,101;  170,375;32505,111;20,67042
 290,65; 7050,919;  184,223;32648,485;21,15155
 291,24; 7397,706;  193,068;32961,560;21,98648
 291,84; 7653,721;  197,530;33029,454;22,71018
 292,44; 7871,110;  183,220;33101,900;23,35419
 293,03; 8188,772;  239,145;33291,127;24,05189
 293,63; 8371,647;  183,300;33470,733;24,59891
 294,22; 8600,889;  192,991;33683,054;25,10565
 294,82; 8800,099;  174,532;33575,594;25,82423
 295,41; 8897,402;  161,376;33298,468;26,36328
 296,01; 9018,748;  224,685;33327,004;26,56630
 296,61; 9051,422;  193,683;32993,397;27,00554
 297,20; 9073,116;  195,301;32730,397;27,28689
 297,80; 9166,715;  193,682;32568,733;27,71589
 298,39; 9060,962;  170,992;32250,732;27,71210
 298,99; 9126,496;  197,839;32006,740;28,06968
 299,58; 9132,556;  196,528;31893,076;28,19243
 300,18; 9125,350;  210,606;31673,312;28,33432
 300,78; 9036,714;  177,375;31300,769;28,46521
 301,37; 9070,315;  187,532;31326,148;28,52658
 301,97; 9066,809;  195,068;31357,466;28,46938
 302,56; 9074,587;  183,530;31272,571;28,59868
 303,16; 8993,260;  169,761;31119,621;28,50901
 303,75; 9022,782;  177,067;31117,546;28,58946
 304,35; 9098,540;  173,066;31521,511;28,47182
 304,94; 9121,729;  183,299;31356,572;28,67338
 305,54; 9097,004;  206,529;31336,491;28,55922
 306,13; 9024,481;  163,912;31367,636;28,39587
 306,73; 8952,771;  175,143;31149,833;28,33807
 307,33; 8952,298;  194,374;31011,498;28,41902
 307,92; 8891,947;  186,914;31149,531;28,11466
 308,52; 8976,319;  169,608;31623,266;27,99900
 309,11; 9095,908;  181,070;32031,332;27,98984
 309,71; 9184,055;  162,840;32261,962;28,10424
 310,30; 9229,160;  169,145;32596,483;27,93943
 310,90; 9280,852;  201,606;32942,868;27,73029
 311,49; 9258,121;  185,299;33078,879;27,58235
 312,09; 9213,448;  150,529;33147,793;27,46567
 312,68; 9359,431;  223,760;33564,913;27,40058
 313,28; 9352,101;  162,837;33776,608;27,33780
 313,87; 9280,460;  155,683;33948,023;27,00250
 314,47; 9354,127;  167,916;34121,906;27,05488
 315,06; 9234,154;  166,914;34277,617;26,58180
 315,66; 9267,063;  174,606;34487,947;26,49832
 316,25; 9179,760;  146,223;34415,457;26,36049
 316,85; 9115,578;  148,452;34577,725;26,04506
 317,44; 9096,860;  178,455;34696,120;25,83722
 318,04; 9041,458;  156,300;34691,771;25,72763
 318,63; 8988,089;  148,835;34867,727;25,45949
 319,22; 8968,251;  184,069;35016,168;25,21864
 319,82; 8876,729;  173,838;34976,663;25,00628
 320,41; 8812,115;  188,146;34860,446;24,87279
 321,01; 8755,444;  191,144;35028,765;24,58348
 321,60; 8725,342;  176,299;35146,306;24,44678
 322,20; 8577,405;  155,606;35103,713;24,09801
 322,79; 8523,395;  210,529;35170,511;23,77823
 323,39; 8480,756;  169,374;35258,974;23,68617
 323,98; 8370,696;  159,606;34983,952;23,57859
 324,58; 8269,483;  164,454;34968,930;23,28732
 325,17; 8171,691;  178,607;34806,918;23,08251
 325,76; 8060,627;  190,606;34590,812;22,87783
 326,36; 7933,104;  157,836;34290,160;22,77978
 326,95; 7794,975;  191,914;33891,046;22,56159
 327,55; 7647,128;  156,453;33609,990;22,39128
 328,14; 7447,236;  168,374;33306,357;21,96531
 328,74; 7337,237;  204,146;32801,533;21,88240
 329,33; 7176,657;  185,067;32458,102;21,66387
 329,92; 6982,059;  160,301;31882,668;21,50457
 330,52; 6815,880;  172,451;31214,683;21,40126
 331,11; 6633,968;  176,376;30849,970;21,05261
 331,71; 6456,745;  169,607;30282,948;20,87825
 332,30; 6352,267;  186,683;29783,956;20,83159
 332,89; 6180,541;  225,837;29357,728;20,44050
 333,49; 5998,139;  185,914;28709,171;20,37714
 334,08; 5869,194;  176,299;28312,711;20,23319
 334,68; 5719,226;  182,915;27909,086;19,96782
 335,27; 5657,749;  184,528;27528,220;20,01639
 335,86; 5564,506;  223,838;27324,046;19,70711
 336,46; 5419,823;  190,759;27025,094;19,48647
 337,05; 5304,100;  172,607;26773,720;19,29052
 337,65; 5235,852;  161,915;26639,826;19,16290
 338,24; 5243,434;  224,298;26590,654;19,03614
 338,83; 5190,497;  208,068;26462,711;18,97733
 339,43; 5090,603;  177,069;26457,101;18,69684
 340,02; 5066,973;  178,531;26386,871;18,65224
 340,61; 5037,528;  173,837;26369,338;18,56689
 341,21; 5015,160;  203,607;26349,533;18,40269
 341,80; 4975,481;  179,915;26375,384;18,30685
 342,40; 4978,174;  171,682;26432,125;18,30317
 342,99; 4951,694;  182,067;26467,113;18,14578
 343,58; 4938,426;  175,990;26717,718;17,94320
 344,18; 4959,024;  190,836;26808,342;17,91373
 344,77; 4951,557;  162,992;27092,035;17,78216
 345,36; 4986,129;  157,453;27385,200;17,73439
 345,96; 5082,139;  203,606;27672,891;17,75996
 346,55; 5054,983;  164,143;27940,079;17,60819
 347,14; 5093,591;  155,297;28302,500;17,54453
 347,74; 5142,190;  140,142;28698,886;17,51494
 348,33; 5220,660;  175,526;29329,262;17,30527
 348,92; 5320,631;  185,218;29983,524;17,23391
 349,52; 5358,649;  147,526;30445,585;17,19953
 350,11; 5390,881;  173,454;30582,180;17,15767
 350,70; 5412,727;  173,452;30809,809;17,10149
 351,29; 5334,894;  148,764;30507,921;17,08259
 351,89; 5335,744;  174,685;30478,746;17,03091
 352,48; 5289,080;  155,299;30497,665;16,91951
 353,07; 5313,043;  182,066;30396,277;16,98200
 353,67; 5270,547;  191,756;30353,888;16,83830
 354,26; 5255,294;  170,990;30103,932;16,98565
 354,85; 5176,302;  185,067;29973,792;16,75545
 355,45; 5134,553;  155,684;29816,742;16,78588
 356,04; 5146,103;  174,759;29768,055;16,79889
 356,63; 5132,356;  201,145;29409,997;16,88259
 357,22; 5083,089;  175,917;29375,176;16,80581
 357,82; 5007,112;  193,224;29208,614;16,59081
 358,41; 5068,697;  201,760;29108,120;16,83691
 359,00; 4991,768;  158,300;28913,918;16,80878
 359,60; 4978,577;  180,221;28724,683;16,81011
 360,19; 4976,436;  176,605;28638,178;16,86425
 360,78; 4968,061;  190,222;28497,576;16,87844
 361,37; 4920,180;  174,761;28242,538;16,90700
 361,97; 4909,032;  186,530;28190,006;16,86399
 362,56; 4862,444;  169,531;27892,787;16,92771
 363,15; 4896,197;  213,453;27606,375;17,09472
 363,74; 4800,256;  174,685;27373,531;17,00650
 364,34; 4820,869;  195,992;26912,293;17,31107
 364,93; 4728,517;  163,069;26430,374;17,38072
 365,52; 4636,121;  149,376;26172,508;17,24137
 366,11; 4643,778;  171,146;25882,043;17,39586
 366,71; 4547,327;  163,377;25437,168;17,34584
 367,30; 4524,415;  170,607;25110,181;17,45743
 367,89; 4561,172;  198,990;24925,860;17,64146
 368,48; 4533,341;  198,224;24640,300;17,73629
 369,07; 4456,957;  179,760;24120,963;17,86542
 369,67; 4412,607;  203,454;23868,702;17,78622
 370,26; 4381,503;  171,452;23599,578;17,97007
 370,85; 4367,495;  179,530;23323,075;18,09561
 371,44; 4333,738;  176,145;23107,871;18,13031
 372,03; 4287,187;  152,223;22932,418;18,15158
 372,63; 4280,797;  152,684;22571,978;18,41322
 373,22; 4265,380;  166,376;22343,589;18,48295
 373,81; 4216,177;  148,376;22009,643;18,60734
 374,40; 4225,093;  165,913;21699,790;18,85021
 374,99; 4197,837;  169,761;21518,751;18,86776
 375,59; 4152,956;  162,528;21175,243;18,99054
 376,18; 4192,624;  193,761;21119,644;19,10965
 376,77; 4185,711;  186,299;20977,832;19,23577
 377,36; 4203,771;  195,838;20847,778;19,40706
 377,95; 4183,873;  181,146;20525,705;19,67468
 378,55; 4140,674;  157,913;20341,534;19,73264
 379,14; 4165,299;  185,299;20317,114;19,76970
 379,73; 4181,573;  175,684;20230,320;19,97488
 380,32; 4232,581;  185,991;20308,823;20,10945
 380,91; 4222,687;  175,685;20112,135;20,29951
 381,50; 4264,717;  189,915;20145,055;20,41981
 382,10; 4264,504;  166,530;19978,130;20,68472
 382,69; 4252,883;  153,376;19923,509;20,73586
 383,28; 4295,061;  190,761;19875,842;20,84980
 383,87; 4344,886;  170,377;19769,746;21,29920
 384,46; 4319,900;  162,070;19724,738;21,25390
 385,05; 4393,168;  193,223;19732,931;21,49441
 385,64; 4413,086;  178,069;19695,581;21,69855
 386,24; 4422,277;  149,609;19626,893;21,93667
 386,83; 4507,076;  192,455;19630,827;22,19641
 387,42; 4528,017;  188,761;19800,427;22,12589
 388,01; 4613,028;  187,379;19979,741;22,36039
 388,60; 4679,638;  175,378;20220,112;22,47104
 389,19; 4714,821;  156,457;20416,341;22,49945
 389,78; 4882,739;  165,765;20729,299;22,93854
 390,37; 5066,613;  222,994;21142,177;23,15396
 390,96; 5095,588;  180,763;21286,326;23,28687
 391,56; 5171,206;  176,227;21344,508;23,59653
 392,15; 5262,419;  160,072;21679,720;23,71018
 392,74; 5341,461;  151,460;21795,507;23,97888
 393,33; 5454,061;  166,227;22126,116;24,07951
 393,92; 5627,067;  173,461;22513,333;24,41198
 394,51; 5697,526;  149,304;22716,088;24,58579
 395,10; 5780,474;  192,848;22911,234;24,59517
 395,69; 5881,266;  176,924;23003,980;24,98939
 396,28; 5965,985;  185,464;23176,013;25,14303
 396,87; 6065,666;  192,620;23343,392;25,36868
 397,46; 6065,548;  181,314;23335,340;25,41344
 398,06; 6184,868;  189,701;23615,542;25,59211
 398,65; 6214,902;  177,244;23677,260;25,69214
 399,24; 6378,320;  188,014;23858,432;26,15207
 399,83; 6383,989;  164,329;23835,982;26,27472
 400,42; 6487,587;  201,796;23985,677;26,42879
 401,01; 6547,113;  182,573;24029,218;26,68946
 401,60; 6587,336;  177,275;24210,515;26,67165
 402,19; 6680,844;  196,513;24101,561;27,12536
 402,78; 6667,134;  200,602;24087,601;27,07135
 403,37; 6709,305;  187,228;23877,105;27,53107
 403,96; 6683,199;  182,241;23721,090;27,61799
 404,55; 6714,555;  167,487;23720,600;27,79704
 405,14; 6711,347;  167,808;23513,307;28,02912
 405,73; 6778,232;  183,285;23436,720;28,36118
 406,32; 6801,268;  190,910;23384,544;28,50074
 406,91; 6754,903;  180,307;23126,231;28,65256
 407,50; 6733,095;  178,159;22981,523;28,74548
 408,09; 6728,141;  155,241;22707,575;29,14510
 408,68; 6740,100;  181,013;22565,971;29,30132
 409,27; 6713,458;  175,086;22354,826;29,47903
 409,86; 6700,883;  170,231;22237,205;29,59469
 410,45; 6791,866;  200,684;22171,617;29,99956
 411,04; 6810,005;  197,445;22092,777;30,20077
 411,63; 6763,864;  175,204;21749,606;30,53925
 412,22; 6708,379;  201,425;21608,780;30,39588
 412,81; 6710,242;  192,883;21395,680;30,73820
 413,40; 6650,297;  204,187;21034,618;30,94564
 413,99; 6613,233;  234,803;20717,708;31,14026
 414,58; 6488,662;  160,726;20274,844;31,46017
 415,17; 6451,285;  175,114;20101,949;31,49607
 415,76; 6447,496;  169,195;19974,707;31,69976
 416,35; 6429,158;  159,116;19776,073;31,96236
 416,94; 6444,025;  199,502;19821,526;31,82405
 417,53; 6627,094;  172,960;20056,994;32,45888
 418,12; 6667,676;  166,036;20023,822;32,74101
 418,71; 6805,368;  190,494;20445,675;32,65769
 419,30; 6904,549;  177,189;20578,386;32,97532
 419,89; 6983,390;  176,573;20770,792;33,05207
 420,48; 7152,113;  195,110;21032,068;33,38781
 421,07; 7147,999;  185,340;21040,253;33,38618
 421,66; 7251,337;  165,876;21069,935;33,89514
 422,25; 7232,916;  172,718;21036,735;33,83911
 422,84; 7313,096;  208,487;21049,362;34,08978
 423,43; 7214,278;  171,489;20839,926;34,07509
 424,02; 7234,394;  206,026;20496,880;34,63811
 424,60; 7118,549;  165,714;20092,893;34,89121
 425,19; 7027,272;  185,793;19869,157;34,75767
 425,78; 7048,259;  196,485;19774,962;34,99646
 426,37; 7041,769;  189,715;19661,859;35,18901
 426,96; 7031,042;  189,638;19529,359;35,37489
 427,55; 7051,121;  179,020;19339,603;35,86583
 428,14; 6970,405;  167,788;19155,101;35,82717
 428,73; 6979,535;  186,021;19002,055;36,10492
 429,32; 6944,310;  191,715;18977,775;35,94471
 429,91; 7016,067;  212,482;18966,112;36,27876
 430,50; 6999,582;  195,711;18786,512;36,59805
 431,08; 6940,999;  200,864;18610,124;36,61275
 431,67; 6935,476;  233,863;18580,766;36,52722
 432,26; 6917,549;  230,939;18330,206;36,94410
 432,85; 6840,106;  244,016;18032,499;37,08068
 433,44; 6741,128;  259,014;17649,895;37,27306
 434,03; 6638,887;  264,704;17299,958;37,41760
 434,62; 6478,594;  220,476;16897,307;37,52582
 435,21; 6451,744;  235,708;16746,958;37,64728
 435,79; 6414,679;  230,782;16568,544;37,85033
 436,38; 6435,519;  224,164;16412,732;38,36877
 436,97; 6440,063;  220,472;16329,431;38,60951
 437,56; 6346,448;  235,930;16162,416;38,36702
 438,15; 6281,911;  218,700;16037,367;38,32947
 438,74; 6365,179;  235,776;16092,672;38,65449
 439,33; 6371,928;  219,777;16171,359;38,56765
 439,91; 6406,409;  187,314;16238,238;38,74603
 440,50; 6471,830;  236,006;16217,333;39,01944
 441,09; 6513,171;  220,312;16301,833;39,13099
 441,68; 6532,222;  214,310;16343,764;39,17003
 442,27; 6546,891;  196,464;16282,263;39,47847
 442,86; 6573,254;  183,537;16344,663;39,53757
 443,44; 6572,892;  185,307;16399,787;39,39433
 444,03; 6653,206;  234,768;16429,527;39,63281
 444,62; 6572,657;  186,844;16264,941;39,71746
 445,21; 6587,255;  202,230;16176,369;39,97101
 445,80; 6555,728;  225,535;15999,528;40,13057
 446,39; 6475,771;  250,920;15821,042;39,97946
 446,97; 6341,228;  183,225;15554,035;40,06297
 447,56; 6303,940;  181,761;15307,592;40,47499
 448,15; 6249,406;  185,994;15168,718;40,46936
 448,74; 6214,558;  195,686;14965,263;40,75182
 449,33; 6129,497;  191,608;14784,807;40,68943
 449,91; 6061,005;  191,298;14588,544;40,76965
 450,50; 6013,974;  181,375;14406,952;41,00079
 451,09; 5997,696;  191,837;14299,949;41,15263
 451,68; 5969,845;  209,682;14214,719;41,12922
 452,26; 5964,617;  197,604;14109,488;41,45386
 452,85; 5888,099;  182,989;14003,849;41,27898
 453,44; 5940,986;  201,832;14047,530;41,45081
 454,03; 5957,572;  183,680;13933,596;41,99220
 454,61; 5915,711;  175,370;13940,884;41,70088
 455,20; 6026,350;  205,139;14121,979;41,82854
 455,79; 6058,884;  204,679;14106,344;42,11154
 456,38; 6074,924;  204,752;14172,857;42,02554
 456,97; 6117,302;  183,445;14221,795;42,26890
 457,55; 6088,432;  187,213;14341,041;41,69345
 458,14; 6166,729;  207,599;14274,847;42,36173
 458,73; 6120,619;  197,751;14154,010;42,43879
 459,31; 6175,666;  215,519;14203,915;42,60780
 459,90; 6172,960;  226,750;14306,406;42,23264
 460,49; 6251,715;  273,366;14411,806;42,28436
 461,08; 6249,717;  191,133;14403,434;42,62916
 461,66; 6269,407;  192,365;14554,358;42,31336
 462,25; 6352,432;  188,517;14600,243;42,77014
 462,84; 6377,058;  218,133;14695,403;42,54203
 463,43; 6329,029;  161,130;14551,405;42,86158
 464,01; 6331,818;  195,821;14623,012;42,53078
 464,60; 6373,242;  229,977;14589,624;42,78145
 465,19; 6249,559;  165,359;14358,804;42,86627
 465,77; 6236,409;  190,281;14302,727;42,84252
 466,36; 6230,963;  206,669;14272,145;42,83036
 466,95; 6084,643;  182,899;13880,028;43,08745
 467,53; 5969,262;  179,819;13600,061;43,13963
 468,12; 5868,918;  212,434;13372,184;42,98322
 468,71; 5744,075;  196,898;13136,177;42,87084
 469,29; 5661,157;  176,972;12847,700;43,28232
 469,88; 5537,631;  179,894;12587,461;43,18120
 470,47; 5657,268;  239,969;12708,011;43,44947
 471,06; 5607,691;  196,585;12693,693;43,29887
 471,64; 5661,772;  203,278;12803,602;43,32027
 472,23; 5643,077;  165,274;12796,077;43,36861
 472,81; 5736,151;  172,430;12890,420;43,74686
 473,40; 5762,162;  179,197;13041,307;43,40629
 473,99; 5885,567;  265,197;13223,941;43,37126
 474,57; 5908,738;  172,889;13406,317;43,34363
 475,16; 5973,440;  187,660;13512,513;43,42097
 475,75; 6043,945;  200,888;13632,333;43,50282
 476,33; 6121,709;  219,733;13698,089;43,78855
 476,92; 6097,849;  211,812;13770,265;43,41230
 477,51; 6155,566;  201,272;13807,479;43,76160
 478,09; 6187,685;  193,810;13841,364;43,91904
 478,68; 6135,503;  204,964;13846,695;43,47351
 479,27; 6175,512;  216,888;13833,967;43,75846
 479,85; 6120,321;  204,195;13767,446;43,61879
 480,44; 6172,835;  163,425;13890,035;43,77928
 481,02; 6766,214;  199,193;15348,965;43,34732
 481,61; 7626,493;  219,270;17381,884;43,15906
 482,20; 8159,959;  201,346;18466,821;43,57189
 482,78; 8517,981;  225,040;19260,365;43,56606
 483,37; 8776,051;  221,575;19787,966;43,72025
 483,95; 8865,186;  238,421;20101,597;43,43094
 484,54; 8943,076;  253,270;20269,915;43,41290
 485,13; 8853,965;  215,035;20216,120;43,19231
 485,71; 8811,147;  190,959;20019,097;43,47452
 486,30; 8706,573;  226,420;19680,289;43,59109
 486,88; 8582,607;  268,420;19317,698;43,64568
 487,47; 8205,795;  232,958;18612,877;43,37798
 488,05; 7824,013;  227,419;17775,668;43,28976
 488,64; 7280,183;  227,263;16521,135;43,28572
 489,23; 6538,005;  242,418;14695,116;43,55994
 489,81; 5605,214;  230,033;12503,314;43,79579
 490,40; 5317,265;  203,648;11907,484;43,69180
 490,98; 5171,541;  173,955;11627,382;43,63398
 491,57; 5149,775;  215,187;11548,864;43,53916
 492,15; 5098,836;  189,647;11515,648;43,34442
 492,74; 5096,710;  199,957;11363,542;43,86362
 493,32; 5067,778;  218,340;11287,171;43,81165
 493,91; 4961,306;  195,570;11139,766;43,54578
 494,50; 4989,552;  207,721;11189,107;43,54488
 495,08; 4902,635;  183,798;11094,897;43,24805
 495,67; 4947,119;  208,339;11096,644;43,52174
 496,25; 4851,146;  170,184;10988,928;43,26715
 496,84; 4852,597;  167,724;10969,404;43,37171
 497,42; 4792,747;  162,107;10888,278;43,17141
 498,01; 4771,603;  198,262;10888,488;42,78058
 498,59; 4792,933;  171,183;10805,786;43,45955
 499,18; 4740,342;  163,647;10772,169;43,14169
 499,76; 4736,583;  200,338;10714,168;43,14551
 500,35; 4658,476;  190,951;10529,303;43,21312
 500,93; 4631,092;  178,260;10438,289;43,39980
 501,52; 4585,419;  177,337;10374,623;43,22799
 502,10; 4641,468;  191,489;10378,023;43,68492
 502,69; 4517,215;  182,180;10226,592;43,15867
 503,27; 4430,130;  170,567;10017,943;43,25582
 503,86; 4415,223;  175,719; 9986,836;43,21123
 504,44; 4388,697;  162,410; 9862,597;43,56913
 505,03; 4234,092;  149,257; 9629,414;43,08827
 505,61; 4206,967;  163,718; 9546,523;43,09211
 506,19; 4118,689;  182,257; 9366,059;42,86278
 506,78; 4039,946;  152,716; 9184,790;43,03806
 507,36; 3985,539;  167,795; 9072,185;42,87485
 507,95; 3916,937;  168,408; 8850,302;43,17640
 508,53; 3835,883;  164,332; 8761,887;42,70459
 509,12; 3831,205;  177,870; 8629,949;43,22410
 509,70; 3734,424;  180,715; 8488,348;42,77643
 510,29; 3674,982;  188,407; 8328,108;42,83419
 510,87; 3577,862;  164,409; 8144,099;42,77676
 511,46; 3506,028;  159,485; 7966,028;42,86844
 512,04; 3462,430;  180,638; 7824,201;42,93537
 512,62; 3383,763;  172,716; 7724,681;42,51936
 513,21; 3301,714;  158,868; 7536,098;42,60197
 513,79; 3261,756;  166,942; 7407,618;42,74206
 514,38; 3191,806;  144,405; 7251,704;42,87706
 514,96; 3150,826;  194,866; 7217,206;42,09365
 515,54; 3098,574;  155,481; 7062,844;42,60806
 516,13; 3069,586;  179,096; 6917,948;42,89291
 516,71; 2994,009;  174,403; 6831,734;42,35341
 517,30; 2939,331;  155,325; 6691,551;42,59347
 517,88; 2935,851;  185,787; 6621,965;42,72822
 518,46; 2858,253;  153,401; 6497,999;42,63236
 519,05; 2838,937;  160,478; 6477,664;42,39956
 519,63; 2803,728;  181,324; 6415,620;42,06415
 520,22; 2784,759;  182,092; 6337,987;42,27927
 520,80; 2738,883;  174,476; 6226,822;42,37046
 521,38; 2779,665;  195,631; 6241,450;42,74083
 521,97; 2714,643;  160,552; 6210,102;42,21952
 522,55; 2707,842;  182,475; 6213,881;41,87029
 523,13; 2680,853;  165,167; 6207,817;41,63217
 523,72; 2668,235;  162,709; 6145,874;41,87626
 524,30; 2730,925;  183,705; 6308,377;41,58949
 524,89; 2707,844;  154,244; 6317,937;41,42970
 525,47; 2764,357;  171,550; 6418,422;41,50568
 526,05; 2765,841;  147,089; 6489,573;41,28906
 526,64; 2829,683;  186,934; 6620,203;41,07941
 527,22; 2875,074;  175,397; 6752,643;41,04570
 527,80; 2929,864;  215,242; 6874,935;40,76198
 528,39; 2951,973;  171,472; 6963,659;40,93676
 528,97; 3000,772;  179,626; 7137,153;40,54811
 529,55; 3074,721;  181,090; 7292,452;40,69025
 530,14; 3182,917;  202,626; 7473,664;40,98852
 530,72; 3226,429;  171,780; 7625,729;40,98028
 531,30; 3212,963;  148,856; 7738,499;40,37222
 531,89; 3263,327;  177,010; 7827,403;40,34194
 532,47; 3344,393;  206,625; 7946,187;40,54193
 533,05; 3347,284;  203,319; 7993,435;40,35838
 533,63; 3391,600;  191,240; 8016,483;40,89790
 534,22; 3349,940;  166,163; 8045,473;40,40679
 534,80; 3379,339;  196,931; 8129,191;40,11981
 535,38; 3465,041;  268,010; 8276,247;39,92179
 535,97; 3372,302;  173,240; 8124,860;40,23158
 536,55; 3413,858;  215,546; 8278,382;39,66732
 537,13; 3379,914;  207,087; 8215,154;39,62038
 537,71; 3416,483;  246,164; 8231,165;39,70342
 538,30; 3430,939;  248,086; 8351,459;39,27813
 538,88; 3454,052;  273,084; 8422,315;39,03397
 539,46; 3516,769;  308,700; 8568,663;38,83878
 540,05; 3564,854;  308,623; 8699,627;38,80621
 540,63; 3656,004;  343,546; 8864,809;38,87286
 541,21; 3719,296;  351,007; 8970,782;39,07630
 541,79; 3777,890;  381,007; 9119,533;38,87250
 542,38; 3828,653;  400,161; 9275,331;38,63016
 542,96; 3857,564;  394,236; 9398,667;38,46249
 543,54; 3949,106;  420,776; 9606,688;38,41023
 544,12; 3965,780;  391,622; 9719,703;38,31611
 544,70; 3998,306;  380,082; 9848,243;38,21464
 545,29; 4075,321;  399,008;10022,801;38,20026
 545,87; 4070,506;  374,776;10086,994;38,05237
 546,45; 4002,482;  348,854;10109,053;37,43395
 547,03; 4055,944;  339,084;10206,710;37,66721
 547,62; 4084,290;  315,007;10346,147;37,57582
 548,20; 4162,990;  330,006;10512,803;37,64176
 548,78; 4138,764;  295,542;10627,019;37,19916
 549,36; 4249,546;  275,542;10914,598;37,35297
 549,94; 4269,921;  264,314;11046,201;37,15126
 550,53; 4363,204;  269,081;11255,266;37,26611
 551,11; 4372,190;  234,849;11460,197;36,85713
 551,69; 4528,769;  240,004;11797,137;37,10925
 552,27; 4562,078;  212,543;12027,242;36,81461
 552,85; 4687,456;  222,695;12402,005;36,65857
 553,44; 4781,640;  225,388;12707,128;36,50334
 554,02; 4916,135;  232,926;13119,768;36,34101
 554,60; 4974,072;  193,772;13422,753;36,13506
 555,18; 5143,063;  223,542;13805,579;36,22079
 555,76; 5241,915;  206,619;14182,816;36,02766
 556,34; 5378,508;  211,002;14557,042;36,02044
 556,93; 5494,246;  205,311;14950,136;35,86977
 557,51; 5595,649;  192,156;15311,022;35,74007
 558,09; 5739,829;  212,850;15734,992;35,60707
 558,67; 5823,115;  210,693;16082,476;35,36100
 559,25; 5943,721;  223,848;16371,596;35,42211
 559,83; 6018,556;  205,308;16683,960;35,27745
 560,41; 6099,898;  205,771;17055,006;34,98157
 561,00; 6219,905;  208,539;17343,264;35,08294
 561,58; 6325,716;  198,464;17668,680;35,07256
 562,16; 6388,914;  185,157;18011,648;34,80078
 562,74; 6514,859;  167,234;18288,528;35,02854
 563,32; 6603,437;  174,923;18759,153;34,59123
 563,90; 6755,587;  207,309;19120,524;34,62277
 564,48; 6891,672;  204,772;19511,356;34,63534
 565,06; 7050,705;  188,232;20160,583;34,35987
 565,65; 7255,749;  204,153;20836,746;34,17697
 566,23; 7542,168;  250,770;21605,331;34,14445
 566,81; 7700,524;  195,001;22249,173;34,03221
 567,39; 7954,058;  205,077;23136,467;33,79202
 567,97; 8152,327;  222,924;23837,757;33,57806
 568,55; 8468,660;  234,770;24603,461;33,78881
 569,13; 8679,846;  195,539;25332,542;33,75226
 569,71; 8922,411;  195,311;26288,841;33,44546
 570,29; 9246,039;  230,004;27237,665;33,38325
 570,87; 9444,511;  228,157;28016,084;33,16675
 571,45; 9627,031;  222,924;28595,630;33,14491
 572,03; 9709,682;  180,307;29118,291;32,93033
 572,61; 9919,531;  171,539;29768,913;32,93533
 573,20;10119,733;  212,155;30457,944;32,75688
 573,78;10326,140;  194,693;31102,278;32,77981
 574,36;10442,442;  197,001;31598,733;32,62699
 574,94;10495,152;  251,538;31941,039;32,32495
 575,52;10561,214;  186,690;32172,417;32,43485
 576,10;10731,763;  249,537;32753,885;32,24869
 576,68;10833,727;  222,307;33359,301;32,02288
 577,26;11063,400;  242,920;34034,218;32,02150
 577,84;11145,964;  240,847;34439,972;31,88712
 578,42;11221,899;  277,153;34750,082;31,74881
 579,00;11154,612;  227,846;34942,556;31,47589
 579,58;11266,743;  257,538;35231,125;31,47863
 580,16;11191,107;  239,076;35261,609;31,27139
 580,74;11215,793;  233,229;35397,512;31,23216
 581,32;11180,744;  234,076;35482,642;31,05564
 581,90;11167,054;  240,307;35369,754;31,10424
 582,48;11099,964;  242,230;35585,042;30,72120
 583,06;11126,509;  244,307;35773,307;30,62907
 583,64;11109,362;  240,923;35789,173;30,57377
 584,22;11030,353;  251,459;35758,020;30,35747
 584,80;10899,347;  261,537;35487,370;30,19889
 585,38;10748,414;  260,617;35102,456;30,10116
 585,96;10678,589;  224,154;35305,083;29,80091
 586,54;10673,861;  251,921;35185,484;29,83360
 587,12;10633,945;  221,768;35412,288;29,58802
 587,70;10677,506;  257,846;35489,986;29,57430
 588,28;10646,288;  242,306;35598,019;29,42659
 588,86;10679,139;  243,460;35696,487;29,43523
 589,44;10629,440;  219,843;35803,711;29,25370
 590,02;10626,154;  234,843;36051,052;29,01287
 590,59;10625,732;  220,075;36245,321;28,88435
 591,17;10621,048;  223,764;36479,320;28,67777
 591,75;10625,287;  213,227;36521,830;28,67656
 592,33;10654,189;  238,535;36839,517;28,45731
 592,91;10631,553;  193,918;37044,756;28,32401
 593,49;10718,809;  206,764;37432,306;28,23880
 594,07;10714,064;  212,841;37568,143;28,11173
 594,65;10675,348;  224,459;37618,762;27,94781
 595,23;10760,388;  217,612;38120,562;27,81518
 595,81;10751,565;  221,612;38259,539;27,68277
 596,39;10745,461;  209,996;38308,269;27,65339
 596,97;10762,608;  206,149;38540,276;27,53802
 597,55;10725,910;  211,074;38368,431;27,55651
 598,12;10668,064;  184,302;38453,822;27,39455
 598,70;10614,208;  195,149;38552,494;27,16314
 599,28;10663,086;  214,995;38744,330;27,11724
 599,86;10626,334;  204,841;38706,937;27,06734
 600,44;10570,784;  172,610;38933,337;26,82657
 601,02;10612,883;  227,608;38927,712;26,83526
 601,60;10553,724;  209,688;38862,685;26,76128
 602,18;10478,322;  178,610;38870,938;26,61952
 602,75;10479,648;  189,920;39007,867;26,50766
 603,33;10421,338;  201,687;38987,272;26,34909
 603,91;10315,865;  188,840;39040,469;26,06590
 604,49;10371,125;  208,226;39087,397;26,13970
 605,07;10308,706;  215,996;39057,561;25,98430
 605,65;10300,774;  225,533;39172,729;25,86898
 606,23;10288,423;  264,306;39339,727;25,65325
 606,80;10232,396;  285,074;39292,079;25,50138
 607,38;10205,328;  300,686;39398,846;25,33276
 607,96;10196,344;  337,612;39460,608;25,19933
 608,54;10141,292;  389,225;39519,710;24,92192
 609,12;10183,505;  377,689;39488,530;25,07186
 609,70;10145,557;  406,226;39536,322;24,88962
 610,27;10112,923;  399,458;39596,436;24,78116
 610,85;10080,067;  415,995;39673,996;24,61682
 611,43; 9995,582;  418,226;39607,677;24,43861
 612,01; 9891,649;  389,150;39405,678;24,35506
 612,59; 9814,854;  400,072;39457,428;24,10502
 613,16; 9726,604;  365,767;39440,885;23,95601
 613,74; 9675,523;  354,149;39277,032;23,94831
 614,32; 9545,222;  334,533;39289,863;23,64423
 614,90; 9524,900;  313,842;39167,606;23,70699
 615,48; 9338,690;  264,151;38815,633;23,53876
 616,05; 9257,834;  257,844;38842,752;23,32516
 616,63; 9178,440;  267,460;38596,795;23,24846
 617,21; 9060,605;  266,458;38494,004;23,00474
 617,79; 9009,426;  245,073;38478,384;22,92334
 618,36; 8919,992;  268,996;38341,157;22,72263
 618,94; 8803,100;  209,920;38066,448;22,69933
 619,52; 8719,815;  227,536;37750,342;22,63231
 620,10; 8642,558;  235,304;37721,155;22,42780
 620,67; 8523,702;  234,229;37593,632;22,18845
 621,25; 8487,944;  252,303;37527,175;22,09435
 621,83; 8408,649;  224,689;37484,189;21,96476
 622,41; 8366,082;  272,305;37410,324;21,79378
 622,98; 8284,387;  257,460;37138,325;21,76448
 623,56; 8228,606;  249,537;37196,221;21,59617
 624,14; 8134,943;  239,226;37025,315;21,46387
 624,72; 8095,530;  232,920;36893,535;21,44702
 625,29; 8016,253;  218,691;36946,057;21,23093
 625,87; 8015,986;  265,996;36963,556;21,11854
 626,45; 7877,674;  211,153;36814,243;20,94501
 627,02; 7853,584;  228,458;36763,334;20,87082
 627,60; 7751,731;  216,072;36601,251;20,71079
 628,18; 7763,120;  203,535;36778,453;20,66877
 628,76; 7724,150;  204,075;36703,843;20,60308
 629,33; 7709,328;  236,844;36620,875;20,53781
 629,91; 7668,404;  220,766;36669,155;20,43338
 630,49; 7650,781;  236,152;36885,051;20,23152
 631,06; 7626,539;  224,460;36968,332;20,14507
 631,64; 7539,976;  236,691;36931,222;19,90292
 632,22; 7489,370;  191,076;36867,998;19,89887
 632,79; 7535,787;  222,922;37220,911;19,76557
 633,37; 7504,635;  206,150;37185,197;19,73681
 633,95; 7501,370;  217,537;37305,676;19,63925
 634,52; 7472,477;  204,151;37411,449;19,53468
 635,10; 7388,445;  202,997;37377,906;19,32876
 635,68; 7411,996;  217,153;37630,353;19,23076
 636,25; 7356,560;  192,692;37673,295;19,11353
 636,83; 7327,458;  186,767;37842,843;18,96292
 637,41; 7305,680;  194,538;37809,837;18,90492
 637,98; 7306,246;  220,230;38059,492;18,72662
 638,56; 7281,873;  217,539;38136,337;18,63016
 639,13; 7234,292;  203,768;38190,123;18,50803
 639,71; 7232,284;  245,152;38394,802;18,31506
 640,29; 7099,291;  171,152;38119,221;18,25690
 640,86; 7065,199;  196,844;38359,500;17,99758
 641,44; 7071,337;  195,613;38410,933;17,99206
 642,02; 7054,475;  222,152;38363,981;17,91294
 642,59; 7024,537;  195,075;38474,337;17,84115
 643,17; 6954,675;  195,921;38457,694;17,66451
 643,74; 6880,736;  186,228;38548,281;17,45086
 644,32; 6904,644;  217,151;38467,021;17,48370
 644,89; 6843,551;  207,382;38420,839;17,36605
 645,47; 6861,074;  237,074;38521,349;17,30214
 646,05; 6761,366;  206,536;38420,705;17,15288
 646,62; 6716,889;  201,844;38402,907;17,05462
 647,20; 6717,950;  207,690;38607,956;16,95369
 647,77; 6596,166;  185,767;38427,004;16,76305
 648,35; 6550,150;  180,074;38225,745;16,74323
 648,92; 6519,134;  217,305;38309,794;16,54350
 649,50; 6414,350;  175,459;38234,996;16,39245
 650,08; 6379,026;  171,382;38187,660;16,32891
 650,65; 6359,626;  185,228;38396,554;16,15856
 651,23; 6432,995;  165,689;39107,910;16,09386
 651,80; 6563,826;  179,535;40033,113;16,01937
 652,38; 6602,887;  194,766;40427,469;15,92764
 652,95; 6611,410;  163,458;40771,671;15,87844
 653,53; 6621,164;  190,766;41022,181;15,74865
 654,10; 6662,687;  222,151;41124,076;15,74629
 654,68; 6576,979;  190,689;41047,509;15,63090
 655,25; 6521,809;  178,535;41136,634;15,48723
 655,83; 6522,332;  178,612;41312,836;15,42200
 656,40; 6517,932;  214,689;41245,731;15,36213
 656,98; 6423,070;  187,920;41228,395;15,19269
 657,55; 6391,439;  198,227;41059,136;15,15681
 658,13; 6327,116;  190,843;40647,338;15,16759
 658,70; 6227,716;  203,842;40417,156;14,97980
 659,28; 6081,008;  180,150;39642,127;14,95327
 659,85; 5907,531;  196,612;38796,945;14,79500
 660,43; 5912,438;  213,073;38870,763;14,74316
 661,00; 5891,423;  191,304;38975,734;14,69693
 661,58; 5898,176;  183,765;39279,783;14,61635
 662,15; 5890,469;  174,458;39463,600;14,54858
 662,73; 5925,068;  233,611;39757,803;14,39993
 663,30; 5901,822;  186,534;40068,005;14,33068
 663,88; 5911,730;  197,765;40163,822;14,29704
 664,45; 5878,406;  183,227;40366,179;14,17312
 665,03; 5904,775;  179,842;40832,381;14,08260
 665,60; 6004,606;  262,534;41160,429;14,04002
 666,17; 5906,513;  190,765;41403,401;13,86892
 666,75; 5970,113;  188,457;41655,988;13,94261
 667,32; 5972,713;  215,072;41977,806;13,78655
 667,90; 5960,774;  188,072;42194,085;13,74256
 668,47; 5979,528;  208,149;42570,672;13,62378
 669,05; 5995,820;  177,842;42819,951;13,64374
 669,62; 5940,805;  163,995;42916,692;13,51215
 670,19; 5917,174;  172,688;43051,971;13,39688
 670,77; 5949,004;  197,226;43265,865;13,35491
 671,34; 5917,296;  176,072;43150,683;13,35957
 671,92; 5928,281;  169,918;43589,347;13,26218
 672,49; 5937,188;  196,072;43523,934;13,25040
 673,06; 5881,403;  154,918;43520,828;13,20504
 673,64; 5831,465;  172,995;43528,338;13,05138
 674,21; 5820,218;  161,764;43487,695;13,06020
 674,79; 5827,972;  193,995;43788,589;12,92357
 675,36; 5842,110;  198,149;43863,792;12,92541
 675,93; 5779,249;  167,995;43710,686;12,88679
 676,51; 5784,156;  182,225;43909,581;12,81104
 677,08; 5799,525;  188,687;43958,937;12,81884
 677,65; 5768,433;  187,918;44171,370;12,68776
 678,23; 5791,802;  193,379;44278,957;12,69899
 678,80; 5764,017;  169,071;44424,159;12,64249
 679,38; 5759,155;  175,379;44556,515;12,58142
 679,95; 5810,447;  186,841;44784,871;12,60954
 680,52; 5782,047;  175,917;45115,997;12,47468
 681,10; 5814,185;  184,917;45545,814;12,40996
 681,67; 5823,170;  197,533;45819,248;12,33105
 682,24; 5837,385;  163,610;45886,604;12,40902
 682,82; 5863,831;  175,456;46435,268;12,29658
 683,39; 5918,508;  214,148;46738,778;12,26095
 683,96; 5917,569;  178,071;47100,980;12,23176
 684,54; 5919,477;  163,686;47315,721;12,20688
 685,11; 5985,538;  216,994;47796,077;12,12412
 685,68; 5985,522;  183,609;48151,202;12,09549
 686,25; 5990,199;  174,763;48245,712;12,09761
 686,83; 5991,030;  177,994;48409,837;12,05228
 687,40; 5993,706;  164,301;48766,578;11,99410
 687,97; 6064,768;  219,763;49137,011;11,94876
 688,55; 5991,675;  163,455;49114,829;11,90614
 689,12; 6034,429;  146,378;49392,031;11,95649
 689,69; 6038,336;  160,686;49510,311;11,91022
 690,26; 6011,552;  172,070;49682,590;11,79443
 690,84; 5999,305;  175,763;49831,100;11,72793
 691,41; 6026,982;  187,301;49880,764;11,75141
 691,98; 6055,736;  189,147;50233,427;11,72280
 692,56; 6029,874;  174,686;50284,168;11,68479
 693,13; 6123,166;  221,916;50345,447;11,77341
 693,70; 6041,920;  192,609;50475,650;11,63277
 694,27; 6049,520;  169,455;50631,467;11,65246
 694,84; 6049,581;  158,916;50728,747;11,64858
 695,42; 6101,181;  216,993;50812,641;11,62983
 695,99; 6066,165;  185,531;51125,920;11,54415
 696,56; 6042,611;  176,762;50773,200;11,59340
 697,13; 6097,519;  182,378;51275,863;11,57709
 697,71; 6072,503;  161,454;51270,989;11,56545
 698,28; 6135,641;  180,916;51717,114;11,55445
 698,85; 6075,087;  145,531;51689,163;11,50395
 699,42; 6144,841;  145,454;51791,519;11,61635
 699,99; 6155,287;  188,070;51950,336;11,52812
 700,57; 6141,579;  182,223;52047,000;11,49018
 701,14; 6160,487;  172,377;52172,203;11,51563
 701,71; 6167,856;  178,377;52392,328;11,47103
 702,28; 6130,609;  171,531;52471,223;11,39410
 702,85; 6200,824;  180,300;52403,502;11,52845
 703,43; 6208,040;  181,531;52774,166;11,45885
 704,00; 6251,409;  195,377;52887,214;11,49330
 704,57; 6201,778;  175,992;52949,724;11,41815
 705,14; 6238,839;  199,531;53182,080;11,39867
 705,71; 6270,516;  203,838;53139,513;11,46047
 706,28; 6237,500;  181,300;53165,946;11,43010
 706,86; 6314,254;  208,300;53405,610;11,47794
 707,43; 6297,084;  226,069;53336,813;11,43086
 708,00; 6261,069;  204,223;53266,322;11,41464
 708,57; 6285,438;  174,069;53150,063;11,53611
 709,14; 6291,115;  200,761;53341,573;11,46078
 709,71; 6255,253;  178,915;53489,083;11,39808
 710,28; 6308,237;  180,530;53723,670;11,44443
 710,86; 6321,914;  200,761;53711,411;11,43913
 711,43; 6367,899;  210,376;53873,382;11,47443
 712,00; 6404,268;  186,761;53907,046;11,57385
 712,57; 6402,560;  201,453;54009,095;11,52458
 713,14; 6365,929;  179,145;54185,989;11,45555
 713,71; 6405,298;  187,222;54008,807;11,55313
 714,28; 6353,667;  194,761;54082,702;11,42910
 714,85; 6359,420;  178,991;53894,596;11,50584
 715,42; 6415,713;  184,376;54027,183;11,57320
 716,00; 6455,466;  250,530;54201,078;11,50116
 716,57; 6405,528;  193,068;54324,126;11,47670
 717,14; 6432,051;  177,376;54273,252;11,56220
 717,71; 6429,035;  172,760;54275,531;11,56369
 718,28; 6529,096;  216,145;54345,887;11,66263
 718,85; 6419,773;  167,145;54372,089;11,53516
 719,42; 6501,834;  204,299;54609,215;11,57531
 719,99; 6465,511;  174,529;54345,725;11,61315
 720,56; 6541,957;  191,991;54672,158;11,65556
 721,13; 6517,326;  176,529;54740,206;11,62091
 721,70; 6509,157;  170,068;54607,101;11,64481
 722,27; 6541,372;  196,837;54661,380;11,64893
 722,84; 6607,433;  237,991;54881,121;11,65644
 723,41; 6587,187;  167,683;54741,631;11,76295
 723,98; 6613,248;  182,837;54994,064;11,73192
 724,55; 6627,310;  214,990;55060,805;11,69154
 725,12; 6609,986;  154,221;55026,776;11,76502
 725,69; 6630,355;  180,298;55180,286;11,72738
 726,27; 6687,724;  187,375;55261,719;11,80286
 726,84; 6754,324;  198,836;55627,383;11,82692
 727,41; 6764,616;  208,606;55544,816;11,84760
 727,98; 6835,447;  207,452;55875,941;11,90619
 728,55; 6832,739;  216,836;55755,144;11,91232
 729,12; 6877,877;  167,605;55813,961;12,05878
 729,69; 6913,246;  210,221;55962,779;12,02281
 730,26; 6905,308;  198,682;56213,443;11,97296
 730,82; 6925,677;  184,913;56095,030;12,05643
 731,39; 6960,815;  194,374;56137,617;12,09519
 731,96; 7008,876;  169,990;56522,127;12,13598
 732,53; 7095,784;  190,067;56737,329;12,21229
 733,10; 7052,538;  203,451;56801,224;12,10134
 733,67; 7123,137;  205,605;57072,887;12,16434
 734,24; 7112,276;  182,605;56736,474;12,25322
 734,81; 7151,491;  200,066;56852,754;12,27025
 735,38; 7182,706;  191,759;56642,571;12,38414
 735,95; 7159,921;  189,143;56516,774;12,37541
 736,52; 7152,906;  206,759;56567,668;12,32441
 737,09; 7163,582;  214,066;56263,563;12,39889
 737,66; 7200,259;  226,989;56505,457;12,39065
 738,23; 7254,167;  181,758;56571,890;12,54193
 738,80; 7283,382;  234,066;56727,016;12,47822
 739,37; 7329,212;  220,451;57013,449;12,51697
 739,94; 7379,658;  191,220;57087,190;12,63435
 740,51; 7463,181;  288,989;57217,315;12,60215
 741,07; 7404,089;  188,758;57010,210;12,69825
 741,64; 7454,842;  210,681;57304,643;12,68814
 742,21; 7546,827;  198,297;57378,922;12,85143
 742,78; 7513,965;  164,296;57089,278;12,91115
 743,35; 7528,488;  185,450;57470,019;12,81853
 743,92; 7623,857;  221,066;57462,221;12,93264
 744,49; 7645,765;  212,681;57394,193;12,99910
 745,06; 7643,903;  186,066;57407,318;13,03333
 745,63; 7641,426;  177,065;57428,136;13,03794
 746,19; 7645,256;  182,835;57418,646;13,03803
 746,76; 7681,548;  194,527;57385,156;13,09134
 747,33; 7739,456;  186,911;57375,512;13,20638
 747,90; 7760,594;  204,142;57591,022;13,16756
 748,47; 7793,502;  197,758;57503,916;13,25467
 749,04; 7820,563;  204,219;57567,426;13,27740
 749,61; 7853,932;  221,065;57412,859;13,34609
 750,17; 7859,147;  219,527;57580,831;13,31842
 750,74; 7856,132;  207,603;57433,418;13,36552
 751,31; 7852,424;  187,680;57384,928;13,40055
 751,88; 7864,716;  175,757;57254,515;13,47079
 752,45; 7919,162;  188,526;57389,794;13,51480
 753,02; 7929,223;  213,680;57212,150;13,53640
 753,58; 7932,823;  180,449;57085,352;13,62338
 754,15; 7952,423;  184,834;57280,478;13,60452
 754,72; 7975,407;  183,295;57070,449;13,69749
 755,29; 7970,622;  181,834;56891,421;13,73452
 755,86; 8013,530;  199,065;57059,239;13,74330
 756,42; 8048,361;  211,065;56937,902;13,81585
 756,99; 7998,268;  182,680;56933,489;13,77177
 757,56; 8035,176;  193,372;56864,153;13,83747
 758,13; 8078,929;  162,141;56730,279;13,99514
 758,70; 8111,529;  184,910;56782,635;14,00519
 759,26; 8176,821;  190,295;56940,606;14,07310
 759,83; 8238,036;  201,064;57008,116;14,14784
 760,40; 8243,098;  190,372;56726,626;14,24347
 760,97; 8281,621;  177,218;56920,059;14,28269
 761,53; 8247,605;  164,526;56539,339;14,33810
 762,10; 8252,666;  164,756;56492,925;14,35855
 762,67; 8278,420;  203,295;56444,128;14,35812
 763,24; 8219,635;  157,525;55971,945;14,44449
 763,80; 8289,850;  185,833;56198,609;14,46816
 764,37; 8318,989;  179,448;56055,427;14,56715
 764,94; 8317,896;  168,602;55661,322;14,68534
 765,50; 8382,650;  165,371;55636,601;14,81359
 766,07; 8409,711;  203,141;55684,341;14,79162
 766,64; 8371,696;  167,371;55326,159;14,87401
 767,21; 8398,526;  173,756;55232,054;14,93829
 767,77; 8388,511;  190,602;55148,564;14,91669
 768,34; 8479,572;  196,525;55235,689;15,04937
 768,91; 8469,941;  196,371;54968,815;15,10535
 769,47; 8524,695;  188,833;55026,940;15,20086
 770,04; 8579,525;  191,833;54845,911;15,34687
 770,61; 8545,587;  181,217;54715,498;15,33782
 771,18; 8558,956;  170,832;54589,008;15,41419
 771,74; 8620,017;  190,294;54655,364;15,47730
 772,31; 8668,463;  176,140;54451,028;15,64687
 772,88; 8624,832;  169,448;54240,846;15,63744
 773,44; 8587,663;  166,448;54021,971;15,63668
 774,01; 8672,339;  193,909;54134,943;15,71796
 774,58; 8595,478;  177,140;53742,914;15,71589
 775,14; 8694,616;  172,217;53925,271;15,85473
 775,71; 8694,831;  174,678;53789,319;15,89147
 776,27; 8727,585;  218,293;53678,829;15,91696
 776,84; 8766,569;  245,063;53766,262;15,92174
 777,41; 8820,015;  190,447;53549,849;16,17253
 777,97; 8712,153;  181,986;53314,897;16,05440
 778,54; 8771,830;  194,601;53366,869;16,13102
 779,11; 8825,122;  212,139;53356,456;16,20678
 779,67; 8823,107;  169,601;53295,504;16,28868
 780,24; 8865,630;  193,909;53023,937;16,41438
 780,80; 8872,768;  214,370;53013,678;16,39870
 781,37; 8830,983;  205,216;52987,188;16,34226
 781,94; 8858,737;  191,755;52730,160;16,49647
 782,50; 8932,260;  198,216;52704,439;16,63430
 783,07; 8966,936;  213,139;52829,641;16,63698
 783,63; 8949,305;  181,985;52499,151;16,75802
 784,20; 8982,367;  207,985;52386,507;16,81608
 784,77; 8946,351;  194,600;52324,094;16,78848
 785,33; 8942,182;  168,447;52102,527;16,89398
 785,90; 8975,551;  197,985;52037,730;16,93212
 786,46; 8988,612;  214,677;51925,317;16,96737
 787,03; 9006,366;  183,831;51839,903;17,07938
 787,59; 9009,350;  198,369;51767,260;17,08585
 788,16; 9067,104;  197,369;51654,000;17,23730
 788,73; 9028,627;  200,985;51537,049;17,19579
 789,29; 9068,996;  190,062;51084,559;17,44576
 789,86; 9013,980;  209,138;50995,453;17,33704
 790,42; 9012,811;  204,446;50920,810;17,36789
 790,99; 8984,334;  207,369;50563,320;17,42985
 791,55; 9001,626;  191,369;50593,906;17,47979
 792,12; 9018,918;  216,984;50541,878;17,49022
 792,68; 9038,441;  202,830;50166,311;17,68414
 793,25; 9063,425;  212,984;49944,744;17,79636
 793,81; 9051,256;  253,138;49621,331;17,82143
 794,38; 8952,086;  168,907;49381,379;17,84747
 794,94; 9013,148;  196,446;49312,505;17,95075
 795,51; 8983,978;  214,369;48964,938;17,98873
 796,07; 8979,270;  203,599;48756,525;18,07444
 796,64; 9030,870;  218,984;48868,958;18,11283
 797,20; 8963,932;  209,445;48385,929;18,17170
 797,77; 8918,224;  184,138;47988,362;18,27053
 798,33; 8890,131;  199,368;47845,103;18,24038
 798,90; 8996,500;  223,291;47800,613;18,43990
 799,46; 8931,715;  208,907;47259,662;18,53915
 800,03; 8998,931;  208,214;47214,864;18,70101
 800,59; 8938,300;  222,368;46957,528;18,64962
 801,15; 8958,592;  221,753;46844,884;18,73928
 801,72; 8907,884;  226,137;46459,779;18,77799
 802,28; 8894,868;  238,830;46156,519;18,85121
 802,85; 8879,930;  206,830;46055,722;18,91671
 803,41; 8845,299;  209,906;45829,924;18,92895
 803,98; 8827,360;  211,599;45325,588;19,09776
 804,54; 8824,652;  212,676;45133,252;19,17156
 805,11; 8791,175;  212,522;44999,915;19,15417
 805,67; 8835,390;  238,675;44844,349;19,27269
 806,23; 8729,067;  215,522;44381,705;19,27616
 806,80; 8761,359;  222,829;44288,522;19,37682
 807,36; 8755,805;  232,060;44206,417;19,38344
 807,93; 8752,713;  239,829;43938,081;19,48106
 808,49; 8718,159;  203,598;43598,206;19,62124
 809,05; 8642,143;  191,906;43368,870;19,57117
 809,62; 8721,512;  230,290;43348,765;19,69277
 810,18; 8694,112;  222,983;43249,582;19,68812
 810,74; 8681,558;  190,983;42947,400;19,85801
 811,31; 8646,312;  193,829;42808,679;19,83459
 811,87; 8655,142;  207,521;42600,343;19,92701
 812,44; 8659,896;  240,983;42570,776;19,88886
 813,00; 8607,572;  166,752;42252,363;20,05631
 813,56; 8678,249;  218,829;42345,258;20,08103
 814,13; 8695,618;  222,367;42177,383;20,19604
 814,69; 8666,833;  211,367;41986,508;20,24043
 815,25; 8611,664;  188,752;41599,403;20,33997
 815,82; 8688,572;  233,751;41614,374;20,43183
 816,38; 8690,479;  246,751;41365,884;20,53479
 816,94; 8630,463;  203,059;41060,010;20,62661
 817,51; 8593,525;  186,444;40868,904;20,66512
 818,07; 8588,663;  205,367;40651,953;20,72683
 818,63; 8623,417;  221,751;40447,309;20,88639
 819,20; 8577,093;  217,982;40328,973;20,83995
 819,76; 8502,155;  202,443;39945,175;20,88360
 820,32; 8577,601;  247,520;39857,147;21,03044
 820,89; 8544,508;  234,905;39659,349;21,07729
 821,45; 8484,723;  198,597;39336,397;21,17167
 822,01; 8463,708;  222,751;39097,369;21,19881
 822,57; 8510,769;  229,366;38904,802;21,41257
 823,14; 8441,215;  186,905;38724,389;21,41891
 823,70; 8441,277;  203,828;38463,899;21,53015
 824,26; 8389,723;  201,135;38282,870;21,50266
 824,82; 8438,015;  231,981;38128,227;21,65395
 825,39; 8367,768;  208,751;37809,737;21,69895
 825,95; 8441,676;  231,135;37881,400;21,80739
 826,51; 8365,891;  226,135;37413,680;21,88839
 827,08; 8442,568;  255,058;37546,267;21,95560
 827,64; 8387,706;  234,520;37333,623;21,97678
 828,20; 8352,844;  203,827;37073,825;22,10203
 828,76; 8415,752;  231,981;37046,643;22,22965
 829,32; 8435,275;  237,366;36879,691;22,37279
 829,89; 8393,798;  193,135;36702,663;22,46171
 830,45; 8383,551;  215,058;36642,942;22,42374
 831,01; 8431,920;  217,904;36452,144;22,66921
 831,57; 8447,674;  225,365;36346,731;22,76301
 832,14; 8432,120;  210,904;36376,472;22,73216
 832,70; 8365,335;  200,058;36099,982;22,74455
 833,26; 8407,243;  185,519;36024,953;22,94044
 833,82; 8395,842;  211,673;35978,079;22,88228
 834,38; 8402,211;  201,519;35897,973;22,97341
 834,95; 8410,888;  193,980;35778,560;23,09120
 835,51; 8365,334;  172,596;35642,301;23,09785
 836,07; 8486,011;  216,134;35712,503;23,29781
 836,63; 8492,841;  232,826;35781,552;23,23576
 837,19; 8486,134;  209,057;35477,446;23,46882
 837,75; 8406,810;  174,596;35236,187;23,47930
 838,32; 8486,026;  225,826;35364,389;23,50750
 838,88; 8529,548;  220,442;35382,053;23,63119
 839,44; 8528,687;  209,519;35322,794;23,69237
 840,00; 8557,517;  204,749;35187,689;23,87669
 840,56; 8473,271;  189,057;34877,737;23,88161
 841,12; 8470,332;  196,749;34811,632;23,90181
 841,68; 8462,009;  183,749;34663,603;24,00898
 842,25; 8442,532;  201,749;34793,267;23,82313
 842,81; 8465,132;  196,441;34370,546;24,19578
 843,37; 8471,424;  186,980;34470,826;24,16428
 843,93; 8492,716;  201,749;34398,720;24,24474
 844,49; 8550,854;  216,133;34443,230;24,35124
 845,05; 8463,146;  180,287;34171,202;24,36786
 845,61; 8559,669;  226,595;34274,019;24,47490
 846,17; 8545,269;  202,903;34148,299;24,57584
 846,73; 8593,715;  213,749;34074,962;24,74798
 847,29; 8555,776;  186,595;33753,472;24,93286
 847,86; 8595,530;  193,979;33848,521;24,96409
 848,42; 8525,591;  190,902;33540,800;24,99165
 848,98; 8532,883;  203,902;33503,695;25,01211
 849,54; 8547,483;  206,133;33561,359;25,00763
 850,10; 8560,160;  208,595;33397,868;25,16345
 850,66; 8530,452;  191,287;33204,994;25,25971
 851,22; 8503,206;  192,441;33273,965;25,12207
 851,78; 8524,652;  234,441;33214,706;25,13688
 852,34; 8523,713;  222,133;32956,293;25,36060
 852,90; 8586,928;  211,056;32944,188;25,58836
 853,46; 8489,220;  191,517;32622,390;25,58582
 854,02; 8517,513;  213,286;32732,823;25,53611
 854,58; 8508,805;  196,979;32437,948;25,78032
 855,14; 8471,789;  195,517;32381,305;25,71406
 855,70; 8422,620;  161,825;32202,507;25,78221
 856,26; 8456,527;  211,055;32132,709;25,83034
 856,82; 8405,819;  196,902;31943,450;25,85767
 857,38; 8461,111;  228,517;31904,806;25,98977
 857,94; 8406,250;  202,209;31825,701;25,94287
 858,50; 8413,465;  215,671;31719,903;26,02125
 859,06; 8415,065;  194,978;31564,105;26,20438
 859,62; 8377,126;  211,671;31461,308;26,12976
 860,18; 8352,880;  199,517;31234,971;26,27112
 860,74; 8353,018;  174,209;31134,558;26,41704
 861,30; 8326,156;  185,901;30921,838;26,48449
 861,86; 8404,448;  235,517;30921,040;26,62145
 862,42; 8332,664;  199,824;30755,242;26,61669
 862,98; 8411,417;  231,978;30739,598;26,81114
 863,54; 8344,094;  205,055;30572,570;26,80180
 864,10; 8352,463;  202,286;30565,695;26,84210
 864,66; 8312,678;  190,978;30311,205;26,96427
 865,22; 8326,893;  198,285;30183,946;27,10832
 865,78; 8337,647;  208,439;30096,302;27,19903
 866,34; 8272,170;  198,208;29955,427;27,13278
 866,90; 8309,385;  220,208;29864,322;27,28763
 867,45; 8262,293;  209,208;29665,909;27,33872
 868,01; 8277,354;  213,747;29548,650;27,48810
 868,57; 8189,415;  190,362;29359,237;27,42325
 869,13; 8212,707;  184,131;29243,977;27,62773
 869,69; 8185,692;  195,747;29100,410;27,64241
 870,25; 8238,215;  183,131;28971,536;27,98031
 870,81; 8198,661;  194,593;28962,200;27,82320
 871,37; 8239,030;  214,439;28801,479;28,07073
 871,93; 8257,091;  220,669;28665,758;28,25241
 872,49; 8220,306;  223,362;28491,345;28,28976
 873,04; 8157,829;  198,439;28222,086;28,40241
 873,60; 8155,737;  182,977;28131,365;28,52672
 874,16; 8159,260;  212,592;28031,337;28,56587
 874,72; 8167,952;  202,669;27894,567;28,76395
 875,28; 8151,875;  209,285;27946,260;28,63539
 875,84; 8125,490;  206,592;27892,798;28,60232
 876,40; 8123,952;  196,131;27799,106;28,72089
 876,95; 8180,952;  213,746;27745,952;28,93777
 877,51; 8183,875;  230,746;27755,260;28,89471
 878,07; 8196,721;  249,977;27778,490;28,86732
 878,63; 8186,260;  199,054;27740,875;29,00028
 879,19; 8251,413;  224,977;27715,644;29,19695
 879,75; 8247,413;  196,900;27768,875;29,19817
 880,30; 8265,952;  193,208;27740,798;29,30472
 880,86; 8350,029;  237,669;27948,798;29,27474
 881,42; 8337,952;  190,746;27995,952;29,30101
 881,98; 8390,490;  221,823;28080,260;29,32206
 882,54; 8395,260;  194,746;28214,952;29,26643
 883,09; 8485,183;  217,669;28222,567;29,52167
 883,65; 8558,567;  197,438;28296,183;29,75624
 884,21; 8653,644;  235,362;28611,952;29,66629
 884,77; 8663,644;  204,900;28568,413;29,82262
 885,32; 8658,183;  208,592;28737,260;29,61789
 885,88; 8770,644;  235,515;28818,260;29,86112
 886,44; 8846,644;  213,362;29018,029;29,97182
 887,00; 8890,337;  229,131;29005,260;30,09858
 887,56; 8908,721;  204,285;29124,721;30,09787
 888,11; 8965,644;  208,900;29123,260;30,28511
 888,67; 9016,798;  245,592;29285,106;30,20438
 889,23; 8992,798;  215,977;29233,337;30,24679
 889,79; 8946,106;  194,131;29203,490;30,16949
 890,34; 8982,952;  214,285;29125,337;30,32981
 890,90; 9058,413;  267,285;29395,490;30,18081
 891,46; 9035,106;  199,438;29217,721;30,44862
 892,01; 9075,029;  236,900;29188,952;30,52678
 892,57; 9058,798;  236,285;29105,260;30,56054
 893,13; 9025,721;  203,746;28905,721;30,73647
 893,69; 9030,567;  206,438;28872,106;30,78292
 894,24; 9063,798;  211,362;28718,183;31,05375
 894,80; 9068,337;  217,362;28590,875;31,19450
 895,36; 9008,337;  215,977;28459,029;31,13105
 895,91; 8947,952;  215,438;28251,567;31,14736
 896,47; 9029,798;  237,515;28129,413;31,52271
 897,03; 8929,875;  203,977;27957,490;31,44070
 897,58; 8955,029;  225,900;27905,644;31,53616
 898,14; 8924,106;  223,669;27669,337;31,70058
 898,70; 8910,721;  191,208;27466,490;31,96855
 899,25; 8873,413;  218,362;27531,029;31,68878
 899,81; 8880,721;  236,900;27286,875;31,95501
 900,37; 8843,644;  181,515;27045,490;32,24440
 900,92; 8930,183;  218,900;27003,029;32,52405
 901,48; 8862,106;  198,592;26994,875;32,33103
 902,03; 8809,875;  204,746;26775,567;32,38563
 902,59; 8834,337;  211,131;26706,798;32,54572
 903,15; 8812,721;  237,592;26565,952;32,56993
 903,70; 8721,952;  213,131;26298,029;32,61972
 904,26; 8723,798;  201,515;26190,029;32,79250
 904,82; 8761,644;  214,669;26156,337;32,94690
 905,37; 8722,337;  222,131;26028,567;32,93832
 905,93; 8716,183;  205,362;25822,644;33,22297
 906,48; 8671,798;  215,977;25838,567;33,00143
 907,04; 8704,952;  232,054;25749,260;33,20465
 907,60; 8642,567;  208,592;25580,875;33,24090
 908,15; 8626,798;  199,131;25376,567;33,47310
 908,71; 8653,952;  231,054;25396,029;33,47072
 909,26; 8605,260;  207,823;25226,721;33,56437
 909,82; 8656,490;  224,900;25071,106;33,93512
 910,37; 8628,490;  259,515;25026,337;33,79107
 910,93; 8528,875;  203,054;24826,490;33,81259
 911,48; 8527,337;  201,515;24648,413;34,05676
 912,04; 8526,337;  197,515;24614,875;34,11024
 912,60; 8575,875;  222,592;24608,337;34,25478
 913,15; 8522,644;  223,746;24384,413;34,34879
 913,71; 8474,644;  216,285;24195,337;34,43989
 914,26; 8459,798;  195,977;24064,798;34,62182
 914,82; 8410,798;  212,054;23967,875;34,51257
 915,37; 8441,721;  205,592;23966,721;34,66220
 915,93; 8451,029;  258,208;23832,721;34,75287
 916,48; 8408,260;  205,592;23705,952;34,90443
 917,04; 8404,644;  231,823;23544,337;35,05766
 917,59; 8384,567;  238,515;23475,721;35,05607
 918,15; 8267,337;  184,746;23311,029;34,94980
 918,70; 8297,875;  214,054;23211,875;35,15038
 919,26; 8301,260;  212,977;23183,875;35,21100
 919,81; 8253,029;  199,208;22977,413;35,35757
 920,37; 8231,337;  206,823;22853,952;35,43281
 920,92; 8240,721;  225,900;22825,798;35,46397
 921,48; 8146,106;  190,900;22624,721;35,46077
 922,03; 8193,106;  198,362;22584,490;35,71294
 922,59; 8109,183;  203,669;22434,567;35,56093
 923,14; 8078,413;  203,208;22254,490;35,71314
 923,69; 8105,798;  237,208;22258,490;35,73175
 924,25; 8087,413;  231,823;22196,490;35,76467
 924,80; 8037,644;  211,823;21988,260;35,93711
 925,36; 8043,337;  198,362;21896,567;36,15495
 925,91; 8006,337;  213,054;21771,029;36,15035
 926,47; 8022,413;  200,438;21696,106;36,38861
 927,02; 8047,721;  253,977;21614,337;36,48695
 927,57; 7991,413;  218,823;21509,183;36,50756
 928,13; 7967,721;  207,746;21357,875;36,68997
 928,68; 7935,183;  213,362;21359,875;36,51581
 929,24; 7928,952;  187,131;21070,029;37,07254
 929,79; 7918,490;  203,669;21006,952;37,08463
 930,34; 7878,029;  215,592;20851,490;37,13159
 930,90; 7892,183;  207,131;20847,798;37,23257
 931,45; 7852,875;  214,131;20843,490;37,02851
 932,01; 7814,337;  229,515;20694,183;37,06301
 932,56; 7787,183;  238,438;20547,721;37,16894
 933,11; 7793,798;  244,592;20476,798;37,31282
 933,67; 7717,260;  211,208;20294,183;37,37520
 934,22; 7677,490;  209,208;20273,106;37,22249
 934,77; 7653,413;  233,438;20123,798;37,30438
 935,33; 7614,029;  217,823;20039,875;37,31302
 935,88; 7585,337;  228,054;19944,260;37,31592
 936,43; 7541,798;  210,438;19825,106;37,37693
 936,99; 7592,798;  216,131;19786,183;37,69365
 937,54; 7445,260;  196,977;19597,875;37,36055
 938,09; 7458,183;  221,977;19586,183;37,36898
 938,65; 7420,029;  231,054;19423,183;37,45793
 939,20; 7440,260;  198,362;19304,644;37,90323
 939,75; 7375,413;  197,285;19205,029;37,76423
 940,31; 7377,644;  201,131;19061,413;38,05093
 940,86; 7356,413;  219,669;19111,644;37,77659
 941,41; 7365,567;  273,823;19012,337;37,84582
 941,96; 7278,490;  209,438;18860,106;37,90241
 942,52; 7307,490;  217,746;18744,952;38,26667
 943,07; 7245,413;  195,669;18638,644;38,22455
 943,62; 7235,490;  206,900;18532,029;38,35493
 944,18; 7179,567;  189,900;18484,183;38,20684
 944,73; 7178,567;  206,362;18377,106;38,37050
 945,28; 7103,721;  177,515;18157,106;38,52260
 945,83; 7157,413;  207,515;18180,106;38,66943
 946,39; 7107,260;  207,208;18103,644;38,55545
 946,94; 7102,260;  232,208;18063,413;38,52825
 947,49; 6983,567;  200,900;17941,490;38,23248
 948,04; 7002,952;  234,977;17890,490;38,33349
 948,59; 7009,644;  231,592;17853,260;38,46431
 949,15; 6927,721;  198,131;17732,413;38,37962
 949,70; 6925,183;  195,362;17628,952;38,60261
 950,25; 6899,490;  217,362;17560,413;38,52914
 950,80; 6842,337;  173,823;17422,644;38,66069
 951,36; 6779,952;  173,823;17359,183;38,44045
 951,91; 6806,337;  225,746;17327,875;38,47819
 952,46; 6714,106;  195,285;17151,106;38,44592
 953,01; 6767,106;  218,669;17183,260;38,60062
 953,56; 6732,644;  200,823;17027,106;38,81916
 954,11; 6729,490;  224,438;16970,337;38,84564
 954,67; 6717,260;  206,362;16925,721;38,94227
 955,22; 6656,337;  191,362;16792,875;38,94208
 955,77; 6673,798;  230,823;16717,721;39,07936
 956,32; 6666,875;  255,515;16593,337;39,24244
 956,87; 6582,567;  201,592;16475,644;39,20950
 957,42; 6585,952;  208,285;16469,490;39,22014
 957,98; 6557,413;  204,054;16331,567;39,39454
 958,53; 6569,952;  224,669;16315,106;39,43512
 959,08; 6528,721;  196,669;16148,106;39,69581
 959,63; 6508,337;  208,131;16079,183;39,69621
 960,18; 6509,875;  217,285;16020,183;39,81922
 960,73; 6482,183;  214,285;15973,337;39,77332
 961,28; 6433,721;  190,285;15852,106;39,86405
 961,83; 6467,183;  225,438;15834,106;39,98896
 962,39; 6421,721;  192,515;15666,337;40,25642
 962,94; 6372,644;  217,362;15576,337;40,07613
 963,49; 6365,260;  209,515;15429,106;40,44619
 964,04; 6358,721;  224,054;15424,644;40,35809
 964,59; 6304,567;  187,438;15327,952;40,40239
 965,14; 6324,106;  227,285;15264,183;40,54574
 965,69; 6265,875;  217,054;15197,183;40,37897
 966,24; 6255,567;  199,285;15073,952;40,71542
 966,79; 6219,106;  221,208;14977,644;40,64598
 967,34; 6153,413;  185,438;14850,952;40,69394
 967,89; 6180,029;  187,592;14833,952;40,91417
 968,44; 6129,798;  218,669;14708,644;40,79461
 968,99; 6128,413;  214,362;14658,260;40,94499
 969,55; 6070,183;  215,746;14575,413;40,77000
 970,10; 6092,413;  214,823;14487,721;41,18008
 970,65; 6052,952;  218,592;14401,260;41,13725
 971,20; 6002,337;  198,977;14237,490;41,33885
 971,75; 5950,952;  190,362;14092,644;41,43629
 972,30; 5967,490;  211,669;14052,721;41,58514
 972,85; 5885,644;  188,823;13959,798;41,36832
 973,40; 5847,413;  199,208;13830,721;41,43491
 973,95; 5853,029;  213,208;13790,029;41,54007
 974,50; 5862,952;  227,438;13743,875;41,69378
 975,05; 5805,260;  207,054;13596,644;41,81013
 975,60; 5821,337;  226,054;13553,721;41,98246
 976,15; 5753,490;  203,054;13518,875;41,68302
 976,70; 5705,337;  227,746;13395,875;41,59733
 977,25; 5702,413;  221,746;13325,644;41,82471
 977,80; 5625,644;  198,208;13137,875;41,94417
 978,35; 5585,337;  218,900;13099,337;41,66347
 978,89; 5539,183;  192,977;12973,875;41,82966
 979,44; 5571,413;  208,515;12963,260;42,04630
 979,99; 5472,644;  201,669;12699,490;42,17515
 980,54; 5528,260;  242,977;12649,106;42,60219
 981,09; 5444,413;  221,515;12634,490;42,07612
 981,64; 5378,798;  222,746;12474,644;42,08370
 982,19; 5384,029;  251,669;12398,875;42,25136
 982,74; 5323,952;  227,438;12283,875;42,27214
 983,29; 5260,029;  207,054;12128,952;42,38398
 983,84; 5230,875;  221,054;12035,644;42,40368
 984,39; 5258,567;  266,592;12028,490;42,44192
 984,94; 5186,260;  188,900;11850,106;42,85457
 985,49; 5188,183;  232,669;11772,952;42,94101
 986,03; 5154,798;  234,131;11732,337;42,79509
 986,58; 5071,337;  250,900;11542,798;42,68934
 987,13; 4998,490;  218,746;11436,337;42,60937
 987,68; 4980,337;  237,900;11319,337;42,79623
 988,23; 4966,413;  229,131;11326,337;42,68897
 988,78; 4885,798;  211,592;11094,567;42,94971
 989,33; 4862,798;  234,285;11014,798;42,93407
 989,88; 4872,183;  247,900;10998,183;43,01545
 990,42; 4775,260;  212,823;10821,875;43,00513
 990,97; 4736,644;  206,592;10711,413;43,12355
 991,52; 4691,644;  241,977;10690,260;42,58755
 992,07; 4677,798;  240,592;10568,413;42,96362
 992,62; 4629,567;  222,746;10467,337;43,01608
 993,17; 4570,106;  239,285;10346,567;42,84852
 993,71; 4532,490;  229,977;10217,106;43,08058
 994,26; 4483,644;  208,362;10090,029;43,26479
 994,81; 4475,567;  248,823;10088,567;42,95583
 995,36; 4432,029;  207,977; 9906,567;43,55326
 995,91; 4376,106;  221,823; 9849,644;43,14873
 996,45; 4345,106;  221,592; 9761,029;43,22596
 997,00; 4279,337;  196,746; 9621,875;43,31602
 997,55; 4266,875;  225,900; 9569,875;43,24685
 998,10; 4238,260;  250,131; 9448,567;43,35659
 998,65; 4190,183;  215,054; 9386,490;43,34249
 999,19; 4167,721;  236,208; 9250,106;43,61613
 999,74; 4117,106;  254,362; 9150,337;43,42126
1000,29; 4091,567;  231,285; 9101,337;43,52041
1000,84; 4044,721;  219,746; 8956,490;43,78032
1001,38; 4004,337;  224,054; 8857,413;43,78692
1001,93; 4006,413;  236,438; 8790,413;44,07278
1002,48; 3901,490;  209,208; 8639,260;43,79905
1003,03; 3910,798;  239,054; 8581,644;44,01204
1003,57; 3895,798;  233,285; 8459,106;44,52459
1004,12; 3860,567;  256,362; 8424,029;44,12773
1004,67; 3820,490;  213,669; 8306,798;44,56646
1005,22; 3742,029;  217,438; 8128,567;44,55231
1005,76; 3692,875;  208,285; 8041,413;44,48529
1006,31; 3689,490;  238,054; 8020,952;44,34642
1006,86; 3650,875;  216,592; 7854,721;44,96236
1007,40; 3584,490;  207,362; 7722,183;44,93958
1007,95; 3573,106;  226,823; 7679,875;44,89815
1008,50; 3494,490;  229,208; 7576,260;44,44344
1009,04; 3470,413;  223,515; 7426,952;45,07429
1009,59; 3434,798;  230,362; 7305,260;45,29304
1010,14; 3383,029;  216,515; 7213,798;45,25347
1010,68; 3351,952;  222,592; 7073,029;45,68117
1011,23; 3275,490;  223,054; 6976,337;45,19930
1011,78; 3268,875;  226,362; 6949,567;45,25391
1012,32; 3243,875;  234,208; 6817,106;45,71949
1012,87; 3232,260;  244,592; 6759,875;45,85630
1013,42; 3142,952;  217,054; 6651,798;45,47031
1013,96; 3171,490;  248,054; 6665,644;45,55349
1014,51; 3087,567;  187,438; 6541,644;45,64109
1015,06; 3082,644;  190,823; 6563,413;45,37905
1015,60; 3165,567;  268,977; 6603,875;45,72434
1016,15; 3133,875;  217,131; 6581,029;45,83267
1016,69; 3137,875;  219,362; 6592,183;45,79626
1017,24; 3139,183;  203,515; 6614,952;45,78798
1017,79; 3214,337;  242,362; 6666,260;46,26435
1018,33; 3147,952;  218,669; 6645,952;45,57576
1018,88; 3198,567;  224,515; 6727,644;45,73263
1019,42; 3203,337;  219,669; 6695,029;46,07724
1019,97; 3175,798;  216,131; 6701,798;45,63397
1020,51; 3227,490;  232,438; 6727,798;46,11064
1021,06; 3190,875;  198,900; 6726,721;45,83421
1021,61; 3203,567;  191,669; 6679,337;46,42498
1022,15; 3161,183;  171,131; 6656,260;46,10628
1022,70; 3208,490;  215,977; 6651,106;46,50277
1023,24; 3147,644;  211,131; 6634,260;45,71780
1023,79; 3136,644;  225,977; 6554,644;45,99179
1024,33; 3108,106;  204,977; 6513,875;46,01642
1024,88; 3077,721;  223,362; 6409,490;46,14129
1025,42; 3040,721;  228,515; 6312,798;46,22083
1025,97; 3022,260;  210,746; 6220,798;46,78019
1026,51; 2908,106;  183,746; 6119,721;45,89574
1027,06; 2904,490;  211,592; 6090,644;45,80497
1027,60; 2889,490;  217,669; 5963,106;46,50336
1028,15; 2838,183;  215,977; 5864,260;46,42483
1028,69; 2725,567;  182,823; 5754,875;45,63389
1029,24; 2740,875;  192,054; 5702,260;46,25637
1029,78; 2714,490;  197,669; 5573,337;46,81877
1030,33; 2647,644;  186,669; 5471,413;46,56753
1030,87; 2615,567;  206,669; 5435,260;46,07165
1031,42; 2570,260;  196,208; 5321,952;46,31624
1031,96; 2567,260;  210,977; 5266,721;46,60605
1032,51; 2511,260;  196,515; 5181,029;46,43872
1033,05; 2486,952;  223,823; 5123,183;46,19234
1033,60; 2429,490;  176,285; 5016,413;46,55260
1034,14; 2406,183;  207,438; 4937,798;46,48154
1034,69; 2382,413;  207,977; 4890,952;46,43280
1035,23; 2347,644;  214,669; 4825,644;46,25865
1035,77; 2337,952;  208,823; 4753,567;46,84816
1036,32; 2279,183;  182,515; 4679,183;46,62714
1036,86; 2256,875;  208,823; 4631,029;46,31290
1037,41; 2276,721;  225,900; 4570,106;47,20820
1037,95; 2178,490;  197,285; 4478,875;46,27266
1038,50; 2171,337;  206,208; 4419,413;46,64213
1039,04; 2162,260;  229,823; 4396,106;46,38275
1039,58; 2114,798;  191,977; 4271,952;47,12826
1040,13; 2104,567;  205,900; 4232,644;47,15143
1040,67; 2112,490;  231,515; 4220,952;47,14889
1041,21; 2042,029;  240,362; 4134,490;46,26625
1041,76; 1996,337;  191,054; 4041,798;46,88140
1042,30; 1986,106;  210,131; 4005,567;46,79238
1042,85; 1972,567;  202,285; 3944,952;47,30003
1043,39; 1929,644;  182,977; 3902,567;46,95859
1043,93; 1939,644;  230,592; 3840,952;47,33744
1044,48; 1908,029;  218,131; 3782,029;47,41713
1045,02; 1848,106;  205,592; 3719,337;46,74539
1045,56; 1848,260;  227,592; 3712,721;46,50236
1046,11; 1830,644;  217,054; 3637,952;47,16862
1046,65; 1803,337;  222,285; 3593,260;46,90192
1047,19; 1781,260;  203,131; 3541,952;47,26605
1047,74; 1735,490;  196,438; 3461,106;47,14269
1048,28; 1741,567;  217,900; 3456,183;47,05171
1048,82; 1742,029;  232,746; 3444,875;46,98699
1049,37; 1702,952;  214,131; 3353,260;47,42784
1049,91; 1698,260;  210,592; 3303,337;48,10185
1050,45; 1686,029;  233,823; 3275,260;47,74736
1050,99; 1659,567;  223,592; 3208,875;48,10181
1051,54; 1634,952;  200,054; 3155,490;48,55114
1052,08; 1616,183;  233,823; 3143,798;47,50417
1052,62; 1601,337;  228,746; 3106,183;47,70185
1053,16; 1554,337;  202,515; 3023,413;47,92166
1053,71; 1556,413;  218,208; 2998,490;48,13200
1054,25; 1538,106;  229,669; 2944,260;48,20015
1054,79; 1541,490;  224,208; 2919,337;48,87643
1055,33; 1474,721;  200,208; 2847,183;48,14981
1055,88; 1491,106;  217,208; 2836,875;48,62824
1056,42; 1477,029;  237,054; 2800,260;48,37594
1056,96; 1446,183;  222,438; 2756,413;48,29346
1057,50; 1429,106;  224,977; 2719,875;48,26365
1058,05; 1406,337;  211,515; 2668,337;48,63281
1058,59; 1411,567;  236,669; 2644,798;48,78884
1059,13; 1353,798;  207,208; 2565,798;48,61337
1059,67; 1349,029;  228,592; 2571,875;47,81483
1060,21; 1333,183;  213,438; 2509,644;48,76498
1060,76; 1323,875;  221,131; 2466,567;49,11046
1061,30; 1315,029;  252,285; 2455,183;48,24301
1061,84; 1282,106;  222,362; 2384,798;49,00695
1062,38; 1241,106;  204,592; 2356,798;48,16052
1062,92; 1289,567;  261,438; 2380,798;48,51130
1063,46; 1239,029;  242,054; 2309,490;48,22276
1064,01; 1231,567;  219,977; 2266,490;49,42994
1064,55; 1202,567;  236,362; 2241,875;48,17748
1065,09; 1163,567;  195,515; 2187,413;48,59947
1065,63; 1200,875;  237,438; 2210,337;48,83357
1066,17; 1201,721;  246,746; 2165,106;49,78081
1066,71; 1177,490;  245,977; 2155,260;48,78866
1067,25; 1136,490;  211,977; 2073,567;49,66256
1067,80; 1143,644;  233,977; 2083,337;49,18823
1068,34; 1133,721;  256,823; 2076,721;48,18391
1068,88; 1090,721;  225,285; 2010,721;48,47199
1069,42; 1112,183;  246,669; 2016,644;48,89976
1069,96; 1074,721;  218,900; 1972,798;48,79538
1070,50; 1091,567;  253,900; 1974,490;48,68488
1071,04; 1041,798;  219,592; 1929,106;48,09589
1071,58; 1044,721;  221,054; 1891,952;49,29489
1072,12; 1029,798;  225,054; 1878,337;48,67554
1072,66; 1019,183;  219,438; 1877,798;48,22502
1073,21; 1006,952;  251,208; 1844,644;47,42857
1073,75;  983,260;  235,977; 1817,567;47,24881
1074,29;  983,875;  231,592; 1802,798;47,87932
1074,83;  989,183;  248,362; 1780,183;48,36212
1075,37;  987,567;  234,900; 1765,567;49,17250
1075,91;  983,721;  239,669; 1729,644;49,93721
1076,45;  952,413;  234,438; 1726,875;48,10757
1076,99;  938,721;  239,131; 1711,875;47,50250
1077,53;  925,029;  224,669; 1659,798;48,80117
1078,07;  934,875;  237,438; 1644,413;49,56993
1078,61;  917,029;  235,054; 1618,721;49,28750
1079,15;  905,029;  228,054; 1603,183;49,22993
1079,69;  889,798;  227,669; 1595,106;48,42118
1080,23;  904,567;  247,592; 1583,106;49,19269
1080,77;  920,106;  272,669; 1589,413;49,16950
1081,31;  875,029;  232,362; 1519,106;49,94523
1081,85;  869,644;  245,592; 1513,413;49,22239
1082,39;  850,567;  228,592; 1497,413;49,01991
1082,93;  849,798;  231,977; 1490,106;49,10635
1083,47;  841,413;  219,362; 1442,952;50,83825
1084,01;  834,567;  242,823; 1471,644;48,15544
1084,55;  821,413;  219,823; 1425,567;49,89370
1085,09;  827,490;  251,362; 1429,721;48,89245
1085,63;  822,567;  232,131; 1402,721;50,43921
1086,17;  790,721;  233,669; 1392,798;48,05781
1086,71;  784,260;  223,592; 1361,029;49,29218
1087,24;  802,029;  259,977; 1383,490;48,24614
1087,78;  786,337;  244,515; 1349,875;49,01764
1088,32;  751,567;  219,285; 1303,106;49,11167
1088,86;  777,337;  245,592; 1337,952;48,67850
1089,40;  767,798;  232,362; 1287,183;50,76088
1089,94;  724,798;  205,900; 1253,952;49,51072
1090,48;  739,260;  235,131; 1276,798;48,39634
1091,02;  744,490;  236,592; 1268,567;49,21612
1091,56;  734,952;  230,977; 1226,183;50,64028
1092,10;  689,875;  213,131; 1219,260;47,38401
1092,63;  731,875;  253,515; 1241,721;48,40688
1093,17;  707,567;  243,746; 1199,337;48,53765
1093,71;  693,260;  233,977; 1161,952;49,49300
1094,25;  719,413;  241,592; 1181,337;50,84587
1094,79;  689,413;  233,746; 1151,260;49,66328
1095,33;  671,644;  223,285; 1132,260;49,32585
1095,87;  674,029;  236,977; 1114,183;49,82319
1096,40;  651,952;  208,438; 1093,413;50,11593
1096,94;  658,567;  231,977; 1091,644;49,62273
1097,48;  659,106;  235,900; 1093,644;49,33939
1098,02;  651,490;  231,823; 1077,952;49,59851
1098,56;  624,490;  200,054; 1020,490;51,73301
1099,10;  630,260;  204,746; 1029,798;51,57414
1099,63;  622,567;  217,746; 1026,567;50,05076
1100,17;  637,798;  236,131; 1015,875;51,51270
1100,71;  645,798;  251,131; 1039,337;50,07161

