
Integration time [ms]: 120,000
Averaging Nr. [scans]: 13
Smoothing Nr. [pixels]: 0
Data measured with spectrometer [name]: 2009305U1
Wave   ;Sample   ;Dark     ;Reference;Reflectance
[nm]   ;[counts] ;[counts] ;[counts] ;[%]

 175,72;  197,792;  196,668;  197,919;89,86007
 176,32;  214,440;  224,824;  212,280; 0,00000
 176,92;  249,565;  241,130;  242,571;585,48370
 177,52;  259,819;  242,515;  254,327;146,48940
 178,12;  236,467;  234,286;  223,116; 0,00000
 178,72;  258,642;  259,440;  254,402; 0,00000
 179,32;  246,892;  246,671;  235,386; 0,00000
 179,92;  246,866;  234,900;  248,482;88,10008
 180,52;  235,914;  240,436;  237,089; 0,00000
 181,12;  245,594;  253,977;  245,596; 0,00000
 181,73;  274,985;  269,515;  273,796;127,77080
 182,33;  335,913;  335,668;  334,695; 0,00000
 182,93;  268,627;  254,130;  265,674;125,58488
 183,53;  229,543;  236,441;  221,261; 0,00000
 184,13;  237,460;  237,671;  221,796; 0,00000
 184,73;  259,586;  262,518;  271,534;-32,51670
 185,33;  261,504;  229,840;  336,352;29,72814
 185,93;  255,323;  230,227;  351,774;20,64717
 186,53;  275,672;  244,918;  379,899;22,78402
 187,13;  302,082;  274,916;  403,937;21,05543
 187,73;  258,136;  235,688;  356,935;18,51417
 188,33;  266,979;  241,766;  349,541;23,39455
 188,93;  272,956;  249,615;  369,880;19,40775
 189,53;  270,064;  249,772;  385,703;14,92863
 190,13;  321,198;  275,006;  414,463;33,12255
 190,73;  257,451;  214,465;  357,542;30,04374
 191,34;  284,183;  255,616;  380,255;22,91968
 191,94;  269,661;  233,998;  358,715;28,59508
 192,54;  283,558;  238,761;  386,808;30,25890
 193,14;  289,499;  254,609;  383,084;27,15708
 193,74;  282,591;  248,378;  396,443;23,10660
 194,34;  279,511;  252,224;  387,868;20,11664
 194,94;  246,153;  212,609;  342,507;25,82360
 195,54;  225,984;  192,610;  327,986;24,65286
 196,14;  254,427;  222,454;  364,863;22,45127
 196,74;  234,049;  216,764;  341,279;13,88175
 197,34;  221,638;  194,760;  337,313;18,85422
 197,94;  257,447;  225,608;  364,072;22,99402
 198,54;  258,417;  230,300;  376,969;19,17043
 199,14;  245,886;  205,914;  371,989;24,06896
 199,74;  239,001;  202,991;  371,028;21,43018
 200,34;  220,343;  185,529;  381,448;17,76980
 200,94;  252,162;  230,838;  425,835;10,93560
 201,54;  248,536;  210,991;  424,829;17,55770
 202,14;  270,440;  228,221;  464,972;17,83300
 202,74;  262,820;  209,452;  467,115;20,71230
 203,34;  229,706;  188,758;  473,666;14,37221
 203,94;  215,630;  173,913;  479,547;13,64936
 204,54;  291,685;  230,608;  560,734;18,50095
 205,14;  247,800;  194,529;  577,711;13,90227
 205,74;  295,861;  234,297;  662,667;14,37170
 206,34;  261,932;  194,990;  656,194;14,51457
 206,94;  274,013;  206,682;  723,812;13,02009
 207,54;  261,366;  180,990;  761,512;13,84546
 208,14;  264,314;  194,759;  845,961;10,68100
 208,74;  281,850;  208,529;  911,260;10,43366
 209,34;  286,788;  205,914;  978,815;10,46377
 209,94;  313,934;  213,375; 1077,076;11,64276
 210,54;  309,703;  203,989; 1184,084;10,78609
 211,14;  323,089;  215,606; 1280,692;10,09147
 211,73;  333,606;  202,914; 1388,013;11,02791
 212,33;  356,355;  218,530; 1506,797;10,69846
 212,93;  343,620;  198,914; 1587,260;10,42292
 213,53;  321,272;  178,298; 1618,606; 9,92662
 214,13;  366,705;  200,450; 1689,169;11,16764
 214,73;  336,364;  178,451; 1740,510;10,10923
 215,33;  334,857;  160,837; 1762,383;10,86575
 215,93;  367,920;  204,605; 1872,417; 9,79219
 216,53;  344,843;  159,606; 1926,444;10,48406
 217,13;  412,809;  214,605; 2158,920;10,19402
 217,73;  410,226;  190,528; 2304,263;10,39387
 218,33;  390,720;  152,219; 2518,725;10,07820
 218,93;  449,150;  182,832; 2769,091;10,29742
 219,53;  483,373;  193,450; 3043,686;10,17192
 220,13;  487,194;  158,449; 3363,047;10,25852
 220,73;  548,163;  180,221; 3703,613;10,44284
 221,32;  601,696;  184,529; 4093,106;10,67311
 221,92;  649,532;  183,065; 4469,423;10,88260
 222,52;  677,177;  183,066; 4860,098;10,56462
 223,12;  738,444;  181,835; 5272,367;10,93421
 223,72;  807,328;  191,912; 5711,636;11,14941
 224,32;  860,538;  191,681; 6080,154;11,35875
 224,92;  905,827;  176,296; 6396,211;11,72894
 225,52;  989,897;  194,375; 6776,081;12,08687
 226,12; 1015,530;  184,066; 7115,680;11,99525
 226,72; 1065,927;  163,836; 7436,883;12,40321
 227,31; 1126,908;  150,836; 7843,941;12,68762
 227,91; 1212,852;  191,529; 8225,304;12,71287
 228,51; 1266,659;  176,068; 8674,641;12,83263
 229,11; 1353,746;  180,451; 9046,663;13,23333
 229,71; 1428,025;  178,683; 9391,280;13,56123
 230,31; 1500,262;  167,758; 9800,650;13,83286
 230,91; 1583,736;  165,146;10128,599;14,23793
 231,51; 1655,669;  167,066;10384,244;14,56961
 232,10; 1760,124;  162,988;10757,667;15,07489
 232,70; 1822,126;  186,608;11009,483;15,11168
 233,30; 1933,806;  196,066;11238,918;15,73633
 233,90; 1988,172;  171,374;11352,438;16,24888
 234,50; 2064,198;  174,451;11517,427;16,66007
 235,10; 2146,980;  156,450;11505,442;17,53927
 235,70; 2217,728;  193,760;11579,833;17,77582
 236,29; 2250,303;  192,068;11503,674;18,19578
 236,89; 2278,570;  152,992;11438,703;18,83424
 237,49; 2350,213;  180,913;11287,940;19,53089
 238,09; 2330,393;  180,451;10997,578;19,87535
 238,69; 2365,234;  202,146;10858,055;20,29942
 239,29; 2331,204;  166,682;10503,772;20,93937
 239,89; 2307,897;  180,915;10194,569;21,24082
 240,48; 2258,990;  154,451; 9754,405;21,92238
 241,08; 2245,533;  170,529; 9405,870;22,46808
 241,68; 2242,248;  194,836; 9140,318;22,88766
 242,28; 2155,856;  174,220; 8763,467;23,07112
 242,88; 2160,127;  208,065; 8530,515;23,45538
 243,48; 2064,329;  199,374; 8222,440;23,24492
 244,07; 1997,756;  185,452; 8005,746;23,17438
 244,67; 2000,236;  194,220; 7827,115;23,66095
 245,27; 1969,606;  201,683; 7655,244;23,71917
 245,87; 1920,169;  198,988; 7542,632;23,43769
 246,47; 1894,317;  191,299; 7517,879;23,24438
 247,06; 1896,271;  176,221; 7552,186;23,31967
 247,66; 1880,218;  173,067; 7597,404;22,99399
 248,26; 1884,805;  204,375; 7721,867;22,35359
 248,86; 1896,931;  196,068; 7946,032;21,94673
 249,46; 1851,554;  150,220; 8117,436;21,35419
 250,05; 1931,683;  205,605; 8529,406;20,73665
 250,65; 1908,416;  158,684; 8867,977;20,09041
 251,25; 1957,851;  180,529; 9300,687;19,48784
 251,85; 2002,484;  183,915; 9897,809;18,72132
 252,44; 2044,292;  143,760;10426,548;18,48266
 253,04; 2144,856;  193,837;11157,152;17,79589
 253,64; 2139,064;  144,299;11872,353;17,00849
 254,24; 2254,876;  199,990;12750,291;16,37320
 254,84; 2327,477;  178,374;13710,898;15,88103
 255,43; 2405,685;  177,606;14641,288;15,40465
 256,03; 2463,716;  173,068;15619,314;14,82980
 256,63; 2548,474;  187,607;16570,915;14,41020
 257,23; 2561,713;  165,530;17440,270;13,87102
 257,82; 2650,179;  185,685;18410,923;13,52243
 258,42; 2621,158;  140,301;19238,014;12,99034
 259,02; 2729,039;  195,529;20100,066;12,72830
 259,62; 2715,951;  164,301;20780,805;12,37673
 260,21; 2732,686;  185,760;21389,750;12,01154
 260,81; 2712,455;  179,297;21840,834;11,69426
 261,41; 2671,240;  165,070;22271,751;11,33671
 262,01; 2721,639;  205,071;22747,222;11,16384
 262,60; 2649,021;  153,146;23059,270;10,89611
 263,20; 2660,712;  175,530;23358,004;10,72009
 263,80; 2649,054;  188,609;23556,520;10,52916
 264,40; 2617,444;  157,224;23717,182;10,44238
 264,99; 2610,632;  188,609;23856,252;10,23348
 265,59; 2580,249;  163,226;24016,091;10,13305
 266,19; 2605,091;  174,224;24242,712;10,09979
 266,78; 2652,285;  208,533;24397,709;10,10267
 267,38; 2607,302;  179,149;24300,377;10,06646
 267,98; 2620,130;  173,764;24345,555;10,12075
 268,58; 2618,206;  178,072;24350,973;10,09450
 269,17; 2608,962;  172,919;24355,377;10,07360
 269,77; 2628,614;  194,454;24203,591;10,13847
 270,37; 2625,739;  161,455;24082,628;10,30168
 270,96; 2670,631;  221,993;24011,182;10,29307
 271,56; 2651,148;  169,607;23734,204;10,53080
 272,16; 2631,135;  176,301;23539,069;10,50747
 272,75; 2678,375;  176,916;23407,117;10,76813
 273,35; 2692,831;  184,069;23453,806;10,78122
 273,95; 2738,336;  184,839;23409,924;10,99456
 274,54; 2749,097;  164,144;23390,628;11,12934
 275,14; 2861,282;  201,916;23686,758;11,32376
 275,74; 2858,472;  154,454;23785,213;11,44279
 276,33; 2969,278;  203,223;24173,832;11,53936
 276,93; 3088,612;  186,451;24621,375;11,87710
 277,53; 3154,341;  189,606;25047,943;11,92652
 278,12; 3291,490;  166,145;25551,471;12,31162
 278,72; 3451,448;  213,529;26164,319;12,47715
 279,32; 3551,325;  179,453;26731,464;12,69912
 279,91; 3668,964;  159,760;27416,178;12,87478
 280,51; 3850,715;  171,452;27950,740;13,24463
 281,11; 4032,715;  179,991;28722,006;13,49843
 281,70; 4168,332;  161,530;29076,084;13,85739
 282,30; 4307,378;  172,992;29653,281;14,02424
 282,90; 4444,042;  175,453;30050,521;14,28813
 283,49; 4681,792;  201,377;30707,229;14,68707
 284,09; 4832,161;  206,761;31099,989;14,97221
 284,69; 4989,951;  199,299;31383,821;15,36228
 285,28; 5187,969;  196,684;31825,797;15,78067
 285,88; 5388,722;  220,762;32019,926;16,25188
 286,47; 5514,697;  181,223;32128,176;16,69478
 287,07; 5706,672;  214,837;32257,888;17,13893
 287,67; 5942,945;  200,143;32393,594;17,83842
 288,26; 6113,923;  177,683;32269,677;18,49757
 288,86; 6323,343;  180,684;32334,209;19,10415
 289,46; 6667,194;  193,376;32530,562;20,01973
 290,05; 6917,582;  170,375;32505,111;20,86675
 290,65; 7226,699;  184,223;32648,485;21,69301
 291,24; 7526,728;  193,068;32961,560;22,38022
 291,84; 7875,705;  197,530;33029,454;23,38631
 292,44; 8171,865;  183,220;33101,900;24,26782
 293,03; 8522,487;  239,145;33291,127;25,06156
 293,63; 8823,562;  183,300;33470,733;25,95653
 294,22; 9096,570;  192,991;33683,054;26,58573
 294,82; 9408,510;  174,532;33575,594;27,64576
 295,41; 9511,871;  161,376;33298,468;28,21761
 296,01; 9718,032;  224,685;33327,004;28,67880
 296,61; 9860,296;  193,683;32993,397;29,47164
 297,20; 9908,848;  195,301;32730,397;29,85560
 297,80;10003,088;  193,682;32568,733;30,29927
 298,39;10010,022;  170,992;32250,732;30,67054
 298,99;10121,650;  197,839;32006,740;31,19822
 299,58;10126,890;  196,528;31893,076;31,32947
 300,18;10242,821;  210,606;31673,312;31,88605
 300,78;10154,858;  177,375;31300,769;32,05782
 301,37;10241,107;  187,532;31326,148;32,28652
 301,97;10323,944;  195,068;31357,466;32,50352
 302,56;10364,593;  183,530;31272,571;32,74807
 303,16;10410,222;  169,761;31119,621;33,08726
 303,75;10387,288;  177,067;31117,546;32,99956
 304,35;10553,705;  173,066;31521,511;33,11373
 304,94;10577,164;  183,299;31356,572;33,34223
 305,54;10672,927;  206,529;31336,491;33,62162
 306,13;10638,790;  163,912;31367,636;33,56932
 306,73;10578,991;  175,143;31149,833;33,58822
 307,33;10589,773;  194,374;31011,498;33,73254
 307,92;10628,045;  186,914;31149,531;33,72173
 308,52;10859,598;  169,608;31623,266;33,98648
 309,11;10954,977;  181,070;32031,332;33,82674
 309,71;11100,110;  162,840;32261,962;34,07343
 310,30;11199,652;  169,145;32596,483;34,01607
 310,90;11357,421;  201,606;32942,868;34,07265
 311,49;11386,548;  185,299;33078,879;34,05299
 312,09;11437,302;  150,529;33147,793;34,20518
 312,68;11626,964;  223,760;33564,913;34,20159
 313,28;11626,430;  162,837;33776,608;34,10386
 313,87;11627,730;  155,683;33948,023;33,94866
 314,47;11748,780;  167,916;34121,906;34,10752
 315,06;11708,631;  166,914;34277,617;33,83606
 315,66;11797,148;  174,606;34487,947;33,87179
 316,25;11703,095;  146,223;34415,457;33,72375
 316,85;11682,503;  148,452;34577,725;33,50071
 317,44;11728,072;  178,455;34696,120;33,46002
 318,04;11680,523;  156,300;34691,771;33,36924
 318,63;11641,308;  148,835;34867,727;33,10150
 319,22;11691,575;  184,069;35016,168;33,03707
 319,82;11643,681;  173,838;34976,663;32,95665
 320,41;11546,583;  188,146;34860,446;32,75940
 321,01;11473,698;  191,144;35028,765;32,38612
 321,60;11423,055;  176,299;35146,306;32,16115
 322,20;11335,803;  155,606;35103,713;31,99085
 322,79;11354,717;  210,529;35170,511;31,87698
 323,39;11242,092;  169,374;35258,974;31,55555
 323,98;11116,619;  159,606;34983,952;31,46366
 324,58;11043,916;  164,454;34968,930;31,25880
 325,17;10999,940;  178,607;34806,918;31,24996
 325,76;10800,135;  190,606;34590,812;30,84147
 326,36;10657,285;  157,836;34290,160;30,76101
 326,95;10475,294;  191,914;33891,046;30,51527
 327,55;10281,009;  156,453;33609,990;30,26453
 328,14;10091,134;  168,374;33306,357;29,94376
 328,74; 9908,016;  204,146;32801,533;29,76886
 329,33; 9697,844;  185,067;32458,102;29,47593
 329,92; 9453,197;  160,301;31882,668;29,29446
 330,52; 9164,536;  172,451;31214,683;28,96726
 331,11; 9029,988;  176,376;30849,970;28,86395
 331,71; 8777,810;  169,607;30282,948;28,58601
 332,30; 8596,087;  186,683;29783,956;28,41277
 332,89; 8402,278;  225,837;29357,728;28,06698
 333,49; 8155,765;  185,914;28709,171;27,94159
 334,08; 7979,230;  176,299;28312,711;27,73250
 334,68; 7756,874;  182,915;27909,086;27,31701
 335,27; 7592,302;  184,528;27528,220;27,09135
 335,86; 7470,526;  223,838;27324,046;26,74034
 336,46; 7278,984;  190,759;27025,094;26,41476
 337,05; 7156,200;  172,607;26773,720;26,25301
 337,65; 7062,730;  161,915;26639,826;26,06254
 338,24; 7088,898;  224,298;26590,654;26,03545
 338,83; 6926,340;  208,068;26462,711;25,58889
 339,43; 6806,469;  177,069;26457,101;25,22600
 340,02; 6731,933;  178,531;26386,871;25,00503
 340,61; 6700,467;  173,837;26369,338;24,91508
 341,21; 6649,862;  203,607;26349,533;24,65491
 341,80; 6553,673;  179,915;26375,384;24,33153
 342,40; 6491,209;  171,682;26432,125;24,06481
 342,99; 6472,663;  182,067;26467,113;23,93222
 343,58; 6405,459;  175,990;26717,718;23,47047
 344,18; 6401,967;  190,836;26808,342;23,33476
 344,77; 6411,289;  162,992;27092,035;23,20282
 345,36; 6391,525;  157,453;27385,200;22,89603
 345,96; 6412,863;  203,606;27672,891;22,60436
 346,55; 6398,696;  164,143;27940,079;22,44588
 347,14; 6388,083;  155,297;28302,500;22,14354
 347,74; 6390,072;  140,142;28698,886;21,88447
 348,33; 6476,565;  175,526;29329,262;21,61314
 348,92; 6524,667;  185,218;29983,524;21,27453
 349,52; 6591,116;  147,526;30445,585;21,26733
 350,11; 6523,628;  173,454;30582,180;20,88274
 350,70; 6508,054;  173,452;30809,809;20,67675
 351,29; 6391,036;  148,764;30507,921;20,56141
 351,89; 6330,967;  174,685;30478,746;20,31504
 352,48; 6274,180;  155,299;30497,665;20,16613
 353,07; 6172,205;  182,066;30396,277;19,82557
 353,67; 6096,877;  191,756;30353,888;19,57793
 354,26; 5983,554;  170,990;30103,932;19,41862
 354,85; 5901,224;  185,067;29973,792;19,18899
 355,45; 5788,300;  155,684;29816,742;18,98994
 356,04; 5699,944;  174,759;29768,055;18,67039
 356,63; 5665,592;  201,145;29409,997;18,70819
 357,22; 5564,557;  175,917;29375,176;18,45471
 357,82; 5457,992;  193,224;29208,614;18,14474
 358,41; 5400,674;  201,760;29108,120;17,98536
 359,00; 5313,248;  158,300;28913,918;17,92675
 359,60; 5221,581;  180,221;28724,683;17,66143
 360,19; 5148,797;  176,605;28638,178;17,46984
 360,78; 5113,019;  190,222;28497,576;17,39052
 361,37; 5007,980;  174,761;28242,538;17,21981
 361,97; 4947,099;  186,530;28190,006;16,99992
 362,56; 4869,427;  169,531;27892,787;16,95290
 363,15; 4809,857;  213,453;27606,375;16,77953
 363,74; 4684,289;  174,685;27373,531;16,58013
 364,34; 4609,124;  195,992;26912,293;16,51850
 364,93; 4479,285;  163,069;26430,374;16,43189
 365,52; 4340,296;  149,376;26172,508;16,10459
 366,11; 4313,258;  171,146;25882,043;16,11034
 366,71; 4204,113;  163,377;25437,168;15,98785
 367,30; 4159,814;  170,607;25110,181;15,99549
 367,89; 4138,792;  198,990;24925,860;15,93328
 368,48; 4013,980;  198,224;24640,300;15,61143
 369,07; 3928,131;  179,760;24120,963;15,65657
 369,67; 3899,459;  203,454;23868,702;15,61786
 370,26; 3824,515;  171,452;23599,578;15,59264
 370,85; 3773,517;  179,530;23323,075;15,52911
 371,44; 3727,196;  176,145;23107,871;15,48532
 372,03; 3657,441;  152,223;22932,418;15,38713
 372,63; 3561,034;  152,684;22571,978;15,20276
 373,22; 3556,335;  166,376;22343,589;15,28578
 373,81; 3498,431;  148,376;22009,643;15,32416
 374,40; 3435,220;  165,913;21699,790;15,18216
 374,99; 3405,886;  169,761;21518,751;15,15821
 375,59; 3362,174;  162,528;21175,243;15,22719
 376,18; 3409,202;  193,761;21119,644;15,36586
 376,77; 3350,156;  186,299;20977,832;15,21705
 377,36; 3352,873;  195,838;20847,778;15,28687
 377,95; 3301,651;  181,146;20525,705;15,33828
 378,55; 3276,314;  157,913;20341,534;15,45015
 379,14; 3287,556;  185,299;20317,114;15,40972
 379,73; 3248,111;  175,684;20230,320;15,32028
 380,32; 3282,493;  185,991;20308,823;15,38800
 380,91; 3246,546;  175,685;20112,135;15,40325
 381,50; 3291,465;  189,915;20145,055;15,54261
 382,10; 3253,801;  166,530;19978,130;15,58315
 382,69; 3267,143;  153,376;19923,509;15,74985
 383,28; 3295,404;  190,761;19875,842;15,77155
 383,87; 3243,078;  170,377;19769,746;15,67755
 384,46; 3271,154;  162,070;19724,738;15,89294
 385,05; 3341,224;  193,223;19732,931;16,11079
 385,64; 3319,950;  178,069;19695,581;16,09775
 386,24; 3331,694;  149,609;19626,893;16,33742
 386,83; 3388,129;  192,455;19630,827;16,44003
 387,42; 3426,410;  188,761;19800,427;16,50879
 388,01; 3478,204;  187,379;19979,741;16,62674
 388,60; 3547,719;  175,378;20220,112;16,82407
 389,19; 3589,235;  156,457;20416,341;16,94372
 389,78; 3693,807;  165,765;20729,299;17,15679
 390,37; 3818,251;  222,994;21142,177;17,18641
 390,96; 3838,320;  180,763;21286,326;17,32982
 391,56; 3884,752;  176,227;21344,508;17,51925
 392,15; 4004,303;  160,072;21679,720;17,86382
 392,74; 3999,762;  151,460;21795,507;17,77996
 393,33; 4115,861;  166,227;22126,116;17,98567
 393,92; 4266,479;  173,461;22513,333;18,32159
 394,51; 4307,333;  149,304;22716,088;18,42544
 395,10; 4382,128;  192,848;22911,234;18,44005
 395,69; 4460,179;  176,924;23003,980;18,76394
 396,28; 4532,606;  185,464;23176,013;18,90839
 396,87; 4602,040;  192,620;23343,392;19,04653
 397,46; 4655,037;  181,314;23335,340;19,32158
 398,06; 4759,060;  189,701;23615,542;19,50564
 398,65; 4764,040;  177,244;23677,260;19,51827
 399,24; 4906,103;  188,014;23858,432;19,93243
 399,83; 4890,545;  164,329;23835,982;19,96572
 400,42; 5006,358;  201,796;23985,677;20,20092
 401,01; 5069,909;  182,573;24029,218;20,49486
 401,60; 5106,155;  177,275;24210,515;20,50860
 402,19; 5169,369;  196,513;24101,561;20,80253
 402,78; 5210,103;  200,602;24087,601;20,97166
 403,37; 5217,183;  187,228;23877,105;21,23251
 403,96; 5234,756;  182,241;23721,090;21,46458
 404,55; 5248,748;  167,487;23720,600;21,57363
 405,14; 5266,237;  167,808;23513,307;21,83902
 405,73; 5307,024;  183,285;23436,720;22,03433
 406,32; 5370,726;  190,910;23384,544;22,33292
 406,91; 5345,148;  180,307;23126,231;22,50875
 407,50; 5387,635;  178,159;22981,523;22,84521
 408,09; 5353,833;  155,241;22707,575;23,05124
 408,68; 5383,557;  181,013;22565,971;23,24125
 409,27; 5384,346;  175,086;22354,826;23,48657
 409,86; 5383,777;  170,231;22237,205;23,62602
 410,45; 5480,329;  200,684;22171,617;24,03013
 411,04; 5470,857;  197,445;22092,777;24,08464
 411,63; 5484,807;  175,204;21749,606;24,61066
 412,22; 5448,225;  201,425;21608,780;24,50933
 412,81; 5435,140;  192,883;21395,680;24,72437
 413,40; 5416,972;  204,187;21034,618;25,02486
 413,99; 5420,841;  234,803;20717,708;25,31886
 414,58; 5310,470;  160,726;20274,844;25,60264
 415,17; 5278,871;  175,114;20101,949;25,61248
 415,76; 5314,615;  169,195;19974,707;25,97974
 416,35; 5270,430;  159,116;19776,073;26,05559
 416,94; 5356,275;  199,502;19821,526;26,28054
 417,53; 5457,721;  172,960;20056,994;26,57791
 418,12; 5504,505;  166,036;20023,822;26,88351
 418,71; 5664,643;  190,494;20445,675;27,02592
 419,30; 5717,182;  177,189;20578,386;27,15523
 419,89; 5863,391;  176,573;20770,792;27,61366
 420,48; 5960,921;  195,110;21032,068;27,67108
 421,07; 5998,563;  185,340;21040,253;27,87460
 421,66; 6046,039;  165,876;21069,935;28,12929
 422,25; 6078,775;  172,718;21036,735;28,30738
 422,84; 6109,243;  208,487;21049,362;28,31338
 423,43; 6085,164;  171,489;20839,926;28,61211
 424,02; 6043,114;  206,026;20496,880;28,76709
 424,60; 5931,865;  165,714;20092,893;28,93611
 425,19; 5959,798;  185,793;19869,157;29,33444
 425,78; 5935,294;  196,485;19774,962;29,31182
 426,37; 5964,757;  189,715;19661,859;29,65797
 426,96; 5983,795;  189,638;19529,359;29,95988
 427,55; 5931,022;  179,020;19339,603;30,01997
 428,14; 5912,551;  167,788;19155,101;30,25580
 428,73; 5924,712;  186,021;19002,055;30,49894
 429,32; 5929,021;  191,715;18977,775;30,54023
 429,91; 5994,690;  212,482;18966,112;30,83248
 430,50; 5975,274;  195,711;18786,512;31,08829
 431,08; 5927,839;  200,864;18610,124;31,10921
 431,67; 5930,165;  233,863;18580,766;31,04776
 432,26; 5921,098;  230,939;18330,206;31,43861
 432,85; 5850,854;  244,016;18032,499;31,51948
 433,44; 5768,200;  259,014;17649,895;31,67859
 434,03; 5721,593;  264,704;17299,958;32,03292
 434,62; 5578,496;  220,476;16897,307;32,12853
 435,21; 5585,004;  235,708;16746,958;32,39789
 435,79; 5536,877;  230,782;16568,544;32,47749
 436,38; 5527,589;  224,164;16412,732;32,76031
 436,97; 5513,785;  220,472;16329,431;32,85944
 437,56; 5496,516;  235,930;16162,416;33,03043
 438,15; 5470,627;  218,700;16037,367;33,20082
 438,74; 5544,314;  235,776;16092,672;33,47779
 439,33; 5516,735;  219,777;16171,359;33,20648
 439,91; 5567,411;  187,314;16238,238;33,51893
 440,50; 5625,428;  236,006;16217,333;33,72325
 441,09; 5705,376;  220,312;16301,833;34,10787
 441,68; 5682,410;  214,310;16343,764;33,90133
 442,27; 5707,799;  196,464;16282,263;34,26211
 442,86; 5687,400;  183,537;16344,663;34,05619
 443,44; 5764,222;  185,307;16399,787;34,40700
 444,03; 5848,880;  234,768;16429,527;34,66623
 444,62; 5721,255;  186,844;16264,941;34,42205
 445,21; 5711,379;  202,230;16176,369;34,48792
 445,80; 5768,176;  225,535;15999,528;35,13784
 446,39; 5675,577;  250,920;15821,042;34,84017
 446,97; 5595,475;  183,225;15554,035;35,21122
 447,56; 5486,018;  181,761;15307,592;35,06754
 448,15; 5497,889;  185,994;15168,718;35,45346
 448,74; 5438,702;  195,686;14965,263;35,49875
 449,33; 5356,082;  191,608;14784,807;35,38960
 449,91; 5347,688;  191,298;14588,544;35,81511
 450,50; 5265,407;  181,375;14406,952;35,73867
 451,09; 5232,556;  191,837;14299,949;35,72923
 451,68; 5240,742;  209,682;14214,719;35,92322
 452,26; 5201,004;  197,604;14109,488;35,96494
 452,85; 5120,870;  182,989;14003,849;35,72774
 453,44; 5183,530;  201,832;14047,530;35,98011
 454,03; 5154,493;  183,680;13933,596;36,15159
 454,61; 5152,228;  175,370;13940,884;36,15454
 455,20; 5288,125;  205,139;14121,979;36,52399
 455,79; 5279,194;  204,679;14106,344;36,50293
 456,38; 5329,798;  204,752;14172,857;36,69106
 456,97; 5352,393;  183,445;14221,795;36,82020
 457,55; 5335,900;  187,213;14341,041;36,37664
 458,14; 5380,641;  207,599;14274,847;36,77366
 458,73; 5328,752;  197,751;14154,010;36,76488
 459,31; 5382,259;  215,519;14203,915;36,93591
 459,90; 5422,219;  226,750;14306,406;36,90054
 460,49; 5456,508;  273,366;14411,806;36,65992
 461,08; 5492,427;  191,133;14403,434;37,30074
 461,66; 5524,703;  192,365;14554,358;37,12812
 462,25; 5583,114;  188,517;14600,243;37,43200
 462,84; 5622,971;  218,133;14695,403;37,33327
 463,43; 5569,608;  161,130;14551,405;37,58426
 464,01; 5590,055;  195,821;14623,012;37,38936
 464,60; 5606,986;  229,977;14589,624;37,44527
 465,19; 5481,651;  165,359;14358,804;37,45597
 465,77; 5498,606;  190,281;14302,727;37,61449
 466,36; 5454,387;  206,669;14272,145;37,30921
 466,95; 5349,960;  182,899;13880,028;37,72368
 467,53; 5218,779;  179,819;13600,061;37,54746
 468,12; 5186,553;  212,434;13372,184;37,79797
 468,71; 5059,522;  196,898;13136,177;37,58034
 469,29; 4996,068;  176,972;12847,700;38,03330
 469,88; 4885,823;  179,894;12587,461;37,92789
 470,47; 4958,092;  239,969;12708,011;37,84173
 471,06; 4934,042;  196,585;12693,693;37,90843
 471,64; 4983,108;  203,278;12803,602;37,93419
 472,23; 4936,906;  165,274;12796,077;37,77774
 472,81; 4980,645;  172,430;12890,420;37,80641
 473,40; 5097,135;  179,197;13041,307;38,23586
 473,99; 5169,308;  265,197;13223,941;37,84403
 474,57; 5150,262;  172,889;13406,317;37,61212
 475,16; 5243,735;  187,660;13512,513;37,94470
 475,75; 5305,615;  200,888;13632,333;38,00579
 476,33; 5331,284;  219,733;13698,089;37,92414
 476,92; 5375,707;  211,812;13770,265;38,08617
 477,51; 5395,371;  201,272;13807,479;38,17448
 478,09; 5353,102;  193,810;13841,364;37,80378
 478,68; 5349,467;  204,964;13846,695;37,71152
 479,27; 5368,479;  216,888;13833,967;37,83183
 479,85; 5365,373;  204,195;13767,446;38,05266
 480,44; 5417,419;  163,425;13890,035;38,27598
 481,02; 5896,495;  199,193;15348,965;37,60652
 481,61; 6701,533;  219,270;17381,884;37,76967
 482,20; 7110,542;  201,346;18466,821;37,82653
 482,78; 7431,058;  225,040;19260,365;37,85603
 483,37; 7651,867;  221,575;19787,966;37,97477
 483,95; 7737,188;  238,421;20101,597;37,75210
 484,54; 7830,373;  253,270;20269,915;37,85401
 485,13; 7802,316;  215,035;20216,120;37,93435
 485,71; 7685,720;  190,959;20019,097;37,79861
 486,30; 7627,681;  226,420;19680,289;38,04519
 486,88; 7470,587;  268,420;19317,698;37,80809
 487,47; 7175,955;  232,958;18612,877;37,77491
 488,05; 6862,473;  227,419;17775,668;37,81035
 488,64; 6393,699;  227,263;16521,135;37,84512
 489,23; 5704,264;  242,418;14695,116;37,79119
 489,81; 4898,805;  230,033;12503,314;38,04013
 490,40; 4600,358;  203,648;11907,484;37,56640
 490,98; 4515,329;  173,955;11627,382;37,90458
 491,57; 4466,780;  215,187;11548,864;37,51292
 492,15; 4431,440;  189,647;11515,648;37,45181
 492,74; 4392,922;  199,957;11363,542;37,55931
 493,32; 4356,196;  218,340;11287,171;37,38295
 493,91; 4326,746;  195,570;11139,766;37,74764
 494,50; 4292,223;  207,721;11189,107;37,19478
 495,08; 4289,629;  183,798;11094,897;37,62986
 495,67; 4292,893;  208,339;11096,644;37,51323
 496,25; 4226,437;  170,184;10988,928;37,49283
 496,84; 4203,001;  167,724;10969,404;37,35786
 497,42; 4189,361;  162,107;10888,278;37,54606
 498,01; 4217,505;  198,262;10888,488;37,59737
 498,59; 4123,137;  171,183;10805,786;37,16127
 499,18; 4145,454;  163,647;10772,169;37,53405
 499,76; 4115,177;  200,338;10714,168;37,23514
 500,35; 4061,837;  190,951;10529,303;37,44201
 500,93; 4028,949;  178,260;10438,289;37,53098
 501,52; 4004,320;  177,337;10374,623;37,52943
 502,10; 4012,013;  191,489;10378,023;37,50563
 502,69; 3935,729;  182,180;10226,592;37,36953
 503,27; 3823,097;  170,567;10017,943;37,09140
 503,86; 3830,245;  175,719; 9986,836;37,24883
 504,44; 3747,000;  162,410; 9862,597;36,95382
 505,03; 3654,625;  149,257; 9629,414;36,97585
 505,61; 3632,621;  163,718; 9546,523;36,97085
 506,19; 3560,232;  182,257; 9366,059;36,78188
 506,78; 3447,413;  152,716; 9184,790;36,47774
 507,36; 3415,704;  167,795; 9072,185;36,47537
 507,95; 3333,764;  168,408; 8850,302;36,45929
 508,53; 3335,356;  164,332; 8761,887;36,88286
 509,12; 3260,606;  177,870; 8629,949;36,47311
 509,70; 3224,079;  180,715; 8488,348;36,63334
 510,29; 3178,525;  188,407; 8328,108;36,73499
 510,87; 3064,568;  164,409; 8144,099;36,34425
 511,46; 2998,301;  159,485; 7966,028;36,36458
 512,04; 2945,276;  180,638; 7824,201;36,16949
 512,62; 2904,339;  172,716; 7724,681;36,17103
 513,21; 2818,091;  158,868; 7536,098;36,04636
 513,79; 2770,015;  166,942; 7407,618;35,95069
 514,38; 2712,570;  144,405; 7251,704;36,13419
 514,96; 2704,996;  194,866; 7217,206;35,74491
 515,54; 2621,053;  155,481; 7062,844;35,69483
 516,13; 2605,117;  179,096; 6917,948;36,00050
 516,71; 2543,318;  174,403; 6831,734;35,58356
 517,30; 2470,897;  155,325; 6691,551;35,42675
 517,88; 2469,812;  185,787; 6621,965;35,48729
 518,46; 2394,765;  153,401; 6497,999;35,32712
 519,05; 2386,655;  160,478; 6477,664;35,24002
 519,63; 2371,883;  181,324; 6415,620;35,13723
 520,22; 2360,085;  182,092; 6337,987;35,38061
 520,80; 2307,726;  174,476; 6226,822;35,24667
 521,38; 2290,595;  195,631; 6241,450;34,65144
 521,97; 2291,001;  160,552; 6210,102;35,21665
 522,55; 2269,357;  182,475; 6213,881;34,60026
 523,13; 2243,904;  165,167; 6207,817;34,40108
 523,72; 2243,295;  162,709; 6145,874;34,77400
 524,30; 2301,190;  183,705; 6308,377;34,57303
 524,89; 2280,950;  154,244; 6317,937;34,50376
 525,47; 2328,578;  171,550; 6418,422;34,52972
 526,05; 2355,497;  147,089; 6489,573;34,81930
 526,64; 2386,354;  186,934; 6620,203;34,18822
 527,22; 2418,300;  175,397; 6752,643;34,10094
 527,80; 2481,471;  215,242; 6874,935;34,02904
 528,39; 2474,268;  171,472; 6963,659;33,90360
 528,97; 2518,418;  179,626; 7137,153;33,61528
 529,55; 2602,692;  181,090; 7292,452;34,05258
 530,14; 2677,770;  202,626; 7473,664;34,04114
 530,72; 2658,841;  171,780; 7625,729;33,36568
 531,30; 2683,950;  148,856; 7738,499;33,40202
 531,89; 2742,316;  177,010; 7827,403;33,53168
 532,47; 2785,174;  206,625; 7946,187;33,31647
 533,05; 2763,357;  203,319; 7993,435;32,86264
 533,63; 2801,814;  191,240; 8016,483;33,36093
 534,22; 2775,996;  166,163; 8045,473;33,12261
 534,80; 2812,322;  196,931; 8129,191;32,97157
 535,38; 2874,158;  268,010; 8276,247;32,54335
 535,97; 2794,769;  173,240; 8124,860;32,96849
 536,55; 2834,588;  215,546; 8278,382;32,48289
 537,13; 2801,375;  207,087; 8215,154;32,39593
 537,71; 2841,503;  246,164; 8231,165;32,50267
 538,30; 2859,556;  248,086; 8351,459;32,22695
 538,88; 2865,515;  273,084; 8422,315;31,81197
 539,46; 2922,447;  308,700; 8568,663;31,64357
 540,05; 2957,753;  308,623; 8699,627;31,57107
 540,63; 3040,204;  343,546; 8864,809;31,64622
 541,21; 3096,480;  351,007; 8970,782;31,85087
 541,79; 3115,922;  381,007; 9119,533;31,29722
 542,38; 3174,573;  400,161; 9275,331;31,26038
 542,96; 3228,319;  394,236; 9398,667;31,47431
 543,54; 3252,309;  420,776; 9606,688;30,82474
 544,12; 3306,476;  391,622; 9719,703;31,24817
 544,70; 3291,048;  380,082; 9848,243;30,74479
 545,29; 3364,543;  399,008;10022,801;30,81462
 545,87; 3363,076;  374,776;10086,994;30,76846
 546,45; 3359,872;  348,854;10109,053;30,84997
 547,03; 3370,179;  339,084;10206,710;30,71757
 547,62; 3382,305;  315,007;10346,147;30,57776
 548,20; 3441,995;  330,006;10512,803;30,56124
 548,78; 3446,078;  295,542;10627,019;30,49454
 549,36; 3486,275;  275,542;10914,598;30,17874
 549,94; 3505,818;  264,314;11046,201;30,06435
 550,53; 3561,291;  269,081;11255,266;29,96682
 551,11; 3587,291;  234,849;11460,197;29,86493
 551,69; 3696,891;  240,004;11797,137;29,91129
 552,27; 3741,002;  212,543;12027,242;29,86499
 552,85; 3845,715;  222,695;12402,005;29,74733
 553,44; 3900,536;  225,388;12707,128;29,44420
 554,02; 4028,751;  232,926;13119,768;29,45504
 554,60; 4058,616;  193,772;13422,753;29,21498
 555,18; 4203,102;  223,542;13805,579;29,30017
 555,76; 4260,837;  206,619;14182,816;29,00802
 556,34; 4386,244;  211,002;14557,042;29,10380
 556,93; 4489,043;  205,311;14950,136;29,05244
 557,51; 4561,609;  192,156;15311,022;28,90067
 558,09; 4659,784;  212,850;15734,992;28,64897
 558,67; 4776,519;  210,693;16082,476;28,76694
 559,25; 4856,642;  223,848;16371,596;28,69004
 559,83; 4924,499;  205,308;16683,960;28,63821
 560,41; 4995,057;  205,771;17055,006;28,42435
 561,00; 5106,384;  208,539;17343,264;28,58432
 561,58; 5177,270;  198,464;17668,680;28,49883
 562,16; 5223,628;  185,157;18011,648;28,26395
 562,74; 5287,394;  167,234;18288,528;28,25494
 563,32; 5403,461;  174,923;18759,153;28,13427
 563,90; 5516,990;  207,309;19120,524;28,07392
 564,48; 5572,563;  204,772;19511,356;27,80290
 565,06; 5734,281;  188,232;20160,583;27,76864
 565,65; 5931,162;  204,153;20836,746;27,75710
 566,23; 6127,567;  250,770;21605,331;27,52010
 566,81; 6214,912;  195,001;22249,173;27,29602
 567,39; 6505,350;  205,077;23136,467;27,47445
 567,97; 6629,533;  222,924;23837,757;27,12960
 568,55; 6879,078;  234,770;24603,461;27,26576
 569,13; 7023,470;  195,539;25332,542;27,16287
 569,71; 7227,590;  195,311;26288,841;26,95028
 570,29; 7483,457;  230,004;27237,665;26,85702
 570,87; 7632,334;  228,157;28016,084;26,64530
 571,45; 7773,520;  222,924;28595,630;26,61218
 572,03; 7846,711;  180,307;29118,291;26,49253
 572,61; 7974,031;  171,539;29768,913;26,36211
 573,20; 8136,992;  212,155;30457,944;26,20146
 573,78; 8308,932;  194,693;31102,278;26,25323
 574,36; 8356,274;  197,001;31598,733;25,98351
 574,94; 8481,688;  251,538;31941,039;25,97122
 575,52; 8470,171;  186,690;32172,417;25,89743
 576,10; 8586,181;  249,537;32753,885;25,64778
 576,68; 8699,144;  222,307;33359,301;25,58119
 577,26; 8797,429;  242,920;34034,218;25,31572
 577,84; 8932,936;  240,847;34439,972;25,41612
 578,42; 8984,536;  277,153;34750,082;25,25861
 579,00; 8924,634;  227,846;34942,556;25,05217
 579,58; 8930,889;  257,538;35231,125;24,79972
 580,16; 8971,100;  239,076;35261,609;24,93259
 580,74; 8916,078;  233,229;35397,512;24,69224
 581,32; 8931,174;  234,076;35482,642;24,67362
 581,90; 8873,206;  240,307;35369,754;24,57454
 582,48; 8909,955;  242,230;35585,042;24,52472
 583,06; 8929,724;  244,307;35773,307;24,44599
 583,64; 8943,284;  240,923;35789,173;24,48042
 584,22; 8819,656;  251,459;35758,020;24,13131
 584,80; 8753,362;  261,537;35487,370;24,10681
 585,38; 8676,928;  260,617;35102,456;24,15576
 585,96; 8613,967;  224,154;35305,083;23,91559
 586,54; 8564,892;  251,921;35185,484;23,79652
 587,12; 8592,045;  221,768;35412,288;23,78560
 587,70; 8605,253;  257,846;35489,986;23,69259
 588,28; 8605,238;  242,306;35598,019;23,65369
 588,86; 8584,435;  243,460;35696,487;23,52683
 589,44; 8521,763;  219,843;35803,711;23,33057
 590,02; 8530,068;  234,843;36051,052;23,16053
 590,59; 8562,613;  220,075;36245,321;23,15748
 591,17; 8547,937;  223,764;36479,320;22,95972
 591,75; 8561,993;  213,227;36521,830;22,99391
 592,33; 8563,414;  238,535;36839,517;22,74496
 592,91; 8587,646;  193,918;37044,756;22,77758
 593,49; 8640,191;  206,764;37432,306;22,65495
 594,07; 8670,990;  212,841;37568,143;22,64243
 594,65; 8636,822;  224,459;37618,762;22,49638
 595,23; 8709,310;  217,612;38120,562;22,40379
 595,81; 8671,361;  221,612;38259,539;22,21401
 596,39; 8694,013;  209,996;38308,269;22,26877
 596,97; 8660,627;  206,149;38540,276;22,05470
 597,55; 8619,719;  211,074;38368,431;22,03676
 598,12; 8622,780;  184,302;38453,822;22,05013
 598,70; 8605,574;  195,149;38552,494;21,92651
 599,28; 8636,910;  214,995;38744,330;21,85845
 599,86; 8586,249;  204,841;38706,937;21,76870
 600,44; 8581,491;  172,610;38933,337;21,69433
 601,02; 8580,969;  227,608;38927,712;21,58485
 601,60; 8505,732;  209,688;38862,685;21,46287
 602,18; 8452,205;  178,610;38870,938;21,38304
 602,75; 8465,382;  189,920;39007,867;21,31865
 603,33; 8406,544;  201,687;38987,272;21,15440
 603,91; 8378,808;  188,840;39040,469;21,08011
 604,49; 8375,322;  208,226;39087,397;21,00635
 605,07; 8329,416;  215,996;39057,561;20,88850
 605,65; 8288,690;  225,533;39172,729;20,70279
 606,23; 8314,636;  264,306;39339,727;20,60203
 606,80; 8222,286;  285,074;39292,079;20,34817
 607,38; 8165,379;  300,686;39398,846;20,11525
 607,96; 8205,546;  337,612;39460,608;20,11077
 608,54; 8181,594;  389,225;39519,710;19,91381
 609,12; 8082,391;  377,689;39488,530;19,69966
 609,70; 8111,711;  406,226;39536,322;19,69197
 610,27; 8108,222;  399,458;39596,436;19,66673
 610,85; 8053,232;  415,995;39673,996;19,45396
 611,43; 7937,795;  418,226;39607,677;19,18774
 612,01; 7909,227;  389,150;39405,678;19,27408
 612,59; 7812,163;  400,072;39457,428;18,97745
 613,16; 7769,598;  365,767;39440,885;18,94769
 613,74; 7716,111;  354,149;39277,032;18,91423
 614,32; 7618,747;  334,533;39289,863;18,69889
 614,90; 7601,652;  313,842;39167,606;18,75702
 615,48; 7444,498;  264,151;38815,633;18,62535
 616,05; 7402,467;  257,844;38842,752;18,51663
 616,63; 7332,974;  267,460;38596,795;18,43370
 617,21; 7281,597;  266,458;38494,004;18,35100
 617,79; 7240,897;  245,073;38478,384;18,29772
 618,36; 7198,859;  268,996;38341,157;18,20192
 618,94; 7010,736;  209,920;38066,448;17,96471
 619,52; 6991,942;  227,536;37750,342;18,02745
 620,10; 6911,362;  235,304;37721,155;17,80954
 620,67; 6852,387;  234,229;37593,632;17,71484
 621,25; 6798,031;  252,303;37527,175;17,56070
 621,83; 6801,591;  224,689;37484,189;17,65161
 622,41; 6736,496;  272,305;37410,324;17,40586
 622,98; 6680,927;  257,460;37138,325;17,41680
 623,56; 6663,248;  249,537;37196,221;17,35937
 624,14; 6563,129;  239,226;37025,315;17,19102
 624,72; 6516,707;  232,920;36893,535;17,14043
 625,29; 6457,199;  218,691;36946,057;16,98599
 625,87; 6455,146;  265,996;36963,556;16,86529
 626,45; 6360,271;  211,153;36814,243;16,79945
 627,02; 6321,346;  228,458;36763,334;16,67691
 627,60; 6242,213;  216,072;36601,251;16,56208
 628,18; 6237,699;  203,535;36778,453;16,49809
 628,76; 6228,675;  204,075;36703,843;16,50586
 629,33; 6206,088;  236,844;36620,875;16,40622
 629,91; 6153,439;  220,766;36669,155;16,27691
 630,49; 6160,650;  236,152;36885,051;16,16556
 631,06; 6152,509;  224,460;36968,332;16,13344
 631,64; 6116,788;  236,691;36931,222;16,02445
 632,22; 6014,568;  191,076;36867,998;15,87781
 632,79; 6062,366;  222,922;37220,911;15,78314
 633,37; 6044,207;  206,150;37185,197;15,78747
 633,95; 6008,743;  217,537;37305,676;15,61471
 634,52; 6028,891;  204,151;37411,449;15,65483
 635,10; 5980,268;  202,997;37377,906;15,54078
 635,68; 5972,270;  217,153;37630,353;15,38258
 636,25; 5915,103;  192,692;37673,295;15,26766
 636,83; 5897,136;  186,767;37842,843;15,16454
 637,41; 5895,524;  194,538;37809,837;15,15603
 637,98; 5915,334;  220,230;38059,492;15,05078
 638,56; 5887,454;  217,539;38136,337;14,95278
 639,13; 5840,457;  203,768;38190,123;14,83872
 639,71; 5903,018;  245,152;38394,802;14,83072
 640,29; 5736,179;  171,152;38119,221;14,66485
 640,86; 5770,003;  196,844;38359,500;14,60370
 641,44; 5731,981;  195,613;38410,933;14,48730
 642,02; 5719,882;  222,152;38363,981;14,41391
 642,59; 5640,784;  195,075;38474,337;14,22626
 643,17; 5649,839;  195,921;38457,694;14,25422
 643,74; 5653,817;  186,228;38548,281;14,25260
 644,32; 5611,180;  217,151;38467,021;14,10208
 644,89; 5550,312;  207,382;38420,839;13,98180
 645,47; 5554,059;  237,074;38521,349;13,88817
 646,05; 5512,807;  206,536;38420,705;13,88561
 646,62; 5465,785;  201,844;38402,907;13,77957
 647,20; 5457,917;  207,690;38607,956;13,67237
 647,77; 5371,895;  185,767;38427,004;13,56161
 648,35; 5338,104;  180,074;38225,745;13,55747
 648,92; 5331,544;  217,305;38309,794;13,42585
 649,50; 5264,829;  175,459;38234,996;13,37213
 650,08; 5239,346;  171,382;38187,660;13,33104
 650,65; 5234,555;  185,228;38396,554;13,21422
 651,23; 5282,149;  165,689;39107,910;13,13859
 651,80; 5382,896;  179,535;40033,113;13,05619
 652,38; 5425,951;  194,766;40427,469;13,00232
 652,95; 5420,698;  163,458;40771,671;12,94625
 653,53; 5414,754;  190,766;41022,181;12,79404
 654,10; 5469,193;  222,151;41124,076;12,82835
 654,68; 5396,556;  190,689;41047,509;12,74173
 655,25; 5377,688;  178,535;41136,634;12,69383
 655,83; 5381,436;  178,612;41312,836;12,64841
 656,40; 5346,798;  214,689;41245,731;12,50787
 656,98; 5302,546;  187,920;41228,395;12,46240
 657,55; 5256,832;  198,227;41059,136;12,38006
 658,13; 5187,271;  190,843;40647,338;12,35013
 658,70; 5118,711;  203,842;40417,156;12,22199
 659,28; 5008,920;  180,150;39642,127;12,23651
 659,85; 4874,437;  196,612;38796,945;12,11861
 660,43; 4834,338;  213,073;38870,763;11,95432
 661,00; 4867,778;  191,304;38975,734;12,05761
 661,58; 4847,448;  183,765;39279,783;11,92879
 662,15; 4836,657;  174,458;39463,600;11,86638
 662,73; 4933,327;  233,611;39757,803;11,89073
 663,30; 4837,152;  186,534;40068,005;11,66110
 663,88; 4853,207;  197,765;40163,822;11,64849
 664,45; 4809,954;  183,227;40366,179;11,51416
 665,03; 4836,163;  179,842;40832,381;11,45395
 665,60; 4909,834;  262,534;41160,429;11,36318
 666,17; 4830,889;  190,765;41403,401;11,25898
 666,75; 4852,944;  188,457;41655,988;11,24853
 667,32; 4843,461;  215,072;41977,806;11,08258
 667,90; 4892,131;  188,072;42194,085;11,19854
 668,47; 4877,032;  208,149;42570,672;11,02126
 669,05; 4868,010;  177,842;42819,951;10,99891
 669,62; 4867,296;  163,995;42916,692;11,00118
 670,19; 4843,582;  172,688;43051,971;10,89313
 670,77; 4841,791;  197,226;43265,865;10,78410
 671,34; 4813,385;  176,072;43150,683;10,79082
 671,92; 4815,671;  169,918;43589,347;10,69971
 672,49; 4812,495;  196,072;43523,934;10,65463
 673,06; 4754,242;  154,918;43520,828;10,60585
 673,64; 4769,067;  172,995;43528,338;10,60093
 674,21; 4754,660;  161,764;43487,695;10,60080
 674,79; 4752,792;  193,995;43788,589;10,45725
 675,36; 4782,847;  198,149;43863,792;10,49956
 675,93; 4727,672;  167,995;43710,686;10,47174
 676,51; 4711,188;  182,225;43909,581;10,35728
 677,08; 4697,166;  188,687;43958,937;10,30033
 677,65; 4698,991;  187,918;44171,370;10,25630
 678,23; 4690,661;  193,379;44278,957;10,20125
 678,80; 4670,409;  169,071;44424,159;10,17134
 679,38; 4666,464;  175,379;44556,515;10,11935
 679,95; 4663,365;  186,841;44784,871;10,03749
 680,52; 4682,266;  175,917;45115,997;10,02746
 681,10; 4707,167;  184,917;45545,814; 9,96949
 681,67; 4705,992;  197,533;45819,248; 9,88227
 682,24; 4705,124;  163,610;45886,604; 9,93267
 682,82; 4754,102;  175,456;46435,268; 9,89768
 683,39; 4802,157;  214,148;46738,778; 9,86146
 683,96; 4786,828;  178,071;47100,980; 9,82198
 684,54; 4788,267;  163,686;47315,721; 9,80781
 685,11; 4813,707;  216,994;47796,077; 9,66121
 685,68; 4812,070;  183,609;48151,202; 9,64914
 686,25; 4772,510;  174,763;48245,712; 9,56450
 686,83; 4812,718;  177,994;48409,837; 9,60926
 687,40; 4813,466;  164,301;48766,578; 9,56573
 687,97; 4821,983;  219,763;49137,011; 9,40817
 688,55; 4783,422;  163,455;49114,829; 9,43787
 689,12; 4821,939;  146,378;49392,031; 9,49436
 689,69; 4820,071;  160,686;49510,311; 9,44158
 690,26; 4795,895;  172,070;49682,590; 9,33908
 690,84; 4808,873;  175,763;49831,100; 9,33054
 691,41; 4830,082;  187,301;49880,764; 9,34284
 691,98; 4820,214;  189,147;50233,427; 9,25394
 692,56; 4796,269;  174,686;50284,168; 9,22297
 693,13; 4867,940;  221,916;50345,447; 9,26915
 693,70; 4837,457;  192,609;50475,650; 9,23740
 694,27; 4787,896;  169,455;50631,467; 9,15231
 694,84; 4808,028;  158,916;50728,747; 9,19345
 695,42; 4827,545;  216,993;50812,641; 9,11255
 695,99; 4787,138;  185,531;51125,920; 9,03332
 696,56; 4779,655;  176,762;50773,200; 9,09727
 697,13; 4790,633;  182,378;51275,863; 9,01926
 697,71; 4807,304;  161,454;51270,989; 9,08999
 698,28; 4786,743;  180,916;51717,114; 8,93707
 698,85; 4753,491;  145,531;51689,163; 8,93992
 699,42; 4809,854;  145,454;51791,519; 9,03147
 699,99; 4837,370;  188,070;51950,336; 8,98203
 700,57; 4796,425;  182,223;52047,000; 8,89660
 701,14; 4785,250;  172,377;52172,203; 8,87094
 701,71; 4815,228;  178,377;52392,328; 8,88048
 702,28; 4852,591;  171,531;52471,223; 8,95045
 702,85; 4791,492;  180,300;52403,502; 8,82978
 703,43; 4840,932;  181,531;52774,166; 8,85942
 704,00; 4863,602;  195,377;52887,214; 8,85948
 704,57; 4852,580;  175,992;52949,724; 8,86158
 705,14; 4886,174;  199,531;53182,080; 8,84564
 705,71; 4870,537;  203,838;53139,513; 8,81579
 706,28; 4837,976;  181,300;53165,946; 8,78873
 706,86; 4875,493;  208,300;53405,610; 8,77336
 707,43; 4880,010;  226,069;53336,813; 8,76271
 708,00; 4867,603;  204,223;53266,322; 8,78853
 708,57; 4843,274;  174,069;53150,063; 8,81381
 709,14; 4855,713;  200,761;53341,573; 8,75966
 709,71; 4847,076;  178,915;53489,083; 8,75661
 710,28; 4886,824;  180,530;53723,670; 8,78972
 710,86; 4871,494;  200,761;53711,411; 8,72860
 711,43; 4903,472;  210,376;53873,382; 8,74550
 712,00; 4851,527;  186,761;53907,046; 8,68344
 712,57; 4882,736;  201,453;54009,095; 8,70003
 713,14; 4870,945;  179,145;54185,989; 8,68742
 713,71; 4884,847;  187,222;54008,807; 8,72814
 714,28; 4882,286;  194,761;54082,702; 8,69865
 714,85; 4858,649;  178,991;53894,596; 8,71191
 715,42; 4831,243;  184,376;54027,183; 8,63043
 716,00; 4937,682;  250,530;54201,078; 8,68787
 716,57; 4872,891;  193,068;54324,126; 8,64536
 717,14; 4853,792;  177,376;54273,252; 8,64468
 717,71; 4894,771;  172,760;54275,531; 8,72785
 718,28; 4900,364;  216,145;54345,887; 8,65369
 718,85; 4887,342;  167,145;54372,089; 8,70806
 719,42; 4910,859;  204,299;54609,215; 8,65098
 719,99; 4854,760;  174,529;54345,725; 8,63970
 720,56; 4874,969;  191,991;54672,158; 8,59575
 721,13; 4878,255;  176,529;54740,206; 8,61695
 721,70; 4880,849;  170,068;54607,101; 8,65363
 722,27; 4889,135;  196,837;54661,380; 8,61533
 722,84; 4941,113;  237,991;54881,121; 8,60698
 723,41; 4862,014;  167,683;54741,631; 8,60178
 723,98; 4929,454;  182,837;54994,064; 8,65994
 724,55; 4954,586;  214,990;55060,805; 8,64167
 725,12; 4899,025;  154,221;55026,776; 8,64695
 725,69; 4961,773;  180,298;55180,286; 8,69359
 726,27; 4984,751;  187,375;55261,719; 8,71073
 726,84; 4996,575;  198,836;55627,383; 8,65572
 727,41; 5012,477;  208,606;55544,816; 8,68124
 727,98; 5023,685;  207,452;55875,941; 8,65163
 728,55; 5070,741;  216,836;55755,144; 8,73974
 729,12; 5071,180;  167,605;55813,961; 8,81203
 729,69; 5090,928;  210,221;55962,779; 8,75423
 730,26; 5067,214;  198,682;56213,443; 8,69152
 730,82; 5085,192;  184,913;56095,030; 8,76457
 731,39; 5116,555;  194,374;56137,617; 8,79852
 731,96; 5149,456;  169,990;56522,127; 8,83634
 732,53; 5151,665;  190,067;56737,329; 8,77425
 733,10; 5207,258;  203,451;56801,224; 8,84100
 733,67; 5246,467;  205,605;57072,887; 8,86426
 734,24; 5178,138;  182,605;56736,474; 8,83323
 734,81; 5234,424;  200,066;56852,754; 8,88635
 735,38; 5220,094;  191,759;56642,571; 8,90746
 735,95; 5199,841;  189,143;56516,774; 8,89563
 736,52; 5221,358;  206,759;56567,668; 8,89730
 737,09; 5201,182;  214,066;56263,563; 8,89770
 737,66; 5278,007;  226,989;56505,457; 8,97504
 738,23; 5218,908;  181,758;56571,890; 8,93268
 738,80; 5323,579;  234,066;56727,016; 9,00911
 739,37; 5277,326;  220,451;57013,449; 8,90405
 739,94; 5342,689;  191,220;57087,190; 9,05419
 740,51; 5430,205;  288,989;57217,315; 9,03103
 741,07; 5344,107;  188,758;57010,210; 9,07289
 741,64; 5393,623;  210,681;57304,643; 9,07792
 742,21; 5381,448;  198,297;57378,922; 9,06452
 742,78; 5378,733;  164,296;57089,278; 9,16019
 743,35; 5395,096;  185,450;57470,019; 9,09433
 743,92; 5458,151;  221,066;57462,221; 9,14916
 744,49; 5486,668;  212,681;57394,193; 9,22324
 745,06; 5435,261;  186,066;57407,318; 9,17351
 745,63; 5445,547;  177,065;57428,136; 9,20242
 746,19; 5510,987;  182,835;57418,646; 9,30912
 746,76; 5476,350;  194,527;57385,156; 9,23547
 747,33; 5536,636;  186,911;57375,512; 9,35453
 747,90; 5547,614;  204,142;57591,022; 9,31131
 748,47; 5541,438;  197,758;57503,916; 9,32479
 749,04; 5551,493;  204,219;57567,426; 9,32178
 749,61; 5642,318;  221,065;57412,859; 9,47907
 750,17; 5656,680;  219,527;57580,831; 9,47878
 750,74; 5673,812;  207,603;57433,418; 9,55200
 751,31; 5608,560;  187,680;57384,928; 9,47752
 751,88; 5649,230;  175,757;57254,515; 9,58933
 752,45; 5690,978;  188,526;57389,794; 9,61946
 753,02; 5717,571;  213,680;57212,150; 9,65621
 753,58; 5699,319;  180,449;57085,352; 9,69841
 754,15; 5733,528;  184,834;57280,478; 9,71824
 754,72; 5711,121;  183,295;57070,449; 9,71718
 755,29; 5708,099;  181,834;56891,421; 9,74485
 755,86; 5752,231;  199,065;57059,239; 9,76636
 756,42; 5827,671;  211,065;56937,902; 9,90115
 756,99; 5741,726;  182,680;56933,489; 9,79554
 757,56; 5794,627;  193,372;56864,153; 9,88385
 758,13; 5767,298;  162,141;56730,279; 9,90868
 758,70; 5851,968;  184,910;56782,635;10,01287
 759,26; 5855,562;  190,295;56940,606; 9,98279
 759,83; 5883,463;  201,064;57008,116;10,00298
 760,40; 5922,441;  190,372;56726,626;10,13875
 760,97; 5927,112;  177,218;56920,059;10,13325
 761,53; 5914,167;  164,526;56539,339;10,19895
 762,10; 5936,068;  164,756;56492,925;10,24587
 762,67; 5961,277;  203,295;56444,128;10,23808
 763,24; 5927,025;  157,525;55971,945;10,33693
 763,80; 5964,849;  185,833;56198,609;10,31732
 764,37; 5977,519;  179,448;56055,427;10,37668
 764,94; 5903,421;  168,602;55661,322;10,33436
 765,50; 5949,168;  165,371;55636,601;10,42666
 766,07; 6016,300;  203,141;55684,341;10,47771
 766,64; 5983,586;  167,371;55326,159;10,54449
 767,21; 5986,026;  173,756;55232,054;10,55657
 767,77; 6053,158;  190,602;55148,564;10,66735
 768,34; 5995,597;  196,525;55235,689;10,53627
 768,91; 6040,729;  196,371;54968,815;10,67025
 769,47; 6063,708;  188,833;55026,940;10,71313
 770,04; 6072,224;  191,833;54845,911;10,75929
 770,61; 6037,818;  181,217;54715,498;10,73930
 771,18; 6068,488;  170,832;54589,008;10,83766
 771,74; 6151,851;  190,294;54655,364;10,94565
 772,31; 6125,598;  176,140;54451,028;10,96171
 772,88; 6105,192;  169,448;54240,846;10,97760
 773,44; 6133,247;  166,448;54021,971;11,07927
 774,01; 6158,918;  193,909;54134,943;11,05839
 774,58; 6120,203;  177,140;53742,914;11,09489
 775,14; 6197,105;  172,217;53925,271;11,20846
 775,71; 6193,237;  174,678;53789,319;11,22559
 776,27; 6265,215;  218,293;53678,829;11,31100
 776,84; 6335,501;  245,063;53766,262;11,37949
 777,41; 6249,710;  190,447;53549,849;11,35557
 777,97; 6247,226;  181,986;53314,897;11,41522
 778,54; 6286,358;  194,601;53366,869;11,45664
 779,11; 6358,567;  212,139;53356,456;11,56554
 779,67; 6329,315;  169,601;53295,504;11,59456
 780,24; 6353,524;  193,909;53023,937;11,65931
 780,80; 6401,502;  214,370;53013,678;11,71821
 781,37; 6400,403;  205,216;52987,188;11,73732
 781,94; 6391,227;  191,755;52730,160;11,79989
 782,50; 6464,129;  198,216;52704,439;11,93366
 783,07; 6463,876;  213,139;52829,641;11,87980
 783,63; 6451,470;  181,985;52499,151;11,98361
 784,20; 6511,756;  207,985;52386,507;12,08116
 784,77; 6500,888;  194,600;52324,094;12,09735
 785,33; 6518,789;  168,447;52102,527;12,22770
 785,90; 6542,305;  197,985;52037,730;12,23833
 786,46; 6575,822;  214,677;51925,317;12,30142
 787,03; 6522,185;  183,831;51839,903;12,27030
 787,59; 6582,009;  198,369;51767,260;12,37886
 788,16; 6620,834;  197,369;51654,000;12,48326
 788,73; 6624,504;  200,985;51537,049;12,51268
 789,29; 6591,174;  190,062;51084,559;12,57722
 789,86; 6662,999;  209,138;50995,453;12,70787
 790,42; 6635,208;  204,446;50920,810;12,67986
 790,99; 6603,494;  207,369;50563,320;12,70182
 791,55; 6634,626;  191,369;50593,906;12,78360
 792,12; 6678,219;  216,984;50541,878;12,83904
 792,68; 6644,736;  202,830;50166,311;12,89323
 793,25; 6695,329;  212,984;49944,744;13,03462
 793,81; 6696,923;  253,138;49621,331;13,05250
 794,38; 6628,055;  168,907;49381,379;13,12502
 794,94; 6628,110;  196,446;49312,505;13,09483
 795,51; 6661,319;  214,369;48964,938;13,22436
 796,07; 6622,759;  203,599;48756,525;13,22095
 796,64; 6706,352;  218,984;48868,958;13,33478
 797,20; 6738,715;  209,445;48385,929;13,55281
 797,77; 6645,078;  184,138;47988,362;13,51542
 798,33; 6714,364;  199,368;47845,103;13,67383
 798,90; 6712,496;  223,291;47800,613;13,63928
 799,46; 6658,397;  208,907;47259,662;13,70752
 800,03; 6718,298;  208,214;47214,864;13,84928
 800,59; 6730,123;  222,368;46957,528;13,92475
 801,15; 6718,255;  221,753;46844,884;13,93407
 801,72; 6714,694;  226,137;46459,779;14,03428
 802,28; 6731,442;  238,830;46156,519;14,13968
 802,85; 6697,881;  206,830;46055,722;14,15749
 803,41; 6703,552;  209,906;45829,924;14,23420
 803,98; 6665,222;  211,599;45325,588;14,30515
 804,54; 6654,816;  212,676;45133,252;14,34118
 805,11; 6700,948;  212,522;44999,915;14,48717
 805,67; 6705,695;  238,675;44844,349;14,49820
 806,23; 6618,674;  215,522;44381,705;14,49786
 806,80; 6644,729;  222,829;44288,522;14,57347
 807,36; 6702,553;  232,060;44206,417;14,71424
 807,93; 6694,531;  239,829;43938,081;14,77108
 808,49; 6632,740;  203,598;43598,206;14,81553
 809,05; 6637,872;  191,906;43368,870;14,92918
 809,62; 6657,696;  230,290;43348,765;14,90639
 810,18; 6667,444;  222,983;43249,582;14,97785
 810,74; 6661,653;  190,983;42947,400;15,13380
 811,31; 6620,093;  193,829;42808,679;15,07987
 811,87; 6664,148;  207,521;42600,343;15,23047
 812,44; 6737,433;  240,983;42570,776;15,34723
 813,00; 6682,258;  166,752;42252,363;15,48155
 813,56; 6692,698;  218,829;42345,258;15,36771
 814,13; 6722,676;  222,367;42177,383;15,49352
 814,69; 6721,808;  211,367;41986,508;15,58449
 815,25; 6701,247;  188,752;41599,403;15,72662
 815,82; 6756,379;  233,751;41614,374;15,76252
 816,38; 6805,050;  246,751;41365,884;15,94951
 816,94; 6743,951;  203,059;41060,010;16,00925
 817,51; 6749,391;  186,444;40868,904;16,13213
 818,07; 6708,831;  205,367;40651,953;16,07914
 818,63; 6718,578;  221,751;40447,309;16,15099
 819,20; 6755,018;  217,982;40328,973;16,29737
 819,76; 6702,611;  202,443;39945,175;16,35561
 820,32; 6721,205;  247,520;39857,147;16,34372
 820,89; 6685,260;  234,905;39659,349;16,36131
 821,45; 6712,315;  198,597;39336,397;16,64304
 822,01; 6697,293;  222,751;39097,369;16,65493
 822,57; 6732,579;  229,366;38904,802;16,81484
 823,14; 6665,865;  186,905;38724,389;16,81210
 823,70; 6653,305;  203,828;38463,899;16,85694
 824,26; 6652,744;  201,135;38282,870;16,94148
 824,82; 6710,184;  231,981;38128,227;17,09458
 825,39; 6660,932;  208,751;37809,737;17,15961
 825,95; 6728,294;  231,135;37881,400;17,25661
 826,51; 6687,965;  226,135;37413,680;17,37633
 827,08; 6756,789;  255,058;37546,267;17,43502
 827,64; 6752,460;  234,520;37333,623;17,56900
 828,20; 6749,669;  203,827;37073,825;17,75384
 828,76; 6765,570;  231,981;37046,643;17,74725
 829,32; 6770,779;  237,366;36879,691;17,83024
 829,89; 6738,065;  193,135;36702,663;17,92663
 830,45; 6801,966;  215,058;36642,942;18,08205
 831,01; 6784,406;  217,904;36452,144;18,12237
 831,57; 6762,999;  225,365;36346,731;18,09908
 832,14; 6827,516;  210,904;36376,472;18,29534
 832,70; 6815,186;  200,058;36099,982;18,42658
 833,26; 6783,626;  185,519;36024,953;18,41019
 833,82; 6816,835;  211,673;35978,079;18,46750
 834,38; 6864,659;  201,519;35897,973;18,66611
 834,95; 6891,945;  193,980;35778,560;18,82266
 835,51; 6822,539;  172,596;35642,301;18,74823
 836,07; 6951,517;  216,134;35712,503;18,97485
 836,63; 6944,649;  232,826;35781,552;18,88063
 837,19; 6898,242;  209,057;35477,446;18,96652
 837,75; 6886,067;  174,596;35236,187;19,14195
 838,32; 6959,276;  225,826;35364,389;19,16256
 838,88; 6969,869;  220,442;35382,053;19,19544
 839,44; 6992,463;  209,519;35322,794;19,31732
 840,00; 6999,133;  204,749;35187,689;19,42199
 840,56; 6965,804;  189,057;34877,737;19,53590
 841,12; 6993,243;  196,749;34811,632;19,63460
 841,68; 6980,837;  183,749;34663,603;19,71322
 842,25; 7034,200;  201,749;34793,267;19,75181
 842,81; 6984,409;  196,441;34370,546;19,86290
 843,37; 7016,772;  186,980;34470,826;19,92131
 843,93; 7036,750;  201,749;34398,720;19,98715
 844,49; 7070,497;  216,133;34443,230;20,02613
 845,05; 7035,168;  180,287;34171,202;20,16680
 845,61; 7172,146;  226,595;34274,019;20,39964
 846,17; 7096,124;  202,903;34148,299;20,30679
 846,73; 7167,564;  213,749;34074,962;20,53622
 847,29; 7104,619;  186,595;33753,472;20,60967
 847,86; 7163,597;  193,979;33848,521;20,70929
 848,42; 7204,037;  190,902;33540,800;21,02895
 848,98; 7209,323;  203,902;33503,695;21,03743
 849,54; 7232,993;  206,133;33561,359;21,06674
 850,10; 7210,510;  208,595;33397,868;21,09692
 850,66; 7226,180;  191,287;33204,994;21,30901
 851,22; 7259,389;  192,441;33273,965;21,36222
 851,78; 7317,598;  234,441;33214,706;21,47696
 852,34; 7327,730;  222,133;32956,293;21,70698
 852,90; 7329,862;  211,056;32944,188;21,74801
 853,46; 7271,379;  191,517;32622,390;21,83062
 854,02; 7282,511;  213,286;32732,823;21,73839
 854,58; 7282,643;  196,979;32437,948;21,97721
 855,14; 7298,390;  195,517;32381,305;22,06835
 855,70; 7265,522;  161,825;32202,507;22,17087
 856,26; 7318,039;  211,055;32132,709;22,26383
 856,82; 7285,632;  196,902;31943,450;22,32914
 857,38; 7338,303;  228,517;31904,806;22,44514
 857,94; 7281,050;  202,209;31825,701;22,38475
 858,50; 7297,490;  215,671;31719,903;22,47895
 859,06; 7287,699;  194,978;31564,105;22,61051
 859,62; 7344,754;  211,671;31461,308;22,82613
 860,18; 7313,963;  199,517;31234,971;22,92361
 860,74; 7312,249;  174,209;31134,558;23,05542
 861,30; 7289,458;  185,901;30921,838;23,11157
 861,86; 7338,974;  235,517;30921,040;23,14922
 862,42; 7278,568;  199,824;30755,242;23,16690
 862,98; 7361,931;  231,978;30739,598;23,37106
 863,54; 7312,140;  205,055;30572,570;23,40358
 864,10; 7327,349;  202,286;30565,695;23,46595
 864,66; 7296,634;  190,978;30311,205;23,59098
 865,22; 7317,151;  198,285;30183,946;23,74090
 865,78; 7357,283;  208,439;30096,302;23,91889
 866,34; 7352,184;  198,208;29955,427;24,04114
 866,90; 7344,240;  220,208;29864,322;24,03186
 867,45; 7322,525;  209,208;29665,909;24,14838
 868,01; 7334,580;  213,747;29548,650;24,27427
 868,57; 7323,789;  190,362;29359,237;24,45561
 869,13; 7304,306;  184,131;29243,977;24,50176
 869,69; 7336,823;  195,747;29100,410;24,70562
 870,25; 7315,416;  183,131;28971,536;24,77485
 870,81; 7338,625;  194,593;28962,200;24,83360
 871,37; 7344,526;  214,439;28801,479;24,94168
 871,93; 7386,735;  220,669;28665,758;25,19263
 872,49; 7372,944;  223,362;28491,345;25,29216
 873,04; 7299,076;  198,439;28222,086;25,33802
 873,60; 7261,285;  182,977;28131,365;25,32636
 874,16; 7322,879;  212,592;28031,337;25,55934
 874,72; 7298,033;  202,669;27894,567;25,62252
 875,28; 7314,802;  209,285;27946,260;25,61749
 875,84; 7314,571;  206,592;27892,798;25,67336
 876,40; 7312,033;  196,131;27799,106;25,77947
 876,95; 7348,725;  213,746;27745,952;25,91503
 877,51; 7409,648;  230,746;27755,260;26,08185
 878,07; 7485,187;  249,977;27778,490;26,28260
 878,63; 7451,571;  199,054;27740,875;26,33274
 879,19; 7547,417;  224,977;27715,644;26,63610
 879,75; 7534,340;  196,900;27768,875;26,61195
 880,30; 7556,417;  193,208;27740,798;26,72905
 880,86; 7644,494;  237,669;27948,798;26,72870
 881,42; 7646,110;  190,746;27995,952;26,81283
 881,98; 7744,110;  221,823;28080,260;27,00183
 882,54; 7787,494;  194,746;28214,952;27,09740
 883,09; 7858,340;  217,669;28222,567;27,28334
 883,65; 7887,571;  197,438;28296,183;27,36824
 884,21; 8039,956;  235,362;28611,952;27,50364
 884,77; 7984,648;  204,900;28568,413;27,42872
 885,32; 8057,340;  208,592;28737,260;27,51179
 885,88; 8201,494;  235,515;28818,260;27,86989
 886,44; 8225,340;  213,362;29018,029;27,81486
 887,00; 8243,494;  229,131;29005,260;27,85074
 887,56; 8280,110;  204,285;29124,721;27,92428
 888,11; 8358,648;  208,900;29123,260;28,18582
 888,67; 8358,187;  245,592;29285,106;27,93640
 889,23; 8392,263;  215,977;29233,337;28,17722
 889,79; 8387,417;  194,131;29203,490;28,24360
 890,34; 8423,802;  214,285;29125,337;28,39578
 890,90; 8535,494;  267,285;29395,490;28,38558
 891,46; 8483,494;  199,438;29217,721;28,54771
 892,01; 8505,340;  236,900;29188,952;28,55908
 892,57; 8559,033;  236,285;29105,260;28,82939
 893,13; 8499,110;  203,746;28905,721;28,90172
 893,69; 8511,494;  206,438;28872,106;28,97213
 894,24; 8499,263;  211,362;28718,183;29,07340
 894,80; 8547,802;  217,362;28590,875;29,35992
 895,36; 8552,417;  215,977;28459,029;29,51678
 895,91; 8482,725;  215,438;28251,567;29,48797
 896,47; 8527,879;  237,515;28129,413;29,72320
 897,03; 8468,648;  203,977;27957,490;29,77883
 897,58; 8462,571;  225,900;27905,644;29,75703
 898,14; 8513,725;  223,669;27669,337;30,20534
 898,70; 8432,417;  191,208;27466,490;30,21494
 899,25; 8479,110;  218,362;27531,029;30,24512
 899,81; 8461,263;  236,900;27286,875;30,40433
 900,37; 8387,187;  181,515;27045,490;30,54526
 900,92; 8432,263;  218,900;27003,029;30,66504
 901,48; 8415,110;  198,592;26994,875;30,66290
 902,03; 8392,648;  204,746;26775,567;30,81539
 902,59; 8373,340;  211,131;26706,798;30,80583
 903,15; 8400,648;  237,592;26565,952;31,00480
 903,70; 8343,494;  213,131;26298,029;31,16885
 904,26; 8342,033;  201,515;26190,029;31,32352
 904,82; 8376,956;  214,669;26156,337;31,46400
 905,37; 8314,879;  222,131;26028,567;31,35942
 905,93; 8295,110;  205,362;25822,644;31,57926
 906,48; 8309,033;  215,977;25838,567;31,58563
 907,04; 8342,417;  232,054;25749,260;31,78390
 907,60; 8317,879;  208,592;25580,875;31,96120
 908,15; 8257,802;  199,131;25376,567;32,00751
 908,71; 8297,494;  231,054;25396,029;32,05424
 909,26; 8237,802;  207,823;25226,721;32,09565
 909,82; 8260,187;  224,900;25071,106;32,34009
 910,37; 8301,263;  259,515;25026,337;32,46984
 910,93; 8187,648;  203,054;24826,490;32,42681
 911,48; 8175,648;  201,515;24648,413;32,61818
 912,04; 8202,494;  197,515;24614,875;32,78397
 912,60; 8235,571;  222,592;24608,337;32,85928
 913,15; 8212,417;  223,746;24384,413;33,06478
 913,71; 8151,417;  216,285;24195,337;33,09194
 914,26; 8131,187;  195,977;24064,798;33,24508
 914,82; 8140,187;  212,054;23967,875;33,37343
 915,37; 8125,725;  205,592;23966,721;33,33231
 915,93; 8211,033;  258,208;23832,721;33,73484
 916,48; 8151,648;  205,592;23705,952;33,81249
 917,04; 8140,802;  231,823;23544,337;33,92590
 917,59; 8193,725;  238,515;23475,721;34,23479
 918,15; 8112,648;  184,746;23311,029;34,28092
 918,70; 8131,802;  214,054;23211,875;34,42825
 919,26; 8132,648;  212,977;23183,875;34,47698
 919,81; 8110,494;  199,208;22977,413;34,73182
 920,37; 8101,263;  206,823;22853,952;34,85846
 920,92; 8145,263;  225,900;22825,798;35,04159
 921,48; 8059,340;  190,900;22624,721;35,07401
 922,03; 8057,956;  198,362;22584,490;35,10922
 922,59; 8064,571;  203,669;22434,567;35,36025
 923,14; 8007,417;  203,208;22254,490;35,39118
 923,69; 8002,110;  237,208;22258,490;35,26090
 924,25; 7999,571;  231,823;22196,490;35,36474
 924,80; 7922,263;  211,823;21988,260;35,40726
 925,36; 7948,494;  198,362;21896,567;35,71785
 925,91; 7874,802;  213,054;21771,029;35,54020
 926,47; 7878,571;  200,438;21696,106;35,71944
 927,02; 7872,110;  253,977;21614,337;35,66481
 927,57; 7833,110;  218,823;21509,183;35,76401
 928,13; 7843,571;  207,746;21357,875;36,10297
 928,68; 7806,263;  213,362;21359,875;35,90616
 929,24; 7767,725;  187,131;21070,029;36,30049
 929,79; 7728,417;  203,669;21006,952;36,17096
 930,34; 7747,802;  215,592;20851,490;36,50052
 930,90; 7705,648;  207,131;20847,798;36,32885
 931,45; 7740,340;  214,131;20843,490;36,48300
 932,01; 7735,417;  229,515;20694,183;36,67737
 932,56; 7695,956;  238,438;20547,721;36,71975
 933,11; 7721,417;  244,592;20476,798;36,95507
 933,67; 7621,956;  211,208;20294,183;36,90065
 934,22; 7656,725;  209,208;20273,106;37,11899
 934,77; 7620,110;  233,438;20123,798;37,13694
 935,33; 7615,340;  217,823;20039,875;37,31963
 935,88; 7577,110;  228,054;19944,260;37,27419
 936,43; 7580,110;  210,438;19825,106;37,57225
 936,99; 7536,571;  216,131;19786,183;37,40634
 937,54; 7476,879;  196,977;19597,875;37,52353
 938,09; 7559,879;  221,977;19586,183;37,89415
 938,65; 7511,263;  231,054;19423,183;37,93331
 939,20; 7515,033;  198,362;19304,644;38,29458
 939,75; 7517,571;  197,285;19205,029;38,51213
 940,31; 7487,494;  201,131;19061,413;38,63337
 940,86; 7514,033;  219,669;19111,644;38,61091
 941,41; 7525,725;  273,823;19012,337;38,70052
 941,96; 7473,956;  209,438;18860,106;38,95044
 942,52; 7525,879;  217,746;18744,952;39,44541
 943,07; 7450,417;  195,669;18638,644;39,33611
 943,62; 7459,956;  206,900;18532,029;39,57984
 944,18; 7469,802;  189,900;18484,183;39,79332
 944,73; 7493,263;  206,362;18377,106;40,10239
 945,28; 7376,494;  177,515;18157,106;40,03973
 945,83; 7444,110;  207,515;18180,106;40,26461
 946,39; 7401,417;  207,208;18103,644;40,19912
 946,94; 7448,725;  232,208;18063,413;40,47128
 947,49; 7351,879;  200,900;17941,490;40,30857
 948,04; 7384,725;  234,977;17890,490;40,49584
 948,59; 7374,033;  231,592;17853,260;40,53215
 949,15; 7351,263;  198,131;17732,413;40,79513
 949,70; 7392,725;  195,362;17628,952;41,28446
 950,25; 7364,725;  217,362;17560,413;41,21168
 950,80; 7316,725;  173,823;17422,644;41,41096
 951,36; 7302,187;  173,823;17359,183;41,47928
 951,91; 7365,879;  225,746;17327,875;41,74996
 952,46; 7281,187;  195,285;17151,106;41,79038
 953,01; 7339,187;  218,669;17183,260;41,97282
 953,56; 7257,263;  200,823;17027,106;41,93701
 954,11; 7267,725;  224,438;16970,337;42,05977
 954,67; 7238,494;  206,362;16925,721;42,05982
 955,22; 7258,110;  191,362;16792,875;42,56689
 955,77; 7256,340;  230,823;16717,721;42,61273
 956,32; 7286,110;  255,515;16593,337;43,03263
 956,87; 7167,494;  201,592;16475,644;42,80373
 957,42; 7145,802;  208,285;16469,490;42,66299
 957,98; 7147,263;  204,054;16331,567;43,05195
 958,53; 7179,110;  224,669;16315,106;43,22096
 959,08; 7112,571;  196,669;16148,106;43,35598
 959,63; 7089,802;  208,131;16079,183;43,35989
 960,18; 7117,340;  217,285;16020,183;43,66323
 960,73; 7069,033;  214,285;15973,337;43,49721
 961,28; 7004,956;  190,285;15852,106;43,51136
 961,83; 7060,494;  225,438;15834,106;43,79013
 962,39; 7028,263;  192,515;15666,337;44,17621
 962,94; 6975,648;  217,362;15576,337;44,00220
 963,49; 6892,879;  209,515;15429,106;43,91290
 964,04; 6895,802;  224,054;15424,644;43,89137
 964,59; 6877,725;  187,438;15327,952;44,18798
 965,14; 6953,956;  227,285;15264,183;44,73443
 965,69; 6876,956;  217,054;15197,183;44,45824
 966,24; 6800,110;  199,285;15073,952;44,37629
 966,79; 6756,571;  221,208;14977,644;44,28822
 967,34; 6736,417;  185,438;14850,952;44,66928
 967,89; 6750,494;  187,592;14833,952;44,80910
 968,44; 6723,187;  218,669;14708,644;44,88978
 968,99; 6765,879;  214,362;14658,260;45,35837
 969,55; 6716,110;  215,746;14575,413;45,26820
 970,10; 6667,494;  214,823;14487,721;45,20926
 970,65; 6663,494;  218,592;14401,260;45,44210
 971,20; 6625,417;  198,977;14237,490;45,77721
 971,75; 6522,725;  190,362;14092,644;45,54909
 972,30; 6582,879;  211,669;14052,721;46,03125
 972,85; 6568,956;  188,823;13959,798;46,33029
 973,40; 6522,725;  199,208;13830,721;46,38896
 973,95; 6523,802;  213,208;13790,029;46,48065
 974,50; 6496,340;  227,438;13743,875;46,37984
 975,05; 6486,571;  207,054;13596,644;46,89850
 975,60; 6487,187;  226,054;13553,721;46,97846
 976,15; 6438,187;  203,054;13518,875;46,82500
 976,70; 6457,802;  227,746;13395,875;47,31163
 977,25; 6444,340;  221,746;13325,644;47,48659
 977,80; 6395,187;  198,208;13137,875;47,89133
 978,35; 6331,033;  218,900;13099,337;47,45284
 978,89; 6341,110;  192,977;12973,875;48,10407
 979,44; 6314,879;  208,515;12963,260;47,87523
 979,99; 6225,956;  201,669;12699,490;48,20269
 980,54; 6242,802;  242,977;12649,106;48,36178
 981,09; 6227,494;  221,515;12634,490;48,38468
 981,64; 6167,340;  222,746;12474,644;48,51978
 982,19; 6217,725;  251,669;12398,875;49,11463
 982,74; 6131,187;  227,438;12283,875;48,96760
 983,29; 6081,956;  207,054;12128,952;49,27824
 983,84; 6053,263;  221,054;12035,644;49,36447
 984,39; 6081,110;  266,592;12028,490;49,43520
 984,94; 6021,110;  188,900;11850,106;50,01378
 985,49; 6067,725;  232,669;11772,952;50,56250
 986,03; 5955,110;  234,131;11732,337;49,75540
 986,58; 5948,340;  250,900;11542,798;50,45600
 987,13; 5897,725;  218,746;11436,337;50,62566
 987,68; 5873,879;  237,900;11319,337;50,85964
 988,23; 5888,802;  229,131;11326,337;51,00087
 988,78; 5776,494;  211,592;11094,567;51,13401
 989,33; 5768,110;  234,285;11014,798;51,33174
 989,88; 5765,956;  247,900;10998,183;51,32940
 990,42; 5687,879;  212,823;10821,875;51,60740
 990,97; 5611,879;  206,592;10711,413;51,45529
 991,52; 5629,879;  241,977;10690,260;51,56734
 992,07; 5601,879;  240,592;10568,413;51,91111
 992,62; 5534,187;  222,746;10467,337;51,84629
 993,17; 5467,110;  239,285;10346,567;51,72335
 993,71; 5450,187;  229,977;10217,106;52,26937
 994,26; 5404,340;  208,362;10090,029;52,58201
 994,81; 5404,494;  248,823;10088,567;52,39639
 995,36; 5283,725;  207,977; 9906,567;52,33491
 995,91; 5260,340;  221,823; 9849,644;52,33289
 996,45; 5234,571;  221,592; 9761,029;52,55005
 997,00; 5193,340;  196,746; 9621,875;53,01354
 997,55; 5174,187;  225,900; 9569,875;52,95698
 998,10; 5138,648;  250,131; 9448,567;53,14509
 998,65; 5091,263;  215,054; 9386,490;53,16735
 999,19; 5028,956;  236,208; 9250,106;53,17065
 999,74; 4988,340;  254,362; 9150,337;53,21484
1000,29; 4968,187;  231,285; 9101,337;53,40332
1000,84; 4901,417;  219,746; 8956,490;53,58599
1001,38; 4888,263;  224,054; 8857,413;54,02543
1001,93; 4853,494;  236,438; 8790,413;53,97556
1002,48; 4776,802;  209,208; 8639,260;54,18228
1003,03; 4751,033;  239,054; 8581,644;54,08367
1003,57; 4742,725;  233,285; 8459,106;54,82055
1004,12; 4703,263;  256,362; 8424,029;54,44519
1004,67; 4680,956;  213,669; 8306,798;55,19851
1005,22; 4638,648;  217,438; 8128,567;55,88595
1005,76; 4544,340;  208,285; 8041,413;55,35535
1006,31; 4538,802;  238,054; 8020,952;55,25895
1006,86; 4520,187;  216,592; 7854,721;56,34357
1007,40; 4413,110;  207,362; 7722,183;55,96604
1007,95; 4397,110;  226,823; 7679,875;55,95408
1008,50; 4365,802;  229,208; 7576,260;56,30278
1009,04; 4317,187;  223,515; 7426,952;56,82942
1009,59; 4225,725;  230,362; 7305,260;56,47238
1010,14; 4207,494;  216,515; 7213,798;57,03612
1010,68; 4148,263;  222,592; 7073,029;57,30542
1011,23; 4114,802;  223,054; 6976,337;57,62750
1011,78; 4060,494;  226,362; 6949,567;57,02834
1012,32; 4025,263;  234,208; 6817,106;57,58946
1012,87; 4028,494;  244,592; 6759,875;58,07733
1013,42; 3952,110;  217,054; 6651,798;58,04513
1013,96; 3957,187;  248,054; 6665,644;57,79635
1014,51; 3883,571;  187,438; 6541,644;58,16829
1015,06; 3899,110;  190,823; 6563,413;58,19120
1015,60; 3976,802;  268,977; 6603,875;58,53014
1016,15; 3922,802;  217,131; 6581,029;58,22958
1016,69; 3946,725;  219,362; 6592,183;58,48844
1017,24; 3972,725;  203,515; 6614,952;58,78885
1017,79; 4012,494;  242,362; 6666,260;58,68917
1018,33; 3970,340;  218,669; 6645,952;58,37103
1018,88; 4047,725;  224,515; 6727,644;58,79031
1019,42; 4064,494;  219,669; 6695,029;59,37624
1019,97; 4038,648;  216,131; 6701,798;58,93792
1020,51; 4113,802;  232,438; 6727,798;59,75594
1021,06; 4065,648;  198,900; 6726,721;59,23490
1021,61; 4086,340;  191,669; 6679,337;60,03192
1022,15; 4009,571;  171,131; 6656,260;59,18834
1022,70; 4042,340;  215,977; 6651,106;59,46056
1023,24; 4038,802;  211,131; 6634,260;59,59200
1023,79; 4007,956;  225,977; 6554,644;59,75948
1024,33; 3972,110;  204,977; 6513,875;59,71142
1024,88; 3946,033;  223,362; 6409,490;60,17772
1025,42; 3903,648;  228,515; 6312,798;60,40371
1025,97; 3831,648;  210,746; 6220,798;60,24743
1026,51; 3772,494;  183,746; 6119,721;60,45760
1027,06; 3735,033;  211,592; 6090,644;59,93212
1027,60; 3676,263;  217,669; 5963,106;60,19724
1028,15; 3632,494;  215,977; 5864,260;60,48772
1028,69; 3543,956;  182,823; 5754,875;60,32127
1029,24; 3519,956;  192,054; 5702,260;60,39524
1029,78; 3452,033;  197,669; 5573,337;60,53878
1030,33; 3391,340;  186,669; 5471,413;60,64004
1030,87; 3383,340;  206,669; 5435,260;60,75579
1031,42; 3330,340;  196,208; 5321,952;61,14493
1031,96; 3315,879;  210,977; 5266,721;61,41335
1032,51; 3249,494;  196,515; 5181,029;61,24928
1033,05; 3263,802;  223,823; 5123,183;62,04849
1033,60; 3157,263;  176,285; 5016,413;61,58883
1034,14; 3135,033;  207,438; 4937,798;61,88946
1034,69; 3122,110;  207,977; 4890,952;62,22824
1035,23; 3094,187;  214,669; 4825,644;62,44921
1035,77; 3087,494;  208,823; 4753,567;63,34066
1036,32; 2978,417;  182,515; 4679,183;62,17720
1036,86; 3011,879;  208,823; 4631,029;63,38592
1037,41; 2949,263;  225,900; 4570,106;62,68956
1037,95; 2900,956;  197,285; 4478,875;63,14642
1038,50; 2870,802;  206,208; 4419,413;63,24387
1039,04; 2867,879;  229,823; 4396,106;63,31917
1039,58; 2803,110;  191,977; 4271,952;63,99874
1040,13; 2782,187;  205,900; 4232,644;63,97939
1040,67; 2808,956;  231,515; 4220,952;64,60663
1041,21; 2727,417;  240,362; 4134,490;63,86681
1041,76; 2695,571;  191,054; 4041,798;65,03982
1042,30; 2645,263;  210,131; 4005,567;64,15949
1042,85; 2617,417;  202,285; 3944,952;64,52972
1043,39; 2588,340;  182,977; 3902,567;64,66743
1043,93; 2588,110;  230,592; 3840,952;65,29868
1044,48; 2530,494;  218,131; 3782,029;64,88299
1045,02; 2517,648;  205,592; 3719,337;65,80034
1045,56; 2479,417;  227,592; 3712,721;64,61239
1046,11; 2472,340;  217,054; 3637,952;65,92674
1046,65; 2391,417;  222,285; 3593,260;64,34734
1047,19; 2379,263;  203,131; 3541,952;65,17668
1047,74; 2322,494;  196,438; 3461,106;65,12320
1048,28; 2306,033;  217,900; 3456,183;64,48272
1048,82; 2330,340;  232,746; 3444,875;65,30231
1049,37; 2277,956;  214,131; 3353,260;65,74515
1049,91; 2240,263;  210,592; 3303,337;65,62687
1050,45; 2213,110;  233,823; 3275,260;65,07736
1050,99; 2171,110;  223,592; 3208,875;65,23728
1051,54; 2172,648;  200,054; 3155,490;66,74460
1052,08; 2161,110;  233,823; 3143,798;66,23035
1052,62; 2116,494;  228,746; 3106,183;65,60520
1053,16; 2094,802;  202,515; 3023,413;67,08100
1053,71; 2060,033;  218,208; 2998,490;66,24596
1054,25; 2038,340;  229,669; 2944,260;66,62777
1054,79; 2008,340;  224,208; 2919,337;66,19842
1055,33; 1961,571;  200,208; 2847,183;66,54250
1055,88; 1986,725;  217,208; 2836,875;67,54741
1056,42; 1964,187;  237,054; 2800,260;67,38174
1056,96; 1934,263;  222,438; 2756,413;67,55493
1057,50; 1916,571;  224,977; 2719,875;67,80214
1058,05; 1878,187;  211,515; 2668,337;67,83852
1058,59; 1852,417;  236,669; 2644,798;67,09558
1059,13; 1799,263;  207,208; 2565,798;67,50031
1059,67; 1811,879;  228,592; 2571,875;67,56703
1060,21; 1785,110;  213,438; 2509,644;68,44644
1060,76; 1752,187;  221,131; 2466,567;68,18522
1061,30; 1767,494;  252,285; 2455,183;68,78256
1061,84; 1725,802;  222,362; 2384,798;69,52530
1062,38; 1677,725;  204,592; 2356,798;68,44758
1062,92; 1714,263;  261,438; 2380,798;68,55019
1063,46; 1677,956;  242,054; 2309,490;69,45325
1064,01; 1622,648;  219,977; 2266,490;68,53955
1064,55; 1626,033;  236,362; 2241,875;69,29254
1065,09; 1581,110;  195,515; 2187,413;69,56150
1065,63; 1597,110;  237,438; 2210,337;68,91746
1066,17; 1579,110;  246,746; 2165,106;69,45327
1066,71; 1553,571;  245,977; 2155,260;68,48615
1067,25; 1510,340;  211,977; 2073,567;69,74485
1067,80; 1533,340;  233,977; 2083,337;70,26018
1068,34; 1511,879;  256,823; 2076,721;68,96297
1068,88; 1461,802;  225,285; 2010,721;69,25574
1069,42; 1501,263;  246,669; 2016,644;70,88203
1069,96; 1450,494;  218,900; 1972,798;70,22040
1070,50; 1466,802;  253,900; 1974,490;70,49336
1071,04; 1405,033;  219,592; 1929,106;69,34373
1071,58; 1391,263;  221,054; 1891,952;70,03477
1072,12; 1382,110;  225,054; 1878,337;69,98536
1072,66; 1372,648;  219,438; 1877,798;69,53918
1073,21; 1370,263;  251,208; 1844,644;70,22908
1073,75; 1346,571;  235,977; 1817,567;70,22009
1074,29; 1346,033;  231,592; 1802,798;70,92899
1074,83; 1334,494;  248,362; 1780,183;70,90467
1075,37; 1329,879;  234,900; 1765,567;71,53604
1075,91; 1304,187;  239,669; 1729,644;71,44531
1076,45; 1293,956;  234,438; 1726,875;70,99245
1076,99; 1255,956;  239,131; 1711,875;69,04288
1077,53; 1228,187;  224,669; 1659,798;69,92524
1078,07; 1229,725;  237,438; 1644,413;70,52624
1078,61; 1220,187;  235,054; 1618,721;71,19722
1079,15; 1205,263;  228,054; 1603,183;71,06313
1079,69; 1212,417;  227,669; 1595,106;72,01417
1080,23; 1210,956;  247,592; 1583,106;72,13431
1080,77; 1217,648;  272,669; 1589,413;71,76632
1081,31; 1165,648;  232,362; 1519,106;72,53085
1081,85; 1147,110;  245,592; 1513,413;71,10761
1082,39; 1137,033;  228,592; 1497,413;71,59720
1082,93; 1147,494;  231,977; 1490,106;72,76817
1083,47; 1090,648;  219,362; 1442,952;71,20737
1084,01; 1110,571;  242,823; 1471,644;70,61630
1084,55; 1089,956;  219,823; 1425,567;72,16561
1085,09; 1106,725;  251,362; 1429,721;72,58934
1085,63; 1067,417;  232,131; 1402,721;71,35601
1086,17; 1056,648;  233,669; 1392,798;70,99977
1086,71; 1044,417;  223,592; 1361,029;72,16447
1087,24; 1069,802;  259,977; 1383,490;72,07969
1087,78; 1046,033;  244,515; 1349,875;72,51190
1088,32; 1003,187;  219,285; 1303,106;72,32761
1088,86; 1034,725;  245,592; 1337,952;72,24111
1089,40; 1005,110;  232,362; 1287,183;73,25868
1089,94;  968,879;  205,900; 1253,952;72,79972
1090,48;  978,571;  235,131; 1276,798;71,37023
1091,02;  985,571;  236,592; 1268,567;72,57723
1091,56;  970,879;  230,977; 1226,183;74,34663
1092,10;  940,956;  213,131; 1219,260;72,33914
1092,63;  957,340;  253,515; 1241,721;71,22251
1093,17;  942,340;  243,746; 1199,337;73,10603
1093,71;  911,263;  233,977; 1161,952;72,98543
1094,25;  925,879;  241,592; 1181,337;72,81625
1094,79;  909,725;  233,746; 1151,260;73,67509
1095,33;  896,956;  223,285; 1132,260;74,11328
1095,87;  878,956;  236,977; 1114,183;73,18452
1096,40;  852,956;  208,438; 1093,413;72,82887
1096,94;  854,417;  231,977; 1091,644;72,40480
1097,48;  862,571;  235,900; 1093,644;73,06038
1098,02;  847,187;  231,823; 1077,952;72,72692
1098,56;  808,802;  200,054; 1020,490;74,19807
1099,10;  806,725;  204,746; 1029,798;72,96254
1099,63;  796,187;  217,746; 1026,567;71,51648
1100,17;  812,340;  236,131; 1015,875;73,89726
1100,71;  824,802;  251,131; 1039,337;72,78190

