
Integration time [ms]: 120,000
Averaging Nr. [scans]: 13
Smoothing Nr. [pixels]: 0
Data measured with spectrometer [name]: 2009305U1
Wave   ;Sample   ;Dark     ;Reference;Reflectance
[nm]   ;[counts] ;[counts] ;[counts] ;[%]

 175,72;  209,462;  203,396;  206,415;200,94389
 176,32;  227,327;  232,238;  221,005; 0,00000
 176,92;  253,278;  247,318;  255,764;70,56190
 177,52;  254,406;  258,088;  254,242; 0,00000
 178,12;  236,926;  225,239;  236,618;102,70263
 178,72;  249,097;  252,468;  247,609; 0,00000
 179,32;  252,392;  251,777;  252,264; 0,00000
 179,92;  252,543;  252,009;  253,834;29,22856
 180,52;  236,188;  243,091;  251,014;-87,11768
 181,12;  246,791;  248,932;  250,733;-118,91247
 181,73;  273,487;  266,394;  270,722;163,88607
 182,33;  352,516;  342,551;  361,599;52,31307
 182,93;  259,048;  265,011;  272,969;-74,91957
 183,53;  238,331;  234,237;  231,203; 0,00000
 184,13;  238,059;  243,468;  230,540; 0,00000
 184,73;  265,498;  267,775;  273,447;-40,13963
 185,33;  269,874;  227,443;  345,598;35,91091
 185,93;  265,772;  241,133;  358,546;20,98492
 186,53;  287,679;  255,981;  380,144;25,52972
 187,13;  310,134;  272,984;  407,516;27,61459
 187,73;  280,594;  241,287;  363,269;32,22389
 188,33;  283,483;  240,209;  362,629;35,34936
 188,93;  286,750;  245,742;  378,979;30,77829
 189,53;  293,022;  251,815;  383,112;31,38467
 190,13;  321,258;  280,501;  415,888;30,10415
 190,73;  261,667;  224,505;  369,988;25,54370
 191,34;  304,431;  261,894;  396,267;31,65548
 191,94;  273,107;  239,284;  361,088;27,76807
 192,54;  297,483;  242,755;  397,442;35,37962
 193,14;  300,181;  262,137;  384,184;31,17124
 193,74;  294,695;  253,983;  388,973;30,15959
 194,34;  289,341;  249,600;  378,777;30,76518
 194,94;  265,669;  214,214;  353,835;36,85361
 195,54;  237,383;  216,674;  342,009;16,52262
 196,14;  269,554;  221,292;  354,658;36,18738
 196,74;  250,145;  228,135;  356,800;17,10658
 197,34;  245,400;  197,833;  349,603;31,34191
 197,94;  268,055;  230,138;  376,501;25,90635
 198,54;  278,388;  232,908;  397,071;27,70410
 199,14;  254,564;  213,526;  383,801;24,10122
 199,74;  253,845;  193,603;  378,842;32,52114
 200,34;  244,578;  192,296;  402,209;24,90664
 200,94;  291,670;  230,602;  433,790;30,05491
 201,54;  262,027;  207,910;  427,072;24,69261
 202,14;  289,774;  243,066;  476,318;20,02461
 202,74;  270,093;  210,218;  468,075;23,22004
 203,34;  266,700;  190,452;  474,780;26,81712
 203,94;  252,638;  167,682;  479,987;27,20305
 204,54;  317,574;  239,446;  569,638;23,66156
 205,14;  281,552;  207,834;  575,137;20,07013
 205,74;  341,447;  243,298;  662,389;23,41950
 206,34;  305,327;  200,681;  678,382;21,90613
 206,94;  326,236;  213,758;  737,667;21,46914
 207,54;  308,267;  183,758;  755,999;21,75814
 208,14;  344,911;  198,681;  854,932;22,28253
 208,74;  348,261;  205,295;  920,831;19,98029
 209,34;  357,431;  200,757;  996,638;19,68559
 209,94;  386,857;  219,757; 1096,814;19,05240
 210,54;  401,398;  205,913; 1200,696;19,65107
 211,14;  416,681;  223,603; 1269,731;18,45643
 211,73;  432,816;  203,679; 1406,089;19,05642
 212,33;  456,620;  221,832; 1487,287;18,55361
 212,93;  464,854;  198,834; 1587,825;19,15206
 213,53;  439,465;  176,295; 1656,334;17,78127
 214,13;  474,378;  210,145; 1766,419;16,97856
 214,73;  455,466;  184,758; 1744,780;17,35283
 215,33;  430,319;  171,219; 1778,968;16,11572
 215,93;  488,553;  212,529; 1866,132;16,69232
 216,53;  456,281;  154,218; 1934,078;16,97113
 217,13;  527,051;  221,836; 2160,304;15,74517
 217,73;  525,884;  194,452; 2358,138;15,31793
 218,33;  486,779;  151,069; 2513,919;14,20784
 218,93;  556,621;  181,610; 2817,997;14,22440
 219,53;  577,982;  188,915; 3082,652;13,44515
 220,13;  598,862;  159,762; 3367,589;13,68841
 220,73;  643,572;  178,449; 3702,204;13,19964
 221,32;  699,646;  179,065; 4090,215;13,31019
 221,92;  756,162;  187,992; 4480,570;13,23610
 222,52;  778,482;  172,221; 4890,290;12,84977
 223,12;  849,093;  186,144; 5324,030;12,90314
 223,72;  921,604;  197,067; 5776,609;12,98560
 224,32;  979,932;  193,452; 6174,831;13,14881
 224,92;  996,677;  171,452; 6496,656;13,04661
 225,52; 1089,748;  211,604; 6849,016;13,23022
 226,12; 1125,835;  183,990; 7219,368;13,38727
 226,72; 1174,110;  162,297; 7536,482;13,72101
 227,31; 1233,470;  168,297; 7998,538;13,60332
 227,91; 1337,794;  189,296; 8323,145;14,11998
 228,51; 1412,457;  185,371; 8784,073;14,27059
 229,11; 1501,511;  174,066; 9235,022;14,65017
 229,71; 1557,626;  172,064; 9534,301;14,79947
 230,31; 1679,788;  169,222; 9935,594;15,46701
 230,91; 1771,110;  162,986;10333,594;15,81148
 231,51; 1907,936;  171,759;10659,579;16,55422
 232,10; 2047,650;  169,761;10995,785;17,34606
 232,70; 2150,341;  184,446;11237,239;17,78641
 233,30; 2284,712;  202,528;11520,547;18,39707
 233,90; 2397,456;  174,836;11631,141;19,40084
 234,50; 2521,000;  177,682;11734,915;20,27577
 235,10; 2645,754;  166,529;11775,656;21,35582
 235,70; 2799,732;  196,219;11812,901;22,41185
 236,29; 2934,995;  188,757;11778,545;23,69533
 236,89; 3013,758;  152,755;11704,249;24,76738
 237,49; 3130,515;  191,682;11622,550;25,70962
 238,09; 3201,789;  177,297;11388,459;26,97751
 238,69; 3281,296;  211,139;11131,546;28,11395
 239,29; 3305,078;  168,219;10801,560;29,50022
 239,89; 3356,244;  188,678;10452,500;30,86147
 240,48; 3326,610;  171,297;10068,285;31,88155
 241,08; 3348,365;  182,065; 9752,646;33,08368
 241,68; 3356,054;  194,912; 9398,898;34,34536
 242,28; 3288,036;  172,221; 9078,164;34,98580
 242,88; 3319,659;  212,607; 8743,230;36,42233
 243,48; 3329,773;  218,297; 8428,893;37,89585
 244,07; 3245,231;  194,296; 8176,201;38,22314
 244,67; 3282,395;  195,374; 8034,323;39,38055
 245,27; 3243,431;  206,525; 7879,781;39,57780
 245,87; 3268,102;  198,991; 7804,792;40,35224
 246,47; 3226,302;  189,987; 7771,725;40,04774
 247,06; 3275,450;  173,066; 7771,896;40,82714
 247,66; 3279,732;  181,066; 7821,219;40,55764
 248,26; 3375,385;  216,141; 7971,037;40,73870
 248,86; 3384,402;  198,756; 8097,577;40,33064
 249,46; 3409,501;  147,067; 8322,076;39,90741
 250,05; 3564,356;  198,220; 8709,433;39,54944
 250,65; 3622,413;  172,217; 9080,959;38,72820
 251,25; 3773,971;  179,758; 9489,151;38,60846
 251,85; 3906,284;  191,293;10093,892;37,51531
 252,44; 4045,159;  155,911;10660,272;37,02509
 253,04; 4221,342;  205,526;11430,743;35,77495
 253,64; 4346,151;  146,140;12067,396;35,23128
 254,24; 4606,153;  203,681;13054,776;34,25756
 254,84; 4719,578;  172,836;13907,999;33,10293
 255,43; 4891,964;  179,526;14928,557;31,95083
 256,03; 5062,532;  191,756;15909,828;30,98838
 256,63; 5192,887;  184,755;16890,074;29,97926
 257,23; 5271,306;  177,294;17824,052;28,86656
 257,82; 5390,484;  188,754;18820,164;27,91914
 258,42; 5419,618;  151,599;19574,214;27,12312
 259,02; 5477,741;  195,757;20491,653;26,02489
 259,62; 5450,630;  176,906;21225,981;25,05442
 260,21; 5361,249;  185,449;21823,782;23,91959
 260,81; 5291,659;  179,143;22350,439;23,05916
 261,41; 5165,106;  164,907;22820,132;22,07084
 262,01; 5092,812;  208,598;23240,750;21,20607
 262,60; 4907,691;  171,217;23577,206;20,23616
 263,20; 4806,676;  188,064;23878,768;19,49546
 263,80; 4633,596;  194,983;24112,198;18,55824
 264,40; 4374,599;  167,598;24287,495;17,44203
 264,99; 4233,677;  191,675;24467,920;16,65003
 265,59; 4069,037;  174,442;24619,032;15,93234
 266,19; 3941,953;  161,444;24758,239;15,36992
 266,78; 3809,610;  208,366;24913,405;14,57696
 267,38; 3652,718;  184,212;24901,804;14,03254
 267,98; 3518,402;  181,597;24907,718;13,49506
 268,58; 3407,616;  185,827;25016,167;12,97521
 269,17; 3264,515;  170,364;24988,792;12,46715
 269,77; 3169,848;  186,062;24752,107;12,14598
 270,37; 3043,615;  167,136;24681,907;11,73366
 270,96; 2969,010;  223,600;24538,654;11,29099
 271,56; 2833,246;  170,217;24297,592;11,03738
 272,16; 2773,585;  182,753;24038,749;10,86029
 272,75; 2713,697;  186,292;24019,881;10,60438
 273,35; 2661,556;  174,908;23944,212;10,46160
 273,95; 2631,516;  185,984;23884,307;10,31943
 274,54; 2600,833;  168,143;23891,727;10,25431
 275,14; 2665,720;  208,216;24297,630;10,20160
 275,74; 2606,776;  157,446;24328,050;10,13351
 276,33; 2692,196;  205,139;24746,269;10,13424
 276,93; 2731,437;  185,143;25131,191;10,20720
 277,53; 2787,738;  174,218;25555,741;10,29694
 278,12; 2871,056;  160,371;26123,189;10,44064
 278,72; 3031,499;  206,833;26741,722;10,64510
 279,32; 3098,722;  180,295;27291,472;10,76466
 279,91; 3205,733;  163,910;28007,777;10,92457
 280,51; 3371,440;  182,218;28570,005;11,23449
 281,11; 3519,093;  180,602;29225,449;11,49426
 281,70; 3638,663;  160,371;29692,206;11,77811
 282,30; 3786,862;  180,755;30403,438;11,93179
 282,90; 3956,824;  172,447;30816,138;12,34961
 283,49; 4148,452;  182,677;31264,176;12,75928
 284,09; 4366,923;  211,832;31783,103;13,16099
 284,69; 4541,250;  213,833;32162,515;13,54490
 285,28; 4734,565;  190,986;32511,908;14,05770
 285,88; 4970,393;  235,753;32632,603;14,61451
 286,47; 5117,621;  192,216;32827,020;15,09249
 287,07; 5390,980;  209,833;32883,815;15,85710
 287,67; 5645,311;  199,990;33014,893;16,59405
 288,26; 5891,982;  171,910;32884,291;17,48595
 288,86; 6170,576;  176,063;33004,788;18,25996
 289,46; 6522,525;  196,833;33129,167;19,20815
 290,05; 6904,921;  174,450;33145,879;20,41304
 290,65; 7326,653;  188,755;33413,316;21,48380
 291,24; 7732,077;  188,295;33554,191;22,60926
 291,84; 8224,348;  200,447;33571,997;24,04414
 292,44; 8590,126;  179,759;33788,751;25,02416
 293,03; 9154,757;  244,449;33928,526;26,45258
 293,63; 9487,800;  182,601;34108,963;27,42763
 294,22; 9973,490;  197,217;34208,344;28,74434
 294,82;10325,994;  180,137;34351,144;29,69142
 295,41;10617,124;  168,525;33973,437;30,90852
 296,01;11000,040;  218,599;33979,053;31,93512
 296,61;11212,938;  203,987;33634,331;32,93101
 297,20;11461,894;  190,446;33442,533;33,89697
 297,80;11673,128;  200,758;33170,755;34,79639
 298,39;11768,976;  175,370;32777,584;35,56079
 298,99;12052,881;  203,446;32677,521;36,48891
 299,58;12131,961;  190,989;32559,281;36,89095
 300,18;12371,341;  207,758;32312,702;37,88695
 300,78;12499,066;  185,142;31897,885;38,82958
 301,37;12658,083;  205,521;31938,182;39,24210
 301,97;12895,192;  193,141;31873,378;40,09456
 302,56;12969,253;  185,139;31812,098;40,42157
 303,16;13065,637;  165,600;31709,432;40,89559
 303,75;13246,481;  178,219;31737,295;41,40889
 304,35;13544,569;  172,683;31988,324;42,02928
 304,94;13671,202;  186,448;32052,335;42,31721
 305,54;13802,646;  203,603;31958,446;42,82510
 306,13;13842,527;  150,452;31881,840;43,14994
 306,73;13938,627;  169,221;31632,912;43,76284
 307,33;13973,033;  198,066;31628,713;43,82655
 307,92;14164,089;  189,987;31616,393;44,46612
 308,52;14361,294;  168,370;32189,992;44,32294
 309,11;14735,712;  185,214;32645,139;44,82604
 309,71;14997,286;  157,983;32939,798;45,26687
 310,30;15187,439;  170,833;33093,031;45,61240
 310,90;15442,208;  218,295;33487,954;45,75915
 311,49;15569,994;  185,372;33619,494;46,01473
 312,09;15769,750;  148,527;33792,185;46,43141
 312,68;15994,696;  230,988;34163,564;46,45597
 313,28;16154,782;  162,526;34301,316;46,84482
 313,87;16204,724;  163,064;34460,179;46,77262
 314,47;16350,215;  174,369;34707,813;46,84110
 315,06;16487,536;  158,449;34834,406;47,09052
 315,66;16597,058;  167,681;35121,185;47,00352
 316,25;16583,235;  153,908;35029,122;47,10889
 316,85;16671,351;  141,065;35072,352;47,32229
 317,44;16787,837;  178,753;35374,627;47,19043
 318,04;16713,003;  150,217;35390,466;46,99963
 318,63;16793,332;  151,836;35376,884;47,24336
 319,22;16892,436;  180,832;35541,149;47,26090
 319,82;16896,414;  175,371;35624,692;47,16887
 320,41;16834,548;  191,832;35502,126;47,13276
 321,01;16800,410;  197,834;35601,991;46,89442
 321,60;16807,886;  173,294;35642,649;46,89849
 322,20;16730,484;  170,064;35616,966;46,71895
 322,79;16804,626;  203,834;35745,763;46,70763
 323,39;16744,447;  178,452;35765,620;46,55047
 323,98;16701,800;  167,834;35687,523;46,54874
 324,58;16642,152;  167,216;35551,964;46,55943
 325,17;16542,950;  174,139;35381,820;46,49216
 325,76;16423,495;  193,295;35215,578;46,34250
 326,36;16212,603;  157,757;34847,075;46,28181
 326,95;16055,459;  196,525;34498,088;46,23385
 327,55;15727,647;  161,217;34156,630;45,78980
 328,14;15545,674;  165,758;33819,620;45,70030
 328,74;15313,742;  194,755;33386,749;45,55010
 329,33;15107,067;  198,757;33012,783;45,43274
 329,92;14775,184;  159,215;32478,557;45,22360
 330,52;14486,030;  187,220;31800,031;45,23106
 331,11;14197,667;  184,140;31400,313;44,89188
 331,71;13920,425;  183,371;30765,546;44,91850
 332,30;13673,049;  193,295;30257,873;44,83600
 332,89;13357,468;  228,219;29819,246;44,36902
 333,49;13077,779;  194,910;29188,214;44,43395
 334,08;12794,634;  180,678;28766,581;44,12649
 334,68;12562,518;  175,909;28253,189;44,11613
 335,27;12351,636;  206,066;27924,741;43,81728
 335,86;12131,052;  232,909;27733,005;43,26582
 336,46;11929,646;  197,451;27428,390;43,08406
 337,05;11837,335;  173,756;27255,369;43,06826
 337,65;11636,530;  161,525;27009,238;42,74109
 338,24;11613,532;  227,218;27063,684;42,42851
 338,83;11532,683;  206,680;26875,977;42,46832
 339,43;11457,015;  176,831;26789,771;42,38608
 340,02;11316,508;  176,370;26769,914;41,89039
 340,61;11288,370;  172,526;26764,973;41,80076
 341,21;11245,434;  209,062;26772,672;41,54696
 341,80;11136,840;  175,909;26746,022;41,25286
 342,40;11124,181;  185,374;26814,170;41,07886
 342,99;11087,161;  176,526;26901,323;40,82588
 343,58;11026,605;  175,680;27040,321;40,39110
 344,18;11005,305;  191,681;27106,032;40,17791
 344,77;11056,470;  176,600;27457,383;39,88108
 345,36;11125,998;  156,525;27770,780;39,72395
 345,96;11153,861;  205,142;28138,496;39,19586
 346,55;11200,457;  180,606;28308,423;39,17777
 347,14;11238,295;  163,835;28633,240;38,89951
 347,74;11306,063;  152,454;29076,026;38,56235
 348,33;11487,417;  182,223;29727,617;38,26381
 348,92;11652,485;  190,685;30325,106;38,03557
 349,52;11676,500;  152,146;30821,826;37,57572
 350,11;11715,847;  176,139;31060,441;37,36432
 350,70;11655,486;  182,910;31140,750;37,05871
 351,29;11505,278;  165,905;30902,230;36,89242
 351,89;11412,777;  179,830;30893,167;36,57351
 352,48;11314,141;  146,680;30871,449;36,34677
 353,07;11252,480;  187,297;30848,418;36,08864
 353,67;11074,351;  195,993;30772,174;35,57788
 354,26;10877,385;  187,758;30523,596;35,23762
 354,85;10719,234;  185,373;30321,267;34,95453
 355,45;10585,577;  152,986;30321,444;34,58112
 356,04;10463,872;  167,759;30123,284;34,37133
 356,63;10380,008;  204,679;29949,660;34,20856
 357,22;10232,347;  180,136;29745,530;33,99992
 357,82;10049,612;  185,906;29537,851;33,60495
 358,41; 9884,088;  206,371;29434,573;33,11089
 359,00; 9716,950;  172,062;29247,897;32,82756
 359,60; 9592,135;  184,911;29215,097;32,40497
 360,19; 9474,315;  183,298;29049,190;32,18683
 360,78; 9363,506;  187,602;28855,756;32,00731
 361,37; 9236,786;  172,063;28623,643;31,86017
 361,97; 9087,554;  181,448;28507,987;31,44085
 362,56; 8926,169;  173,062;28250,966;31,17436
 363,15; 8841,009;  220,524;27987,393;31,04594
 363,74; 8611,661;  178,215;27757,057;30,57941
 364,34; 8445,349;  202,985;27318,422;30,39731
 364,93; 8191,290;  171,985;26938,465;29,96026
 365,52; 7959,975;  148,986;26498,236;29,64406
 366,11; 7863,809;  175,985;26150,100;29,59802
 366,71; 7667,129;  169,832;25798,995;29,25299
 367,30; 7489,511;  184,140;25445,760;28,91885
 367,89; 7402,326;  207,758;25249,023;28,73085
 368,48; 7244,223;  194,215;24893,140;28,54378
 369,07; 7080,871;  177,064;24550,211;28,32546
 369,67; 6931,985;  202,677;24224,249;28,01360
 370,26; 6792,355;  176,064;23890,986;27,89927
 370,85; 6656,193;  189,986;23657,110;27,55432
 371,44; 6536,249;  174,602;23421,233;27,36589
 372,03; 6398,131;  166,216;23182,548;27,07606
 372,63; 6288,368;  158,525;22892,871;26,96292
 373,22; 6165,273;  169,218;22610,905;26,71838
 373,81; 6029,412;  159,679;22294,369;26,51825
 374,40; 5903,918;  170,066;22019,746;26,24227
 374,99; 5821,024;  172,909;21755,688;26,16954
 375,59; 5704,371;  158,989;21481,419;26,00727
 376,18; 5650,213;  192,448;21318,589;25,83418
 376,77; 5560,860;  191,064;21097,972;25,68431
 377,36; 5526,464;  199,909;21033,349;25,56733
 377,95; 5386,228;  190,524;20770,462;25,24645
 378,55; 5340,794;  162,911;20590,145;25,34794
 379,14; 5263,297;  182,063;20548,838;24,94864
 379,73; 5195,020;  184,293;20439,314;24,73820
 380,32; 5230,951;  187,294;20454,344;24,88600
 380,91; 5126,821;  179,907;20352,292;24,52320
 381,50; 5128,373;  188,216;20279,700;24,58832
 382,10; 5049,413;  175,679;20164,497;24,38230
 382,69; 5015,337;  155,832;20101,000;24,36432
 383,28; 5011,982;  208,754;20160,886;24,07376
 383,87; 4930,264;  176,139;19975,557;24,01144
 384,46; 4925,262;  165,906;19926,060;24,08562
 385,05; 4923,668;  200,446;19952,420;23,91266
 385,64; 4873,655;  174,370;19871,869;23,85727
 386,24; 4846,393;  157,675;19841,362;23,82032
 386,83; 4905,080;  197,137;19919,742;23,87080
 387,42; 4876,216;  197,832;20050,490;23,56553
 388,01; 4963,200;  178,443;20213,564;23,88185
 388,60; 4989,422;  176,214;20488,910;23,69556
 389,19; 5011,628;  164,518;20605,349;23,71288
 389,78; 5082,922;  172,749;20910,798;23,67712
 390,37; 5228,455;  225,675;21383,133;23,64547
 390,96; 5233,845;  188,522;21431,328;23,75074
 391,56; 5258,455;  189,825;21602,399;23,67128
 392,15; 5328,271;  165,826;21874,241;23,78085
 392,74; 5373,864;  149,899;22061,541;23,84105
 393,33; 5468,809;  184,055;22338,912;23,85370
 393,92; 5538,890;  177,820;22828,054;23,66894
 394,51; 5601,184;  155,593;22921,725;23,91970
 395,10; 5711,579;  194,047;23179,407;24,00455
 395,69; 5733,997;  187,124;23371,497;23,92505
 396,28; 5752,493;  186,815;23369,787;24,00761
 396,87; 5836,659;  191,042;23560,563;24,15804
 397,46; 5886,662;  190,808;23627,905;24,30273
 398,06; 5967,400;  204,728;23870,233;24,35051
 398,65; 5972,135;  183,259;23917,529;24,39037
 399,24; 6061,903;  194,643;24031,775;24,61395
 399,83; 6066,764;  168,478;24112,609;24,63354
 400,42; 6191,643;  199,083;24264,429;24,90120
 401,01; 6212,012;  181,764;24384,700;24,91536
 401,60; 6230,924;  179,749;24453,496;24,92889
 402,19; 6285,777;  207,813;24319,300;25,20775
 402,78; 6302,436;  206,487;24403,792;25,19268
 403,37; 6302,031;  193,161;24164,420;25,48414
 403,96; 6303,476;  184,448;24034,585;25,65615
 404,55; 6299,666;  190,886;23966,363;25,69362
 405,14; 6334,361;  171,788;23822,006;26,05715
 405,73; 6324,885;  189,302;23733,758;26,05957
 406,32; 6360,500;  186,747;23628,388;26,33669
 406,91; 6318,287;  186,343;23371,961;26,44719
 407,50; 6299,911;  195,718;23263,146;26,46239
 408,09; 6286,085;  173,403;22909,949;26,88483
 408,68; 6286,526;  186,244;22801,213;26,97453
 409,27; 6319,059;  164,327;22635,206;27,38982
 409,86; 6301,594;  174,265;22510,602;27,43211
 410,45; 6353,985;  214,355;22380,437;27,69831
 411,04; 6389,650;  209,214;22359,191;27,90267
 411,63; 6345,723;  195,846;22070,608;28,11403
 412,22; 6324,697;  197,631;21906,435;28,22388
 412,81; 6274,438;  209,406;21664,950;28,26790
 413,40; 6303,586;  212,874;21278,980;28,91238
 413,99; 6251,156;  244,026;20934,947;29,03269
 414,58; 6134,542;  181,873;20559,855;29,21128
 415,17; 6156,719;  182,713;20325,684;29,65802
 415,76; 6102,353;  181,169;20153,483;29,64696
 416,35; 6103,349;  182,018;20024,331;29,84194
 416,94; 6213,061;  201,555;20020,839;30,33160
 417,53; 6295,899;  182,406;20224,833;30,50276
 418,12; 6404,977;  183,100;20330,971;30,88106
 418,71; 6563,222;  195,643;20671,509;31,09797
 419,30; 6577,231;  176,793;20789,490;31,05095
 419,89; 6677,006;  171,178;20987,581;31,25337
 420,48; 6901,976;  209,336;21198,984;31,88543
 421,07; 6936,021;  192,337;21377,852;31,83158
 421,66; 6978,179;  161,571;21367,565;32,14472
 422,25; 7052,262;  173,808;21313,787;32,53766
 422,84; 7088,536;  220,963;21402,871;32,42188
 423,43; 7075,440;  191,883;21064,515;32,97886
 424,02; 7040,716;  212,500;20822,691;33,13029
 424,60; 6919,162;  183,353;20363,969;33,37762
 425,19; 6895,916;  198,734;20092,478;33,66476
 425,78; 6963,880;  209,658;20059,537;34,02652
 426,37; 6965,361;  216,045;19881,047;34,32146
 426,96; 6997,488;  198,506;19742,088;34,78882
 427,55; 6967,198;  190,434;19560,799;34,98522
 428,14; 6923,419;  183,820;19414,171;35,04668
 428,73; 6911,549;  194,817;19177,005;35,38439
 429,32; 7025,077;  206,121;19222,016;35,85924
 429,91; 7074,108;  231,432;19202,303;36,06938
 430,50; 7081,833;  203,511;19019,364;36,55599
 431,08; 7047,687;  212,744;18903,174;36,56921
 431,67; 7101,045;  237,131;18764,698;37,04704
 432,26; 7108,521;  253,594;18672,937;37,21592
 432,85; 7069,614;  262,670;18309,887;37,71742
 433,44; 6963,860;  263,981;17871,444;38,05136
 434,03; 6892,823;  277,831;17595,417;38,19812
 434,62; 6737,047;  235,750;17102,022;38,54614
 435,21; 6749,913;  252,901;16855,135;39,13336
 435,79; 6746,963;  241,214;16766,153;39,36928
 436,38; 6689,531;  233,064;16658,707;39,30724
 436,97; 6767,299;  238,680;16540,590;40,04819
 437,56; 6754,741;  249,762;16313,893;40,49381
 438,15; 6720,318;  210,222;16256,300;40,57126
 438,74; 6770,662;  246,531;16245,714;40,77790
 439,33; 6828,079;  224,684;16323,820;41,01708
 439,91; 6888,897;  198,225;16398,842;41,29887
 440,50; 6989,737;  241,071;16402,951;41,75669
 441,09; 7065,038;  241,613;16486,630;42,00319
 441,68; 7119,297;  225,077;16535,749;42,26815
 442,27; 7113,398;  213,384;16488,631;42,39576
 442,86; 7159,622;  187,775;16505,583;42,72539
 443,44; 7238,301;  199,774;16579,396;42,97124
 444,03; 7392,747;  263,545;16673,533;43,44428
 444,62; 7312,119;  201,391;16496,407;43,63744
 445,21; 7319,987;  217,467;16323,325;44,09899
 445,80; 7354,360;  233,471;16243,473;44,47775
 446,39; 7277,006;  261,316;15992,026;44,59869
 446,97; 7143,660;  193,936;15812,419;44,49679
 447,56; 7118,728;  201,708;15544,776;45,08238
 448,15; 7085,444;  198,936;15364,714;45,40821
 448,74; 6980,343;  212,475;15120,591;45,39721
 449,33; 6972,282;  198,246;14915,573;46,02763
 449,91; 6939,374;  192,865;14743,987;46,36419
 450,50; 6883,856;  187,018;14549,813;46,62629
 451,09; 6883,024;  218,096;14400,990;46,99272
 451,68; 6853,688;  228,943;14402,155;46,74131
 452,26; 6827,452;  216,330;14273,557;47,03006
 452,85; 6834,953;  198,790;14204,785;47,38087
 453,44; 6868,127;  220,257;14170,290;47,65487
 454,03; 6887,243;  187,254;14128,650;48,05824
 454,61; 6868,900;  191,026;14065,587;48,13034
 455,20; 6991,227;  228,797;14258,086;48,20223
 455,79; 7067,050;  214,948;14251,587;48,81583
 456,38; 7195,244;  216,723;14341,120;49,40757
 456,97; 7206,894;  197,107;14428,933;49,25431
 457,55; 7220,543;  197,801;14423,917;49,36514
 458,14; 7294,925;  229,721;14400,024;49,85923
 458,73; 7264,546;  210,263;14278,291;50,14408
 459,31; 7348,311;  239,035;14379,523;50,27603
 459,90; 7396,766;  245,418;14448,611;50,35028
 460,49; 7469,778;  274,263;14532,573;50,46541
 461,08; 7525,489;  212,114;14592,206;50,85764
 461,66; 7584,187;  218,574;14701,343;50,85777
 462,25; 7665,004;  214,577;14809,171;51,04922
 462,84; 7702,723;  235,037;14834,042;51,15202
 463,43; 7636,286;  175,657;14744,910;51,20804
 464,01; 7720,426;  207,428;14779,293;51,55825
 464,60; 7765,035;  250,887;14762,986;51,77850
 465,19; 7607,133;  189,967;14538,983;51,69111
 465,77; 7631,897;  215,199;14491,462;51,95126
 466,36; 7677,375;  235,349;14343,421;52,75013
 466,95; 7521,262;  204,350;14058,326;52,81453
 467,53; 7377,078;  214,278;13774,595;52,82177
 468,12; 7288,027;  228,432;13496,206;53,20859
 468,71; 7119,777;  217,737;13235,300;53,02098
 469,29; 7056,016;  195,741;12990,285;53,61875
 469,88; 6924,288;  203,434;12705,431;53,75824
 470,47; 6983,149;  265,975;12837,219;53,43285
 471,06; 6985,593;  206,283;12812,217;53,77872
 471,64; 7097,179;  221,359;12910,233;54,18779
 472,23; 7037,631;  182,211;12872,417;54,02135
 472,81; 7134,805;  185,747;13041,453;54,05427
 473,40; 7219,654;  199,288;13161,269;54,16121
 473,99; 7411,602;  284,057;13322,828;54,66424
 474,57; 7410,132;  200,596;13524,347;54,11041
 475,16; 7534,789;  216,055;13618,656;54,60682
 475,75; 7602,242;  222,829;13741,639;54,58626
 476,33; 7653,002;  228,985;13858,601;54,46975
 476,92; 7704,717;  226,750;13935,333;54,54952
 477,51; 7743,876;  214,676;13911,087;54,97206
 478,09; 7835,541;  214,061;13997,282;55,29535
 478,68; 7742,940;  221,523;13903,510;54,97313
 479,27; 7821,059;  247,752;13895,896;55,48965
 479,85; 7811,739;  209,523;13970,638;55,24419
 480,44; 7852,248;  205,293;14049,059;55,23753
 481,02; 8545,658;  227,911;15303,255;55,17451
 481,61; 9722,591;  236,525;17450,586;55,10649
 482,20;10384,335;  222,911;18702,884;54,98614
 482,78;10907,490;  249,216;19458,442;55,48518
 483,37;11167,601;  228,144;20073,355;55,12391
 483,95;11325,278;  264,607;20290,174;55,23275
 484,54;11478,818;  265,371;20433,212;55,60063
 485,13;11412,699;  235,532;20376,454;55,49481
 485,71;11248,530;  213,685;20220,457;55,15555
 486,30;11150,811;  247,070;19894,421;55,49726
 486,88;10963,088;  273,609;19530,330;55,51038
 487,47;10526,827;  261,225;18817,085;55,32269
 488,05;10175,579;  240,995;18005,094;55,92506
 488,64; 9454,057;  239,767;16715,615;55,92604
 489,23; 8441,576;  251,842;14945,116;55,73798
 489,81; 7246,570;  248,304;12677,892;56,30328
 490,40; 6871,532;  202,689;12032,320;56,37405
 490,98; 6710,634;  200,844;11754,736;56,34283
 491,57; 6638,619;  234,227;11638,805;56,15633
 492,15; 6662,520;  215,460;11594,871;56,65548
 492,74; 6570,227;  215,534;11529,442;56,16709
 493,32; 6503,382;  233,536;11409,206;56,10264
 493,91; 6443,298;  208,538;11276,747;56,33034
 494,50; 6465,241;  221,388;11303,165;56,34343
 495,08; 6371,683;  209,234;11133,405;56,41113
 495,67; 6375,756;  226,768;11157,296;56,25517
 496,25; 6316,630;  175,848;11091,481;56,25677
 496,84; 6303,748;  188,537;11049,200;56,30605
 497,42; 6248,571;  177,772;11000,801;56,09149
 498,01; 6244,516;  217,923;10952,006;56,14446
 498,59; 6211,343;  188,387;10879,252;56,33741
 499,18; 6169,368;  191,923;10876,318;55,94556
 499,76; 6191,385;  215,078;10813,648;56,38786
 500,35; 6020,458;  202,235;10572,804;56,10321
 500,93; 6017,203;  194,002;10516,495;56,41274
 501,52; 5946,358;  196,849;10465,777;55,98938
 502,10; 5945,594;  215,314;10495,311;55,74204
 502,69; 5838,530;  197,392;10305,806;55,80636
 503,27; 5786,225;  182,696;10127,163;56,34820
 503,86; 5726,687;  199,084;10087,093;55,90209
 504,44; 5643,574;  174,778; 9992,777;55,70174
 505,03; 5483,433;  164,547; 9675,595;55,92324
 505,61; 5447,615;  191,239; 9624,748;55,72026
 506,19; 5364,860;  198,162; 9449,771;55,84647
 506,78; 5205,830;  170,396; 9229,137;55,58647
 507,36; 5169,926;  194,700; 9134,661;55,65154
 507,95; 5068,462;  181,013; 8946,263;55,75938
 508,53; 5039,217;  183,703; 8860,691;55,95852
 509,12; 4946,205;  191,320; 8715,883;55,77863
 509,70; 4848,443;  207,397; 8559,862;55,56498
 510,29; 4772,044;  205,245; 8401,244;55,71986
 510,87; 4639,269;  184,473; 8227,516;55,38695
 511,46; 4546,137;  173,473; 8038,943;55,59317
 512,04; 4464,903;  188,398; 7912,437;55,36618
 512,62; 4350,879;  184,319; 7804,754;54,67615
 513,21; 4289,027;  161,476; 7630,858;55,25961
 513,79; 4195,918;  181,404; 7489,410;54,93310
 514,38; 4129,755;  166,325; 7326,945;55,35038
 514,96; 4078,352;  211,940; 7244,507;54,97868
 515,54; 3981,851;  166,095; 7094,433;55,07462
 516,13; 3988,830;  197,480; 7026,710;55,51651
 516,71; 3873,741;  182,636; 6897,990;54,96516
 517,30; 3798,748;  171,945; 6780,825;54,87772
 517,88; 3741,020;  196,253; 6684,232;54,63593
 518,46; 3682,459;  168,100; 6554,929;55,02511
 519,05; 3692,475;  171,793; 6549,670;55,20147
 519,63; 3625,096;  189,946; 6433,740;55,01703
 520,22; 3559,739;  201,565; 6469,577;53,57638
 520,80; 3506,975;  178,642; 6342,966;53,99349
 521,38; 3520,622;  217,870; 6324,394;54,08563
 521,97; 3463,453;  178,720; 6246,476;54,13423
 522,55; 3495,800;  189,874; 6265,637;54,41170
 523,13; 3428,106;  176,721; 6252,248;53,51609
 523,72; 3444,039;  180,023; 6163,028;54,55480
 524,30; 3543,881;  208,030; 6362,032;54,20620
 524,89; 3507,689;  173,874; 6386,557;53,66144
 525,47; 3543,083;  205,031; 6514,802;52,90291
 526,05; 3556,766;  160,108; 6568,896;53,00001
 526,64; 3659,873;  196,955; 6676,188;53,44642
 527,22; 3729,329;  198,569; 6816,635;53,35032
 527,80; 3805,877;  233,647; 6913,910;53,47440
 528,39; 3828,746;  190,186; 7005,696;53,38647
 528,97; 3876,928;  190,494; 7176,310;52,77027
 529,55; 3973,977;  200,336; 7390,423;52,48394
 530,14; 4071,252;  210,572; 7594,744;52,28318
 530,72; 4108,593;  185,801; 7654,121;52,52577
 531,30; 4148,950;  167,726; 7810,517;52,09123
 531,89; 4238,387;  191,803; 7893,650;52,54043
 532,47; 4290,470;  218,265; 8050,398;51,99357
 533,05; 4317,751;  217,570; 8074,023;52,18870
 533,63; 4327,806;  207,419; 8137,561;51,95855
 534,22; 4326,921;  180,958; 8149,477;52,02927
 534,80; 4389,355;  211,114; 8273,232;51,82560
 535,38; 4438,147;  277,034; 8325,898;51,69814
 535,97; 4342,237;  198,342; 8260,998;51,39615
 536,55; 4398,758;  226,498; 8343,900;51,39895
 537,13; 4399,493;  219,495; 8297,624;51,74463
 537,71; 4428,641;  269,110; 8298,389;51,80454
 538,30; 4440,555;  255,266; 8423,966;51,23568
 538,88; 4485,154;  285,731; 8462,765;51,35631
 539,46; 4589,779;  328,883; 8646,701;51,22613
 540,05; 4636,480;  316,115; 8775,884;51,06953
 540,63; 4751,874;  361,038; 8905,380;51,38882
 541,21; 4825,868;  366,116; 9075,653;51,20538
 541,79; 4883,689;  390,654; 9170,864;51,17230
 542,38; 4954,628;  412,807; 9330,650;50,92959
 542,96; 5042,274;  408,656; 9479,706;51,08138
 543,54; 5120,413;  430,654; 9661,083;50,80760
 544,12; 5206,628;  388,578; 9823,594;51,06563
 544,70; 5233,500;  383,964; 9914,522;50,88407
 545,29; 5314,998;  407,499;10096,663;50,64935
 545,87; 5318,458;  399,039;10157,787;50,41035
 546,45; 5304,439;  363,730;10156,749;50,45134
 547,03; 5286,809;  342,500;10258,850;49,86017
 547,62; 5325,273;  326,885;10368,644;49,77601
 548,20; 5430,896;  355,117;10597,289;49,55764
 548,78; 5487,212;  317,044;10698,351;49,80267
 549,36; 5561,479;  292,275;10921,984;49,57054
 549,94; 5608,361;  272,117;11092,114;49,31835
 550,53; 5674,740;  286,274;11315,691;48,85541
 551,11; 5780,204;  254,584;11509,573;49,09485
 551,69; 5879,303;  268,198;11862,748;48,39433
 552,27; 5931,187;  233,119;12089,540;48,05892
 552,85; 6131,770;  233,430;12540,839;47,92511
 553,44; 6233,856;  233,736;12820,273;47,67093
 554,02; 6412,825;  257,814;13201,336;47,55283
 554,60; 6539,659;  201,584;13494,682;47,67944
 555,18; 6721,685;  243,121;13918,271;47,37472
 555,76; 6827,299;  226,198;14301,923;46,89706
 556,34; 7051,068;  233,662;14674,211;47,21015
 556,93; 7200,579;  219,583;15083,144;46,96718
 557,51; 7343,296;  203,278;15387,273;47,02332
 558,09; 7507,464;  224,198;15830,305;46,66933
 558,67; 7685,468;  233,048;16219,568;46,61690
 559,25; 7790,052;  242,355;16487,953;46,45995
 559,83; 7911,890;  229,280;16758,879;46,47790
 560,41; 8057,543;  208,585;17153,685;46,31992
 561,00; 8223,262;  222,125;17470,204;46,38857
 561,58; 8338,034;  212,662;17727,120;46,39237
 562,16; 8409,857;  210,584;18055,027;45,94861
 562,74; 8570,170;  190,352;18460,559;45,86603
 563,32; 8755,533;  199,511;18857,914;45,85613
 563,90; 8899,634;  216,125;19201,847;45,73705
 564,48; 9094,556;  227,123;19670,236;45,60706
 565,06; 9350,333;  217,279;20219,584;45,66001
 565,65; 9558,262;  216,513;20925,774;45,10904
 566,23; 9939,223;  264,433;21708,119;45,11719
 566,81;10159,233;  213,740;22407,220;44,81268
 567,39;10570,070;  225,819;23319,797;44,79199
 567,97;10800,621;  237,202;24005,747;44,44285
 568,55;11184,356;  245,895;24831,062;44,49212
 569,13;11420,143;  215,279;25450,181;44,40225
 569,71;11757,499;  209,660;26444,524;44,01715
 570,29;12237,978;  258,736;27448,131;44,05851
 570,87;12470,548;  261,737;28161,745;43,75917
 571,45;12761,215;  235,433;28793,947;43,86006
 572,03;12930,213;  196,281;29276,799;43,78853
 572,61;13201,832;  194,587;30040,895;43,58075
 573,20;13470,011;  215,047;30685,741;43,50070
 573,78;13760,545;  222,049;31358,732;43,48085
 574,36;13945,085;  223,818;31822,003;43,42422
 574,94;14136,124;  267,050;32220,109;43,40453
 575,52;14191,685;  221,130;32436,480;43,36614
 576,10;14423,327;  266,514;33090,274;43,12977
 576,68;14622,175;  249,665;33505,806;43,21761
 577,26;14916,169;  262,131;34187,650;43,19473
 577,84;15079,400;  272,818;34734,484;42,96537
 578,42;15257,734;  305,743;35110,116;42,96009
 579,00;15265,019;  248,049;35113,781;43,07086
 579,58;15313,417;  279,666;35455,584;42,73876
 580,16;15298,301;  258,975;35470,356;42,71155
 580,74;15389,860;  255,975;35730,039;42,66183
 581,32;15335,076;  251,512;35778,119;42,45709
 581,90;15316,546;  276,513;35652,497;42,51481
 582,48;15298,775;  277,975;35829,559;42,25072
 583,06;15345,274;  258,820;36024,002;42,18196
 583,64;15408,023;  246,897;36134,165;42,24653
 584,22;15248,351;  267,284;35945,573;41,98931
 584,80;15101,501;  274,897;35793,562;41,74313
 585,38;14928,802;  275,124;35326,464;41,80633
 585,96;14924,509;  257,434;35489,175;41,63029
 586,54;14878,491;  277,592;35445,780;41,51735
 587,12;14838,067;  234,744;35572,147;41,32540
 587,70;14903,299;  277,511;35778,551;41,19819
 588,28;14883,863;  256,591;35861,182;41,08255
 588,86;14893,862;  268,360;35959,988;40,97740
 589,44;14783,137;  243,978;36002,057;40,65979
 590,02;14807,451;  264,362;36238,897;40,42606
 590,59;14861,121;  235,515;36415,306;40,42480
 591,17;14945,566;  257,750;36680,742;40,32567
 591,75;14946,969;  235,287;36860,235;40,16847
 592,33;14961,694;  263,440;37061,033;39,94352
 592,91;15054,366;  203,519;37315,217;40,01662
 593,49;15084,871;  222,059;37674,071;39,68495
 594,07;15194,116;  239,520;37925,442;39,68218
 594,65;15179,857;  250,284;37876,764;39,67837
 595,23;15285,979;  239,978;38306,171;39,52589
 595,81;15244,167;  245,286;38397,031;39,31375
 596,39;15290,008;  226,671;38542,232;39,31389
 596,97;15443,187;  223,750;38692,197;39,56343
 597,55;15265,814;  234,515;38665,316;39,11263
 598,12;15213,751;  222,521;38696,469;38,96463
 598,70;15266,546;  211,365;38773,674;39,04118
 599,28;15259,045;  239,442;39030,128;38,71961
 599,86;15169,652;  232,673;38969,186;38,56046
 600,44;15117,505;  189,904;39112,856;38,35167
 601,02;15168,025;  254,677;39160,333;38,33208
 601,60;15012,416;  236,826;39101,094;38,01844
 602,18;14978,294;  195,367;39178,268;37,92157
 602,75;14987,915;  220,516;39266,809;37,82023
 603,33;14953,070;  217,289;39268,148;37,73484
 603,91;14897,466;  206,829;39221,947;37,65370
 604,49;14907,028;  232,750;39381,511;37,48338
 605,07;14855,534;  238,056;39291,270;37,42964
 605,65;14870,536;  248,982;39463,035;37,28652
 606,23;14893,540;  287,053;39628,463;37,12751
 606,80;14886,968;  305,901;39619,481;37,08913
 607,38;14814,643;  334,752;39785,301;36,70390
 607,96;14832,675;  359,593;39643,237;36,84251
 608,54;14844,126;  403,905;39804,091;36,65013
 609,12;14814,466;  378,670;39785,242;36,63297
 609,70;14808,168;  418,827;39870,257;36,47356
 610,27;14735,220;  418,132;39954,589;36,21237
 610,85;14749,120;  425,980;39954,538;36,23492
 611,43;14630,226;  431,904;39861,625;36,00919
 612,01;14504,978;  413,517;39660,987;35,90412
 612,59;14453,309;  409,827;39664,131;35,77565
 613,16;14326,222;  381,284;39732,901;35,43676
 613,74;14286,261;  375,981;39599,910;35,46376
 614,32;14216,610;  345,213;39499,943;35,42713
 614,90;14019,945;  337,595;39429,573;35,00040
 615,48;13905,749;  297,362;39101,288;35,06961
 616,05;13810,256;  277,207;39046,981;34,90618
 616,63;13640,916;  278,976;38958,059;34,54565
 617,21;13583,900;  295,285;38882,617;34,43776
 617,79;13480,904;  271,517;38756,350;34,32362
 618,36;13416,048;  291,825;38720,557;34,15211
 618,94;13199,807;  229,823;38321,579;34,04932
 619,52;13022,639;  249,360;38017,161;33,82055
 620,10;12990,836;  234,670;38077,333;33,70843
 620,67;12914,261;  253,899;37938,282;33,59578
 621,25;12845,557;  270,287;37750,276;33,55196
 621,83;12738,819;  249,439;37684,782;33,36254
 622,41;12673,079;  300,439;37741,832;33,04535
 622,98;12557,239;  256,360;37503,046;33,02543
 623,56;12531,029;  274,667;37527,385;32,90058
 624,14;12426,269;  257,211;37256,457;32,89002
 624,72;12287,154;  247,516;37240,510;32,54573
 625,29;12212,605;  241,975;37337,839;32,26945
 625,87;12234,468;  275,209;37290,909;32,30861
 626,45;12073,887;  231,359;37086,075;32,13300
 627,02;11996,706;  248,132;37006,005;31,96206
 627,60;11931,289;  228,289;37018,074;31,81046
 628,18;11876,389;  210,747;37125,396;31,60166
 628,76;11832,182;  225,360;37122,575;31,45718
 629,33;11831,413;  254,284;37117,201;31,40589
 629,91;11758,067;  232,978;37096,333;31,26435
 630,49;11745,732;  255,207;37162,507;31,13348
 631,06;11719,907;  248,976;37310,230;30,95128
 631,64;11704,215;  255,437;37284,604;30,91827
 632,22;11640,627;  212,589;37177,783;30,91567
 632,79;11671,741;  230,205;37487,314;30,70967
 633,37;11634,822;  225,902;37466,818;30,63544
 633,95;11591,031;  236,436;37626,426;30,36801
 634,52;11612,015;  226,593;37730,266;30,35815
 635,10;11517,997;  233,593;37751,993;30,07699
 635,68;11566,255;  232,359;37921,293;30,07221
 636,25;11493,692;  202,434;38006,841;29,86757
 636,83;11446,567;  207,360;38113,037;29,65046
 637,41;11458,189;  222,358;38123,060;29,64544
 637,98;11482,732;  246,666;38412,090;29,44043
 638,56;11466,552;  237,049;38524,700;29,32931
 639,13;11399,434;  224,898;38519,838;29,18019
 639,71;11458,585;  266,899;38742,551;29,08771
 640,29;11273,671;  183,514;38394,662;29,02335
 640,86;11242,128;  203,976;38724,562;28,65520
 641,44;11202,200;  203,053;38562,538;28,67387
 642,02;11204,734;  237,669;38730,514;28,49118
 642,59;11170,960;  210,207;38880,106;28,34441
 643,17;11109,417;  209,361;38775,466;28,26331
 643,74;11035,259;  209,592;38758,673;28,08281
 644,32;11065,870;  233,515;38873,265;28,03423
 644,89;10953,481;  230,130;38821,472;27,78693
 645,47;10902,938;  253,669;38837,833;27,60010
 646,05;10881,779;  235,361;38730,117;27,65680
 646,62;10784,544;  224,285;38751,247;27,41005
 647,20;10816,155;  232,362;38965,300;27,32505
 647,77;10663,689;  195,669;38789,430;27,12361
 648,35;10665,761;  202,669;38628,637;27,22922
 648,92;10573,064;  225,516;38666,844;26,91777
 649,50;10556,060;  195,131;38549,743;27,01351
 650,08;10449,055;  205,977;38472,027;26,76806
 650,65;10484,743;  204,362;38580,696;26,78834
 651,23;10523,123;  187,670;39402,980;26,35566
 651,80;10834,734;  187,593;40441,418;26,45001
 652,38;10817,037;  207,747;40831,778;26,11580
 652,95;10869,264;  180,593;41162,601;26,08137
 653,53;10864,797;  217,362;41458,346;25,81761
 654,10;10969,024;  238,593;41596,938;25,94502
 654,68;10780,942;  200,286;41438,991;25,65710
 655,25;10802,784;  195,440;41513,121;25,67265
 655,83;10728,010;  198,440;41557,559;25,45888
 656,40;10670,929;  226,824;41553,381;25,27214
 656,98;10640,770;  211,132;41612,050;25,19180
 657,55;10587,227;  202,132;41424,565;25,19282
 658,13;10445,377;  200,055;41004,618;25,10827
 658,70;10291,526;  218,132;40836,286;24,80023
 659,28;10078,291;  207,517;39943,955;24,84061
 659,85; 9858,825;  221,133;39137,469;24,76516
 660,43; 9776,666;  211,517;39171,292;24,55135
 661,00; 9734,816;  203,287;39186,883;24,45010
 661,58; 9761,350;  198,825;39684,398;24,21777
 662,15; 9792,268;  200,671;39787,759;24,22910
 662,73; 9858,341;  259,287;40132,658;24,07385
 663,30; 9798,336;  208,825;40338,327;23,89641
 663,88; 9766,716;  203,133;40417,534;23,78149
 664,45; 9735,096;  191,595;40816,895;23,49152
 665,03; 9786,246;  204,287;41034,256;23,46795
 665,60; 9923,856;  283,980;41597,539;23,33345
 666,17; 9843,852;  219,287;41755,285;23,17162
 666,75; 9856,309;  194,057;41987,030;23,11932
 667,32; 9897,920;  211,980;42377,007;22,97150
 667,90; 9890,608;  198,057;42671,060;22,82050
 668,47; 9881,988;  224,595;42877,959;22,64157
 669,05; 9930,137;  207,134;43213,243;22,60842
 669,62; 9830,209;  169,365;43318,065;22,38965
 670,19; 9836,897;  186,596;43414,888;22,32404
 670,77; 9846,662;  201,365;43623,249;22,21299
 671,34; 9846,734;  188,519;43622,533;22,23653
 671,92; 9784,961;  195,211;43894,893;21,94467
 672,49; 9746,341;  220,134;43936,177;21,79110
 673,06; 9672,413;  167,673;43929,077;21,71946
 673,64; 9680,024;  185,904;43829,437;21,75378
 674,21; 9591,327;  171,827;43843,260;21,56902
 674,79; 9646,323;  215,442;44122,928;21,47898
 675,36; 9624,934;  212,289;44363,597;21,31906
 675,93; 9455,083;  186,443;44148,342;21,08335
 676,51; 9459,386;  203,673;44467,396;20,91038
 677,08; 9433,920;  206,443;44381,833;20,88828
 677,65; 9419,608;  209,904;44546,579;20,77220
 678,23; 9431,065;  196,520;44795,709;20,70563
 678,80; 9410,137;  191,058;44857,762;20,63971
 679,38; 9441,363;  192,058;44996,277;20,64383
 679,95; 9398,513;  204,597;45358,638;20,36122
 680,52; 9387,124;  187,520;45587,845;20,26330
 681,10; 9462,581;  213,136;45975,744;20,21180
 681,67; 9490,115;  203,597;46311,489;20,14084
 682,24; 9383,572;  185,597;46273,927;19,95727
 682,82; 9453,106;  195,367;46900,288;19,82176
 683,39; 9540,640;  238,521;47203,495;19,80650
 683,96; 9474,097;  204,521;47468,240;19,61246
 684,54; 9500,015;  181,367;47753,601;19,58842
 685,11; 9580,780;  239,521;48220,193;19,46880
 685,68; 9628,545;  205,598;48535,477;19,49715
 686,25; 9611,232;  184,367;48735,145;19,41651
 686,83; 9596,920;  198,444;48885,045;19,30403
 687,40; 9652,839;  186,213;49219,021;19,30672
 687,97; 9697,450;  228,983;49642,689;19,16162
 688,55; 9627,907;  184,137;49562,819;19,12520
 689,12; 9621,594;  166,829;49904,488;19,00927
 689,69; 9628,205;  174,906;50041,772;18,95707
 690,26; 9561,047;  202,983;50050,056;18,77355
 690,84; 9503,350;  188,983;50302,109;18,58668
 691,41; 9523,038;  203,060;50265,701;18,61663
 691,98; 9493,264;  201,983;50695,292;18,40101
 692,56; 9507,490;  189,753;50778,961;18,41843
 693,13; 9474,947;  244,137;50830,706;18,24755
 693,70; 9476,635;  207,061;50932,221;18,27412
 694,27; 9392,631;  198,214;51258,813;18,00687
 694,84; 9379,703;  190,061;51133,404;18,03895
 695,42; 9419,391;  230,061;51318,765;17,98701
 695,99; 9366,694;  195,369;51420,510;17,90395
 696,56; 9261,843;  197,522;51374,025;17,71188
 697,13; 9345,377;  203,523;51868,848;17,69437
 697,71; 9272,834;  175,292;51889,285;17,59203
 698,28; 9237,214;  189,830;52164,108;17,40743
 698,85; 9193,441;  157,446;52182,699;17,36848
 699,42; 9227,052;  162,907;52472,752;17,32780
 699,99; 9229,432;  197,215;52494,498;17,27091
 700,57; 9215,427;  193,677;52598,628;17,21545
 701,14; 9188,884;  179,677;52679,604;17,16042
 701,71; 9148,726;  198,908;52900,196;16,98216
 702,28; 9098,952;  187,600;52938,864;16,89315
 702,85; 9054,640;  199,908;52906,994;16,79989
 703,43; 9123,328;  207,831;53360,894;16,77325
 704,00; 9166,938;  225,062;53470,408;16,79372
 704,57; 9118,242;  208,524;53381,231;16,75619
 705,14; 9099,006;  216,447;53670,669;16,61713
 705,71; 9064,233;  211,062;53798,491;16,52098
 706,28; 8979,767;  189,678;53673,160;16,43515
 706,86; 9025,300;  225,216;53871,597;16,40387
 707,43; 9000,988;  239,755;53866,420;16,33746
 708,00; 8977,215;  218,678;53859,627;16,32808
 708,57; 8898,595;  190,832;53769,988;16,25215
 709,14; 8929,205;  221,909;53938,271;16,20977
 709,71; 8867,124;  195,601;54030,786;16,10754
 710,28; 8854,273;  204,678;54240,378;16,00719
 710,86; 8829,115;  203,832;54357,662;15,92737
 711,43; 8848,034;  226,986;54343,869;15,93042
 712,00; 8770,568;  210,371;54522,076;15,76124
 712,57; 8782,332;  219,986;54547,283;15,76067
 713,14; 8780,482;  209,294;54769,567;15,70958
 713,71; 8747,323;  222,448;54599,851;15,67724
 714,28; 8641,780;  210,294;54662,211;15,48428
 714,85; 8593,776;  190,371;54369,341;15,51045
 715,42; 8628,079;  202,217;54618,010;15,48422
 716,00; 8667,305;  263,987;54710,063;15,43420
 716,57; 8548,762;  204,371;54790,732;15,28659
 717,14; 8549,527;  197,679;54877,093;15,27421
 717,71; 8477,369;  179,679;54784,761;15,19582
 718,28; 8513,518;  233,372;54958,891;15,13032
 718,85; 8464,744;  187,449;55041,944;15,08955
 719,42; 8453,586;  217,833;55159,690;14,98994
 719,99; 8396,889;  181,141;55005,128;14,98568
 720,56; 8409,192;  216,218;55192,873;14,90264
 721,13; 8351,726;  195,141;55296,618;14,80284
 721,70; 8306,722;  192,449;55204,056;14,75011
 722,27; 8319,871;  217,526;55252,263;14,72224
 722,84; 8307,866;  256,757;55392,701;14,60229
 723,41; 8240,939;  185,911;55387,370;14,59206
 723,98; 8209,703;  194,757;55579,653;14,47136
 724,55; 8224,391;  223,680;55786,245;14,39946
 725,12; 8150,002;  154,296;55632,298;14,41239
 725,69; 8167,921;  200,450;55798,505;14,33048
 726,27; 8188,147;  195,450;55981,328;14,32746
 726,84; 8175,527;  197,834;56216,612;14,24110
 727,41; 8199,138;  214,142;56164,972;14,27145
 727,98; 8179,749;  215,450;56552,102;14,13698
 728,55; 8223,052;  234,296;56450,233;14,21084
 729,12; 8163,509;  181,373;56490,055;14,17567
 729,69; 8193,581;  219,296;56778,954;14,09889
 730,26; 8210,731;  222,912;56899,007;14,09381
 730,82; 8140,418;  207,297;56748,137;14,03078
 731,39; 8161,106;  197,143;56856,191;14,05594
 731,96; 8173,256;  190,143;57225,782;13,99671
 732,53; 8224,482;  201,758;57488,451;14,00452
 733,10; 8225,477;  213,374;57534,196;13,97765
 733,67; 8264,319;  206,989;57751,096;14,00201
 734,24; 8179,776;  190,682;57308,610;13,98702
 734,81; 8203,925;  227,297;57476,586;13,93315
 735,38; 8151,767;  205,759;57341,409;13,90727
 735,95; 8091,301;  199,143;57096,000;13,87099
 736,52; 8103,758;  217,374;57264,823;13,82425
 737,09; 8038,369;  214,605;56955,876;13,78849
 737,66; 8108,364;  255,451;57133,698;13,80653
 738,23; 8074,821;  196,451;57238,521;13,81151
 738,80; 8156,432;  262,528;57491,805;13,79347
 739,37; 8088,120;  234,298;57758,089;13,65317
 739,94; 8116,192;  213,529;57798,834;13,72340
 740,51; 8184,957;  317,990;57901,118;13,66193
 741,07; 8075,106;  201,837;57796,863;13,67005
 741,64; 8125,563;  238,452;58036,917;13,64588
 742,21; 8165,251;  215,991;58049,277;13,74513
 742,78; 8035,324;  195,221;57761,792;13,61919
 743,35; 8113,088;  212,221;58071,076;13,65542
 743,92; 8154,853;  248,760;58380,052;13,60041
 744,49; 8121,618;  229,222;57986,336;13,66480
 745,06; 8085,998;  213,376;58040,005;13,61418
 745,63; 8100,070;  194,837;58088,135;13,65483
 746,19; 8047,450;  199,760;58059,265;13,56336
 746,76; 8060,830;  213,222;58131,010;13,54957
 747,33; 8098,518;  214,530;58115,063;13,61643
 747,90; 8068,052;  214,914;58300,347;13,51998
 748,47; 8097,278;  221,838;58159,093;13,59305
 749,04; 8144,120;  230,376;58126,531;13,66886
 749,61; 8148,962;  238,684;58085,199;13,67460
 750,17; 8116,880;  218,453;58233,329;13,61449
 750,74; 8153,876;  223,838;58144,382;13,69123
 751,31; 8054,948;  198,992;58062,897;13,57661
 751,88; 8069,328;  189,453;57927,643;13,64760
 752,45; 8087,016;  211,992;58131,234;13,59656
 753,02; 8048,550;  234,684;57998,210;13,52733
 753,58; 8058,930;  193,069;57799,648;13,65445
 754,15; 8070,618;  195,531;57940,624;13,63767
 754,72; 8040,844;  199,531;57836,524;13,60465
 755,29; 8055,455;  183,992;57553,885;13,72055
 755,86; 8102,835;  209,146;57743,399;13,71998
 756,42; 8098,677;  218,300;57561,222;13,74254
 756,99; 8041,441;  197,070;57557,890;13,67549
 757,56; 8038,129;  208,377;57604,559;13,64159
 758,13; 8034,509;  165,300;57528,612;13,71819
 758,70; 8099,197;  194,070;57577,588;13,77595
 759,26; 8107,808;  200,301;57653,026;13,76350
 759,83; 8116,111;  214,608;57756,002;13,73186
 760,40; 8121,414;  190,532;57602,901;13,81389
 760,97; 8101,333;  181,532;57745,724;13,75821
 761,53; 8051,790;  173,686;57327,085;13,78414
 762,10; 8075,939;  164,686;57321,369;13,84134
 762,67; 8102,396;  205,840;57303,499;13,82991
 763,24; 8027,546;  158,224;56833,552;13,88492
 763,80; 8075,233;  198,147;56985,990;13,87108
 764,37; 8062,844;  189,917;56905,658;13,88138
 764,94; 7956,994;  178,917;56441,711;13,82455
 765,50; 8030,758;  176,302;56408,764;13,96783
 766,07; 8063,908;  205,917;56378,510;13,98901
 766,64; 8025,211;  184,917;56131,409;14,01391
 767,21; 7960,283;  181,917;56024,462;13,92910
 767,77; 8035,663;  202,763;55931,592;14,05538
 768,34; 8026,659;  209,148;55892,722;14,03917
 768,91; 8025,116;  210,456;55688,314;14,08609
 769,47; 8064,111;  205,225;55727,752;14,15441
 770,04; 8016,568;  209,225;55589,343;14,09774
 770,61; 8022,102;  190,533;55380,166;14,19029
 771,18; 7961,790;  190,379;55216,142;14,12322
 771,74; 8038,401;  195,918;55472,888;14,18761
 772,31; 8018,550;  207,149;55135,018;14,22120
 772,88; 7983,392;  172,456;54969,378;14,25433
 773,44; 7934,772;  185,072;54724,893;14,20925
 774,01; 7963,306;  208,149;54924,792;14,17331
 774,58; 7986,225;  192,303;54459,846;14,36203
 775,14; 8029,143;  179,380;54622,053;14,41840
 775,71; 8014,369;  189,457;54557,029;14,39261
 776,27; 8083,519;  238,534;54489,620;14,46051
 776,84; 8123,822;  270,226;54588,981;14,45835
 777,41; 8058,894;  209,457;54333,573;14,50266
 777,97; 8067,659;  187,996;54079,857;14,62125
 778,54; 8080,347;  202,303;54161,295;14,60006
 779,11; 8152,188;  234,304;54029,502;14,71857
 779,67; 8111,568;  194,534;54077,939;14,69290
 780,24; 8146,487;  206,227;53719,454;14,83794
 780,80; 8190,867;  226,381;53780,738;14,87178
 781,37; 8170,170;  219,458;53756,176;14,85095
 781,94; 8172,320;  201,227;53600,614;14,92731
 782,50; 8216,315;  208,227;53384,282;15,05958
 783,07; 8268,849;  230,381;53494,104;15,09183
 783,63; 8234,229;  196,381;53211,388;15,16146
 784,20; 8278,148;  223,766;53191,442;15,20622
 784,77; 8247,297;  209,689;52920,110;15,24861
 785,33; 8262,062;  189,612;52761,548;15,35505
 785,90; 8255,826;  209,920;52792,909;15,30135
 786,46; 8299,514;  229,151;52641,577;15,39781
 787,03; 8279,817;  205,689;52420,553;15,46328
 787,59; 8308,505;  205,228;52470,607;15,50410
 788,16; 8318,962;  222,689;52317,814;15,54133
 788,73; 8320,496;  228,074;52168,098;15,58032
 789,29; 8317,799;  210,382;51840,151;15,70299
 789,86; 8342,487;  227,844;51718,819;15,75935
 790,42; 8337,867;  222,228;51698,642;15,76574
 790,99; 8298,786;  226,382;51221,464;15,82977
 791,55; 8317,012;  205,767;51189,517;15,90947
 792,12; 8338,008;  235,459;51250,724;15,88260
 792,68; 8351,388;  214,844;50930,162;16,04356
 793,25; 8312,768;  218,382;50748,907;16,01880
 793,81; 8375,686;  272,613;50268,961;16,20733
 794,38; 8294,989;  197,460;50098,783;16,22708
 794,94; 8276,216;  206,613;50010,836;16,20265
 795,51; 8317,365;  234,614;49636,120;16,36135
 796,07; 8250,668;  216,075;49489,250;16,30622
 796,64; 8344,664;  229,537;49531,303;16,46011
 797,20; 8286,428;  227,922;49147,049;16,47312
 797,77; 8281,732;  194,614;48731,179;16,66191
 798,33; 8256,112;  222,614;48696,924;16,57269
 798,90; 8299,953;  237,614;48520,439;16,69815
 799,46; 8209,718;  209,922;48030,569;16,72875
 800,03; 8249,329;  218,537;47993,084;16,80977
 800,59; 8240,940;  231,537;47753,445;16,85413
 801,15; 8230,551;  244,230;47560,575;16,87857
 801,72; 8170,931;  219,307;47296,705;16,89053
 802,28; 8204,465;  248,845;46915,989;17,04758
 802,85; 8176,537;  220,768;46647,042;17,13635
 803,41; 8188,225;  218,922;46464,249;17,23267
 803,98; 8134,297;  216,538;46099,763;17,25633
 804,54; 8119,216;  213,999;45879,432;17,31116
 805,11; 8153,442;  222,307;45628,947;17,46691
 805,67; 8148,822;  249,846;45488,384;17,46072
 806,23; 8086,972;  232,231;45109,207;17,50283
 806,80; 8126,659;  249,231;45059,414;17,57955
 807,36; 8152,424;  243,615;44980,390;17,67854
 807,93; 8161,343;  248,154;44652,982;17,82056
 808,49; 8050,030;  215,692;44293,496;17,77388
 809,05; 8046,564;  205,231;44215,011;17,81725
 809,62; 8125,406;  237,308;44081,295;17,99129
 810,18; 8125,017;  235,462;43991,964;18,03059
 810,74; 8051,474;  201,077;43586,094;18,09472
 811,31; 8079,008;  204,770;43439,378;18,21281
 811,87; 8072,465;  220,693;43221,969;18,25939
 812,44; 8108,537;  253,924;43351,638;18,22513
 813,00; 8054,071;  182,385;43052,614;18,36166
 813,56; 8138,144;  234,616;43028,975;18,46862
 814,13; 8098,831;  220,001;42955,182;18,43640
 814,69; 8156,519;  224,078;42729,620;18,66213
 815,25; 8084,592;  187,924;42265,980;18,76671
 815,82; 8139,202;  235,770;42261,803;18,80604
 816,38; 8141,352;  268,617;42136,010;18,80398
 816,94; 8127,655;  210,617;41705,524;19,07954
 817,51; 8067,958;  207,848;41603,655;18,98770
 818,07; 8071,492;  210,232;41236,169;19,16168
 818,63; 8119,872;  233,617;41066,222;19,31362
 819,20; 8111,868;  226,925;40996,122;19,34044
 819,76; 8034,171;  201,156;40596,252;19,39101
 820,32; 8088,397;  248,694;40578,766;19,43885
 820,89; 8062,239;  236,310;40284,589;19,54124
 821,45; 8034,003;  222,848;39917,873;19,67792
 822,01; 8016,614;  229,617;39761,387;19,69807
 822,57; 8056,379;  234,848;39616,287;19,86096
 823,14; 8089,605;  200,310;39335,494;20,15909
 823,70; 7974,832;  212,387;39129,855;19,94591
 824,26; 8031,673;  213,387;38920,985;20,19832
 824,82; 8071,822;  249,002;38790,346;20,29722
 825,39; 7991,741;  215,310;38492,476;20,31611
 825,95; 8058,583;  233,156;38548,683;20,42364
 826,51; 8046,655;  237,310;38121,351;20,61381
 827,08; 8107,958;  262,157;38176,943;20,69325
 827,64; 8075,108;  241,618;38010,304;20,74070
 828,20; 8010,642;  211,618;37685,588;20,81184
 828,76; 8088,406;  250,388;37665,641;20,94873
 829,32; 8132,863;  248,234;37578,463;21,12130
 829,89; 8106,474;  200,080;37370,901;21,27043
 830,45; 8146,393;  241,003;37326,262;21,31680
 831,01; 8130,542;  221,465;37130,930;21,42832
 831,57; 8084,614;  223,388;37025,753;21,36066
 832,14; 8153,610;  221,542;37007,190;21,56294
 832,70; 8108,913;  202,619;36693,936;21,66623
 833,26; 8121,139;  183,234;36693,681;21,74146
 833,82; 8155,289;  217,081;36566,965;21,83833
 834,38; 8140,053;  216,927;36445,172;21,87003
 834,95; 8190,972;  201,465;36371,764;22,08858
 835,51; 8168,044;  169,466;36375,509;22,09183
 836,07; 8232,886;  221,389;36354,332;22,17228
 836,63; 8302,497;  238,696;36262,231;22,38481
 837,19; 8317,954;  231,158;36133,900;22,52417
 837,75; 8219,488;  182,158;35783,183;22,57612
 838,32; 8364,637;  244,851;35931,929;22,75274
 838,88; 8393,863;  240,004;36031,367;22,78164
 839,44; 8433,167;  231,312;35826,804;23,04183
 840,00; 8417,393;  221,851;35768,396;23,05580
 840,56; 8322,004;  204,928;35450,834;23,02984
 841,12; 8399,615;  207,312;35470,964;23,23158
 841,68; 8386,072;  194,313;35269,632;23,35477
 842,25; 8420,067;  204,159;35319,224;23,39710
 842,81; 8341,370;  201,236;34981,585;23,40441
 843,37; 8401,904;  196,467;35065,715;23,53202
 843,93; 8474,592;  201,313;34900,537;23,84284
 844,49; 8501,741;  223,467;35037,206;23,77876
 845,05; 8442,506;  180,698;34748,336;23,90041
 845,61; 8564,886;  233,082;34749,543;24,13864
 846,17; 8546,266;  216,467;34727,519;24,13661
 846,73; 8584,262;  214,313;34654,957;24,30253
 847,29; 8563,950;  198,083;34464,241;24,41437
 847,86; 8536,022;  199,467;34366,679;24,39928
 848,42; 8526,017;  199,237;34149,732;24,52624
 848,98; 8556,167;  222,314;34060,708;24,62839
 849,54; 8590,778;  200,929;34173,684;24,69581
 850,10; 8695,850;  215,083;34019,661;25,08763
 850,66; 8607,615;  190,468;33877,560;24,98627
 851,22; 8643,918;  193,929;33775,151;25,16284
 851,78; 8699,760;  250,083;33848,820;25,14879
 852,34; 8711,370;  230,237;33620,104;25,40032
 852,90; 8759,597;  204,160;33484,772;25,70697
 853,46; 8670,284;  202,776;33288,672;25,59250
 854,02; 8780,434;  208,776;33279,417;25,91924
 854,58; 8764,352;  205,084;33035,163;26,07142
 855,14; 8739,040;  209,315;32941,216;26,05936
 855,70; 8712,420;  179,084;32930,038;26,05523
 856,26; 8787,185;  226,238;32714,476;26,35091
 856,82; 8795,257;  204,853;32531,683;26,57361
 857,38; 8848,022;  237,776;32537,582;26,65727
 857,94; 8816,402;  211,161;32329,943;26,79193
 858,50; 8815,475;  223,469;32305,227;26,78159
 859,06; 8765,701;  203,007;31977,357;26,94845
 859,62; 8855,850;  232,854;31969,103;27,17081
 860,18; 8832,307;  214,700;31814,617;27,27098
 860,74; 8792,687;  186,469;31707,747;27,30288
 861,30; 8773,837;  196,239;31471,108;27,42649
 861,86; 8891,832;  259,008;31502,546;27,63075
 862,42; 8842,212;  220,008;31344,061;27,70270
 862,98; 8901,131;  245,239;31302,960;27,87034
 863,54; 8855,049;  217,623;31021,398;28,04015
 864,10; 8866,968;  219,624;31180,143;27,93023
 864,66; 8851,040;  191,008;30899,966;28,20035
 865,22; 8887,190;  212,547;30794,096;28,36561
 865,78; 8846,724;  211,162;30645,226;28,37466
 866,34; 8854,719;  197,778;30510,202;28,55905
 866,90; 8881,407;  222,470;30363,871;28,72772
 867,45; 8888,248;  215,316;30152,924;28,97002
 868,01; 8842,629;  220,163;30001,285;28,95279
 868,57; 8818,932;  216,393;29747,799;29,13013
 869,13; 8810,389;  204,317;29714,622;29,16294
 869,69; 8872,153;  206,394;29664,598;29,41714
 870,25; 8853,534;  188,624;29505,420;29,55613
 870,81; 8941,991;  216,471;29362,704;29,93704
 871,37; 8893,217;  215,240;29343,834;29,79195
 871,93; 8903,366;  229,855;29159,503;29,98139
 872,49; 8868,977;  241,702;28918,633;30,08437
 873,04; 8829,203;  201,933;28846,378;30,11848
 873,60; 8878,583;  195,702;28661,970;30,50235
 874,16; 8855,887;  219,394;28592,177;30,43936
 874,72; 8850,194;  202,471;28505,023;30,55457
 875,28; 8889,963;  216,394;28451,946;30,71861
 875,84; 8843,425;  212,779;28416,485;30,60111
 876,40; 8871,271;  202,702;28364,023;30,78183
 876,95; 8880,425;  222,548;28281,100;30,85646
 877,51; 8928,963;  237,240;28300,485;30,97191
 878,07; 9009,194;  244,625;28271,485;31,27203
 878,63; 9026,348;  207,240;28237,100;31,46326
 879,19; 9051,194;  225,933;28303,254;31,43199
 879,75; 9136,810;  202,010;28379,177;31,70936
 880,30; 9136,425;  205,010;28285,792;31,80615
 880,86; 9265,117;  252,856;28427,562;31,98707
 881,42; 9249,733;  200,702;28463,023;32,01800
 881,98; 9291,271;  234,856;28522,638;32,01529
 882,54; 9421,425;  199,317;28608,331;32,46191
 883,09; 9511,963;  222,933;28754,946;32,55652
 883,65; 9553,117;  201,933;28861,792;32,62816
 884,21; 9703,117;  244,471;29072,946;32,81008
 884,77; 9676,271;  204,933;29068,023;32,81471
 885,32; 9834,040;  207,625;29326,638;33,05887
 885,88; 9931,271;  249,548;29431,792;33,17676
 886,44;10029,117;  216,471;29416,254;33,60520
 887,00;10059,887;  235,163;29470,100;33,60610
 887,56;10162,656;  216,702;29674,177;33,76377
 888,11;10102,887;  213,856;29634,177;33,61293
 888,67;10320,887;  248,856;29821,331;34,05880
 889,23;10365,963;  224,779;29841,023;34,24197
 889,79;10275,502;  200,933;29749,715;34,09470
 890,34;10332,194;  224,087;29662,562;34,33638
 890,90;10503,733;  289,471;29787,100;34,62740
 891,46;10434,040;  207,933;29726,177;34,64335
 892,01;10542,656;  229,856;29682,023;35,01542
 892,57;10468,963;  244,087;29601,177;34,82933
 893,13;10522,502;  215,240;29331,100;35,40085
 893,69;10545,502;  214,702;29356,638;35,44994
 894,24;10502,810;  226,163;29248,562;35,40936
 894,80;10505,194;  224,933;29131,254;35,56406
 895,36;10526,502;  227,625;29013,946;35,77698
 895,91;10455,963;  220,317;28725,946;35,90746
 896,47;10511,194;  234,548;28766,331;36,01824
 897,03;10471,963;  215,240;28519,408;36,23750
 897,58;10439,656;  224,010;28410,715;36,24278
 898,14;10440,271;  228,779;28245,485;36,44787
 898,70;10360,810;  205,087;28088,562;36,42201
 899,25;10469,656;  221,856;28018,254;36,86737
 899,81;10470,733;  235,163;27872,100;37,03583
 900,37;10328,040;  200,625;27663,331;36,87698
 900,92;10388,040;  221,702;27718,177;36,97324
 901,48;10355,887;  211,779;27456,254;37,23363
 902,03;10327,502;  210,010;27343,869;37,28733
 902,59;10395,425;  219,087;27251,100;37,64551
 903,15;10445,425;  240,702;27038,408;38,08058
 903,70;10278,348;  227,010;26772,485;37,86460
 904,26;10284,271;  210,856;26691,946;38,04003
 904,82;10382,579;  224,933;26620,715;38,48208
 905,37;10364,117;  232,240;26556,638;38,48854
 905,93;10329,733;  208,702;26433,715;38,59304
 906,48;10395,040;  235,779;26319,408;38,94880
 907,04;10445,271;  236,010;26205,715;39,31220
 907,60;10381,733;  226,625;25990,408;39,41621
 908,15;10358,963;  200,471;25854,485;39,59806
 908,71;10427,194;  243,317;25959,100;39,60166
 909,26;10381,271;  211,317;25708,869;39,88600
 909,82;10383,348;  241,394;25696,792;39,84206
 910,37;10424,579;  255,163;25506,100;40,27342
 910,93;10354,194;  212,163;25377,023;40,30235
 911,48;10348,271;  210,471;25194,792;40,57665
 912,04;10311,040;  209,779;25031,100;40,69591
 912,60;10378,579;  225,548;25080,485;40,84915
 913,15;10284,348;  217,548;24820,869;40,91643
 913,71;10256,810;  203,394;24704,485;41,03252
 914,26;10240,963;  203,856;24682,869;41,00291
 914,82;10252,425;  226,317;24523,869;41,26386
 915,37;10330,117;  201,087;24410,023;41,84005
 915,93;10329,733;  258,394;24353,408;41,79843
 916,48;10226,963;  202,240;24169,946;41,82596
 917,04;10278,502;  235,317;24069,100;42,13844
 917,59;10374,194;  251,394;23976,177;42,66762
 918,15;10232,656;  191,856;23859,792;42,42364
 918,70;10254,117;  216,856;23817,946;42,52880
 919,26;10276,963;  223,010;23684,177;42,85360
 919,81;10196,733;  203,010;23426,562;43,03271
 920,37;10250,194;  211,163;23411,715;43,27065
 920,92;10254,502;  232,856;23239,408;43,55997
 921,48;10162,271;  199,317;23019,869;43,65781
 922,03;10193,271;  207,394;23052,177;43,71185
 922,59;10201,040;  212,933;22870,715;44,08246
 923,14;10189,656;  209,471;22770,485;44,23642
 923,69;10186,733;  229,548;22779,715;44,15570
 924,25;10201,348;  232,163;22623,792;44,52193
 924,80;10148,348;  213,087;22481,638;44,61566
 925,36;10150,810;  216,779;22339,946;44,90329
 925,91;10075,425;  212,702;22210,485;44,83508
 926,47;10133,271;  191,087;22149,023;45,27832
 927,02;10076,194;  271,240;22125,792;44,86458
 927,57;10063,579;  209,856;21936,023;45,35417
 928,13;10069,656;  206,548;21810,869;45,65340
 928,68;10054,194;  215,163;21760,100;45,66749
 929,24;10001,887;  196,394;21569,562;45,87758
 929,79; 9971,502;  202,702;21532,792;45,79821
 930,34; 9958,733;  216,394;21315,408;46,17438
 930,90; 9927,117;  214,163;21233,638;46,20931
 931,45; 9912,733;  224,394;21307,869;45,95228
 932,01; 9968,963;  232,240;21098,177;46,66324
 932,56; 9922,656;  237,240;20955,331;46,74859
 933,11; 9982,271;  249,702;20967,254;46,97741
 933,67; 9919,348;  216,010;20769,946;47,20915
 934,22; 9888,733;  226,548;20745,254;47,08964
 934,77; 9951,887;  243,010;20597,485;47,69898
 935,33; 9868,579;  221,240;20489,562;47,59811
 935,88; 9892,040;  221,087;20395,100;47,93768
 936,43; 9896,117;  208,010;20289,715;48,24345
 936,99; 9877,271;  218,087;20199,485;48,34088
 937,54; 9876,040;  202,933;19966,408;48,94437
 938,09; 9919,887;  219,779;20040,869;48,93832
 938,65; 9898,271;  218,471;19837,100;49,33984
 939,20; 9820,733;  191,702;19767,408;49,18868
 939,75; 9825,656;  196,702;19645,869;49,50831
 940,31; 9793,425;  201,010;19523,562;49,64363
 940,86; 9857,963;  218,240;19571,869;49,80835
 941,41; 9788,117;  298,548;19481,254;49,46940
 941,96; 9709,348;  210,933;19300,254;49,75774
 942,52; 9771,425;  208,471;19239,792;50,24850
 943,07; 9687,810;  201,625;19097,946;50,20122
 943,62; 9644,579;  208,471;19001,100;50,21175
 944,18; 9661,887;  195,702;18939,100;50,50410
 944,73; 9696,117;  220,625;18894,792;50,74118
 945,28; 9522,733;  178,394;18645,715;50,59932
 945,83; 9638,963;  213,163;18682,100;51,03597
 946,39; 9613,887;  209,010;18585,023;51,18018
 946,94; 9622,348;  241,163;18501,946;51,37340
 947,49; 9576,271;  207,240;18407,638;51,47707
 948,04; 9607,887;  247,163;18397,254;51,57397
 948,59; 9549,425;  236,548;18291,792;51,57990
 949,15; 9572,348;  201,933;18110,562;52,32347
 949,70; 9505,656;  220,010;18106,869;51,91323
 950,25; 9508,194;  236,240;17984,562;52,24130
 950,80; 9425,271;  179,317;17871,638;52,25970
 951,36; 9440,810;  178,625;17785,177;52,60647
 951,91; 9497,887;  232,010;17830,715;52,65090
 952,46; 9443,887;  199,163;17579,254;53,19146
 953,01; 9488,117;  224,240;17595,408;53,32904
 953,56; 9373,810;  190,471;17396,946;53,37141
 954,11; 9406,040;  220,087;17374,562;53,54844
 954,67; 9359,733;  209,779;17376,715;53,29986
 955,22; 9280,887;  189,240;17149,485;53,60563
 955,77; 9365,656;  235,856;17149,331;53,97945
 956,32; 9337,194;  259,856;17000,869;54,22216
 956,87; 9250,579;  196,702;16885,792;54,25027
 957,42; 9212,117;  209,163;16839,562;54,13553
 957,98; 9166,733;  209,317;16755,023;54,13740
 958,53; 9158,040;  235,317;16758,100;54,00254
 959,08; 9144,348;  198,779;16575,177;54,62477
 959,63; 9104,040;  203,625;16436,485;54,82962
 960,18; 9093,656;  227,240;16404,715;54,80716
 960,73; 9061,810;  218,471;16338,177;54,86042
 961,28; 9015,887;  187,933;16310,638;54,75479
 961,83; 8992,040;  239,163;16255,023;54,65131
 962,39; 8979,810;  194,933;16131,254;55,12487
 962,94; 8917,194;  222,010;16006,485;55,08694
 963,49; 8915,579;  217,394;15937,408;55,33192
 964,04; 8881,656;  226,548;15870,177;55,32673
 964,59; 8819,502;  186,933;15730,408;55,53822
 965,14; 8840,963;  224,087;15700,869;55,67615
 965,69; 8792,040;  205,856;15567,177;55,89483
 966,24; 8755,656;  202,625;15422,100;56,19794
 966,79; 8707,579;  230,933;15378,869;55,95908
 967,34; 8636,579;  192,471;15215,331;56,20839
 967,89; 8616,348;  206,087;15166,023;56,21856
 968,44; 8632,656;  213,010;15120,638;56,47877
 968,99; 8587,502;  219,163;15072,177;56,34101
 969,55; 8576,887;  225,625;14979,023;56,60568
 970,10; 8495,502;  216,548;14840,485;56,61235
 970,65; 8466,963;  227,548;14746,177;56,75064
 971,20; 8460,348;  198,548;14626,715;57,26160
 971,75; 8382,194;  188,933;14519,485;57,17338
 972,30; 8363,887;  220,240;14463,408;57,17581
 972,85; 8321,271;  202,471;14373,792;57,29035
 973,40; 8282,117;  194,625;14285,254;57,39625
 973,95; 8293,271;  226,087;14183,254;57,79958
 974,50; 8319,040;  240,933;14163,254;58,02271
 975,05; 8200,502;  223,010;14003,715;57,88885
 975,60; 8222,733;  222,856;13962,254;58,22582
 976,15; 8184,887;  205,625;13834,485;58,54680
 976,70; 8164,271;  226,010;13747,946;58,70654
 977,25; 8172,733;  233,779;13691,638;58,99121
 977,80; 8142,656;  202,702;13509,023;59,67054
 978,35; 8084,271;  217,394;13366,638;59,82760
 978,89; 8100,425;  191,471;13324,946;60,21981
 979,44; 8088,963;  221,240;13314,792;60,08853
 979,99; 7977,579;  199,625;13033,485;60,60495
 980,54; 7990,425;  240,240;13037,485;60,56136
 981,09; 7957,348;  230,856;12928,254;60,85099
 981,64; 7868,502;  225,702;12795,177;60,80445
 982,19; 7858,810;  257,548;12768,792;60,75544
 982,74; 7853,579;  226,240;12684,946;61,22095
 983,29; 7742,040;  209,548;12498,177;61,29644
 983,84; 7828,656;  223,933;12372,100;62,59976
 984,39; 7817,810;  284,240;12408,792;62,13483
 984,94; 7723,963;  189,317;12135,254;63,07288
 985,49; 7699,271;  237,702;12149,792;62,63862
 986,03; 7672,425;  236,471;12058,946;62,89676
 986,58; 7628,963;  260,933;11876,100;63,43456
 987,13; 7552,040;  222,240;11805,408;63,27976
 987,68; 7499,887;  239,394;11672,562;63,50377
 988,23; 7509,810;  236,702;11640,023;63,78061
 988,78; 7431,271;  212,856;11427,023;64,36871
 989,33; 7400,887;  233,240;11375,562;64,32812
 989,88; 7371,579;  249,087;11319,638;64,33728
 990,42; 7313,348;  222,625;11187,331;64,66861
 990,97; 7221,194;  206,779;11049,331;64,69340
 991,52; 7195,963;  245,779;10962,254;64,85514
 992,07; 7194,810;  247,933;10895,792;65,24200
 992,62; 7082,733;  236,933;10746,100;65,14122
 993,17; 7039,271;  237,779;10666,408;65,21943
 993,71; 6982,117;  239,471;10564,638;65,30302
 994,26; 6931,425;  213,471;10373,792;66,11950
 994,81; 6919,887;  251,240;10370,100;65,90314
 995,36; 6817,963;  219,240;10219,331;65,98663
 995,91; 6780,425;  227,163;10148,562;66,05180
 996,45; 6717,271;  228,471;10034,946;66,16853
 997,00; 6652,810;  206,394; 9881,254;66,63058
 997,55; 6621,502;  239,625; 9831,562;66,53377
 998,10; 6560,117;  256,548; 9740,638;66,46467
 998,65; 6528,040;  232,394; 9689,331;66,57173
 999,19; 6466,425;  253,625; 9552,715;66,81084
 999,74; 6382,963;  264,625; 9371,792;67,18158
1000,29; 6339,271;  237,625; 9336,100;67,06230
1000,84; 6234,271;  231,087; 9207,946;66,87399
1001,38; 6195,579;  227,702; 9067,023;67,51510
1001,93; 6196,656;  245,010; 9071,177;67,43183
1002,48; 6036,194;  213,779; 8896,331;67,05880
1003,03; 6024,271;  232,933; 8861,792;67,11592
1003,57; 5972,963;  236,087; 8769,254;67,23033
1004,12; 5885,271;  260,702; 8650,946;67,03701
1004,67; 5799,656;  220,010; 8534,792;67,10514
1005,22; 5663,733;  215,702; 8437,100;66,26648
1005,76; 5588,963;  210,010; 8245,177;66,94265
1006,31; 5612,502;  234,702; 8237,254;67,20106
1006,86; 5503,963;  226,087; 8080,331;67,19777
1007,40; 5448,733;  207,779; 7979,023;67,44034
1007,95; 5433,271;  226,317; 7911,562;67,75261
1008,50; 5335,810;  236,163; 7762,869;67,75403
1009,04; 5317,271;  225,163; 7689,177;68,22211
1009,59; 5209,656;  237,702; 7508,100;68,38627
1010,14; 5202,194;  218,856; 7450,638;68,90885
1010,68; 5132,271;  226,163; 7322,715;69,13368
1011,23; 5061,502;  224,163; 7241,023;68,93879
1011,78; 5067,271;  239,625; 7121,331;70,15188
1012,32; 5007,810;  246,779; 6990,792;70,59640
1012,87; 5005,810;  254,394; 6989,408;70,54797
1013,42; 4892,117;  218,933; 6858,946;70,37914
1013,96; 4949,194;  256,317; 6901,562;70,62008
1014,51; 4848,348;  195,933; 6746,254;71,02576
1015,06; 4836,502;  208,010; 6779,254;70,43555
1015,60; 4907,502;  260,471; 6820,254;70,84123
1016,15; 4896,271;  219,856; 6777,408;71,31343
1016,69; 4906,887;  228,163; 6822,562;70,94996
1017,24; 4911,963;  212,394; 6819,715;71,12670
1017,79; 4955,810;  259,933; 6863,946;71,10641
1018,33; 4954,348;  216,394; 6880,638;71,09514
1018,88; 5022,348;  236,394; 6917,254;71,63680
1019,42; 5011,271;  217,010; 6946,946;71,23784
1019,97; 5003,963;  207,317; 6931,869;71,33035
1020,51; 5061,656;  254,087; 6983,792;71,43803
1021,06; 5006,194;  206,471; 6926,792;71,42104
1021,61; 5018,040;  188,933; 6906,715;71,88544
1022,15; 5010,194;  183,471; 6878,562;72,09347
1022,70; 5069,579;  227,010; 6876,638;72,82465
1023,24; 5007,348;  213,856; 6841,254;72,32842
1023,79; 5014,117;  228,317; 6780,869;73,03719
1024,33; 4978,733;  219,702; 6723,023;73,17847
1024,88; 4924,887;  231,471; 6608,562;73,59807
1025,42; 4856,194;  233,010; 6528,100;73,44112
1025,97; 4824,579;  220,471; 6481,100;73,54066
1026,51; 4702,194;  186,625; 6314,254;73,69195
1027,06; 4701,887;  209,548; 6251,100;74,35736
1027,60; 4648,579;  226,471; 6163,023;74,48950
1028,15; 4614,963;  240,087; 6059,946;75,17152
1028,69; 4491,733;  197,240; 5920,562;75,03497
1029,24; 4466,271;  221,317; 5901,177;74,73695
1029,78; 4387,656;  202,548; 5790,715;74,89231
1030,33; 4279,887;  193,625; 5668,254;74,63997
1030,87; 4255,425;  210,010; 5598,023;75,08176
1031,42; 4209,117;  195,087; 5524,254;75,32191
1031,96; 4147,117;  224,779; 5448,792;75,08286
1032,51; 4072,656;  207,087; 5353,023;75,11887
1033,05; 4065,656;  218,087; 5307,100;75,60540
1033,60; 3948,810;  184,548; 5169,792;75,50807
1034,14; 3904,502;  210,471; 5137,408;74,97622
1034,69; 3870,271;  212,702; 5090,023;74,99136
1035,23; 3823,733;  198,779; 5015,331;75,26035
1035,77; 3764,502;  198,548; 4943,562;75,15161
1036,32; 3708,656;  186,240; 4832,100;75,81838
1036,86; 3664,425;  218,702; 4793,638;75,31740
1037,41; 3614,040;  220,702; 4727,254;75,29789
1037,95; 3554,425;  190,163; 4612,408;76,07589
1038,50; 3528,040;  200,394; 4609,562;75,47108
1039,04; 3475,656;  224,240; 4565,638;74,89328
1039,58; 3434,733;  183,702; 4440,562;76,37158
1040,13; 3420,579;  204,702; 4391,562;76,80881
1040,67; 3402,887;  239,240; 4383,177;76,34398
1041,21; 3382,271;  227,471; 4300,177;77,46202
1041,76; 3283,579;  196,779; 4221,408;76,69776
1042,30; 3256,425;  211,163; 4185,100;76,63085
1042,85; 3210,963;  205,163; 4093,638;77,30023
1043,39; 3148,810;  211,317; 4014,485;77,23805
1043,93; 3151,810;  227,471; 3991,946;77,68250
1044,48; 3081,040;  213,856; 3927,485;77,20709
1045,02; 3042,194;  205,625; 3871,638;77,37476
1045,56; 3015,348;  234,240; 3864,408;76,61101
1046,11; 2991,502;  207,856; 3784,100;77,83714
1046,65; 2932,579;  221,702; 3705,254;77,81933
1047,19; 2872,733;  207,933; 3653,562;77,33857
1047,74; 2839,656;  192,856; 3590,638;77,89786
1048,28; 2838,963;  216,933; 3554,408;78,56331
1048,82; 2797,271;  240,087; 3521,408;77,93156
1049,37; 2762,887;  227,856; 3472,177;78,13748
1049,91; 2705,271;  225,317; 3429,100;77,40706
1050,45; 2690,656;  235,240; 3373,792;78,23402
1050,99; 2652,502;  222,317; 3323,638;78,35966
1051,54; 2597,963;  206,010; 3256,177;78,42041
1052,08; 2585,271;  243,240; 3236,023;78,25596
1052,62; 2549,194;  233,163; 3212,485;77,73686
1053,16; 2522,425;  213,010; 3153,485;78,53885
1053,71; 2493,271;  217,163; 3094,023;79,11779
1054,25; 2491,656;  228,856; 3051,638;80,16203
1054,79; 2438,502;  232,010; 3029,638;78,87009
1055,33; 2375,963;  182,548; 2962,177;78,91037
1055,88; 2375,656;  229,394; 2943,023;79,09193
1056,42; 2385,425;  233,163; 2932,331;79,73798
1056,96; 2324,117;  235,856; 2842,254;80,12059
1057,50; 2307,502;  222,933; 2837,254;79,73654
1058,05; 2274,271;  218,779; 2793,562;79,83168
1058,59; 2241,117;  250,394; 2746,254;79,76102
1059,13; 2194,887;  203,548; 2659,792;81,07249
1059,67; 2182,271;  229,779; 2629,946;81,34818
1060,21; 2148,656;  223,856; 2607,023;80,76647
1060,76; 2142,348;  230,779; 2567,408;81,80885
1061,30; 2102,887;  251,010; 2541,408;80,85393
1061,84; 2082,117;  221,779; 2478,254;82,44445
1062,38; 2013,040;  211,779; 2426,869;81,31774
1062,92; 2071,425;  252,471; 2455,638;82,56086
1063,46; 2009,733;  238,702; 2404,792;81,76163
1064,01; 1960,271;  225,702; 2381,023;80,47846
1064,55; 1966,502;  231,779; 2324,408;82,89683
1065,09; 1895,656;  203,933; 2303,177;80,58724
1065,63; 1946,425;  259,933; 2301,408;82,61146
1066,17; 1910,887;  257,856; 2265,485;82,33747
1066,71; 1882,194;  247,010; 2241,100;82,00153
1067,25; 1841,887;  217,087; 2177,408;82,88438
1067,80; 1840,425;  248,548; 2184,177;82,24081
1068,34; 1841,194;  252,856; 2149,792;83,73177
1068,88; 1748,733;  226,087; 2092,254;81,59216
1069,42; 1774,117;  253,548; 2100,408;82,33269
1069,96; 1739,271;  225,625; 2046,638;83,12109
1070,50; 1739,425;  257,779; 2045,254;82,89045
1071,04; 1678,733;  214,010; 1980,562;82,91424
1071,58; 1654,579;  221,163; 1952,408;82,79683
1072,12; 1656,733;  239,163; 1941,869;83,25392
1072,66; 1642,963;  226,933; 1951,177;82,12472
1073,21; 1661,963;  240,163; 1947,946;83,25415
1073,75; 1595,579;  227,317; 1904,946;81,55925
1074,29; 1592,194;  247,933; 1861,331;83,31865
1074,83; 1600,040;  248,856; 1857,331;84,00408
1075,37; 1565,579;  249,548; 1841,638;82,66056
1075,91; 1553,040;  251,010; 1813,715;83,31900
1076,45; 1530,733;  235,625; 1789,869;83,32717
1076,99; 1506,656;  244,625; 1763,946;83,06544
1077,53; 1468,425;  229,779; 1720,715;83,07840
1078,07; 1488,348;  234,087; 1738,638;83,36446
1078,61; 1488,656;  236,010; 1687,792;86,28331
1079,15; 1451,733;  230,702; 1680,946;84,19484
1079,69; 1425,810;  231,317; 1660,562;83,57510
1080,23; 1446,040;  250,779; 1638,562;86,12743
1080,77; 1462,963;  277,933; 1655,177;86,04362
1081,31; 1391,963;  223,317; 1575,177;86,44730
1081,85; 1393,887;  253,087; 1587,946;85,46217
1082,39; 1384,810;  228,010; 1561,638;86,74078
1082,93; 1380,733;  244,625; 1558,331;86,48114
1083,47; 1314,040;  218,933; 1495,485;85,78638
1084,01; 1341,271;  253,856; 1518,177;86,00785
1084,55; 1320,810;  235,087; 1476,792;87,43803
1085,09; 1314,733;  253,625; 1495,100;85,47153
1085,63; 1275,425;  237,087; 1444,792;85,97611
1086,17; 1281,194;  227,163; 1443,715;86,64084
1086,71; 1237,271;  230,240; 1414,331;85,04678
1087,24; 1277,502;  260,394; 1423,638;87,43716
1087,78; 1258,348;  248,163; 1414,408;86,61862
1088,32; 1204,656;  220,163; 1367,331;85,81942
1088,86; 1244,271;  253,394; 1386,946;87,41346
1089,40; 1199,194;  238,471; 1338,408;87,34350
1089,94; 1172,963;  221,087; 1311,562;87,29012
1090,48; 1179,502;  244,010; 1317,562;87,13992
1091,02; 1185,425;  247,240; 1305,792;88,62906
1091,56; 1142,656;  239,087; 1292,869;85,74531
1092,10; 1121,502;  218,471; 1240,792;88,33142
1092,63; 1150,887;  258,471; 1270,100;88,21569
1093,17; 1106,733;  247,856; 1250,946;85,62308
1093,71; 1098,579;  229,240; 1210,792;88,56775
1094,25; 1111,963;  253,010; 1244,177;86,66083
1094,79; 1076,579;  237,471; 1191,331;87,96973
1095,33; 1063,348;  250,779; 1192,946;86,24469
1095,87; 1061,194;  231,394; 1167,638;88,63072
1096,40; 1037,733;  220,163; 1142,485;88,64258
1096,94; 1037,733;  242,394; 1159,792;86,69502
1097,48; 1044,271;  243,856; 1143,254;88,99456
1098,02; 1004,194;  233,779; 1105,562;88,37241
1098,56;  984,656;  216,779; 1073,562;89,62330
1099,10;  972,040;  214,087; 1059,485;89,65644
1099,63;  970,348;  221,625; 1069,331;88,32346
1100,17;  972,733;  247,779; 1086,408;86,44514
1100,71;  993,040;  265,010; 1090,100;88,23649

