
Integration time [ms]: 120,000
Averaging Nr. [scans]: 13
Smoothing Nr. [pixels]: 0
Data measured with spectrometer [name]: 2009305U1
Wave   ;Sample   ;Dark     ;Reference;Reflectance
[nm]   ;[counts] ;[counts] ;[counts] ;[%]

 175,72;  206,763;  206,190;  205,981; 0,00000
 176,32;  230,698;  237,033;  226,141; 0,00000
 176,92;  255,766;  264,266;  255,813; 0,00000
 177,52;  261,172;  252,651;  263,188;80,86239
 178,12;  234,850;  240,649;  231,925; 0,00000
 178,72;  265,913;  263,186;  265,876;101,39022
 179,32;  249,684;  268,879;  247,398; 0,00000
 179,92;  257,831;  256,342;  260,441;36,32841
 180,52;  241,770;  235,653;  252,958;35,34957
 181,12;  253,800;  256,034;  255,139; 0,00000
 181,73;  276,222;  283,958;  280,473; 0,00000
 182,33;  355,548;  367,036;  363,131; 0,00000
 182,93;  275,347;  266,420;  263,218; 0,00000
 183,53;  236,627;  238,263;  224,560; 0,00000
 184,13;  247,795;  248,340;  243,186; 0,00000
 184,73;  283,592;  285,339;  281,519; 0,00000
 185,33;  264,839;  242,398;  350,096;20,83707
 185,93;  283,381;  237,627;  350,276;40,61636
 186,53;  289,976;  255,321;  397,500;24,37458
 187,13;  314,809;  279,246;  410,432;27,10910
 187,73;  269,627;  239,166;  377,965;21,94648
 188,33;  279,746;  242,780;  379,925;26,95417
 188,93;  278,898;  258,468;  378,575;17,00970
 189,53;  288,328;  263,927;  393,291;18,86195
 190,13;  315,867;  291,461;  410,850;20,44221
 190,73;  256,236;  227,849;  368,258;20,21747
 191,34;  289,974;  264,544;  409,091;17,59254
 191,94;  267,433;  238,625;  369,356;22,03650
 192,54;  293,227;  253,940;  403,294;26,30438
 193,14;  310,058;  260,938;  400,530;35,18825
 193,74;  293,058;  266,476;  406,261;19,01636
 194,34;  289,286;  258,862;  381,121;24,88548
 194,94;  257,849;  222,707;  361,482;25,32269
 195,54;  233,362;  187,860;  347,753;28,45786
 196,14;  269,487;  236,554;  367,380;25,17304
 196,74;  252,980;  226,629;  358,085;20,04544
 197,34;  243,287;  200,710;  349,296;28,65521
 197,94;  261,354;  238,015;  376,887;16,80564
 198,54;  270,012;  247,708;  396,253;15,01478
 199,14;  249,861;  215,172;  391,913;19,62695
 199,74;  245,685;  201,095;  385,499;24,18075
 200,34;  231,533;  195,942;  389,215;18,41527
 200,94;  274,126;  238,017;  443,894;17,53901
 201,54;  253,273;  219,018;  437,207;15,69996
 202,14;  291,040;  250,635;  486,104;17,15948
 202,74;  255,687;  215,864;  489,715;14,54191
 203,34;  253,247;  196,559;  482,473;19,82690
 203,94;  224,854;  172,327;  490,341;16,51733
 204,54;  308,127;  250,169;  563,434;18,50107
 205,14;  264,232;  202,403;  598,632;15,60433
 205,74;  301,598;  237,789;  683,994;14,30026
 206,34;  273,971;  205,942;  698,391;13,81437
 206,94;  291,222;  226,326;  751,398;12,35930
 207,54;  269,358;  196,173;  776,761;12,60527
 208,14;  300,576;  201,327;  853,273;15,22357
 208,74;  298,080;  203,403;  947,002;12,73229
 209,34;  305,823;  206,172; 1013,233;12,34743
 209,94;  340,930;  217,941; 1098,165;13,97243
 210,54;  327,186;  205,173; 1216,471;12,06492
 211,14;  335,666;  223,172; 1337,916;10,09143
 211,73;  362,270;  211,248; 1401,352;12,68975
 212,33;  371,917;  221,248; 1532,000;11,49484
 212,93;  375,431;  198,633; 1616,061;12,47313
 213,53;  343,212;  187,787; 1690,511;10,34287
 214,13;  373,254;  205,175; 1789,528;10,60870
 214,73;  367,809;  174,096; 1787,335;12,00771
 215,33;  345,468;  171,941; 1828,703;10,47387
 215,93;  383,921;  207,866; 1948,030;10,11716
 216,53;  335,691;  172,941; 1998,147; 8,91683
 217,13;  427,535;  214,943; 2243,775;10,47854
 217,73;  402,493;  199,251; 2400,124; 9,23462
 218,33;  372,613;  152,637; 2569,913; 9,10017
 218,93;  435,286;  190,408; 2873,389; 9,12710
 219,53;  438,284;  207,790; 3175,652; 7,76630
 220,13;  444,765;  162,560; 3464,196; 8,54741
 220,73;  482,810;  191,018; 3839,028; 7,99864
 221,32;  527,542;  200,172; 4216,156; 8,15166
 221,92;  561,047;  196,791; 4639,081; 8,19973
 222,52;  579,953;  178,636; 5079,216; 8,18918
 223,12;  621,734;  197,866; 5476,665; 8,02962
 223,72;  668,866;  198,251; 5856,713; 8,31701
 224,32;  690,059;  196,713; 6240,724; 8,16256
 224,92;  686,262;  177,482; 6553,854; 7,97915
 225,52;  758,123;  206,403; 6883,291; 8,26312
 226,12;  787,004;  193,789; 7165,293; 8,50914
 226,72;  774,028;  163,635; 7526,693; 8,28994
 227,31;  824,385;  158,096; 7872,515; 8,63693
 227,91;  892,372;  201,172; 8321,158; 8,51232
 228,51;  921,094;  182,325; 8653,130; 8,72136
 229,11;  966,568;  187,019; 9054,678; 8,79092
 229,71; 1028,041;  170,249; 9390,067; 9,30378
 230,31; 1063,743;  171,790; 9756,860; 9,30565
 230,91; 1123,659;  168,940;10006,323; 9,70501
 231,51; 1157,850;  168,328;10386,639; 9,68382
 232,10; 1219,410;  183,021;10696,167; 9,85802
 232,70; 1314,748;  194,554;10857,044;10,50593
 233,30; 1377,063;  216,404;11192,042;10,57487
 233,90; 1427,190;  178,020;11306,710;11,22477
 234,50; 1496,606;  179,789;11422,358;11,71277
 235,10; 1537,955;  175,174;11497,393;12,03634
 235,70; 1626,226;  199,019;11552,599;12,57055
 236,29; 1681,417;  193,710;11539,011;13,11298
 236,89; 1728,712;  173,017;11432,385;13,81689
 237,49; 1808,375;  193,481;11407,474;14,40070
 238,09; 1822,048;  184,096;11159,853;14,92336
 238,69; 1887,235;  221,555;10905,582;15,59038
 239,29; 1888,464;  177,711;10632,847;16,36280
 239,89; 1933,278;  193,709;10329,101;17,16331
 240,48; 1900,713;  170,634; 9930,137;17,72711
 241,08; 1917,194;  188,326; 9570,759;18,42665
 241,68; 1938,711;  204,558; 9247,075;19,17777
 242,28; 1943,450;  175,097; 8887,258;20,29753
 242,88; 1987,463;  221,713; 8667,114;20,90783
 243,48; 1985,397;  214,712; 8313,811;21,86274
 244,07; 1935,113;  190,403; 8094,904;22,07236
 244,67; 1962,225;  202,404; 7919,137;22,80526
 245,27; 2004,039;  209,248; 7768,736;23,74222
 245,87; 2009,495;  207,021; 7699,724;24,05639
 246,47; 2018,374;  191,787; 7648,837;24,49477
 247,06; 2043,527;  182,557; 7668,874;24,85829
 247,66; 2083,703;  177,865; 7742,480;25,19411
 248,26; 2134,790;  209,710; 7888,023;25,07165
 248,86; 2183,869;  204,095; 8057,470;25,20922
 249,46; 2184,487;  154,097; 8263,592;25,03720
 250,05; 2328,910;  201,404; 8617,658;25,27854
 250,65; 2359,994;  173,710; 8958,192;24,88802
 251,25; 2461,405;  181,173; 9379,330;24,79010
 251,85; 2603,621;  192,401;10002,258;24,57956
 252,44; 2661,668;  159,941;10613,594;23,93160
 253,04; 2823,656;  202,095;11357,952;23,49941
 253,64; 2915,627;  146,479;12047,059;23,26902
 254,24; 3079,393;  203,096;13011,072;22,45708
 254,84; 3215,872;  182,558;13973,284;21,99531
 255,43; 3357,792;  187,249;14911,662;21,53256
 256,03; 3475,254;  184,940;15888,971;20,95203
 256,63; 3618,992;  188,632;17020,977;20,37957
 257,23; 3670,655;  168,248;17831,122;19,82920
 257,82; 3759,931;  184,093;18861,091;19,14568
 258,42; 3799,843;  150,092;19716,526;18,65312
 259,02; 3920,510;  206,326;20653,546;18,16474
 259,62; 3890,198;  179,246;21349,710;17,52891
 260,21; 3891,451;  192,095;21915,106;17,02966
 260,81; 3855,355;  185,173;22495,737;16,45042
 261,41; 3788,529;  171,785;22922,186;15,89750
 262,01; 3778,940;  217,245;23442,495;15,33544
 262,60; 3681,039;  178,555;23778,968;14,84077
 263,20; 3618,816;  175,248;24150,947;14,36274
 263,80; 3538,640;  207,630;24331,166;13,80813
 264,40; 3401,370;  168,938;24458,116;13,30812
 264,99; 3322,705;  194,091;24683,024;12,77562
 265,59; 3195,031;  178,244;24839,470;12,23292
 266,19; 3121,003;  174,784;25004,137;11,86587
 266,78; 3075,709;  220,244;25181,188;11,43973
 267,38; 3004,676;  187,475;25148,978;11,28618
 267,98; 2906,820;  183,860;25163,975;10,90051
 268,58; 2812,264;  185,552;25187,493;10,50603
 269,17; 2742,479;  174,781;25197,113;10,26163
 269,77; 2691,215;  200,247;25012,498;10,03927
 270,37; 2574,944;  164,091;24906,542; 9,74379
 270,96; 2557,148;  211,016;24778,733; 9,54966
 271,56; 2466,734;  185,017;24556,184; 9,36236
 272,16; 2381,993;  180,862;24447,094; 9,07076
 272,75; 2361,732;  183,016;24280,085; 9,04142
 273,35; 2320,251;  193,401;24242,925; 8,84363
 273,95; 2283,787;  185,939;24172,363; 8,74598
 274,54; 2281,918;  170,404;24239,406; 8,77275
 275,14; 2303,347;  214,862;24548,815; 8,58260
 275,74; 2263,188;  162,016;24587,860; 8,60225
 276,33; 2343,635;  208,247;25044,732; 8,59779
 276,93; 2358,332;  185,173;25321,300; 8,64556
 277,53; 2421,088;  186,710;25917,289; 8,68374
 278,12; 2457,428;  175,017;26404,823; 8,70159
 278,72; 2562,755;  218,326;26931,328; 8,77636
 279,32; 2619,883;  183,249;27449,443; 8,93647
 279,91; 2693,546;  169,556;28219,319; 8,99826
 280,51; 2809,800;  188,941;28791,103; 9,16315
 281,11; 2916,287;  187,248;29584,988; 9,28316
 281,70; 2974,836;  168,248;30052,107; 9,39165
 282,30; 3134,195;  170,709;30562,954; 9,75080
 282,90; 3237,231;  170,401;31103,033; 9,91454
 283,49; 3356,998;  191,478;31616,049;10,07339
 284,09; 3531,852;  213,633;32099,219;10,40664
 284,69; 3622,632;  203,248;32400,091;10,62025
 285,28; 3784,412;  207,094;32759,557;10,98939
 285,88; 3953,336;  251,862;33084,328;11,27382
 286,47; 4026,252;  201,017;33140,986;11,61275
 287,07; 4221,058;  217,864;33222,781;12,12909
 287,67; 4401,474;  217,558;33291,580;12,65016
 288,26; 4586,822;  178,095;33306,941;13,30782
 288,86; 4815,508;  192,248;33266,216;13,97855
 289,46; 5064,502;  200,479;33492,029;14,61038
 290,05; 5305,811;  179,403;33465,590;15,40101
 290,65; 5613,647;  181,170;33676,720;16,21850
 291,24; 5935,944;  195,402;33825,792;17,06951
 291,84; 6298,069;  208,863;33985,131;18,02806
 292,44; 6630,925;  198,558;34151,077;18,94518
 293,03; 7015,469;  252,864;34266,281;19,88217
 293,63; 7318,203;  185,401;34337,087;20,88565
 294,22; 7625,609;  202,941;34520,577;21,62931
 294,82; 7935,312;  194,707;34525,314;22,54724
 295,41; 8062,297;  178,094;34273,568;23,12390
 296,01; 8369,115;  222,708;34136,677;24,02080
 296,61; 8515,721;  208,479;33934,079;24,63186
 297,20; 8613,987;  193,708;33598,485;25,20681
 297,80; 8813,750;  205,019;33397,972;25,93542
 298,39; 8931,160;  184,401;33020,027;26,63801
 298,99; 9087,253;  201,785;32903,756;27,17105
 299,58; 9194,862;  205,481;32727,936;27,64054
 300,18; 9342,474;  224,634;32490,581;28,25840
 300,78; 9301,896;  188,172;32187,916;28,48062
 301,37; 9432,388;  203,860;32093,637;28,93883
 301,97; 9606,629;  197,941;32113,006;29,48040
 302,56; 9660,639;  199,247;32027,664;29,72624
 303,16; 9755,750;  177,785;31951,874;30,14395
 303,75; 9896,032;  180,480;31915,049;30,61504
 304,35;10021,280;  183,559;32178,952;30,74731
 304,94;10167,417;  194,248;32233,281;31,12818
 305,54;10265,234;  207,864;32162,541;31,47386
 306,13;10264,712;  162,251;32077,636;31,65389
 306,73;10249,345;  174,712;31831,619;31,82444
 307,33;10337,566;  201,327;31795,693;32,08243
 307,92;10446,881;  200,479;31894,996;32,32862
 308,52;10651,395;  176,555;32230,037;32,67926
 309,11;10888,537;  190,246;32853,435;32,75336
 309,71;10998,800;  169,015;33115,929;32,87041
 310,30;11175,141;  186,095;33312,852;33,17272
 310,90;11350,910;  224,787;33675,082;33,26166
 311,49;11416,066;  197,941;33789,299;33,39587
 312,09;11586,348;  166,250;34010,759;33,74284
 312,68;11814,443;  243,095;34458,742;33,81888
 313,28;11857,265;  166,095;34485,458;34,06581
 313,87;11852,646;  152,095;34580,142;33,98552
 314,47;12053,000;  182,708;34903,689;34,18766
 315,06;12134,565;  168,095;34973,171;34,38139
 315,66;12255,425;  163,865;35216,220;34,49571
 316,25;12194,209;  160,709;35138,581;34,40318
 316,85;12199,263;  157,327;35266,702;34,29835
 317,44;12319,983;  183,861;35345,322;34,51541
 318,04;12347,643;  172,632;35415,134;34,54639
 318,63;12315,513;  163,866;35475,284;34,41280
 319,22;12343,193;  190,093;35603,238;34,31805
 319,82;12368,637;  182,940;35598,409;34,40784
 320,41;12344,394;  191,786;35582,998;34,33793
 321,01;12361,372;  192,557;35662,851;34,30706
 321,60;12378,964;  188,479;35752,145;34,27792
 322,20;12335,285;  178,479;35804,348;34,12353
 322,79;12408,502;  213,479;35936,914;34,13732
 323,39;12348,059;  182,482;35894,455;34,06582
 323,98;12310,080;  165,018;35826,694;34,05634
 324,58;12251,255;  170,785;35741,626;33,96172
 325,17;12144,089;  185,247;35643,368;33,72666
 325,76;12135,948;  201,710;35516,532;33,79385
 326,36;11957,946;  169,711;35143,238;33,70616
 326,95;11823,704;  199,248;34856,367;33,54132
 327,55;11704,554;  170,402;34427,799;33,66908
 328,14;11487,545;  176,019;34062,779;33,38037
 328,74;11351,199;  203,478;33714,463;33,26587
 329,33;11168,401;  192,942;33260,860;33,19066
 329,92;10991,557;  166,323;32673,248;33,30132
 330,52;10757,145;  197,250;32014,590;33,18912
 331,11;10603,132;  173,479;31641,888;33,14325
 331,71;10352,777;  170,402;31080,243;32,94218
 332,30;10140,956;  197,787;30517,281;32,79464
 332,89;10014,096;  240,326;30044,845;32,79291
 333,49; 9730,487;  200,402;29498,033;32,52852
 334,08; 9541,155;  187,555;29070,826;32,38414
 334,68; 9378,120;  200,325;28514,746;32,41385
 335,27; 9256,860;  203,481;28243,027;32,28790
 335,86; 9132,978;  223,709;27980,734;32,09735
 336,46; 8971,803;  202,020;27710,995;31,87972
 337,05; 8839,720;  177,786;27521,557;31,67790
 337,65; 8761,057;  169,786;27398,258;31,55253
 338,24; 8770,731;  232,172;27387,005;31,44397
 338,83; 8724,737;  210,710;27283,615;31,44852
 339,43; 8629,613;  178,939;27253,472;31,21263
 340,02; 8573,239;  191,401;27181,898;31,05477
 340,61; 8534,859;  186,403;27225,967;30,87497
 341,21; 8551,968;  209,709;27196,847;30,91198
 341,80; 8460,897;  182,709;27090,572;30,76494
 342,40; 8473,150;  196,404;27238,814;30,60654
 342,99; 8488,326;  188,018;27367,076;30,53935
 343,58; 8474,863;  173,634;27517,244;30,35893
 344,18; 8489,658;  200,865;27651,898;30,19483
 344,77; 8532,197;  187,785;28024,285;29,97651
 345,36; 8558,242;  166,710;28311,059;29,81605
 345,96; 8675,198;  203,019;28500,960;29,93921
 346,55; 8729,694;  173,097;28737,654;29,95530
 347,14; 8739,576;  171,635;29163,196;29,55323
 347,74; 8805,167;  152,483;29600,140;29,38327
 348,33; 8995,416;  178,637;30224,469;29,34443
 348,92; 9158,839;  194,022;30811,556;29,28001
 349,52; 9178,875;  161,560;31366,060;28,89748
 350,11; 9259,941;  174,016;31655,401;28,86126
 350,70; 9194,818;  179,018;31760,585;28,54766
 351,29; 9116,066;  167,552;31496,472;28,56311
 351,89; 9065,754;  185,707;31459,231;28,39478
 352,48; 9043,776;  150,095;31481,665;28,38569
 353,07; 8961,482;  180,789;31394,406;28,13097
 353,67; 8870,725;  197,407;31327,799;27,86125
 354,26; 8787,129;  188,327;31169,708;27,75474
 354,85; 8704,074;  192,865;30989,469;27,63684
 355,45; 8581,229;  164,017;30827,279;27,45048
 356,04; 8533,815;  170,020;30732,752;27,36599
 356,63; 8432,031;  203,248;30526,411;27,13695
 357,22; 8381,595;  189,245;30393,007;27,12361
 357,82; 8228,614;  181,169;30256,012;26,75806
 358,41; 8204,915;  200,787;30090,130;26,77920
 359,00; 8035,550;  173,709;29853,753;26,48865
 359,60; 7970,794;  190,864;29873,416;26,21045
 360,19; 7892,203;  193,558;29590,760;26,18836
 360,78; 7824,875;  188,094;29504,619;26,04941
 361,37; 7685,084;  174,171;29270,743;25,81374
 361,97; 7668,749;  196,248;29221,604;25,74473
 362,56; 7559,257;  182,170;28881,611;25,70464
 363,15; 7487,290;  228,171;28680,782;25,51301
 363,74; 7329,762;  187,016;28292,479;25,41408
 364,34; 7227,481;  208,632;27900,963;25,34582
 364,93; 7031,665;  166,939;27432,242;25,17752
 365,52; 6927,670;  156,171;27149,349;25,08596
 366,11; 6795,487;  185,709;26818,418;24,81827
 366,71; 6635,039;  171,093;26385,084;24,65838
 367,30; 6548,830;  180,094;26015,728;24,65098
 367,89; 6459,851;  215,326;25792,448;24,41449
 368,48; 6358,949;  195,400;25397,266;24,45672
 369,07; 6227,279;  187,864;25043,585;24,29789
 369,67; 6132,890;  207,631;24757,555;24,13555
 370,26; 5989,005;  171,403;24446,911;23,96491
 370,85; 5921,118;  187,479;24211,222;23,86655
 371,44; 5837,512;  186,940;24029,840;23,69918
 372,03; 5762,649;  165,709;23713,859;23,76807
 372,63; 5624,696;  159,710;23410,234;23,50479
 373,22; 5542,435;  176,172;23100,648;23,40845
 373,81; 5463,489;  154,402;22790,787;23,45378
 374,40; 5387,482;  172,711;22556,906;23,29666
 374,99; 5330,144;  171,017;22295,223;23,31892
 375,59; 5202,764;  173,327;22022,330;23,01907
 376,18; 5197,729;  202,632;21844,521;23,08069
 376,77; 5106,986;  199,402;21647,136;22,88159
 377,36; 5100,077;  211,248;21601,302;22,85562
 377,95; 5017,304;  199,093;21265,640;22,87138
 378,55; 4967,910;  170,403;21142,389;22,87579
 379,14; 4920,986;  191,863;20992,867;22,73507
 379,73; 4902,106;  191,709;20931,581;22,71180
 380,32; 4913,532;  204,864;21038,885;22,60086
 380,91; 4858,485;  180,246;20751,280;22,74188
 381,50; 4813,004;  193,093;20820,428;22,39703
 382,10; 4803,994;  165,941;20667,192;22,62327
 382,69; 4750,329;  163,402;20681,255;22,35579
 383,28; 4808,099;  208,016;20598,487;22,55996
 383,87; 4728,610;  177,478;20409,463;22,49474
 384,46; 4670,969;  168,553;20400,003;22,25454
 385,05; 4736,836;  211,554;20403,685;22,41112
 385,64; 4716,026;  188,093;20372,649;22,43266
 386,24; 4689,166;  160,784;20295,909;22,48996
 386,83; 4717,135;  198,091;20302,492;22,47788
 387,42; 4722,828;  203,016;20441,744;22,33249
 388,01; 4771,715;  186,706;20699,682;22,35175
 388,60; 4847,693;  185,092;20887,574;22,52194
 389,19; 4860,555;  170,858;21113,167;22,39341
 389,78; 4936,128;  175,166;21354,207;22,47959
 390,37; 5081,374;  240,245;21869,971;22,38183
 390,96; 5116,378;  187,861;22007,018;22,58802
 391,56; 5161,312;  188,088;22145,833;22,64907
 392,15; 5186,207;  179,551;22389,615;22,54229
 392,74; 5247,755;  148,471;22543,599;22,76961
 393,33; 5372,099;  171,703;22893,238;22,88752
 393,92; 5458,487;  187,162;23385,266;22,72309
 394,51; 5479,541;  160,626;23543,656;22,74690
 395,10; 5585,542;  201,082;23813,485;22,80353
 395,69; 5642,716;  185,775;23823,183;23,08604
 396,28; 5636,843;  201,850;24015,931;22,82260
 396,87; 5716,025;  193,078;24081,304;23,11996
 397,46; 5760,709;  200,384;24179,303;23,18839
 398,06; 5841,988;  211,997;24445,759;23,23202
 398,65; 5856,015;  185,376;24492,664;23,32896
 399,24; 5922,571;  207,913;24704,071;23,32879
 399,83; 5938,668;  176,982;24625,116;23,56698
 400,42; 6020,980;  211,205;24842,510;23,58695
 401,01; 6072,402;  179,889;24932,269;23,80584
 401,60; 6116,982;  188,339;24983,054;23,91091
 402,19; 6159,884;  213,638;24885,873;24,10096
 402,78; 6176,796;  212,393;24859,831;24,19888
 403,37; 6168,276;  187,995;24735,412;24,36216
 403,96; 6110,621;  201,825;24598,670;24,21951
 404,55; 6100,628;  199,577;24481,590;24,30215
 405,14; 6094,277;  171,484;24322,686;24,52380
 405,73; 6140,478;  193,696;24332,812;24,63546
 406,32; 6159,320;  198,837;24169,286;24,86596
 406,91; 6123,623;  194,977;23957,738;24,94932
 407,50; 6095,523;  192,585;23770,569;25,03580
 408,09; 6034,866;  181,349;23494,401;25,10833
 408,68; 6070,827;  190,730;23311,370;25,43224
 409,27; 6053,288;  177,811;23167,657;25,55683
 409,86; 6063,965;  178,438;23026,640;25,75926
 410,45; 6085,351;  217,524;22985,816;25,77192
 411,04; 6061,886;  217,688;22860,020;25,81094
 411,63; 6048,671;  197,547;22598,919;26,11949
 412,22; 6052,511;  200,789;22354,136;26,41462
 412,81; 6039,000;  207,793;22116,140;26,61637
 413,40; 5948,126;  215,414;21741,903;26,63097
 413,99; 5989,028;  254,489;21524,876;26,96020
 414,58; 5825,087;  175,721;21073,854;27,03287
 415,17; 5804,440;  188,485;20829,803;27,20735
 415,76; 5756,959;  179,327;20677,125;27,21088
 416,35; 5754,863;  181,560;20494,601;27,43707
 416,94; 5809,795;  209,790;20461,621;27,65185
 417,53; 5901,742;  188,640;20729,078;27,81393
 418,12; 5963,108;  184,795;20798,517;28,03139
 418,71; 6152,088;  201,952;21118,069;28,44761
 419,30; 6181,339;  187,026;21248,478;28,46106
 419,89; 6282,462;  183,411;21406,545;28,73775
 420,48; 6423,850;  211,875;21729,859;28,86876
 421,07; 6447,317;  199,799;21756,082;28,98235
 421,66; 6498,477;  166,725;21882,674;29,15715
 422,25; 6568,447;  188,499;21834,145;29,47451
 422,84; 6611,997;  209,576;21784,363;29,67548
 423,43; 6547,185;  194,498;21599,345;29,67874
 424,02; 6574,576;  216,345;21236,568;30,24816
 424,60; 6410,109;  185,119;20935,846;29,99890
 425,19; 6408,117;  193,424;20636,190;30,40045
 425,78; 6434,734;  208,732;20452,905;30,75454
 426,37; 6381,776;  215,580;20351,693;30,62257
 426,96; 6442,831;  204,350;20244,355;31,13014
 427,55; 6425,400;  185,814;20114,500;31,30957
 428,14; 6398,103;  177,431;19907,679;31,52861
 428,73; 6373,365;  193,505;19662,767;31,74162
 429,32; 6420,684;  206,349;19635,081;31,98528
 429,91; 6461,020;  223,198;19612,702;32,17113
 430,50; 6408,873;  202,892;19500,141;32,15993
 431,08; 6488,776;  215,893;19308,556;32,85494
 431,67; 6465,169;  243,279;19226,519;32,77570
 432,26; 6430,516;  255,204;18972,029;32,99337
 432,85; 6382,475;  264,049;18670,071;33,24143
 433,44; 6325,606;  256,128;18374,078;33,49980
 434,03; 6244,395;  274,362;17945,373;33,78433
 434,62; 6089,428;  240,744;17513,832;33,86010
 435,21; 6096,037;  255,742;17325,893;34,21349
 435,79; 6047,861;  257,053;17156,422;34,26642
 436,38; 6075,400;  243,825;17040,134;34,71938
 436,97; 6062,372;  249,595;16951,918;34,80221
 437,56; 6060,503;  241,445;16737,730;35,27496
 438,15; 6013,941;  224,213;16627,831;35,29543
 438,74; 6077,570;  254,137;16671,997;35,47011
 439,33; 6115,838;  234,675;16665,485;35,79351
 439,91; 6120,358;  195,446;16745,539;35,79987
 440,50; 6211,222;  256,677;16826,598;35,93587
 441,09; 6325,671;  248,679;16918,761;36,45448
 441,68; 6291,551;  226,912;16891,992;36,39130
 442,27; 6340,674;  203,219;16926,268;36,70057
 442,86; 6363,492;  193,070;16938,724;36,84790
 443,44; 6425,881;  201,915;16973,926;37,10924
 444,03; 6496,091;  272,070;17030,688;37,13923
 444,62; 6455,001;  198,455;16809,869;37,66414
 445,21; 6422,865;  226,378;16725,775;37,55584
 445,80; 6458,528;  248,380;16613,094;37,94840
 446,39; 6442,110;  267,841;16375,961;38,33016
 446,97; 6307,103;  191,537;16160,963;38,29546
 447,56; 6266,865;  210,924;15950,120;38,47681
 448,15; 6210,341;  200,152;15745,712;38,66177
 448,74; 6191,818;  220,922;15485,709;39,11549
 449,33; 6105,593;  202,693;15383,470;38,88404
 449,91; 6060,201;  203,926;15109,973;39,28791
 450,50; 6045,686;  195,849;14895,257;39,79641
 451,09; 6041,359;  221,695;14756,482;40,03955
 451,68; 6001,940;  233,081;14677,424;39,93853
 452,26; 6003,709;  219,313;14596,076;40,23434
 452,85; 5949,344;  200,235;14474,891;40,27494
 453,44; 6033,307;  222,316;14479,460;40,75845
 454,03; 6038,527;  192,698;14478,667;40,92007
 454,61; 6034,652;  189,239;14396,333;41,14432
 455,20; 6138,140;  218,779;14612,547;41,12447
 455,79; 6184,291;  225,238;14619,887;41,39770
 456,38; 6254,189;  227,858;14679,944;41,69869
 456,97; 6302,374;  197,550;14724,439;42,02431
 457,55; 6326,766;  194,244;14704,263;42,26405
 458,14; 6349,726;  232,395;14764,999;42,09384
 458,73; 6351,111;  211,321;14639,289;42,55478
 459,31; 6387,400;  235,477;14734,150;42,43094
 459,90; 6461,079;  260,476;14742,755;42,81511
 460,49; 6541,154;  290,167;14857,540;42,91087
 461,08; 6555,646;  205,170;14994,915;42,93837
 461,66; 6574,800;  201,938;15018,878;43,01065
 462,25; 6671,292;  212,633;15094,177;43,40046
 462,84; 6703,914;  238,171;15186,634;43,25357
 463,43; 6648,591;  166,559;15144,195;43,27807
 464,01; 6724,334;  214,483;15144,655;43,60198
 464,60; 6752,075;  260,019;15027,226;43,96265
 465,19; 6623,280;  190,945;14816,054;43,98145
 465,77; 6669,818;  212,023;14808,860;44,24106
 466,36; 6643,912;  222,251;14715,630;44,30755
 466,95; 6528,683;  200,713;14380,192;44,62767
 467,53; 6420,025;  214,024;14067,267;44,79818
 468,12; 6314,942;  232,717;13804,695;44,81458
 468,71; 6249,653;  215,714;13615,950;45,02860
 469,29; 6159,586;  193,025;13341,050;45,37991
 469,88; 6030,527;  199,180;13051,877;45,37061
 470,47; 6120,350;  265,874;13174,114;45,35456
 471,06; 6132,502;  213,567;13182,129;45,64064
 471,64; 6151,471;  212,489;13203,597;45,71574
 472,23; 6173,390;  201,032;13254,145;45,75428
 472,81; 6290,383;  189,722;13320,592;46,46045
 473,40; 6375,962;  203,724;13489,778;46,45651
 473,99; 6514,220;  291,955;13670,571;46,50903
 474,57; 6548,425;  206,340;13843,379;46,50632
 475,16; 6617,578;  209,184;13975,857;46,55005
 475,75; 6742,817;  225,880;14126,126;46,88361
 476,33; 6806,640;  231,651;14186,402;47,11650
 476,92; 6771,766;  225,955;14294,896;46,52668
 477,51; 6864,031;  226,265;14305,166;47,14691
 478,09; 6879,471;  215,881;14379,136;47,04844
 478,68; 6868,341;  209,189;14282,766;47,31670
 479,27; 6951,416;  248,495;14293,167;47,72572
 479,85; 6933,433;  211,573;14301,263;47,70765
 480,44; 6994,818;  197,651;14413,724;47,81325
 481,02; 7602,415;  214,883;15705,124;47,69152
 481,61; 8648,342;  235,883;17784,057;47,93923
 482,20; 9269,714;  228,345;19087,299;47,94205
 482,78; 9720,327;  254,420;19889,907;48,20816
 483,37;10003,577;  246,424;20496,240;48,18391
 483,95;10204,003;  264,655;20742,275;48,53761
 484,54;10250,920;  271,113;20974,954;48,20268
 485,13;10169,278;  230,350;20987,663;47,88157
 485,71;10104,793;  213,964;20708,572;48,26064
 486,30; 9972,387;  254,118;20441,773;48,13966
 486,88; 9869,343;  297,196;20068,137;48,41524
 487,47; 9481,530;  269,504;19393,654;48,16960
 488,05; 9050,467;  241,428;18513,703;48,20986
 488,64; 8433,164;  251,737;17181,772;48,32493
 489,23; 7612,753;  257,890;15370,558;48,66687
 489,81; 6517,044;  257,506;13084,560;48,79950
 490,40; 6158,898;  211,583;12391,193;48,83010
 490,98; 6005,326;  199,276;12068,713;48,91597
 491,57; 5961,056;  234,275;11934,972;48,94394
 492,15; 6003,789;  209,738;11917,736;49,48798
 492,74; 5914,443;  227,043;11823,996;49,04219
 493,32; 5925,363;  233,507;11715,855;49,57050
 493,91; 5861,369;  217,431;11573,270;49,70075
 494,50; 5823,777;  218,588;11565,728;49,39738
 495,08; 5821,276;  197,895;11497,640;49,76556
 495,67; 5800,485;  233,046;11500,167;49,41315
 496,25; 5759,581;  176,202;11360,825;49,92014
 496,84; 5753,460;  192,738;11319,206;49,97742
 497,42; 5719,521;  189,741;11300,152;49,77116
 498,01; 5741,893;  214,046;11207,066;50,28506
 498,59; 5670,097;  182,972;11161,410;49,98093
 499,18; 5634,694;  199,585;11155,560;49,60863
 499,76; 5664,342;  216,509;11119,230;49,96765
 500,35; 5567,862;  203,973;10882,860;50,22891
 500,93; 5524,216;  199,741;10852,522;49,98202
 501,52; 5503,259;  187,433;10777,850;50,19468
 502,10; 5505,309;  209,897;10763,001;50,17871
 502,69; 5409,689;  202,052;10561,029;50,27173
 503,27; 5342,622;  170,896;10399,589;50,56096
 503,86; 5324,249;  199,206;10309,559;50,69104
 504,44; 5277,959;  170,899;10225,387;50,79384
 505,03; 5126,973;  168,284;10014,052;50,36366
 505,61; 5074,484;  184,514; 9849,683;50,59373
 506,19; 5021,695;  207,822; 9685,138;50,79363
 506,78; 4903,187;  169,363; 9527,130;50,58711
 507,36; 4826,137;  180,437; 9350,709;50,66043
 507,95; 4795,099;  189,902; 9217,702;51,01129
 508,53; 4685,489;  186,978; 9089,213;50,53237
 509,12; 4625,567;  183,133; 8931,889;50,77790
 509,70; 4574,565;  208,979; 8738,711;51,18081
 510,29; 4532,616;  216,980; 8622,325;51,34394
 510,87; 4386,230;  185,670; 8439,266;50,89370
 511,46; 4320,005;  172,363; 8295,221;51,06136
 512,04; 4242,537;  183,057; 8141,418;51,00900
 512,62; 4195,906;  193,671; 7961,884;51,52067
 513,21; 4068,614;  172,365; 7817,032;50,96688
 513,79; 4011,561;  187,215; 7674,451;51,07820
 514,38; 3941,323;  163,214; 7525,973;51,31376
 514,96; 3911,277;  202,829; 7431,045;51,30517
 515,54; 3811,411;  168,753; 7310,384;51,00597
 516,13; 3756,036;  195,445; 7184,156;50,94775
 516,71; 3724,284;  181,139; 7057,329;51,52774
 517,30; 3621,297;  174,371; 6897,877;51,26679
 517,88; 3584,788;  201,217; 6861,348;50,80338
 518,46; 3520,847;  178,371; 6716,980;51,11906
 519,05; 3484,221;  181,218; 6675,169;50,86277
 519,63; 3472,930;  188,756; 6657,628;50,76888
 520,22; 3444,228;  210,682; 6573,454;50,81978
 520,80; 3393,260;  186,990; 6511,563;50,69544
 521,38; 3398,393;  228,526; 6480,151;50,70469
 521,97; 3337,403;  176,683; 6435,751;50,49826
 522,55; 3338,131;  193,375; 6441,369;50,33225
 523,13; 3328,306;  185,684; 6417,552;50,42826
 523,72; 3324,569;  192,371; 6379,451;50,62482
 524,30; 3406,199;  213,069; 6533,696;50,51920
 524,89; 3401,743;  170,375; 6568,322;50,50632
 525,47; 3474,996;  194,762; 6641,834;50,87944
 526,05; 3475,712;  165,839; 6700,272;50,65280
 526,64; 3541,974;  203,686; 6858,573;50,16296
 527,22; 3613,389;  205,531; 7021,968;49,99471
 527,80; 3701,424;  226,301; 7109,354;50,48810
 528,39; 3724,242;  182,610; 7211,560;50,38636
 528,97; 3788,214;  190,071; 7389,729;49,97659
 529,55; 3902,411;  203,068; 7570,114;50,21474
 530,14; 4000,973;  210,841; 7752,995;50,25266
 530,72; 4040,270;  189,455; 7873,931;50,11161
 531,30; 4080,928;  169,226; 7991,642;50,00631
 531,89; 4162,977;  196,841; 8119,311;50,06186
 532,47; 4226,360;  218,303; 8207,133;50,17076
 533,05; 4269,369;  218,609; 8296,845;50,14411
 533,63; 4302,732;  221,611; 8315,337;50,42327
 534,22; 4252,312;  183,150; 8347,564;49,84022
 534,80; 4378,860;  210,151; 8468,989;50,47573
 535,38; 4413,385;  289,610; 8541,133;49,97593
 535,97; 4336,827;  188,688; 8506,819;49,86864
 536,55; 4427,751;  237,997; 8565,379;50,31298
 537,13; 4380,531;  233,379; 8521,347;50,03823
 537,71; 4421,192;  268,379; 8509,237;50,39297
 538,30; 4473,093;  262,381; 8620,437;50,37909
 538,88; 4531,906;  294,614; 8669,555;50,59489
 539,46; 4634,280;  332,074; 8869,299;50,39349
 540,05; 4691,244;  334,152; 8958,680;50,51977
 540,63; 4828,725;  355,383; 9175,417;50,71797
 541,21; 4896,066;  374,461; 9347,510;50,39095
 541,79; 4938,577;  394,230; 9407,563;50,41805
 542,38; 5037,597;  418,921; 9632,417;50,12946
 542,96; 5095,779;  417,308; 9729,423;50,24070
 543,54; 5185,971;  449,383; 9969,913;49,75131
 544,12; 5267,089;  410,461;10121,794;50,00991
 544,70; 5293,560;  398,462;10217,026;49,85554
 545,29; 5389,743;  420,844;10377,976;49,90291
 545,87; 5389,038;  403,384;10385,410;49,94632
 546,45; 5350,781;  352,305;10464,118;49,43204
 547,03; 5385,403;  365,768;10550,404;49,28635
 547,62; 5463,259;  346,307;10688,599;49,47600
 548,20; 5533,839;  356,308;10912,672;49,04654
 548,78; 5558,926;  319,849;11016,695;48,97777
 549,36; 5645,078;  309,541;11270,825;48,67620
 549,94; 5693,322;  270,692;11367,356;48,86721
 550,53; 5797,506;  296,618;11656,693;48,42299
 551,11; 5875,069;  260,388;11804,768;48,63563
 551,69; 6050,967;  272,310;12239,192;48,28875
 552,27; 6186,790;  244,002;12408,679;48,85283
 552,85; 6315,245;  239,927;12842,182;48,20818
 553,44; 6471,668;  242,772;13170,710;48,18166
 554,02; 6688,778;  254,541;13537,535;48,43966
 554,60; 6801,010;  203,927;13881,442;48,23305
 555,18; 6963,512;  252,310;14261,494;47,90573
 555,76; 7126,638;  233,157;14651,278;47,81123
 556,34; 7322,179;  231,313;15078,900;47,75770
 556,93; 7536,957;  224,157;15487,766;47,91004
 557,51; 7679,647;  211,313;15820,586;47,84550
 558,09; 7860,455;  233,157;16241,307;47,64634
 558,67; 8047,707;  228,775;16662,934;47,57732
 559,25; 8170,682;  228,621;16923,473;47,57192
 559,83; 8288,457;  222,468;17287,196;47,26702
 560,41; 8456,375;  214,466;17697,397;47,14260
 561,00; 8597,658;  230,775;17976,727;47,14812
 561,58; 8757,237;  211,927;18260,971;47,34494
 562,16; 8877,111;  210,465;18550,688;47,25485
 562,74; 8961,358;  192,080;18942,301;46,76893
 563,32; 9196,555;  191,545;19456,226;46,74362
 563,90; 9384,260;  222,852;19859,523;46,65459
 564,48; 9547,955;  224,850;20211,741;46,64610
 565,06; 9843,780;  220,160;20848,925;46,65146
 565,65;10102,320;  223,700;21575,985;46,26493
 566,23;10501,469;  266,006;22280,339;46,49454
 566,81;10738,781;  209,313;23076,041;46,04711
 567,39;11198,912;  214,315;23956,779;46,26562
 567,97;11467,280;  236,467;24626,991;46,04580
 568,55;11803,137;  258,314;25383,747;45,94875
 569,13;12087,859;  220,621;26182,641;45,71000
 569,71;12550,902;  212,773;27155,641;45,79367
 570,29;13065,812;  253,233;28159,745;45,91250
 570,87;13426,606;  253,388;28915,745;45,96000
 571,45;13651,212;  234,621;29677,070;45,56887
 572,03;13812,711;  206,084;30062,595;45,57340
 572,61;14163,530;  197,622;30844,726;45,57007
 573,20;14487,680;  222,467;31500,373;45,60796
 573,78;14712,107;  200,468;32265,199;45,25732
 574,36;14890,904;  218,237;32674,877;45,20698
 574,94;15060,355;  279,084;33117,719;45,01183
 575,52;15124,777;  217,471;33285,282;45,08102
 576,10;15416,552;  269,470;33954,584;44,96669
 576,68;15650,900;  251,469;34455,752;45,02194
 577,26;15866,441;  266,010;35125,949;44,75174
 577,84;16159,622;  264,468;35750,839;44,79228
 578,42;16299,262;  305,623;36046,106;44,74937
 579,00;16283,198;  249,622;36137,327;44,67707
 579,58;16252,501;  301,469;36466,663;44,10603
 580,16;16266,712;  263,701;36492,925;44,17155
 580,74;16353,982;  257,393;36604,014;44,28634
 581,32;16297,267;  256,700;36772,461;43,92779
 581,90;16229,797;  280,316;36711,135;43,78019
 582,48;16185,418;  263,547;36856,745;43,51047
 583,06;16308,675;  266,931;36991,168;43,68163
 583,64;16250,559;  264,315;37175,311;43,31025
 584,22;16172,337;  282,471;36911,580;43,38043
 584,80;15943,499;  274,700;36779,331;42,92277
 585,38;15818,594;  283,620;36295,293;43,13872
 585,96;15853,571;  257,699;36479,300;43,05683
 586,54;15692,356;  280,240;36543,586;42,50054
 587,12;15767,306;  251,547;36652,010;42,62517
 587,70;15820,072;  271,699;36838,157;42,52086
 588,28;15730,404;  264,855;36809,271;42,31987
 588,86;15767,761;  268,471;37015,439;42,17842
 589,44;15758,293;  251,165;37082,173;42,10346
 590,02;15794,924;  256,703;37309,325;41,93555
 590,59;15876,057;  233,933;37535,796;41,93389
 591,17;15877,593;  238,936;37691,138;41,75631
 591,75;15864,377;  234,243;37752,767;41,65978
 592,33;15955,645;  265,473;38122,563;41,44580
 592,91;15960,791;  205,782;38384,160;41,26684
 593,49;16144,418;  229,937;38738,454;41,32717
 594,07;16130,425;  240,937;38989,972;41,00615
 594,65;16098,053;  250,010;38951,749;40,94918
 595,23;16238,597;  244,626;39372,588;40,87606
 595,81;16258,308;  236,857;39464,363;40,84239
 596,39;16210,474;  228,627;39631,043;40,56058
 596,97;16278,532;  227,397;39968,136;40,38962
 597,55;16253,611;  238,241;39804,985;40,47684
 598,12;16102,514;  217,014;39712,844;40,22070
 598,70;16107,015;  212,936;39947,280;40,00086
 599,28;16122,365;  237,090;40025,354;39,92452
 599,86;16139,108;  214,244;40177,316;39,84895
 600,44;16135,798;  195,860;40233,907;39,81198
 601,02;16080,925;  246,323;40291,712;39,54164
 601,60;16000,523;  232,781;40290,018;39,36303
 602,18;16016,964;  203,783;40246,779;39,49050
 602,75;15959,654;  208,319;40464,428;39,12781
 603,33;15816,469;  234,090;40410,378;38,78501
 603,91;15819,332;  204,246;40392,973;38,85439
 604,49;15747,824;  227,244;40508,677;38,53036
 605,07;15702,245;  231,858;40506,643;38,41209
 605,65;15746,857;  234,398;40638,502;38,39328
 606,23;15726,445;  280,625;40743,383;38,17293
 606,80;15629,780;  301,011;40694,481;37,94863
 607,38;15610,316;  330,399;40721,208;37,83018
 607,96;15567,019;  348,088;40840,768;37,58440
 608,54;15560,445;  410,552;40823,478;37,48774
 609,12;15510,821;  405,549;41010,401;37,20066
 609,70;15455,767;  423,705;41013,145;37,03442
 610,27;15414,309;  430,318;41031,632;36,90519
 610,85;15398,167;  450,551;41154,257;36,72299
 611,43;15345,540;  441,551;41044,461;36,70670
 612,01;15226,507;  410,704;40777,022;36,70338
 612,59;15167,446;  410,474;40851,248;36,49033
 613,16;14993,980;  385,241;40740,450;36,20038
 613,74;14890,510;  374,013;40668,298;36,02619
 614,32;14844,786;  359,014;40728,649;35,88284
 614,90;14710,546;  336,089;40534,071;35,75915
 615,48;14551,240;  299,395;40168,266;35,74680
 616,05;14495,830;  267,779;40270,267;35,56792
 616,63;14388,958;  291,086;40041,729;35,46577
 617,21;14300,295;  275,549;39969,197;35,33247
 617,79;14226,221;  277,473;39889,090;35,21378
 618,36;14118,602;  292,781;39852,696;34,94907
 618,94;13893,551;  228,626;39450,275;34,84026
 619,52;13794,325;  260,394;39225,631;34,73335
 620,10;13738,659;  243,396;39159,807;34,67757
 620,67;13544,153;  240,086;39086,726;34,24767
 621,25;13552,971;  270,474;38941,507;34,34741
 621,83;13405,104;  250,703;38853,710;34,07610
 622,41;13355,812;  311,933;38867,745;33,83116
 622,98;13153,351;  271,624;38525,939;33,67392
 623,56;13079,033;  277,009;38564,936;33,43619
 624,14;12968,136;  244,166;38483,686;33,27440
 624,72;12836,741;  258,087;38272,047;33,08956
 625,29;12815,075;  242,547;38372,010;32,97326
 625,87;12760,403;  292,165;38316,729;32,78996
 626,45;12641,773;  233,624;38173,274;32,70496
 627,02;12564,044;  252,858;38124,921;32,50730
 627,60;12433,345;  243,475;38051,348;32,24162
 628,18;12431,975;  220,626;38215,170;32,13974
 628,76;12358,159;  230,778;38154,258;31,97856
 629,33;12356,636;  263,625;38130,370;31,93570
 629,91;12274,583;  243,857;38130,191;31,75479
 630,49;12290,453;  263,702;38242,169;31,66729
 631,06;12293,982;  250,625;38517,782;31,47178
 631,64;12218,659;  261,086;38382,286;31,36725
 632,22;12138,357;  217,546;38260,281;31,33532
 632,79;12256,860;  231,854;38501,355;31,42191
 633,37;12233,975;  221,935;38667,323;31,24442
 633,95;12177,138;  229,162;38701,691;31,05586
 634,52;12245,672;  229,626;38814,565;31,14180
 635,10;12142,488;  234,165;38842,209;30,84415
 635,68;12241,063;  241,316;39056,639;30,91498
 636,25;12108,433;  220,776;39107,874;30,56967
 636,83;12128,698;  207,932;39226,104;30,55183
 637,41;12107,188;  222,315;39189,361;30,49980
 637,98;12145,945;  252,931;39453,604;30,33880
 638,56;12106,013;  236,622;39606,679;30,14827
 639,13;12075,380;  216,932;39676,563;30,05210
 639,71;12031,051;  271,856;39857,187;29,70594
 640,29;11929,445;  188,086;39589,299;29,79949
 640,86;11979,910;  207,779;39809,515;29,72630
 641,44;11906,144;  217,933;39799,730;29,52926
 642,02;11901,994;  240,933;39787,638;29,48681
 642,59;11858,766;  220,625;39948,931;29,29433
 643,17;11803,770;  210,164;39907,685;29,20486
 643,74;11794,927;  217,625;39966,978;29,12576
 644,32;11758,238;  242,164;39964,193;28,99166
 644,89;11575,318;  237,856;39872,409;28,60500
 645,47;11615,091;  244,625;40041,471;28,57127
 646,05;11565,479;  251,010;39875,917;28,55393
 646,62;11385,174;  226,087;39845,979;28,16537
 647,20;11449,639;  228,241;40029,271;28,19374
 647,77;11326,412;  203,779;39751,641;28,12449
 648,35;11213,338;  198,933;39697,780;27,88538
 648,92;11145,726;  234,087;39813,534;27,56895
 649,50;11061,653;  187,933;39727,211;27,50106
 650,08;11025,349;  201,472;39694,657;27,40695
 650,65;11026,737;  209,087;39860,873;27,28162
 651,23;11122,125;  183,318;40500,550;27,13184
 651,80;11378,051;  198,318;41610,381;26,99632
 652,38;11433,978;  212,165;41968,443;26,87455
 652,95;11434,673;  193,626;42345,735;26,66782
 653,53;11475,446;  215,472;42627,720;26,54887
 654,10;11523,834;  245,780;42768,244;26,52258
 654,68;11368,683;  197,011;42595,305;26,34934
 655,25;11319,225;  196,549;42707,906;26,16401
 655,83;11264,075;  186,088;42875,506;25,95019
 656,40;11282,540;  241,934;42816,875;25,93217
 656,98;11163,620;  196,011;42750,014;25,77339
 657,55;11085,008;  208,011;42588,691;25,66499
 658,13;10932,627;  195,781;42205,676;25,55790
 658,70;10832,553;  223,165;42005,200;25,39222
 659,28;10576,326;  199,627;41112,723;25,36278
 659,85;10296,329;  225,319;40316,939;25,11999
 660,43;10213,563;  225,704;40276,539;24,93796
 661,00;10199,644;  200,704;40413,678;24,86496
 661,58;10219,032;  201,396;40808,124;24,66989
 662,15;10230,420;  188,627;40942,955;24,63982
 662,73;10265,423;  248,550;41374,863;24,35636
 663,30;10323,119;  217,012;41417,463;24,52912
 663,88;10268,045;  211,243;41673,448;24,25535
 664,45;10260,510;  193,781;41892,279;24,14171
 665,03;10347,898;  194,012;42347,033;24,08816
 665,60;10464,055;  287,551;42805,556;23,93458
 666,17;10348,982;  205,320;42855,080;23,78363
 666,75;10359,216;  200,397;43292,911;23,57444
 667,32;10418,219;  222,474;43518,511;23,54891
 667,90;10443,146;  203,243;43819,573;23,47722
 668,47;10436,918;  223,859;44096,788;23,27873
 669,05;10441,999;  202,936;44455,850;23,13760
 669,62;10365,848;  177,936;44581,451;22,94393
 670,19;10341,082;  185,628;44703,282;22,81220
 670,77;10390,624;  196,628;44879,190;22,81426
 671,34;10309,089;  196,090;44810,636;22,66749
 671,92;10316,169;  188,705;45037,467;22,58137
 672,49;10219,557;  222,474;45200,529;22,22658
 673,06;10187,868;  169,167;45200,591;22,24825
 673,64;10123,795;  182,013;45212,037;22,07812
 674,21;10051,875;  180,859;45189,022;21,93161
 674,79;10101,955;  210,321;45417,930;21,88046
 675,36;10114,651;  216,321;45519,453;21,84911
 675,93;10025,193;  186,090;45393,900;21,76417
 676,51; 9992,812;  212,013;45585,807;21,55605
 677,08; 9942,200;  209,244;45653,177;21,41750
 677,65; 9947,972;  211,936;45840,239;21,33771
 678,23;10005,283;  209,090;46148,301;21,32425
 678,80; 9905,517;  194,321;46186,516;21,11488
 679,38; 9863,521;  190,090;46294,193;20,98171
 679,95; 9850,140;  203,398;46655,409;20,76711
 680,52; 9800,989;  187,629;46903,394;20,57841
 681,10; 9881,993;  210,552;47284,148;20,54536
 681,67; 9895,534;  208,014;47610,210;20,43686
 682,24; 9835,922;  185,014;47593,195;20,35705
 682,82; 9921,926;  197,168;48264,718;20,23144
 683,39; 9912,621;  232,629;48580,780;20,02143
 683,96; 9949,317;  206,168;48851,842;20,02881
 684,54; 9880,013;  187,091;49219,903;19,76824
 685,11;10006,247;  235,245;49563,504;19,80812
 685,68;10000,327;  203,707;50057,950;19,65053
 686,25; 9965,254;  186,399;50120,243;19,58362
 686,83; 9921,872;  188,399;50349,997;19,40423
 687,40; 9959,568;  189,168;50548,674;19,40130
 687,97;10022,110;  231,553;51007,659;19,28182
 688,55; 9975,267;  179,707;51037,413;19,26072
 689,12; 9933,501;  164,476;51429,475;19,05594
 689,69; 9941,351;  190,169;51445,306;19,02479
 690,26; 9903,893;  190,169;51334,367;18,99282
 690,84; 9875,973;  190,938;51710,968;18,79858
 691,41; 9853,053;  207,246;51791,799;18,69902
 691,98; 9872,903;  202,015;52064,245;18,64727
 692,56; 9803,522;  189,553;52098,615;18,52079
 693,13; 9863,756;  244,246;52281,907;18,48567
 693,70; 9809,759;  211,246;52424,661;18,38323
 694,27; 9702,916;  192,169;52576,877;18,15558
 694,84; 9712,997;  179,861;52629,400;18,17582
 695,42; 9732,692;  228,323;52745,693;18,09757
 695,99; 9708,542;  201,554;53004,139;18,00478
 696,56; 9626,161;  195,631;52811,893;17,92322
 697,13; 9710,626;  224,862;53266,570;17,88359
 697,71; 9661,321;  177,092;53265,940;17,86482
 698,28; 9678,940;  189,708;53602,540;17,76583
 698,85; 9630,482;  156,400;53757,064;17,67531
 699,42; 9650,793;  161,016;53815,048;17,68698
 699,99; 9649,412;  209,170;53944,033;17,56819
 700,57; 9619,877;  201,631;54077,634;17,48134
 701,14; 9591,726;  178,708;54258,541;17,40578
 701,71; 9612,499;  207,477;54444,065;17,34073
 702,28; 9635,887;  198,016;54430,280;17,40269
 702,85; 9560,429;  191,247;54413,573;17,27920
 703,43; 9559,586;  209,708;54738,250;17,14676
 704,00; 9583,820;  229,247;55007,850;17,07706
 704,57; 9548,131;  190,170;54891,835;17,10727
 705,14; 9582,134;  225,862;55256,051;17,00207
 705,71; 9577,369;  226,401;55213,420;17,00577
 706,28; 9439,449;  192,632;55080,021;16,84689
 706,86; 9518,375;  224,170;55373,544;16,85278
 707,43; 9477,840;  243,940;55289,990;16,77486
 708,00; 9383,151;  211,247;55402,591;16,61837
 708,57; 9368,232;  188,940;55298,806;16,65635
 709,14; 9354,004;  219,171;55353,253;16,56840
 709,71; 9306,854;  202,248;55484,084;16,46944
 710,28; 9333,626;  199,709;55724,376;16,45020
 710,86; 9303,860;  201,786;55905,669;16,34011
 711,43; 9326,402;  225,863;55720,577;16,39893
 712,00; 9289,790;  214,709;55910,869;16,29391
 712,57; 9278,101;  220,709;56126,008;16,20131
 713,14; 9259,874;  202,017;56170,916;16,18373
 713,71; 9209,031;  216,786;56102,901;16,09030
 714,28; 9179,573;  207,248;56204,963;16,02266
 714,85; 9096,576;  190,710;55882,948;15,99122
 715,42; 9099,195;  205,787;56102,855;15,91033
 716,00; 9140,429;  278,248;56261,071;15,83018
 716,57; 9071,048;  199,094;56466,594;15,76746
 717,14; 9001,513;  194,787;56325,118;15,68978
 717,71; 8993,363;  184,787;56374,180;15,67658
 718,28; 8999,212;  230,710;56476,088;15,58973
 718,85; 8927,985;  186,172;56567,919;15,50469
 719,42; 8971,142;  212,172;56675,673;15,51262
 719,99; 8901,145;  190,633;56479,350;15,47470
 720,56; 8932,149;  210,480;56804,719;15,41088
 721,13; 8922,998;  183,864;56857,243;15,42017
 721,70; 8835,694;  196,633;56807,689;15,26038
 722,27; 8849,620;  221,172;56831,135;15,24193
 722,84; 8906,162;  257,403;56997,659;15,24272
 723,41; 8801,166;  186,172;56946,182;15,17793
 723,98; 8839,246;  202,403;57190,244;15,15559
 724,55; 8878,865;  218,249;57301,767;15,17183
 725,12; 8860,253;  163,249;57083,752;15,27921
 725,69; 8848,025;  190,788;57408,352;15,13038
 726,27; 8860,490;  200,711;57456,799;15,12464
 726,84; 8895,263;  206,249;57742,630;15,10177
 727,41; 8934,266;  215,480;57662,461;15,17710
 727,98; 8919,654;  209,019;58007,907;15,07059
 728,55; 8928,273;  241,480;57751,738;15,10477
 729,12; 8864,892;  175,019;58068,185;15,01019
 729,69; 8930,049;  213,480;58232,631;15,02361
 730,26; 8860,745;  205,942;58335,770;14,88875
 730,82; 8878,209;  205,173;58233,370;14,94625
 731,39; 8883,828;  202,173;58316,509;14,93892
 731,96; 8887,678;  184,942;58728,571;14,86538
 732,53; 8935,143;  210,096;58903,402;14,86549
 733,10; 8924,992;  210,173;58959,848;14,83382
 733,67; 8961,534;  212,789;59271,525;14,81363
 734,24; 8868,307;  187,404;58868,279;14,79341
 734,81; 8993,464;  220,866;58974,649;14,93112
 735,38; 8833,852;  209,404;58664,326;14,75401
 735,95; 8820,240;  201,712;58592,542;14,76007
 736,52; 8826,320;  214,789;58816,526;14,69501
 737,09; 8779,631;  214,712;58459,357;14,70508
 737,66; 8860,250;  254,020;58606,496;14,74870
 738,23; 8834,946;  204,712;58659,635;14,76391
 738,80; 8988,334;  261,251;59044,697;14,84616
 739,37; 8895,952;  238,251;59172,528;14,69044
 739,94; 8920,494;  208,559;59330,974;14,73542
 740,51; 8984,882;  324,943;59476,728;14,64020
 741,07; 8898,501;  209,097;59284,405;14,70903
 741,64; 8916,043;  239,251;59565,775;14,62548
 742,21; 8893,892;  211,866;59579,837;14,62409
 742,78; 8870,973;  189,713;59354,975;14,67290
 743,35; 8852,515;  196,943;59751,960;14,53374
 743,92; 8999,364;  245,636;59779,561;14,70376
 744,49; 8983,829;  233,790;59511,699;14,76105
 745,06; 8870,986;  202,174;59624,146;14,58856
 745,63; 8889,759;  194,790;59606,515;14,63511
 746,19; 8929,454;  202,636;59559,192;14,70237
 746,76; 8899,304;  202,098;59663,408;14,62666
 747,33; 8927,923;  204,405;59728,085;14,65554
 747,90; 9001,849;  226,175;59828,378;14,72374
 748,47; 8961,545;  211,867;59838,747;14,67405
 749,04; 8984,548;  221,944;59850,347;14,69535
 749,61; 9003,859;  232,560;59729,332;14,74248
 750,17; 9023,247;  229,252;59849,625;14,74998
 750,74; 8956,712;  222,098;59722,917;14,67982
 751,31; 8946,562;  189,637;59701,902;14,71449
 751,88; 8933,181;  188,098;59577,503;14,72499
 752,45; 8966,030;  198,791;59604,026;14,75836
 753,02; 9014,187;  230,637;59545,011;14,80847
 753,58; 8964,883;  200,868;59369,611;14,81190
 754,15; 9053,194;  203,791;59551,750;14,91105
 754,72; 9020,582;  198,791;59287,581;14,92972
 755,29; 8992,278;  192,176;59154,873;14,92486
 755,86; 9023,743;  221,406;59314,166;14,89579
 756,42; 9058,823;  233,945;59296,458;14,94159
 756,99; 9018,903;  190,407;59116,520;14,98232
 757,56; 9079,830;  205,714;59066,274;15,07651
 758,13; 8978,602;  161,637;58993,644;14,98668
 758,70; 9126,990;  206,868;59188,321;15,12361
 759,26; 9126,224;  204,099;59201,614;15,12288
 759,83; 9159,228;  203,022;59430,675;15,12166
 760,40; 9141,539;  193,253;59084,122;15,19469
 760,97; 9153,927;  188,407;59275,184;15,17348
 761,53; 9153,623;  183,715;58812,861;15,29940
 762,10; 9101,549;  182,407;58915,846;15,18580
 762,67; 9234,245;  213,869;58884,523;15,37460
 763,24; 9118,479;  154,176;58241,123;15,43256
 763,80; 9178,482;  196,023;58402,031;15,43219
 764,37; 9161,639;  190,561;58447,939;15,39904
 764,94; 9112,951;  183,177;58061,770;15,42846
 765,50; 9139,185;  185,792;57823,909;15,53381
 766,07; 9201,342;  225,407;57917,047;15,55847
 766,64; 9149,653;  183,792;57720,801;15,58277
 767,21; 9144,195;  187,254;57561,632;15,61140
 767,77; 9186,506;  201,023;57401,079;15,70887
 768,34; 9171,740;  207,485;57469,602;15,65477
 768,91; 9171,820;  210,254;57252,510;15,71040
 769,47; 9173,054;  202,869;57195,572;15,73918
 770,04; 9229,827;  207,562;57137,095;15,84813
 770,61; 9208,523;  200,023;56947,234;15,87479
 771,18; 9157,526;  184,023;56825,680;15,84259
 771,74; 9270,837;  204,562;56974,588;15,97018
 772,31; 9252,533;  204,639;56802,112;15,98639
 772,88; 9225,767;  185,793;56484,250;16,05723
 773,44; 9192,232;  185,408;56334,312;16,04096
 774,01; 9257,620;  205,331;56514,451;16,07606
 774,58; 9193,162;  192,255;56043,667;16,11581
 775,14; 9294,319;  179,178;56236,036;16,26053
 775,71; 9272,938;  177,562;56092,636;16,26641
 776,27; 9343,403;  238,101;55971,621;16,33721
 776,84; 9414,098;  273,024;56065,452;16,38408
 777,41; 9386,179;  206,101;55782,052;16,51808
 777,97; 9304,336;  192,255;55518,499;16,46973
 778,54; 9348,339;  201,486;55564,638;16,52155
 779,11; 9443,266;  231,563;55606,546;16,63513
 779,67; 9406,423;  181,024;55489,069;16,68003
 780,24; 9459,888;  216,563;55315,823;16,77577
 780,80; 9501,507;  213,563;55285,962;16,86497
 781,37; 9496,356;  212,255;55234,639;16,87332
 781,94; 9496,590;  207,409;55080,239;16,92856
 782,50; 9489,440;  218,255;54882,762;16,96015
 783,07; 9592,289;  232,102;55023,517;17,08331
 783,63; 9595,677;  198,871;54827,348;17,20130
 784,20; 9642,912;  241,025;54685,486;17,26877
 784,77; 9605,376;  205,410;54512,548;17,30890
 785,33; 9590,611;  178,563;54287,148;17,39474
 785,90; 9653,845;  199,025;54309,825;17,47307
 786,46; 9664,540;  232,256;54273,657;17,45381
 787,03; 9637,544;  203,410;54051,949;17,51976
 787,59; 9724,778;  204,256;53844,857;17,74872
 788,16; 9698,089;  231,025;53875,457;17,64780
 788,73; 9760,631;  234,487;53621,365;17,84361
 789,29; 9751,634;  211,256;53278,812;17,97780
 789,86; 9768,715;  228,410;53234,643;17,99846
 790,42; 9766,641;  223,718;53169,781;18,02386
 790,99; 9747,414;  230,795;52714,843;18,13240
 791,55; 9761,725;  201,641;52669,366;18,22088
 792,12; 9736,959;  234,949;52797,274;18,07761
 792,68; 9803,270;  213,564;52440,644;18,36156
 793,25; 9809,119;  223,410;52258,090;18,42177
 793,81; 9779,354;  289,872;51801,460;18,42203
 794,38; 9712,203;  177,026;51643,675;18,52690
 794,94; 9744,437;  211,795;51518,353;18,57977
 795,51; 9804,825;  222,488;51178,568;18,80509
 796,07; 9760,675;  211,949;50985,707;18,80642
 796,64; 9848,217;  229,718;51111,000;18,90380
 797,20; 9761,143;  225,026;50489,754;18,97179
 797,77; 9730,454;  186,334;50172,508;19,09352
 798,33; 9733,304;  223,103;50006,723;19,10307
 798,90; 9855,615;  245,488;49946,862;19,33574
 799,46; 9729,310;  221,334;49366,539;19,34670
 800,03; 9753,391;  228,796;49327,678;19,39880
 800,59; 9747,471;  232,950;49118,278;19,46294
 801,15; 9751,705;  249,873;48872,032;19,54218
 801,72; 9698,324;  225,642;48589,325;19,58635
 802,28; 9692,481;  254,181;48199,464;19,68557
 802,85; 9708,100;  226,027;48063,295;19,82152
 803,41; 9719,488;  218,642;47932,126;19,91229
 803,98; 9685,261;  220,489;47466,034;20,03315
 804,54; 9613,418;  225,104;47166,018;20,00028
 805,11; 9593,960;  223,566;46886,311;20,08110
 805,67; 9661,578;  252,412;46872,911;20,18247
 806,23; 9616,812;  222,796;46488,358;20,30455
 806,80; 9651,585;  243,335;46389,035;20,38814
 807,36; 9726,973;  260,873;46357,327;20,53542
 807,93; 9619,976;  262,181;46071,851;20,42755
 808,49; 9624,903;  212,027;45694,605;20,69556
 809,05; 9584,445;  220,874;45433,051;20,71029
 809,62; 9655,987;  245,181;45430,959;20,82692
 810,18; 9643,067;  228,566;45366,559;20,85715
 810,74; 9619,686;  204,489;45030,698;21,00378
 811,31; 9614,997;  209,259;44885,606;21,05306
 811,87; 9656,846;  229,489;44667,283;21,21473
 812,44; 9629,234;  253,874;44740,807;21,07441
 813,00; 9624,007;  189,489;44382,330;21,34852
 813,56; 9708,472;  241,336;44369,007;21,45397
 814,13; 9729,091;  224,720;44368,223;21,53062
 814,69; 9739,248;  221,413;44091,285;21,69561
 815,25; 9674,097;  203,259;43581,654;21,83308
 815,82; 9670,331;  251,336;43575,947;21,74052
 816,38; 9768,181;  276,951;43304,008;22,05875
 816,94; 9650,492;  215,413;43016,609;22,04396
 817,51; 9676,188;  202,182;42803,901;22,23855
 818,07; 9609,191;  211,644;42521,348;22,21133
 818,63; 9597,271;  229,105;42316,794;22,25868
 819,20; 9679,736;  227,952;42248,856;22,49305
 819,76; 9624,663;  215,875;41770,687;22,64187
 820,32; 9639,743;  251,106;41704,364;22,64873
 820,89; 9592,900;  254,567;41563,657;22,60600
 821,45; 9572,981;  220,644;41281,795;22,77661
 822,01; 9548,830;  230,721;40990,857;22,86084
 822,57; 9574,910;  236,414;40903,380;22,96335
 823,14; 9574,529;  216,568;40679,519;23,12723
 823,70; 9558,840;  208,721;40435,581;23,24347
 824,26; 9558,613;  210,491;40075,797;23,44927
 824,82; 9542,616;  241,875;40075,628;23,34889
 825,39; 9465,235;  214,106;39752,843;23,39763
 825,95; 9522,392;  237,876;39838,597;23,44532
 826,51; 9481,934;  229,337;39309,505;23,67594
 827,08; 9555,245;  267,953;39356,413;23,75968
 827,64; 9568,018;  243,953;39197,783;23,93620
 828,20; 9481,713;  211,107;38863,768;23,98439
 828,76; 9573,948;  256,799;38911,522;24,10352
 829,32; 9581,336;  260,030;38679,737;24,26178
 829,89; 9555,647;  211,645;38614,415;24,33158
 830,45; 9602,573;  228,414;38451,476;24,52488
 831,01; 9617,653;  221,722;38336,923;24,65140
 831,57; 9648,503;  239,184;38158,754;24,81389
 832,14; 9579,122;  216,876;38020,046;24,76577
 832,70; 9628,510;  214,492;37879,031;24,99438
 833,26; 9590,359;  204,030;37740,862;25,00565
 833,82; 9677,747;  228,646;37633,155;25,26193
 834,38; 9669,981;  213,030;37764,986;25,18364
 834,95; 9719,754;  201,261;37519,278;25,50643
 835,51; 9712,757;  181,030;37439,725;25,58256
 836,07; 9728,838;  222,338;37426,402;25,55231
 836,63; 9851,533;  242,877;37442,695;25,82985
 837,19; 9846,921;  229,184;37242,833;25,98430
 837,75; 9780,694;  192,492;36916,895;26,10853
 838,32; 9895,697;  240,185;37111,957;26,18673
 838,88; 9926,701;  235,646;37127,634;26,26872
 839,44; 9917,012;  235,877;36945,773;26,37200
 840,00; 9986,092;  226,262;36846,758;26,65128
 840,56; 9901,095;  210,569;36567,204;26,65408
 841,12; 9999,330;  206,877;36548,650;26,94544
 841,68; 9929,871;  192,262;36380,251;26,90840
 842,25;10037,029;  215,031;36291,543;27,22546
 842,81; 9996,109;  202,723;36154,374;27,24043
 843,37;10020,035;  193,724;36150,513;27,32811
 843,93;10114,193;  220,031;36025,036;27,63346
 844,49;10132,427;  231,878;36137,713;27,57365
 845,05;10090,046;  187,878;35894,621;27,73193
 845,61;10198,510;  230,724;35999,375;27,86738
 846,17;10156,437;  211,493;35814,053;27,93323
 846,73;10229,363;  215,493;35814,422;28,12970
 847,29;10208,597;  201,570;35599,792;28,26986
 847,86;10257,216;  199,493;35516,853;28,47813
 848,42;10232,527;  202,109;35335,223;28,54976
 848,98;10235,223;  225,340;35231,823;28,59437
 849,54;10308,303;  209,724;35310,270;28,77043
 850,10;10310,230;  221,724;35146,562;28,88633
 850,66;10269,233;  200,109;34906,239;29,01252
 851,22;10329,237;  202,801;34924,993;29,16416
 851,78;10391,548;  255,263;34916,286;29,24404
 852,34;10386,936;  224,109;34602,655;29,56154
 852,90;10368,401;  212,955;34558,948;29,56806
 853,46;10306,712;  202,109;34361,164;29,58104
 854,02;10422,715;  213,571;34376,995;29,88326
 854,58;10294,334;  217,263;34085,980;29,75333
 855,14;10323,568;  208,033;33975,657;29,95631
 855,70;10310,571;  178,725;33768,180;30,16377
 856,26;10338,575;  215,187;33746,011;30,19129
 856,82;10328,270;  201,187;33561,381;30,35679
 857,38;10349,428;  243,725;33491,827;30,39483
 857,94;10367,662;  199,187;33356,812;30,66708
 858,50;10374,511;  233,187;33198,951;30,76320
 859,06;10287,592;  212,725;32978,089;30,74853
 859,62;10365,826;  230,264;33044,536;30,88766
 860,18;10324,137;  222,495;32784,597;31,02270
 860,74;10353,217;  176,649;32683,967;31,30547
 861,30;10336,451;  191,956;32485,644;31,41324
 861,86;10385,455;  265,802;32498,860;31,39526
 862,42;10340,612;  223,341;32389,537;31,45312
 862,98;10374,692;  242,803;32394,445;31,51282
 863,54;10344,926;  218,495;32067,045;31,79558
 864,10;10367,545;  215,110;32083,722;31,85716
 864,66;10350,625;  196,649;31894,092;32,03406
 865,22;10394,167;  222,341;31791,461;32,22081
 865,78;10311,017;  220,111;31635,754;32,12064
 866,34;10358,328;  201,803;31544,277;32,40499
 866,90;10363,946;  222,188;31285,262;32,64892
 867,45;10338,950;  216,265;31155,939;32,71749
 868,01;10344,799;  222,572;31042,924;32,84267
 868,57;10367,110;  210,419;30721,755;33,28826
 869,13;10267,498;  201,342;30666,355;33,04169
 869,69;10288,502;  213,803;30536,263;33,22520
 870,25;10298,659;  200,957;30408,325;33,42794
 870,81;10357,124;  207,111;30445,387;33,56677
 871,37;10303,589;  221,342;30246,833;33,57896
 871,93;10304,131;  241,573;30163,203;33,62971
 872,49;10335,057;  248,881;29925,265;33,98722
 873,04;10278,676;  200,881;29771,480;34,08046
 873,60;10203,910;  200,035;29594,696;34,03297
 874,16;10271,606;  224,573;29559,988;34,24882
 874,72;10245,990;  222,112;29401,912;34,35212
 875,28;10226,221;  221,188;29380,065;34,31213
 875,84;10226,067;  216,419;29216,219;34,51627
 876,40;10277,067;  208,881;29238,835;34,68206
 876,95;10332,683;  222,342;29177,373;34,91739
 877,51;10363,221;  253,881;29213,373;34,90856
 878,07;10404,221;  250,881;29283,296;34,97243
 878,63;10451,375;  210,727;29220,065;35,30121
 879,19;10570,221;  228,188;29241,681;35,64560
 879,75;10521,760;  219,265;29190,219;35,56146
 880,30;10571,990;  215,419;29199,912;35,73142
 880,86;10720,529;  251,035;29432,527;35,87717
 881,42;10730,683;  202,650;29431,835;36,01891
 881,98;10777,529;  229,265;29378,912;36,18659
 882,54;10885,375;  215,496;29606,450;36,30328
 883,09;10962,067;  225,342;29676,758;36,45572
 883,65;10988,298;  205,419;29795,835;36,44044
 884,21;11152,375;  243,573;29967,065;36,70094
 884,77;11184,375;  199,958;30025,912;36,82839
 885,32;11302,606;  221,727;30193,296;36,97130
 885,88;11409,452;  253,265;30377,835;37,03351
 886,44;11480,683;  228,342;30386,142;37,31154
 887,00;11510,144;  248,342;30503,988;37,22215
 887,56;11531,837;  214,573;30704,912;37,11754
 888,11;11583,760;  215,573;30648,527;37,35486
 888,67;11714,221;  260,804;30835,219;37,46079
 889,23;11805,606;  224,112;30928,219;37,71969
 889,79;11709,375;  195,496;30729,296;37,70863
 890,34;11817,837;  222,496;30754,296;37,97791
 890,90;11899,067;  285,188;30890,988;37,94666
 891,46;11844,913;  221,573;30679,219;38,16231
 892,01;11836,990;  242,573;30735,373;38,02346
 892,57;11934,683;  256,881;30644,758;38,42915
 893,13;11820,683;  209,188;30446,988;38,40059
 893,69;11805,144;  210,496;30373,604;38,43983
 894,24;11831,760;  222,958;30239,604;38,67455
 894,80;11826,452;  231,419;30109,142;38,80829
 895,36;11801,144;  223,496;30048,296;38,81886
 895,91;11778,837;  223,112;29779,527;39,09718
 896,47;11804,760;  232,112;29709,988;39,25876
 897,03;11720,837;  224,035;29443,604;39,34624
 897,58;11754,529;  237,112;29302,065;39,62648
 898,14;11695,452;  233,727;29174,912;39,60351
 898,70;11663,452;  199,188;28849,450;40,01452
 899,25;11755,760;  223,573;28987,604;40,09239
 899,81;11698,760;  241,035;28822,758;40,08759
 900,37;11617,606;  200,035;28535,296;40,29457
 900,92;11649,683;  238,035;28650,450;40,16430
 901,48;11636,760;  214,035;28482,373;40,40819
 902,03;11578,606;  221,650;28227,988;40,55138
 902,59;11567,221;  215,112;28158,912;40,62479
 903,15;11525,837;  239,727;27999,835;40,65586
 903,70;11442,990;  226,112;27630,373;40,93115
 904,26;11460,452;  223,342;27684,142;40,92055
 904,82;11484,298;  221,419;27571,142;41,18096
 905,37;11430,760;  229,188;27406,373;41,21682
 905,93;11431,452;  220,112;27253,604;41,47204
 906,48;11434,529;  234,112;27207,604;41,52379
 907,04;11409,375;  243,496;27146,142;41,50476
 907,60;11331,913;  233,804;26957,912;41,52846
 908,15;11278,990;  210,496;26839,450;41,56564
 908,71;11318,683;  233,188;26807,142;41,71564
 909,26;11253,144;  224,727;26575,142;41,85292
 909,82;11236,067;  235,573;26534,527;41,82864
 910,37;11261,837;  267,342;26470,142;41,95923
 910,93;11148,683;  209,804;26135,219;42,19365
 911,48;11177,760;  199,573;25984,450;42,57607
 912,04;11120,452;  216,265;25916,296;42,42869
 912,60;11153,144;  233,342;25911,835;42,52509
 913,15;11097,529;  233,265;25700,219;42,66024
 913,71;11078,837;  218,727;25527,450;42,91054
 914,26;11072,606;  205,035;25406,219;43,12326
 914,82;11012,529;  240,035;25329,527;42,93628
 915,37;11047,913;  206,650;25250,065;43,28988
 915,93;11028,452;  263,573;25177,912;43,20756
 916,48;10988,837;  213,496;24964,758;43,53451
 917,04;11036,067;  235,419;24938,835;43,72127
 917,59;11061,990;  258,035;24861,835;43,91174
 918,15;10985,221;  187,112;24589,142;44,25086
 918,70;10973,375;  214,881;24643,988;44,03965
 919,26;10965,606;  236,804;24508,219;44,20345
 919,81;10970,990;  209,727;24297,065;44,67602
 920,37;10988,529;  216,419;24217,219;44,88229
 920,92;10911,683;  247,573;24069,604;44,76575
 921,48;10829,452;  216,035;23960,450;44,69858
 922,03;10896,683;  206,342;23813,835;45,28368
 922,59;10885,067;  222,650;23748,219;45,32268
 923,14;10813,144;  219,265;23597,296;45,31553
 923,69;10820,067;  244,496;23554,527;45,36919
 924,25;10845,760;  251,727;23517,835;45,53419
 924,80;10739,452;  221,112;23313,219;45,54950
 925,36;10758,913;  212,035;23139,758;46,00055
 925,91;10717,990;  216,342;23024,988;46,04240
 926,47;10725,067;  202,342;22951,450;46,25555
 927,02;10739,375;  272,035;22899,296;46,25986
 927,57;10674,529;  220,727;22758,296;46,38389
 928,13;10701,760;  212,419;22611,681;46,82896
 928,68;10678,375;  211,496;22504,450;46,95151
 929,24;10619,606;  186,958;22328,604;47,11776
 929,79;10573,298;  214,650;22224,835;47,06298
 930,34;10511,529;  219,188;22084,988;47,07050
 930,90;10514,144;  209,188;22037,912;47,20824
 931,45;10550,606;  231,419;22039,450;47,31829
 932,01;10500,606;  233,881;21865,604;47,46143
 932,56;10459,375;  244,958;21721,527;47,56075
 933,11;10527,529;  246,342;21722,758;47,87199
 933,67;10455,144;  215,727;21491,988;48,12602
 934,22;10482,221;  230,727;21368,758;48,49787
 934,77;10435,144;  247,265;21350,758;48,27580
 935,33;10387,144;  235,881;21156,988;48,52163
 935,88;10361,606;  234,804;21105,142;48,52246
 936,43;10318,298;  219,573;20975,758;48,65405
 936,99;10350,837;  238,035;20903,296;48,93624
 937,54;10278,606;  214,958;20715,065;49,09071
 938,09;10351,837;  236,650;20712,988;49,39939
 938,65;10332,913;  235,419;20552,219;49,70022
 939,20;10289,606;  200,958;20523,988;49,64145
 939,75;10282,298;  212,881;20348,065;50,00906
 940,31;10304,452;  203,958;20239,450;50,41301
 940,86;10332,760;  230,573;20229,450;50,51377
 941,41;10375,144;  297,496;20076,758;50,95058
 941,96;10281,298;  225,035;19940,988;51,00572
 942,52;10256,760;  215,881;19879,142;51,06416
 943,07;10189,221;  203,035;19781,450;51,00610
 943,62;10164,452;  211,727;19748,758;50,94287
 944,18;10237,606;  215,188;19600,296;51,70163
 944,73;10176,067;  227,496;19513,604;51,58413
 945,28;10144,067;  184,958;19304,065;52,08982
 945,83;10143,221;  212,342;19297,758;52,03386
 946,39;10144,606;  211,342;19323,527;51,97346
 946,94;10118,144;  248,804;19142,604;52,23587
 947,49;10052,067;  216,342;19061,758;52,19161
 948,04;10100,067;  247,804;19075,604;52,32828
 948,59;10056,144;  240,035;18931,296;52,51711
 949,15;10045,606;  201,881;18816,142;52,88270
 949,70;10005,683;  214,188;18697,604;52,97449
 950,25; 9932,221;  232,496;18611,373;52,77648
 950,80; 9950,144;  182,035;18570,912;53,11966
 951,36; 9861,837;  188,958;18388,450;53,14917
 951,91; 9897,913;  231,188;18394,604;53,22086
 952,46; 9816,683;  201,496;18141,835;53,59535
 953,01; 9866,913;  231,650;18224,527;53,55043
 953,56; 9791,221;  182,958;18039,296;53,80870
 954,11; 9795,837;  221,727;18063,681;53,66066
 954,67; 9738,837;  209,035;17915,065;53,82235
 955,22; 9696,760;  200,342;17752,373;54,10438
 955,77; 9722,144;  238,881;17780,065;54,06285
 956,32; 9672,760;  261,188;17646,988;54,13367
 956,87; 9602,913;  210,496;17477,219;54,39606
 957,42; 9622,298;  213,727;17472,835;54,51366
 957,98; 9601,837;  211,650;17327,912;54,86120
 958,53; 9563,683;  244,342;17318,219;54,58245
 959,08; 9454,452;  202,650;17200,219;54,43015
 959,63; 9499,375;  210,496;17107,988;54,97194
 960,18; 9506,144;  224,035;17034,988;55,21465
 960,73; 9496,529;  226,958;16951,450;55,42513
 961,28; 9465,913;  197,881;16829,604;55,72503
 961,83; 9494,144;  245,804;16827,835;55,77327
 962,39; 9440,760;  198,188;16700,681;56,00712
 962,94; 9457,529;  227,881;16645,681;56,21733
 963,49; 9362,529;  216,496;16450,065;56,34025
 964,04; 9383,298;  223,958;16443,988;56,46932
 964,59; 9303,837;  187,035;16260,142;56,72084
 965,14; 9304,221;  237,342;16248,219;56,62950
 965,69; 9318,144;  217,188;16117,758;57,23667
 966,24; 9284,298;  216,881;16073,988;57,18204
 966,79; 9229,529;  240,188;15916,373;57,34393
 967,34; 9198,221;  205,727;15786,142;57,71665
 967,89; 9186,529;  208,727;15716,681;57,89160
 968,44; 9167,529;  220,804;15669,604;57,91210
 968,99; 9145,452;  233,881;15603,604;57,98134
 969,55; 9188,837;  223,496;15497,681;58,69603
 970,10; 9133,144;  219,727;15375,527;58,81192
 970,65; 9122,990;  233,419;15331,604;58,87841
 971,20; 9085,452;  202,496;15226,604;59,12468
 971,75; 9006,683;  199,650;14969,758;59,62741
 972,30; 9006,683;  216,958;14972,604;59,56855
 972,85; 8984,144;  212,342;14885,988;59,77929
 973,40; 8966,452;  203,573;14713,142;60,39379
 973,95; 8910,683;  226,112;14623,758;60,31938
 974,50; 8949,683;  236,342;14624,296;60,55997
 975,05; 8895,221;  224,188;14479,758;60,82558
 975,60; 8831,221;  232,573;14433,450;60,55012
 976,15; 8809,990;  208,727;14302,373;61,02937
 976,70; 8797,606;  224,265;14204,912;61,32292
 977,25; 8837,606;  235,188;14134,912;61,88913
 977,80; 8714,913;  219,419;14001,912;61,63975
 978,35; 8658,990;  233,112;13865,988;61,80558
 978,89; 8584,144;  201,496;13711,219;62,04900
 979,44; 8620,144;  219,804;13741,142;62,12654
 979,99; 8477,067;  206,650;13518,835;62,12667
 980,54; 8483,144;  244,650;13470,142;62,29253
 981,09; 8413,452;  244,804;13366,065;62,25505
 981,64; 8358,375;  231,112;13247,296;62,43968
 982,19; 8420,452;  263,112;13216,373;62,97518
 982,74; 8330,067;  232,342;13047,988;63,18624
 983,29; 8210,375;  208,727;12925,373;62,92263
 983,84; 8222,837;  227,804;12838,527;63,39869
 984,39; 8235,452;  288,342;12755,758;63,74304
 984,94; 8074,452;  197,112;12559,835;63,71849
 985,49; 8043,067;  245,188;12531,527;63,46788
 986,03; 8037,452;  240,265;12440,681;63,90919
 986,58; 7994,375;  273,727;12370,142;63,82592
 987,13; 7885,913;  232,035;12182,758;64,04532
 987,68; 7847,529;  245,265;12119,373;64,02387
 988,23; 7845,452;  241,188;12084,835;64,20543
 988,78; 7772,144;  227,342;11855,450;64,88418
 989,33; 7742,760;  243,573;11809,604;64,83803
 989,88; 7713,144;  262,573;11734,912;64,94379
 990,42; 7558,837;  221,958;11557,219;64,72615
 990,97; 7559,221;  221,419;11437,988;65,41931
 991,52; 7539,298;  250,573;11353,219;65,64854
 992,07; 7452,913;  270,035;11287,912;65,19295
 992,62; 7401,221;  232,265;11150,912;65,65792
 993,17; 7333,837;  239,650;11076,296;65,46478
 993,71; 7306,452;  247,112;10883,373;66,37050
 994,26; 7204,144;  222,650;10779,758;66,13075
 994,81; 7191,913;  252,496;10712,527;66,34223
 995,36; 7073,298;  227,804;10573,450;66,16788
 995,91; 7083,529;  235,496;10535,835;66,48357
 996,45; 6936,375;  232,496;10437,450;65,69240
 997,00; 6880,298;  207,496;10279,373;66,25182
 997,55; 6895,067;  235,112;10236,835;66,58808
 998,10; 6794,221;  251,188;10113,373;66,34466
 998,65; 6787,221;  221,881;10066,604;66,68893
 999,19; 6680,144;  248,881; 9876,758;66,79836
 999,74; 6618,452;  261,804; 9755,142;66,95904
1000,29; 6585,760;  247,958; 9692,835;67,10307
1000,84; 6542,298;  230,112; 9553,758;67,70084
1001,38; 6490,067;  235,265; 9501,912;67,49801
1001,93; 6425,144;  249,573; 9367,142;67,73265
1002,48; 6295,529;  223,573; 9230,835;67,41178
1003,03; 6331,913;  247,573; 9208,527;67,89836
1003,57; 6271,452;  246,496; 9076,296;68,23434
1004,12; 6153,837;  263,958; 9011,912;67,32865
1004,67; 6151,298;  217,188; 8868,450;68,59242
1005,22; 6033,837;  226,188; 8734,450;68,25893
1005,76; 6024,221;  225,265; 8600,373;69,24037
1006,31; 5977,606;  244,881; 8560,219;68,94157
1006,86; 5893,067;  226,727; 8418,527;69,17088
1007,40; 5803,683;  208,881; 8265,142;69,44663
1007,95; 5792,990;  239,496; 8192,988;69,82460
1008,50; 5718,067;  241,419; 8035,065;70,27068
1009,04; 5607,837;  229,881; 7920,527;69,92853
1009,59; 5537,144;  237,342; 7783,450;70,23226
1010,14; 5458,683;  220,727; 7685,604;70,16801
1010,68; 5400,067;  239,958; 7573,373;70,36434
1011,23; 5359,760;  226,419; 7443,142;71,13118
1011,78; 5315,375;  249,265; 7375,450;71,09147
1012,32; 5259,837;  257,804; 7286,988;71,16092
1012,87; 5233,606;  256,496; 7259,758;71,06845
1013,42; 5138,760;  217,958; 7087,065;71,63670
1013,96; 5168,067;  260,419; 7127,681;71,46441
1014,51; 5047,298;  203,958; 7025,681;70,99878
1015,06; 5108,837;  220,188; 6992,758;72,18307
1015,60; 5137,760;  268,496; 7098,835;71,28876
1016,15; 5103,606;  228,573; 6996,142;72,03521
1016,69; 5154,375;  235,342; 7089,296;71,76927
1017,24; 5177,375;  212,188; 7084,450;72,24967
1017,79; 5212,298;  266,881; 7169,988;71,64045
1018,33; 5239,298;  221,112; 7129,912;72,63471
1018,88; 5280,067;  244,881; 7186,219;72,53913
1019,42; 5281,529;  234,419; 7188,758;72,57498
1019,97; 5250,375;  215,265; 7168,758;72,41123
1020,51; 5334,298;  247,958; 7235,296;72,79367
1021,06; 5295,298;  223,496; 7216,604;72,52572
1021,61; 5247,298;  192,342; 7165,373;72,49295
1022,15; 5253,144;  176,265; 7159,912;72,69668
1022,70; 5265,221;  231,496; 7138,681;72,87665
1023,24; 5244,221;  216,958; 7075,835;73,29572
1023,79; 5187,683;  236,265; 7055,681;72,60765
1024,33; 5170,760;  229,419; 7005,296;72,92547
1024,88; 5173,144;  225,650; 6883,681;74,30867
1025,42; 5088,529;  229,035; 6794,988;74,01048
1025,97; 4996,913;  218,342; 6767,604;72,96351
1026,51; 4920,375;  191,496; 6598,219;73,81119
1027,06; 4893,529;  221,035; 6502,604;74,38419
1027,60; 4838,837;  236,419; 6403,758;74,62566
1028,15; 4728,375;  240,650; 6337,681;73,60509
1028,69; 4656,529;  191,188; 6204,527;74,25726
1029,24; 4620,760;  215,881; 6122,373;74,57690
1029,78; 4550,760;  207,727; 5996,758;75,02176
1030,33; 4446,221;  201,958; 5880,912;74,73671
1030,87; 4441,067;  221,035; 5843,758;75,05318
1031,42; 4346,990;  218,804; 5732,450;74,87217
1031,96; 4379,452;  228,035; 5689,604;76,01144
1032,51; 4281,067;  202,958; 5567,373;76,02151
1033,05; 4232,452;  222,958; 5523,373;75,64491
1033,60; 4160,067;  181,573; 5382,912;76,48982
1034,14; 4089,837;  214,496; 5340,604;75,60006
1034,69; 4086,760;  212,804; 5250,373;76,90129
1035,23; 4065,298;  220,958; 5199,065;77,22493
1035,77; 3985,683;  217,881; 5103,450;77,12104
1036,32; 3909,298;  196,265; 5051,065;76,48168
1036,86; 3896,375;  225,342; 4988,142;77,07720
1037,41; 3888,298;  228,188; 4882,373;78,64126
1037,95; 3790,067;  198,650; 4832,758;77,49965
1038,50; 3756,221;  198,650; 4739,912;78,33883
1039,04; 3752,452;  238,035; 4705,450;78,66780
1039,58; 3670,452;  205,342; 4651,065;77,94254
1040,13; 3627,606;  215,650; 4544,527;78,81850
1040,67; 3597,529;  244,650; 4587,604;77,20273
1041,21; 3507,529;  241,804; 4476,758;77,11359
1041,76; 3457,990;  195,881; 4353,373;78,46340
1042,30; 3452,221;  218,035; 4336,219;78,53428
1042,85; 3385,606;  216,727; 4229,681;78,96624
1043,39; 3317,990;  213,881; 4193,527;77,99964
1043,93; 3304,067;  224,727; 4149,142;78,46622
1044,48; 3254,221;  226,573; 4082,373;78,52192
1045,02; 3215,837;  204,496; 4031,988;78,67659
1045,56; 3206,221;  250,342; 3978,681;79,28140
1046,11; 3115,913;  222,035; 3933,373;77,97399
1046,65; 3100,837;  231,573; 3852,373;79,24391
1047,19; 3023,452;  217,881; 3800,758;78,30498
1047,74; 2982,683;  198,035; 3727,758;78,89140
1048,28; 2945,375;  221,035; 3697,604;78,36290
1048,82; 2943,298;  251,496; 3693,988;78,19340
1049,37; 2900,837;  234,035; 3607,988;79,04085
1049,91; 2852,221;  226,112; 3564,142;78,67242
1050,45; 2814,221;  239,188; 3510,988;78,70385
1050,99; 2770,375;  224,958; 3476,142;78,29200
1051,54; 2762,144;  209,650; 3382,142;80,45707
1052,08; 2721,144;  242,881; 3361,065;79,47777
1052,62; 2713,760;  248,342; 3319,681;80,27176
1053,16; 2645,606;  224,650; 3249,373;80,03892
1053,71; 2635,375;  226,727; 3259,450;79,42196
1054,25; 2595,221;  244,958; 3183,373;79,98404
1054,79; 2556,452;  241,112; 3155,219;79,45281
1055,33; 2493,298;  210,188; 3067,681;79,89906
1055,88; 2474,683;  239,188; 3054,912;79,39326
1056,42; 2468,375;  241,419; 3019,758;80,15423
1056,96; 2447,298;  248,035; 2969,835;80,80180
1057,50; 2421,298;  226,265; 2922,296;81,41720
1058,05; 2348,375;  231,342; 2846,835;80,94203
1058,59; 2358,298;  258,035; 2835,912;81,47260
1059,13; 2280,990;  218,188; 2788,988;80,23969
1059,67; 2286,837;  241,573; 2764,219;81,07611
1060,21; 2243,837;  223,804; 2715,835;81,05970
1060,76; 2212,375;  234,265; 2679,065;80,91090
1061,30; 2218,221;  254,804; 2665,758;81,43737
1061,84; 2143,067;  232,650; 2605,604;80,50798
1062,38; 2130,837;  206,342; 2521,296;83,13316
1062,92; 2148,375;  269,112; 2559,527;82,04902
1063,46; 2090,298;  249,727; 2487,988;82,23218
1064,01; 2087,144;  225,573; 2445,912;83,84177
1064,55; 2065,913;  242,804; 2407,835;84,20710
1065,09; 2008,760;  209,342; 2371,988;83,20443
1065,63; 2047,221;  258,804; 2384,219;84,14437
1066,17; 2015,375;  262,496; 2350,912;83,93344
1066,71; 1981,529;  256,650; 2303,835;84,25615
1067,25; 1952,452;  232,419; 2258,681;84,88700
1067,80; 1927,221;  249,804; 2254,912;83,65722
1068,34; 1929,990;  262,342; 2240,835;84,28883
1068,88; 1865,606;  228,804; 2170,604;84,29302
1069,42; 1880,221;  261,881; 2175,835;84,55483
1069,96; 1824,529;  228,419; 2094,604;85,52796
1070,50; 1858,144;  277,265; 2136,988;85,00614
1071,04; 1767,298;  227,804; 2040,065;84,94879
1071,58; 1753,606;  229,188; 2057,988;83,35615
1072,12; 1751,913;  243,188; 2009,912;85,39680
1072,66; 1738,990;  237,342; 2005,912;84,90751
1073,21; 1731,298;  252,342; 2007,527;84,26212
1073,75; 1707,452;  238,727; 1947,604;85,94680
1074,29; 1694,529;  241,804; 1943,142;85,38718
1074,83; 1672,837;  259,419; 1908,988;85,68402
1075,37; 1658,221;  261,573; 1896,373;85,43235
1075,91; 1642,375;  253,265; 1864,604;86,20843
1076,45; 1629,606;  242,342; 1846,450;86,48194
1076,99; 1583,452;  264,881; 1826,296;84,44717
1077,53; 1560,298;  234,496; 1774,912;86,06782
1078,07; 1567,529;  247,112; 1780,450;86,11388
1078,61; 1542,221;  236,419; 1753,219;86,08926
1079,15; 1519,913;  240,112; 1731,988;85,78469
1079,69; 1502,683;  236,727; 1711,527;85,83915
1080,23; 1505,144;  263,881; 1725,604;84,91783
1080,77; 1531,375;  292,573; 1714,681;87,11028
1081,31; 1459,683;  238,265; 1661,988;85,79037
1081,85; 1448,298;  262,573; 1641,296;86,00168
1082,39; 1424,298;  234,496; 1621,604;85,77574
1082,93; 1422,990;  248,265; 1588,988;87,61876
1083,47; 1384,837;  222,188; 1559,527;86,93746
1084,01; 1406,298;  257,804; 1575,527;87,15748
1084,55; 1371,144;  239,112; 1532,758;87,50714
1085,09; 1371,144;  252,881; 1529,835;87,57274
1085,63; 1346,990;  247,419; 1501,681;87,66682
1086,17; 1329,452;  232,035; 1490,758;87,18497
1086,71; 1298,221;  233,112; 1445,604;87,84465
1087,24; 1329,452;  265,342; 1476,450;87,86251
1087,78; 1308,529;  254,881; 1456,988;87,65006
1088,32; 1258,375;  226,958; 1402,988;87,70326
1088,86; 1287,452;  258,573; 1412,065;89,19685
1089,40; 1257,990;  242,650; 1387,219;88,70939
1089,94; 1226,452;  212,496; 1371,681;87,47147
1090,48; 1228,067;  252,342; 1351,527;88,76807
1091,02; 1219,375;  266,112; 1348,758;88,04940
1091,56; 1193,683;  243,804; 1323,988;87,93671
1092,10; 1166,221;  224,112; 1287,142;88,62487
1092,63; 1196,298;  269,573; 1327,450;87,60235
1093,17; 1165,375;  256,342; 1290,758;87,87888
1093,71; 1150,298;  237,650; 1271,681;88,26121
1094,25; 1166,837;  261,958; 1273,988;89,41219
1094,79; 1119,221;  240,958; 1229,912;88,80733
1095,33; 1131,529;  255,804; 1247,296;88,32393
1095,87; 1117,298;  247,958; 1220,219;89,41425
1096,40; 1077,298;  224,112; 1168,988;90,29605
1096,94; 1090,837;  244,112; 1187,219;89,78031
1097,48; 1098,606;  252,112; 1184,142;90,82256
1098,02; 1064,375;  248,804; 1160,296;89,47647
1098,56; 1027,144;  221,342; 1120,527;89,61474
1099,10; 1027,913;  226,419; 1101,988;91,53979
1099,63; 1020,990;  223,650; 1097,604;91,23369
1100,17; 1037,144;  241,881; 1125,219;90,02930
1100,71; 1044,683;  272,804; 1131,450;89,89487

