
Integration time [ms]: 120,000
Averaging Nr. [scans]: 13
Smoothing Nr. [pixels]: 0
Data measured with spectrometer [name]: 2009305U1
Wave   ;Sample   ;Dark     ;Reference;Reflectance
[nm]   ;[counts] ;[counts] ;[counts] ;[%]

 175,72;  201,769;  196,668;  197,919;407,77401
 176,32;  231,435;  224,824;  212,280; 0,00000
 176,92;  235,920;  241,130;  242,571;-361,69675
 177,52;  250,776;  242,515;  254,327;69,93397
 178,12;  229,097;  234,286;  223,116; 0,00000
 178,72;  256,360;  259,440;  254,402; 0,00000
 179,32;  244,731;  246,671;  235,386; 0,00000
 179,92;  249,905;  234,900;  248,482;110,47528
 180,52;  230,471;  240,436;  237,089; 0,00000
 181,12;  245,438;  253,977;  245,596; 0,00000
 181,73;  267,413;  269,515;  273,796;-49,12337
 182,33;  322,019;  335,668;  334,695; 0,00000
 182,93;  263,346;  254,130;  265,674;79,83478
 183,53;  232,645;  236,441;  221,261; 0,00000
 184,13;  235,019;  237,671;  221,796; 0,00000
 184,73;  267,701;  262,518;  271,534;57,48646
 185,33;  252,203;  229,840;  336,352;20,99544
 185,93;  262,035;  230,227;  351,774;26,16932
 186,53;  273,044;  244,918;  379,899;20,83691
 187,13;  288,392;  274,916;  403,937;10,44502
 187,73;  259,823;  235,688;  356,935;19,90584
 188,33;  270,154;  241,766;  349,541;26,33978
 188,93;  270,544;  249,615;  369,880;17,40215
 189,53;  273,992;  249,772;  385,703;17,81813
 190,13;  296,918;  275,006;  414,463;15,71187
 190,73;  239,885;  214,465;  357,542;17,76635
 191,34;  286,349;  255,616;  380,255;24,65765
 191,94;  260,383;  233,998;  358,715;21,15569
 192,54;  279,472;  238,761;  386,808;27,49866
 193,14;  269,079;  254,609;  383,084;11,26304
 193,74;  275,024;  248,378;  396,443;17,99596
 194,34;  279,027;  252,224;  387,868;19,76013
 194,94;  244,957;  212,609;  342,507;24,90267
 195,54;  224,623;  192,610;  327,986;23,64805
 196,14;  243,260;  222,454;  364,863;14,61029
 196,74;  246,598;  216,764;  341,279;23,96056
 197,34;  225,101;  194,760;  337,313;21,28377
 197,94;  250,460;  225,608;  364,072;17,94822
 198,54;  264,788;  230,300;  376,969;23,51377
 199,14;  246,177;  205,914;  371,989;24,24409
 199,74;  227,684;  202,991;  371,028;14,69516
 200,34;  220,461;  185,529;  381,448;17,82990
 200,94;  262,333;  230,838;  425,835;16,15174
 201,54;  235,452;  210,991;  424,829;11,43929
 202,14;  259,049;  228,221;  464,972;13,02149
 202,74;  252,483;  209,452;  467,115;16,70041
 203,34;  234,174;  188,758;  473,666;15,94065
 203,94;  214,121;  173,913;  479,547;13,15559
 204,54;  267,036;  230,608;  560,734;11,03462
 205,14;  238,012;  194,529;  577,711;11,34790
 205,74;  276,776;  234,297;  662,667; 9,91660
 206,34;  243,531;  194,990;  656,194;10,52494
 206,94;  271,786;  206,682;  723,812;12,58940
 207,54;  232,946;  180,990;  761,512; 8,94984
 208,14;  261,789;  194,759;  845,961;10,29320
 208,74;  268,504;  208,529;  911,260; 8,53447
 209,34;  273,335;  205,914;  978,815; 8,72317
 209,94;  293,234;  213,375; 1077,076; 9,24608
 210,54;  289,776;  203,989; 1184,084; 8,75288
 211,14;  298,990;  215,606; 1280,692; 7,82881
 211,73;  304,030;  202,914; 1388,013; 8,53228
 212,33;  320,750;  218,530; 1506,797; 7,93466
 212,93;  310,644;  198,914; 1587,260; 8,04772
 213,53;  286,164;  178,298; 1618,606; 7,48907
 214,13;  304,074;  200,450; 1689,169; 6,96063
 214,73;  303,049;  178,451; 1740,510; 7,97651
 215,33;  275,926;  160,837; 1762,383; 7,18613
 215,93;  319,895;  204,605; 1872,417; 6,91265
 216,53;  280,466;  159,606; 1926,444; 6,84044
 217,13;  344,194;  214,605; 2158,920; 6,66505
 217,73;  337,831;  190,528; 2304,263; 6,96886
 218,33;  305,521;  152,219; 2518,725; 6,47800
 218,93;  367,648;  182,832; 2769,091; 7,14606
 219,53;  377,566;  193,450; 3043,686; 6,45969
 220,13;  372,546;  158,449; 3363,047; 6,68093
 220,73;  413,093;  180,221; 3703,613; 6,60931
 221,32;  427,734;  184,529; 4093,106; 6,22234
 221,92;  460,553;  183,065; 4469,423; 6,47376
 222,52;  469,109;  183,066; 4860,098; 6,11590
 223,12;  503,013;  181,835; 5272,367; 6,30932
 223,72;  569,366;  191,912; 5711,636; 6,83828
 224,32;  587,139;  191,681; 6080,154; 6,71580
 224,92;  605,040;  176,296; 6396,211; 6,89307
 225,52;  626,369;  194,375; 6776,081; 6,56357
 226,12;  661,907;  184,066; 7115,680; 6,89364
 226,72;  673,661;  163,836; 7436,883; 7,00979
 227,31;  702,869;  150,836; 7843,941; 7,17569
 227,91;  763,671;  191,529; 8225,304; 7,12171
 228,51;  782,097;  176,068; 8674,641; 7,13095
 229,11;  842,614;  180,451; 9046,663; 7,46839
 229,71;  875,038;  178,683; 9391,280; 7,55873
 230,31;  919,789;  167,758; 9800,650; 7,80691
 230,91;  967,441;  165,146;10128,599; 8,05238
 231,51; 1008,654;  167,066;10384,244; 8,23700
 232,10; 1073,620;  162,988;10757,667; 8,59519
 232,70; 1119,181;  186,608;11009,483; 8,61668
 233,30; 1218,452;  196,066;11238,918; 9,25835
 233,90; 1227,814;  171,374;11352,438; 9,44847
 234,50; 1304,951;  174,451;11517,427; 9,96652
 235,10; 1353,270;  156,450;11505,442;10,54561
 235,70; 1438,692;  193,760;11579,833;10,93382
 236,29; 1466,171;  192,068;11503,674;11,26368
 236,89; 1467,918;  152,992;11438,703;11,65125
 237,49; 1546,819;  180,913;11287,940;12,29768
 238,09; 1563,377;  180,451;10997,578;12,78460
 238,69; 1618,536;  202,146;10858,055;13,29206
 239,29; 1608,690;  166,682;10503,772;13,94985
 239,89; 1634,402;  180,915;10194,569;14,51506
 240,48; 1621,970;  154,451; 9754,405;15,28673
 241,08; 1614,302;  170,529; 9405,870;15,63313
 241,68; 1649,787;  194,836; 9140,318;16,26464
 242,28; 1643,712;  174,220; 8763,467;17,10851
 242,88; 1632,811;  208,065; 8530,515;17,11931
 243,48; 1644,389;  199,374; 8222,440;18,01076
 244,07; 1622,418;  185,452; 8005,746;18,37483
 244,67; 1637,033;  194,220; 7827,115;18,90256
 245,27; 1648,722;  201,683; 7655,244;19,41406
 245,87; 1650,201;  198,988; 7542,632;19,76148
 246,47; 1659,206;  191,299; 7517,879;20,03538
 247,06; 1655,602;  176,221; 7552,186;20,05678
 247,66; 1690,766;  173,067; 7597,404;20,44222
 248,26; 1750,959;  204,375; 7721,867;20,57313
 248,86; 1751,374;  196,068; 7946,032;20,06855
 249,46; 1743,379;  150,220; 8117,436;19,99643
 250,05; 1859,726;  205,605; 8529,406;19,87218
 250,65; 1904,574;  158,684; 8867,977;20,04629
 251,25; 1977,992;  180,529; 9300,687;19,70869
 251,85; 2027,445;  183,915; 9897,809;18,97828
 252,44; 2094,866;  143,760;10426,548;18,97448
 253,04; 2231,631;  193,837;11157,152;18,58740
 253,64; 2281,799;  144,299;11872,353;18,22553
 254,24; 2425,143;  199,990;12750,291;17,72988
 254,84; 2504,456;  178,374;13710,898;17,18882
 255,43; 2601,736;  177,606;14641,288;16,76012
 256,03; 2711,011;  173,068;15619,314;16,43081
 256,63; 2826,896;  187,607;16570,915;16,10962
 257,23; 2873,612;  165,530;17440,270;15,67654
 257,82; 2940,981;  185,685;18410,923;15,11802
 258,42; 2977,021;  140,301;19238,014;14,85372
 259,02; 3078,883;  195,529;20100,066;14,48591
 259,62; 3081,683;  164,301;20780,805;14,15071
 260,21; 3075,954;  185,760;21389,750;13,63042
 260,81; 3023,048;  179,297;21840,834;13,12811
 261,41; 3060,085;  165,070;22271,751;13,09566
 262,01; 3048,682;  205,071;22747,222;12,61464
 262,60; 2981,689;  153,146;23059,270;12,34842
 263,20; 2935,589;  175,530;23358,004;11,90580
 263,80; 2909,472;  188,609;23556,520;11,64359
 264,40; 2822,677;  157,224;23717,182;11,31349
 264,99; 2817,029;  188,609;23856,252;11,10554
 265,59; 2723,397;  163,226;24016,091;10,73318
 266,19; 2700,133;  174,224;24242,712;10,49467
 266,78; 2703,111;  208,533;24397,709;10,31279
 267,38; 2622,043;  179,149;24300,377;10,12757
 267,98; 2580,278;  173,764;24345,555; 9,95588
 268,58; 2521,482;  178,072;24350,973; 9,69437
 269,17; 2473,122;  172,919;24355,377; 9,51187
 269,77; 2486,051;  194,454;24203,591; 9,54469
 270,37; 2395,357;  161,455;24082,628; 9,33860
 270,96; 2437,739;  221,993;24011,182; 9,31409
 271,56; 2317,719;  169,607;23734,204; 9,11584
 272,16; 2319,346;  176,301;23539,069; 9,17291
 272,75; 2277,832;  176,916;23407,117; 9,04390
 273,35; 2294,654;  184,069;23453,806; 9,07008
 273,95; 2268,800;  184,839;23409,924; 8,97289
 274,54; 2249,978;  164,144;23390,628; 8,98041
 275,14; 2317,195;  201,916;23686,758; 9,00700
 275,74; 2300,457;  154,454;23785,213; 9,08139
 276,33; 2379,017;  203,223;24173,832; 9,07692
 276,93; 2409,162;  186,451;24621,375; 9,09645
 277,53; 2464,832;  189,606;25047,943; 9,15277
 278,12; 2532,496;  166,145;25551,471; 9,32173
 278,72; 2641,993;  213,529;26164,319; 9,35796
 279,32; 2680,693;  179,453;26731,464; 9,42015
 279,91; 2792,662;  159,760;27416,178; 9,65975
 280,51; 2924,911;  171,452;27950,740; 9,91191
 281,11; 3031,255;  179,991;28722,006; 9,98971
 281,70; 3092,151;  161,530;29076,084;10,13546
 282,30; 3197,258;  172,992;29653,281;10,25860
 282,90; 3306,839;  175,453;30050,521;10,48160
 283,49; 3471,161;  201,377;30707,229;10,71855
 284,09; 3591,116;  206,761;31099,989;10,95501
 284,69; 3706,383;  199,299;31383,821;11,24623
 285,28; 3840,378;  196,684;31825,797;11,52007
 285,88; 3995,005;  220,762;32019,926;11,86900
 286,47; 4112,333;  181,223;32128,176;12,30512
 287,07; 4264,724;  214,837;32257,888;12,63889
 287,67; 4441,620;  200,143;32393,594;13,17497
 288,26; 4564,426;  177,683;32269,677;13,66927
 288,86; 4764,919;  180,684;32334,209;14,25733
 289,46; 5026,137;  193,376;32530,562;14,94490
 290,05; 5229,332;  170,375;32505,111;15,64558
 290,65; 5538,383;  184,223;32648,485;16,49247
 291,24; 5764,805;  193,068;32961,560;17,00334
 291,84; 6141,280;  197,530;33029,454;18,10357
 292,44; 6420,647;  183,220;33101,900;18,94798
 293,03; 6791,256;  239,145;33291,127;19,82365
 293,63; 7053,278;  183,300;33470,733;20,63835
 294,22; 7385,728;  192,991;33683,054;21,47723
 294,82; 7528,448;  174,532;33575,594;22,01701
 295,41; 7725,228;  161,376;33298,468;22,82594
 296,01; 7973,670;  224,685;33327,004;23,40919
 296,61; 8094,672;  193,683;32993,397;24,08859
 297,20; 8175,278;  195,301;32730,397;24,52729
 297,80; 8331,812;  193,682;32568,733;25,13704
 298,39; 8362,215;  170,992;32250,732;25,53394
 298,99; 8505,992;  197,839;32006,740;26,11896
 299,58; 8570,834;  196,528;31893,076;26,42024
 300,18; 8688,202;  210,606;31673,312;26,94491
 300,78; 8674,913;  177,375;31300,769;27,30273
 301,37; 8739,770;  187,532;31326,148;27,46505
 301,97; 8852,730;  195,068;31357,466;27,78240
 302,56; 8889,286;  183,530;31272,571;28,00265
 303,16; 9004,705;  169,761;31119,621;28,54599
 303,75; 8984,688;  177,067;31117,546;28,46634
 304,35; 9147,188;  173,066;31521,511;28,62701
 304,94; 9236,501;  183,299;31356,572;29,04155
 305,54; 9292,888;  206,529;31336,491;29,18847
 306,13; 9281,289;  163,912;31367,636;29,21888
 306,73; 9288,074;  175,143;31149,833;29,42057
 307,33; 9385,430;  194,374;31011,498;29,82451
 307,92; 9420,509;  186,914;31149,531;29,82175
 308,52; 9581,450;  169,608;31623,266;29,92289
 309,11; 9776,436;  181,070;32031,332;30,12649
 309,71; 9869,463;  162,840;32261,962;30,23953
 310,30; 9991,177;  169,145;32596,483;30,28936
 310,90;10136,484;  201,606;32942,868;30,34360
 311,49;10214,976;  185,299;33078,879;30,49129
 312,09;10239,917;  150,529;33147,793;30,57644
 312,68;10460,933;  223,760;33564,913;30,70432
 313,28;10484,355;  162,837;33776,608;30,70622
 313,87;10507,625;  155,683;33948,023;30,63399
 314,47;10611,213;  167,916;34121,906;30,75720
 315,06;10630,719;  166,914;34277,617;30,67602
 315,66;10724,225;  174,606;34487,947;30,74495
 316,25;10663,522;  146,223;34415,457;30,69021
 316,85;10681,435;  148,452;34577,725;30,59310
 317,44;10746,241;  178,455;34696,120;30,61559
 318,04;10735,708;  156,300;34691,771;30,63346
 318,63;10709,162;  148,835;34867,727;30,41666
 319,22;10758,942;  184,069;35016,168;30,35956
 319,82;10715,849;  173,838;34976,663;30,29068
 320,41;10677,351;  188,146;34860,446;30,25241
 321,01;10692,056;  191,144;35028,765;30,14245
 321,60;10683,082;  176,299;35146,306;30,04513
 322,20;10597,895;  155,606;35103,713;29,87941
 322,79;10661,423;  210,529;35170,511;29,89388
 323,39;10615,392;  169,374;35258,974;29,76956
 323,98;10579,965;  159,606;34983,952;29,92263
 324,58;10477,846;  164,454;34968,930;29,63237
 325,17;10389,535;  178,607;34806,918;29,48722
 325,76;10350,019;  190,606;34590,812;29,53300
 326,36;10219,022;  157,836;34290,160;29,47700
 326,95;10077,568;  191,914;33891,046;29,33504
 327,55; 9841,012;  156,453;33609,990;28,94928
 328,14; 9768,882;  168,374;33306,357;28,97131
 328,74; 9644,010;  204,146;32801,533;28,95896
 329,33; 9448,724;  185,067;32458,102;28,70401
 329,92; 9257,438;  160,301;31882,668;28,67736
 330,52; 9051,687;  172,451;31214,683;28,60373
 331,11; 8914,555;  176,376;30849,970;28,48763
 331,71; 8667,893;  169,607;30282,948;28,22100
 332,30; 8481,501;  186,683;29783,956;28,02561
 332,89; 8351,753;  225,837;29357,728;27,89354
 333,49; 8124,964;  185,914;28709,171;27,83360
 334,08; 7956,770;  176,299;28312,711;27,65268
 334,68; 7775,650;  182,915;27909,086;27,38472
 335,27; 7686,419;  184,528;27528,220;27,43555
 335,86; 7571,785;  223,838;27324,046;27,11399
 336,46; 7409,883;  190,759;27025,094;26,90256
 337,05; 7337,301;  172,607;26773,720;26,93381
 337,65; 7272,431;  161,915;26639,826;26,85452
 338,24; 7232,931;  224,298;26590,654;26,58173
 338,83; 7196,999;  208,068;26462,711;26,61979
 339,43; 7100,062;  177,069;26457,101;26,34317
 340,02; 7058,189;  178,531;26386,871;26,24988
 340,61; 7058,092;  173,837;26369,338;26,28030
 341,21; 7012,164;  203,607;26349,533;26,04060
 341,80; 6962,594;  179,915;26375,384;25,89257
 342,40; 6894,216;  171,682;26432,125;25,59947
 342,99; 6907,907;  182,067;26467,113;25,58809
 343,58; 6889,493;  175,990;26717,718;25,29414
 344,18; 6890,793;  190,836;26808,342;25,17124
 344,77; 6975,848;  162,992;27092,035;25,29929
 345,36; 6960,722;  157,453;27385,200;24,98653
 345,96; 7023,362;  203,606;27672,891;24,82684
 346,55; 6999,471;  164,143;27940,079;24,60881
 347,14; 7059,327;  155,297;28302,500;24,52830
 347,74; 7135,309;  140,142;28698,886;24,49396
 348,33; 7228,150;  175,526;29329,262;24,19115
 348,92; 7312,341;  185,218;29983,524;23,91788
 349,52; 7363,329;  147,526;30445,585;23,81606
 350,11; 7416,394;  173,454;30582,180;23,81862
 350,70; 7355,905;  173,452;30809,809;23,44421
 351,29; 7240,781;  148,764;30507,921;23,36039
 351,89; 7230,809;  174,685;30478,746;23,28442
 352,48; 7178,025;  155,299;30497,665;23,14495
 353,07; 7151,333;  182,066;30396,277;23,06619
 353,67; 7050,344;  191,756;30353,888;22,73907
 354,26; 6928,184;  170,990;30103,932;22,57444
 354,85; 6893,777;  185,067;29973,792;22,52097
 355,45; 6771,732;  155,684;29816,742;22,30550
 356,04; 6701,787;  174,759;29768,055;22,05577
 356,63; 6686,185;  201,145;29409,997;22,20231
 357,22; 6577,093;  175,917;29375,176;21,92239
 357,82; 6483,765;  193,224;29208,614;21,68002
 358,41; 6424,929;  201,760;29108,120;21,52872
 359,00; 6328,381;  158,300;28913,918;21,45696
 359,60; 6238,843;  180,221;28724,683;21,22521
 360,19; 6217,748;  176,605;28638,178;21,22561
 360,78; 6157,254;  190,222;28497,576;21,07944
 361,37; 6066,146;  174,761;28242,538;20,98985
 361,97; 6000,793;  186,530;28190,006;20,76265
 362,56; 5860,337;  169,531;27892,787;20,52719
 363,15; 5828,537;  213,453;27606,375;20,49830
 363,74; 5716,808;  174,685;27373,531;20,37631
 364,34; 5587,171;  195,992;26912,293;20,17936
 364,93; 5468,630;  163,069;26430,374;20,19834
 365,52; 5342,632;  149,376;26172,508;19,95630
 366,11; 5306,162;  171,146;25882,043;19,97214
 366,71; 5195,634;  163,377;25437,168;19,91097
 367,30; 5091,161;  170,607;25110,181;19,72990
 367,89; 5047,105;  198,990;24925,860;19,60667
 368,48; 4968,205;  198,224;24640,300;19,51545
 369,07; 4834,212;  179,760;24120,963;19,44118
 369,67; 4774,485;  203,454;23868,702;19,31537
 370,26; 4663,149;  171,452;23599,578;19,17224
 370,85; 4625,390;  179,530;23323,075;19,20993
 371,44; 4553,341;  176,145;23107,871;19,08795
 372,03; 4464,336;  152,223;22932,418;18,92922
 372,63; 4374,778;  152,684;22571,978;18,83241
 373,22; 4316,319;  166,376;22343,589;18,71265
 373,81; 4240,224;  148,376;22009,643;18,71734
 374,40; 4186,970;  165,913;21699,790;18,67317
 374,99; 4162,404;  169,761;21518,751;18,70179
 375,59; 4082,901;  162,528;21175,243;18,65714
 376,18; 4099,275;  193,761;21119,644;18,66356
 376,77; 4012,169;  186,299;20977,832;18,40110
 377,36; 4033,971;  195,838;20847,778;18,58486
 377,95; 3960,878;  181,146;20525,705;18,57859
 378,55; 3893,517;  157,913;20341,534;18,50810
 379,14; 3901,344;  185,299;20317,114;18,45857
 379,73; 3863,199;  175,684;20230,320;18,38734
 380,32; 3863,112;  185,991;20308,823;18,27338
 380,91; 3837,329;  175,685;20112,135;18,36658
 381,50; 3840,459;  189,915;20145,055;18,29375
 382,10; 3827,728;  166,530;19978,130;18,48007
 382,69; 3812,849;  153,376;19923,509;18,51011
 383,28; 3828,662;  190,761;19875,842;18,48050
 383,87; 3829,794;  170,377;19769,746;18,67109
 384,46; 3806,251;  162,070;19724,738;18,62824
 385,05; 3819,294;  193,223;19732,931;18,55745
 385,64; 3819,546;  178,069;19695,581;18,65749
 386,24; 3801,392;  149,609;19626,893;18,74893
 386,83; 3853,562;  192,455;19630,827;18,83443
 387,42; 3894,021;  188,761;19800,427;18,89314
 388,01; 3924,585;  187,379;19979,741;18,88206
 388,60; 3991,235;  175,378;20220,112;19,03670
 389,19; 4047,037;  156,457;20416,341;19,20337
 389,78; 4128,366;  165,765;20729,299;19,27004
 390,37; 4265,528;  222,994;21142,177;19,32453
 390,96; 4282,851;  180,763;21286,326;19,43605
 391,56; 4328,000;  176,227;21344,508;19,61318
 392,15; 4385,143;  160,072;21679,720;19,63355
 392,74; 4404,262;  151,460;21795,507;19,64883
 393,33; 4537,071;  166,227;22126,116;19,90376
 393,92; 4633,563;  173,461;22513,333;19,96476
 394,51; 4716,454;  149,304;22716,088;20,23837
 395,10; 4799,522;  192,848;22911,234;20,27730
 395,69; 4861,810;  176,924;23003,980;20,52339
 396,28; 4891,183;  185,464;23176,013;20,46806
 396,87; 4926,590;  192,620;23343,392;20,44843
 397,46; 5027,265;  181,314;23335,340;20,92919
 398,06; 5096,882;  189,701;23615,542;20,94773
 398,65; 5118,921;  177,244;23677,260;21,02840
 399,24; 5194,267;  188,014;23858,432;21,14983
 399,83; 5250,132;  164,329;23835,982;21,48478
 400,42; 5364,296;  201,796;23985,677;21,70587
 401,01; 5380,539;  182,573;24029,218;21,79747
 401,60; 5401,581;  177,275;24210,515;21,73784
 402,19; 5441,148;  196,513;24101,561;21,93944
 402,78; 5495,921;  200,602;24087,601;22,16821
 403,37; 5526,088;  187,228;23877,105;22,53646
 403,96; 5510,359;  182,241;23721,090;22,63542
 404,55; 5541,811;  167,487;23720,600;22,81789
 405,14; 5549,120;  167,808;23513,307;23,05075
 405,73; 5553,027;  183,285;23436,720;23,09225
 406,32; 5586,579;  190,910;23384,544;23,26358
 406,91; 5555,519;  180,307;23126,231;23,42557
 407,50; 5590,353;  178,159;22981,523;23,73419
 408,09; 5550,882;  155,241;22707,575;23,92498
 408,68; 5575,431;  181,013;22565,971;24,09840
 409,27; 5599,197;  175,086;22354,826;24,45525
 409,86; 5613,247;  170,231;22237,205;24,66589
 410,45; 5680,964;  200,684;22171,617;24,94332
 411,04; 5664,698;  197,445;22092,777;24,96995
 411,63; 5619,896;  175,204;21749,606;25,23682
 412,22; 5622,128;  201,425;21608,780;25,32168
 412,81; 5635,192;  192,883;21395,680;25,66788
 413,40; 5577,683;  204,187;21034,618;25,79638
 413,99; 5599,508;  234,803;20717,708;26,19113
 414,58; 5464,316;  160,726;20274,844;26,36750
 415,17; 5433,468;  175,114;20101,949;26,38830
 415,76; 5408,908;  169,195;19974,707;26,45583
 416,35; 5442,958;  159,116;19776,073;26,93508
 416,94; 5525,275;  199,502;19821,526;27,14182
 417,53; 5656,609;  172,960;20056,994;27,57815
 418,12; 5722,417;  166,036;20023,822;27,98087
 418,71; 5890,610;  190,494;20445,675;28,14152
 419,30; 5902,395;  177,189;20578,386;28,06309
 419,89; 6031,068;  176,573;20770,792;28,42786
 420,48; 6138,820;  195,110;21032,068;28,52485
 421,07; 6217,383;  185,340;21040,253;28,92385
 421,66; 6255,118;  165,876;21069,935;29,12947
 422,25; 6307,315;  172,718;21036,735;29,40276
 422,84; 6315,561;  208,487;21049,362;29,30335
 423,43; 6276,607;  171,489;20839,926;29,53836
 424,02; 6281,169;  206,026;20496,880;29,94030
 424,60; 6198,008;  165,714;20092,893;30,27169
 425,19; 6154,613;  185,793;19869,157;30,32419
 425,78; 6181,468;  196,485;19774,962;30,56919
 426,37; 6212,268;  189,715;19661,859;30,92907
 426,96; 6187,159;  189,638;19529,359;31,01142
 427,55; 6185,373;  179,020;19339,603;31,34745
 428,14; 6156,904;  167,788;19155,101;31,54273
 428,73; 6144,704;  186,021;19002,055;31,66811
 429,32; 6181,172;  191,715;18977,775;31,88245
 429,91; 6251,323;  212,482;18966,112;32,20092
 430,50; 6216,948;  195,711;18786,512;32,38826
 431,08; 6215,551;  200,864;18610,124;32,67207
 431,67; 6207,744;  233,863;18580,766;32,56071
 432,26; 6251,067;  230,939;18330,206;33,26172
 432,85; 6181,747;  244,016;18032,499;33,37964
 433,44; 6093,837;  259,014;17649,895;33,55105
 434,03; 5982,177;  264,704;17299,958;33,56259
 434,62; 5917,544;  220,476;16897,307;34,16158
 435,21; 5844,172;  235,708;16746,958;33,96753
 435,79; 5821,049;  230,782;16568,544;34,21685
 436,38; 5827,080;  224,164;16412,732;34,61032
 436,97; 5840,189;  220,472;16329,431;34,88566
 437,56; 5814,245;  235,930;16162,416;35,02540
 438,15; 5830,634;  218,700;16037,367;35,47666
 438,74; 5860,777;  235,776;16092,672;35,47353
 439,33; 5857,411;  219,777;16171,359;35,34216
 439,91; 5978,175;  187,314;16238,238;36,07806
 440,50; 5963,532;  236,006;16217,333;35,83886
 441,09; 6061,265;  220,312;16301,833;36,32090
 441,68; 6098,792;  214,310;16343,764;36,48283
 442,27; 6116,083;  196,464;16282,263;36,80028
 442,86; 6124,882;  183,537;16344,663;36,76319
 443,44; 6171,139;  185,307;16399,787;36,91659
 444,03; 6267,687;  234,768;16429,527;37,25229
 444,62; 6200,060;  186,844;16264,941;37,40005
 445,21; 6207,923;  202,230;16176,369;37,59635
 445,80; 6206,131;  225,535;15999,528;37,91428
 446,39; 6173,294;  250,920;15821,042;38,03678
 446,97; 6016,820;  183,225;15554,035;37,95242
 447,56; 6041,851;  181,761;15307,592;38,74227
 448,15; 5974,609;  185,994;15168,718;38,63527
 448,74; 5901,398;  195,686;14965,263;38,63152
 449,33; 5885,147;  191,608;14784,807;39,01502
 449,91; 5775,926;  191,298;14588,544;38,78956
 450,50; 5746,394;  181,375;14406,952;39,11981
 451,09; 5769,678;  191,837;14299,949;39,53641
 451,68; 5732,060;  209,682;14214,719;39,43137
 452,26; 5740,071;  197,604;14109,488;39,83981
 452,85; 5709,733;  182,989;14003,849;39,98842
 453,44; 5721,800;  201,832;14047,530;39,86775
 454,03; 5723,005;  183,680;13933,596;40,28625
 454,61; 5729,620;  175,370;13940,884;40,34902
 455,20; 5827,269;  205,139;14121,979;40,39804
 455,79; 5855,803;  204,679;14106,344;40,65070
 456,38; 5932,829;  204,752;14172,857;41,00826
 456,97; 5946,010;  183,445;14221,795;41,04874
 457,55; 5991,482;  187,213;14341,041;41,00847
 458,14; 6022,557;  207,599;14274,847;41,33686
 458,73; 5988,763;  197,751;14154,010;41,49401
 459,31; 6033,890;  215,519;14203,915;41,59427
 459,90; 6063,483;  226,750;14306,406;41,45509
 460,49; 6144,959;  273,366;14411,806;41,52928
 461,08; 6154,866;  191,133;14403,434;41,96177
 461,66; 6170,393;  192,365;14554,358;41,62395
 462,25; 6224,728;  188,517;14600,243;41,88403
 462,84; 6294,763;  218,133;14695,403;41,97359
 463,43; 6244,422;  161,130;14551,405;42,27363
 464,01; 6322,441;  195,821;14623,012;42,46578
 464,60; 6304,037;  229,977;14589,624;42,29951
 465,19; 6221,689;  165,359;14358,804;42,66991
 465,77; 6218,393;  190,281;14302,727;42,71486
 466,36; 6185,203;  206,669;14272,145;42,50502
 466,95; 6052,365;  182,899;13880,028;42,85180
 467,53; 5952,111;  179,819;13600,061;43,01184
 468,12; 5862,253;  212,434;13372,184;42,93257
 468,71; 5811,071;  196,898;13136,177;43,38861
 469,29; 5656,591;  176,972;12847,700;43,24628
 469,88; 5554,442;  179,894;12587,461;43,31669
 470,47; 5668,608;  239,969;12708,011;43,54043
 471,06; 5658,655;  196,585;12693,693;43,70668
 471,64; 5767,232;  203,278;12803,602;44,15724
 472,23; 5720,214;  165,274;12796,077;43,97931
 472,81; 5810,918;  172,430;12890,420;44,33475
 473,40; 5874,150;  179,197;13041,307;44,27698
 473,99; 5996,865;  265,197;13223,941;44,23012
 474,57; 6049,257;  172,889;13406,317;44,40548
 475,16; 6130,084;  187,660;13512,513;44,59655
 475,75; 6154,728;  200,888;13632,333;44,32762
 476,33; 6229,378;  219,733;13698,089;44,58738
 476,92; 6286,248;  211,812;13770,265;44,80184
 477,51; 6290,643;  201,272;13807,479;44,75436
 478,09; 6323,688;  193,810;13841,364;44,91558
 478,68; 6300,783;  204,964;13846,695;44,68509
 479,27; 6338,687;  216,888;13833,967;44,95677
 479,85; 6324,363;  204,195;13767,446;45,12317
 480,44; 6371,088;  163,425;13890,035;45,22357
 481,02; 7040,259;  199,193;15348,965;45,15623
 481,61; 7977,033;  219,270;17381,884;45,20152
 482,20; 8513,161;  201,346;18466,821;45,50561
 482,78; 8907,288;  225,040;19260,365;45,61124
 483,37; 9150,485;  221,575;19787,966;45,63392
 483,95; 9294,728;  238,421;20101,597;45,59345
 484,54; 9421,136;  253,270;20269,915;45,80121
 485,13; 9392,635;  215,035;20216,120;45,88551
 485,71; 9224,694;  190,959;20019,097;45,56018
 486,30; 9236,201;  226,420;19680,289;46,31357
 486,88; 8966,961;  268,420;19317,698;45,66337
 487,47; 8668,106;  232,958;18612,877;45,89329
 488,05; 8243,535;  227,419;17775,668;45,68044
 488,64; 7698,746;  227,263;16521,135;45,85456
 489,23; 6868,328;  242,418;14695,116;45,84549
 489,81; 5952,265;  230,033;12503,314;46,62349
 490,40; 5611,571;  203,648;11907,484;46,20641
 490,98; 5491,591;  173,955;11627,382;46,42834
 491,57; 5425,268;  215,187;11548,864;45,96991
 492,15; 5410,830;  189,647;11515,648;46,09908
 492,74; 5366,551;  199,957;11363,542;46,28078
 493,32; 5351,125;  218,340;11287,171;46,37152
 493,91; 5301,358;  195,570;11139,766;46,65293
 494,50; 5256,659;  207,721;11189,107;45,97723
 495,08; 5218,962;  183,798;11094,897;46,14718
 495,67; 5252,692;  208,339;11096,644;46,32817
 496,25; 5190,067;  170,184;10988,928;46,39987
 496,84; 5166,930;  167,724;10969,404;46,28174
 497,42; 5167,171;  162,107;10888,278;46,66217
 498,01; 5140,039;  198,262;10888,488;46,22706
 498,59; 5083,222;  171,183;10805,786;46,18921
 499,18; 5083,022;  163,647;10772,169;46,37192
 499,76; 5066,893;  200,338;10714,168;46,28718
 500,35; 4981,481;  190,951;10529,303;46,33747
 500,93; 4927,970;  178,260;10438,289;46,29334
 501,52; 4904,551;  177,337;10374,623;46,35757
 502,10; 4896,097;  191,489;10378,023;46,18458
 502,69; 4822,532;  182,180;10226,592;46,19834
 503,27; 4713,244;  170,567;10017,943;46,13084
 503,86; 4690,047;  175,719; 9986,836;46,01238
 504,44; 4616,591;  162,410; 9862,597;45,91850
 505,03; 4526,063;  149,257; 9629,414;46,16808
 505,61; 4455,217;  163,718; 9546,523;45,73790
 506,19; 4429,885;  182,257; 9366,059;46,25130
 506,78; 4322,605;  152,716; 9184,790;46,16756
 507,36; 4293,191;  167,795; 9072,185;46,32991
 507,95; 4200,972;  168,408; 8850,302;46,44798
 508,53; 4136,537;  164,332; 8761,887;46,20157
 509,12; 4056,600;  177,870; 8629,949;45,89085
 509,70; 4000,471;  180,715; 8488,348;45,97887
 510,29; 3980,490;  188,407; 8328,108;46,58750
 510,87; 3841,361;  164,409; 8144,099;46,07888
 511,46; 3757,560;  159,485; 7966,028;46,09051
 512,04; 3695,273;  180,638; 7824,201;45,98163
 512,62; 3633,605;  172,716; 7724,681;45,82767
 513,21; 3579,460;  158,868; 7536,098;46,36689
 513,79; 3515,662;  166,942; 7407,618;46,24872
 514,38; 3404,784;  144,405; 7251,704;45,87367
 514,96; 3394,866;  194,866; 7217,206;45,56885
 515,54; 3315,897;  155,481; 7062,844;45,75431
 516,13; 3288,849;  179,096; 6917,948;46,14662
 516,71; 3225,755;  174,403; 6831,734;45,83446
 517,30; 3148,931;  155,325; 6691,551;45,80023
 517,88; 3173,215;  185,787; 6621,965;46,41617
 518,46; 3075,352;  153,401; 6497,999;46,05416
 519,05; 3058,181;  160,478; 6477,664;45,87017
 519,63; 3047,860;  181,324; 6415,620;45,98010
 520,22; 3006,960;  182,092; 6337,987;45,88883
 520,80; 2984,174;  174,476; 6226,822;46,42329
 521,38; 2973,923;  195,631; 6241,450;45,95393
 521,97; 2933,388;  160,552; 6210,102;45,83540
 522,55; 2951,354;  182,475; 6213,881;45,90768
 523,13; 2919,265;  165,167; 6207,817;45,57765
 523,72; 2897,943;  162,709; 6145,874;45,71550
 524,30; 2981,938;  183,705; 6308,377;45,68789
 524,89; 2927,679;  154,244; 6317,937;44,99631
 525,47; 3024,015;  171,550; 6418,422;45,66230
 526,05; 3046,055;  147,089; 6489,573;45,70711
 526,64; 3076,170;  186,934; 6620,203;44,91086
 527,22; 3152,036;  175,397; 6752,643;45,25662
 527,80; 3219,574;  215,242; 6874,935;45,11217
 528,39; 3252,584;  171,472; 6963,659;45,36259
 528,97; 3302,584;  179,626; 7137,153;44,88603
 529,55; 3381,980;  181,090; 7292,452;45,01093
 530,14; 3459,874;  202,626; 7473,664;44,79757
 530,72; 3494,090;  171,780; 7625,729;44,57114
 531,30; 3531,550;  148,856; 7738,499;44,56986
 531,89; 3599,296;  177,010; 7827,403;44,73347
 532,47; 3646,475;  206,625; 7946,187;44,44503
 533,05; 3656,990;  203,319; 7993,435;44,33401
 533,63; 3690,164;  191,240; 8016,483;44,71330
 534,22; 3666,660;  166,163; 8045,473;44,42644
 534,80; 3741,622;  196,931; 8129,191;44,68702
 535,38; 3802,105;  268,010; 8276,247;44,13075
 535,97; 3691,466;  173,240; 8124,860;44,24540
 536,55; 3792,155;  215,546; 8278,382;44,35919
 537,13; 3748,799;  207,087; 8215,154;44,22680
 537,71; 3781,277;  246,164; 8231,165;44,27192
 538,30; 3761,465;  248,086; 8351,459;43,35700
 538,88; 3805,735;  273,084; 8422,315;43,34950
 539,46; 3930,127;  308,700; 8568,663;43,84313
 540,05; 3961,732;  308,623; 8699,627;43,53602
 540,63; 4016,273;  343,546; 8864,809;43,10073
 541,21; 4102,242;  351,007; 8970,782;43,51894
 541,79; 4159,220;  381,007; 9119,533;43,23627
 542,38; 4195,133;  400,161; 9275,331;42,75943
 542,96; 4250,208;  394,236; 9398,667;42,82305
 543,54; 4347,193;  420,776; 9606,688;42,74390
 544,12; 4398,974;  391,622; 9719,703;42,96009
 544,70; 4399,497;  380,082; 9848,243;42,45191
 545,29; 4487,190;  399,008;10022,801;42,47994
 545,87; 4486,143;  374,776;10086,994;42,33190
 546,45; 4455,494;  348,854;10109,053;42,07537
 547,03; 4482,624;  339,084;10206,710;41,99126
 547,62; 4501,477;  315,007;10346,147;41,73474
 548,20; 4608,005;  330,006;10512,803;42,01203
 548,78; 4658,218;  295,542;10627,019;42,22703
 549,36; 4709,287;  275,542;10914,598;41,67423
 549,94; 4775,290;  264,314;11046,201;41,83846
 550,53; 4864,603;  269,081;11255,266;41,83001
 551,11; 4886,145;  234,849;11460,197;41,43565
 551,69; 4990,581;  240,004;11797,137;41,10515
 552,27; 5095,662;  212,543;12027,242;41,33088
 552,85; 5227,946;  222,695;12402,005;41,09635
 553,44; 5371,371;  225,388;12707,128;41,22809
 554,02; 5457,362;  232,926;13119,768;40,54085
 554,60; 5586,425;  193,772;13422,753;40,76394
 555,18; 5765,495;  223,542;13805,579;40,80355
 555,76; 5884,835;  206,619;14182,816;40,62776
 556,34; 6001,324;  211,002;14557,042;40,36181
 556,93; 6151,992;  205,311;14950,136;40,33063
 557,51; 6266,853;  192,156;15311,022;40,17958
 558,09; 6402,189;  212,850;15734,992;39,87426
 558,67; 6559,075;  210,693;16082,476;39,99792
 559,25; 6676,105;  223,848;16371,596;39,95763
 559,83; 6769,030;  205,308;16683,960;39,83167
 560,41; 6898,072;  205,771;17055,006;39,71872
 561,00; 7040,175;  208,539;17343,264;39,87012
 561,58; 7074,343;  198,464;17668,680;39,35773
 562,16; 7148,718;  185,157;18011,648;39,06299
 562,74; 7348,704;  167,234;18288,528;39,63001
 563,32; 7481,446;  174,923;18759,153;39,31571
 563,90; 7560,625;  207,309;19120,524;38,87925
 564,48; 7748,512;  204,772;19511,356;39,07341
 565,06; 7928,884;  188,232;20160,583;38,75684
 565,65; 8185,628;  204,153;20836,746;38,68382
 566,23; 8491,286;  250,770;21605,331;38,58902
 566,81; 8707,829;  195,001;22249,173;38,59962
 567,39; 8997,478;  205,077;23136,467;38,34221
 567,97; 9198,187;  222,924;23837,757;38,00689
 568,55; 9518,048;  234,770;24603,461;38,09510
 569,13; 9784,046;  195,539;25332,542;38,14499
 569,71;10104,903;  195,311;26288,841;37,97720
 570,29;10442,705;  230,004;27237,665;37,81409
 570,87;10674,907;  228,157;28016,084;37,59456
 571,45;10874,524;  222,924;28595,630;37,54171
 572,03;11014,586;  180,307;29118,291;37,43965
 572,61;11272,299;  171,539;29768,913;37,50590
 573,20;11468,712;  212,155;30457,944;37,21694
 573,78;11628,919;  194,693;31102,278;36,99489
 574,36;11816,425;  197,001;31598,733;37,00249
 574,94;11966,001;  251,538;31941,039;36,96639
 575,52;11945,503;  186,690;32172,417;36,76269
 576,10;12248,383;  249,537;32753,885;36,91459
 576,68;12295,629;  222,307;33359,301;36,43457
 577,26;12507,513;  242,920;34034,218;36,29512
 577,84;12692,187;  240,847;34439,972;36,40836
 578,42;12774,861;  277,153;34750,082;36,25369
 579,00;12680,622;  227,846;34942,556;35,87176
 579,58;12791,519;  257,538;35231,125;35,83842
 580,16;12786,550;  239,076;35261,609;35,82686
 580,74;12715,323;  233,229;35397,512;35,49651
 581,32;12705,459;  234,076;35482,642;35,38125
 581,90;12662,647;  240,307;35369,754;35,36162
 582,48;12639,177;  242,230;35585,042;35,07629
 583,06;12643,059;  244,307;35773,307;34,89755
 583,64;12676,901;  240,923;35789,173;34,98338
 584,22;12512,974;  251,459;35758,020;34,53310
 584,80;12355,698;  261,537;35487,370;34,33321
 585,38;12168,914;  260,617;35102,456;34,17815
 585,96;12171,234;  224,154;35305,083;34,05577
 586,54;12133,998;  251,921;35185,484;34,01336
 587,12;12105,188;  221,768;35412,288;33,76881
 587,70;12153,238;  257,846;35489,986;33,76290
 588,28;12072,374;  242,306;35598,019;33,46013
 588,86;12036,714;  243,460;35696,487;33,26445
 589,44;12012,383;  219,843;35803,711;33,14013
 590,02;12081,446;  234,843;36051,052;33,07609
 590,59;12086,942;  220,075;36245,321;32,94042
 591,17;12052,360;  223,764;36479,320;32,62561
 591,75;12020,591;  213,227;36521,830;32,51947
 592,33;12141,455;  238,535;36839,517;32,52077
 592,91;12089,061;  193,918;37044,756;32,27916
 593,49;12130,844;  206,764;37432,306;32,03199
 594,07;12157,249;  212,841;37568,143;31,97514
 594,65;12090,497;  224,459;37618,762;31,73221
 595,23;12114,829;  217,612;38120,562;31,38863
 595,81;12087,424;  221,612;38259,539;31,19469
 596,39;12110,559;  209,996;38308,269;31,23649
 596,97;12094,653;  206,149;38540,276;31,01285
 597,55;12038,400;  211,074;38368,431;30,99619
 598,12;11923,747;  184,302;38453,822;30,67571
 598,70;11940,586;  195,149;38552,494;30,62109
 599,28;11964,466;  214,995;38744,330;30,49487
 599,86;11878,012;  204,841;38706,937;30,31827
 600,44;11858,037;  172,610;38933,337;30,14760
 601,02;11850,144;  227,608;38927,712;30,03231
 601,60;11745,955;  209,688;38862,685;29,84572
 602,18;11708,997;  178,610;38870,938;29,80019
 602,75;11626,728;  189,920;39007,867;29,46268
 603,33;11565,720;  201,687;38987,272;29,29963
 603,91;11489,758;  188,840;39040,469;29,08737
 604,49;11505,052;  208,226;39087,397;29,05624
 605,07;11440,084;  215,996;39057,561;28,89711
 605,65;11432,120;  225,533;39172,729;28,77380
 606,23;11427,694;  264,306;39339,727;28,56882
 606,80;11340,936;  285,074;39292,079;28,34327
 607,38;11300,662;  300,686;39398,846;28,13425
 607,96;11304,187;  337,612;39460,608;28,03102
 608,54;11264,636;  389,225;39519,710;27,79268
 609,12;11256,585;  377,689;39488,530;27,81555
 609,70;11221,153;  406,226;39536,322;27,63839
 610,27;11164,985;  399,458;39596,436;27,46519
 610,85;11118,117;  415,995;39673,996;27,26100
 611,43;11043,267;  418,226;39607,677;27,11199
 612,01;10939,320;  389,150;39405,678;27,04026
 612,59;10870,449;  400,072;39457,428;26,80770
 613,16;10764,150;  365,767;39440,885;26,61127
 613,74;10706,446;  354,149;39277,032;26,59694
 614,32;10628,495;  334,533;39289,863;26,42504
 614,90;10523,917;  313,842;39167,606;26,27821
 615,48;10368,796;  264,151;38815,633;26,21078
 616,05;10283,364;  257,844;38842,752;25,98301
 616,63;10199,932;  267,460;38596,795;25,91350
 617,21;10155,589;  266,458;38494,004;25,86912
 617,79;10070,066;  245,073;38478,384;25,69747
 618,36; 9911,600;  268,996;38341,157;25,32718
 618,94; 9776,373;  209,920;38066,448;25,27028
 619,52; 9638,476;  227,536;37750,342;25,08059
 620,10; 9632,488;  235,304;37721,155;25,06861
 620,67; 9459,273;  234,229;37593,632;24,69270
 621,25; 9441,405;  252,303;37527,175;24,65227
 621,83; 9324,768;  224,689;37484,189;24,42351
 622,41; 9372,733;  272,305;37410,324;24,50434
 622,98; 9225,029;  257,460;37138,325;24,31497
 623,56; 9195,308;  249,537;37196,221;24,21265
 624,14; 9082,826;  239,226;37025,315;24,04061
 624,72; 9027,954;  232,920;36893,535;23,99042
 625,29; 8972,573;  218,691;36946,057;23,83477
 625,87; 8979,166;  265,996;36963,556;23,74318
 626,45; 8818,355;  211,153;36814,243;23,51496
 627,02; 8792,158;  228,458;36763,334;23,43980
 627,60; 8709,981;  216,072;36601,251;23,34442
 628,18; 8634,047;  203,535;36778,453;23,04998
 628,76; 8598,110;  204,075;36703,843;22,99750
 629,33; 8603,800;  236,844;36620,875;22,99623
 629,91; 8509,719;  220,766;36669,155;22,74162
 630,49; 8509,077;  236,152;36885,051;22,57346
 631,06; 8495,741;  224,460;36968,332;22,51064
 631,64; 8429,667;  236,691;36931,222;22,32751
 632,22; 8353,624;  191,076;36867,998;22,25527
 632,79; 8394,120;  222,922;37220,911;22,08552
 633,37; 8303,695;  206,150;37185,197;21,89766
 633,95; 8291,353;  217,537;37305,676;21,76927
 634,52; 8286,052;  204,151;37411,449;21,72128
 635,10; 8257,439;  202,997;37377,906;21,66634
 635,68; 8217,020;  217,153;37630,353;21,38247
 636,25; 8176,352;  192,692;37673,295;21,30078
 636,83; 8170,418;  186,767;37842,843;21,20149
 637,41; 8144,220;  194,538;37809,837;21,13417
 637,98; 8152,854;  220,230;38059,492;20,96400
 638,56; 8134,331;  217,539;38136,337;20,87828
 639,13; 8074,543;  203,768;38190,123;20,72001
 639,71; 8085,336;  245,152;38394,802;20,55113
 640,29; 7969,651;  171,152;38119,221;20,55045
 640,86; 7999,486;  196,844;38359,500;20,44575
 641,44; 7926,628;  195,613;38410,933;20,23015
 642,02; 7922,386;  222,152;38363,981;20,18843
 642,59; 7853,606;  195,075;38474,337;20,00700
 643,17; 7789,517;  195,921;38457,694;19,84643
 643,74; 7744,968;  186,228;38548,281;19,70369
 644,32; 7732,187;  217,151;38467,021;19,64722
 644,89; 7648,330;  207,382;38420,839;19,47206
 645,47; 7651,164;  237,074;38521,349;19,36589
 646,05; 7560,615;  206,536;38420,705;19,24438
 646,62; 7541,296;  201,844;38402,907;19,21269
 647,20; 7486,515;  207,690;38607,956;18,95514
 647,77; 7449,196;  185,767;38427,004;18,99371
 648,35; 7352,569;  180,074;38225,745;18,85233
 648,92; 7354,789;  217,305;38309,794;18,73725
 649,50; 7251,777;  175,459;38234,996;18,59276
 650,08; 7261,151;  171,382;38187,660;18,64930
 650,65; 7185,755;  185,228;38396,554;18,32055
 651,23; 7279,589;  165,689;39107,910;18,26783
 651,80; 7450,040;  179,535;40033,113;18,24304
 652,38; 7510,721;  194,766;40427,469;18,18410
 652,95; 7489,094;  163,458;40771,671;18,03979
 653,53; 7517,006;  190,766;41022,181;17,94265
 654,10; 7548,764;  222,151;41124,076;17,91264
 654,68; 7464,675;  190,689;41047,509;17,80360
 655,25; 7426,587;  178,535;41136,634;17,69626
 655,83; 7371,730;  178,612;41312,836;17,48694
 656,40; 7365,487;  214,689;41245,731;17,42778
 656,98; 7267,399;  187,920;41228,395;17,24999
 657,55; 7246,926;  198,227;41059,136;17,25047
 658,13; 7074,530;  190,843;40647,338;17,01504
 658,70; 7036,211;  203,842;40417,156;16,99032
 659,28; 6809,277;  180,150;39642,127;16,79877
 659,85; 6677,419;  196,612;38796,945;16,78951
 660,43; 6674,716;  213,073;38870,763;16,71503
 661,00; 6618,089;  191,304;38975,734;16,57053
 661,58; 6627,308;  183,765;39279,783;16,48133
 662,15; 6669,066;  174,458;39463,600;16,53029
 662,73; 6714,824;  233,611;39757,803;16,39809
 663,30; 6657,736;  186,534;40068,005;16,22609
 663,88; 6648,032;  197,765;40163,822;16,13936
 664,45; 6643,021;  183,227;40366,179;16,07596
 665,03; 6643,779;  179,842;40832,381;15,90045
 665,60; 6776,229;  262,534;41160,429;15,92672
 666,17; 6710,218;  190,765;41403,401;15,81906
 666,75; 6738,129;  188,457;41655,988;15,79470
 667,32; 6780,810;  215,072;41977,806;15,72152
 667,90; 6772,876;  188,072;42194,085;15,67586
 668,47; 6786,326;  208,149;42570,672;15,52829
 669,05; 6819,469;  177,842;42819,951;15,57528
 669,62; 6738,919;  163,995;42916,692;15,37897
 670,19; 6767,677;  172,688;43051,971;15,38036
 670,77; 6772,973;  197,226;43265,865;15,26806
 671,34; 6719,269;  176,072;43150,683;15,22573
 671,92; 6751,950;  169,918;43589,347;15,15919
 672,49; 6755,631;  196,072;43523,934;15,13936
 673,06; 6673,005;  154,918;43520,828;15,03044
 673,64; 6653,993;  172,995;43528,338;14,94856
 674,21; 6613,136;  161,764;43487,695;14,89032
 674,79; 6636,586;  193,995;43788,589;14,77842
 675,36; 6703,190;  198,149;43863,792;14,89739
 675,93; 6637,717;  167,995;43710,686;14,85834
 676,51; 6625,860;  182,225;43909,581;14,73593
 677,08; 6560,079;  188,687;43958,937;14,55644
 677,65; 6560,452;  187,918;44171,370;14,48848
 678,23; 6602,056;  193,379;44278,957;14,53690
 678,80; 6584,045;  169,071;44424,159;14,49545
 679,38; 6598,495;  175,379;44556,515;14,47263
 679,95; 6580,022;  186,841;44784,871;14,33512
 680,52; 6573,242;  175,917;45115,997;14,23523
 681,10; 6631,461;  184,917;45545,814;14,21168
 681,67; 6659,373;  197,533;45819,248;14,16396
 682,24; 6617,131;  163,610;45886,604;14,11439
 682,82; 6681,273;  175,456;46435,268;14,06365
 683,39; 6761,801;  214,148;46738,778;14,07352
 683,96; 6745,635;  178,071;47100,980;13,99650
 684,54; 6743,163;  163,686;47315,721;13,95375
 685,11; 6824,997;  216,994;47796,077;13,88846
 685,68; 6800,601;  183,609;48151,202;13,79471
 686,25; 6756,052;  174,763;48245,712;13,69078
 686,83; 6816,502;  177,994;48409,837;13,76374
 687,40; 6850,029;  164,301;48766,578;13,75600
 687,97; 6884,325;  219,763;49137,011;13,62416
 688,55; 6805,006;  163,455;49114,829;13,56765
 689,12; 6828,995;  146,378;49392,031;13,56996
 689,69; 6852,830;  160,686;49510,311;13,56068
 690,26; 6861,357;  172,070;49682,590;13,51084
 690,84; 6816,730;  175,763;49831,100;13,37413
 691,41; 6808,103;  187,301;49880,764;13,32329
 691,98; 6826,554;  189,147;50233,427;13,26307
 692,56; 6846,081;  174,686;50284,168;13,31364
 693,13; 6841,377;  221,916;50345,447;13,20629
 693,70; 6882,135;  192,609;50475,650;13,30374
 694,27; 6843,816;  169,455;50631,467;13,22651
 694,84; 6824,881;  158,916;50728,747;13,18170
 695,42; 6900,409;  216,993;50812,641;13,20947
 695,99; 6820,474;  185,531;51125,920;13,02492
 696,56; 6855,847;  176,762;50773,200;13,20070
 697,13; 6906,067;  182,378;51275,863;13,15958
 697,71; 6845,902;  161,454;51270,989;13,07867
 698,28; 6892,352;  180,916;51717,114;13,02276
 698,85; 6832,956;  145,531;51689,163;12,97430
 699,42; 6857,791;  145,454;51791,519;12,99680
 699,99; 6927,933;  188,070;51950,336;13,02080
 700,57; 6889,768;  182,223;52047,000;12,93276
 701,14; 6870,372;  172,377;52172,203;12,88080
 701,71; 6957,361;  178,377;52392,328;12,98309
 702,28; 6925,888;  171,531;52471,223;12,91472
 702,85; 6905,492;  180,300;52403,502;12,87779
 703,43; 6960,481;  181,531;52774,166;12,88954
 704,00; 6962,238;  195,377;52887,214;12,84233
 704,57; 6919,458;  175,992;52949,724;12,77807
 705,14; 6969,062;  199,531;53182,080;12,77691
 705,71; 6983,666;  203,838;53139,513;12,80767
 706,28; 6932,962;  181,300;53165,946;12,74268
 706,86; 6973,951;  208,300;53405,610;12,71803
 707,43; 6953,170;  226,069;53336,813;12,66618
 708,00; 6921,082;  204,223;53266,322;12,65849
 708,57; 6895,840;  174,069;53150,063;12,68833
 709,14; 6942,675;  200,761;53341,573;12,68689
 709,71; 6902,510;  178,915;53489,083;12,61222
 710,28; 6920,344;  180,530;53723,670;12,58763
 710,86; 6934,256;  200,761;53711,411;12,58347
 711,43; 6940,553;  210,376;53873,382;12,54156
 712,00; 6918,695;  186,761;53907,046;12,53146
 712,57; 6957,530;  201,453;54009,095;12,55598
 713,14; 6954,826;  179,145;54185,989;12,54597
 713,71; 6931,430;  187,222;54008,807;12,53068
 714,28; 6920,957;  194,761;54082,702;12,48182
 714,85; 6884,485;  178,991;53894,596;12,48332
 715,42; 6950,166;  184,376;54027,183;12,56582
 716,00; 7012,539;  250,530;54201,078;12,53372
 716,57; 6937,527;  193,068;54324,126;12,45950
 717,14; 6974,747;  177,376;54273,252;12,56541
 717,71; 6930,812;  172,760;54275,531;12,49114
 718,28; 7009,724;  216,145;54345,887;12,55055
 718,85; 6952,944;  167,145;54372,089;12,51878
 719,42; 7006,394;  204,299;54609,215;12,50272
 719,99; 6957,075;  174,529;54345,725;12,52058
 720,56; 7042,217;  191,991;54672,158;12,57380
 721,13; 7035,744;  176,529;54740,206;12,57103
 721,70; 6991,579;  170,068;54607,101;12,53101
 722,27; 7010,645;  196,837;54661,380;12,51054
 722,84; 7089,633;  237,991;54881,121;12,53889
 723,41; 6995,545;  167,683;54741,631;12,51121
 723,98; 7048,226;  182,837;54994,064;12,52552
 724,55; 7098,138;  214,990;55060,805;12,55000
 725,12; 7039,896;  154,221;55026,776;12,54849
 725,69; 7119,269;  180,298;55180,286;12,61631
 726,27; 7108,104;  187,375;55261,719;12,56616
 726,84; 7136,862;  198,836;55627,383;12,51706
 727,41; 7193,774;  208,606;55544,816;12,62314
 727,98; 7225,685;  207,452;55875,941;12,60719
 728,55; 7268,905;  216,836;55755,144;12,69767
 729,12; 7240,278;  167,605;55813,961;12,71004
 729,69; 7308,651;  210,221;55962,779;12,73203
 730,26; 7328,717;  198,682;56213,443;12,72885
 730,82; 7318,244;  184,913;56095,030;12,75857
 731,39; 7302,463;  194,374;56137,617;12,70589
 731,96; 7334,529;  169,990;56522,127;12,71387
 732,53; 7413,748;  190,067;56737,329;12,77459
 733,10; 7417,275;  203,451;56801,224;12,74577
 733,67; 7492,956;  205,605;57072,887;12,81466
 734,24; 7418,330;  182,605;56736,474;12,79439
 734,81; 7445,395;  200,066;56852,754;12,78903
 735,38; 7427,999;  191,759;56642,571;12,81867
 735,95; 7412,757;  189,143;56516,774;12,82428
 736,52; 7500,592;  206,759;56567,668;12,94130
 737,09; 7459,581;  214,066;56263,563;12,92699
 737,66; 7502,569;  226,989;56505,457;12,92782
 738,23; 7498,558;  181,758;56571,890;12,97532
 738,80; 7642,624;  234,066;56727,016;13,11413
 739,37; 7618,920;  220,451;57013,449;13,02708
 739,94; 7633,909;  191,220;57087,190;13,08122
 740,51; 7711,051;  288,989;57217,315;13,03756
 741,07; 7655,117;  188,758;57010,210;13,14003
 741,64; 7699,798;  210,681;57304,643;13,11718
 742,21; 7726,633;  198,297;57378,922;13,16589
 742,78; 7673,852;  164,296;57089,278;13,19202
 743,35; 7744,841;  185,450;57470,019;13,19621
 743,92; 7789,829;  221,066;57462,221;13,22259
 744,49; 7821,433;  212,681;57394,193;13,30632
 745,06; 7787,499;  186,066;57407,318;13,28428
 745,63; 7765,488;  177,065;57428,136;13,25464
 746,19; 7837,938;  182,835;57418,646;13,37467
 746,76; 7776,619;  194,527;57385,156;13,25758
 747,33; 7830,223;  186,911;57375,512;13,36510
 747,90; 7888,596;  204,142;57591,022;13,39061
 748,47; 7894,662;  197,758;57503,916;13,43120
 749,04; 7915,035;  204,219;57567,426;13,44209
 749,61; 7935,024;  221,065;57412,859;13,48788
 750,17; 7960,858;  219,527;57580,831;13,49574
 750,74; 7973,539;  207,603;57433,418;13,57069
 751,31; 7908,990;  187,680;57384,928;13,49944
 751,88; 7917,594;  175,757;57254,515;13,56343
 752,45; 7977,121;  188,526;57389,794;13,61612
 753,02; 7993,802;  213,680;57212,150;13,64970
 753,58; 8008,560;  180,449;57085,352;13,75648
 754,15; 8047,394;  184,834;57280,478;13,77086
 754,72; 8031,921;  183,295;57070,449;13,79683
 755,29; 8045,141;  181,834;56891,421;13,86592
 755,86; 8093,360;  199,065;57059,239;13,88370
 756,42; 8076,811;  211,065;56937,902;13,86600
 756,99; 8060,338;  182,680;56933,489;13,88114
 757,56; 8085,634;  193,372;56864,153;13,92651
 758,13; 8104,392;  162,141;56730,279;14,04015
 758,70; 8203,457;  184,910;56782,635;14,16761
 759,26; 8210,908;  190,295;56940,606;14,13316
 759,83; 8218,742;  201,064;57008,116;14,11388
 760,40; 8241,039;  190,372;56726,626;14,23983
 760,97; 8222,797;  177,218;56920,059;14,17902
 761,53; 8226,708;  164,526;56539,339;14,30104
 762,10; 8241,313;  164,756;56492,925;14,33840
 762,67; 8272,686;  203,295;56444,128;14,34792
 763,24; 8201,367;  157,525;55971,945;14,41176
 763,80; 8305,663;  185,833;56198,609;14,49639
 764,37; 8286,652;  179,448;56055,427;14,50928
 764,94; 8244,487;  168,602;55661,322;14,55305
 765,50; 8264,091;  165,371;55636,601;14,59986
 766,07; 8321,849;  203,141;55684,341;14,63326
 766,64; 8285,529;  167,371;55326,159;14,71780
 767,21; 8299,441;  173,756;55232,054;14,75833
 767,77; 8316,276;  190,602;55148,564;14,78525
 768,34; 8334,034;  196,525;55235,689;14,78494
 768,91; 8340,715;  196,371;54968,815;14,86942
 769,47; 8392,780;  188,833;55026,940;14,96030
 770,04; 8397,615;  191,833;54845,911;15,01404
 770,61; 8378,681;  181,217;54715,498;15,03176
 771,18; 8390,131;  170,832;54589,008;15,10396
 771,74; 8466,197;  190,294;54655,364;15,19488
 772,31; 8404,878;  176,140;54451,028;15,16122
 772,88; 8389,251;  169,448;54240,846;15,20176
 773,44; 8404,086;  166,448;54021,971;15,29581
 774,01; 8468,382;  193,909;54134,943;15,33985
 774,58; 8443,217;  177,140;53742,914;15,43164
 775,14; 8524,129;  172,217;53925,271;15,53756
 775,71; 8481,579;  174,678;53789,319;15,49372
 776,27; 8551,644;  218,293;53678,829;15,58786
 776,84; 8578,710;  245,063;53766,262;15,57074
 777,41; 8605,006;  190,447;53549,849;15,76959
 777,97; 8536,226;  181,986;53314,897;15,72329
 778,54; 8566,753;  194,601;53366,869;15,74534
 779,11; 8647,742;  212,139;53356,456;15,87301
 779,67; 8625,346;  169,601;53295,504;15,91643
 780,24; 8655,719;  193,909;53023,937;16,01705
 780,80; 8698,631;  214,370;53013,678;16,06889
 781,37; 8747,158;  205,216;52987,188;16,18345
 781,94; 8693,839;  191,755;52730,160;16,18261
 782,50; 8760,058;  198,216;52704,439;16,30634
 783,07; 8805,124;  213,139;52829,641;16,32945
 783,63; 8744,574;  181,985;52499,151;16,36669
 784,20; 8806,793;  207,985;52386,507;16,47959
 784,77; 8845,397;  194,600;52324,094;16,59482
 785,33; 8795,309;  168,447;52102,527;16,61118
 785,90; 8871,221;  197,985;52037,730;16,73086
 786,46; 8898,286;  214,677;51925,317;16,79269
 787,03; 8859,275;  183,831;51839,903;16,79463
 787,59; 8914,187;  198,369;51767,260;16,90131
 788,16; 8910,945;  197,369;51654,000;16,93382
 788,73; 8962,395;  200,985;51537,049;17,06677
 789,29; 8915,999;  190,062;51084,559;17,14515
 789,86; 8922,757;  209,138;50995,453;17,15741
 790,42; 8930,130;  204,446;50920,810;17,20487
 790,99; 8922,734;  207,369;50563,320;17,30752
 791,55; 8888,723;  191,369;50593,906;17,25579
 792,12; 8949,788;  216,984;50541,878;17,35285
 792,68; 8924,316;  202,830;50166,311;17,45572
 793,25; 8906,304;  212,984;49944,744;17,48042
 793,81; 8934,216;  253,138;49621,331;17,58435
 794,38; 8851,974;  168,907;49381,379;17,64404
 794,94; 8877,501;  196,446;49312,505;17,67458
 795,51; 8883,643;  214,369;48964,938;17,78292
 796,07; 8848,940;  203,599;48756,525;17,80601
 796,64; 8895,775;  218,984;48868,958;17,83514
 797,20; 8834,148;  209,445;48385,929;17,90231
 797,77; 8804,213;  184,138;47988,362;18,03204
 798,33; 8799,202;  199,368;47845,103;18,04954
 798,90; 8836,191;  223,291;47800,613;18,10295
 799,46; 8796,872;  208,907;47259,662;18,25256
 800,03; 8780,860;  208,214;47214,864;18,23709
 800,59; 8805,388;  222,368;46957,528;18,36523
 801,15; 8821,761;  221,753;46844,884;18,44580
 801,72; 8757,288;  226,137;46459,779;18,45226
 802,28; 8779,969;  238,830;46156,519;18,60098
 802,85; 8701,650;  206,830;46055,722;18,52786
 803,41; 8723,177;  209,906;45829,924;18,66126
 803,98; 8710,319;  211,599;45325,588;18,83833
 804,54; 8707,462;  212,676;45133,252;18,91068
 805,11; 8649,297;  212,522;44999,915;18,83739
 805,67; 8680,593;  238,675;44844,349;18,92566
 806,23; 8612,889;  215,522;44381,705;19,01312
 806,80; 8609,878;  222,829;44288,522;19,03306
 807,36; 8663,175;  232,060;44206,417;19,17280
 807,93; 8584,240;  239,829;43938,081;19,09553
 808,49; 8539,383;  203,598;43598,206;19,20926
 809,05; 8535,525;  191,906;43368,870;19,32424
 809,62; 8578,129;  230,290;43348,765;19,36024
 810,18; 8587,887;  222,983;43249,582;19,44124
 810,74; 8567,030;  190,983;42947,400;19,59015
 811,31; 8586,018;  193,829;42808,679;19,69311
 811,87; 8617,776;  207,521;42600,343;19,83887
 812,44; 8630,996;  240,983;42570,776;19,82059
 813,00; 8584,446;  166,752;42252,363;20,00136
 813,56; 8621,588;  218,829;42345,258;19,94653
 814,13; 8671,500;  222,367;42177,383;20,13855
 814,69; 8667,719;  211,367;41986,508;20,24255
 815,25; 8527,708;  188,752;41599,403;20,13723
 815,82; 8643,774;  233,751;41614,374;20,32358
 816,38; 8611,839;  246,751;41365,884;20,34354
 816,94; 8500,905;  203,059;41060,010;20,30951
 817,51; 8538,970;  186,444;40868,904;20,53103
 818,07; 8569,498;  205,367;40651,953;20,67945
 818,63; 8541,178;  221,751;40447,309;20,68194
 819,20; 8552,244;  217,982;40328,973;20,77800
 819,76; 8444,310;  202,443;39945,175;20,73805
 820,32; 8488,375;  247,520;39857,147;20,80518
 820,89; 8504,133;  234,905;39659,349;20,97488
 821,45; 8527,199;  198,597;39336,397;21,28020
 822,01; 8436,341;  222,751;39097,369;21,12841
 822,57; 8464,868;  229,366;38904,802;21,29388
 823,14; 8413,780;  186,905;38724,389;21,34772
 823,70; 8394,846;  203,828;38463,899;21,40879
 824,26; 8404,142;  201,135;38282,870;21,54053
 824,82; 8415,977;  231,981;38128,227;21,59579
 825,39; 8390,504;  208,751;37809,737;21,75941
 825,95; 8374,416;  231,135;37881,400;21,62875
 826,51; 8375,635;  226,135;37413,680;21,91460
 827,08; 8402,008;  255,058;37546,267;21,84684
 827,64; 8373,843;  234,520;37333,623;21,93941
 828,20; 8373,140;  203,827;37073,825;22,15707
 828,76; 8445,667;  231,981;37046,643;22,31091
 829,32; 8424,501;  237,366;36879,691;22,34338
 829,89; 8352,259;  193,135;36702,663;22,34793
 830,45; 8435,556;  215,058;36642,942;22,56650
 831,01; 8425,160;  217,904;36452,144;22,65055
 831,57; 8450,379;  225,365;36346,731;22,77049
 832,14; 8429,983;  210,904;36376,472;22,72626
 832,70; 8454,895;  200,058;36099,982;22,99402
 833,26; 8438,268;  185,519;36024,953;23,02701
 833,82; 8438,872;  211,673;35978,079;23,00259
 834,38; 8477,246;  201,519;35897,973;23,18361
 834,95; 8469,157;  193,980;35778,560;23,25495
 835,51; 8457,684;  172,596;35642,301;23,35821
 836,07; 8556,904;  216,134;35712,503;23,49753
 836,63; 8592,508;  232,826;35781,552;23,51612
 837,19; 8563,497;  209,057;35477,446;23,68818
 837,75; 8500,254;  174,596;35236,187;23,74581
 838,32; 8617,089;  225,826;35364,389;23,88050
 838,88; 8607,924;  220,442;35382,053;23,85409
 839,44; 8624,297;  209,519;35322,794;23,96466
 840,00; 8646,901;  204,749;35187,689;24,13220
 840,56; 8593,505;  189,057;34877,737;24,22822
 841,12; 8634,648;  196,749;34811,632;24,37651
 841,68; 8532,483;  183,749;34663,603;24,21337
 842,25; 8606,702;  201,749;34793,267;24,29773
 842,81; 8550,306;  196,441;34370,546;24,44501
 843,37; 8612,372;  186,980;34470,826;24,57540
 843,93; 8675,899;  201,749;34398,720;24,78041
 844,49; 8706,888;  216,133;34443,230;24,80711
 845,05; 8642,261;  180,287;34171,202;24,89481
 845,61; 8731,865;  226,595;34274,019;24,98066
 846,17; 8710,161;  202,903;34148,299;25,06160
 846,73; 8745,535;  213,749;34074,962;25,19634
 847,29; 8675,985;  186,595;33753,472;25,29097
 847,86; 8744,896;  193,979;33848,521;25,40791
 848,42; 8706,424;  190,902;33540,800;25,53388
 848,98; 8738,797;  203,902;33503,695;25,63047
 849,54; 8798,862;  206,133;33561,359;25,76127
 850,10; 8731,082;  208,595;33397,868;25,67844
 850,66; 8685,609;  191,287;33204,994;25,72968
 851,22; 8729,828;  192,441;33273,965;25,80712
 851,78; 8775,663;  234,441;33214,706;25,89798
 852,34; 8772,113;  222,133;32956,293;26,11944
 852,90; 8764,871;  211,056;32944,188;26,13198
 853,46; 8722,937;  191,517;32622,390;26,30648
 854,02; 8771,618;  213,286;32732,823;26,31751
 854,58; 8731,145;  196,979;32437,948;26,46994
 855,14; 8769,057;  195,517;32381,305;26,63766
 855,70; 8777,353;  161,825;32202,507;26,88934
 856,26; 8842,573;  211,055;32132,709;27,03969
 856,82; 8756,177;  196,902;31943,450;26,96128
 857,38; 8785,704;  228,517;31904,806;27,01449
 857,94; 8830,769;  202,209;31825,701;27,28529
 858,50; 8771,373;  215,671;31719,903;27,15731
 859,06; 8757,131;  194,978;31564,105;27,29484
 859,62; 8789,428;  211,671;31461,308;27,44914
 860,18; 8753,493;  199,517;31234,971;27,56195
 860,74; 8730,482;  174,209;31134,558;27,63623
 861,30; 8687,547;  185,901;30921,838;27,66028
 861,86; 8762,921;  235,517;30921,040;27,78967
 862,42; 8726,140;  199,824;30755,242;27,90443
 862,98; 8804,667;  231,978;30739,598;28,10016
 863,54; 8707,810;  205,055;30572,570;27,99951
 864,10; 8731,029;  202,286;30565,695;28,08889
 864,66; 8702,864;  190,978;30311,205;28,25970
 865,22; 8694,237;  198,285;30183,946;28,33338
 865,78; 8656,687;  208,439;30096,302;28,26648
 866,34; 8690,522;  198,208;29955,427;28,53867
 866,90; 8655,203;  220,208;29864,322;28,45420
 867,45; 8635,115;  209,208;29665,909;28,60438
 868,01; 8594,334;  213,747;29548,650;28,56866
 868,57; 8563,477;  190,362;29359,237;28,70565
 869,13; 8559,542;  184,131;29243,977;28,82125
 869,69; 8589,454;  195,747;29100,410;29,03928
 870,25; 8592,597;  183,131;28971,536;29,21129
 870,81; 8618,432;  194,593;28962,200;29,28238
 871,37; 8664,882;  214,439;28801,479;29,56040
 871,93; 8636,640;  220,669;28665,758;29,58672
 872,49; 8607,090;  223,362;28491,345;29,65803
 873,04; 8551,309;  198,439;28222,086;29,80651
 873,60; 8511,067;  182,977;28131,365;29,79811
 874,16; 8545,056;  212,592;28031,337;29,95269
 874,72; 8549,133;  202,669;27894,567;30,14045
 875,28; 8607,517;  209,285;27946,260;30,27811
 875,84; 8573,287;  206,592;27892,798;30,21972
 876,40; 8567,902;  196,131;27799,106;30,32923
 876,95; 8657,979;  213,746;27745,952;30,67038
 877,51; 8660,210;  230,746;27755,260;30,62530
 878,07; 8657,287;  249,977;27778,490;30,54037
 878,63; 8670,210;  199,054;27740,875;30,75743
 879,19; 8703,056;  224,977;27715,644;30,83984
 879,75; 8729,440;  196,900;27768,875;30,94642
 880,30; 8800,056;  193,208;27740,798;31,24356
 880,86; 8856,056;  237,669;27948,798;31,10081
 881,42; 8856,825;  190,746;27995,952;31,16711
 881,98; 8872,748;  221,823;28080,260;31,05316
 882,54; 8979,517;  194,746;28214,952;31,35156
 883,09; 9019,594;  217,669;28222,567;31,42995
 883,65; 9023,825;  197,438;28296,183;31,41203
 884,21; 9130,748;  235,362;28611,952;31,34762
 884,77; 9156,440;  204,900;28568,413;31,56005
 885,32; 9221,748;  208,592;28737,260;31,59333
 885,88; 9292,671;  235,515;28818,260;31,68750
 886,44; 9340,979;  213,362;29018,029;31,68798
 887,00; 9375,517;  229,131;29005,260;31,78463
 887,56; 9418,056;  204,285;29124,721;31,85903
 888,11; 9478,056;  208,900;29123,260;32,05727
 888,67; 9538,287;  245,592;29285,106;32,00017
 889,23; 9565,979;  215,977;29233,337;32,22210
 889,79; 9562,287;  194,131;29203,490;32,29356
 890,34; 9609,210;  214,285;29125,337;32,49596
 890,90; 9738,056;  267,285;29395,490;32,51409
 891,46; 9621,133;  199,438;29217,721;32,46813
 892,01; 9649,517;  236,900;29188,952;32,51105
 892,57; 9658,440;  236,285;29105,260;32,63765
 893,13; 9634,517;  203,746;28905,721;32,85757
 893,69; 9631,979;  206,438;28872,106;32,88094
 894,24; 9672,056;  211,362;28718,183;33,18748
 894,80; 9686,517;  217,362;28590,875;33,37322
 895,36; 9615,517;  215,977;28459,029;33,28089
 895,91; 9635,517;  215,438;28251,567;33,59978
 896,47; 9643,056;  237,515;28129,413;33,72141
 897,03; 9525,287;  203,977;27957,490;33,58605
 897,58; 9569,748;  225,900;27905,644;33,75699
 898,14; 9502,979;  223,669;27669,337;33,80974
 898,70; 9494,517;  191,208;27466,490;34,10894
 899,25; 9523,440;  218,362;27531,029;34,06873
 899,81; 9499,363;  236,900;27286,875;34,24204
 900,37; 9449,517;  181,515;27045,490;34,49974
 900,92; 9464,594;  218,900;27003,029;34,51930
 901,48; 9428,517;  198,592;26994,875;34,44480
 902,03; 9427,133;  204,746;26775,567;34,70870
 902,59; 9385,363;  211,131;26706,798;34,62541
 903,15; 9355,133;  237,592;26565,952;34,63011
 903,70; 9273,440;  213,131;26298,029;34,73393
 904,26; 9257,517;  201,515;26190,029;34,84617
 904,82; 9262,979;  214,669;26156,337;34,87945
 905,37; 9245,517;  222,131;26028,567;34,96564
 905,93; 9221,979;  205,362;25822,644;35,19740
 906,48; 9270,056;  215,977;25838,567;35,33631
 907,04; 9291,671;  232,054;25749,260;35,50396
 907,60; 9189,517;  208,592;25580,875;35,39660
 908,15; 9130,671;  199,131;25376,567;35,47438
 908,71; 9229,287;  231,054;25396,029;35,75697
 909,26; 9175,748;  207,823;25226,721;35,84460
 909,82; 9180,056;  224,900;25071,106;36,04235
 910,37; 9170,825;  259,515;25026,337;35,98084
 910,93; 9132,440;  203,054;24826,490;36,26377
 911,48; 9056,440;  201,515;24648,413;36,22106
 912,04; 9082,210;  197,515;24614,875;36,38679
 912,60; 9107,133;  222,592;24608,337;36,43334
 913,15; 9070,671;  223,746;24384,413;36,61706
 913,71; 8953,133;  216,285;24195,337;36,43534
 914,26; 8973,902;  195,977;24064,798;36,77570
 914,82; 8950,594;  212,054;23967,875;36,78484
 915,37; 8950,902;  205,592;23966,721;36,80511
 915,93; 8977,363;  258,208;23832,721;36,98552
 916,48; 8898,133;  205,592;23705,952;36,98897
 917,04; 8905,517;  231,823;23544,337;37,20617
 917,59; 8892,825;  238,515;23475,721;37,24333
 918,15; 8855,979;  184,746;23311,029;37,49514
 918,70; 8805,979;  214,054;23211,875;37,35973
 919,26; 8829,056;  212,977;23183,875;37,50867
 919,81; 8783,210;  199,208;22977,413;37,68515
 920,37; 8836,902;  206,823;22853,952;38,10672
 920,92; 8799,133;  225,900;22825,798;37,93483
 921,48; 8707,902;  190,900;22624,721;37,96501
 922,03; 8763,210;  198,362;22584,490;38,25962
 922,59; 8738,748;  203,669;22434,567;38,39287
 923,14; 8671,748;  203,208;22254,490;38,40384
 923,69; 8710,671;  237,208;22258,490;38,47852
 924,25; 8728,902;  231,823;22196,490;38,68522
 924,80; 8637,748;  211,823;21988,260;38,69285
 925,36; 8656,210;  198,362;21896,567;38,97948
 925,91; 8592,287;  213,054;21771,029;38,86837
 926,47; 8574,594;  200,438;21696,106;38,95741
 927,02; 8582,825;  253,977;21614,337;38,99208
 927,57; 8604,363;  218,823;21509,183;39,38656
 928,13; 8565,133;  207,746;21357,875;39,51459
 928,68; 8529,671;  213,362;21359,875;39,32710
 929,24; 8518,440;  187,131;21070,029;39,89537
 929,79; 8483,902;  203,669;21006,952;39,80253
 930,34; 8422,748;  215,592;20851,490;39,77126
 930,90; 8446,287;  207,131;20847,798;39,91710
 931,45; 8458,210;  214,131;20843,490;39,96284
 932,01; 8439,825;  229,515;20694,183;40,11944
 932,56; 8387,825;  238,438;20547,721;40,12641
 933,11; 8414,210;  244,592;20476,798;40,37927
 933,67; 8335,287;  211,208;20294,183;40,45257
 934,22; 8320,287;  209,208;20273,106;40,42624
 934,77; 8331,440;  233,438;20123,798;40,71320
 935,33; 8267,363;  217,823;20039,875;40,60902
 935,88; 8270,979;  228,054;19944,260;40,79347
 936,43; 8247,517;  210,438;19825,106;40,97484
 936,99; 8185,363;  216,131;19786,183;40,72157
 937,54; 8141,979;  196,977;19597,875;40,95172
 938,09; 8153,671;  221,977;19586,183;40,96060
 938,65; 8092,979;  231,054;19423,183;40,96432
 939,20; 8064,902;  198,362;19304,644;41,17253
 939,75; 8104,825;  197,285;19205,029;41,60168
 940,31; 7979,133;  201,131;19061,413;41,24011
 940,86; 8016,363;  219,669;19111,644;41,26987
 941,41; 8015,902;  273,823;19012,337;41,31640
 941,96; 7962,902;  209,438;18860,106;41,57204
 942,52; 7916,440;  217,746;18744,952;41,55346
 943,07; 7817,363;  195,669;18638,644;41,32573
 943,62; 7913,979;  206,900;18532,029;42,05743
 944,18; 7871,825;  189,900;18484,183;41,99085
 944,73; 7861,825;  206,362;18377,106;42,13071
 945,28; 7743,671;  177,515;18157,106;42,08191
 945,83; 7789,594;  207,515;18180,106;42,18690
 946,39; 7762,902;  207,208;18103,644;42,21899
 946,94; 7783,056;  232,208;18063,413;42,34626
 947,49; 7691,440;  200,900;17941,490;42,22261
 948,04; 7695,287;  234,977;17890,490;42,25484
 948,59; 7722,979;  231,592;17853,260;42,51236
 949,15; 7712,133;  198,131;17732,413;42,85320
 949,70; 7666,825;  195,362;17628,952;42,85671
 950,25; 7628,133;  217,362;17560,413;42,73049
 950,80; 7634,979;  173,823;17422,644;43,25603
 951,36; 7570,440;  173,823;17359,183;43,04022
 951,91; 7642,979;  225,746;17327,875;43,37023
 952,46; 7507,363;  195,285;17151,106;43,12430
 953,01; 7598,363;  218,669;17183,260;43,50057
 953,56; 7541,979;  200,823;17027,106;43,62910
 954,11; 7543,133;  224,438;16970,337;43,70440
 954,67; 7560,825;  206,362;16925,721;43,98771
 955,22; 7505,287;  191,362;16792,875;44,05577
 955,77; 7530,287;  230,823;16717,721;44,27433
 956,32; 7508,902;  255,515;16593,337;44,39629
 956,87; 7407,979;  201,592;16475,644;44,28145
 957,42; 7443,363;  208,285;16469,490;44,49288
 957,98; 7429,594;  204,054;16331,567;44,80257
 958,53; 7467,056;  224,669;16315,106;45,01050
 959,08; 7397,671;  196,669;16148,106;45,14328
 959,63; 7377,825;  208,131;16079,183;45,17466
 960,18; 7358,363;  217,285;16020,183;45,18841
 960,73; 7375,440;  214,285;15973,337;45,44154
 961,28; 7296,825;  190,285;15852,106;45,37493
 961,83; 7327,979;  225,438;15834,106;45,50382
 962,39; 7255,440;  192,515;15666,337;45,64435
 962,94; 7265,748;  217,362;15576,337;45,89100
 963,49; 7220,979;  209,515;15429,106;46,06867
 964,04; 7221,440;  224,054;15424,644;46,03365
 964,59; 7196,671;  187,438;15327,952;46,29455
 965,14; 7134,979;  227,285;15264,183;45,93829
 965,69; 7140,517;  217,054;15197,183;46,21765
 966,24; 7158,210;  199,285;15073,952;46,78374
 966,79; 7129,825;  221,208;14977,644;46,81765
 967,34; 7060,979;  185,438;14850,952;46,88237
 967,89; 7034,979;  187,592;14833,952;46,75146
 968,44; 7029,594;  218,669;14708,644;47,00439
 968,99; 7024,517;  214,362;14658,260;47,14902
 969,55; 7003,210;  215,746;14575,413;47,26755
 970,10; 7014,517;  214,823;14487,721;47,64060
 970,65; 6995,210;  218,592;14401,260;47,78098
 971,20; 6884,594;  198,977;14237,490;47,62340
 971,75; 6853,748;  190,362;14092,644;47,93016
 972,30; 6837,594;  211,669;14052,721;47,87154
 972,85; 6775,440;  188,823;13959,798;47,82971
 973,40; 6730,517;  199,208;13830,721;47,91331
 973,95; 6732,363;  213,208;13790,029;48,01681
 974,50; 6705,979;  227,438;13743,875;47,93083
 975,05; 6678,748;  207,054;13596,644;48,33377
 975,60; 6664,517;  226,054;13553,721;48,30900
 976,15; 6646,287;  203,054;13518,875;48,38780
 976,70; 6639,825;  227,746;13395,875;48,69393
 977,25; 6619,517;  221,746;13325,644;48,82342
 977,80; 6534,594;  198,208;13137,875;48,96870
 978,35; 6461,825;  218,900;13099,337;48,46827
 978,89; 6456,671;  192,977;12973,875;49,00825
 979,44; 6468,748;  208,515;12963,260;49,08160
 979,99; 6393,671;  201,669;12699,490;49,54465
 980,54; 6383,902;  242,977;12649,106;49,49912
 981,09; 6360,133;  221,515;12634,490;49,45323
 981,64; 6252,517;  222,746;12474,644;49,21500
 982,19; 6300,594;  251,669;12398,875;49,79684
 982,74; 6262,363;  227,438;12283,875;50,05563
 983,29; 6173,825;  207,054;12128,952;50,04884
 983,84; 6171,979;  221,054;12035,644;50,36929
 984,39; 6173,133;  266,592;12028,490;50,21758
 984,94; 6048,210;  188,900;11850,106;50,24617
 985,49; 6072,133;  232,669;11772,952;50,60070
 986,03; 6023,210;  234,131;11732,337;50,34767
 986,58; 5968,979;  250,900;11542,798;50,63877
 987,13; 5899,440;  218,746;11436,337;50,64095
 987,68; 5867,517;  237,900;11319,337;50,80223
 988,23; 5835,517;  229,131;11326,337;50,52070
 988,78; 5770,748;  211,592;11094,567;51,08121
 989,33; 5737,440;  234,285;11014,798;51,04725
 989,88; 5755,825;  247,900;10998,183;51,23516
 990,42; 5694,133;  212,823;10821,875;51,66635
 990,97; 5625,440;  206,592;10711,413;51,58439
 991,52; 5615,363;  241,977;10690,260;51,42842
 992,07; 5580,594;  240,592;10568,413;51,70502
 992,62; 5553,056;  222,746;10467,337;52,03048
 993,17; 5498,287;  239,285;10346,567;52,03181
 993,71; 5461,748;  229,977;10217,106;52,38514
 994,26; 5379,902;  208,362;10090,029;52,33469
 994,81; 5321,594;  248,823;10088,567;51,55389
 995,36; 5346,056;  207,977; 9906,567;52,97758
 995,91; 5287,979;  221,823; 9849,644;52,61996
 996,45; 5233,979;  221,592; 9761,029;52,54384
 997,00; 5178,363;  196,746; 9621,875;52,85463
 997,55; 5185,671;  225,900; 9569,875;53,07988
 998,10; 5088,671;  250,131; 9448,567;52,60177
 998,65; 5113,979;  215,054; 9386,490;53,41502
 999,19; 5059,748;  236,208; 9250,106;53,51226
 999,74; 5023,210;  254,362; 9150,337;53,60681
1000,29; 4988,363;  231,285; 9101,337;53,63079
1000,84; 4893,133;  219,746; 8956,490;53,49117
1001,38; 4881,748;  224,054; 8857,413;53,94996
1001,93; 4856,440;  236,438; 8790,413;54,01000
1002,48; 4741,825;  209,208; 8639,260;53,76737
1003,03; 4771,825;  239,054; 8581,644;54,33290
1003,57; 4692,440;  233,285; 8459,106;54,20925
1004,12; 4681,210;  256,362; 8424,029;54,17518
1004,67; 4590,671;  213,669; 8306,798;54,08294
1005,22; 4552,594;  217,438; 8128,567;54,79819
1005,76; 4474,363;  208,285; 8041,413;54,46200
1006,31; 4492,056;  238,054; 8020,952;54,65833
1006,86; 4436,979;  216,592; 7854,721;55,25419
1007,40; 4358,133;  207,362; 7722,183;55,23446
1007,95; 4318,210;  226,823; 7679,875;54,89545
1008,50; 4282,825;  229,208; 7576,260;55,17339
1009,04; 4217,671;  223,515; 7426,952;55,44792
1009,59; 4155,671;  230,362; 7305,260;55,48221
1010,14; 4106,210;  216,515; 7213,798;55,58864
1010,68; 4062,056;  222,592; 7073,029;56,04699
1011,23; 3991,287;  223,054; 6976,337;55,79853
1011,78; 3968,210;  226,362; 6949,567;55,65571
1012,32; 3923,133;  234,208; 6817,106;56,03801
1012,87; 3935,671;  244,592; 6759,875;56,65263
1013,42; 3837,594;  217,054; 6651,798;56,26549
1013,96; 3877,902;  248,054; 6665,644;56,56092
1014,51; 3827,594;  187,438; 6541,644;57,28734
1015,06; 3838,517;  190,823; 6563,413;57,24037
1015,60; 3877,671;  268,977; 6603,875;56,96531
1016,15; 3834,902;  217,131; 6581,029;56,84835
1016,69; 3880,210;  219,362; 6592,183;57,44470
1017,24; 3854,133;  203,515; 6614,952;56,93915
1017,79; 3933,748;  242,362; 6666,260;57,46334
1018,33; 3934,133;  218,669; 6645,952;57,80769
1018,88; 3984,363;  224,515; 6727,644;57,81599
1019,42; 3965,748;  219,669; 6695,029;57,85129
1019,97; 3972,594;  216,131; 6701,798;57,91946
1020,51; 4020,594;  232,438; 6727,798;58,32096
1021,06; 4000,287;  198,900; 6726,721;58,23362
1021,61; 3940,056;  191,669; 6679,337;57,77711
1022,15; 3950,594;  171,131; 6656,260;58,27893
1022,70; 3947,594;  215,977; 6651,106;57,98823
1023,24; 3939,594;  211,131; 6634,260;58,04746
1023,79; 3914,902;  225,977; 6554,644;58,28913
1024,33; 3894,133;  204,977; 6513,875;58,47544
1024,88; 3821,748;  223,362; 6409,490;58,16863
1025,42; 3737,517;  228,515; 6312,798;57,67322
1025,97; 3733,517;  210,746; 6220,798;58,61465
1026,51; 3638,056;  183,746; 6119,721;58,19279
1027,06; 3632,902;  211,592; 6090,644;58,19492
1027,60; 3588,671;  217,669; 5963,106;58,67269
1028,15; 3574,210;  215,977; 5864,260;59,45582
1028,69; 3473,979;  182,823; 5754,875;59,06542
1029,24; 3469,825;  192,054; 5702,260;59,48546
1029,78; 3387,902;  197,669; 5573,337;59,34580
1030,33; 3344,671;  186,669; 5471,413;59,75695
1030,87; 3347,902;  206,669; 5435,260;60,07800
1031,42; 3281,671;  196,208; 5321,952;60,19542
1031,96; 3280,133;  210,977; 5266,721;60,70631
1032,51; 3210,056;  196,515; 5181,029;60,45806
1033,05; 3180,825;  223,823; 5123,183;60,35487
1033,60; 3098,210;  176,285; 5016,413;60,36874
1034,14; 3081,363;  207,438; 4937,798;60,75489
1034,69; 3059,748;  207,977; 4890,952;60,89657
1035,23; 3017,210;  214,669; 4825,644;60,77978
1035,77; 2987,671;  208,823; 4753,567;61,14421
1036,32; 2931,287;  182,515; 4679,183;61,12908
1036,86; 2913,210;  208,823; 4631,029;61,15470
1037,41; 2877,979;  225,900; 4570,106;61,04865
1037,95; 2807,671;  197,285; 4478,875;60,96768
1038,50; 2798,748;  206,208; 4419,413;61,53368
1039,04; 2791,210;  229,823; 4396,106;61,47894
1039,58; 2714,979;  191,977; 4271,952;61,83866
1040,13; 2704,902;  205,900; 4232,644;62,06011
1040,67; 2699,671;  231,515; 4220,952;61,86728
1041,21; 2643,748;  240,362; 4134,490;61,71821
1041,76; 2595,056;  191,054; 4041,798;62,42954
1042,30; 2577,287;  210,131; 4005,567;62,36847
1042,85; 2529,594;  202,285; 3944,952;62,18318
1043,39; 2498,517;  182,977; 3902,567;62,25256
1043,93; 2485,440;  230,592; 3840,952;62,45494
1044,48; 2445,363;  218,131; 3782,029;62,49429
1045,02; 2415,594;  205,592; 3719,337;62,89592
1045,56; 2396,363;  227,592; 3712,721;62,22930
1046,11; 2368,056;  217,054; 3637,952;62,87828
1046,65; 2328,440;  222,285; 3593,260;62,47913
1047,19; 2283,748;  203,131; 3541,952;62,31593
1047,74; 2259,825;  196,438; 3461,106;63,20358
1048,28; 2237,979;  217,900; 3456,183;62,38118
1048,82; 2240,133;  232,746; 3444,875;62,49396
1049,37; 2185,671;  214,131; 3353,260;62,80533
1049,91; 2170,825;  210,592; 3303,337;63,38166
1050,45; 2173,363;  233,823; 3275,260;63,77054
1050,99; 2114,748;  223,592; 3208,875;63,34930
1051,54; 2079,287;  200,054; 3155,490;63,58562
1052,08; 2082,287;  233,823; 3143,798;63,52163
1052,62; 2070,133;  228,746; 3106,183;63,99399
1053,16; 2019,979;  202,515; 3023,413;64,42854
1053,71; 1985,825;  218,208; 2998,490;63,57689
1054,25; 1958,056;  229,669; 2944,260;63,67025
1054,79; 1951,056;  224,208; 2919,337;64,07293
1055,33; 1874,979;  200,208; 2847,183;63,27114
1055,88; 1908,594;  217,208; 2836,875;64,56494
1056,42; 1884,979;  237,054; 2800,260;64,29156
1056,96; 1864,287;  222,438; 2756,413;64,79338
1057,50; 1848,133;  224,977; 2719,875;65,05900
1058,05; 1809,133;  211,515; 2668,337;65,02782
1058,59; 1801,594;  236,669; 2644,798;64,98510
1059,13; 1734,133;  207,208; 2565,798;64,73888
1059,67; 1741,133;  228,592; 2571,875;64,54793
1060,21; 1719,517;  213,438; 2509,644;65,58989
1060,76; 1704,210;  221,131; 2466,567;66,04858
1061,30; 1707,210;  252,285; 2455,183;66,04595
1061,84; 1652,056;  222,362; 2384,798;66,11497
1062,38; 1616,133;  204,592; 2356,798;65,58575
1062,92; 1650,748;  261,438; 2380,798;65,55327
1063,46; 1604,902;  242,054; 2309,490;65,91971
1064,01; 1578,440;  219,977; 2266,490;66,37941
1064,55; 1562,287;  236,362; 2241,875;66,11399
1065,09; 1517,594;  195,515; 2187,413;66,37282
1065,63; 1553,056;  237,438; 2210,337;66,68450
1066,17; 1531,748;  246,746; 2165,106;66,98441
1066,71; 1512,440;  245,977; 2155,260;66,33190
1067,25; 1470,671;  211,977; 2073,567;67,61392
1067,80; 1477,133;  233,977; 2083,337;67,22088
1068,34; 1473,902;  256,823; 2076,721;66,87621
1068,88; 1425,287;  225,285; 2010,721;67,21056
1069,42; 1451,671;  246,669; 2016,644;68,08017
1069,96; 1412,287;  218,900; 1972,798;68,04195
1070,50; 1416,671;  253,900; 1974,490;67,57978
1071,04; 1343,056;  219,592; 1929,106;65,71832
1071,58; 1331,825;  221,054; 1891,952;66,47749
1072,12; 1340,517;  225,054; 1878,337;67,46961
1072,66; 1330,363;  219,438; 1877,798;66,98939
1073,21; 1321,748;  251,208; 1844,644;67,18438
1073,75; 1303,902;  235,977; 1817,567;67,52222
1074,29; 1300,210;  231,592; 1802,798;68,01256
1074,83; 1296,594;  248,362; 1780,183;68,43049
1075,37; 1281,440;  234,900; 1765,567;68,37151
1075,91; 1263,363;  239,669; 1729,644;68,70546
1076,45; 1238,440;  234,438; 1726,875;67,27267
1076,99; 1222,671;  239,131; 1711,875;66,78284
1077,53; 1191,056;  224,669; 1659,798;67,33796
1078,07; 1208,825;  237,438; 1644,413;69,04078
1078,61; 1185,133;  235,054; 1618,721;68,66382
1079,15; 1177,440;  228,054; 1603,183;69,03982
1079,69; 1149,056;  227,669; 1595,106;67,38057
1080,23; 1175,902;  247,592; 1583,106;69,50957
1080,77; 1175,517;  272,669; 1589,413;68,56670
1081,31; 1110,979;  232,362; 1519,106;68,28220
1081,85; 1132,363;  245,592; 1513,413;69,94450
1082,39; 1103,979;  228,592; 1497,413;68,99211
1082,93; 1093,517;  231,977; 1490,106;68,47791
1083,47; 1070,287;  219,362; 1442,952;69,54329
1084,01; 1096,133;  242,823; 1471,644;69,44132
1084,55; 1068,825;  219,823; 1425,567;70,41310
1085,09; 1067,594;  251,362; 1429,721;69,26856
1085,63; 1034,594;  232,131; 1402,721;68,55203
1086,17; 1037,825;  233,669; 1392,798;69,37587
1086,71; 1025,748;  223,592; 1361,029;70,52312
1087,24; 1041,363;  259,977; 1383,490;69,54848
1087,78; 1018,979;  244,515; 1349,875;70,06439
1088,32;  967,517;  219,285; 1303,106;69,03655
1088,86; 1000,133;  245,592; 1337,952;69,07436
1089,40;  974,287;  232,362; 1287,183;70,33657
1089,94;  941,902;  205,900; 1253,952;70,22571
1090,48;  943,363;  235,131; 1276,798;67,99030
1091,02;  937,748;  236,592; 1268,567;67,94310
1091,56;  929,902;  230,977; 1226,183;70,22919
1092,10;  923,210;  213,131; 1219,260;70,57534
1092,63;  933,440;  253,515; 1241,721;68,80399
1093,17;  915,594;  243,746; 1199,337;70,30712
1093,71;  897,210;  233,977; 1161,952;71,47097
1094,25;  884,902;  241,592; 1181,337;68,45582
1094,79;  877,902;  233,746; 1151,260;70,20668
1095,33;  863,440;  223,285; 1132,260;70,42611
1095,87;  859,517;  236,977; 1114,183;70,96857
1096,40;  839,748;  208,438; 1093,413;71,33643
1096,94;  841,287;  231,977; 1091,644;70,87737
1097,48;  850,902;  235,900; 1093,644;71,69992
1098,02;  828,363;  231,823; 1077,952;70,50231
1098,56;  793,979;  200,054; 1020,490;72,39134
1099,10;  782,594;  204,746; 1029,798;70,03778
1099,63;  788,979;  217,746; 1026,567;70,62534
1100,17;  797,133;  236,131; 1015,875;71,94692
1100,71;  807,517;  251,131; 1039,337;70,58900

