
Integration time [ms]: 120,000
Averaging Nr. [scans]: 13
Smoothing Nr. [pixels]: 0
Data measured with spectrometer [name]: 2009305U1
Wave   ;Sample   ;Dark     ;Reference;Reflectance
[nm]   ;[counts] ;[counts] ;[counts] ;[%]

 175,72;  205,131;  188,592;  218,157;55,94046
 176,32;  228,497;  227,750;  225,747; 0,00000
 176,92;  250,923;  250,055;  253,068;28,79091
 177,52;  259,549;  255,362;  262,075;62,37367
 178,12;  234,617;  236,596;  227,589; 0,00000
 178,72;  252,434;  268,289;  253,678; 0,00000
 179,32;  247,864;  245,211;  241,699; 0,00000
 179,92;  246,312;  249,902;  255,316;-66,31809
 180,52;  245,910;  239,283;  260,177;31,71836
 181,12;  268,131;  253,671;  251,518; 0,00000
 181,73;  282,963;  278,594;  281,269;163,33229
 182,33;  354,342;  354,131;  367,102; 1,63093
 182,93;  279,324;  267,439;  276,188;135,83803
 183,53;  239,280;  245,520;  231,361; 0,00000
 184,13;  241,611;  241,135;  238,225; 0,00000
 184,73;  283,174;  278,059;  281,998;129,85325
 185,33;  272,226;  245,542;  342,296;27,57959
 185,93;  287,770;  242,467;  360,299;38,44708
 186,53;  301,970;  252,389;  391,484;35,64526
 187,13;  329,250;  271,925;  427,719;36,79583
 187,73;  284,212;  244,159;  371,784;31,38360
 188,33;  291,480;  234,084;  382,174;38,75741
 188,93;  289,663;  253,011;  383,393;28,11125
 189,53;  305,019;  256,092;  375,910;40,83443
 190,13;  331,379;  282,328;  425,425;34,27790
 190,73;  277,637;  232,863;  357,671;35,87423
 191,34;  319,458;  261,243;  399,403;42,13620
 191,94;  284,432;  239,700;  377,052;32,56754
 192,54;  295,878;  254,384;  418,523;25,27944
 193,14;  306,874;  268,309;  400,776;29,11292
 193,74;  302,792;  265,695;  399,653;27,69315
 194,34;  301,154;  255,770;  395,741;32,42353
 194,94;  276,111;  221,540;  356,813;40,34092
 195,54;  237,559;  196,926;  344,551;27,52444
 196,14;  281,936;  221,539;  380,071;38,09774
 196,74;  256,972;  211,157;  358,586;31,07566
 197,34;  239,831;  207,537;  346,132;23,30110
 197,94;  260,204;  237,155;  375,317;16,68223
 198,54;  286,687;  232,693;  394,714;33,32547
 199,14;  266,866;  217,536;  386,849;29,13527
 199,74;  259,938;  208,998;  385,735;28,82227
 200,34;  248,593;  191,844;  389,094;28,76997
 200,94;  282,761;  226,538;  443,790;25,87946
 201,54;  272,358;  208,845;  434,438;28,15383
 202,14;  303,187;  238,074;  501,034;24,76158
 202,74;  278,510;  221,075;  479,663;22,21101
 203,34;  271,159;  191,996;  497,009;25,95406
 203,94;  249,622;  170,227;  492,928;24,60313
 204,54;  320,893;  246,770;  586,989;21,78667
 205,14;  280,079;  190,075;  595,954;22,17507
 205,74;  336,939;  244,227;  689,313;20,83018
 206,34;  313,713;  206,843;  693,407;21,96418
 206,94;  318,448;  213,920;  761,700;19,08202
 207,54;  309,824;  182,382;  785,796;21,12014
 208,14;  326,384;  207,612;  879,260;17,68361
 208,74;  346,805;  208,844;  941,420;18,83229
 209,34;  357,732;  199,075; 1043,682;18,78473
 209,94;  384,417;  205,075; 1148,630;19,00707
 210,54;  390,051;  205,304; 1228,092;18,06310
 211,14;  409,812;  228,460; 1323,857;16,55589
 211,73;  422,130;  206,845; 1431,074;17,58539
 212,33;  445,382;  223,461; 1545,211;16,78995
 212,93;  449,662;  215,767; 1629,340;16,54634
 213,53;  415,569;  177,844; 1704,076;15,57593
 214,13;  450,004;  210,764; 1802,628;15,02891
 214,73;  440,033;  187,151; 1825,188;15,43813
 215,33;  428,263;  172,767; 1829,860;15,41832
 215,93;  470,144;  197,996; 1956,751;15,47394
 216,53;  453,270;  176,152; 2004,518;15,15659
 217,13;  527,797;  217,919; 2233,084;15,37730
 217,73;  525,211;  197,919; 2402,062;14,84894
 218,33;  519,008;  155,533; 2578,044;15,00405
 218,93;  605,566;  190,069; 2880,141;15,44556
 219,53;  635,541;  180,148; 3160,161;15,28156
 220,13;  661,826;  164,994; 3471,316;15,02671
 220,73;  720,945;  187,921; 3826,403;14,64962
 221,32;  802,651;  183,152; 4189,805;15,46177
 221,92;  905,747;  196,071; 4628,224;16,01199
 222,52;  941,561;  174,150; 5070,980;15,67160
 223,12; 1054,084;  177,842; 5497,716;16,47111
 223,72; 1123,155;  197,919; 5953,372;16,07583
 224,32; 1211,637;  200,534; 6385,513;16,34772
 224,92; 1263,063;  173,380; 6738,954;16,59691
 225,52; 1399,596;  199,151; 7103,894;17,38581
 226,12; 1440,554;  194,766; 7540,534;16,95927
 226,72; 1535,209;  156,612; 7958,575;17,66987
 227,31; 1618,404;  160,304; 8388,093;17,72164
 227,91; 1768,297;  188,382; 8833,567;18,27509
 228,51; 1848,735;  173,922; 9307,068;18,33774
 229,11; 1988,473;  188,227; 9797,964;18,73356
 229,71; 2093,862;  176,152;10161,202;19,20581
 230,31; 2206,117;  163,841;10687,879;19,40582
 230,91; 2352,956;  168,769;11001,991;20,16193
 231,51; 2470,175;  168,073;11365,272;20,55962
 232,10; 2599,197;  166,841;11666,987;21,15066
 232,70; 2716,462;  204,617;12002,434;21,29076
 233,30; 2878,084;  202,304;12287,784;22,14045
 233,90; 2965,432;  168,535;12419,917;22,82924
 234,50; 3108,772;  177,380;12508,993;23,77136
 235,10; 3213,678;  169,303;12643,031;24,40629
 235,70; 3327,669;  200,151;12629,863;25,16163
 236,29; 3388,721;  188,614;12630,522;25,72039
 236,89; 3485,840;  157,923;12446,719;27,08091
 237,49; 3541,151;  186,150;12343,101;27,59739
 238,09; 3548,097;  181,458;12039,330;28,39160
 238,69; 3555,931;  219,770;11812,265;28,77863
 239,29; 3537,432;  178,613;11437,667;29,83216
 239,89; 3472,799;  181,307;11023,046;30,35944
 240,48; 3435,139;  179,228;10596,925;31,25365
 241,08; 3338,874;  183,843;10248,449;31,34778
 241,68; 3304,028;  198,151; 9892,305;32,03866
 242,28; 3217,425;  172,150; 9538,404;32,51327
 242,88; 3146,922;  224,302; 9222,668;32,47944
 243,48; 3094,388;  208,612; 8893,445;33,22776
 244,07; 2980,108;  189,998; 8635,701;33,03585
 244,67; 2938,912;  197,381; 8434,187;33,28390
 245,27; 2848,592;  206,614; 8205,151;33,03076
 245,87; 2826,794;  211,918; 8115,006;33,08677
 246,47; 2774,243;  185,229; 8094,941;32,73209
 247,06; 2761,337;  183,151; 8026,772;32,86984
 247,66; 2705,194;  187,766; 8148,471;31,62318
 248,26; 2764,891;  207,229; 8309,016;31,56910
 248,86; 2728,079;  212,922; 8476,175;30,43785
 249,46; 2729,642;  158,073; 8688,001;30,14760
 250,05; 2795,380;  198,536; 9081,768;29,23310
 250,65; 2800,542;  175,922; 9432,258;28,35485
 251,25; 2881,517;  180,920; 9930,648;27,69921
 251,85; 2935,591;  192,538;10500,747;26,61038
 252,44; 2960,462;  153,614;11116,092;25,60414
 253,04; 3082,176;  196,075;11870,633;24,72128
 253,64; 3133,858;  149,076;12598,315;23,97562
 254,24; 3286,231;  183,612;13569,189;23,17882
 254,84; 3386,565;  174,611;14503,001;22,41671
 255,43; 3473,623;  177,306;15485,837;21,53255
 256,03; 3586,996;  183,307;16477,205;20,88935
 256,63; 3661,727;  185,461;17615,391;19,94423
 257,23; 3684,734;  175,153;18499,289;19,15278
 257,82; 3793,383;  193,924;19478,736;18,66474
 258,42; 3775,240;  150,232;20378,722;17,92031
 259,02; 3886,394;  193,690;21260,391;17,52863
 259,62; 3877,472;  170,694;21977,189;16,99850
 260,21; 3872,556;  185,690;22616,064;16,43694
 260,81; 3824,103;  175,150;23166,145;15,87123
 261,41; 3797,138;  160,078;23571,862;15,53517
 262,01; 3814,430;  216,618;24073,277;15,08096
 262,60; 3718,427;  159,923;24359,751;14,70467
 263,20; 3683,810;  173,076;24712,216;14,30667
 263,80; 3655,879;  210,156;24967,265;13,91812
 264,40; 3585,711;  159,848;25105,863;13,73311
 264,99; 3604,588;  187,156;25228,298;13,64727
 265,59; 3574,580;  183,158;25370,909;13,46457
 266,19; 3554,028;  175,695;25609,151;13,28303
 266,78; 3583,188;  219,542;25696,799;13,20255
 267,38; 3532,501;  197,619;25681,749;13,08611
 267,98; 3508,716;  179,849;25723,880;13,03188
 268,58; 3552,542;  192,312;25733,729;13,15601
 269,17; 3527,550;  173,621;25809,536;13,08293
 269,77; 3571,119;  199,539;25592,510;13,27761
 270,37; 3489,652;  166,849;25416,671;13,15971
 270,96; 3555,673;  220,539;25276,764;13,31060
 271,56; 3538,691;  178,077;25025,678;13,52491
 272,16; 3506,864;  189,693;24919,251;13,41379
 272,75; 3549,564;  185,924;24745,919;13,69560
 273,35; 3624,059;  196,154;24716,703;13,97972
 273,95; 3652,328;  191,847;24690,113;14,12541
 274,54; 3693,060;  166,382;24654,525;14,40157
 275,14; 3816,185;  202,231;25074,735;14,52991
 275,74; 3869,918;  174,386;25025,166;14,87089
 276,33; 4026,296;  208,000;25550,364;15,06685
 276,93; 4128,904;  198,689;25869,212;15,31023
 277,53; 4298,254;  177,690;26372,562;15,73042
 278,12; 4471,193;  175,538;26890,037;16,07986
 278,72; 4688,252;  219,691;27454,777;16,40737
 279,32; 4809,327;  182,537;28019,685;16,62092
 279,91; 5056,252;  174,307;28894,306;16,99842
 280,51; 5273,533;  172,383;29394,209;17,45664
 281,11; 5504,755;  183,768;30030,978;17,82742
 281,70; 5682,930;  163,922;30593,894;18,13675
 282,30; 5927,845;  177,615;31196,371;18,53791
 282,90; 6225,099;  170,692;31709,225;19,19686
 283,49; 6424,208;  198,308;32166,974;19,47501
 284,09; 6716,443;  214,076;32661,024;20,04000
 284,69; 6912,740;  212,306;33082,345;20,38462
 285,28; 7209,295;  200,461;33413,676;21,10255
 285,88; 7495,580;  243,463;33641,644;21,71411
 286,47; 7666,489;  194,769;33846,800;22,20288
 287,07; 7941,640;  208,537;33752,645;23,05354
 287,67; 8236,849;  201,458;33912,599;23,83601
 288,26; 8483,225;  188,306;33838,430;24,65049
 288,86; 8817,574;  171,230;33935,016;25,60834
 289,46; 9189,010;  193,537;34035,002;26,58122
 290,05; 9574,984;  165,613;34176,223;27,66599
 290,65; 9975,126;  181,692;34263,716;28,73489
 291,24;10410,737;  195,614;34488,632;29,78776
 291,84;10850,881;  201,230;34520,545;31,03107
 292,44;11246,751;  191,842;34812,683;31,93137
 293,03;11793,411;  268,691;34872,814;33,30447
 293,63;12107,679;  175,384;35013,205;34,25098
 294,22;12562,388;  208,691;35156,411;35,34908
 294,82;12941,529;  181,233;35230,048;36,40721
 295,41;13108,160;  172,230;35020,740;37,12047
 296,01;13421,909;  215,771;34851,714;38,12842
 296,61;13561,417;  211,691;34644,620;38,77023
 297,20;13656,987;  196,386;34194,191;39,59256
 297,80;13891,350;  201,228;34061,784;40,43088
 298,39;13904,360;  171,000;33672,439;40,99335
 298,99;14063,478;  206,847;33398,938;41,74679
 299,58;14160,378;  207,151;33269,916;42,20224
 300,18;14279,299;  211,536;33125,583;42,74091
 300,78;14231,658;  181,767;32747,549;43,14311
 301,37;14426,638;  206,080;32666,643;43,80872
 301,97;14544,436;  194,922;32663,059;44,19568
 302,56;14621,369;  189,692;32606,959;44,51849
 303,16;14630,661;  174,000;32460,454;44,77624
 303,75;14689,111;  188,536;32562,953;44,79023
 304,35;14961,994;  176,765;32753,781;45,38546
 304,94;14979,023;  180,460;32747,860;45,43980
 305,54;15097,728;  205,921;32713,112;45,81081
 306,13;15061,386;  160,072;32644,680;45,87192
 306,73;15041,774;  170,689;32349,614;46,21374
 307,33;15098,439;  203,997;32275,037;46,44203
 307,92;15173,370;  202,306;32339,834;46,58437
 308,52;15435,423;  176,000;32818,017;46,74779
 309,11;15714,581;  174,848;33297,265;46,91606
 309,71;15873,910;  168,848;33647,171;46,91114
 310,30;16033,825;  177,614;33772,244;47,19865
 310,90;16262,055;  204,460;34163,320;47,28544
 311,49;16304,012;  187,537;34238,171;47,33091
 312,09;16354,335;  164,074;34536,680;47,10222
 312,68;16686,261;  240,460;34839,307;47,53280
 313,28;16708,063;  155,383;35060,450;47,42200
 313,87;16700,528;  152,229;35146,163;47,28905
 314,47;16798,159;  180,540;35476,316;47,08104
 315,06;16788,614;  169,460;35539,923;46,98597
 315,66;16882,566;  162,151;35742,295;46,99367
 316,25;16716,627;  140,769;35774,373;46,51749
 316,85;16699,732;  153,843;35797,999;46,41964
 317,44;16713,760;  172,078;35959,366;46,22223
 318,04;16700,366;  160,384;36025,937;46,11662
 318,63;16532,330;  162,689;36119,201;45,52622
 319,22;16548,960;  171,385;36402,396;45,20319
 319,82;16553,341;  183,230;36309,770;45,31325
 320,41;16392,121;  193,231;36238,756;44,94009
 321,01;16348,682;  192,305;36331,106;44,70646
 321,60;16232,082;  186,153;36366,340;44,35004
 322,20;16079,803;  174,460;36318,943;44,00490
 322,79;16048,247;  210,460;36338,971;43,83736
 323,39;15965,016;  167,688;36323,390;43,69249
 323,98;15806,805;  167,844;36263,882;43,32598
 324,58;15703,825;  185,693;36145,220;43,15444
 325,17;15504,847;  181,308;35881,607;42,92272
 325,76;15285,574;  198,229;35771,487;42,41204
 326,36;15056,936;  151,151;35305,037;42,40153
 326,95;14874,474;  189,922;35019,238;42,16147
 327,55;14485,157;  163,230;34558,863;41,63879
 328,14;14250,274;  179,074;34166,261;41,40149
 328,74;13996,528;  205,231;33771,918;41,08626
 329,33;13682,444;  193,690;33379,361;40,64632
 329,92;13400,706;  167,386;32813,528;40,53563
 330,52;12996,530;  196,151;32153,977;40,05397
 331,11;12708,023;  179,692;31699,773;39,74714
 331,71;12359,021;  182,153;31115,460;39,36491
 332,30;12050,177;  198,768;30717,937;38,83267
 332,89;11821,786;  233,075;30098,212;38,80347
 333,49;11353,568;  189,384;29578,441;37,98756
 334,08;11091,139;  174,076;29044,815;37,81359
 334,68;10835,500;  186,384;28611,345;37,46396
 335,27;10637,806;  194,381;28350,526;37,09110
 335,86;10400,407;  249,768;27955,389;36,63747
 336,46;10154,931;  192,689;27648,943;36,28406
 337,05; 9973,525;  179,153;27484,830;35,86936
 337,65; 9817,133;  158,384;27252,778;35,64852
 338,24; 9684,751;  223,537;27227,582;35,03629
 338,83; 9612,936;  205,690;27125,335;34,94565
 339,43; 9458,137;  179,692;27056,559;34,52205
 340,02; 9352,696;  181,308;26895,321;34,33175
 340,61; 9282,826;  179,844;26917,874;34,04507
 341,21; 9248,144;  214,308;26952,457;33,78632
 341,80; 9083,641;  180,923;26907,410;33,31047
 342,40; 9030,330;  181,458;26929,268;33,08260
 342,99; 8950,709;  189,613;27021,058;32,65234
 343,58; 8931,136;  180,075;27137,592;32,46242
 344,18; 8854,984;  199,151;27269,761;31,97502
 344,77; 8859,566;  170,385;27492,713;31,80249
 345,36; 8856,243;  161,615;27846,392;31,40581
 345,96; 8903,095;  198,690;28131,843;31,16156
 346,55; 8857,449;  172,073;28456,960;30,70677
 347,14; 8878,922;  170,458;28769,491;30,45020
 347,74; 8867,834;  148,302;29160,759;30,05444
 348,33; 9041,997;  173,994;29804,201;29,92893
 348,92; 9178,797;  195,609;30423,435;29,71828
 349,52; 9178,969;  170,225;30931,705;29,28580
 350,11; 9188,795;  185,001;31215,313;29,01612
 350,70; 9128,388;  170,229;31228,960;28,84264
 351,29; 8900,768;  158,311;30962,241;28,38098
 351,89; 8851,717;  190,617;31001,140;28,11085
 352,48; 8739,488;  153,229;31009,737;27,82641
 353,07; 8634,529;  193,996;31000,125;27,39887
 353,67; 8551,971;  185,608;30951,114;27,19397
 354,26; 8384,017;  186,535;30730,078;26,83867
 354,85; 8292,478;  182,920;30545,530;26,70903
 355,45; 8102,373;  165,692;30258,297;26,37419
 356,04; 8032,377;  167,996;30188,602;26,19661
 356,63; 7904,522;  205,384;29986,963;25,85201
 357,22; 7710,829;  189,464;29844,833;25,36258
 357,82; 7633,960;  182,540;29676,680;25,26407
 358,41; 7547,739;  206,845;29549,484;25,01784
 359,00; 7386,001;  165,769;29312,145;24,77231
 359,60; 7331,195;  181,767;29292,534;24,55939
 360,19; 7226,373;  186,150;29105,350;24,34446
 360,78; 7094,559;  191,692;28895,527;24,04859
 361,37; 7015,708;  181,999;28727,721;23,93952
 361,97; 6919,985;  184,153;28571,517;23,72828
 362,56; 6783,782;  168,308;28367,532;23,45977
 363,15; 6700,398;  224,769;28102,321;23,22883
 363,74; 6530,710;  179,463;27700,405;23,07787
 364,34; 6458,603;  203,231;27330,364;23,05947
 364,93; 6285,514;  172,616;26921,727;22,85271
 365,52; 6098,869;  150,615;26533,081;22,54624
 366,11; 6038,480;  173,462;26246,117;22,49490
 366,71; 5906,729;  174,308;25909,858;22,27433
 367,30; 5795,745;  176,768;25576,757;22,12197
 367,89; 5724,696;  227,459;25283,825;21,93948
 368,48; 5640,546;  189,847;24970,178;21,99607
 369,07; 5462,004;  195,075;24595,960;21,58499
 369,67; 5409,176;  212,232;24276,975;21,59568
 370,26; 5304,070;  177,537;23979,656;21,53814
 370,85; 5217,928;  191,076;23787,571;21,30338
 371,44; 5169,801;  189,076;23459,918;21,40329
 372,03; 5066,852;  159,616;23196,490;21,30166
 372,63; 4966,640;  165,307;22969,866;21,05427
 373,22; 4957,884;  182,922;22643,118;21,25966
 373,81; 4842,602;  162,307;22354,830;21,08951
 374,40; 4769,139;  180,612;22094,310;20,93908
 374,99; 4723,847;  176,538;21767,155;21,06151
 375,59; 4665,137;  155,612;21554,756;21,07339
 376,18; 4660,624;  196,538;21433,592;21,02027
 376,77; 4568,631;  192,307;21193,577;20,83838
 377,36; 4581,259;  204,845;21128,733;20,91587
 377,95; 4562,641;  189,000;20917,246;21,09991
 378,55; 4477,297;  164,151;20631,029;21,07379
 379,14; 4492,164;  190,615;20586,608;21,09017
 379,73; 4491,015;  189,461;20544,173;21,13296
 380,32; 4479,772;  186,691;20583,411;21,04790
 380,91; 4442,512;  173,001;20447,481;21,05855
 381,50; 4504,931;  187,001;20344,342;21,42113
 382,10; 4453,619;  167,768;20258,642;21,33232
 382,69; 4467,956;  157,153;20295,462;21,40598
 383,28; 4518,868;  197,154;20138,138;21,67252
 383,87; 4492,602;  172,385;20029,349;21,75668
 384,46; 4532,660;  162,463;19994,271;22,03630
 385,05; 4561,836;  193,693;20015,832;22,03669
 385,64; 4564,172;  175,692;19961,040;22,18045
 386,24; 4566,440;  171,002;19941,114;22,23274
 386,83; 4601,176;  195,079;19974,191;22,27652
 387,42; 4700,316;  190,923;20046,428;22,71104
 388,01; 4798,367;  189,542;20198,736;23,03354
 388,60; 4878,923;  184,002;20496,808;23,11311
 389,19; 4971,895;  159,698;20683,408;23,44702
 389,78; 5080,770;  166,005;20945,694;23,65178
 390,37; 5285,235;  238,849;21365,979;23,88581
 390,96; 5344,468;  184,694;21537,774;24,16407
 391,56; 5408,906;  189,006;21694,318;24,27261
 392,15; 5507,272;  177,851;21971,053;24,45451
 392,74; 5576,445;  146,239;22156,746;24,67097
 393,33; 5796,838;  177,699;22453,222;25,22562
 393,92; 5925,678;  189,087;22847,363;25,31786
 394,51; 6021,405;  165,930;23058,113;25,57849
 395,10; 6181,517;  203,321;23286,796;25,89816
 395,69; 6285,186;  189,936;23387,567;26,27531
 396,28; 6388,051;  191,323;23507,053;26,57746
 396,87; 6445,278;  190,403;23608,287;26,70982
 397,46; 6578,844;  193,713;23723,600;27,13626
 398,06; 6720,432;  198,639;23957,835;27,44956
 398,65; 6826,552;  185,876;23959,272;27,93322
 399,24; 6969,472;  199,108;24203,545;28,20464
 399,83; 7038,334;  172,733;24107,438;28,68471
 400,42; 7180,540;  209,664;24252,140;28,99400
 401,01; 7278,334;  170,828;24475,553;29,24331
 401,60; 7393,506;  188,303;24448,876;29,69923
 402,19; 7458,457;  210,622;24381,761;29,98549
 402,78; 7557,096;  209,869;24396,616;30,37708
 403,37; 7595,894;  181,961;24260,819;30,79022
 403,96; 7621,672;  183,826;24039,693;31,17827
 404,55; 7725,010;  192,769;24046,306;31,57704
 405,14; 7763,176;  179,249;23930,202;31,93104
 405,73; 7842,286;  193,502;23791,740;32,41252
 406,32; 7886,090;  208,209;23724,307;32,64947
 406,91; 7845,985;  188,764;23443,637;32,92738
 407,50; 7976,386;  194,004;23323,703;33,64671
 408,09; 7940,840;  172,702;22973,257;34,06995
 408,68; 8044,043;  188,706;22829,001;34,69627
 409,27; 8016,068;  166,932;22604,255;34,98250
 409,86; 8124,276;  176,611;22514,286;35,57964
 410,45; 8203,283;  213,907;22455,723;35,92052
 411,04; 8257,145;  217,435;22340,150;36,34143
 411,63; 8276,402;  187,112;22127,319;36,86971
 412,22; 8302,945;  203,483;21937,697;37,26595
 412,81; 8304,994;  203,556;21728,187;37,63799
 413,40; 8246,835;  211,703;21343,698;38,02354
 413,99; 8297,884;  247,321;21016,168;38,76269
 414,58; 8135,733;  172,396;20604,434;38,97476
 415,17; 8181,835;  184,402;20360,535;39,63809
 415,76; 8187,845;  175,715;20190,141;40,03178
 416,35; 8191,172;  170,943;20047,469;40,35026
 416,94; 8287,835;  197,713;20033,318;40,78586
 417,53; 8505,734;  180,170;20318,059;41,34278
 418,12; 8689,351;  182,246;20415,709;42,04473
 418,71; 8862,778;  205,395;20766,531;42,10557
 419,30; 9026,511;  188,246;20759,218;42,96474
 419,89; 9146,530;  167,706;21004,516;43,09116
 420,48; 9389,560;  202,395;21228,928;43,69320
 421,07; 9513,909;  193,471;21376,466;43,99963
 421,66; 9588,085;  163,699;21392,810;44,39369
 422,25; 9745,034;  179,002;21367,301;45,14771
 422,84; 9757,260;  209,077;21350,053;45,16434
 423,43; 9746,914;  180,695;21079,670;45,77362
 424,02; 9683,263;  195,694;20932,824;45,75160
 424,60; 9570,226;  179,226;20440,807;46,34880
 425,19; 9526,524;  194,153;20143,773;46,77969
 425,78; 9618,641;  211,614;20072,978;47,36345
 426,37; 9604,834;  206,842;19852,130;47,83840
 426,96; 9591,367;  190,688;19822,632;47,88460
 427,55; 9619,285;  188,454;19616,879;48,54141
 428,14; 9568,209;  168,299;19439,832;48,77614
 428,73; 9551,706;  198,763;19279,193;49,01851
 429,32; 9613,622;  197,689;19223,107;49,49133
 429,91; 9703,803;  220,609;19211,257;49,93612
 430,50; 9670,428;  205,607;19050,508;50,22484
 431,08; 9641,479;  199,990;18813,123;50,72488
 431,67; 9727,600;  239,142;18781,071;51,17298
 432,26; 9787,176;  247,987;18596,275;51,98953
 432,85; 9663,039;  273,833;18352,621;51,93493
 433,44; 9505,908;  270,139;18002,355;52,08469
 434,03; 9416,799;  278,981;17613,102;52,71579
 434,62; 9245,715;  237,138;17158,468;53,23800
 435,21; 9244,623;  257,141;16913,401;53,95858
 435,79; 9154,702;  246,137;16779,480;53,88242
 436,38; 9169,545;  237,826;16683,348;54,31095
 436,97; 9194,822;  238,287;16601,528;54,73571
 437,56; 9116,181;  238,205;16389,725;54,96682
 438,15; 9077,048;  217,052;16215,391;55,38073
 438,74; 9179,764;  248,590;16349,640;55,46951
 439,33; 9211,200;  229,514;16357,221;55,69103
 439,91; 9255,137;  194,281;16369,426;56,01715
 440,50; 9316,536;  238,435;16450,684;55,99532
 441,09; 9448,740;  218,586;16542,689;56,54310
 441,68; 9487,797;  218,583;16520,899;56,85827
 442,27; 9530,138;  204,046;16485,653;57,27992
 442,86; 9512,363;  183,117;16515,549;57,12099
 443,44; 9597,112;  195,810;16582,850;57,37035
 444,03; 9698,696;  263,732;16664,957;57,52597
 444,62; 9633,217;  192,886;16502,217;57,88301
 445,21; 9595,143;  210,271;16323,459;58,24342
 445,80; 9588,531;  239,114;16203,456;58,56438
 446,39; 9473,998;  265,345;15965,791;58,65218
 446,97; 9390,013;  200,880;15789,948;58,94600
 447,56; 9235,862;  197,031;15634,320;58,55193
 448,15; 9164,539;  195,034;15436,013;58,85124
 448,74; 9049,058;  210,572;15133,574;59,22726
 449,33; 9021,726;  201,185;15013,821;59,54741
 449,91; 8906,966;  202,105;14746,547;59,85009
 450,50; 8759,461;  187,337;14553,772;59,66772
 451,09; 8826,880;  209,105;14442,018;60,54822
 451,68; 8793,908;  225,258;14373,230;60,56451
 452,26; 8724,848;  217,641;14251,524;60,61905
 452,85; 8666,731;  196,334;14177,386;60,58483
 453,44; 8692,143;  211,715;14144,950;60,86475
 454,03; 8700,439;  178,948;14121,827;61,11715
 454,61; 8695,668;  184,330;14107,394;61,13121
 455,20; 8778,643;  222,097;14295,322;60,80018
 455,79; 8838,772;  211,946;14258,957;61,41396
 456,38; 8890,559;  209,864;14354,534;61,37078
 456,97; 8963,657;  186,788;14452,517;61,52415
 457,55; 8953,975;  192,402;14416,307;61,59752
 458,14; 8964,431;  216,019;14424,390;61,57224
 458,73; 8911,345;  203,401;14383,751;61,40853
 459,31; 8972,211;  230,014;14392,002;61,73001
 459,90; 9020,714;  243,400;14434,660;61,85014
 460,49; 9123,208;  267,939;14582,178;61,86335
 461,08; 9151,126;  197,244;14616,272;62,09768
 461,66; 9174,032;  198,476;14700,825;61,89036
 462,25; 9323,554;  200,935;14813,825;62,42858
 462,84; 9307,265;  234,012;14852,023;62,06900
 463,43; 9259,677;  176,624;14775,423;62,21781
 464,01; 9313,539;  201,469;14800,932;62,41373
 464,60; 9308,518;  249,010;14786,521;62,31815
 465,19; 9152,512;  176,160;14493,528;62,69555
 465,77; 9143,375;  195,082;14526,436;62,43857
 466,36; 9163,080;  219,086;14400,241;63,06957
 466,95; 8906,889;  198,701;14026,677;62,97514
 467,53; 8699,891;  199,080;13759,380;62,68896
 468,12; 8581,790;  228,695;13544,136;62,73239
 468,71; 8403,611;  193,468;13299,069;62,64606
 469,29; 8250,942;  183,849;13007,745;62,90672
 469,88; 8039,199;  192,078;12764,020;62,41773
 470,47; 8126,452;  252,615;12833,138;62,58752
 471,06; 8090,726;  202,153;12805,134;62,59292
 471,64; 8125,996;  211,384;12907,858;62,33709
 472,23; 8138,557;  186,226;12930,164;62,40089
 472,81; 8170,849;  186,305;13043,328;62,10259
 473,40; 8219,162;  190,841;13149,629;61,95271
 473,99; 8444,890;  288,456;13380,034;62,30291
 474,57; 8426,119;  199,533;13477,864;61,95497
 475,16; 8549,524;  196,689;13600,674;62,31606
 475,75; 8583,744;  224,916;13779,423;61,66826
 476,33; 8653,838;  225,837;13897,880;61,64405
 476,92; 8639,883;  217,302;13869,530;61,69382
 477,51; 8750,011;  216,838;13962,847;62,07746
 478,09; 8754,467;  213,992;14007,964;61,91455
 478,68; 8690,364;  208,991;13962,252;61,66809
 479,27; 8752,538;  230,839;13985,062;61,95697
 479,85; 8705,954;  203,299;13961,613;61,80013
 480,44; 8733,735;  193,529;14058,552;61,59532
 481,02; 9523,820;  207,758;15305,018;61,70697
 481,61;10724,728;  231,528;17413,058;61,07256
 482,20;11524,679;  218,604;18571,338;61,60431
 482,78;12084,506;  245,837;19481,096;61,54671
 483,37;12293,645;  230,524;20061,982;60,82821
 483,95;12608,550;  262,139;20301,097;61,61204
 484,54;12694,127;  266,374;20550,691;61,26779
 485,13;12621,007;  227,137;20451,869;61,28076
 485,71;12522,572;  204,907;20240,812;61,47796
 486,30;12342,029;  239,292;19893,698;61,57773
 486,88;12122,870;  279,753;19639,133;61,17508
 487,47;11685,172;  270,290;18925,645;61,18823
 488,05;11147,817;  243,366;18025,248;61,32338
 488,64;10343,332;  239,672;16788,725;61,05280
 489,23; 9331,586;  249,827;15007,334;61,53993
 489,81; 7912,925;  243,673;12751,097;61,31760
 490,40; 7455,149;  214,826;12109,901;60,86824
 490,98; 7345,248;  191,518;11797,836;61,63651
 491,57; 7269,672;  223,827;11708,556;61,34969
 492,15; 7202,441;  209,210;11599,349;61,39724
 492,74; 7130,547;  210,520;11461,668;61,50507
 493,32; 7097,151;  220,826;11430,926;61,34044
 493,91; 6963,429;  211,978;11329,895;60,72586
 494,50; 7012,009;  211,282;11331,390;61,15703
 495,08; 6914,297;  195,975;11214,787;60,97138
 495,67; 6925,366;  226,671;11240,913;60,81849
 496,25; 6785,437;  173,130;11087,669;60,58256
 496,84; 6768,441;  186,748;11106,512;60,27322
 497,42; 6714,534;  181,130;11060,973;60,05054
 498,01; 6706,950;  208,747;11033,770;60,02946
 498,59; 6630,213;  168,129;10928,494;60,05450
 499,18; 6614,828;  177,978;10881,153;60,13963
 499,76; 6584,911;  199,515;10790,219;60,29246
 500,35; 6415,392;  200,589;10642,317;59,51892
 500,93; 6382,876;  190,668;10574,132;59,63528
 501,52; 6362,508;  190,206;10551,175;59,57263
 502,10; 6336,392;  205,511;10526,869;59,39994
 502,69; 6265,258;  188,279;10359,953;59,74414
 503,27; 6087,591;  174,667;10156,000;59,23982
 503,86; 6066,565;  193,818;10068,943;59,47011
 504,44; 5949,207;  161,201; 9998,986;58,83444
 505,03; 5793,686;  156,509; 9755,112;58,72914
 505,61; 5747,952;  169,740; 9619,199;59,03208
 506,19; 5630,910;  192,355; 9470,367;58,61767
 506,78; 5516,586;  161,968; 9293,445;58,63912
 507,36; 5423,015;  168,740; 9133,105;58,61291
 507,95; 5315,114;  182,967; 8994,083;58,24628
 508,53; 5243,324;  179,429; 8821,077;58,59872
 509,12; 5176,216;  173,967; 8734,174;58,43607
 509,70; 5064,418;  200,274; 8573,447;58,09201
 510,29; 4995,510;  210,427; 8464,494;57,97243
 510,87; 4851,827;  171,429; 8210,672;58,21939
 511,46; 4764,709;  170,429; 8069,317;58,16363
 512,04; 4689,004;  175,274; 7955,089;58,01847
 512,62; 4606,704;  188,275; 7784,588;58,16544
 513,21; 4481,938;  168,119; 7629,643;57,81418
 513,79; 4418,908;  171,730; 7494,338;58,00089
 514,38; 4293,981;  157,886; 7341,287;57,57850
 514,96; 4280,238;  191,193; 7250,547;57,92378
 515,54; 4165,663;  163,577; 7133,301;57,42101
 516,13; 4125,843;  183,192; 7010,571;57,74766
 516,71; 4056,721;  180,729; 6917,737;57,53284
 517,30; 3989,294;  161,189; 6758,771;58,02285
 517,88; 3892,749;  193,805; 6690,104;56,93925
 518,46; 3823,592;  170,804; 6572,477;57,05989
 519,05; 3805,659;  174,187; 6545,270;56,99928
 519,63; 3785,859;  186,188; 6458,123;57,39331
 520,22; 3734,976;  179,724; 6457,674;56,63078
 520,80; 3663,086;  170,416; 6337,135;56,63740
 521,38; 3675,904;  213,879; 6353,682;56,38658
 521,97; 3631,460;  175,492; 6263,235;56,76928
 522,55; 3615,176;  184,338; 6244,551;56,61249
 523,13; 3588,346;  174,491; 6258,604;56,11098
 523,72; 3568,661;  169,727; 6219,425;56,18354
 524,30; 3700,057;  194,721; 6391,595;56,56620
 524,89; 3662,646;  173,107; 6334,772;56,63305
 525,47; 3709,791;  190,797; 6489,354;55,86984
 526,05; 3674,836;  152,874; 6532,442;55,20690
 526,64; 3783,181;  189,027; 6654,410;55,59074
 527,22; 3866,470;  184,951; 6785,573;55,77534
 527,80; 3956,967;  220,565; 6913,982;55,82204
 528,39; 3966,711;  173,180; 7036,977;55,26870
 528,97; 4013,593;  172,950; 7170,449;54,88594
 529,55; 4102,228;  193,337; 7329,470;54,77604
 530,14; 4230,352;  209,256; 7567,857;54,64484
 530,72; 4259,049;  169,027; 7659,566;54,60251
 531,30; 4300,923;  158,641; 7826,779;54,01940
 531,89; 4404,041;  183,871; 7956,836;54,29292
 532,47; 4458,705;  208,332; 8053,185;54,18040
 533,05; 4475,049;  208,104; 8041,403;54,47188
 533,63; 4483,881;  204,794; 8111,496;54,11974
 534,22; 4479,011;  169,178; 8174,641;53,83615
 534,80; 4535,132;  196,946; 8252,128;53,85585
 535,38; 4618,394;  282,333; 8309,693;54,01603
 535,97; 4486,659;  195,948; 8295,323;52,97583
 536,55; 4536,336;  232,484; 8338,252;53,09617
 537,13; 4530,401;  216,487; 8309,658;53,30313
 537,71; 4555,445;  249,026; 8369,429;53,03209
 538,30; 4569,616;  252,408; 8430,809;52,78793
 538,88; 4615,002;  292,559; 8447,704;53,00265
 539,46; 4724,617;  320,638; 8701,444;52,54840
 540,05; 4791,605;  339,945; 8767,990;52,81961
 540,63; 4905,961;  362,406; 8989,329;52,66715
 541,21; 4916,885;  385,790; 9113,811;51,91435
 541,79; 5014,234;  397,636; 9197,790;52,46042
 542,38; 5073,880;  425,329; 9321,452;52,25367
 542,96; 5142,292;  436,788; 9488,910;51,98233
 543,54; 5275,255;  449,251; 9680,245;52,28043
 544,12; 5321,007;  418,020; 9845,668;52,00647
 544,70; 5369,506;  404,404; 9954,723;51,98887
 545,29; 5455,893;  428,791;10128,695;51,82631
 545,87; 5433,310;  400,944;10162,098;51,55504
 546,45; 5432,335;  375,483;10173,708;51,60987
 547,03; 5457,718;  366,483;10291,558;51,29669
 547,62; 5484,520;  335,559;10428,105;51,01746
 548,20; 5562,739;  356,404;10668,344;50,48841
 548,78; 5657,531;  335,939;10747,867;51,11054
 549,36; 5661,646;  311,016;10948,123;50,30155
 549,94; 5738,969;  267,943;11115,873;50,43383
 550,53; 5830,574;  280,401;11286,919;50,42623
 551,11; 5876,747;  246,477;11561,767;49,75807
 551,69; 6028,887;  265,709;11830,735;49,83282
 552,27; 6164,523;  225,556;12098,478;50,02111
 552,85; 6296,906;  235,477;12501,419;49,41674
 553,44; 6431,336;  232,093;12889,185;48,97842
 554,02; 6627,177;  248,323;13173,620;49,35170
 554,60; 6697,761;  197,630;13517,717;48,79946
 555,18; 6915,456;  236,093;13900,411;48,88179
 555,76; 7105,272;  220,631;14274,591;48,98720
 556,34; 7274,599;  232,014;14686,910;48,72111
 556,93; 7458,250;  210,016;15035,742;48,88957
 557,51; 7551,168;  199,090;15421,509;48,29770
 558,09; 7724,812;  215,324;15774,905;48,26279
 558,67; 7910,974;  217,935;16174,394;48,21269
 559,25; 8076,505;  237,936;16536,179;48,09456
 559,83; 8142,090;  218,242;16829,225;47,70247
 560,41; 8306,339;  206,860;17187,932;47,69710
 561,00; 8476,009;  217,935;17474,645;47,85428
 561,58; 8579,237;  208,937;17768,524;47,66798
 562,16; 8698,800;  202,784;18029,066;47,66006
 562,74; 8806,769;  185,170;18404,996;47,31988
 563,32; 8993,942;  179,781;18761,107;47,43559
 563,90; 9180,761;  211,243;19167,289;47,31745
 564,48; 9332,080;  216,938;19686,569;46,81723
 565,06; 9552,823;  201,397;20282,954;46,56724
 565,65; 9850,583;  213,241;20943,007;46,49036
 566,23;10194,371;  254,012;21641,637;46,47715
 566,81;10428,971;  208,244;22412,754;46,02996
 567,39;10844,989;  213,934;23309,134;46,03145
 567,97;11094,496;  233,320;23913,736;45,86564
 568,55;11515,337;  242,089;24749,411;45,99951
 569,13;11683,940;  209,089;25440,005;45,47933
 569,71;12047,959;  207,092;26423,334;45,16615
 570,29;12567,238;  241,939;27389,500;45,40113
 570,87;12778,092;  242,015;28115,946;44,97420
 571,45;13039,523;  222,936;28794,391;44,85801
 572,03;13189,449;  197,857;29236,897;44,73836
 572,61;13530,940;  182,396;29951,169;44,84076
 573,20;13733,080;  211,475;30576,666;44,52995
 573,78;13981,806;  203,781;31279,233;44,33733
 574,36;14167,682;  211,089;31864,976;44,09125
 574,94;14372,216;  270,780;32166,276;44,21137
 575,52;14355,456;  208,854;32470,291;43,84988
 576,10;14594,552;  265,855;33010,950;43,75830
 576,68;14765,703;  239,780;33550,136;43,60783
 577,26;15008,662;  254,315;34250,825;43,39959
 577,84;15250,761;  259,550;34737,068;43,48112
 578,42;15356,170;  303,010;35117,731;43,23792
 579,00;15267,747;  247,319;35252,051;42,90971
 579,58;15354,844;  284,164;35377,519;42,94454
 580,16;15283,961;  242,625;35402,503;42,77983
 580,74;15339,058;  255,086;35646,567;42,62035
 581,32;15265,469;  255,318;35818,894;42,20653
 581,90;15269,179;  272,471;35668,722;42,36807
 582,48;15170,287;  264,625;35804,705;41,94043
 583,06;15199,662;  265,318;35927,628;41,87711
 583,64;15302,642;  251,933;36083,795;42,00370
 584,22;15011,236;  261,469;35959,758;41,31785
 584,80;14958,893;  268,779;35729,253;41,42673
 585,38;14755,669;  280,783;35256,165;41,38593
 585,96;14652,769;  250,011;35369,899;41,01026
 586,54;14639,817;  256,777;35416,975;40,90716
 587,12;14615,038;  244,470;35611,205;40,63301
 587,70;14681,404;  276,934;35710,117;40,65249
 588,28;14576,197;  255,778;35840,626;40,24302
 588,86;14596,706;  260,547;36039,037;40,06921
 589,44;14564,857;  240,468;36095,132;39,95126
 590,02;14588,827;  251,853;36239,216;39,83891
 590,59;14630,958;  241,470;36428,578;39,76413
 591,17;14599,778;  236,235;36709,689;39,38082
 591,75;14574,087;  233,851;36771,213;39,24814
 592,33;14704,831;  249,468;36999,026;39,33479
 592,91;14723,553;  206,620;37203,254;39,23852
 593,49;14783,394;  218,926;37628,314;38,93265
 594,07;14853,689;  230,003;37827,456;38,89542
 594,65;14809,275;  248,546;37769,030;38,80741
 595,23;14882,471;  234,699;38218,953;38,56275
 595,81;14918,448;  231,929;38359,878;38,51904
 596,39;14860,355;  213,083;38571,768;38,18502
 596,97;14949,132;  220,158;38770,618;38,20700
 597,55;14869,252;  224,930;38674,340;38,08725
 598,12;14784,756;  201,695;38540,085;38,03775
 598,70;14747,759;  206,466;38749,009;37,72790
 599,28;14757,812;  232,542;38871,309;37,59248
 599,86;14739,426;  217,466;38951,524;37,49145
 600,44;14661,782;  185,465;39035,797;37,26176
 601,02;14682,199;  241,232;39123,060;37,14066
 601,60;14528,330;  215,698;39094,148;36,81379
 602,18;14473,772;  195,926;39076,425;36,72238
 602,75;14408,736;  195,237;39177,121;36,46180
 603,33;14367,617;  214,850;39245,406;36,26074
 603,91;14217,116;  194,002;39261,927;35,89419
 604,49;14300,778;  223,927;39273,073;36,04906
 605,07;14240,631;  224,390;39297,558;35,87178
 605,65;14149,004;  227,542;39418,200;35,52240
 606,23;14136,718;  274,855;39461,818;35,37366
 606,80;14077,008;  307,699;39502,947;35,13005
 607,38;13988,135;  318,771;39556,904;34,83694
 607,96;13957,841;  360,776;39621,551;34,63270
 608,54;13916,276;  410,157;39599,257;34,46397
 609,12;13821,061;  404,930;39720,093;34,12457
 609,70;13775,360;  434,927;39697,751;33,97726
 610,27;13689,442;  426,315;39786,447;33,69686
 610,85;13673,488;  457,312;39788,650;33,60215
 611,43;13573,587;  444,850;39796,653;33,36248
 612,01;13444,119;  416,467;39598,895;33,24871
 612,59;13398,726;  412,466;39560,472;33,17221
 613,16;13207,733;  397,546;39632,394;32,65002
 613,74;13121,517;  378,773;39432,244;32,62897
 614,32;13093,881;  357,849;39434,414;32,59250
 614,90;12992,914;  330,236;39342,313;32,45835
 615,48;12756,962;  299,623;38964,465;32,21878
 616,05;12709,801;  272,931;39056,942;32,06700
 616,63;12589,640;  278,932;38791,187;31,96569
 617,21;12503,501;  278,007;38676,398;31,83856
 617,79;12396,503;  273,622;38622,577;31,61203
 618,36;12348,749;  286,236;38544,922;31,52882
 618,94;12198,805;  231,161;38294,367;31,44150
 619,52;11956,169;  256,470;37952,822;31,03669
 620,10;11891,689;  244,237;37875,951;30,95116
 620,67;11823,386;  249,547;37827,948;30,79918
 621,25;11693,851;  257,313;37741,407;30,51038
 621,83;11581,054;  245,776;37713,339;30,25358
 622,41;11552,644;  285,315;37642,930;30,16073
 622,98;11385,550;  247,778;37429,406;29,95504
 623,56;11310,138;  252,317;37384,598;29,77954
 624,14;11174,225;  253,389;37297,498;29,48063
 624,72;11101,213;  246,238;37101,529;29,45296
 625,29;11023,577;  228,778;37234,743;29,17043
 625,87;10992,847;  271,391;37126,674;29,09069
 626,45;10826,448;  231,009;36992,603;28,82203
 627,02;10726,310;  240,237;37019,844;28,51056
 627,60;10713,693;  230,773;36896,554;28,59047
 628,18;10612,600;  217,237;36903,554;28,33580
 628,76;10541,031;  209,932;36920,316;28,14217
 629,33;10483,633;  250,623;36931,232;27,89760
 629,91;10454,535;  236,622;36948,028;27,83308
 630,49;10428,250;  254,316;37162,699;27,56537
 631,06;10377,761;  243,854;37226,044;27,40213
 631,64;10326,698;  240,471;37165,821;27,31518
 632,22;10212,410;  201,856;37070,327;27,15207
 632,79;10241,694;  237,779;37406,242;26,91506
 633,37;10253,842;  209,544;37473,955;26,95413
 633,95;10159,553;  234,933;37398,033;26,70558
 634,52;10142,123;  212,238;37577,440;26,57522
 635,10;10140,367;  221,545;37629,770;26,51508
 635,68;10139,581;  208,395;37925,299;26,33086
 636,25;10039,051;  204,781;37798,645;26,15924
 636,83;10051,031;  198,009;37987,855;26,07320
 637,41;10026,429;  218,703;38097,535;25,89237
 637,98; 9997,214;  236,241;38204,184;25,70846
 638,56; 9978,945;  228,858;38341,821;25,58208
 639,13; 9924,158;  208,855;38451,354;25,40447
 639,71; 9927,235;  264,778;38621,441;25,19108
 640,29; 9749,940;  182,547;38366,398;25,05613
 640,86; 9770,352;  199,547;38491,526;24,99428
 641,44; 9720,302;  205,316;38561,347;24,80702
 642,02; 9723,330;  226,085;38575,553;24,76500
 642,59; 9639,434;  207,470;38675,527;24,51895
 643,17; 9557,769;  196,623;38595,502;24,37869
 643,74; 9511,027;  206,085;38715,400;24,16283
 644,32; 9466,823;  226,085;38576,451;24,09557
 644,89; 9421,696;  216,546;38611,964;23,97461
 645,47; 9359,877;  246,008;38755,093;23,66680
 646,05; 9289,905;  222,700;38647,221;23,59744
 646,62; 9287,009;  214,546;38622,965;23,62103
 647,20; 9214,036;  222,700;38717,478;23,35729
 647,77; 9099,448;  195,161;38595,607;23,18798
 648,35; 9000,167;  189,392;38590,889;22,94383
 648,92; 8977,348;  220,161;38523,402;22,86278
 649,50; 8849,299;  180,546;38501,531;22,62143
 650,08; 8786,941;  194,546;38399,890;22,49004
 650,65; 8788,199;  200,622;38652,096;22,33354
 651,23; 8826,457;  182,161;39302,916;22,09645
 651,80; 9013,407;  178,545;40265,122;22,03945
 652,38; 9117,588;  204,930;40710,020;22,00380
 652,95; 9122,539;  178,084;41102,225;21,85618
 653,53; 9163,643;  208,468;41348,123;21,76774
 654,10; 9145,439;  243,853;41449,636;21,60276
 654,68; 8996,851;  194,237;41334,303;21,39669
 655,25; 8999,263;  187,237;41435,277;21,36350
 655,83; 8941,598;  184,314;41562,329;21,16410
 656,40; 8944,856;  221,929;41446,611;21,15948
 656,98; 8815,575;  190,237;41432,586;20,91379
 657,55; 8751,910;  203,237;41315,791;20,79334
 658,13; 8623,707;  199,237;40992,843;20,65145
 658,70; 8552,503;  209,775;40791,587;20,55780
 659,28; 8351,300;  192,698;39840,869;20,57750
 659,85; 8062,865;  209,237;39000,844;20,24569
 660,43; 8060,508;  219,775;39124,203;20,15383
 661,00; 8005,612;  198,006;39221,101;20,00765
 661,58; 8014,793;  194,621;39508,922;19,89142
 662,15; 7968,205;  180,390;39768,435;19,67214
 662,73; 8070,155;  248,467;39980,102;19,68630
 663,30; 8044,182;  200,082;40219,461;19,60075
 663,88; 8025,825;  197,390;40358,590;19,49253
 664,45; 8026,467;  190,698;40653,026;19,36559
 665,03; 8050,110;  192,390;41064,001;19,22537
 665,60; 8148,137;  273,851;41464,591;19,11664
 666,17; 8026,395;  190,159;41678,258;18,88791
 666,75; 8084,576;  194,082;41881,309;18,92785
 667,32; 8133,911;  213,620;42262,361;18,83598
 667,90; 8094,092;  194,236;42503,258;18,67180
 668,47; 8134,735;  221,774;42809,541;18,58036
 669,05; 8116,993;  194,082;43048,669;18,48789
 669,62; 8057,405;  163,851;43173,336;18,35305
 670,19; 8043,201;  170,389;43296,388;18,25537
 670,77; 8046,613;  188,004;43513,132;18,13868
 671,34; 7965,255;  174,543;43338,953;18,04893
 671,92; 7970,898;  183,697;43911,619;17,80830
 672,49; 7943,694;  211,158;43706,825;17,77772
 673,06; 7876,337;  150,389;43916,184;17,65294
 673,64; 7877,057;  176,620;43822,236;17,64309
 674,21; 7759,084;  171,004;43760,980;17,40785
 674,79; 7807,726;  207,773;43964,493;17,36865
 675,36; 7764,061;  198,081;44106,314;17,23135
 675,93; 7721,011;  170,619;43908,904;17,26266
 676,51; 7698,269;  200,619;44220,955;17,03224
 677,08; 7671,835;  191,234;44277,084;16,96826
 677,65; 7651,862;  196,234;44315,135;16,89894
 678,23; 7699,736;  198,696;44683,802;16,86191
 678,80; 7644,994;  180,773;44676,392;16,77518
 679,38; 7629,482;  189,311;44864,598;16,65389
 679,95; 7678,894;  197,234;45102,572;16,66096
 680,52; 7679,845;  183,696;45448,547;16,56064
 681,10; 7766,410;  203,926;45727,599;16,61220
 681,67; 7736,360;  186,234;46008,419;16,47701
 682,24; 7713,465;  173,080;46130,625;16,40728
 682,82; 7763,030;  181,465;46771,369;16,27298
 683,39; 7812,596;  233,234;47027,420;16,19723
 683,96; 7809,546;  192,311;47280,549;16,17651
 684,54; 7872,420;  180,618;47623,831;16,21265
 685,11; 7872,062;  226,310;48023,652;15,99619
 685,68; 7934,935;  193,618;48420,704;16,05180
 686,25; 7865,963;  178,079;48516,986;15,90413
 686,83; 7884,836;  180,387;48818,961;15,84020
 687,40; 7884,171;  176,079;49034,320;15,77644
 687,97; 7980,198;  225,233;49489,602;15,74153
 688,55; 7943,379;  173,848;49522,962;15,74401
 689,12; 7873,329;  162,771;49761,782;15,54579
 689,69; 7932,049;  179,387;49803,911;15,62264
 690,26; 7922,153;  191,079;49945,809;15,53837
 690,84; 7949,796;  184,771;50148,706;15,54126
 691,41; 7920,669;  192,694;50198,219;15,45424
 691,98; 7953,081;  193,002;50512,810;15,42152
 692,56; 7938,570;  183,694;50592,707;15,38391
 693,13; 7924,366;  223,002;50538,836;15,30605
 693,70; 7945,778;  205,617;50834,118;15,28815
 694,27; 7903,959;  177,386;50995,093;15,20449
 694,84; 7891,602;  179,617;51017,298;15,16982
 695,42; 7932,706;  220,386;51176,965;15,13508
 695,99; 7911,194;  190,001;51417,248;15,07243
 696,56; 7897,145;  182,694;51156,299;15,13421
 697,13; 7913,787;  207,694;51581,428;15,00007
 697,71; 7876,891;  177,770;51594,248;14,97403
 698,28; 7937,996;  178,924;52017,069;14,96788
 698,85; 7911,484;  157,386;52084,044;14,93279
 699,42; 7896,050;  156,924;52295,249;14,84345
 699,99; 7964,462;  195,770;52357,532;14,89346
 700,57; 7933,720;  190,616;52287,429;14,86291
 701,14; 7962,593;  172,001;52534,481;14,87820
 701,71; 8001,159;  193,847;52707,456;14,86722
 702,28; 7975,494;  180,385;52761,507;14,82492
 702,85; 7975,752;  183,770;52757,867;14,82095
 703,43; 8036,010;  195,000;53109,303;14,81832
 704,00; 8051,498;  225,846;53298,200;14,74525
 704,57; 8049,602;  188,308;53241,483;14,81776
 705,14; 8093,091;  204,693;53547,842;14,78803
 705,71; 8094,272;  211,923;53606,432;14,76247
 706,28; 8027,069;  187,923;53464,945;14,71393
 706,86; 8125,865;  214,231;53782,151;14,76935
 707,43; 8066,431;  230,077;53584,202;14,68744
 708,00; 8072,227;  214,384;53657,485;14,70319
 708,57; 7987,101;  189,307;53490,767;14,62961
 709,14; 8022,282;  208,384;53757,280;14,59208
 709,71; 8043,924;  190,307;53798,101;14,65014
 710,28; 8056,490;  197,384;54061,229;14,59069
 710,86; 8039,132;  200,923;54161,589;14,52578
 711,43; 8120,852;  222,384;54122,025;14,65403
 712,00; 8064,879;  193,076;54291,461;14,55090
 712,57; 8050,291;  209,692;54422,436;14,46265
 713,14; 8109,703;  186,692;54615,180;14,55674
 713,71; 8076,422;  209,615;54441,616;14,50584
 714,28; 8069,142;  189,999;54444,898;14,52245
 714,85; 8043,246;  180,922;54281,950;14,53267
 715,42; 8102,427;  194,614;54422,463;14,58257
 716,00; 8198,993;  259,999;54624,284;14,60333
 716,57; 8178,712;  188,922;54722,797;14,65106
 717,14; 8150,509;  175,691;54671,848;14,63372
 717,71; 8151,074;  182,383;54716,285;14,61236
 718,28; 8242,871;  226,460;54748,413;14,70309
 718,85; 8166,283;  178,152;54758,080;14,63566
 719,42; 8267,233;  199,614;54955,362;14,73383
 719,99; 8276,875;  181,460;54696,799;14,84979
 720,56; 8280,595;  201,460;54985,543;14,74723
 721,13; 8293,084;  182,075;55051,594;14,78236
 721,70; 8334,572;  176,690;55040,492;14,86933
 722,27; 8335,446;  197,537;55019,082;14,84436
 722,84; 8407,242;  251,998;55151,518;14,85486
 723,41; 8373,885;  175,844;55253,339;14,88456
 723,98; 8438,681;  196,921;55421,852;14,92398
 724,55; 8461,170;  221,613;55549,827;14,89214
 725,12; 8428,813;  154,998;55408,878;14,97418
 725,69; 8521,532;  185,767;55554,545;15,05499
 726,27; 8529,867;  188,459;55666,443;15,03553
 726,84; 8619,279;  188,997;56010,418;15,10223
 727,41; 8624,383;  204,613;55920,238;15,11204
 727,98; 8720,179;  200,613;56292,752;15,18852
 728,55; 8733,360;  235,920;56085,880;15,21476
 729,12; 8688,157;  179,613;56366,701;15,14324
 729,69; 8812,261;  218,536;56498,137;15,26970
 730,26; 8823,442;  198,612;56717,035;15,26021
 730,82; 8868,392;  190,689;56459,548;15,42186
 731,39; 8868,112;  198,843;56629,061;15,36281
 731,96; 8998,293;  173,151;56794,343;15,58629
 732,53; 9020,858;  206,458;57074,549;15,49973
 733,10; 9030,809;  202,766;57112,370;15,51240
 733,67; 9143,067;  206,381;57475,421;15,60474
 734,24; 9045,171;  185,458;57110,242;15,56389
 734,81; 9098,890;  215,073;57262,986;15,57255
 735,38; 9106,764;  201,535;56971,961;15,68639
 735,95; 9067,406;  197,535;56860,858;15,65364
 736,52; 9087,126;  201,765;57094,756;15,61767
 737,09; 9142,538;  210,304;56723,961;15,80544
 737,66; 9165,796;  259,996;56829,936;15,74299
 738,23; 9250,131;  192,765;56942,295;15,96025
 738,80; 9379,773;  254,919;57196,193;16,02503
 739,37; 9367,954;  224,534;57498,014;15,96449
 739,94; 9373,981;  194,457;57500,758;16,01835
 740,51; 9529,547;  310,227;57614,733;16,08830
 741,07; 9465,574;  195,919;57406,784;16,20261
 741,64; 9565,525;  234,457;57608,220;16,26365
 742,21; 9591,167;  187,688;57795,733;16,32320
 742,78; 9581,887;  172,457;57523,477;16,40673
 743,35; 9682,606;  204,995;57812,837;16,45195
 743,92; 9827,864;  232,226;58029,042;16,60236
 744,49; 9828,968;  231,841;57823,094;16,66421
 745,06; 9822,688;  191,534;57820,761;16,71227
 745,63; 9862,253;  178,303;57812,889;16,80233
 746,19; 9920,127;  190,534;57810,941;16,88567
 746,76; 9918,846;  197,226;57828,300;16,86871
 747,33; 9994,566;  200,533;57869,813;16,98310
 747,90;10037,516;  222,456;58044,788;16,97451
 748,47;10086,159;  204,149;57973,147;17,10608
 749,04;10155,647;  215,225;57887,660;17,23600
 749,61;10174,521;  232,995;57852,173;17,25385
 750,17;10223,702;  222,225;57941,840;17,32769
 750,74;10249,806;  211,379;57862,738;17,41230
 751,31;10257,372;  187,456;57865,097;17,45896
 751,88;10241,630;  178,917;57652,303;17,50847
 752,45;10391,734;  203,456;57840,816;17,67652
 753,02;10353,607;  216,917;57704,867;17,63272
 753,58;10431,711;  192,686;57476,457;17,87422
 754,15;10468,354;  199,456;57633,124;17,87958
 754,72;10430,381;  194,763;57506,484;17,85955
 755,29;10466,562;  183,840;57409,843;17,96862
 755,86;10578,512;  206,148;57447,894;18,12028
 756,42;10583,616;  226,455;57413,946;18,11089
 756,99;10553,644;  178,071;57400,075;18,13214
 757,56;10588,440;  203,224;57351,434;18,17243
 758,13;10630,852;  155,378;57144,409;18,38156
 758,70;10772,187;  187,993;57317,614;18,52663
 759,26;10784,829;  192,224;57441,435;18,50262
 759,83;10864,780;  205,070;57455,256;18,61952
 760,40;10889,345;  187,070;57282,923;18,74440
 760,97;10938,603;  186,839;57433,897;18,78134
 761,53;10934,015;  171,070;57008,410;18,93640
 762,10;10974,196;  175,224;56977,000;19,01168
 762,67;11063,146;  207,531;57003,360;19,11340
 763,24;11034,789;  163,916;56540,180;19,28271
 763,80;11103,124;  194,993;56688,771;19,30855
 764,37;11162,459;  194,916;56606,437;19,44203
 764,94;11099,332;  166,762;56135,566;19,53333
 765,50;11155,898;  170,608;56097,848;19,64211
 766,07;11238,002;  206,916;56265,900;19,67764
 766,64;11214,183;  184,531;55785,875;19,83702
 767,21;11244,441;  186,223;55827,618;19,87408
 767,77;11276,314;  209,377;55700,439;19,94364
 768,34;11356,957;  192,761;55685,952;20,11814
 768,91;11373,061;  198,531;55527,081;20,19668
 769,47;11457,627;  197,223;55496,286;20,36274
 770,04;11460,731;  194,069;55355,569;20,42487
 770,61;11451,220;  177,607;55091,851;20,52949
 771,18;11532,170;  182,915;54981,672;20,71079
 771,74;11572,274;  192,607;55145,954;20,70787
 772,31;11648,378;  187,607;55001,390;20,90856
 772,88;11654,944;  168,376;54689,673;21,06804
 773,44;11562,894;  169,145;54458,186;20,98720
 774,01;11695,229;  204,376;54533,930;21,15028
 774,58;11686,795;  174,530;54241,904;21,29244
 775,14;11769,976;  174,607;54386,802;21,38886
 775,71;11815,234;  175,068;54334,623;21,49236
 776,27;11875,645;  238,299;54119,367;21,59821
 776,84;12012,903;  260,376;54216,188;21,78176
 777,41;11974,700;  196,299;53969,085;21,90402
 777,97;11912,573;  184,606;53678,599;21,92390
 778,54;11998,370;  199,453;53789,419;22,01703
 779,11;12111,474;  219,222;53787,625;22,20012
 779,67;12113,578;  169,683;53726,446;22,30138
 780,24;12111,605;  201,606;53570,113;22,31653
 780,80;12135,863;  197,683;53525,472;22,38641
 781,37;12212,429;  201,144;53451,600;22,55621
 781,94;12219,379;  190,683;53267,037;22,66300
 782,50;12260,868;  192,298;53131,550;22,79702
 783,07;12317,357;  215,606;53286,678;22,80291
 783,63;12399,538;  191,298;52880,191;23,17042
 784,20;12419,103;  223,529;53018,397;23,09992
 784,77;12397,284;  200,529;52755,525;23,20760
 785,33;12357,004;  165,221;52641,346;23,23301
 785,90;12477,416;  194,144;52476,782;23,49398
 786,46;12485,597;  219,144;52462,295;23,47954
 787,03;12591,008;  182,375;52265,655;23,82460
 787,59;12536,959;  209,374;52217,399;23,70324
 788,16;12589,986;  208,759;52147,604;23,83809
 788,73;12569,552;  213,528;51974,040;23,87152
 789,29;12606,963;  192,759;51565,015;24,16519
 789,86;12686,529;  220,528;51527,297;24,29699
 790,42;12672,556;  204,682;51360,349;24,37242
 790,99;12613,199;  216,682;50978,785;24,42081
 791,55;12684,457;  206,682;51034,990;24,54887
 792,12;12791,407;  221,605;51082,273;24,71419
 792,68;12803,281;  214,989;50740,632;24,91466
 793,25;12744,231;  219,451;50490,222;24,91464
 793,81;12826,181;  277,989;50119,504;25,17618
 794,38;12758,131;  181,297;49959,864;25,26556
 794,94;12838,389;  191,450;49760,992;25,51353
 795,51;12789,032;  223,758;49507,813;25,49562
 796,07;12775,751;  204,989;49311,557;25,59894
 796,64;12963,471;  227,758;49453,070;25,87228
 797,20;12859,267;  216,527;48807,352;26,01878
 797,77;12776,448;  187,065;48474,865;26,07156
 798,33;12832,476;  203,912;48336,071;26,23727
 798,90;12905,349;  227,758;48224,276;26,41356
 799,46;12862,376;  201,527;47799,789;26,59939
 800,03;12840,942;  229,450;47675,610;26,58064
 800,59;12869,738;  231,373;47460,585;26,75964
 801,15;12864,458;  227,527;47221,944;26,89028
 801,72;12821,870;  222,065;47018,073;26,92496
 802,28;12838,358;  250,757;46642,432;27,13332
 802,85;12777,693;  209,988;46560,253;27,11464
 803,41;12833,028;  217,680;46214,458;27,42659
 803,98;12807,748;  202,065;45902,664;27,58319
 804,54;12734,775;  217,142;45618,254;27,57120
 805,11;12789,341;  223,141;45449,382;27,78519
 805,67;12808,675;  235,449;45384,895;27,84802
 806,23;12794,087;  220,603;44925,485;28,12553
 806,80;12821,807;  235,603;44795,152;28,24581
 807,36;12861,372;  243,910;44749,127;28,35052
 807,93;12865,861;  253,833;44479,409;28,51750
 808,49;12783,658;  218,064;43975,538;28,71645
 809,05;12825,223;  197,141;43882,205;28,90709
 809,62;12904,020;  238,679;43835,949;29,05077
 810,18;12947,816;  223,218;43765,539;29,22352
 810,74;12905,459;  193,910;43527,206;29,33437
 811,31;12947,255;  207,910;43334,950;29,53911
 811,87;12975,821;  218,833;43102,463;29,74792
 812,44;12998,771;  246,217;43056,284;29,78868
 813,00;12907,721;  182,602;42853,181;29,82176
 813,56;13011,364;  226,063;42867,310;29,98341
 814,13;13063,083;  225,602;42708,669;30,21788
 814,69;13069,649;  214,833;42610,951;30,32074
 815,25;13031,292;  191,602;42152,003;30,59954
 815,82;13015,011;  238,602;42180,824;30,46193
 816,38;13063,346;  259,371;41865,260;30,77443
 816,94;12936,066;  206,294;41565,312;30,77871
 817,51;13003,862;  203,986;41310,363;31,13842
 818,07;12950,582;  208,371;41132,722;31,13601
 818,63;12987,224;  225,986;40792,313;31,45771
 819,20;12973,713;  229,909;40859,595;31,36575
 819,76;12905,432;  202,524;40400,339;31,60099
 820,32;13003,229;  252,216;40369,852;31,78406
 820,89;12986,641;  231,139;40121,211;31,97663
 821,45;12894,129;  211,909;39793,263;32,04090
 822,01;12929,003;  228,447;39537,930;32,30914
 822,57;12971,876;  232,755;39352,135;32,56473
 823,14;12906,980;  191,293;39116,648;32,66685
 823,70;12922,084;  210,831;38908,777;32,84736
 824,26;12908,035;  210,139;38737,905;32,95778
 824,82;12959,293;  233,293;38615,111;33,15632
 825,39;12873,320;  205,985;38329,162;33,22738
 825,95;13000,655;  230,062;38408,983;33,44933
 826,51;12912,297;  231,293;37885,573;33,67746
 827,08;12988,786;  256,754;38026,317;33,70977
 827,64;13058,429;  231,292;37844,292;34,10293
 828,20;12991,917;  205,523;37481,574;34,30190
 828,76;13074,406;  234,754;37476,779;34,47625
 829,32;13141,126;  252,292;37290,831;34,79844
 829,89;13103,768;  199,754;37203,960;34,87175
 830,45;13123,642;  226,754;37164,780;34,91493
 831,01;13098,900;  221,600;36947,678;35,06310
 831,57;13155,850;  220,292;36853,576;35,31094
 832,14;13157,569;  216,369;36842,704;35,33305
 832,70;13158,981;  208,753;36533,371;35,65138
 833,26;13210,316;  180,984;36456,192;35,91801
 833,82;13252,343;  214,369;36348,705;36,08195
 834,38;13270,294;  199,984;36476,295;36,02987
 834,95;13364,936;  194,138;36235,424;36,54364
 835,51;13333,117;  186,830;36122,014;36,58333
 836,07;13453,606;  213,368;36183,758;36,80871
 836,63;13504,325;  231,907;36097,886;37,00559
 837,19;13524,583;  226,830;35938,707;37,23622
 837,75;13450,380;  194,907;35691,989;37,34243
 838,32;13594,176;  240,137;35773,272;37,58193
 838,88;13695,127;  232,676;35867,246;37,77919
 839,44;13718,769;  219,137;35704,375;38,04295
 840,00;13717,181;  218,214;35595,427;38,15724
 840,56;13723,593;  214,752;35254,863;38,55251
 841,12;13702,774;  211,137;35368,068;38,37547
 841,68;13671,493;  191,829;35085,197;38,63102
 842,25;13805,828;  204,598;35059,479;39,02245
 842,81;13727,317;  200,060;34831,684;39,06042
 843,37;13815,190;  194,752;34868,967;39,28117
 843,93;13895,910;  200,752;34800,480;39,58169
 844,49;13937,552;  214,136;34701,685;39,79238
 845,05;13928,887;  174,906;34705,891;39,83084
 845,61;14035,530;  224,290;34714,635;40,04379
 846,17;14014,249;  205,598;34505,532;40,25854
 846,73;14034,123;  218,213;34489,199;40,31372
 847,29;14011,996;  188,905;34281,020;40,54630
 847,86;14077,177;  198,675;34211,995;40,80314
 848,42;14057,358;  197,136;33937,046;41,07961
 848,98;14120,462;  220,905;33936,636;41,22573
 849,54;14213,105;  206,367;34010,227;41,43532
 850,10;14231,901;  217,751;33847,432;41,67197
 850,66;14160,006;  190,597;33710,868;41,67451
 851,22;14258,648;  186,520;33505,381;42,23472
 851,78;14299,983;  242,751;33599,048;42,14266
 852,34;14239,626;  214,135;33407,561;42,25382
 852,90;14317,961;  209,982;33354,690;42,56480
 853,46;14274,680;  200,212;33024,126;42,87870
 854,02;14387,707;  212,135;33013,255;43,21673
 854,58;14206,504;  205,289;32844,383;42,89707
 855,14;14258,608;  200,520;32705,358;43,24922
 855,70;14260,173;  167,443;32557,948;43,50883
 856,26;14338,047;  217,135;32451,153;43,80748
 856,82;14331,382;  202,135;32397,205;43,88637
 857,38;14396,178;  240,058;32320,872;44,12644
 857,94;14291,590;  209,596;32241,769;43,96203
 858,50;14287,848;  223,981;32106,821;44,11109
 859,06;14212,644;  199,212;31912,103;44,18844
 859,62;14262,441;  236,673;31751,463;44,50535
 860,18;14224,699;  207,288;31630,899;44,60789
 860,74;14181,880;  180,827;31536,412;44,65250
 861,30;14143,522;  185,596;31293,541;44,86933
 861,86;14260,473;  251,750;31358,746;45,03399
 862,42;14224,577;  207,288;31089,182;45,38999
 862,98;14296,450;  236,826;31130,234;45,51011
 863,54;14217,477;  206,980;30949,439;45,57377
 864,10;14361,043;  214,903;30956,029;46,01699
 864,66;14246,686;  189,288;30710,158;46,05831
 865,22;14300,482;  212,749;30593,671;46,37033
 865,78;14233,355;  212,288;30395,569;46,45309
 866,34;14254,383;  200,980;30396,466;46,54140
 866,90;14243,256;  216,903;30233,672;46,72839
 867,45;14266,437;  216,518;30003,954;47,16727
 868,01;14262,464;  221,364;29892,467;47,32247
 868,57;14204,568;  200,980;29715,288;47,44678
 869,13;14223,288;  191,826;29556,186;47,78399
 869,69;14205,238;  209,595;29441,853;47,87739
 870,25;14149,804;  188,056;29320,597;47,92492
 870,81;14254,369;  209,902;29267,110;48,33385
 871,37;14239,243;  215,672;29163,315;48,44460
 871,93;14187,885;  230,364;29023,905;48,47449
 872,49;14165,528;  246,133;28752,264;48,82948
 873,04;14114,940;  193,671;28696,624;48,84150
 873,60;14037,967;  202,825;28475,598;48,93451
 874,16;14063,994;  215,133;28439,188;49,06758
 874,72;14141,994;  210,671;28339,650;49,52659
 875,28;14173,763;  212,517;28259,265;49,77848
 875,84;14159,994;  206,517;28127,881;49,97420
 876,40;14184,225;  202,133;28170,804;49,99198
 876,95;14195,994;  224,210;28176,958;49,98358
 877,51;14318,302;  239,363;28134,035;50,47179
 878,07;14410,379;  250,517;28051,496;50,93296
 878,63;14450,533;  214,517;28028,265;51,18338
 879,19;14527,763;  236,363;28060,265;51,36375
 879,75;14568,071;  205,517;28206,342;51,29332
 880,30;14641,379;  207,671;28119,804;51,71123
 880,86;14822,456;  244,287;28318,496;51,92727
 881,42;14879,225;  198,287;28242,804;52,34869
 881,98;15005,302;  232,287;28395,342;52,45530
 882,54;15051,917;  202,979;28430,188;52,60505
 883,09;15190,225;  227,056;28585,650;52,76414
 883,65;15263,763;  208,133;28687,881;52,86434
 884,21;15464,763;  238,825;28854,650;53,20811
 884,77;15586,917;  203,825;28919,419;53,57052
 885,32;15696,687;  212,671;29065,573;53,66537
 885,88;15849,994;  246,056;29209,342;53,87489
 886,44;15948,994;  228,902;29324,112;54,02983
 887,00;15986,610;  231,363;29266,188;54,26327
 887,56;16126,379;  216,825;29446,188;54,43004
 888,11;16170,533;  220,056;29499,188;54,47729
 888,67;16430,610;  243,825;29682,265;54,98520
 889,23;16478,302;  221,287;29719,112;55,11259
 889,79;16465,917;  195,671;29564,188;55,40030
 890,34;16471,917;  212,594;29500,112;55,51622
 890,90;16719,994;  282,825;29664,881;55,94288
 891,46;16598,148;  211,825;29556,881;55,84015
 892,01;16646,687;  221,979;29562,419;55,97976
 892,57;16711,687;  239,210;29488,342;56,31783
 893,13;16638,610;  215,825;29261,496;56,54125
 893,69;16693,994;  207,440;29292,958;56,68303
 894,24;16705,225;  207,287;29126,035;57,04928
 894,80;16691,840;  224,748;28970,804;57,28470
 895,36;16689,994;  225,594;28809,342;57,60056
 895,91;16581,456;  217,287;28692,419;57,46828
 896,47;16634,610;  236,210;28555,265;57,90589
 897,03;16673,071;  220,056;28270,573;58,65494
 897,58;16610,071;  226,133;28190,496;58,58863
 898,14;16555,456;  232,517;28065,650;58,64571
 898,70;16518,456;  193,902;27869,804;58,98472
 899,25;16517,687;  225,056;27800,650;59,08352
 899,81;16477,840;  235,748;27599,650;59,35591
 900,37;16394,379;  200,594;27427,881;59,47631
 900,92;16520,994;  223,594;27460,419;59,83590
 901,48;16392,763;  213,287;27325,265;59,67649
 902,03;16414,071;  211,825;27160,573;60,12244
 902,59;16509,533;  207,287;27020,958;60,79826
 903,15;16414,533;  236,517;26944,112;60,57459
 903,70;16304,610;  226,671;26587,496;60,99179
 904,26;16278,225;  212,056;26596,496;60,89259
 904,82;16423,456;  217,979;26558,265;61,52354
 905,37;16376,994;  223,287;26369,265;61,78276
 905,93;16261,225;  207,979;26219,496;61,71592
 906,48;16297,610;  234,902;26170,035;61,93416
 907,04;16351,148;  234,210;26015,958;62,51298
 907,60;16220,379;  230,825;25877,804;62,34479
 908,15;16255,071;  198,056;25708,727;62,94235
 908,71;16186,994;  241,363;25719,419;62,58574
 909,26;16138,225;  214,363;25552,650;62,84506
 909,82;16138,225;  226,133;25483,035;63,00097
 910,37;16196,917;  263,440;25365,650;63,47440
 910,93;16065,302;  211,440;25092,804;63,71782
 911,48;15997,533;  216,056;24978,188;63,73230
 912,04;15981,225;  209,440;24877,112;63,93706
 912,60;16032,610;  233,979;24864,727;64,14190
 913,15;15981,533;  230,748;24669,650;64,44964
 913,71;15928,533;  214,825;24523,804;64,64158
 914,26;15968,225;  198,210;24400,573;65,15899
 914,82;15997,071;  219,440;24425,496;65,18051
 915,37;15910,610;  211,287;24273,496;65,24473
 915,93;15951,533;  260,287;24132,958;65,72891
 916,48;15876,610;  203,594;24072,650;65,66249
 917,04;15811,148;  229,671;23877,265;65,89033
 917,59;15860,148;  242,056;23860,573;66,12647
 918,15;15777,994;  186,594;23641,188;66,47482
 918,70;15760,840;  212,517;23525,496;66,69385
 919,26;15758,533;  219,133;23553,188;66,59537
 919,81;15613,687;  203,056;23296,188;66,73253
 920,37;15644,610;  212,440;23266,727;66,93839
 920,92;15688,994;  226,748;23184,881;67,34976
 921,48;15675,610;  192,979;22903,496;68,17384
 922,03;15643,533;  205,210;22852,804;68,16761
 922,59;15570,917;  214,287;22756,727;68,12320
 923,14;15639,302;  209,287;22646,804;68,76882
 923,69;15615,225;  227,825;22529,035;68,99805
 924,25;15624,533;  236,210;22584,573;68,85660
 924,80;15590,610;  223,517;22282,727;69,66293
 925,36;15455,610;  207,210;22256,727;69,15526
 925,91;15457,379;  205,748;22106,265;69,64050
 926,47;15419,533;  193,825;21967,881;69,92591
 927,02;15398,071;  262,902;22022,958;69,55483
 927,57;15382,917;  222,671;21811,419;70,22291
 928,13;15332,148;  207,363;21769,496;70,14512
 928,68;15330,840;  212,825;21645,958;70,53572
 929,24;15182,456;  189,671;21443,804;70,54056
 929,79;15178,840;  209,210;21321,496;70,90483
 930,34;15086,533;  227,210;21177,496;70,92659
 930,90;15133,302;  212,133;21154,881;71,24743
 931,45;15159,379;  226,210;21140,035;71,40334
 932,01;15025,763;  225,287;21016,419;71,18649
 932,56;14973,225;  238,133;20846,496;71,50055
 933,11;14998,994;  242,133;20899,265;71,43712
 933,67;14921,379;  216,287;20613,650;72,09310
 934,22;14920,687;  233,748;20591,650;72,14367
 934,77;14812,302;  246,979;20452,035;72,08752
 935,33;14774,071;  229,440;20333,035;72,34841
 935,88;14732,840;  234,210;20216,881;72,55602
 936,43;14813,071;  217,363;20137,573;73,27085
 936,99;14745,840;  223,210;20117,342;72,99957
 937,54;14589,994;  204,825;19854,804;73,20705
 938,09;14609,071;  233,440;19881,419;73,16595
 938,65;14492,687;  224,363;19699,958;73,26258
 939,20;14416,994;  210,056;19580,419;73,34369
 939,75;14447,917;  210,210;19487,188;73,85861
 940,31;14376,687;  195,902;19433,958;73,71215
 940,86;14370,533;  219,671;19390,112;73,81605
 941,41;14338,840;  299,979;19292,419;73,91816
 941,96;14320,456;  207,594;19122,188;74,61361
 942,52;14261,302;  214,287;19128,496;74,26700
 943,07;14201,994;  200,671;18956,188;74,65176
 943,62;14232,302;  206,902;18807,342;75,40359
 944,18;14176,071;  192,287;18809,573;75,11183
 944,73;14215,225;  225,133;18679,958;75,80723
 945,28;14151,379;  191,210;18469,881;76,37409
 945,83;14068,917;  207,671;18536,650;75,62476
 946,39;14076,917;  207,825;18422,881;76,14082
 946,94;14125,533;  229,979;18364,035;76,62684
 947,49;14025,379;  218,594;18205,419;76,76054
 948,04;14101,763;  254,671;18258,188;76,91326
 948,59;14006,533;  232,287;18166,342;76,80497
 949,15;13907,533;  197,671;18026,035;76,89916
 949,70;13925,533;  213,748;17911,650;77,47689
 950,25;13893,302;  232,440;17843,573;77,56947
 950,80;13840,763;  192,440;17746,496;77,75025
 951,36;13711,533;  190,210;17661,496;77,39169
 951,91;13781,533;  235,594;17641,342;77,82451
 952,46;13666,994;  201,287;17444,958;78,09072
 953,01;13722,533;  234,748;17499,727;78,12222
 953,56;13628,533;  197,517;17290,035;78,57833
 954,11;13606,148;  225,440;17340,112;78,18267
 954,67;13632,840;  210,671;17231,188;78,85876
 955,22;13480,917;  198,594;17061,650;78,76581
 955,77;13546,533;  229,825;17086,727;78,99855
 956,32;13509,610;  257,594;16934,804;79,46183
 956,87;13435,610;  192,979;16760,112;79,93315
 957,42;13424,840;  220,671;16759,342;79,83815
 957,98;13379,379;  206,979;16642,035;80,14819
 958,53;13438,225;  239,517;16637,419;80,49022
 959,08;13394,533;  202,210;16448,188;81,20362
 959,63;13337,610;  206,979;16353,727;81,32059
 960,18;13328,456;  219,210;16308,727;81,47694
 960,73;13336,763;  222,517;16294,650;81,59618
 961,28;13230,994;  193,440;16178,650;81,56011
 961,83;13202,917;  238,671;16126,881;81,59665
 962,39;13179,763;  203,440;15931,265;82,50552
 962,94;13101,763;  223,748;15883,265;82,23763
 963,49;12998,379;  220,056;15778,188;82,13276
 964,04;13063,994;  230,440;15703,804;82,93965
 964,59;12967,533;  179,210;15634,958;82,74153
 965,14;12906,610;  234,287;15589,804;82,52619
 965,69;12793,533;  218,133;15454,265;82,53669
 966,24;12776,148;  202,671;15369,496;82,90118
 966,79;12657,302;  235,825;15238,727;82,79383
 967,34;12567,225;  188,363;15131,958;82,83724
 967,89;12529,840;  206,133;15068,188;82,92061
 968,44;12498,533;  217,594;15043,650;82,83348
 968,99;12454,302;  223,979;14942,496;83,09480
 969,55;12408,840;  226,133;14876,958;83,15373
 970,10;12331,994;  216,671;14771,419;83,23966
 970,65;12237,456;  232,748;14657,342;83,22388
 971,20;12203,456;  210,363;14533,035;83,73503
 971,75;12041,533;  185,440;14384,035;83,50187
 972,30;12105,533;  216,517;14376,881;83,95982
 972,85;11950,763;  201,287;14248,958;83,64003
 973,40;11887,148;  200,979;14079,881;84,20096
 973,95;11872,840;  214,133;14052,496;84,24918
 974,50;11877,687;  233,594;13976,958;84,72520
 975,05;11827,148;  225,594;13947,573;84,54724
 975,60;11780,917;  236,671;13882,573;84,59863
 976,15;11732,148;  199,056;13705,804;85,38763
 976,70;11651,533;  221,517;13650,188;85,11650
 977,25;11659,994;  229,517;13601,958;85,47787
 977,80;11552,687;  208,363;13426,650;85,82295
 978,35;11423,302;  226,133;13307,342;85,59735
 978,89;11420,456;  197,440;13243,881;86,02358
 979,44;11442,994;  217,517;13192,496;86,51634
 979,99;11286,071;  204,594;13001,496;86,59500
 980,54;11283,763;  239,056;12943,727;86,93423
 981,09;11170,379;  241,210;12857,342;86,62852
 981,64;11091,225;  222,363;12727,112;86,91788
 982,19;11097,840;  256,825;12658,573;87,41522
 982,74;11044,610;  224,517;12570,881;87,63789
 983,29;10893,456;  211,825;12411,342;87,55781
 983,84;10856,225;  222,979;12333,265;87,80342
 984,39;10883,225;  286,287;12319,881;88,06129
 984,94;10724,148;  195,133;12125,804;88,25166
 985,49;10709,840;  234,056;12096,496;88,31054
 986,03;10628,763;  239,363;11960,881;88,63528
 986,58;10531,148;  267,440;11850,958;88,60614
 987,13;10452,225;  227,594;11696,035;89,15450
 987,68;10353,071;  237,825;11552,112;89,40242
 988,23;10310,379;  232,594;11574,573;88,85385
 988,78;10175,533;  208,440;11438,650;88,75250
 989,33;10060,687;  234,594;11321,727;88,62609
 989,88;10099,840;  253,517;11253,650;89,51095
 990,42; 9926,763;  222,671;11075,958;89,41156
 990,97; 9878,379;  218,594;11007,188;89,53701
 991,52; 9848,994;  251,517;10894,496;90,17660
 992,07; 9778,687;  251,748;10815,112;90,18849
 992,62; 9709,071;  225,979;10694,342;90,58811
 993,17; 9583,456;  236,671;10562,727;90,51650
 993,71; 9570,610;  241,517;10475,804;91,15528
 994,26; 9422,302;  216,902;10327,958;91,04292
 994,81; 9411,840;  247,056;10291,881;91,23887
 995,36; 9278,917;  220,902;10167,496;91,06650
 995,91; 9248,302;  227,748;10093,650;91,43162
 996,45; 9200,533;  227,056; 9969,342;92,10853
 997,00; 9050,148;  196,440; 9808,804;92,10750
 997,55; 9062,302;  236,517; 9780,496;92,47490
 998,10; 8940,379;  264,979; 9687,188;92,07394
 998,65; 8911,687;  230,825; 9623,958;92,41711
 999,19; 8818,302;  249,287; 9473,727;92,89469
 999,74; 8726,225;  246,210; 9403,573;92,60324
1000,29; 8711,148;  240,287; 9272,573;93,78424
1000,84; 8578,456;  225,363; 9157,573;93,51653
1001,38; 8497,225;  233,440; 9052,419;93,70455
1001,93; 8464,148;  245,594; 8985,112;94,03899
1002,48; 8358,994;  211,671; 8833,804;94,49313
1003,03; 8375,610;  236,056; 8799,188;95,05346
1003,57; 8269,379;  240,825; 8685,804;95,06896
1004,12; 8207,379;  265,287; 8624,112;95,01446
1004,67; 8126,610;  229,902; 8547,496;94,93980
1005,22; 7991,148;  223,056; 8321,804;95,91720
1005,76; 7911,533;  219,210; 8250,727;95,77671
1006,31; 7846,994;  242,517; 8192,265;95,65683
1006,86; 7725,533;  221,671; 8064,573;95,67711
1007,40; 7593,610;  215,133; 7900,958;96,00110
1007,95; 7499,610;  229,979; 7844,958;95,46488
1008,50; 7437,533;  228,517; 7754,727;95,78547
1009,04; 7331,917;  229,594; 7633,035;95,93274
1009,59; 7236,071;  232,671; 7466,727;96,81153
1010,14; 7127,917;  219,825; 7384,804;96,41469
1010,68; 7013,302;  226,440; 7286,573;96,12938
1011,23; 6959,302;  227,287; 7147,573;97,27943
1011,78; 6900,225;  239,440; 7131,650;96,64222
1012,32; 6808,610;  246,902; 6996,188;97,22076
1012,87; 6811,763;  260,133; 6942,035;98,05039
1013,42; 6644,917;  222,517; 6811,804;97,46730
1013,96; 6688,763;  253,979; 6860,727;97,39715
1014,51; 6578,456;  206,363; 6733,342;97,62698
1015,06; 6550,302;  209,287; 6732,650;97,20469
1015,60; 6628,994;  263,594; 6726,419;98,49253
1016,15; 6613,994;  221,363; 6723,727;98,31242
1016,69; 6626,610;  226,825; 6771,573;97,78504
1017,24; 6598,148;  205,671; 6781,419;97,21292
1017,79; 6741,917;  256,287; 6846,650;98,41082
1018,33; 6706,302;  214,210; 6824,650;98,20968
1018,88; 6765,379;  236,210; 6878,496;98,29701
1019,42; 6779,840;  227,517; 6921,496;97,88383
1019,97; 6804,533;  215,979; 6880,727;98,85676
1020,51; 6843,610;  257,825; 6987,419;97,86303
1021,06; 6803,456;  203,748; 6895,188;98,62910
1021,61; 6838,533;  195,210; 6874,419;99,46271
1022,15; 6795,533;  173,979; 6890,727;98,58273
1022,70; 6809,456;  221,979; 6826,188;99,74664
1023,24; 6774,533;  212,517; 6808,112;99,49089
1023,79; 6695,917;  224,902; 6748,265;99,19753
1024,33; 6642,148;  222,825; 6655,496;99,79250
1024,88; 6605,610;  236,748; 6634,804;99,54370
1025,42; 6514,456;  228,671; 6490,035;100,39003
1025,97; 6431,763;  204,056; 6409,496;100,35884
1026,51; 6281,225;  180,594; 6295,496;99,76662
1027,06; 6296,225;  214,979; 6263,650;100,53855
1027,60; 6157,379;  221,363; 6169,573;99,79499
1028,15; 6079,917;  234,748; 6063,650;100,27908
1028,69; 5949,148;  200,210; 5929,881;100,33627
1029,24; 5895,840;  202,287; 5872,265;100,41579
1029,78; 5837,840;  206,979; 5726,188;102,02297
1030,33; 5732,379;  200,671; 5674,496;101,05745
1030,87; 5698,533;  211,363; 5561,573;102,55989
1031,42; 5581,840;  194,517; 5488,573;101,76174
1031,96; 5528,610;  227,210; 5437,496;101,74872
1032,51; 5456,610;  199,979; 5336,650;102,33536
1033,05; 5400,917;  218,748; 5301,265;101,96068
1033,60; 5302,533;  190,517; 5133,112;103,42778
1034,14; 5237,687;  217,287; 5078,419;103,27634
1034,69; 5188,687;  218,133; 5018,881;103,53707
1035,23; 5081,917;  212,748; 4958,804;102,59402
1035,77; 5042,763;  214,517; 4907,573;102,88065
1036,32; 4955,687;  189,210; 4856,573;102,12354
1036,86; 4944,225;  205,979; 4784,419;103,49040
1037,41; 4847,840;  221,979; 4679,804;103,76947
1037,95; 4749,840;  187,594; 4631,573;102,66129
1038,50; 4704,763;  208,517; 4563,188;103,25111
1039,04; 4675,071;  230,056; 4508,881;103,88402
1039,58; 4612,302;  193,517; 4421,804;104,50533
1040,13; 4523,379;  215,594; 4399,265;102,96662
1040,67; 4510,994;  243,594; 4348,573;103,95669
1041,21; 4452,840;  253,133; 4264,265;104,70129
1041,76; 4350,456;  197,210; 4173,342;104,45442
1042,30; 4282,533;  209,594; 4128,650;103,92652
1042,85; 4229,225;  214,056; 4082,265;103,79916
1043,39; 4184,071;  202,210; 3987,804;105,18458
1043,93; 4150,917;  231,363; 3994,112;104,16732
1044,48; 4089,225;  218,979; 3903,112;105,05176
1045,02; 4048,840;  218,748; 3847,804;105,53964
1045,56; 4001,994;  245,210; 3814,727;105,24629
1046,11; 3984,379;  219,363; 3780,112;105,73664
1046,65; 3897,379;  224,056; 3693,804;105,86714
1047,19; 3802,533;  209,671; 3656,958;104,22289
1047,74; 3750,225;  191,287; 3596,881;104,50272
1048,28; 3714,148;  218,210; 3548,035;104,98865
1048,82; 3678,840;  246,363; 3496,419;105,61286
1049,37; 3642,379;  228,287; 3439,496;106,31795
1049,91; 3606,840;  208,594; 3417,958;105,88536
1050,45; 3541,994;  235,825; 3371,419;105,43996
1050,99; 3521,302;  231,671; 3312,342;106,78293
1051,54; 3430,225;  203,671; 3239,342;106,28799
1052,08; 3421,917;  245,133; 3242,727;105,97781
1052,62; 3338,917;  237,287; 3173,265;105,64214
1053,16; 3306,456;  207,517; 3112,804;106,66550
1053,71; 3253,917;  225,056; 3125,035;104,44426
1054,25; 3216,840;  234,210; 3029,804;106,69040
1054,79; 3186,302;  232,825; 2986,804;107,24399
1055,33; 3133,994;  194,748; 2926,650;107,58974
1055,88; 3123,840;  229,825; 2917,188;107,68976
1056,42; 3084,687;  238,671; 2905,035;106,73771
1056,96; 3017,610;  238,748; 2854,342;106,24207
1057,50; 3005,456;  236,056; 2808,035;107,67585
1058,05; 2944,917;  233,210; 2765,342;107,09185
1058,59; 2928,610;  241,210; 2738,035;107,63269
1059,13; 2854,763;  197,133; 2664,112;107,72815
1059,67; 2857,302;  235,671; 2653,727;108,41895
1060,21; 2804,379;  231,287; 2594,727;108,87062
1060,76; 2784,379;  237,363; 2568,112;109,27888
1061,30; 2758,687;  248,902; 2526,804;110,17966
1061,84; 2717,840;  232,287; 2506,265;109,30418
1062,38; 2647,533;  215,979; 2427,958;109,92663
1062,92; 2708,225;  261,440; 2465,188;111,02833
1063,46; 2619,917;  252,210; 2401,881;110,14279
1064,01; 2582,456;  217,056; 2360,727;110,34342
1064,55; 2579,071;  232,287; 2342,342;111,21908
1065,09; 2479,379;  203,440; 2258,265;110,76070
1065,63; 2523,456;  260,133; 2282,496;111,91475
1066,17; 2476,302;  254,056; 2254,112;111,10921
1066,71; 2451,763;  242,902; 2205,573;112,54364
1067,25; 2383,687;  226,210; 2185,035;110,14138
1067,80; 2388,763;  244,287; 2153,881;112,30014
1068,34; 2370,917;  257,594; 2146,573;111,87648
1068,88; 2307,225;  217,902; 2088,958;111,66546
1069,42; 2331,225;  251,671; 2111,958;111,78675
1069,96; 2241,687;  226,748; 2052,035;110,39025
1070,50; 2262,917;  269,902; 2056,958;111,52508
1071,04; 2204,610;  223,902; 1995,188;111,82311
1071,58; 2172,917;  227,594; 1961,035;112,22325
1072,12; 2174,302;  232,440; 1932,727;114,20790
1072,66; 2150,302;  228,287; 1930,035;112,94359
1073,21; 2145,610;  252,363; 1917,112;113,72568
1073,75; 2080,610;  234,594; 1902,342;110,68910
1074,29; 2077,379;  236,979; 1876,958;112,22096
1074,83; 2022,533;  256,133; 1849,342;110,87053
1075,37; 2003,687;  249,363; 1839,035;110,35761
1075,91; 2013,917;  246,363; 1772,958;115,78413
1076,45; 1964,302;  243,363; 1782,727;111,79546
1076,99; 1955,071;  251,287; 1751,650;113,55813
1077,53; 1882,302;  233,748; 1714,573;111,32672
1078,07; 1912,840;  242,748; 1731,496;112,18099
1078,61; 1864,456;  234,133; 1671,188;113,44884
1079,15; 1845,994;  233,979; 1668,112;112,40350
1079,69; 1844,994;  230,440; 1661,035;112,85897
1080,23; 1840,763;  258,594; 1644,881;114,13003
1080,77; 1835,917;  283,594; 1669,188;112,03302
1081,31; 1756,994;  233,902; 1601,958;111,33262
1081,85; 1783,148;  247,517; 1569,342;116,17504
1082,39; 1733,917;  236,517; 1539,265;114,94164
1082,93; 1717,456;  237,825; 1560,496;111,86687
1083,47; 1671,610;  228,287; 1499,804;113,51187
1084,01; 1679,610;  244,287; 1521,342;112,39314
1084,55; 1656,225;  233,210; 1468,112;115,23307
1085,09; 1673,994;  246,671; 1475,650;116,13895
1085,63; 1638,533;  240,671; 1445,496;116,02196
1086,17; 1610,840;  227,056; 1436,188;114,44440
1086,71; 1581,917;  233,825; 1402,419;115,36017
1087,24; 1608,687;  259,748; 1407,496;117,52914
1087,78; 1594,456;  249,133; 1413,265;115,56441
1088,32; 1519,533;  229,287; 1345,265;115,61565
1088,86; 1575,148;  251,825; 1368,650;118,48974
1089,40; 1519,533;  244,210; 1343,650;115,99747
1089,94; 1487,687;  213,287; 1311,419;116,05155
1090,48; 1486,225;  239,517; 1294,958;118,12204
1091,02; 1479,917;  260,440; 1296,188;117,73876
1091,56; 1452,225;  249,133; 1276,342;117,12238
1092,10; 1381,610;  217,902; 1260,342;111,63302
1092,63; 1428,456;  255,363; 1271,419;115,45550
1093,17; 1405,763;  244,440; 1244,650;116,10797
1093,71; 1375,533;  232,210; 1206,650;117,33125
1094,25; 1373,148;  258,210; 1232,419;114,44544
1094,79; 1341,456;  224,440; 1194,573;115,14047
1095,33; 1340,071;  236,979; 1181,727;116,76047
1095,87; 1312,994;  237,517; 1168,881;115,47339
1096,40; 1265,917;  219,287; 1155,496;111,79449
1096,94; 1290,610;  234,287; 1147,573;115,66174
1097,48; 1280,379;  245,210; 1139,265;115,78352
1098,02; 1246,225;  234,210; 1110,265;115,51952
1098,56; 1193,071;  204,594; 1078,958;113,05103
1099,10; 1188,687;  219,594; 1061,573;115,09699
1099,63; 1196,917;  215,210; 1068,958;114,98798
1100,17; 1201,071;  241,825; 1070,573;115,74641
1100,71; 1214,687;  265,210; 1063,188;118,98522

