
Integration time [ms]: 120,000
Averaging Nr. [scans]: 13
Smoothing Nr. [pixels]: 0
Data measured with spectrometer [name]: 2009305U1
Wave   ;Sample   ;Dark     ;Reference;Reflectance
[nm]   ;[counts] ;[counts] ;[counts] ;[%]

 175,72;  193,221;  180,833;  191,616;114,88539
 176,32;  210,569;  215,990;  205,830; 0,00000
 176,92;  231,729;  229,834;  222,246; 0,00000
 177,52;  250,223;  236,526;  244,165;179,29299
 178,12;  216,080;  208,451;  206,206; 0,00000
 178,72;  247,081;  251,221;  231,626; 0,00000
 179,32;  226,781;  235,374;  241,551;-139,13373
 179,92;  230,373;  226,296;  232,982;60,96978
 180,52;  229,629;  224,140;  232,362;66,76859
 181,12;  234,589;  239,758;  227,870; 0,00000
 181,73;  254,743;  252,681;  246,845; 0,00000
 182,33;  298,604;  287,141;  296,554;121,78101
 182,93;  246,533;  238,218;  239,049; 0,00000
 183,53;  224,670;  221,914;  211,552; 0,00000
 184,13;  227,871;  226,067;  208,020; 0,00000
 184,73;  245,235;  239,222;  244,662;110,53647
 185,33;  253,051;  220,544;  327,372;30,42872
 185,93;  263,395;  223,931;  342,281;33,34494
 186,53;  271,814;  224,930;  357,049;35,48603
 187,13;  289,996;  260,620;  391,758;22,40104
 187,73;  254,469;  215,084;  348,757;29,46384
 188,33;  266,207;  233,624;  352,027;27,51903
 188,93;  262,401;  229,088;  364,122;24,67007
 189,53;  277,512;  237,860;  373,029;29,33519
 190,13;  293,983;  264,172;  387,292;24,21335
 190,73;  250,350;  208,323;  350,756;29,50696
 191,34;  279,595;  242,782;  366,317;29,79976
 191,94;  257,856;  223,548;  336,479;30,37934
 192,54;  284,106;  237,926;  378,284;32,90157
 193,14;  283,146;  253,389;  377,053;24,06288
 193,74;  276,348;  240,928;  375,094;26,40003
 194,34;  272,071;  225,620;  368,849;32,43142
 194,94;  242,303;  206,851;  329,783;28,83889
 195,54;  202,928;  193,775;  319,624; 7,27298
 196,14;  244,113;  206,773;  347,011;26,62587
 196,74;  228,542;  189,083;  336,366;26,79104
 197,34;  220,551;  191,080;  333,186;20,73882
 197,94;  250,261;  220,389;  354,201;22,32378
 198,54;  250,786;  211,850;  369,501;24,69784
 199,14;  240,246;  200,618;  383,266;21,69646
 199,74;  229,781;  190,002;  374,459;21,56558
 200,34;  230,530;  195,310;  377,963;19,28256
 200,94;  261,538;  224,080;  416,700;19,44632
 201,54;  249,869;  203,618;  418,712;21,50283
 202,14;  265,467;  207,078;  463,501;22,77052
 202,74;  262,501;  204,310;  467,005;22,15153
 203,34;  252,187;  183,924;  482,218;22,88459
 203,94;  220,452;  159,693;  479,774;18,98240
 204,54;  278,345;  226,466;  575,406;14,86753
 205,14;  254,843;  181,233;  597,679;17,67568
 205,74;  307,962;  220,385;  673,909;19,31033
 206,34;  274,682;  196,617;  691,953;15,76014
 206,94;  298,398;  202,463;  765,871;17,02765
 207,54;  264,248;  183,078;  792,191;13,32590
 208,14;  304,286;  200,078;  885,032;15,21384
 208,74;  315,178;  196,079;  947,225;15,85556
 209,34;  308,582;  189,310; 1021,095;14,33926
 209,94;  346,877;  199,925; 1150,661;15,45661
 210,54;  346,742;  197,770; 1234,778;14,36559
 211,14;  359,190;  195,925; 1337,813;14,29781
 211,73;  369,170;  193,387; 1426,969;14,24980
 212,33;  382,156;  219,234; 1543,276;12,30489
 212,93;  399,030;  192,695; 1651,762;14,14157
 213,53;  384,252;  169,156; 1692,264;14,12214
 214,13;  391,076;  178,231; 1778,124;13,30370
 214,73;  394,313;  173,924; 1783,809;13,68973
 215,33;  377,569;  153,464; 1825,968;13,39938
 215,93;  419,316;  177,308; 1954,273;13,61914
 216,53;  398,402;  145,387; 2024,328;13,46581
 217,13;  495,567;  194,616; 2272,846;14,48112
 217,73;  495,002;  178,154; 2465,044;13,85497
 218,33;  491,095;  139,461; 2650,917;14,00119
 218,93;  565,320;  166,075; 2951,336;14,33423
 219,53;  606,630;  187,692; 3232,648;13,75844
 220,13;  625,866;  149,384; 3497,252;14,23240
 220,73;  708,948;  168,233; 3876,354;14,58191
 221,32;  774,870;  177,771; 4280,148;14,55494
 221,92;  841,241;  180,384; 4723,009;14,54791
 222,52;  886,206;  167,154; 5076,574;14,64636
 223,12;  974,274;  164,923; 5511,461;15,13784
 223,72; 1045,271;  187,847; 5880,885;15,06093
 224,32; 1088,991;  181,539; 6279,098;14,88222
 224,92; 1150,031;  168,385; 6511,694;15,47530
 225,52; 1253,626;  176,232; 6903,987;16,01417
 226,12; 1269,321;  176,309; 7191,604;15,58041
 226,72; 1324,813;  159,924; 7550,881;15,76100
 227,31; 1384,468;  161,463; 7894,707;15,81490
 227,91; 1477,238;  169,233; 8344,281;15,99997
 228,51; 1540,754;  167,541; 8634,742;16,21802
 229,11; 1609,225;  169,693; 9048,889;16,21241
 229,71; 1685,765;  165,772; 9388,242;16,48141
 230,31; 1738,574;  157,000; 9832,452;16,34626
 230,91; 1791,859;  154,388;10143,991;16,39175
 231,51; 1872,811;  149,924;10451,024;16,72528
 232,10; 1972,747;  155,000;10755,706;17,14742
 232,70; 2028,225;  173,697;10941,003;17,22370
 233,30; 2101,094;  182,539;11275,310;17,29554
 233,90; 2146,903;  162,462;11420,213;17,62733
 234,50; 2186,101;  172,385;11531,360;17,72797
 235,10; 2224,570;  161,923;11564,002;18,09009
 235,70; 2264,299;  178,156;11628,194;18,21953
 236,29; 2295,088;  187,002;11580,022;18,50331
 236,89; 2241,290;  150,542;11558,407;18,32726
 237,49; 2295,841;  176,847;11356,018;18,95484
 238,09; 2267,759;  170,540;11148,183;19,10446
 238,69; 2265,879;  183,927;10861,204;19,49890
 239,29; 2196,389;  166,309;10597,911;19,46087
 239,89; 2167,327;  177,080;10244,042;19,77009
 240,48; 2105,415;  166,463; 9914,241;19,89122
 241,08; 2049,977;  157,079; 9533,159;20,18859
 241,68; 2016,387;  190,078; 9177,310;20,32115
 242,28; 1943,352;  152,539; 8847,471;20,59605
 242,88; 1892,919;  194,231; 8599,394;20,21006
 243,48; 1858,921;  193,155; 8317,517;20,50334
 244,07; 1799,278;  179,617; 8085,646;20,48640
 244,67; 1774,280;  185,386; 7953,264;20,45468
 245,27; 1739,093;  189,233; 7792,584;20,38391
 245,87; 1729,011;  195,000; 7727,506;20,36521
 246,47; 1693,899;  169,233; 7736,450;20,14831
 247,06; 1720,679;  168,232; 7741,863;20,49805
 247,66; 1706,787;  175,155; 7837,628;19,98875
 248,26; 1740,328;  197,849; 8034,828;19,68206
 248,86; 1748,740;  185,695; 8200,066;19,50302
 249,46; 1746,968;  142,770; 8444,600;19,32343
 250,05; 1832,420;  190,925; 8825,778;19,01012
 250,65; 1858,108;  158,387; 9244,927;18,70592
 251,25; 1941,616;  168,463; 9696,052;18,61072
 251,85; 2031,195;  175,080;10334,512;18,26987
 252,44; 2076,679;  135,156;10978,206;17,90569
 253,04; 2209,102;  179,925;11733,816;17,56271
 253,64; 2279,873;  149,618;12492,068;17,25958
 254,24; 2453,270;  194,771;13455,816;17,03108
 254,84; 2562,737;  172,539;14366,600;16,83942
 255,43; 2714,538;  167,925;15334,717;16,79071
 256,03; 2869,634;  169,772;16380,108;16,65519
 256,63; 2991,715;  182,003;17437,003;16,28346
 257,23; 3125,420;  169,234;18247,898;16,35179
 257,82; 3222,318;  170,235;19226,527;16,01614
 258,42; 3317,221;  139,005;20021,528;15,98498
 259,02; 3495,855;  177,541;20909,652;16,00568
 259,62; 3547,897;  166,928;21549,235;15,81199
 260,21; 3613,851;  164,387;22062,100;15,75262
 260,81; 3632,481;  171,693;22628,603;15,41079
 261,41; 3689,755;  165,081;23039,966;15,40849
 262,01; 3795,523;  207,467;23427,257;15,45258
 262,60; 3796,728;  157,619;23733,745;15,43557
 263,20; 3852,308;  163,233;24073,112;15,42908
 263,80; 3882,662;  190,082;24287,093;15,32381
 264,40; 3912,739;  161,697;24379,530;15,48876
 264,99; 3921,594;  176,005;24602,130;15,33435
 265,59; 3908,965;  167,391;24689,627;15,25788
 266,19; 3957,351;  155,928;24774,594;15,44122
 266,78; 4041,850;  198,237;24936,956;15,53683
 267,38; 3968,596;  173,622;25027,997;15,26884
 267,98; 3977,998;  157,698;24913,573;15,43189
 268,58; 3986,252;  181,237;25021,824;15,31773
 269,17; 3989,119;  162,700;25033,970;15,38490
 269,77; 3999,702;  174,081;24744,209;15,57021
 270,37; 3949,040;  153,928;24629,119;15,50595
 270,96; 3959,530;  206,620;24567,710;15,40535
 271,56; 3903,370;  178,080;24221,983;15,49370
 272,16; 3896,090;  157,697;24086,820;15,62277
 272,75; 3887,025;  175,620;24013,793;15,56917
 273,35; 3915,309;  179,696;24014,260;15,67309
 273,95; 3905,407;  176,774;23984,217;15,66163
 274,54; 3921,790;  151,848;23996,152;15,81066
 275,14; 4002,285;  180,466;24481,905;15,72672
 275,74; 3987,145;  147,158;24521,350;15,75431
 276,33; 4120,800;  177,388;24983,295;15,89707
 276,93; 4198,883;  173,078;25389,984;15,96471
 277,53; 4290,239;  174,541;25857,446;16,02505
 278,12; 4382,965;  152,003;26386,795;16,12729
 278,72; 4552,306;  176,849;27027,203;16,29572
 279,32; 4638,604;  164,849;27585,038;16,31555
 279,91; 4786,280;  156,234;28394,975;16,39608
 280,51; 4934,368;  174,541;28879,168;16,58209
 281,11; 5021,551;  173,464;29680,956;16,43002
 281,70; 5182,793;  153,464;30082,645;16,80410
 282,30; 5339,832;  154,157;30705,214;16,97380
 282,90; 5492,084;  172,850;31110,454;17,19343
 283,49; 5664,230;  188,389;31632,068;17,41476
 284,09; 5775,762;  193,157;32038,009;17,53064
 284,69; 5943,321;  184,772;32401,162;17,87460
 285,28; 6107,996;  193,003;32649,816;18,22420
 285,88; 6191,573;  199,158;32944,368;18,30012
 286,47; 6334,318;  172,234;32981,492;18,78154
 287,07; 6484,761;  195,079;33114,922;19,10605
 287,67; 6692,536;  187,770;33219,209;19,69265
 288,26; 6814,419;  167,695;33123,786;20,16842
 288,86; 7016,972;  164,388;33288,692;20,68748
 289,46; 7205,890;  184,157;33296,899;21,20553
 290,05; 7430,927;  165,540;33478,859;21,80926
 290,65; 7718,945;  178,927;33615,335;22,55032
 291,24; 7979,405;  177,849;33841,751;23,17484
 291,84; 8259,638;  191,157;33937,926;23,90890
 292,44; 8496,678;  182,462;34096,058;24,51588
 293,03; 8841,386;  223,156;34201,856;25,36362
 293,63; 9059,509;  174,926;34369,973;25,98207
 294,22; 9349,493;  189,234;34536,312;26,66969
 294,82; 9455,561;  179,697;34492,868;27,03296
 295,41; 9564,332;  165,003;34197,568;27,61863
 296,01; 9726,046;  211,851;34125,673;28,05403
 296,61; 9809,851;  180,464;33816,356;28,62831
 297,20; 9800,671;  191,158;33430,146;28,91036
 297,80; 9877,771;  184,540;33316,027;29,25685
 298,39; 9865,426;  165,388;32876,205;29,65391
 298,99; 9805,875;  184,773;32830,729;29,47104
 299,58; 9910,437;  178,232;32575,610;30,04010
 300,18; 9935,170;  198,694;32461,293;30,17883
 300,78; 9885,959;  168,156;32123,429;30,41064
 301,37; 9922,245;  185,775;32118,559;30,49052
 301,97; 9926,776;  182,233;32203,265;30,43169
 302,56; 9980,807;  179,311;32045,807;30,75800
 303,16; 9961,926;  161,850;32031,081;30,75090
 303,75; 9990,271;  175,617;32111,672;30,73220
 304,35;10069,797;  180,308;32339,450;30,75172
 304,94;10112,598;  174,541;32243,218;30,98992
 305,54;10112,331;  189,387;32332,225;30,87140
 306,13;10113,502;  144,231;32182,885;31,11638
 306,73; 9965,776;  170,539;31948,375;30,82412
 307,33;10008,659;  196,616;31974,419;30,87703
 307,92;10033,500;  170,233;32028,953;30,95939
 308,52;10162,605;  165,927;32522,647;30,89522
 309,11;10376,402;  178,005;33043,998;31,03024
 309,71;10406,773;  150,467;33305,075;30,93478
 310,30;10439,949;  156,772;33566,903;30,77862
 310,90;10562,949;  166,695;33867,750;30,84845
 311,49;10582,284;  170,772;33965,911;30,80772
 312,09;10651,746;  141,156;34235,313;30,82813
 312,68;10760,405;  194,310;34546,187;30,75842
 313,28;10732,500;  155,925;34701,261;30,61651
 313,87;10686,647;  143,079;34852,825;30,37639
 314,47;10775,459;  161,543;35042,348;30,42910
 315,06;10781,516;  158,925;35257,963;30,26462
 315,66;10826,361;  153,309;35396,620;30,28391
 316,25;10671,360;  130,696;35361,073;29,91925
 316,85;10697,069;  141,232;35402,400;29,93615
 317,44;10678,895;  165,005;35637,019;29,63996
 318,04;10627,352;  148,850;35682,935;29,48859
 318,63;10602,410;  138,847;35639,731;29,47409
 319,22;10590,468;  178,081;35952,863;29,10538
 319,82;10529,654;  171,849;35909,604;28,98281
 320,41;10419,327;  166,773;35801,913;28,77091
 321,01;10383,084;  174,925;35946,743;28,53687
 321,60;10349,784;  177,541;36090,787;28,32449
 322,20;10265,245;  165,541;36091,598;28,11248
 322,79;10228,919;  206,387;36256,012;27,80204
 323,39;10113,116;  167,616;36247,448;27,56526
 323,98;10005,485;  153,925;36227,687;27,30949
 324,58; 9932,239;  166,465;35941,080;27,29805
 325,17; 9848,969;  178,542;35835,844;27,12047
 325,76; 9722,536;  188,387;35706,920;26,84274
 326,36; 9546,721;  155,310;35312,598;26,71256
 326,95; 9427,412;  179,157;34951,299;26,59674
 327,55; 9221,543;  155,080;34618,622;26,30740
 328,14; 9071,011;  164,232;34226,423;26,14858
 328,74; 8944,425;  191,157;33734,614;26,09531
 329,33; 8800,994;  186,386;33337,309;25,98603
 329,92; 8507,763;  160,466;32814,951;25,56248
 330,52; 8302,658;  167,847;32098,290;25,47666
 331,11; 8133,341;  176,926;31719,990;25,22398
 331,71; 7934,203;  166,541;31060,437;25,14303
 332,30; 7768,521;  195,233;30588,371;24,91775
 332,89; 7557,022;  189,310;30115,855;24,61932
 333,49; 7343,200;  171,311;29579,962;24,38700
 334,08; 7227,448;  173,157;29095,497;24,39046
 334,68; 7051,657;  172,926;28691,257;24,12038
 335,27; 6962,717;  178,001;28326,217;24,10354
 335,86; 6829,187;  199,926;28145,759;23,72182
 336,46; 6713,001;  187,924;27910,632;23,53694
 337,05; 6593,842;  169,465;27721,124;23,31757
 337,65; 6486,060;  165,465;27576,690;23,05842
 338,24; 6495,353;  222,310;27590,311;22,92109
 338,83; 6439,310;  189,079;27497,908;22,88722
 339,43; 6361,028;  171,773;27519,795;22,63145
 340,02; 6325,270;  176,619;27395,254;22,58986
 340,61; 6289,882;  156,849;27340,223;22,56171
 341,21; 6264,425;  207,080;27425,460;22,25461
 341,80; 6176,026;  166,157;27398,400;22,06895
 342,40; 6182,692;  172,847;27471,810;22,01492
 342,99; 6161,637;  169,464;27569,932;21,86887
 343,58; 6156,225;  165,002;27789,616;21,68799
 344,18; 6146,389;  174,386;27918,013;21,52567
 344,77; 6192,446;  159,619;28255,494;21,47228
 345,36; 6178,873;  148,157;28592,837;21,20156
 345,96; 6267,339;  196,233;28843,636;21,19252
 346,55; 6319,630;  166,924;29079,939;21,28006
 347,14; 6296,286;  138,078;29554,186;20,93482
 347,74; 6332,785;  137,922;29885,239;20,82495
 348,33; 6483,089;  165,461;30658,380;20,71834
 348,92; 6576,329;  182,306;31199,510;20,61444
 349,52; 6657,014;  155,153;31645,638;20,64706
 350,11; 6663,667;  158,235;31788,560;20,56707
 350,70; 6651,211;  168,156;31891,770;20,43605
 351,29; 6514,890;  155,160;31538,321;20,26479
 351,89; 6529,461;  169,620;31565,719;20,25679
 352,48; 6481,694;  146,156;31540,779;20,18033
 353,07; 6419,213;  174,770;31503,891;19,93175
 353,67; 6420,819;  183,460;31367,878;20,00152
 354,26; 6360,304;  170,078;31221,850;19,93518
 354,85; 6292,663;  171,848;31093,391;19,79466
 355,45; 6210,518;  154,773;30800,292;19,76062
 356,04; 6199,684;  162,539;30718,211;19,75785
 356,63; 6136,849;  186,541;30530,252;19,60969
 357,22; 6082,215;  179,236;30360,513;19,55841
 357,82; 6010,220;  170,620;30163,886;19,46970
 358,41; 5972,157;  175,618;29998,227;19,43673
 359,00; 5948,662;  159,696;29820,074;19,51750
 359,60; 5926,488;  176,079;29766,725;19,43320
 360,19; 5885,921;  164,232;29545,185;19,47415
 360,78; 5867,100;  169,234;29390,978;19,49872
 361,37; 5780,097;  170,849;29142,709;19,36102
 361,97; 5760,936;  176,695;29019,802;19,36075
 362,56; 5638,805;  149,235;28734,626;19,20411
 363,15; 5624,165;  180,619;28421,467;19,27543
 363,74; 5581,859;  167,389;28015,436;19,44291
 364,34; 5498,954;  197,234;27669,910;19,29815
 364,93; 5393,912;  156,312;27286,056;19,30575
 365,52; 5329,341;  135,541;26853,836;19,43911
 366,11; 5271,295;  167,004;26545,738;19,35003
 366,71; 5204,160;  159,850;26166,171;19,39648
 367,30; 5144,529;  164,541;25778,202;19,44270
 367,89; 5135,724;  205,386;25566,073;19,44087
 368,48; 5070,238;  178,697;25261,668;19,50144
 369,07; 5001,672;  173,541;24861,540;19,55659
 369,67; 4985,032;  176,543;24540,152;19,73636
 370,26; 4873,666;  158,618;24300,695;19,53042
 370,85; 4826,553;  174,388;24023,095;19,50699
 371,44; 4821,132;  161,695;23750,205;19,75300
 372,03; 4753,357;  152,773;23519,343;19,68874
 372,63; 4719,966;  139,157;23167,463;19,89208
 373,22; 4681,392;  166,926;22947,855;19,81687
 373,81; 4607,227;  131,388;22618,585;19,90394
 374,40; 4594,568;  162,924;22349,087;19,97481
 374,99; 4575,995;  160,465;22083,149;20,14138
 375,59; 4536,097;  148,771;21793,460;20,26976
 376,18; 4515,854;  191,772;21778,275;20,03141
 376,77; 4497,585;  173,310;21494,476;20,28161
 377,36; 4520,728;  193,234;21442,950;20,36495
 377,95; 4455,000;  174,004;21108,941;20,44905
 378,55; 4451,545;  161,233;20989,743;20,59827
 379,14; 4472,171;  165,003;20901,210;20,77125
 379,73; 4438,148;  167,388;20872,866;20,62623
 380,32; 4492,877;  199,926;20901,850;20,73697
 380,91; 4468,364;  153,620;20729,814;20,96959
 381,50; 4503,494;  184,235;20694,665;21,05884
 382,10; 4490,800;  163,926;20527,619;21,24798
 382,69; 4517,577;  151,926;20540,681;21,41205
 383,28; 4566,289;  182,542;20435,533;21,64493
 383,87; 4537,406;  155,619;20320,437;21,72986
 384,46; 4551,309;  157,313;20311,243;21,80218
 385,05; 4594,937;  190,158;20307,848;21,89506
 385,64; 4597,142;  169,234;20308,123;21,98685
 386,24; 4596,469;  148,313;20205,088;22,17782
 386,83; 4660,964;  179,851;20378,171;22,18557
 387,42; 4700,136;  184,696;20423,893;22,31037
 388,01; 4786,394;  164,775;20658,595;22,55128
 388,60; 4890,584;  182,159;20940,852;22,68170
 389,19; 4924,909;  148,854;21177,158;22,71251
 389,78; 5044,036;  158,238;21403,433;22,99719
 390,37; 5218,765;  203,390;21849,895;23,16944
 390,96; 5234,416;  173,928;22000,135;23,18538
 391,56; 5312,273;  172,085;22146,082;23,39214
 392,15; 5375,708;  167,468;22456,091;23,36726
 392,74; 5481,999;  137,240;22560,800;23,83546
 393,33; 5594,654;  155,162;22902,223;23,91294
 393,92; 5721,556;  175,241;23335,370;23,94768
 394,51; 5782,986;  150,393;23479,193;24,14438
 395,10; 5884,909;  186,629;23705,428;24,22862
 395,69; 5936,683;  168,013;23840,724;24,36844
 396,28; 6054,145;  169,399;23925,641;24,77137
 396,87; 6121,133;  175,401;24000,568;24,95568
 397,46; 6147,284;  173,710;24137,395;24,92761
 398,06; 6246,508;  179,789;24328,465;25,12237
 398,65; 6283,546;  171,025;24434,208;25,19258
 399,24; 6387,638;  171,487;24543,971;25,50479
 399,83; 6397,412;  158,032;24611,479;25,51534
 400,42; 6549,737;  190,423;24757,000;25,88604
 401,01; 6572,431;  148,661;24859,341;25,99592
 401,60; 6623,641;  170,363;24852,444;26,14560
 402,19; 6637,225;  185,140;24698,737;26,32043
 402,78; 6677,368;  187,998;24760,598;26,40897
 403,37; 6658,942;  180,240;24526,864;26,61027
 403,96; 6642,213;  173,330;24410,096;26,69037
 404,55; 6695,017;  170,729;24387,732;26,94094
 405,14; 6688,513;  162,973;24197,759;27,15040
 405,73; 6683,950;  164,681;24105,196;27,23112
 406,32; 6747,733;  169,230;24021,341;27,58038
 406,91; 6675,881;  168,857;23703,149;27,64912
 407,50; 6704,554;  162,094;23466,882;28,07346
 408,09; 6610,248;  160,406;23228,657;27,95982
 408,68; 6676,317;  174,332;23038,889;28,43696
 409,27; 6615,922;  154,251;22971,934;28,31870
 409,86; 6610,847;  156,473;22793,269;28,51275
 410,45; 6645,316;  180,926;22668,443;28,74657
 411,04; 6685,423;  188,380;22614,601;28,97075
 411,63; 6667,324;  172,831;22332,112;29,30823
 412,22; 6664,443;  177,129;22114,787;29,57159
 412,81; 6579,105;  180,203;21840,396;29,54222
 413,40; 6564,549;  195,198;21520,995;29,86688
 413,99; 6492,891;  215,276;21177,971;29,94660
 414,58; 6402,568;  166,276;20807,054;30,21346
 415,17; 6386,256;  166,818;20572,743;30,47859
 415,76; 6365,088;  163,283;20478,550;30,52780
 416,35; 6361,852;  155,974;20330,508;30,76095
 416,94; 6438,134;  181,359;20393,315;30,95581
 417,53; 6547,174;  163,741;20638,643;31,17687
 418,12; 6620,158;  160,509;20715,187;31,42666
 418,71; 6782,038;  171,275;21038,132;31,68069
 419,30; 6850,726;  169,816;21160,530;31,82793
 419,89; 6949,950;  157,969;21360,650;32,03359
 420,48; 7075,054;  190,583;21640,912;32,09494
 421,07; 7149,069;  171,428;21678,656;32,44324
 421,66; 7127,843;  147,580;21632,933;32,48847
 422,25; 7152,124;  155,345;21600,530;32,62634
 422,84; 7207,250;  192,345;21556,641;32,83471
 423,43; 7122,946;  171,192;21226,851;33,01608
 424,02; 7122,191;  185,961;20948,980;33,40666
 424,60; 6988,233;  162,495;20544,660;33,48878
 425,19; 6926,757;  166,036;20362,319;33,47508
 425,78; 7007,582;  195,343;20305,515;33,87459
 426,37; 6957,271;  193,572;20075,305;34,01967
 426,96; 6962,961;  170,418;20007,190;34,24218
 427,55; 6951,823;  176,800;19844,199;34,44798
 428,14; 6873,208;  152,953;19644,421;34,47793
 428,73; 6901,176;  174,724;19428,392;34,93595
 429,32; 6926,966;  182,419;19439,752;35,02327
 429,91; 6943,742;  204,494;19428,375;35,05665
 430,50; 6946,304;  182,108;19288,044;35,40364
 431,08; 6898,983;  189,414;19119,616;35,44373
 431,67; 6930,957;  221,413;18972,369;35,78241
 432,26; 6887,918;  226,489;18767,380;35,92831
 432,85; 6771,449;  235,720;18337,354;36,10574
 433,44; 6686,437;  248,641;18015,954;36,23393
 434,03; 6604,566;  258,023;17665,545;36,45862
 434,62; 6472,330;  219,872;17254,600;36,70418
 435,21; 6422,124;  230,719;17054,435;36,80164
 435,79; 6361,332;  219,486;16894,183;36,83333
 436,38; 6421,408;  214,330;16869,129;37,26901
 436,97; 6412,631;  217,022;16730,606;37,51826
 437,56; 6348,764;  215,326;16537,765;37,57672
 438,15; 6345,031;  199,865;16553,229;37,57738
 438,74; 6410,386;  228,557;16500,005;37,99188
 439,33; 6412,252;  205,019;16516,141;38,05522
 439,91; 6440,756;  178,171;16540,294;38,27489
 440,50; 6550,859;  217,556;16679,163;38,47317
 441,09; 6580,964;  215,939;16732,487;38,53726
 441,68; 6640,698;  202,860;16791,937;38,80769
 442,27; 6647,750;  183,707;16706,181;39,12273
 442,86; 6659,886;  165,625;16737,164;39,18924
 443,44; 6711,191;  182,549;16820,571;39,23929
 444,03; 6800,071;  218,471;16778,570;39,74372
 444,62; 6742,360;  175,318;16663,983;39,82762
 445,21; 6705,405;  195,087;16511,550;39,90030
 445,80; 6688,955;  197,623;16369,161;40,14047
 446,39; 6594,624;  214,701;16117,433;40,11841
 446,97; 6521,360;  169,006;15928,116;40,30909
 447,56; 6478,654;  173,311;15667,499;40,69489
 448,15; 6415,730;  173,237;15496,721;40,73808
 448,74; 6389,497;  181,544;15294,966;41,07576
 449,33; 6324,031;  177,927;15083,473;41,23367
 449,91; 6261,123;  179,002;14881,045;41,36922
 450,50; 6144,278;  158,695;14716,825;41,11506
 451,09; 6189,024;  187,002;14602,291;41,63650
 451,68; 6189,117;  209,463;14493,319;41,86302
 452,26; 6167,434;  196,538;14438,270;41,92535
 452,85; 6125,198;  175,462;14302,845;42,11492
 453,44; 6160,591;  195,074;14274,614;42,37011
 454,03; 6154,994;  167,615;14319,936;42,30669
 454,61; 6189,515;  156,305;14330,589;42,56448
 455,20; 6285,254;  195,150;14467,867;42,66955
 455,79; 6307,411;  196,537;14506,333;42,70413
 456,38; 6362,285;  186,995;14585,331;42,88892
 456,97; 6418,733;  173,610;14655,639;43,12326
 457,55; 6427,602;  172,378;14676,615;43,12687
 458,14; 6420,786;  197,226;14581,603;43,26611
 458,73; 6426,449;  183,224;14504,052;43,59542
 459,31; 6456,521;  207,145;14618,471;43,36433
 459,90; 6493,877;  212,608;14634,856;43,55263
 460,49; 6603,638;  226,070;14729,009;43,97431
 461,08; 6660,961;  167,375;14880,094;44,13587
 461,66; 6694,951;  181,069;14911,527;44,22050
 462,25; 6751,524;  182,067;15023,389;44,26464
 462,84; 6812,962;  206,914;15031,531;44,56134
 463,43; 6748,098;  151,680;14968,994;44,51831
 464,01; 6834,022;  176,525;15012,934;44,87270
 464,60; 6761,582;  215,450;14863,654;44,68897
 465,19; 6683,418;  156,679;14635,973;45,07636
 465,77; 6711,582;  170,985;14662,924;45,13265
 466,36; 6638,194;  187,526;14464,966;45,18084
 466,95; 6511,558;  183,449;14177,239;45,22083
 467,53; 6356,946;  177,061;13880,292;45,09801
 468,12; 6300,095;  199,522;13572,114;45,61997
 468,71; 6164,456;  177,601;13387,045;45,32253
 469,29; 6067,188;  164,137;13119,869;45,56323
 469,88; 5972,656;  171,752;12892,115;45,60329
 470,47; 6087,105;  211,135;13045,484;45,78316
 471,06; 6064,309;  180,289;13018,938;45,83052
 471,64; 6122,467;  180,289;13112,832;45,94748
 472,23; 6111,729;  148,670;13083,252;46,10167
 472,81; 6158,600;  147,595;13264,087;45,82784
 473,40; 6270,954;  168,747;13393,484;46,14237
 473,99; 6359,606;  227,978;13595,042;45,87117
 474,57; 6407,058;  171,593;13739,723;45,95670
 475,16; 6522,300;  179,287;13899,190;46,23220
 475,75; 6577,543;  191,130;13998,084;46,25505
 476,33; 6601,733;  205,129;14069,340;46,13753
 476,92; 6650,543;  203,439;14039,067;46,59784
 477,51; 6672,325;  173,668;14167,944;46,43796
 478,09; 6682,552;  190,437;14168,906;46,44368
 478,68; 6674,487;  193,744;14079,253;46,67270
 479,27; 6717,420;  202,284;14172,412;46,63620
 479,85; 6752,302;  180,514;14193,540;46,89771
 480,44; 6823,206;  171,359;14386,995;46,79247
 481,02; 7747,989;  180,204;16460,651;46,48389
 481,61; 8637,091;  190,359;18126,170;47,09423
 482,20; 9108,927;  181,743;19256,508;46,80102
 482,78; 9527,651;  208,744;20068,778;46,92292
 483,37; 9717,713;  202,202;20420,090;47,06481
 483,95; 9815,105;  221,433;20644,424;46,97486
 484,54; 9903,168;  241,666;20814,503;46,96242
 485,13; 9890,206;  195,123;20708,683;47,26183
 485,71; 9769,349;  185,816;20396,567;47,41799
 486,30; 9611,038;  211,585;20055,299;47,36741
 486,88; 9375,754;  229,816;19647,489;47,10110
 487,47; 9072,546;  228,046;18841,371;47,51703
 488,05; 8599,699;  217,046;17866,413;47,49549
 488,64; 7949,080;  211,506;16452,920;47,64101
 489,23; 6924,264;  218,814;14178,641;48,03390
 489,81; 6138,478;  211,583;12509,620;48,19383
 490,40; 5868,491;  176,891;12011,337;48,09351
 490,98; 5736,863;  159,659;11786,098;47,97000
 491,57; 5766,132;  198,968;11779,856;48,07200
 492,15; 5703,380;  169,274;11700,218;47,99352
 492,74; 5691,438;  177,815;11616,598;48,20114
 493,32; 5627,681;  185,659;11558,731;47,85006
 493,91; 5584,725;  173,966;11417,202;48,12457
 494,50; 5593,552;  186,656;11443,921;48,03028
 495,08; 5557,063;  171,348;11335,784;48,23991
 495,67; 5525,570;  190,428;11353,996;47,79065
 496,25; 5442,508;  144,503;11266,705;47,63449
 496,84; 5429,406;  155,274;11200,754;47,74924
 497,42; 5420,562;  150,964;11159,685;47,86748
 498,01; 5376,475;  178,043;11107,462;47,56367
 498,59; 5323,178;  143,195;11042,122;47,52746
 499,18; 5294,750;  146,427;10949,994;47,65392
 499,76; 5284,600;  170,119;10892,639;47,69850
 500,35; 5194,364;  177,963;10695,135;47,69724
 500,93; 5136,127;  154,580;10690,155;47,28311
 501,52; 5160,162;  169,426;10611,496;47,79451
 502,10; 5133,355;  175,116;10565,730;47,71845
 502,69; 5052,820;  157,499;10374,247;47,91467
 503,27; 4963,756;  141,886;10230,836;47,79357
 503,86; 4912,871;  156,577;10161,634;47,53890
 504,44; 4874,416;  149,422;10033,726;47,80300
 505,03; 4723,204;  138,114; 9755,005;47,67746
 505,61; 4712,061;  141,422; 9634,720;48,14595
 506,19; 4619,345;  165,191; 9559,648;47,41257
 506,78; 4536,841;  136,882; 9326,586;47,87923
 507,36; 4453,908;  153,037; 9181,464;47,63698
 507,95; 4393,733;  154,342; 9044,351;47,68714
 508,53; 4337,422;  159,882; 8894,912;47,82514
 509,12; 4272,277;  162,804; 8759,452;47,80320
 509,70; 4187,586;  175,342; 8573,710;47,77409
 510,29; 4104,817;  174,572; 8453,880;47,47070
 510,87; 4034,616;  155,113; 8298,893;47,63763
 511,46; 3945,448;  151,958; 8056,217;47,99299
 512,04; 3855,347;  150,727; 7948,110;47,51108
 512,62; 3783,215;  155,958; 7819,102;47,33379
 513,21; 3670,713;  131,880; 7634,103;47,17046
 513,79; 3638,262;  157,415; 7541,165;47,14199
 514,38; 3526,575;  135,032; 7341,147;47,06480
 514,96; 3541,590;  164,416; 7280,721;47,45685
 515,54; 3415,365;  145,262; 7143,300;46,72885
 516,13; 3397,636;  164,646; 7037,794;47,03798
 516,71; 3321,133;  149,491; 6905,306;46,94684
 517,30; 3282,392;  139,183; 6809,382;47,12317
 517,88; 3239,072;  165,644; 6729,717;46,82196
 518,46; 3192,566;  146,721; 6642,535;46,88936
 519,05; 3152,612;  154,258; 6582,069;46,64658
 519,63; 3145,860;  165,105; 6522,167;46,88888
 520,22; 3089,251;  170,872; 6421,353;46,69047
 520,80; 3049,526;  160,411; 6373,193;46,50276
 521,38; 3032,561;  168,874; 6366,322;46,20752
 521,97; 3024,649;  159,025; 6335,342;46,39696
 522,55; 3016,055;  161,948; 6286,428;46,60161
 523,13; 2985,346;  135,640; 6300,844;46,22242
 523,72; 3003,400;  147,259; 6314,639;46,31044
 524,30; 3061,186;  175,101; 6478,656;45,78504
 524,89; 3041,769;  136,794; 6473,336;45,84480
 525,47; 3095,329;  167,947; 6617,018;45,39231
 526,05; 3084,004;  137,639; 6693,561;44,94204
 526,64; 3148,153;  162,254; 6792,435;45,03496
 527,22; 3219,852;  170,331; 6939,623;45,04933
 527,80; 3279,162;  196,561; 7056,626;44,93545
 528,39; 3315,491;  154,638; 7201,600;44,85413
 528,97; 3374,348;  166,407; 7361,468;44,58532
 529,55; 3464,768;  173,255; 7550,171;44,61909
 530,14; 3552,933;  183,022; 7742,464;44,57883
 530,72; 3576,114;  164,407; 7830,430;44,50426
 531,30; 3603,515;  142,791; 7983,688;44,13683
 531,89; 3654,401;  158,329; 8036,361;44,37747
 532,47; 3730,172;  188,252; 8191,542;44,25580
 533,05; 3752,088;  176,946; 8219,818;44,45107
 533,63; 3744,517;  190,790; 8273,921;43,96473
 534,22; 3760,573;  149,329; 8294,528;44,33586
 534,80; 3766,546;  181,250; 8392,742;43,66193
 535,38; 3864,460;  224,791; 8408,826;44,47279
 535,97; 3771,744;  159,867; 8413,985;43,75848
 536,55; 3796,378;  207,019; 8434,476;43,62658
 537,13; 3777,447;  207,176; 8392,648;43,61717
 537,71; 3827,557;  229,330; 8451,808;43,76086
 538,30; 3827,054;  235,174; 8517,449;43,36828
 538,88; 3859,800;  256,249; 8658,051;42,89021
 539,46; 3972,414;  294,558; 8809,905;43,19091
 540,05; 4002,374;  304,404; 8927,736;42,88331
 540,63; 4098,811;  320,942; 9087,458;43,09430
 541,21; 4128,094;  336,864; 9212,683;42,71413
 541,79; 4221,749;  359,326; 9337,510;43,02009
 542,38; 4279,561;  367,788; 9511,281;42,78204
 542,96; 4347,414;  377,479; 9667,596;42,73289
 543,54; 4438,222;  380,480; 9861,277;42,79959
 544,12; 4459,230;  363,403;10010,379;42,45711
 544,70; 4454,021;  348,863;10138,328;41,93444
 545,29; 4540,961;  364,634;10263,291;42,19084
 545,87; 4538,210;  349,710;10356,279;41,85750
 546,45; 4499,779;  314,173;10320,154;41,83104
 547,03; 4549,821;  297,403;10435,983;41,94293
 547,62; 4595,814;  287,864;10596,820;41,78842
 548,20; 4657,850;  298,787;10833,420;41,37841
 548,78; 4666,583;  274,246;10991,398;40,98418
 549,36; 4708,373;  266,707;11206,971;40,59925
 549,94; 4783,132;  236,402;11339,499;40,95010
 550,53; 4831,580;  240,092;11576,626;40,50169
 551,11; 4910,062;  229,553;11805,051;40,43462
 551,69; 5014,532;  223,707;12176,354;40,08171
 552,27; 5115,492;  190,785;12412,818;40,29368
 552,85; 5247,988;  200,014;12870,551;39,84025
 553,44; 5378,594;  200,092;13101,574;40,13881
 554,02; 5517,540;  221,707;13586,841;39,62424
 554,60; 5590,164;  165,707;13859,381;39,61287
 555,18; 5777,028;  207,784;14266,566;39,61398
 555,76; 5903,097;  187,092;14642,428;39,54253
 556,34; 6036,604;  186,090;15067,696;39,31373
 556,93; 6170,059;  188,246;15441,895;39,21562
 557,51; 6271,869;  176,321;15828,063;38,94485
 558,09; 6411,234;  189,092;16156,443;38,96791
 558,67; 6576,112;  196,936;16604,384;38,87976
 559,25; 6661,996;  206,398;16854,876;38,77591
 559,83; 6747,733;  187,550;17212,348;38,53310
 560,41; 6878,169;  169,398;17632,267;38,41735
 561,00; 7013,533;  182,166;17919,404;38,51427
 561,58; 7077,677;  186,706;18213,247;38,22680
 562,16; 7166,194;  167,937;18481,273;38,21399
 562,74; 7254,903;  159,938;18928,602;37,80219
 563,32; 7385,351;  152,320;19307,616;37,75995
 563,90; 7586,669;  181,166;19791,817;37,76266
 564,48; 7721,273;  182,245;20199,377;37,66288
 565,06; 7937,259;  169,013;20936,411;37,40597
 565,65; 8124,152;  182,472;21615,168;37,05404
 566,23; 8449,050;  229,320;22408,626;37,06036
 566,81; 8681,153;  170,013;23130,222;37,06909
 567,39; 8932,651;  176,627;24057,401;36,66558
 567,97; 9190,923;  197,090;24709,274;36,69128
 568,55; 9517,434;  201,704;25549,461;36,75169
 569,13; 9690,854;  176,397;26252,607;36,48711
 569,71;10082,812;  184,937;27262,541;36,55373
 570,29;10401,505;  205,400;28159,961;36,47385
 570,87;10573,851;  204,245;28987,854;36,02608
 571,45;10806,349;  199,166;29560,076;36,12689
 572,03;10958,436;  167,011;30076,156;36,08069
 572,61;11164,572;  170,781;30832,912;35,85462
 573,20;11343,325;  192,167;31483,833;35,63619
 573,78;11571,523;  175,320;32207,665;35,57718
 574,36;11626,608;  173,166;32575,341;35,34776
 574,94;11771,453;  212,703;32972,142;35,28372
 575,52;11826,877;  175,163;33226,257;35,25364
 576,10;11988,622;  218,549;33856,630;34,99032
 576,68;12139,535;  203,857;34493,781;34,80812
 577,26;12345,129;  230,009;35127,385;34,71642
 577,84;12451,387;  218,858;35554,353;34,61825
 578,42;12468,436;  240,087;35765,582;34,42133
 579,00;12500,696;  213,396;36002,328;34,33268
 579,58;12545,314;  232,242;36167,383;34,26471
 580,16;12498,704;  230,318;36226,731;34,08225
 580,74;12507,425;  215,472;36476,329;33,89868
 581,32;12461,413;  205,703;36392,906;33,86753
 581,90;12361,073;  226,087;36497,797;33,45579
 582,48;12408,338;  238,780;36623,702;33,44671
 583,06;12390,905;  218,780;36816,413;33,25932
 583,64;12387,262;  226,934;36868,737;33,18703
 584,22;12277,755;  226,086;36525,946;33,20032
 584,80;12123,470;  231,164;36331,102;32,94273
 585,38;11966,668;  230,090;35971,570;32,83742
 585,96;11923,041;  220,242;36159,708;32,56253
 586,54;11911,240;  228,932;36204,710;32,47270
 587,12;11898,500;  207,625;36436,420;32,26956
 587,70;11881,839;  238,396;36577,691;32,04091
 588,28;11872,656;  232,472;36593,150;32,01311
 588,86;11869,110;  219,087;36790,858;31,85523
 589,44;11790,682;  201,008;36863,744;31,61159
 590,02;11894,238;  226,855;37071,919;31,66607
 590,59;11900,609;  193,394;37348,392;31,50913
 591,17;11832,255;  195,314;37413,015;31,26722
 591,75;11849,878;  204,623;37593,343;31,14644
 592,33;11896,744;  206,316;37898,171;31,01580
 592,91;11960,847;  167,314;38143,671;31,05493
 593,49;11915,742;  179,160;38498,628;30,62825
 594,07;11976,650;  198,237;38688,233;30,60123
 594,65;11902,631;  205,625;38699,222;30,38689
 595,23;11936,262;  198,855;39164,274;30,12263
 595,81;11991,882;  186,008;39188,108;30,26984
 596,39;11892,335;  189,162;39349,379;29,88536
 596,97;11912,810;  187,314;39512,652;29,81664
 597,55;11873,867;  182,086;39395,672;29,81564
 598,12;11808,208;  172,544;39432,001;29,63786
 598,70;11784,226;  185,391;39673,801;29,37276
 599,28;11839,436;  191,776;39846,485;29,37270
 599,86;11748,041;  182,930;39830,396;29,16986
 600,44;11753,428;  149,545;39902,192;29,19021
 601,02;11774,592;  209,389;39937,468;29,11090
 601,60;11624,817;  181,930;39913,584;28,80043
 602,18;11560,909;  168,775;40000,037;28,60099
 602,75;11539,085;  177,162;40066,048;28,48393
 603,33;11477,088;  188,006;40115,735;28,27379
 603,91;11427,229;  166,466;39974,359;28,28776
 604,49;11404,101;  198,083;40192,861;28,01870
 605,07;11366,035;  203,546;40256,996;27,86898
 605,65;11348,431;  204,006;40297,744;27,79593
 606,23;11298,741;  246,087;40352,946;27,55802
 606,80;11252,663;  255,624;40392,106;27,39911
 607,38;11203,154;  276,159;40455,037;27,19587
 607,96;11173,109;  313,393;40470,095;27,04335
 608,54;11142,394;  358,852;40486,186;26,87331
 609,12;11108,795;  349,393;40572,866;26,74906
 609,70;11063,817;  387,084;40549,164;26,58411
 610,27;11058,930;  375,624;40643,765;26,53042
 610,85;10970,555;  380,007;40698,297;26,26735
 611,43;10894,439;  393,160;40770,061;26,00813
 612,01;10760,973;  361,546;40349,800;26,00620
 612,59;10710,490;  346,699;40489,577;25,81726
 613,16;10592,484;  336,624;40379,657;25,61210
 613,74;10569,605;  315,776;40256,803;25,67242
 614,32;10447,927;  293,929;40221,264;25,43119
 614,90;10364,876;  286,469;40046,819;25,34788
 615,48;10236,193;  244,086;39871,874;25,21490
 616,05;10174,154;  230,548;39810,135;25,12307
 616,63;10039,347;  238,471;39640,472;24,87405
 617,21; 9973,219;  237,547;39510,333;24,78987
 617,79; 9910,639;  215,700;39420,649;24,72887
 618,36; 9819,844;  240,007;39329,284;24,50758
 618,94; 9646,430;  184,470;39001,386;24,37587
 619,52; 9578,043;  210,240;38711,716;24,33102
 620,10; 9570,888;  211,547;38655,568;24,34537
 620,67; 9440,402;  211,317;38580,925;24,05311
 621,25; 9358,029;  222,315;38471,613;23,88466
 621,83; 9294,064;  207,086;38377,511;23,80633
 622,41; 9240,726;  237,701;38321,490;23,64004
 622,98; 9140,177;  223,702;38143,847;23,51382
 623,56; 9047,367;  222,472;38077,199;23,31253
 624,14; 8966,665;  211,776;37918,765;23,21821
 624,72; 8918,452;  216,701;37825,241;23,13770
 625,29; 8879,192;  184,087;37979,113;23,00595
 625,87; 8843,215;  237,623;37965,438;22,80967
 626,45; 8691,889;  198,703;37699,521;22,64800
 627,02; 8703,917;  198,777;37698,604;22,68048
 627,60; 8618,104;  182,468;37551,720;22,57374
 628,18; 8589,257;  173,085;37677,327;22,44059
 628,76; 8562,667;  192,933;37711,291;22,30837
 629,33; 8523,309;  206,317;37777,417;22,13667
 629,91; 8506,195;  205,624;37746,953;22,11049
 630,49; 8493,523;  219,932;37850,201;21,98653
 631,06; 8495,790;  207,240;38016,399;21,92207
 631,64; 8444,302;  206,164;37960,581;21,82033
 632,22; 8349,432;  172,242;37879,877;21,68577
 632,79; 8388,564;  197,857;38132,868;21,59142
 633,37; 8424,238;  180,238;38224,244;21,66964
 633,95; 8384,760;  190,087;38292,799;21,50680
 634,52; 8376,975;  182,163;38410,539;21,43646
 635,10; 8292,093;  188,239;38333,008;21,24500
 635,68; 8352,450;  190,318;38685,771;21,20285
 636,25; 8280,625;  185,242;38558,918;21,09619
 636,83; 8296,205;  162,087;38821,214;21,04062
 637,41; 8236,126;  170,703;38873,940;20,83914
 637,98; 8266,443;  189,011;39191,976;20,70979
 638,56; 8247,113;  199,243;39219,335;20,62494
 639,13; 8226,780;  187,548;39248,951;20,58101
 639,71; 8195,575;  204,086;39399,871;20,38864
 640,29; 8128,511;  161,163;39137,443;20,44153
 640,86; 8129,773;  172,394;39385,340;20,29273
 641,44; 8099,726;  181,856;39386,543;20,19623
 642,02; 8103,603;  197,394;39343,670;20,19658
 642,59; 8040,326;  167,625;39505,412;20,01308
 643,17; 8047,895;  188,702;39544,770;19,96946
 643,74; 7935,311;  173,548;39483,204;19,74518
 644,32; 7958,034;  209,317;39369,870;19,78705
 644,89; 7870,064;  200,317;39445,612;19,54310
 645,47; 7895,480;  215,855;39453,431;19,57212
 646,05; 7808,280;  185,778;39419,404;19,42849
 646,62; 7792,003;  195,701;39422,454;19,36510
 647,20; 7757,802;  203,393;39539,658;19,20469
 647,77; 7683,679;  160,470;39415,400;19,16500
 648,35; 7650,402;  170,547;39341,296;19,09551
 648,92; 7604,510;  202,778;39266,423;18,94788
 649,50; 7545,233;  157,701;39255,088;18,89521
 650,08; 7537,264;  158,086;39188,522;18,90621
 650,65; 7533,602;  172,393;39492,803;18,72109
 651,23; 7666,633;  158,393;40438,007;18,64030
 651,80; 7788,509;  168,085;41246,287;18,55102
 652,38; 7831,925;  177,547;41552,183;18,50017
 652,95; 7820,878;  156,547;41818,233;18,39659
 653,53; 7884,371;  181,931;42160,129;18,34867
 654,10; 7892,478;  204,085;42210,025;18,30311
 654,68; 7808,047;  173,931;42091,306;18,21230
 655,25; 7806,232;  164,777;42250,664;18,15681
 655,83; 7757,340;  172,085;42337,560;17,98925
 656,40; 7729,293;  183,854;42216,840;17,95123
 656,98; 7665,401;  162,162;42157,429;17,86687
 657,55; 7693,047;  179,316;42035,479;17,95131
 658,13; 7514,232;  170,623;41570,990;17,73803
 658,70; 7487,955;  190,623;41156,425;17,81323
 659,28; 7230,370;  173,700;40244,013;17,61072
 659,85; 7106,247;  162,931;39632,140;17,59173
 660,43; 7125,585;  184,238;39777,420;17,53167
 661,00; 7090,231;  184,085;39913,778;17,38283
 661,58; 7138,493;  163,546;40384,751;17,34147
 662,15; 7171,446;  158,623;40553,185;17,36081
 662,73; 7199,323;  198,931;40895,620;17,20138
 663,30; 7195,815;  167,469;41059,824;17,18743
 663,88; 7213,308;  178,084;41275,412;17,11844
 664,45; 7192,646;  158,469;41527,462;17,00350
 665,03; 7242,138;  171,315;41884,127;16,95120
 665,60; 7308,784;  215,546;42366,331;16,82825
 666,17; 7316,815;  173,853;42482,689;16,88291
 666,75; 7329,615;  162,238;42730,046;16,83755
 667,32; 7375,261;  188,469;43209,096;16,70546
 667,90; 7370,522;  171,007;43396,223;16,65582
 668,47; 7501,784;  192,776;43665,350;16,81292
 669,05; 7461,968;  168,853;43900,707;16,67689
 669,62; 7425,076;  145,391;44058,834;16,57735
 670,19; 7462,953;  147,391;44146,884;16,62647
 670,77; 7465,983;  177,699;44334,626;16,50542
 671,34; 7447,091;  164,776;44208,061;16,53445
 671,92; 7501,660;  153,622;44513,572;16,56458
 672,49; 7441,383;  186,622;44563,699;16,34799
 673,06; 7429,106;  133,007;44574,133;16,41745
 673,64; 7446,368;  148,699;44603,799;16,41582
 674,21; 7373,629;  151,391;44492,925;16,28775
 674,79; 7454,429;  175,006;44728,360;16,33866
 675,36; 7416,844;  179,622;44854,256;16,19985
 675,93; 7353,490;  152,237;44791,152;16,13223
 676,51; 7408,444;  173,314;44932,740;16,16448
 677,08; 7408,782;  171,545;45057,867;16,12348
 677,65; 7387,121;  176,006;45183,532;16,02202
 678,23; 7437,613;  174,391;45427,813;16,05011
 678,80; 7423,336;  158,314;45481,478;16,02938
 679,38; 7423,982;  146,621;45753,221;15,95682
 679,95; 7497,859;  169,698;46064,501;15,96730
 680,52; 7485,197;  158,237;46233,859;15,90203
 681,10; 7564,228;  175,006;46712,524;15,87799
 681,67; 7609,951;  171,929;47003,266;15,88257
 682,24; 7595,751;  153,929;47051,470;15,86826
 682,82; 7678,012;  154,621;47649,751;15,84034
 683,39; 7716,505;  186,236;47938,416;15,76948
 683,96; 7768,151;  167,390;48190,158;15,82741
 684,54; 7816,951;  145,159;48490,823;15,86862
 685,11; 7863,289;  185,236;48923,027;15,75380
 685,68; 7906,627;  178,698;49334,616;15,72126
 686,25; 7905,120;  163,082;49378,896;15,73079
 686,83; 7981,073;  164,928;49576,792;15,81836
 687,40; 7991,027;  157,851;49904,381;15,74618
 687,97; 8054,289;  184,005;50339,661;15,69172
 688,55; 8058,396;  155,005;50317,711;15,75551
 689,12; 8045,888;  138,159;50671,223;15,64862
 689,69; 8113,919;  157,005;50741,965;15,72980
 690,26; 8098,796;  167,467;50761,015;15,67656
 690,84; 8144,134;  165,543;50993,065;15,69738
 691,41; 8166,088;  162,928;50996,345;15,74390
 691,98; 8252,042;  170,313;51390,395;15,77844
 692,56; 8262,149;  149,466;51393,368;15,83151
 693,13; 8318,026;  217,774;51514,264;15,79105
 693,70; 8314,826;  176,697;51682,237;15,80049
 694,27; 8298,011;  156,235;51824,748;15,75771
 694,84; 8352,887;  148,774;51866,183;15,86335
 695,42; 8391,457;  191,005;52025,771;15,82037
 695,99; 8385,718;  164,312;52182,283;15,80493
 696,56; 8375,210;  142,851;52189,025;15,81742
 697,13; 8478,164;  175,466;52437,690;15,88661
 697,71; 8451,656;  139,774;52574,586;15,85184
 698,28; 8530,995;  168,850;52856,252;15,87124
 698,85; 8523,718;  125,927;52979,225;15,88887
 699,42; 8558,364;  135,389;53144,121;15,88979
 699,99; 8618,625;  165,004;53157,940;15,95235
 700,57; 8638,887;  152,620;53151,067;16,01229
 701,14; 8652,379;  154,543;53299,039;15,99006
 701,71; 8679,563;  172,773;53573,705;15,93004
 702,28; 8734,748;  160,389;53516,985;16,06991
 702,85; 8752,702;  154,004;53632,728;16,07873
 703,43; 8774,963;  169,388;53956,316;15,99938
 704,00; 8820,378;  178,081;54075,597;16,03469
 704,57; 8881,871;  163,773;54007,493;16,19148
 705,14; 8958,747;  185,311;54290,081;16,21564
 705,71; 8941,086;  191,619;54301,823;16,16972
 706,28; 8919,732;  161,773;54212,488;16,20322
 706,86; 8995,224;  198,927;54428,000;16,22063
 707,43; 9018,639;  192,696;54364,204;16,29259
 708,00; 9024,824;  170,311;54359,792;16,33991
 708,57; 8975,239;  161,926;54388,073;16,25288
 709,14; 9063,808;  187,926;54498,123;16,34294
 709,71; 9045,377;  161,234;54503,480;16,34850
 710,28; 9065,024;  172,388;54749,376;16,29375
 710,86; 9157,593;  167,388;54870,426;16,43456
 711,43; 9173,931;  186,157;54905,014;16,42537
 712,00; 9198,731;  175,157;55067,757;16,43860
 712,57; 9222,377;  171,542;55039,730;16,49560
 713,14; 9232,331;  169,157;55233,395;16,45927
 713,71; 9287,438;  186,080;55021,522;16,59758
 714,28; 9291,238;  178,080;55154,033;16,57663
 714,85; 9287,346;  168,541;54862,006;16,67257
 715,42; 9290,530;  175,926;55168,364;16,57429
 716,00; 9386,330;  212,464;55267,567;16,66306
 716,57; 9387,284;  176,310;55393,848;16,68125
 717,14; 9329,084;  151,772;55317,821;16,63580
 717,71; 9386,884;  152,695;55364,486;16,72503
 718,28; 9424,530;  188,310;55433,998;16,71844
 718,85; 9483,791;  155,849;55409,048;16,88218
 719,42; 9560,514;  179,772;55618,867;16,92081
 719,99; 9558,930;  159,233;55382,070;17,02139
 720,56; 9630,730;  168,233;55675,582;17,04729
 721,13; 9708,837;  167,464;55834,939;17,13994
 721,70; 9702,406;  148,771;55569,528;17,23837
 722,27; 9758,360;  191,387;55622,808;17,25912
 722,84; 9811,391;  206,002;55856,551;17,26019
 723,41; 9838,268;  165,617;55827,062;17,37765
 723,98; 9900,683;  181,694;56103,650;17,37956
 724,55;10019,944;  193,694;56178,931;17,55150
 725,12; 9958,667;  136,156;56101,673;17,55101
 725,69;10083,313;  165,925;56320,877;17,66076
 726,27;10126,036;  166,771;56348,850;17,72677
 726,84;10221,221;  173,309;56705,515;17,77378
 727,41;10269,790;  177,386;56697,027;17,85645
 727,98;10343,975;  185,540;56803,538;17,94206
 728,55;10390,544;  200,079;56900,203;17,97256
 729,12;10391,805;  149,155;56890,946;18,05133
 729,69;10470,836;  190,155;57159,149;18,04610
 730,26;10576,174;  195,925;57297,968;18,17842
 730,82;10543,590;  178,001;57198,249;18,17878
 731,39;10629,620;  169,309;57235,453;18,33015
 731,96;10740,189;  147,078;57559,810;18,45080
 732,53;10810,912;  176,924;57736,860;18,47464
 733,10;10865,405;  179,155;57807,910;18,54326
 733,67;10940,743;  179,847;58134,191;18,56788
 734,24;10861,235;  163,232;57692,779;18,59567
 734,81;10971,343;  187,770;57885,906;18,68964
 735,38;10993,297;  174,232;57605,648;18,83823
 735,95;10955,635;  171,770;57500,621;18,81054
 736,52;10994,050;  188,309;57487,286;18,85852
 737,09;11003,773;  180,462;57151,413;18,99795
 737,66;11080,650;  209,462;57385,309;19,01360
 738,23;11158,373;  170,539;57478,513;19,17331
 738,80;11296,250;  195,385;57603,794;19,33665
 739,37;11338,665;  195,001;57975,074;19,28635
 739,94;11432,696;  179,154;57954,894;19,47797
 740,51;11535,034;  233,077;58117,866;19,52492
 741,07;11483,603;  172,154;58007,378;19,55806
 741,64;11581,942;  194,539;58245,351;19,61627
 742,21;11715,049;  176,770;58247,016;19,86952
 742,78;11647,465;  152,154;57962,681;19,88446
 743,35;11772,342;  172,385;58345,424;19,94043
 743,92;11887,141;  188,846;58511,166;20,05801
 744,49;11916,941;  176,231;58240,831;20,22008
 745,06;11901,434;  166,308;58361,727;20,16503
 745,63;11942,772;  155,077;58231,854;20,29674
 746,19;12047,803;  163,231;58226,058;20,46847
 746,76;12092,141;  182,615;58308,338;20,48925
 747,33;12060,787;  167,231;58268,234;20,47048
 747,90;12205,818;  199,923;58472,746;20,60291
 748,47;12231,464;  184,538;58392,950;20,69619
 749,04;12300,802;  186,077;58353,846;20,82721
 749,61;12359,448;  203,154;58270,665;20,93476
 750,17;12425,171;  196,000;58454,330;20,99128
 750,74;12398,433;  187,461;58245,303;21,03242
 751,31;12427,925;  167,077;58148,737;21,14608
 751,88;12468,340;  154,307;58051,480;21,26880
 752,45;12581,525;  177,692;58298,376;21,34151
 753,02;12489,632;  178,923;58136,503;21,24090
 753,58;12618,509;  163,153;57966,860;21,54768
 754,15;12668,155;  164,922;58106,525;21,57902
 754,72;12648,417;  162,769;57831,037;21,65081
 755,29;12678,986;  154,307;57717,779;21,75803
 755,86;12792,863;  184,768;57872,983;21,85558
 756,42;12846,816;  190,845;57729,802;21,99548
 756,99;12832,155;  161,461;57722,390;22,01266
 757,56;12881,570;  161,922;57657,748;22,12273
 758,13;12933,755;  153,922;57618,875;22,23935
 758,70;13043,093;  166,691;57587,694;22,42455
 759,26;13113,508;  162,922;57710,897;22,50398
 759,83;13176,308;  177,537;57855,563;22,53678
 760,40;13258,262;  169,922;57579,074;22,79835
 760,97;13224,754;  164,999;57723,739;22,68944
 761,53;13166,169;  155,922;57343,789;22,75001
 762,10;13221,277;  151,076;57292,532;22,87341
 762,67;13375,000;  185,152;57251,505;23,11318
 763,24;13249,800;  139,999;56834,324;23,12366
 763,80;13373,061;  175,768;56922,450;23,25650
 764,37;13397,400;  173,691;56863,654;23,32637
 764,94;13354,815;  151,460;56497,550;23,43260
 765,50;13390,461;  150,306;56357,600;23,55594
 766,07;13528,569;  183,306;56502,265;23,69586
 766,64;13497,292;  152,306;56097,161;23,85382
 767,21;13513,707;  159,229;55951,519;23,93606
 767,77;13593,815;  174,690;55901,877;24,08003
 768,34;13589,845;  178,460;55864,157;24,08408
 768,91;13672,722;  175,306;55639,361;24,33543
 769,47;13718,522;  170,690;55669,488;24,41104
 770,04;13800,784;  172,690;55514,076;24,62550
 770,61;13779,583;  158,306;55308,203;24,69865
 771,18;13802,922;  157,229;55100,407;24,83601
 771,74;13903,722;  166,229;55379,457;24,88080
 772,31;13902,752;  170,075;55027,583;25,03336
 772,88;13902,706;  153,228;54794,864;25,16301
 773,44;13954,583;  156,998;54736,452;25,27982
 774,01;14014,691;  174,382;54817,810;25,32840
 774,58;14005,491;  152,690;54404,091;25,53446
 775,14;14060,367;  148,459;54570,064;25,56321
 775,71;14102,013;  157,613;54452,190;25,68286
 776,27;14114,736;  192,074;54324,163;25,71979
 776,84;14199,921;  205,459;54352,059;25,84550
 777,41;14179,413;  164,690;54165,263;25,95292
 777,97;14114,521;  159,766;53852,236;25,99015
 778,54;14259,475;  173,766;53878,286;26,22816
 779,11;14243,044;  188,843;53938,182;26,14767
 779,67;14328,074;  154,612;53826,770;26,40748
 780,24;14352,797;  170,766;53552,128;26,56738
 780,80;14386,213;  190,766;53612,563;26,57239
 781,37;14456,013;  180,228;53636,305;26,70564
 781,94;14483,505;  177,381;53266,047;26,94760
 782,50;14562,305;  181,304;53166,943;27,14132
 783,07;14657,720;  199,612;53355,377;27,19951
 783,63;14639,981;  166,997;52979,735;27,40434
 784,20;14690,628;  196,920;52943,862;27,47782
 784,77;14686,197;  181,766;52760,296;27,58622
 785,33;14800,766;  160,458;52636,731;27,89891
 785,90;14877,181;  185,073;52458,935;28,10603
 786,46;14904,058;  202,612;52370,446;28,18106
 787,03;14833,781;  169,150;52270,804;28,14619
 787,59;14932,273;  165,919;52061,469;28,45399
 788,16;14976,996;  199,073;51929,442;28,56721
 788,73;14995,181;  189,842;52016,799;28,56687
 789,29;14881,288;  177,919;51517,157;28,63963
 789,86;14937,088;  185,073;51382,207;28,81414
 790,42;15003,427;  196,611;51263,641;28,99486
 790,99;14972,688;  204,919;50884,384;29,13955
 791,55;14995,026;  171,381;50893,510;29,22520
 792,12;15067,211;  188,688;50885,099;29,34828
 792,68;15012,626;  181,611;50502,841;29,47268
 793,25;14958,888;  198,534;50282,891;29,47099
 793,81;15012,380;  223,150;50029,248;29,69361
 794,38;14955,872;  155,073;49790,991;29,81873
 794,94;14985,826;  167,765;49634,194;29,95579
 795,51;14994,933;  199,996;49369,167;30,08987
 796,07;15009,195;  187,149;49146,679;30,27408
 796,64;15141,149;  197,611;49200,806;30,49503
 797,20;15052,025;  196,149;48710,317;30,62173
 797,77;14940,748;  177,457;48424,059;30,59965
 798,33;14986,779;  181,534;48243,648;30,80440
 798,90;15001,271;  215,149;48115,313;30,86863
 799,46;14900,687;  193,918;47604,747;31,01985
 800,03;14941,179;  191,303;47530,259;31,15801
 800,59;14934,363;  211,226;47354,386;31,23070
 801,15;14955,702;  197,457;47155,820;31,42836
 801,72;14882,963;  201,995;46745,793;31,54227
 802,28;14818,763;  226,610;46471,458;31,55412
 802,85;14766,102;  185,380;46208,431;31,68135
 803,41;14863,209;  200,380;46081,404;31,95837
 803,98;14780,317;  191,995;45668,993;32,07846
 804,54;14743,040;  191,918;45317,273;32,24600
 805,11;14688,686;  203,456;45132,862;32,23998
 805,67;14740,716;  209,149;45126,065;32,35210
 806,23;14657,209;  202,456;44598,500;32,55865
 806,80;14717,855;  216,995;44522,627;32,72916
 807,36;14723,809;  226,764;44448,061;32,78295
 807,93;14748,301;  210,994;44300,188;32,97249
 808,49;14642,101;  193,456;43891,161;33,06500
 809,05;14577,439;  180,917;43676,519;33,09880
 809,62;14675,316;  205,840;43616,722;33,33145
 810,18;14689,116;  211,840;43495,388;33,44753
 810,74;14679,762;  180,994;43319,130;33,61009
 811,31;14653,946;  190,686;43000,333;33,78505
 811,87;14643,516;  189,071;42825,999;33,90123
 812,44;14697,315;  217,763;42907,895;33,91780
 813,00;14689,808;  160,840;42582,329;34,24907
 813,56;14810,915;  209,532;42636,764;34,41512
 814,13;14813,946;  189,609;42528,737;34,54095
 814,69;14860,515;  207,378;42280,094;34,82812
 815,25;14742,315;  182,994;41868,221;34,92681
 815,82;14839,500;  213,301;41759,194;35,20492
 816,38;14865,530;  226,917;41568,475;35,40895
 816,94;14744,715;  191,148;41306,679;35,39676
 817,51;14800,592;  195,378;41018,805;35,77655
 818,07;14767,622;  191,763;40841,778;35,85696
 818,63;14751,961;  214,070;40634,367;35,96681
 819,20;14821,222;  211,993;40504,109;36,25828
 819,76;14651,407;  182,840;40159,390;36,19264
 820,32;14678,899;  230,070;39991,362;36,33893
 820,89;14692,622;  228,916;39864,489;36,49173
 821,45;14531,960;  188,455;39470,539;36,51411
 822,01;14532,529;  219,762;39298,435;36,62552
 822,57;14605,714;  209,147;39110,562;37,00782
 823,14;14488,052;  177,301;38865,381;36,99008
 823,70;14465,391;  185,608;38578,200;37,19411
 824,26;14376,498;  183,839;38519,942;37,02165
 824,82;14445,144;  216,608;38241,146;37,41935
 825,39;14408,483;  188,608;37952,965;37,65422
 825,95;14427,052;  226,608;38006,015;37,58779
 826,51;14281,621;  205,531;37656,065;37,58582
 827,08;14368,113;  234,993;37662,192;37,76163
 827,64;14388,298;  210,070;37422,934;38,10034
 828,20;14331,944;  194,146;37206,061;38,19796
 828,76;14446,897;  211,531;37131,957;38,55689
 829,32;14407,620;  215,993;37032,007;38,54743
 829,89;14325,497;  187,608;36886,826;38,52368
 830,45;14366,143;  198,839;36792,030;38,71569
 831,01;14354,174;  192,146;36541,926;38,96042
 831,57;14397,974;  203,838;36494,745;39,11210
 832,14;14448,620;  197,531;36434,872;39,32708
 832,70;14392,189;  193,377;36176,383;39,45977
 833,26;14358,451;  182,608;36109,125;39,45788
 833,82;14391,866;  203,608;36114,637;39,50947
 834,38;14410,435;  193,992;36034,379;39,66599
 834,95;14386,620;  188,684;35960,429;39,69036
 835,51;14381,420;  163,300;35743,171;39,96113
 836,07;14476,143;  205,377;35826,990;40,06210
 836,63;14512,481;  219,607;35769,502;40,20511
 837,19;14499,358;  200,223;35734,936;40,23991
 837,75;14416,850;  178,530;35326,217;40,50998
 838,32;14541,650;  221,838;35391,036;40,71691
 838,88;14554,757;  213,992;35429,547;40,72282
 839,44;14603,557;  195,607;35383,828;40,94538
 840,00;14668,203;  193,145;35300,416;41,23094
 840,56;14611,542;  177,376;34929,159;41,53504
 841,12;14677,649;  184,376;34969,208;41,66550
 841,68;14644,295;  176,991;34795,104;41,79114
 842,25;14686,172;  183,607;34791,231;41,90569
 842,81;14663,511;  184,222;34528,358;42,15942
 843,37;14761,541;  179,530;34535,100;42,44439
 843,93;14748,187;  189,299;34427,381;42,52250
 844,49;14848,295;  196,683;34570,739;42,62404
 845,05;14789,941;  174,299;34285,865;42,84659
 845,61;14909,126;  197,837;34300,377;43,13840
 846,17;14935,079;  203,453;34175,888;43,36347
 846,73;14913,725;  201,376;34118,400;43,37748
 847,29;14888,218;  167,914;33944,911;43,58085
 847,86;14916,787;  183,683;33806,576;43,81867
 848,42;14897,510;  174,298;33646,780;43,98602
 848,98;14936,694;  192,606;33604,445;44,12833
 849,54;14972,110;  178,606;33553,418;44,32535
 850,10;14994,833;  185,760;33496,237;44,45770
 850,66;15017,556;  174,991;33290,518;44,82056
 851,22;15042,817;  178,375;33204,645;45,00793
 851,78;15097,309;  224,298;33336,233;44,91737
 852,34;15046,955;  190,375;33132,283;45,09933
 852,90;15050,986;  181,683;32996,487;45,31279
 853,46;15070,401;  175,837;32732,844;45,74918
 854,02;15068,817;  189,836;32811,048;45,61137
 854,58;15095,155;  189,144;32430,252;46,23294
 855,14;15085,878;  173,990;32404,071;46,26699
 855,70;15101,986;  158,682;32230,736;46,59291
 856,26;15077,324;  211,067;32123,171;46,58501
 856,82;15032,970;  174,913;31991,836;46,69860
 857,38;15021,616;  205,067;31852,194;46,81799
 857,94;14928,878;  190,375;31728,244;46,73272
 858,50;14925,601;  196,605;31605,909;46,89373
 859,06;14962,400;  188,759;31444,190;47,26744
 859,62;14995,354;  201,913;31434,162;47,36592
 860,18;14881,770;  186,221;31209,059;47,37010
 860,74;14849,339;  159,374;31106,108;47,46854
 861,30;14838,600;  167,913;30862,466;47,79574
 861,86;14858,938;  200,143;30874,516;47,78841
 862,42;14860,892;  191,605;30763,720;47,98257
 862,98;14862,077;  215,759;30695,693;48,05233
 863,54;14772,646;  193,605;30469,589;48,15381
 864,10;14834,369;  202,066;30485,715;48,31750
 864,66;14761,246;  180,143;30348,996;48,33164
 865,22;14801,199;  193,143;30149,200;48,76495
 865,78;14759,153;  200,758;30062,557;48,75257
 866,34;14791,107;  180,989;29998,992;48,99764
 866,90;14745,676;  198,528;29844,119;49,07019
 867,45;14697,091;  202,143;29692,169;49,15204
 868,01;14576,738;  189,451;29580,757;48,95082
 868,57;14565,076;  201,604;29330,576;49,30992
 869,13;14551,030;  185,374;29273,088;49,38737
 869,69;14552,599;  186,066;29054,753;49,76511
 870,25;14502,629;  177,758;29026,033;49,65590
 870,81;14545,199;  195,220;28923,930;49,94996
 871,37;14473,306;  188,604;28855,364;49,83019
 871,93;14457,260;  197,066;28634,645;50,14560
 872,49;14375,521;  199,296;28421,848;50,23013
 873,04;14370,244;  186,296;28266,898;50,51155
 873,60;14313,583;  175,835;28135,871;50,56413
 874,16;14340,690;  196,065;28037,767;50,80374
 874,72;14330,921;  186,065;27980,383;50,89118
 875,28;14349,767;  199,219;27898,306;51,08670
 875,84;14435,229;  192,988;27795,690;51,59727
 876,40;14360,844;  194,296;27772,921;51,36785
 876,95;14408,690;  200,681;27822,229;51,43814
 877,51;14504,229;  217,065;27694,537;51,99592
 878,07;14530,460;  224,527;27733,767;52,00410
 878,63;14615,383;  188,681;27701,537;52,43622
 879,19;14751,075;  207,065;27796,152;52,71653
 879,75;14799,152;  197,988;27824,075;52,85281
 880,30;14792,075;  193,527;27801,613;52,87780
 880,86;14970,613;  224,296;27964,767;53,15814
 881,42;15035,613;  184,450;27976,460;53,43681
 881,98;15151,537;  204,604;28067,844;53,64391
 882,54;15248,152;  194,758;28094,075;53,95614
 883,09;15409,229;  202,912;28297,767;54,12492
 883,65;15438,229;  186,373;28301,690;54,24750
 884,21;15657,075;  226,219;28517,075;54,54362
 884,77;15645,844;  183,604;28544,998;54,51862
 885,32;15768,306;  193,527;28728,152;54,58203
 885,88;15903,844;  231,527;28857,075;54,74941
 886,44;16040,844;  216,142;29003,306;54,97138
 887,00;16135,383;  214,219;28954,998;55,39573
 887,56;16292,075;  196,142;29076,998;55,73219
 888,11;16258,690;  203,373;29161,690;55,44285
 888,67;16450,998;  228,373;29329,075;55,74651
 889,23;16524,767;  210,835;29251,229;56,17669
 889,79;16449,921;  177,296;29067,229;56,32628
 890,34;16581,921;  191,758;29042,460;56,81028
 890,90;16686,537;  240,912;29223,383;56,74335
 891,46;16637,921;  190,450;29129,537;56,83480
 892,01;16724,383;  209,912;29186,537;56,99239
 892,57;16730,998;  225,296;28998,613;57,36461
 893,13;16658,152;  187,373;28803,767;57,55714
 893,69;16664,767;  198,142;28879,998;57,41130
 894,24;16691,306;  212,450;28583,844;58,08264
 894,80;16685,998;  222,450;28485,537;58,25106
 895,36;16657,767;  201,988;28314,306;58,53583
 895,91;16610,537;  204,373;28161,460;58,68338
 896,47;16694,613;  217,758;27993,690;59,32062
 897,03;16603,383;  205,604;27816,075;59,38971
 897,58;16608,690;  218,681;27736,383;59,56169
 898,14;16508,921;  219,142;27556,998;59,58689
 898,70;16479,613;  180,373;27407,921;59,86305
 899,25;16514,152;  199,296;27361,537;60,06447
 899,81;16537,460;  221,065;27093,998;60,71684
 900,37;16374,460;  185,065;27018,152;60,33370
 900,92;16517,152;  205,835;27040,460;60,78459
 901,48;16478,383;  206,219;26798,306;61,19175
 902,03;16404,921;  197,758;26693,306;61,16938
 902,59;16385,383;  199,219;26603,460;61,30138
 903,15;16363,767;  219,296;26526,690;61,36857
 903,70;16253,690;  209,758;26234,690;61,64832
 904,26;16216,921;  193,835;26082,460;61,89238
 904,82;16184,460;  205,142;26039,921;61,85196
 905,37;16180,844;  208,296;25973,998;61,99151
 905,93;16095,767;  197,912;25707,844;62,32026
 906,48;16076,152;  212,835;25742,998;62,13559
 907,04;16068,767;  216,604;25678,613;62,25810
 907,60;15906,075;  191,373;25428,844;62,26734
 908,15;15908,152;  184,835;25272,306;62,67398
 908,71;15924,152;  231,604;25234,690;62,76244
 909,26;15811,306;  192,065;25031,844;62,87995
 909,82;15843,690;  224,604;24928,075;63,22628
 910,37;15818,152;  237,988;24893,998;63,19013
 910,93;15655,152;  189,681;24636,075;63,26279
 911,48;15585,306;  195,373;24517,844;63,27454
 912,04;15495,767;  197,142;24376,460;63,27153
 912,60;15581,767;  214,373;24419,075;63,48929
 913,15;15535,767;  198,373;24258,383;63,74642
 913,71;15445,383;  199,450;23993,460;64,07467
 914,26;15392,306;  182,681;23998,306;63,86406
 914,82;15353,152;  205,065;23865,537;64,02276
 915,37;15354,613;  199,065;23749,690;64,35306
 915,93;15289,690;  223,065;23686,690;64,21269
 916,48;15337,998;  194,450;23544,921;64,85329
 917,04;15245,767;  213,373;23499,767;64,55441
 917,59;15227,306;  229,450;23373,229;64,80297
 918,15;15123,767;  174,835;23148,844;65,06889
 918,70;15069,229;  194,604;23104,690;64,92610
 919,26;14983,306;  202,912;22966,690;64,92944
 919,81;14891,229;  188,988;22808,460;64,99816
 920,37;14949,844;  197,373;22743,998;65,43095
 920,92;14944,306;  208,681;22622,460;65,74360
 921,48;14772,152;  183,604;22437,075;65,55628
 922,03;14763,383;  192,219;22414,767;65,56927
 922,59;14711,383;  193,912;22213,383;65,93015
 923,14;14653,383;  188,065;22091,075;66,04260
 923,69;14742,383;  212,758;22098,613;66,38820
 924,25;14687,767;  210,065;22011,767;66,40629
 924,80;14619,229;  206,219;21805,690;66,72853
 925,36;14580,767;  201,912;21681,998;66,94040
 925,91;14563,306;  198,450;21559,383;67,24826
 926,47;14491,921;  184,296;21506,537;67,10188
 927,02;14535,229;  220,373;21434,613;67,47758
 927,57;14428,152;  198,835;21321,690;67,36455
 928,13;14432,306;  192,373;21151,229;67,94232
 928,68;14508,844;  196,912;21097,767;68,47534
 929,24;14371,460;  178,142;20889,229;68,53005
 929,79;14316,537;  193,296;20788,152;68,57654
 930,34;14267,921;  210,527;20717,690;68,54870
 930,90;14264,690;  193,681;20614,229;68,90613
 931,45;14346,767;  205,604;20613,383;69,29301
 932,01;14327,460;  219,527;20495,229;69,58049
 932,56;14246,767;  221,681;20289,844;69,88724
 933,11;14257,767;  220,373;20363,998;69,68653
 933,67;14162,460;  194,450;20132,844;70,05584
 934,22;14207,383;  202,988;20048,383;70,56748
 934,77;14126,767;  229,373;19866,844;70,76978
 935,33;14071,383;  219,527;19809,613;70,70850
 935,88;13940,075;  219,296;19730,844;70,32132
 936,43;13987,152;  201,219;19653,537;70,87039
 936,99;13923,537;  206,296;19452,844;71,27117
 937,54;13788,383;  198,835;19326,383;71,04699
 938,09;13795,844;  212,681;19282,921;71,22702
 938,65;13695,460;  208,835;19163,229;71,15303
 939,20;13600,306;  183,681;19059,613;71,07794
 939,75;13491,152;  187,142;18936,383;70,95759
 940,31;13476,383;  182,065;18821,229;71,32465
 940,86;13512,229;  214,988;18885,537;71,22041
 941,41;13451,767;  238,065;18738,690;71,42300
 941,96;13325,306;  195,527;18626,998;71,23565
 942,52;13345,075;  203,604;18543,998;71,65316
 943,07;13294,460;  187,219;18418,921;71,89258
 943,62;13257,613;  193,065;18278,075;72,23965
 944,18;13204,306;  183,758;18282,690;71,94097
 944,73;13160,844;  196,142;18154,306;72,19392
 945,28;13012,383;  172,296;17965,460;72,16303
 945,83;13045,460;  203,681;17993,383;72,18659
 946,39;13006,460;  188,835;17922,921;72,27677
 946,94;12987,767;  218,065;17828,613;72,51167
 947,49;12927,537;  195,835;17714,998;72,67300
 948,04;12950,537;  211,373;17702,229;72,83328
 948,59;12900,537;  214,142;17577,998;73,06208
 949,15;12783,998;  182,142;17494,537;72,79095
 949,70;12782,306;  196,450;17355,613;73,34772
 950,25;12744,383;  218,835;17256,998;73,51466
 950,80;12668,998;  176,373;17171,383;73,50761
 951,36;12624,075;  168,219;17084,229;73,63353
 951,91;12684,537;  213,373;17105,383;73,82877
 952,46;12507,690;  168,296;16940,383;73,57101
 953,01;12567,921;  213,450;16969,537;73,73124
 953,56;12465,075;  186,296;16782,229;73,98668
 954,11;12417,383;  206,219;16699,075;74,03911
 954,67;12420,998;  199,681;16670,383;74,20034
 955,22;12310,844;  179,296;16465,537;74,48956
 955,77;12338,767;  217,219;16507,460;74,40988
 956,32;12223,690;  228,912;16374,152;74,29297
 956,87;12175,306;  193,219;16234,537;74,69515
 957,42;12213,690;  196,604;16147,921;75,33601
 957,98;12164,844;  190,219;16069,690;75,40947
 958,53;12157,460;  215,296;15981,306;75,74627
 959,08;12112,460;  189,450;15866,767;76,05261
 959,63;12042,537;  192,912;15839,690;75,73204
 960,18;11985,306;  211,604;15817,998;75,44153
 960,73;12031,690;  206,219;15708,998;76,27969
 961,28;11973,383;  173,527;15596,383;76,50889
 961,83;11942,844;  212,450;15509,767;76,68269
 962,39;11938,767;  185,142;15445,383;77,02123
 962,94;11887,767;  203,450;15362,460;77,07837
 963,49;11775,152;  201,604;15218,998;77,06762
 964,04;11771,537;  216,373;15167,998;77,28366
 964,59;11766,537;  170,988;15042,306;77,97257
 965,14;11749,383;  203,219;14919,690;78,45742
 965,69;11657,152;  204,604;14921,383;77,81967
 966,24;11647,075;  200,681;14837,690;78,20173
 966,79;11560,152;  203,142;14689,690;78,39693
 967,34;11462,383;  177,296;14545,690;78,54104
 967,89;11465,229;  200,219;14586,460;78,30406
 968,44;11369,306;  197,219;14457,844;78,34219
 968,99;11387,075;  196,835;14406,152;78,75284
 969,55;11253,075;  205,219;14294,229;78,41471
 970,10;11232,844;  199,296;14181,921;78,90899
 970,65;11171,075;  209,604;14121,613;78,79143
 971,20;11123,075;  188,527;13963,075;79,38226
 971,75;11033,075;  183,604;13836,690;79,46534
 972,30;11030,613;  200,604;13804,306;79,61075
 972,85;10960,767;  183,219;13695,998;79,75819
 973,40;10853,460;  187,065;13563,998;79,73722
 973,95;10880,921;  199,450;13507,537;80,26301
 974,50;10853,690;  208,912;13482,460;80,19543
 975,05;10754,075;  213,912;13362,460;80,16219
 975,60;10785,537;  220,219;13291,921;80,82587
 976,15;10669,229;  192,758;13173,460;80,70805
 976,70;10588,767;  209,681;13126,537;80,35304
 977,25;10570,229;  209,758;13021,229;80,86871
 977,80;10514,998;  200,065;12905,152;81,18743
 978,35;10397,613;  216,296;12706,383;81,51519
 978,89;10336,152;  184,681;12649,152;81,44326
 979,44;10353,075;  197,912;12630,229;81,68359
 979,99;10175,229;  182,142;12482,075;81,24505
 980,54;10177,613;  231,604;12378,998;81,87772
 981,09;10055,921;  211,527;12387,921;80,84819
 981,64;10014,460;  206,065;12196,767;81,80000
 982,19; 9981,075;  236,527;12149,537;81,79753
 982,74; 9884,921;  223,527;12002,613;82,02159
 983,29; 9759,229;  186,988;11853,537;82,04861
 983,84; 9737,921;  221,219;11753,460;82,52258
 984,39; 9668,613;  228,373;11671,075;82,50010
 984,94; 9585,537;  183,142;11576,844;82,52273
 985,49; 9546,998;  225,604;11529,844;82,45927
 986,03; 9485,537;  225,604;11450,229;82,49659
 986,58; 9394,613;  239,988;11250,229;83,14646
 987,13; 9305,844;  214,065;11175,306;82,94480
 987,68; 9229,844;  211,988;11077,998;82,99142
 988,23; 9283,998;  219,835;10988,613;84,17076
 988,78; 9104,844;  203,296;10897,075;83,24044
 989,33; 9098,690;  207,219;10798,613;83,94996
 989,88; 9042,383;  232,681;10727,921;83,93997
 990,42; 8910,844;  205,835;10547,921;84,17073
 990,97; 8834,229;  206,604;10462,921;84,12011
 991,52; 8786,844;  232,604;10373,613;84,35295
 992,07; 8741,306;  224,450;10284,998;84,65598
 992,62; 8598,075;  226,450;10176,229;84,13880
 993,17; 8603,306;  219,450;10067,152;85,13515
 993,71; 8528,152;  214,219; 9945,690;85,43346
 994,26; 8408,075;  205,373; 9821,229;85,30392
 994,81; 8396,383;  225,988; 9769,537;85,61171
 995,36; 8247,998;  202,758; 9625,921;85,37728
 995,91; 8252,998;  213,142; 9565,998;85,96151
 996,45; 8198,921;  221,604; 9503,152;85,94813
 997,00; 8039,537;  195,988; 9308,306;86,07633
 997,55; 8098,613;  209,450; 9277,075;87,00364
 998,10; 7963,383;  237,835; 9150,152;86,68394
 998,65; 7907,998;  207,912; 9094,998;86,64354
 999,19; 7833,306;  218,912; 8972,613;86,98485
 999,74; 7761,075;  245,912; 8893,844;86,90127
1000,29; 7728,460;  226,450; 8783,998;87,66541
1000,84; 7509,613;  212,296; 8668,152;86,29898
1001,38; 7479,613;  206,758; 8534,998;87,32764
1001,93; 7456,229;  231,912; 8482,152;87,56493
1002,48; 7367,690;  199,450; 8377,690;87,65016
1003,03; 7333,383;  223,373; 8314,537;87,87376
1003,57; 7250,152;  232,065; 8237,306;87,66865
1004,12; 7191,075;  239,527; 8084,075;88,61630
1004,67; 7084,460;  211,835; 8030,613;87,89896
1005,22; 6924,921;  206,681; 7867,152;87,70009
1005,76; 6835,152;  204,065; 7782,613;87,49811
1006,31; 6829,998;  223,527; 7702,460;88,33441
1006,86; 6714,767;  206,527; 7560,460;88,50014
1007,40; 6601,537;  192,835; 7457,998;88,21139
1007,95; 6566,460;  210,527; 7384,075;88,60236
1008,50; 6466,383;  213,142; 7259,690;88,74190
1009,04; 6376,613;  217,219; 7187,383;88,36800
1009,59; 6296,075;  220,450; 7033,460;89,17682
1010,14; 6211,229;  211,450; 6958,613;88,92298
1010,68; 6120,767;  210,219; 6848,767;89,03375
1011,23; 6031,921;  186,065; 6678,844;90,03627
1011,78; 5987,229;  230,835; 6639,306;89,82477
1012,32; 5887,690;  207,450; 6522,613;89,94605
1012,87; 5922,613;  243,681; 6540,537;90,18680
1013,42; 5830,229;  205,912; 6421,537;90,48675
1013,96; 5834,690;  235,604; 6421,460;90,51434
1014,51; 5764,075;  184,988; 6325,460;90,85763
1015,06; 5783,767;  174,604; 6329,613;91,13168
1015,60; 5896,075;  241,065; 6356,767;92,46706
1016,15; 5824,152;  211,604; 6353,229;91,38539
1016,69; 5842,921;  212,912; 6377,998;91,32085
1017,24; 5870,306;  183,373; 6358,690;92,09134
1017,79; 5977,921;  231,450; 6466,921;92,15777
1018,33; 5913,690;  194,758; 6378,383;92,48511
1018,88; 6001,229;  222,912; 6469,075;92,50986
1019,42; 6028,229;  213,527; 6478,383;92,81462
1019,97; 6009,690;  203,142; 6472,767;92,61396
1020,51; 6065,152;  206,604; 6476,075;93,44565
1021,06; 6051,690;  206,835; 6485,767;93,08677
1021,61; 6031,767;  180,835; 6463,306;93,13107
1022,15; 5976,690;  170,450; 6391,767;93,32815
1022,70; 5966,306;  205,450; 6440,229;92,39872
1023,24; 5905,075;  202,988; 6332,690;93,02388
1023,79; 5885,229;  209,681; 6297,383;93,22973
1024,33; 5842,921;  198,142; 6239,460;93,43623
1024,88; 5750,075;  204,988; 6135,767;93,49677
1025,42; 5648,229;  204,296; 6033,844;93,38516
1025,97; 5628,998;  210,296; 5962,613;94,20033
1026,51; 5507,613;  171,296; 5839,613;94,14288
1027,06; 5448,613;  200,219; 5779,690;94,06616
1027,60; 5358,460;  211,912; 5684,613;94,04035
1028,15; 5266,844;  214,142; 5623,998;93,39809
1028,69; 5181,767;  174,912; 5497,998;94,05926
1029,24; 5124,690;  201,988; 5459,383;93,63387
1029,78; 5040,998;  197,065; 5329,613;94,37676
1030,33; 4942,921;  183,988; 5216,767;94,55875
1030,87; 4941,844;  193,988; 5188,767;95,05638
1031,42; 4810,152;  185,604; 5083,229;94,42430
1031,96; 4793,844;  209,142; 5011,229;95,47312
1032,51; 4717,613;  186,604; 4911,383;95,89887
1033,05; 4704,229;  202,681; 4911,152;95,60530
1033,60; 4580,690;  177,065; 4727,383;96,77622
1034,14; 4527,844;  201,219; 4712,537;95,90602
1034,69; 4511,383;  197,681; 4653,152;96,81809
1035,23; 4411,767;  194,296; 4593,306;95,87320
1035,77; 4417,306;  193,373; 4508,306;97,89104
1036,32; 4341,383;  180,065; 4440,383;97,67623
1036,86; 4260,690;  193,373; 4380,229;97,14491
1037,41; 4225,306;  205,527; 4313,613;97,85039
1037,95; 4166,075;  175,835; 4243,998;98,08456
1038,50; 4106,613;  193,681; 4209,613;97,43522
1039,04; 4053,306;  202,835; 4177,152;96,88384
1039,58; 3997,613;  183,604; 4077,460;97,94943
1040,13; 3981,998;  190,835; 4016,460;99,09919
1040,67; 3957,613;  219,912; 4009,306;98,63587
1041,21; 3862,229;  215,604; 3914,537;98,58587
1041,76; 3801,690;  177,373; 3831,844;99,17488
1042,30; 3747,460;  199,835; 3784,229;98,97419
1042,85; 3692,690;  198,450; 3713,613;99,40478
1043,39; 3651,152;  184,527; 3681,075;99,14421
1043,93; 3636,460;  213,296; 3622,537;100,40839
1044,48; 3547,921;  210,450; 3578,998;99,07744
1045,02; 3483,306;  192,296; 3519,075;98,92481
1045,56; 3496,690;  214,373; 3495,767;100,02813
1046,11; 3466,998;  203,835; 3438,767;100,87268
1046,65; 3372,383;  203,450; 3395,613;99,27226
1047,19; 3331,229;  197,373; 3338,152;99,77957
1047,74; 3265,767;  179,219; 3270,767;99,83827
1048,28; 3254,613;  199,450; 3236,844;100,58502
1048,82; 3215,537;  216,604; 3207,460;100,27005
1049,37; 3201,383;  199,373; 3158,921;101,43473
1049,91; 3117,306;  188,065; 3091,998;100,87150
1050,45; 3119,460;  215,988; 3099,152;100,70435
1050,99; 3075,075;  205,450; 3019,306;101,98195
1051,54; 2999,844;  190,835; 2965,998;101,21961
1052,08; 2988,613;  216,835; 2957,383;101,13958
1052,62; 2948,613;  222,758; 2899,921;101,81880
1053,16; 2883,690;  196,296; 2822,844;102,31658
1053,71; 2893,537;  213,912; 2812,075;103,13535
1054,25; 2836,460;  212,681; 2788,383;101,86656
1054,79; 2788,152;  209,142; 2740,229;101,89338
1055,33; 2742,383;  190,527; 2662,075;103,24929
1055,88; 2724,844;  213,142; 2666,075;102,39588
1056,42; 2710,921;  232,296; 2621,613;103,73779
1056,96; 2664,306;  214,988; 2586,844;103,26586
1057,50; 2633,613;  207,527; 2526,075;104,63818
1058,05; 2585,690;  212,296; 2490,152;104,19423
1058,59; 2557,537;  228,219; 2451,075;104,78940
1059,13; 2504,537;  190,065; 2393,383;105,04484
1059,67; 2498,767;  219,681; 2382,075;105,39644
1060,21; 2418,537;  211,219; 2329,613;104,19766
1060,76; 2425,690;  218,758; 2326,767;104,69272
1061,30; 2402,844;  225,527; 2294,229;105,25041
1061,84; 2336,998;  209,681; 2231,537;105,21608
1062,38; 2306,690;  201,988; 2182,229;106,28517
1062,92; 2320,152;  232,681; 2193,229;106,47386
1063,46; 2290,690;  229,988; 2154,690;107,06603
1064,01; 2228,690;  212,988; 2121,075;105,63996
1064,55; 2231,998;  215,604; 2085,306;107,84576
1065,09; 2168,613;  182,527; 2059,537;105,81121
1065,63; 2206,613;  240,296; 2079,075;106,93604
1066,17; 2152,460;  231,912; 2047,921;105,75649
1066,71; 2133,383;  231,450; 2014,690;106,65599
1067,25; 2082,998;  206,142; 1967,767;106,54116
1067,80; 2090,383;  224,912; 1983,152;106,09875
1068,34; 2088,460;  240,219; 1968,690;106,92920
1068,88; 2001,460;  209,373; 1898,229;106,11247
1069,42; 2045,690;  240,373; 1907,921;108,26178
1069,96; 1961,844;  201,681; 1855,537;106,42787
1070,50; 2014,152;  235,527; 1860,767;109,43766
1071,04; 1926,306;  205,450; 1809,690;107,26920
1071,58; 1914,460;  209,065; 1805,537;106,82274
1072,12; 1905,460;  209,296; 1764,767;109,04500
1072,66; 1889,767;  209,604; 1749,306;109,12264
1073,21; 1887,306;  224,604; 1761,921;108,15607
1073,75; 1842,306;  223,219; 1719,383;108,21589
1074,29; 1820,075;  234,296; 1678,921;109,77097
1074,83; 1788,383;  232,219; 1696,460;106,27787
1075,37; 1787,383;  217,065; 1653,998;109,28259
1075,91; 1779,998;  230,219; 1650,306;109,13270
1076,45; 1732,306;  213,835; 1621,383;107,88059
1076,99; 1701,921;  237,758; 1612,613;106,49579
1077,53; 1679,460;  203,912; 1554,383;109,26172
1078,07; 1663,844;  226,450; 1560,690;107,73128
1078,61; 1659,844;  223,219; 1544,767;108,70774
1079,15; 1608,229;  205,988; 1512,613;107,31774
1079,69; 1608,844;  221,296; 1515,613;107,20308
1080,23; 1610,613;  240,296; 1496,075;109,12091
1080,77; 1588,306;  237,988; 1468,075;109,77417
1081,31; 1554,075;  209,604; 1437,460;109,49748
1081,85; 1549,998;  227,296; 1437,537;109,29250
1082,39; 1547,921;  212,450; 1417,537;110,81952
1082,93; 1515,844;  225,065; 1404,152;109,47278
1083,47; 1462,921;  202,604; 1359,306;108,95783
1084,01; 1477,921;  234,527; 1387,306;107,86060
1084,55; 1447,460;  215,835; 1337,383;109,81473
1085,09; 1446,075;  242,142; 1348,613;108,80832
1085,63; 1419,460;  219,604; 1311,921;109,84498
1086,17; 1404,460;  215,142; 1312,152;108,41448
1086,71; 1381,075;  219,296; 1285,844;108,92888
1087,24; 1398,460;  244,142; 1292,383;110,11952
1087,78; 1359,460;  216,373; 1268,075;108,68921
1088,32; 1330,537;  211,142; 1223,767;110,54381
1088,86; 1356,075;  231,296; 1248,075;110,62178
1089,40; 1307,460;  224,450; 1219,383;108,85255
1089,94; 1274,921;  203,835; 1199,229;107,60425
1090,48; 1279,921;  232,065; 1192,229;109,13306
1091,02; 1273,844;  226,835; 1177,383;110,14799
1091,56; 1257,460;  232,219; 1157,921;110,75276
1092,10; 1228,460;  207,681; 1132,921;110,32580
1092,63; 1245,921;  238,296; 1142,767;111,40488
1093,17; 1203,383;  230,142; 1128,998;108,27548
1093,71; 1216,460;  219,450; 1104,921;112,59651
1094,25; 1216,690;  238,450; 1115,075;111,59166
1094,79; 1187,921;  223,604; 1085,537;111,87849
1095,33; 1161,537;  219,142; 1071,075;110,61839
1095,87; 1175,229;  219,758; 1063,998;113,17525
1096,40; 1142,229;  207,988; 1035,306;112,92407
1096,94; 1132,383;  212,296; 1032,306;112,20436
1097,48; 1142,921;  219,835; 1031,306;113,75470
1098,02; 1117,152;  226,065; 1014,537;113,01448
1098,56; 1081,767;  192,527;  979,921;112,93458
1099,10; 1072,383;  193,604;  972,075;112,88522
1099,63; 1074,075;  199,065;  959,998;114,99172
1100,17; 1065,460;  218,142;  971,229;112,51261
1100,71; 1069,460;  230,527;  977,460;112,31704

