
Integration time [ms]: 120,000
Averaging Nr. [scans]: 13
Smoothing Nr. [pixels]: 0
Data measured with spectrometer [name]: 2009305U1
Wave   ;Sample   ;Dark     ;Reference;Reflectance
[nm]   ;[counts] ;[counts] ;[counts] ;[%]

 175,72;  200,842;  196,668;  197,919;333,68263
 176,32;  221,096;  224,824;  212,280; 0,00000
 176,92;  248,825;  241,130;  242,571;534,10742
 177,52;  259,700;  242,515;  254,327;145,48155
 178,12;  230,789;  234,286;  223,116; 0,00000
 178,72;  266,834;  259,440;  254,402; 0,00000
 179,32;  258,082;  246,671;  235,386; 0,00000
 179,92;  245,870;  234,900;  248,482;80,76345
 180,52;  238,653;  240,436;  237,089; 0,00000
 181,12;  241,458;  253,977;  245,596; 0,00000
 181,73;  266,424;  269,515;  273,796;-72,21430
 182,33;  339,711;  335,668;  334,695; 0,00000
 182,93;  261,952;  254,130;  265,674;67,75585
 183,53;  234,539;  236,441;  221,261; 0,00000
 184,13;  232,715;  237,671;  221,796; 0,00000
 184,73;  271,957;  262,518;  271,534;104,69612
 185,33;  252,516;  229,840;  336,352;21,28970
 185,93;  262,781;  230,227;  351,774;26,78286
 186,53;  286,631;  244,918;  379,899;30,90304
 187,13;  295,899;  274,916;  403,937;16,26328
 187,73;  271,803;  235,688;  356,935;29,78611
 188,33;  285,665;  241,766;  349,541;40,73229
 188,93;  274,811;  249,615;  369,880;20,94984
 189,53;  285,484;  249,772;  385,703;26,27262
 190,13;  312,305;  275,006;  414,463;26,74519
 190,73;  253,436;  214,465;  357,542;27,23780
 191,34;  289,401;  255,616;  380,255;27,10588
 191,94;  261,786;  233,998;  358,715;22,28089
 192,54;  276,969;  238,761;  386,808;25,80811
 193,14;  288,374;  254,609;  383,084;26,28161
 193,74;  280,519;  248,378;  396,443;21,70739
 194,34;  283,845;  252,224;  387,868;23,31169
 194,94;  245,933;  212,609;  342,507;25,65431
 195,54;  214,887;  192,610;  327,986;16,45630
 196,14;  251,595;  222,454;  364,863;20,46269
 196,74;  251,109;  216,764;  341,279;27,58333
 197,34;  234,733;  194,760;  337,313;28,04073
 197,94;  256,214;  225,608;  364,072;22,10392
 198,54;  264,581;  230,300;  376,969;23,37275
 199,14;  255,093;  205,914;  371,989;29,61263
 199,74;  238,380;  202,991;  371,028;21,06048
 200,34;  228,927;  185,529;  381,448;22,15084
 200,94;  266,410;  230,838;  425,835;18,24253
 201,54;  242,882;  210,991;  424,829;14,91353
 202,14;  280,985;  228,221;  464,972;22,28684
 202,74;  253,149;  209,452;  467,115;16,95880
 203,34;  255,290;  188,758;  473,666;23,35189
 203,94;  217,804;  173,913;  479,547;14,36071
 204,54;  298,299;  230,608;  560,734;20,50450
 205,14;  248,694;  194,529;  577,711;14,13569
 205,74;  293,408;  234,297;  662,667;13,79914
 206,34;  269,453;  194,990;  656,194;16,14546
 206,94;  285,927;  206,682;  723,812;15,32403
 207,54;  262,222;  180,990;  761,512;13,99295
 208,14;  275,601;  194,759;  845,961;12,41425
 208,74;  293,386;  208,529;  911,260;12,07534
 209,34;  291,059;  205,914;  978,815;11,01630
 209,94;  315,625;  213,375; 1077,076;11,83855
 210,54;  310,141;  203,989; 1184,084;10,83072
 211,14;  336,743;  215,606; 1280,692;11,37348
 211,73;  340,643;  202,914; 1388,013;11,62174
 212,33;  368,123;  218,530; 1506,797;11,61198
 212,93;  353,351;  198,914; 1587,260;11,12382
 213,53;  351,365;  178,298; 1618,606;12,01599
 214,13;  363,621;  200,450; 1689,169;10,96052
 214,73;  356,908;  178,451; 1740,510;11,42445
 215,33;  356,009;  160,837; 1762,383;12,18651
 215,93;  394,652;  204,605; 1872,417;11,39504
 216,53;  363,609;  159,606; 1926,444;11,54623
 217,13;  433,798;  214,605; 2158,920;11,27355
 217,73;  438,226;  190,528; 2304,263;11,71853
 218,33;  423,140;  152,219; 2518,725;11,44814
 218,93;  499,785;  182,832; 2769,091;12,25526
 219,53;  543,119;  193,450; 3043,686;12,26808
 220,13;  543,533;  158,449; 3363,047;12,01662
 220,73;  625,891;  180,221; 3703,613;12,64888
 221,32;  667,694;  184,529; 4093,106;12,36166
 221,92;  730,197;  183,065; 4469,423;12,76451
 222,52;  782,996;  183,066; 4860,098;12,82715
 223,12;  833,933;  181,835; 5272,367;12,81003
 223,72;  907,451;  191,912; 5711,636;12,96332
 224,32;  943,494;  191,681; 6080,154;12,76753
 224,92;  977,542;  176,296; 6396,211;12,88195
 225,52; 1048,676;  194,375; 6776,081;12,97994
 226,12; 1073,266;  184,066; 7115,680;12,82818
 226,72; 1103,825;  163,836; 7436,883;12,92429
 227,31; 1162,028;  150,836; 7843,941;13,14414
 227,91; 1229,227;  191,529; 8225,304;12,91670
 228,51; 1266,998;  176,068; 8674,641;12,83663
 229,11; 1347,902;  180,451; 9046,663;13,16741
 229,71; 1378,267;  178,683; 9391,280;13,02112
 230,31; 1441,342;  167,758; 9800,650;13,22120
 230,91; 1491,241;  165,146;10128,599;13,30959
 231,51; 1538,583;  167,066;10384,244;13,42364
 232,10; 1596,245;  162,988;10757,667;13,52808
 232,70; 1642,383;  186,608;11009,483;13,45091
 233,30; 1712,715;  196,066;11238,918;13,73421
 233,90; 1723,302;  171,374;11352,438;13,87997
 234,50; 1770,030;  174,451;11517,427;14,06668
 235,10; 1794,850;  156,450;11505,442;14,43652
 235,70; 1809,388;  193,760;11579,833;14,18951
 236,29; 1854,645;  192,068;11503,674;14,69797
 236,89; 1833,066;  152,992;11438,703;14,88674
 237,49; 1838,329;  180,913;11287,940;14,92224
 238,09; 1815,146;  180,451;10997,578;15,11209
 238,69; 1821,497;  202,146;10858,055;15,19674
 239,29; 1768,865;  166,682;10503,772;15,49936
 239,89; 1733,171;  180,915;10194,569;15,50140
 240,48; 1682,579;  154,451; 9754,405;15,91807
 241,08; 1641,823;  170,529; 9405,870;15,93113
 241,68; 1629,195;  194,836; 9140,318;16,03445
 242,28; 1578,253;  174,220; 8763,467;16,34640
 242,88; 1566,908;  208,065; 8530,515;16,32744
 243,48; 1525,504;  199,374; 8222,440;16,52897
 244,07; 1494,046;  185,452; 8005,746;16,73331
 244,67; 1475,175;  194,220; 7827,115;16,78202
 245,27; 1444,028;  201,683; 7655,244;16,66780
 245,87; 1461,781;  198,988; 7542,632;17,19573
 246,47; 1456,517;  191,299; 7517,879;17,26889
 247,06; 1449,313;  176,221; 7552,186;17,26000
 247,66; 1475,111;  173,067; 7597,404;17,53752
 248,26; 1518,630;  204,375; 7721,867;17,48262
 248,86; 1540,168;  196,068; 7946,032;17,34331
 249,46; 1556,988;  150,220; 8117,436;17,65696
 250,05; 1643,236;  205,605; 8529,406;17,27133
 250,65; 1672,747;  158,684; 8867,977;17,38446
 251,25; 1773,109;  180,529; 9300,687;17,46220
 251,85; 1839,822;  183,915; 9897,809;17,04678
 252,44; 1952,589;  143,760;10426,548;17,59084
 253,04; 2103,275;  193,837;11157,152;17,41662
 253,64; 2180,991;  144,299;11872,353;17,36598
 254,24; 2371,026;  199,990;12750,291;17,29868
 254,84; 2509,680;  178,374;13710,898;17,22743
 255,43; 2677,177;  177,606;14641,288;17,28170
 256,03; 2862,467;  173,068;15619,314;17,41134
 256,63; 3005,654;  187,607;16570,915;17,20072
 257,23; 3154,011;  165,530;17440,270;17,29971
 257,82; 3337,727;  185,685;18410,923;17,29493
 258,42; 3434,627;  140,301;19238,014;17,24985
 259,02; 3665,975;  195,529;20100,066;17,43545
 259,62; 3740,898;  164,301;20780,805;17,34822
 260,21; 3862,911;  185,760;21389,750;17,34179
 260,81; 3927,000;  179,297;21840,834;17,30119
 261,41; 4013,090;  165,070;22271,751;17,40659
 262,01; 4062,169;  205,071;22747,222;17,11061
 262,60; 4096,395;  153,146;23059,270;17,21483
 263,20; 4187,881;  175,530;23358,004;17,30769
 263,80; 4223,176;  188,609;23556,520;17,26542
 264,40; 4246,219;  157,224;23717,182;17,35570
 264,99; 4291,623;  188,609;23856,252;17,33596
 265,59; 4301,226;  163,226;24016,091;17,34802
 266,19; 4299,925;  174,224;24242,712;17,14150
 266,78; 4362,921;  208,533;24397,709;17,17458
 267,38; 4344,031;  179,149;24300,377;17,26646
 267,98; 4368,264;  173,764;24345,555;17,35288
 268,58; 4365,388;  178,072;24350,973;17,32236
 269,17; 4342,272;  172,919;24355,377;17,24123
 269,77; 4316,869;  194,454;24203,591;17,17019
 270,37; 4273,630;  161,455;24082,628;17,19052
 270,96; 4274,790;  221,993;24011,182;17,03630
 271,56; 4184,087;  169,607;23734,204;17,03606
 272,16; 4182,320;  176,301;23539,069;17,14702
 272,75; 4119,216;  176,916;23407,117;16,97058
 273,35; 4174,203;  184,069;23453,806;17,14731
 273,95; 4116,964;  184,839;23409,924;16,93051
 274,54; 4124,551;  164,144;23390,628;17,05125
 275,14; 4240,686;  201,916;23686,758;17,19735
 275,74; 4150,747;  154,454;23785,213;16,91140
 276,33; 4282,212;  203,223;24173,832;17,01663
 276,93; 4365,202;  186,451;24621,375;17,10155
 277,53; 4414,316;  189,606;25047,943;16,99514
 278,12; 4488,403;  166,145;25551,471;17,02660
 278,72; 4671,211;  213,529;26164,319;17,17744
 279,32; 4759,951;  179,453;26731,464;17,25104
 279,91; 4878,915;  159,760;27416,178;17,31392
 280,51; 5082,645;  171,452;27950,740;17,67933
 281,11; 5171,272;  179,991;28722,006;17,48749
 281,70; 5296,893;  161,530;29076,084;17,76048
 282,30; 5402,933;  172,992;29653,281;17,74047
 282,90; 5571,814;  175,453;30050,521;18,06309
 283,49; 5764,490;  201,377;30707,229;18,23621
 284,09; 5919,138;  206,761;31099,989;18,49071
 284,69; 6030,161;  199,299;31383,821;18,69794
 285,28; 6216,312;  196,684;31825,797;19,03192
 285,88; 6341,278;  220,762;32019,926;19,24741
 286,47; 6451,912;  181,223;32128,176;19,62844
 287,07; 6581,126;  214,837;32257,888;19,86792
 287,67; 6747,658;  200,143;32393,594;20,33803
 288,26; 6914,350;  177,683;32269,677;20,99174
 288,86; 7116,795;  180,684;32334,209;21,57185
 289,46; 7332,643;  193,376;32530,562;22,07758
 290,05; 7561,591;  170,375;32505,111;22,85844
 290,65; 7835,226;  184,223;32648,485;23,56746
 291,24; 8140,784;  193,068;32961,560;24,25414
 291,84; 8408,423;  197,530;33029,454;25,00887
 292,44; 8688,267;  183,220;33101,900;25,83654
 293,03; 9053,078;  239,145;33291,127;26,66688
 293,63; 9298,863;  183,300;33470,733;27,38440
 294,22; 9557,747;  192,991;33683,054;27,96279
 294,82; 9737,471;  174,532;33575,594;28,63064
 295,41; 9859,278;  161,376;33298,468;29,26600
 296,01;10032,669;  224,685;33327,004;29,62930
 296,61;10093,175;  193,683;32993,397;30,18164
 297,20;10113,236;  195,301;32730,397;30,48381
 297,80;10194,998;  193,682;32568,733;30,89205
 298,39;10198,745;  170,992;32250,732;31,25883
 298,99;10279,279;  197,839;32006,740;31,69377
 299,58;10266,580;  196,528;31893,076;31,77018
 300,18;10284,641;  210,606;31673,312;32,01897
 300,78;10213,589;  177,375;31300,769;32,24653
 301,37;10273,993;  187,532;31326,148;32,39213
 301,97;10339,538;  195,068;31357,466;32,55356
 302,56;10321,988;  183,530;31272,571;32,61104
 303,16;10340,554;  169,761;31119,621;32,86216
 303,75;10369,422;  177,067;31117,546;32,94182
 304,35;10454,017;  173,066;31521,511;32,79573
 304,94;10463,713;  183,299;31356,572;32,97830
 305,54;10568,156;  206,529;31336,491;33,28506
 306,13;10448,451;  163,912;31367,636;32,95933
 306,73;10411,225;  175,143;31149,833;33,04660
 307,33;10397,056;  194,374;31011,498;33,10718
 307,92;10385,029;  186,914;31149,531;32,93686
 308,52;10478,735;  169,608;31623,266;32,77561
 309,11;10715,011;  181,070;32031,332;33,07333
 309,71;10749,799;  162,840;32261,962;32,98208
 310,30;10867,595;  169,145;32596,483;32,99207
 310,90;10950,672;  201,606;32942,868;32,83033
 311,49;10963,287;  185,299;33078,879;32,76624
 312,09;11036,361;  150,529;33147,793;32,99011
 312,68;11183,365;  223,760;33564,913;32,87111
 313,28;11175,490;  162,837;33776,608;32,76233
 313,87;11152,252;  155,683;33948,023;32,54160
 314,47;11256,788;  167,916;34121,906;32,65852
 315,06;11252,714;  166,914;34277,617;32,49948
 315,66;11267,284;  174,606;34487,947;32,32760
 316,25;11179,631;  146,223;34415,457;32,19625
 316,85;11144,816;  148,452;34577,725;31,93900
 317,44;11173,844;  178,455;34696,120;31,85438
 318,04;11061,842;  156,300;34691,771;31,57780
 318,63;11024,470;  148,835;34867,727;31,32483
 319,22;11046,310;  184,069;35016,168;31,18457
 319,82;11010,613;  173,838;34976,663;31,13763
 320,41;10946,744;  188,146;34860,446;31,02937
 321,01;10849,227;  191,144;35028,765;30,59360
 321,60;10803,403;  176,299;35146,306;30,38920
 322,20;10755,435;  155,606;35103,713;30,33019
 322,79;10720,036;  210,529;35170,511;30,06153
 323,39;10606,408;  169,374;35258,974;29,74395
 323,98;10585,617;  159,606;34983,952;29,93886
 324,58;10431,518;  164,454;34968,930;29,49926
 325,17;10404,051;  178,607;34806,918;29,52914
 325,76;10266,322;  190,606;34590,812;29,28969
 326,36;10052,185;  157,836;34290,160;28,98821
 326,95; 9970,530;  191,914;33891,046;29,01741
 327,55; 9783,298;  156,453;33609,990;28,77676
 328,14; 9608,411;  168,374;33306,357;28,48706
 328,74; 9477,855;  204,146;32801,533;28,44924
 329,33; 9308,486;  185,067;32458,102;28,26948
 329,92; 9084,263;  160,301;31882,668;28,13145
 330,52; 8879,705;  172,451;31214,683;28,04970
 331,11; 8718,494;  176,376;30849,970;27,84844
 331,71; 8494,761;  169,607;30282,948;27,64607
 332,30; 8323,713;  186,683;29783,956;27,49250
 332,89; 8169,101;  225,837;29357,728;27,26656
 333,49; 7949,621;  185,914;28709,171;27,21886
 334,08; 7798,592;  176,299;28312,711;27,09049
 334,68; 7631,480;  182,915;27909,086;26,86475
 335,27; 7547,427;  184,528;27528,220;26,92723
 335,86; 7459,264;  223,838;27324,046;26,69878
 336,46; 7308,140;  190,759;27025,094;26,52341
 337,05; 7190,928;  172,607;26773,720;26,38356
 337,65; 7143,802;  161,915;26639,826;26,36872
 338,24; 7128,421;  224,298;26590,654;26,18535
 338,83; 7089,890;  208,068;26462,711;26,21183
 339,43; 7021,806;  177,069;26457,101;26,04539
 340,02; 6965,428;  178,531;26386,871;25,89594
 340,61; 6956,162;  173,837;26369,338;25,89118
 341,21; 6957,779;  203,607;26349,533;25,83260
 341,80; 6943,487;  179,915;26375,384;25,81962
 342,40; 6900,636;  171,682;26432,125;25,62392
 342,99; 6951,332;  182,067;26467,113;25,75329
 343,58; 6958,563;  175,990;26717,718;25,55437
 344,18; 6991,437;  190,836;26808,342;25,54936
 344,77; 6999,540;  162,992;27092,035;25,38726
 345,36; 7063,837;  157,453;27385,200;25,36524
 345,96; 7179,129;  203,606;27672,891;25,39390
 346,55; 7197,199;  164,143;27940,079;25,32068
 347,14; 7291,216;  155,297;28302,500;25,35214
 347,74; 7329,316;  140,142;28698,886;25,17329
 348,33; 7545,944;  175,526;29329,262;25,28121
 348,92; 7681,619;  185,218;29983,524;25,15714
 349,52; 7782,030;  147,526;30445,585;25,19800
 350,11; 7825,819;  173,454;30582,180;25,16503
 350,70; 7849,427;  173,452;30809,809;25,05512
 351,29; 7791,047;  148,764;30507,921;25,17291
 351,89; 7812,535;  174,685;30478,746;25,20405
 352,48; 7731,078;  155,299;30497,665;24,96766
 353,07; 7796,049;  182,066;30396,277;25,20001
 353,67; 7766,047;  191,756;30353,888;25,11192
 354,26; 7676,923;  170,990;30103,932;25,07583
 354,85; 7651,858;  185,067;29973,792;25,06583
 355,45; 7598,276;  155,684;29816,742;25,09213
 356,04; 7568,385;  174,759;29768,055;24,98413
 356,63; 7554,320;  201,145;29409,997;25,17447
 357,22; 7561,511;  175,917;29375,176;25,29377
 357,82; 7485,541;  193,224;29208,614;25,13258
 358,41; 7456,055;  201,760;29108,120;25,09584
 359,00; 7420,436;  158,300;28913,918;25,25467
 359,60; 7407,176;  180,221;28724,683;25,31824
 360,19; 7405,470;  176,605;28638,178;25,39869
 360,78; 7353,620;  190,222;28497,576;25,30578
 361,37; 7307,291;  174,761;28242,538;25,41181
 361,97; 7292,733;  186,530;28190,006;25,37615
 362,56; 7247,287;  169,531;27892,787;25,53003
 363,15; 7242,878;  213,453;27606,375;25,66146
 363,74; 7145,628;  174,685;27373,531;25,62955
 364,34; 7085,288;  195,992;26912,293;25,78686
 364,93; 6964,538;  163,069;26430,374;25,89329
 365,52; 6863,110;  149,376;26172,508;25,79910
 366,11; 6839,373;  171,146;25882,043;25,93541
 366,71; 6777,387;  163,377;25437,168;26,16944
 367,30; 6728,963;  170,607;25110,181;26,29699
 367,89; 6672,480;  198,990;24925,860;26,17998
 368,48; 6643,048;  198,224;24640,300;26,36774
 369,07; 6538,197;  179,760;24120,963;26,55855
 369,67; 6475,069;  203,454;23868,702;26,50137
 370,26; 6429,463;  171,452;23599,578;26,71153
 370,85; 6350,019;  179,530;23323,075;26,66181
 371,44; 6359,880;  176,145;23107,871;26,96585
 372,03; 6264,149;  152,223;22932,418;26,83000
 372,63; 6238,831;  152,684;22571,978;27,14692
 373,22; 6182,042;  166,376;22343,589;27,12544
 373,81; 6130,082;  148,376;22009,643;27,36212
 374,40; 6103,964;  165,913;21699,790;27,57539
 374,99; 6057,962;  169,761;21518,751;27,58070
 375,59; 6008,243;  162,528;21175,243;27,81989
 376,18; 6027,242;  193,761;21119,644;27,87687
 376,77; 6004,741;  186,299;20977,832;27,98467
 377,36; 6025,054;  195,838;20847,778;28,22600
 377,95; 5971,960;  181,146;20525,705;28,46370
 378,55; 5946,227;  157,913;20341,534;28,67827
 379,14; 5979,193;  185,299;20317,114;28,77979
 379,73; 5992,765;  175,684;20230,320;29,00616
 380,32; 6059,593;  185,991;20308,823;29,18875
 380,91; 6008,356;  175,685;20112,135;29,25632
 381,50; 6054,728;  189,915;20145,055;29,38998
 382,10; 6071,978;  166,530;19978,130;29,80803
 382,69; 6058,690;  153,376;19923,509;29,86987
 383,28; 6113,596;  190,761;19875,842;30,08793
 383,87; 6070,568;  170,377;19769,746;30,10398
 384,46; 6107,206;  162,070;19724,738;30,39021
 385,05; 6187,406;  193,223;19732,931;30,67693
 385,64; 6208,296;  178,069;19695,581;30,89649
 386,24; 6190,786;  149,609;19626,893;31,01653
 386,83; 6298,442;  192,455;19630,827;31,41203
 387,42; 6399,716;  188,761;19800,427;31,66969
 388,01; 6463,843;  187,379;19979,741;31,71155
 388,60; 6599,857;  175,378;20220,112;32,05071
 389,19; 6699,956;  156,457;20416,341;32,29781
 389,78; 6809,153;  165,765;20729,299;32,30665
 390,37; 7018,825;  222,994;21142,177;32,48612
 390,96; 7106,380;  180,763;21286,326;32,81418
 391,56; 7182,010;  176,227;21344,508;33,09566
 392,15; 7335,007;  160,072;21679,720;33,34132
 392,74; 7389,561;  151,460;21795,507;33,44153
 393,33; 7594,176;  166,227;22126,116;33,82508
 393,92; 7821,654;  173,461;22513,333;34,23562
 394,51; 7870,771;  149,304;22716,088;34,21607
 395,10; 8044,565;  192,848;22911,234;34,56107
 395,69; 8113,672;  176,924;23003,980;34,76904
 396,28; 8247,840;  185,464;23176,013;35,06822
 396,87; 8319,500;  192,620;23343,392;35,10414
 397,46; 8407,758;  181,314;23335,340;35,52922
 398,06; 8502,141;  189,701;23615,542;35,48406
 398,65; 8595,126;  177,244;23677,260;35,82075
 399,24; 8722,737;  188,014;23858,432;36,05649
 399,83; 8750,040;  164,329;23835,982;36,27001
 400,42; 8849,731;  201,796;23985,677;36,36049
 401,01; 8965,816;  182,573;24029,218;36,83220
 401,60; 9040,456;  177,275;24210,515;36,87885
 402,19; 9064,161;  196,513;24101,561;37,09529
 402,78; 9126,616;  200,602;24087,601;37,36767
 403,37; 9153,731;  187,228;23877,105;37,84951
 403,96; 9153,123;  182,241;23721,090;38,11096
 404,55; 9146,215;  167,487;23720,600;38,12119
 405,14; 9175,984;  167,808;23513,307;38,58635
 405,73; 9206,169;  183,285;23436,720;38,80237
 406,32; 9245,127;  190,910;23384,544;39,03751
 406,91; 9184,195;  180,307;23126,231;39,23960
 407,50; 9167,935;  178,159;22981,523;39,42303
 408,09; 9131,320;  155,241;22707,575;39,80111
 408,68; 9091,355;  181,013;22565,971;39,80504
 409,27; 9081,534;  175,086;22354,826;40,15578
 409,86; 9077,376;  170,231;22237,205;40,36415
 410,45; 9133,120;  200,684;22171,617;40,65570
 411,04; 9139,557;  197,445;22092,777;40,84027
 411,63; 9094,999;  175,204;21749,606;41,34434
 412,22; 9023,778;  201,425;21608,780;41,21178
 412,81; 8973,046;  192,883;21395,680;41,41040
 413,40; 8856,437;  204,187;21034,618;41,53659
 413,99; 8812,612;  234,803;20717,708;41,87789
 414,58; 8631,001;  160,726;20274,844;42,11110
 415,17; 8654,179;  175,114;20101,949;42,55099
 415,76; 8545,294;  169,195;19974,707;42,29176
 416,35; 8548,862;  159,116;19776,073;42,76783
 416,94; 8580,151;  199,502;19821,526;42,71042
 417,53; 8755,180;  172,960;20056,994;43,16136
 418,12; 8809,107;  166,036;20023,822;43,52485
 418,71; 9063,787;  190,494;20445,675;43,80752
 419,30; 9056,654;  177,189;20578,386;43,52424
 419,89; 9215,336;  176,573;20770,792;43,88981
 420,48; 9343,627;  195,110;21032,068;43,90524
 421,07; 9431,036;  185,340;21040,253;44,33342
 421,66; 9442,402;  165,876;21069,935;44,37667
 422,25; 9434,084;  172,718;21036,735;44,38918
 422,84; 9479,808;  208,487;21049,362;44,48624
 423,43; 9381,416;  171,489;20839,926;44,56034
 424,02; 9310,902;  206,026;20496,880;44,87182
 424,60; 9137,552;  165,714;20092,893;45,02312
 425,19; 9041,269;  185,793;19869,157;44,98964
 425,78; 9030,431;  196,485;19774,962;45,12070
 426,37; 9033,131;  189,715;19661,859;45,41573
 426,96; 8999,571;  189,638;19529,359;45,55357
 427,55; 8963,821;  179,020;19339,603;45,84830
 428,14; 8881,092;  167,788;19155,101;45,89014
 428,73; 8841,068;  186,021;19002,055;45,99826
 429,32; 8877,032;  191,715;18977,775;46,23277
 429,91; 8886,649;  212,482;18966,112;46,25327
 430,50; 8875,921;  195,711;18786,512;46,69089
 431,08; 8809,088;  200,864;18610,124;46,76030
 431,67; 8813,975;  233,863;18580,766;46,76600
 432,26; 8762,813;  230,939;18330,206;47,13933
 432,85; 8665,916;  244,016;18032,499;47,34468
 433,44; 8529,400;  259,014;17649,895;47,55588
 434,03; 8340,943;  264,704;17299,958;47,40897
 434,62; 8183,918;  220,476;16897,307;47,75153
 435,21; 8104,791;  235,708;16746,958;47,65892
 435,79; 8010,463;  230,782;16568,544;47,61779
 436,38; 7975,907;  224,164;16412,732;47,88406
 436,97; 7939,196;  220,472;16329,431;47,91572
 437,56; 7905,184;  235,930;16162,416;48,15409
 438,15; 7891,138;  218,700;16037,367;48,50243
 438,74; 7920,930;  235,776;16092,672;48,46569
 439,33; 7907,494;  219,777;16171,359;48,19407
 439,91; 7965,823;  187,314;16238,238;48,46144
 440,50; 8004,075;  236,006;16217,333;48,60716
 441,09; 7984,113;  220,312;16301,833;48,27778
 441,68; 8027,430;  214,310;16343,764;48,44008
 442,27; 8042,992;  196,464;16282,263;48,77922
 442,86; 8025,230;  183,537;16344,663;48,52195
 443,44; 8078,365;  185,307;16399,787;48,67907
 444,03; 8171,755;  234,768;16429,527;49,00960
 444,62; 8032,971;  186,844;16264,941;48,80010
 445,21; 8000,283;  202,230;16176,369;48,81674
 445,80; 7962,239;  225,535;15999,528;49,04721
 446,39; 7881,041;  250,920;15821,042;49,00489
 446,97; 7754,564;  183,225;15554,035;49,25791
 447,56; 7676,301;  181,761;15307,592;49,54795
 448,15; 7624,802;  185,994;15168,718;49,64923
 448,74; 7516,747;  195,686;14965,263;49,56852
 449,33; 7443,327;  191,608;14784,807;49,69246
 449,91; 7316,303;  191,298;14588,544;49,48867
 450,50; 7203,623;  181,375;14406,952;49,36353
 451,09; 7178,302;  191,837;14299,949;49,52091
 451,68; 7189,062;  209,682;14214,719;49,83479
 452,26; 7109,396;  197,604;14109,488;49,68265
 452,85; 7067,477;  182,989;14003,849;49,81229
 453,44; 7110,289;  201,832;14047,530;49,89605
 454,03; 7063,000;  183,680;13933,596;50,03172
 454,61; 7010,332;  175,370;13940,884;49,65279
 455,20; 7140,924;  205,139;14121,979;49,83736
 455,79; 7087,873;  204,679;14106,344;49,51345
 456,38; 7204,631;  204,752;14172,857;50,11331
 456,97; 7266,573;  183,445;14221,795;50,45556
 457,55; 7256,306;  187,213;14341,041;49,94475
 458,14; 7259,144;  207,599;14274,847;50,12740
 458,73; 7192,734;  197,751;14154,010;50,12076
 459,31; 7257,226;  215,519;14203,915;50,33963
 459,90; 7278,493;  226,750;14306,406;50,08463
 460,49; 7373,169;  273,366;14411,806;50,21631
 461,08; 7352,650;  191,133;14403,434;50,38956
 461,66; 7345,778;  192,365;14554,358;49,80794
 462,25; 7419,010;  188,517;14600,243;50,17090
 462,84; 7467,308;  218,133;14695,403;50,07280
 463,43; 7409,901;  161,130;14551,405;50,37271
 464,01; 7419,745;  195,821;14623,012;50,07159
 464,60; 7454,059;  229,977;14589,624;50,30821
 465,19; 7273,090;  165,359;14358,804;50,07756
 465,77; 7286,347;  190,281;14302,727;50,28232
 466,36; 7213,454;  206,669;14272,145;49,81548
 466,95; 7056,616;  182,899;13880,028;50,18363
 467,53; 6922,121;  179,819;13600,061;50,23980
 468,12; 6822,738;  212,434;13372,184;50,23123
 468,71; 6683,777;  196,898;13136,177;50,13323
 469,29; 6535,236;  176,972;12847,700;50,18073
 469,88; 6445,506;  179,894;12587,461;50,49831
 470,47; 6557,682;  239,969;12708,011;50,67125
 471,06; 6469,605;  196,585;12693,693;50,19578
 471,64; 6497,715;  203,278;12803,602;49,95456
 472,23; 6556,417;  165,274;12796,077;50,59966
 472,81; 6573,982;  172,430;12890,420;50,33462
 473,40; 6664,990;  179,197;13041,307;50,42558
 473,99; 6789,095;  265,197;13223,941;50,34360
 474,57; 6799,682;  172,889;13406,317;50,07616
 475,16; 6890,264;  187,660;13512,513;50,30152
 475,75; 6957,877;  200,888;13632,333;50,30724
 476,33; 6997,430;  219,733;13698,089;50,28578
 476,92; 7044,034;  211,812;13770,265;50,39087
 477,51; 7027,266;  201,272;13807,479;50,16823
 478,09; 7081,706;  193,810;13841,364;50,46982
 478,68; 6990,436;  204,964;13846,695;49,74055
 479,27; 7054,095;  216,888;13833,967;50,21052
 479,85; 7025,219;  204,195;13767,446;50,29048
 480,44; 7061,390;  163,425;13890,035;50,25250
 481,02; 7705,634;  199,193;15348,965;49,54821
 481,61; 8733,547;  219,270;17381,884;49,60944
 482,20; 9311,396;  201,346;18466,821;49,87579
 482,78; 9741,892;  225,040;19260,365;49,99574
 483,37;10071,922;  221,575;19787,966;50,34320
 483,95;10179,896;  238,421;20101,597;50,04978
 484,54;10272,120;  253,270;20269,915;50,05259
 485,13;10219,596;  215,035;20216,120;50,02009
 485,71;10033,328;  190,959;20019,097;49,63839
 486,30; 9974,230;  226,420;19680,289;50,10731
 486,88; 9812,966;  268,420;19317,698;50,10450
 487,47; 9429,087;  232,958;18612,877;50,03357
 488,05; 8978,426;  227,419;17775,668;49,86826
 488,64; 8309,467;  227,263;16521,135;49,60272
 489,23; 7429,260;  242,418;14695,116;49,72664
 489,81; 6382,409;  230,033;12503,314;50,12821
 490,40; 6020,732;  203,648;11907,484;49,70237
 490,98; 5886,637;  173,955;11627,382;49,87749
 491,57; 5835,722;  215,187;11548,864;49,59145
 492,15; 5832,645;  189,647;11515,648;49,82339
 492,74; 5775,636;  199,957;11363,542;49,94524
 493,32; 5763,979;  218,340;11287,171;50,10139
 493,91; 5689,089;  195,570;11139,766;50,19573
 494,50; 5673,562;  207,721;11189,107;49,77369
 495,08; 5612,289;  183,798;11094,897;49,75201
 495,67; 5615,200;  208,339;11096,644;49,65751
 496,25; 5528,871;  170,184;10988,928;49,53151
 496,84; 5525,325;  167,724;10969,404;49,59970
 497,42; 5473,824;  162,107;10888,278;49,52109
 498,01; 5491,998;  198,262;10888,488;49,51940
 498,59; 5378,175;  171,183;10805,786;48,96273
 499,18; 5397,572;  163,647;10772,169;49,33699
 499,76; 5345,249;  200,338;10714,168;48,93470
 500,35; 5255,894;  190,951;10529,303;48,99178
 500,93; 5264,208;  178,260;10438,289;49,57050
 501,52; 5169,336;  177,337;10374,623;48,95419
 502,10; 5151,290;  191,489;10378,023;48,68978
 502,69; 5083,693;  182,180;10226,592;48,79841
 503,27; 4946,563;  170,567;10017,943;48,50019
 503,86; 4934,090;  175,719; 9986,836;48,49979
 504,44; 4870,360;  162,410; 9862,597;48,53463
 505,03; 4752,143;  149,257; 9629,414;48,55285
 505,61; 4695,029;  163,718; 9546,523;48,29378
 506,19; 4625,171;  182,257; 9366,059;48,37772
 506,78; 4508,403;  152,716; 9184,790;48,22466
 507,36; 4429,995;  167,795; 9072,185;47,86628
 507,95; 4372,722;  168,408; 8850,302;48,42623
 508,53; 4304,857;  164,332; 8761,887;48,15934
 509,12; 4214,567;  177,870; 8629,949;47,75981
 509,70; 4153,729;  180,715; 8488,348;47,82366
 510,29; 4072,727;  188,407; 8328,108;47,72067
 510,87; 3959,599;  164,409; 8144,099;47,56062
 511,46; 3901,153;  159,485; 7966,028;47,92990
 512,04; 3805,710;  180,638; 7824,201;47,42647
 512,62; 3724,286;  172,716; 7724,681;47,02842
 513,21; 3642,650;  158,868; 7536,098;47,22345
 513,79; 3561,440;  166,942; 7407,618;46,88096
 514,38; 3497,407;  144,405; 7251,704;47,17689
 514,96; 3445,665;  194,866; 7217,206;46,29225
 515,54; 3360,277;  155,481; 7062,844;46,39680
 516,13; 3351,138;  179,096; 6917,948;47,07095
 516,71; 3272,647;  174,403; 6831,734;46,53883
 517,30; 3222,225;  155,325; 6691,551;46,92158
 517,88; 3154,176;  185,787; 6621,965;46,12037
 518,46; 3119,941;  153,401; 6497,999;46,75694
 519,05; 3096,952;  160,478; 6477,664;46,48389
 519,63; 3049,649;  181,324; 6415,620;46,00880
 520,22; 3029,224;  182,092; 6337,987;46,25049
 520,80; 2958,413;  174,476; 6226,822;45,99765
 521,38; 2988,358;  195,631; 6241,450;46,19269
 521,97; 2906,039;  160,552; 6210,102;45,38333
 522,55; 2930,767;  182,475; 6213,881;45,56635
 523,13; 2888,420;  165,167; 6207,817;45,06720
 523,72; 2881,814;  162,709; 6145,874;45,44593
 524,30; 2922,717;  183,705; 6308,377;44,72097
 524,89; 2938,537;  154,244; 6317,937;45,17247
 525,47; 2998,062;  171,550; 6418,422;45,24683
 526,05; 2988,475;  147,089; 6489,573;44,79927
 526,64; 3057,289;  186,934; 6620,203;44,61736
 527,22; 3134,761;  175,397; 6752,643;44,99397
 527,80; 3201,967;  215,242; 6874,935;44,84778
 528,39; 3185,340;  171,472; 6963,659;44,37258
 528,97; 3233,765;  179,626; 7137,153;43,89691
 529,55; 3359,294;  181,090; 7292,452;44,69192
 530,14; 3426,622;  202,626; 7473,664;44,34025
 530,72; 3436,591;  171,780; 7625,729;43,79974
 531,30; 3465,274;  148,856; 7738,499;43,69662
 531,89; 3522,861;  177,010; 7827,403;43,73437
 532,47; 3604,408;  206,625; 7946,187;43,90150
 533,05; 3572,526;  203,319; 7993,435;43,24977
 533,63; 3612,633;  191,240; 8016,483;43,72252
 534,22; 3568,291;  166,163; 8045,473;43,17799
 534,80; 3617,870;  196,931; 8129,191;43,12691
 535,38; 3696,659;  268,010; 8276,247;42,81403
 535,97; 3589,031;  173,240; 8124,860;42,95717
 536,55; 3684,458;  215,546; 8278,382;43,02347
 537,13; 3618,336;  207,087; 8215,154;42,59766
 537,71; 3635,223;  246,164; 8231,165;42,44282
 538,30; 3632,775;  248,086; 8351,459;41,76890
 538,88; 3671,407;  273,084; 8422,315;41,70115
 539,46; 3772,443;  308,700; 8568,663;41,93412
 540,05; 3821,118;  308,623; 8699,627;41,86025
 540,63; 3855,139;  343,546; 8864,809;41,20978
 541,21; 3953,115;  351,007; 8970,782;41,78889
 541,79; 3969,087;  381,007; 9119,533;41,06047
 542,38; 4011,852;  400,161; 9275,331;40,69432
 542,96; 4091,469;  394,236; 9398,667;41,06015
 543,54; 4135,401;  420,776; 9606,688;40,43828
 544,12; 4172,067;  391,622; 9719,703;40,52757
 544,70; 4213,715;  380,082; 9848,243;40,48972
 545,29; 4306,229;  399,008;10022,801;40,59960
 545,87; 4257,010;  374,776;10086,994;39,97268
 546,45; 4247,571;  348,854;10109,053;39,94506
 547,03; 4226,903;  339,084;10206,710;39,39974
 547,62; 4310,465;  315,007;10346,147;39,83055
 548,20; 4351,909;  330,006;10512,803;39,49704
 548,78; 4392,522;  295,542;10627,019;39,65532
 549,36; 4423,514;  275,542;10914,598;38,98816
 549,94; 4482,075;  264,314;11046,201;39,11895
 550,53; 4572,547;  269,081;11255,266;39,17162
 551,11; 4623,448;  234,849;11460,197;39,09544
 551,69; 4709,940;  240,004;11797,137;38,67686
 552,27; 4779,894;  212,543;12027,242;38,65821
 552,85; 4919,392;  222,695;12402,005;38,56291
 553,44; 5060,563;  225,388;12707,128;38,73798
 554,02; 5152,837;  232,926;13119,768;38,17779
 554,60; 5253,469;  193,772;13422,753;38,24707
 555,18; 5380,255;  223,542;13805,579;37,96716
 555,76; 5512,467;  206,619;14182,816;37,96346
 556,34; 5639,278;  211,002;14557,042;37,83815
 556,93; 5767,011;  205,311;14950,136;37,71967
 557,51; 5855,362;  192,156;15311,022;37,45788
 558,09; 5987,200;  212,850;15734,992;37,20073
 558,67; 6109,520;  210,693;16082,476;37,16549
 559,25; 6214,636;  223,848;16371,596;37,09984
 559,83; 6253,208;  205,308;16683,960;36,70142
 560,41; 6387,158;  205,771;17055,006;36,68645
 561,00; 6498,009;  208,539;17343,264;36,70599
 561,58; 6545,556;  198,464;17668,680;36,33093
 562,16; 6665,028;  185,157;18011,648;36,34967
 562,74; 6737,572;  167,234;18288,528;36,25755
 563,32; 6884,536;  174,923;18759,153;36,10380
 563,90; 6986,380;  207,309;19120,524;35,84304
 564,48; 7127,037;  204,772;19511,356;35,85443
 565,06; 7307,127;  188,232;20160,583;35,64375
 565,65; 7501,563;  204,153;20836,746;35,36836
 566,23; 7775,282;  250,770;21605,331;35,23609
 566,81; 7932,503;  195,001;22249,173;35,08407
 567,39; 8229,286;  205,077;23136,467;34,99225
 567,97; 8413,623;  222,924;23837,757;34,68455
 568,55; 8682,040;  234,770;24603,461;34,66444
 569,13; 8866,212;  195,539;25332,542;34,49366
 569,71; 9235,126;  195,311;26288,841;34,64390
 570,29; 9505,787;  230,004;27237,665;34,34501
 570,87; 9671,978;  228,157;28016,084;33,98534
 571,45; 9863,254;  222,924;28595,630;33,97748
 572,03; 9909,784;  180,307;29118,291;33,62182
 572,61;10156,123;  171,539;29768,913;33,73470
 573,20;10333,321;  212,155;30457,944;33,46306
 573,78;10528,858;  194,693;31102,278;33,43569
 574,36;10562,878;  197,001;31598,733;33,01053
 574,94;10694,666;  251,538;31941,039;32,95454
 575,52;10708,359;  186,690;32172,417;32,89489
 576,10;10920,272;  249,537;32753,885;32,82864
 576,68;11006,819;  222,307;33359,301;32,54523
 577,26;11226,810;  242,920;34034,218;32,50508
 577,84;11252,752;  240,847;34439,972;32,19938
 578,42;11291,046;  277,153;34750,082;31,94940
 579,00;11318,718;  227,846;34942,556;31,94862
 579,58;11305,890;  257,538;35231,125;31,59056
 580,16;11248,425;  239,076;35261,609;31,43505
 580,74;11295,698;  233,229;35397,512;31,45939
 581,32;11229,276;  234,076;35482,642;31,19333
 581,90;11188,662;  240,307;35369,754;31,16575
 582,48;11208,670;  242,230;35585,042;31,02877
 583,06;11192,527;  244,307;35773,307;30,81488
 583,64;11151,254;  240,923;35789,173;30,69161
 584,22;11058,389;  251,459;35758,020;30,43643
 584,80;10963,515;  261,537;35487,370;30,38105
 585,38;10817,613;  260,617;35102,456;30,29977
 585,96;10761,405;  224,154;35305,083;30,03698
 586,54;10741,555;  251,921;35185,484;30,02738
 587,12;10749,105;  221,768;35412,288;29,91526
 587,70;10771,063;  257,846;35489,986;29,83985
 588,28;10771,280;  242,306;35598,019;29,78012
 588,86;10767,106;  243,460;35696,487;29,68335
 589,44;10667,450;  219,843;35803,711;29,36052
 590,02;10722,916;  234,843;36051,052;29,28304
 590,59;10717,793;  220,075;36245,321;29,13989
 591,17;10717,947;  223,764;36479,320;28,94503
 591,75;10680,243;  213,227;36521,830;28,82792
 592,33;10732,346;  238,535;36839,517;28,67085
 592,91;10672,596;  193,918;37044,756;28,43538
 593,49;10772,627;  206,764;37432,306;28,38337
 594,07;10709,096;  212,841;37568,143;28,09843
 594,65;10740,409;  224,459;37618,762;28,12180
 595,23;10760,280;  217,612;38120,562;27,81490
 595,81;10788,002;  221,612;38259,539;27,77856
 596,39;10750,939;  209,996;38308,269;27,66777
 596,97;10809,491;  206,149;38540,276;27,66032
 597,55;10650,054;  211,074;38368,431;27,35771
 598,12;10640,503;  184,302;38453,822;27,32253
 598,70;10567,520;  195,149;38552,494;27,04142
 599,28;10592,177;  214,995;38744,330;26,93320
 599,86;10553,687;  204,841;38706,937;26,87866
 600,44;10535,466;  172,610;38933,337;26,73545
 601,02;10545,027;  227,608;38927,712;26,65993
 601,60;10450,544;  209,688;38862,685;26,49434
 602,18;10379,873;  178,610;38870,938;26,36508
 602,75;10331,959;  189,920;39007,867;26,12719
 603,33;10299,513;  201,687;38987,272;26,03500
 603,91;10199,339;  188,840;39040,469;25,76597
 604,49;10151,409;  208,226;39087,397;25,57458
 605,07;10150,264;  215,996;39057,561;25,57638
 605,65;10086,837;  225,533;39172,729;25,31968
 606,23;10042,253;  264,306;39339,727;25,02327
 606,80;10014,777;  285,074;39292,079;24,94348
 607,38; 9892,393;  300,686;39398,846;24,53238
 607,96; 9851,169;  337,612;39460,608;24,31705
 608,54; 9844,809;  389,225;39519,710;24,16424
 609,12; 9791,819;  377,689;39488,530;24,07039
 609,70; 9709,806;  406,226;39536,322;23,77602
 610,27; 9635,224;  399,458;39596,436;23,56244
 610,85; 9612,896;  415,995;39673,996;23,42682
 611,43; 9558,044;  418,226;39607,677;23,32214
 612,01; 9426,445;  389,150;39405,678;23,16273
 612,59; 9357,330;  400,072;39457,428;22,93360
 613,16; 9291,417;  365,767;39440,885;22,84229
 613,74; 9195,863;  354,149;39277,032;22,71598
 614,32; 9153,229;  334,533;39289,863;22,63797
 614,90; 9113,496;  313,842;39167,606;22,64814
 615,48; 8953,222;  264,151;38815,633;22,53888
 616,05; 8866,800;  257,844;38842,752;22,31172
 616,63; 8744,609;  267,460;38596,795;22,11661
 617,21; 8726,748;  266,458;38494,004;22,13140
 617,79; 8622,765;  245,073;38478,384;21,91202
 618,36; 8556,928;  268,996;38341,157;21,76901
 618,94; 8429,691;  209,920;38066,448;21,71296
 619,52; 8351,135;  227,536;37750,342;21,64976
 620,10; 8290,120;  235,304;37721,155;21,48762
 620,67; 8220,728;  234,229;37593,632;21,37748
 621,25; 8091,068;  252,303;37527,175;21,02962
 621,83; 8097,321;  224,689;37484,189;21,12919
 622,41; 8038,719;  272,305;37410,324;20,91230
 622,98; 7946,847;  257,460;37138,325;20,84926
 623,56; 7883,601;  249,537;37196,221;20,66238
 624,14; 7778,630;  239,226;37025,315;20,49526
 624,72; 7723,572;  232,920;36893,535;20,43242
 625,29; 7680,643;  218,691;36946,057;20,31715
 625,87; 7613,562;  265,996;36963,556;20,02195
 626,45; 7550,488;  211,153;36814,243;20,05114
 627,02; 7481,360;  228,458;36763,334;19,85200
 627,60; 7377,165;  216,072;36601,251;19,68135
 628,18; 7354,973;  203,535;36778,453;19,55285
 628,76; 7290,428;  204,075;36703,843;19,41479
 629,33; 7283,228;  236,844;36620,875;19,36669
 629,91; 7253,967;  220,766;36669,155;19,29633
 630,49; 7255,653;  236,152;36885,051;19,15338
 631,06; 7226,715;  224,460;36968,332;19,05693
 631,64; 7189,838;  236,691;36931,222;18,94873
 632,22; 7113,059;  191,076;36867,998;18,87286
 632,79; 7159,178;  222,922;37220,911;18,74766
 633,37; 7137,221;  206,150;37185,197;18,74324
 633,95; 7071,698;  217,537;37305,676;18,48073
 634,52; 7076,733;  204,151;37411,449;18,47106
 635,10; 7048,637;  202,997;37377,906;18,41468
 635,68; 7072,304;  217,153;37630,353;18,32281
 636,25; 7008,572;  192,692;37673,295;18,18509
 636,83; 7022,197;  186,767;37842,843;18,15226
 637,41; 6986,268;  194,538;37809,837;18,05576
 637,98; 6993,330;  220,230;38059,492;17,89966
 638,56; 7026,298;  217,539;38136,337;17,95616
 639,13; 6979,875;  203,768;38190,123;17,83827
 639,71; 6987,785;  245,152;38394,802;17,67417
 640,29; 6900,949;  171,152;38119,221;17,73423
 640,86; 6855,492;  196,844;38359,500;17,44807
 641,44; 6823,420;  195,613;38410,933;17,34332
 642,02; 6773,579;  222,152;38363,981;17,17649
 642,59; 6792,352;  195,075;38474,337;17,23460
 643,17; 6683,434;  195,921;38457,694;16,95560
 643,74; 6683,054;  186,228;38548,281;16,93555
 644,32; 6675,597;  217,151;38467,021;16,88488
 644,89; 6614,371;  207,382;38420,839;16,76632
 645,47; 6572,530;  237,074;38521,349;16,54845
 646,05; 6551,919;  206,536;38420,705;16,60479
 646,62; 6517,924;  201,844;38402,907;16,53378
 647,20; 6504,159;  207,690;38607,956;16,39694
 647,77; 6439,010;  185,767;38427,004;16,35210
 648,35; 6421,092;  180,074;38225,745;16,40402
 648,92; 6396,250;  217,305;38309,794;16,22090
 649,50; 6354,255;  175,459;38234,996;16,23455
 650,08; 6301,644;  171,382;38187,660;16,12536
 650,65; 6345,495;  185,228;38396,554;16,12157
 651,23; 6368,654;  165,689;39107,910;15,92864
 651,80; 6485,735;  179,535;40033,113;15,82342
 652,38; 6549,278;  194,766;40427,469;15,79440
 652,95; 6563,668;  163,458;40771,671;15,76087
 653,53; 6548,980;  190,766;41022,181;15,57187
 654,10; 6596,985;  222,151;41124,076;15,58566
 654,68; 6511,066;  190,689;41047,509;15,46958
 655,25; 6520,302;  178,535;41136,634;15,48355
 655,83; 6510,460;  178,612;41312,836;15,39314
 656,40; 6466,927;  214,689;41245,731;15,23782
 656,98; 6456,162;  187,920;41228,395;15,27332
 657,55; 6420,244;  198,227;41059,136;15,22731
 658,13; 6366,248;  190,843;40647,338;15,26431
 658,70; 6341,945;  203,842;40417,156;15,26386
 659,28; 6167,258;  180,150;39642,127;15,17184
 659,85; 6020,647;  196,612;38796,945;15,08804
 660,43; 6006,036;  213,073;38870,763;14,98528
 661,00; 6054,041;  191,304;38975,734;15,11621
 661,58; 6056,892;  183,765;39279,783;15,02231
 662,15; 6027,358;  174,458;39463,600;14,89699
 662,73; 6115,055;  233,611;39757,803;14,88062
 663,30; 6102,752;  186,534;40068,005;14,83450
 663,88; 6127,834;  197,765;40163,822;14,83776
 664,45; 6126,992;  183,227;40366,179;14,79176
 665,03; 6189,536;  179,842;40832,381;14,78307
 665,60; 6265,617;  262,534;41160,429;14,67822
 666,17; 6212,853;  190,765;41403,401;14,61224
 666,75; 6238,473;  188,457;41655,988;14,58977
 667,32; 6297,477;  215,072;41977,806;14,56419
 667,90; 6300,713;  188,072;42194,085;14,55182
 668,47; 6330,333;  208,149;42570,672;14,45189
 669,05; 6369,261;  177,842;42819,951;14,51950
 669,62; 6330,573;  163,995;42916,692;14,42383
 670,19; 6353,655;  172,688;43051,971;14,41481
 670,77; 6352,813;  197,226;43265,865;14,29250
 671,34; 6343,510;  176,072;43150,683;14,35135
 671,92; 6379,284;  169,918;43589,347;14,30089
 672,49; 6385,673;  196,072;43523,934;14,28550
 673,06; 6361,294;  154,918;43520,828;14,31165
 673,64; 6342,529;  172,995;43528,338;14,23016
 674,21; 6334,226;  161,764;43487,695;14,24658
 674,79; 6396,769;  193,995;43788,589;14,22831
 675,36; 6383,466;  198,149;43863,792;14,16518
 675,93; 6366,086;  167,995;43710,686;14,23452
 676,51; 6352,476;  182,225;43909,581;14,11073
 677,08; 6375,096;  188,687;43958,937;14,13382
 677,65; 6372,793;  187,918;44171,370;14,06182
 678,23; 6489,874;  193,379;44278,957;14,28244
 678,80; 6425,725;  169,071;44424,159;14,13770
 679,38; 6432,268;  175,379;44556,515;14,09808
 679,95; 6465,273;  186,841;44784,871;14,07782
 680,52; 6487,508;  175,917;45115,997;14,04446
 681,10; 6548,975;  184,917;45545,814;14,02983
 681,67; 6583,441;  197,533;45819,248;13,99752
 682,24; 6592,215;  163,610;45886,604;14,05990
 682,82; 6650,066;  175,456;46435,268;13,99619
 683,39; 6723,916;  214,148;46738,778;13,99209
 683,96; 6747,229;  178,071;47100,980;13,99989
 684,54; 6792,772;  163,686;47315,721;14,05896
 685,11; 6853,161;  216,994;47796,077;13,94766
 685,68; 6865,397;  183,609;48151,202;13,92980
 686,25; 6847,709;  174,763;48245,712;13,88145
 686,83; 6904,945;  177,994;48409,837;13,94712
 687,40; 6948,257;  164,301;48766,578;13,95810
 687,97; 7026,416;  219,763;49137,011;13,91463
 688,55; 6998,805;  163,455;49114,829;13,96355
 689,12; 7056,733;  146,378;49392,031;14,03242
 689,69; 7079,660;  160,686;49510,311;14,02032
 690,26; 7146,973;  172,070;49682,590;14,08772
 690,84; 7176,054;  175,763;49831,100;14,09776
 691,41; 7191,367;  187,301;49880,764;14,09454
 691,98; 7217,987;  189,147;50233,427;14,04524
 692,56; 7252,299;  174,686;50284,168;14,12430
 693,13; 7275,381;  221,916;50345,447;14,07216
 693,70; 7310,232;  192,609;50475,650;14,15512
 694,27; 7280,544;  169,455;50631,467;14,09197
 694,84; 7316,549;  158,916;50728,747;14,15396
 695,42; 7377,477;  216,993;50812,641;14,15237
 695,99; 7388,789;  185,531;51125,920;14,14056
 696,56; 7398,332;  176,762;50773,200;14,27288
 697,13; 7435,952;  182,378;51275,863;14,19667
 697,71; 7434,880;  161,454;51270,989;14,23105
 698,28; 7518,500;  180,916;51717,114;14,23773
 698,85; 7471,659;  145,531;51689,163;14,21345
 699,42; 7544,125;  145,454;51791,519;14,32572
 699,99; 7558,668;  188,070;51950,336;14,23933
 700,57; 7581,519;  182,223;52047,000;14,26651
 701,14; 7610,293;  172,377;52172,203;14,30373
 701,71; 7677,451;  178,377;52392,328;14,36220
 702,28; 7687,841;  171,531;52471,223;14,37161
 702,85; 7693,922;  180,300;52403,502;14,38752
 703,43; 7747,927;  181,531;52774,166;14,38680
 704,00; 7803,316;  195,377;52887,214;14,43855
 704,57; 7804,552;  175,992;52949,724;14,45522
 705,14; 7826,633;  199,531;53182,080;14,39550
 705,71; 7889,100;  203,838;53139,513;14,51811
 706,28; 7845,566;  181,300;53165,946;14,46507
 706,86; 7995,186;  208,300;53405,610;14,63774
 707,43; 7983,575;  226,069;53336,813;14,60628
 708,00; 7948,964;  204,223;53266,322;14,59562
 708,57; 7956,661;  174,069;53150,063;14,69079
 709,14; 8000,743;  200,761;53341,573;14,67795
 709,71; 8062,132;  178,915;53489,083;14,78746
 710,28; 8071,060;  180,530;53723,670;14,73677
 710,86; 8107,988;  200,761;53711,411;14,77692
 711,43; 8158,839;  210,376;53873,382;14,81181
 712,00; 8177,228;  186,761;53907,046;14,87421
 712,57; 8194,540;  201,453;54009,095;14,85493
 713,14; 8241,084;  179,145;54185,989;14,92762
 713,71; 8219,165;  187,222;54008,807;14,92327
 714,28; 8249,862;  194,761;54082,702;14,94787
 714,85; 8262,867;  178,991;53894,596;15,04940
 715,42; 8306,718;  184,376;54027,183;15,08529
 716,00; 8374,261;  250,530;54201,078;15,05774
 716,57; 8369,343;  193,068;54324,126;15,10459
 717,14; 8389,193;  177,376;54273,252;15,18012
 717,71; 8411,967;  172,760;54275,531;15,22881
 718,28; 8462,818;  216,145;54345,887;15,23501
 718,85; 8478,746;  167,145;54372,089;15,33366
 719,42; 8538,828;  204,299;54609,215;15,31944
 719,99; 8560,986;  174,529;54345,725;15,48140
 720,56; 8643,068;  191,991;54672,158;15,51221
 721,13; 8653,072;  176,529;54740,206;15,53514
 721,70; 8677,154;  170,068;54607,101;15,62739
 722,27; 8727,236;  196,837;54661,380;15,66230
 722,84; 8768,548;  237,991;54881,121;15,61140
 723,41; 8743,014;  167,683;54741,631;15,71323
 723,98; 8797,480;  182,837;54994,064;15,71693
 724,55; 8870,101;  214,990;55060,805;15,78080
 725,12; 8846,259;  154,221;55026,776;15,84041
 725,69; 8949,725;  180,298;55180,286;15,94442
 726,27; 8914,730;  187,375;55261,719;15,84650
 726,84; 9019,889;  198,836;55627,383;15,91428
 727,41; 9031,970;  208,606;55544,816;15,94501
 727,98; 9104,129;  207,452;55875,941;15,98153
 728,55; 9110,749;  216,836;55755,144;16,01401
 729,12; 9172,907;  167,605;55813,961;16,18309
 729,69; 9231,912;  210,221;55962,779;16,18166
 730,26; 9227,994;  198,682;56213,443;16,11952
 730,82; 9256,460;  184,913;56095,030;16,22523
 731,39; 9286,926;  194,374;56137,617;16,25317
 731,96; 9371,546;  169,990;56522,127;16,32867
 732,53; 9441,551;  190,067;56737,329;16,36062
 733,10; 9516,248;  203,451;56801,224;16,45435
 733,67; 9603,791;  205,605;57072,887;16,52653
 734,24; 9506,873;  182,605;56736,474;16,48741
 734,81; 9604,493;  200,066;56852,754;16,60014
 735,38; 9542,651;  191,759;56642,571;16,56467
 735,95; 9571,579;  189,143;56516,774;16,65690
 736,52; 9649,122;  206,759;56567,668;16,75339
 737,09; 9636,511;  214,066;56263,563;16,81094
 737,66; 9661,670;  226,989;56505,457;16,76428
 738,23; 9716,444;  181,758;56571,890;16,90843
 738,80; 9789,987;  234,066;56727,016;16,91525
 739,37; 9826,453;  220,451;57013,449;16,91406
 739,94; 9823,150;  191,220;57087,190;16,92902
 740,51; 9945,155;  288,989;57217,315;16,96197
 741,07; 9910,083;  188,758;57010,210;17,10855
 741,64; 9947,780;  210,681;57304,643;17,05452
 742,21;10013,169;  198,297;57378,922;17,16468
 742,78;10006,251;  164,296;57089,278;17,28934
 743,35;10050,948;  185,450;57470,019;17,22191
 743,92;10139,722;  221,066;57462,221;17,32784
 744,49;10210,034;  212,681;57394,193;17,48354
 745,06;10213,039;  186,066;57407,318;17,52316
 745,63;10194,274;  177,065;57428,136;17,49698
 746,19;10296,048;  182,835;57418,646;17,66938
 746,76;10285,668;  194,527;57385,156;17,64475
 747,33;10322,981;  186,911;57375,512;17,72393
 747,90;10473,831;  204,142;57591,022;17,89554
 748,47;10433,913;  197,758;57503,916;17,86223
 749,04;10440,533;  204,219;57567,426;17,84474
 749,61;10498,922;  221,065;57412,859;17,97086
 750,17;10518,927;  219,527;57580,831;17,95531
 750,74;10626,086;  207,603;57433,418;18,20591
 751,31;10543,244;  187,680;57384,928;18,10500
 751,88;10578,941;  175,757;57254,515;18,22602
 752,45;10637,100;  188,526;57389,794;18,26633
 753,02;10676,412;  213,680;57212,150;18,35616
 753,58;10707,263;  180,449;57085,352;18,49896
 754,15;10716,345;  184,834;57280,478;18,44538
 754,72;10675,042;  183,295;57070,449;18,44309
 755,29;10715,123;  181,834;56891,421;18,57409
 755,86;10757,589;  199,065;57059,239;18,56928
 756,42;10826,748;  211,065;56937,902;18,71369
 756,99;10796,060;  182,680;56933,489;18,70173
 757,56;10836,450;  193,372;56864,153;18,78054
 758,13;10804,070;  162,141;56730,279;18,81258
 758,70;10952,998;  184,910;56782,635;19,02565
 759,26;11012,156;  190,295;56940,606;19,06925
 759,83;11000,468;  201,064;57008,116;19,01068
 760,40;10995,781;  190,372;56726,626;19,11235
 760,97;11054,786;  177,218;56920,059;19,16994
 761,53;11000,790;  164,526;56539,339;19,22182
 762,10;11020,410;  164,756;56492,925;19,27216
 762,67;11090,107;  203,295;56444,128;19,35749
 763,24;11034,727;  157,525;55971,945;19,48816
 763,80;11155,578;  185,833;56198,609;19,58436
 764,37;11094,275;  179,448;56055,427;19,53402
 764,94;11076,588;  168,602;55661,322;19,65661
 765,50;11094,669;  165,371;55636,601;19,70264
 766,07;11177,905;  203,141;55684,341;19,78105
 766,64;11091,525;  167,371;55326,159;19,80492
 767,21;11140,683;  173,756;55232,054;19,91875
 767,77;11195,842;  190,602;55148,564;20,02483
 768,34;11180,693;  196,525;55235,689;19,95700
 768,91;11193,851;  196,371;54968,815;20,07849
 769,47;11245,933;  188,833;55026,940;20,16317
 770,04;11285,014;  191,833;54845,911;20,29708
 770,61;11246,788;  181,217;54715,498;20,29104
 771,18;11301,870;  170,832;54589,008;20,45463
 771,74;11346,875;  190,294;54655,364;20,48392
 772,31;11362,264;  176,140;54451,028;20,61013
 772,88;11269,499;  169,448;54240,846;20,52851
 773,44;11292,196;  166,448;54021,971;20,65851
 774,01;11393,663;  193,909;54134,943;20,76296
 774,58;11304,052;  177,140;53742,914;20,77243
 775,14;11396,672;  172,217;53925,271;20,88152
 775,71;11397,523;  174,678;53789,319;20,93243
 776,27;11455,297;  218,293;53678,829;21,01925
 776,84;11545,148;  245,063;53766,262;21,11329
 777,41;11497,845;  190,447;53549,849;21,19101
 777,97;11495,926;  181,986;53314,897;21,29366
 778,54;11525,931;  194,601;53366,869;21,31060
 779,11;11582,090;  212,139;53356,456;21,39448
 779,67;11637,248;  169,601;53295,504;21,58579
 780,24;11620,330;  193,909;53023,937;21,62865
 780,80;11704,873;  214,370;53013,678;21,76260
 781,37;11684,031;  205,216;52987,188;21,74761
 781,94;11709,805;  191,755;52730,160;21,92311
 782,50;11726,733;  198,216;52704,439;21,95648
 783,07;11791,430;  213,139;52829,641;22,00506
 783,63;11754,204;  181,985;52499,151;22,11935
 784,20;11834,978;  207,985;52386,507;22,28310
 784,77;11807,136;  194,600;52324,094;22,27633
 785,33;11842,910;  168,447;52102,527;22,47939
 785,90;11810,992;  197,985;52037,730;22,40174
 786,46;11854,535;  214,677;51925,317;22,50960
 787,03;11846,694;  183,831;51839,903;22,57791
 787,59;11851,929;  198,369;51767,260;22,59804
 788,16;11956,318;  197,369;51654,000;22,85216
 788,73;11903,169;  200,985;51537,049;22,79525
 789,29;11860,174;  190,062;51084,559;22,93001
 789,86;11895,333;  209,138;50995,453;23,01052
 790,42;11844,183;  204,446;50920,810;22,95065
 790,99;11847,188;  207,369;50563,320;23,11508
 791,55;11882,885;  191,369;50593,906;23,19628
 792,12;11920,351;  216,984;50541,878;23,25562
 792,68;11869,510;  202,830;50166,311;23,35041
 793,25;11857,207;  212,984;49944,744;23,41406
 793,81;11844,058;  253,138;49621,331;23,47852
 794,38;11803,447;  168,907;49381,379;23,64145
 794,94;11846,067;  196,446;49312,505;23,71856
 795,51;11831,072;  214,369;48964,938;23,82886
 796,07;11737,846;  203,599;48756,525;23,75603
 796,64;11862,389;  218,984;48868,958;23,93301
 797,20;11775,624;  209,445;48385,929;24,00793
 797,77;11727,014;  184,138;47988,362;24,14614
 798,33;11758,249;  199,368;47845,103;24,26005
 798,90;11774,638;  223,291;47800,613;24,27910
 799,46;11724,028;  208,907;47259,662;24,47383
 800,03;11793,725;  208,214;47214,864;24,64653
 800,59;11737,576;  222,368;46957,528;24,63928
 801,15;11746,811;  221,753;46844,884;24,71961
 801,72;11691,123;  226,137;46459,779;24,79793
 802,28;11689,667;  238,830;46156,519;24,93775
 802,85;11622,979;  206,830;46055,722;24,89951
 803,41;11665,061;  209,906;45829,924;25,10993
 803,98;11579,835;  211,599;45325,588;25,19892
 804,54;11558,532;  212,676;45133,252;25,25759
 805,11;11583,998;  212,522;44999,915;25,38990
 805,67;11556,233;  238,675;44844,349;25,37246
 806,23;11490,161;  215,522;44381,705;25,52776
 806,80;11521,089;  222,829;44288,522;25,63958
 807,36;11535,170;  232,060;44206,417;25,70387
 807,93;11439,714;  239,829;43938,081;25,63005
 808,49;11396,411;  203,598;43598,206;25,79309
 809,05;11351,646;  191,906;43368,870;25,84651
 809,62;11446,112;  230,290;43348,765;26,01164
 810,18;11456,348;  222,983;43249,582;26,10795
 810,74;11365,275;  190,983;42947,400;26,13477
 811,31;11420,511;  193,829;42808,679;26,34453
 811,87;11399,823;  207,521;42600,343;26,40141
 812,44;11458,366;  240,983;42570,776;26,49997
 813,00;11347,756;  166,752;42252,363;26,56728
 813,56;11456,453;  218,829;42345,258;26,67595
 814,13;11470,227;  222,367;42177,383;26,80933
 814,69;11392,078;  211,367;41986,508;26,76403
 815,25;11373,467;  188,752;41599,403;27,00927
 815,82;11364,702;  233,751;41614,374;26,89894
 816,38;11393,630;  246,751;41365,884;27,10874
 816,94;11272,327;  203,059;41060,010;27,09274
 817,51;11254,409;  186,444;40868,904;27,20574
 818,07;11256,875;  205,367;40651,953;27,32371
 818,63;11239,264;  221,751;40447,309;27,38934
 819,20;11202,654;  217,982;40328,973;27,38569
 819,76;11134,120;  202,443;39945,175;27,50610
 820,32;11197,124;  247,520;39857,147;27,64380
 820,89;11160,360;  234,905;39659,349;27,71239
 821,45;11107,595;  198,597;39336,397;27,87330
 822,01;11105,292;  222,751;39097,369;27,99395
 822,57;11053,989;  229,366;38904,802;27,98837
 823,14;11004,533;  186,905;38724,389;28,07040
 823,70;11019,230;  203,828;38463,899;28,26812
 824,26;11005,773;  201,135;38282,870;28,37223
 824,82;11035,008;  231,981;38128,227;28,50685
 825,39;11014,321;  208,751;37809,737;28,73746
 825,95;11086,710;  231,135;37881,400;28,83266
 826,51;10969,253;  226,135;37413,680;28,88902
 827,08;11001,642;  255,058;37546,267;28,81801
 827,64;10927,955;  234,520;37333,623;28,82397
 828,20;10927,498;  203,827;37073,825;29,08509
 828,76;10977,579;  231,981;37046,643;29,18837
 829,32;11026,353;  237,366;36879,691;29,44406
 829,89;10949,743;  193,135;36702,663;29,46247
 830,45;10958,286;  215,058;36642,942;29,49177
 831,01;10957,752;  217,904;36452,144;29,64005
 831,57;10961,757;  225,365;36346,731;29,72310
 832,14;10942,685;  210,904;36376,472;29,67403
 832,70;10899,997;  200,058;36099,982;29,80491
 833,26;10890,540;  185,519;36024,953;29,86939
 833,82;11000,545;  211,673;35978,079;30,16482
 834,38;10977,780;  201,519;35897,973;30,18860
 834,95;10961,016;  193,980;35778,560;30,25759
 835,51;10963,943;  172,596;35642,301;30,42413
 836,07;11030,717;  216,134;35712,503;30,46673
 836,63;11073,568;  232,826;35781,552;30,49544
 837,19;11061,265;  209,057;35477,446;30,77035
 837,75;11013,808;  174,596;35236,187;30,91478
 838,32;11116,967;  225,826;35364,389;30,99484
 838,88;11133,741;  220,442;35382,053;31,03754
 839,44;11088,746;  209,519;35322,794;30,98323
 840,00;11142,904;  204,749;35187,689;31,26711
 840,56;11066,601;  189,057;34877,737;31,35762
 841,12;11124,221;  196,749;34811,632;31,56871
 841,68;11033,841;  183,749;34663,603;31,46792
 842,25;11071,307;  201,749;34793,267;31,42261
 842,81;11059,081;  196,441;34370,546;31,78617
 843,37;11063,548;  186,980;34470,826;31,72505
 843,93;11060,245;  201,749;34398,720;31,75280
 844,49;11101,942;  216,133;34443,230;31,80465
 845,05;11061,408;  180,287;34171,202;32,01185
 845,61;11186,489;  226,595;34274,019;32,19008
 846,17;11106,725;  202,903;34148,299;32,12165
 846,73;11117,807;  213,749;34074,962;32,20221
 847,29;11127,811;  186,595;33753,472;32,59528
 847,86;11114,201;  193,979;33848,521;32,44799
 848,42;11110,898;  190,902;33540,800;32,74371
 848,98;11091,210;  203,902;33503,695;32,69482
 849,54;11148,830;  206,133;33561,359;32,80654
 850,10;11143,296;  208,595;33397,868;32,94649
 850,66;11035,224;  191,287;33204,994;32,84677
 851,22;11088,383;  192,441;33273,965;32,93664
 851,78;11129,233;  234,441;33214,706;33,03428
 852,34;11074,469;  222,133;32956,293;33,15294
 852,90;11088,243;  211,056;32944,188;33,22990
 853,46;10968,478;  191,517;32622,390;33,23056
 854,02;11014,791;  213,286;32732,823;33,21543
 854,58;11009,103;  196,979;32437,948;33,53536
 855,14;10929,800;  195,517;32381,305;33,35100
 855,70;10987,343;  161,825;32202,507;33,78679
 856,26;10998,809;  211,055;32132,709;33,79447
 856,82;10922,199;  196,902;31943,450;33,78414
 857,38;10985,127;  228,517;31904,806;33,95792
 857,94;10965,900;  202,209;31825,701;34,03701
 858,50;11000,674;  215,671;31719,903;34,23351
 859,06;10921,602;  194,978;31564,105;34,19484
 859,62;10974,145;  211,671;31461,308;34,44032
 860,18;10918,688;  199,517;31234,971;34,53847
 860,74;10884,078;  174,209;31134,558;34,59221
 861,30;10873,236;  185,901;30921,838;34,77146
 861,86;10918,395;  235,517;30921,040;34,81407
 862,42;10877,323;  199,824;30755,242;34,94470
 862,98;10950,404;  231,978;30739,598;35,13360
 863,54;10840,794;  205,055;30572,570;35,02341
 864,10;10868,491;  202,286;30565,695;35,12848
 864,66;10824,649;  190,978;30311,205;35,30409
 865,22;10734,731;  198,285;30183,946;35,13828
 865,78;10782,043;  208,439;30096,302;35,37758
 866,34;10798,432;  198,208;29955,427;35,62236
 866,90;10752,591;  220,208;29864,322;35,52942
 867,45;10716,211;  209,208;29665,909;35,66931
 868,01;10619,370;  213,747;29548,650;35,47182
 868,57;10582,143;  190,362;29359,237;35,62627
 869,13;10656,302;  184,131;29243,977;36,03657
 869,69;10554,537;  195,747;29100,410;35,83778
 870,25;10575,004;  183,131;28971,536;36,09742
 870,81;10597,547;  194,593;28962,200;36,16204
 871,37;10604,090;  214,439;28801,479;36,34392
 871,93;10569,787;  220,669;28665,758;36,38279
 872,49;10481,022;  223,362;28491,345;36,28720
 873,04;10465,104;  198,439;28222,086;36,63572
 873,60;10470,878;  182,977;28131,365;36,81036
 874,16;10435,883;  212,592;28031,337;36,74965
 874,72;10438,652;  202,669;27894,567;36,96382
 875,28;10423,498;  209,285;27946,260;36,82526
 875,84;10462,267;  206,592;27892,798;37,04254
 876,40;10490,883;  196,131;27799,106;37,29581
 876,95;10504,421;  213,746;27745,952;37,37686
 877,51;10479,960;  230,746;27755,260;37,23667
 878,07;10562,037;  249,977;27778,490;37,45956
 878,63;10588,113;  199,054;27740,875;37,72103
 879,19;10652,652;  224,977;27715,644;37,93169
 879,75;10647,113;  196,900;27768,875;37,90158
 880,30;10721,729;  193,208;27740,798;38,21939
 880,86;10814,960;  237,669;27948,798;38,16983
 881,42;10798,729;  190,746;27995,952;38,15107
 881,98;10927,652;  221,823;28080,260;38,42940
 882,54;10994,729;  194,746;28214,952;38,54355
 883,09;11041,421;  217,669;28222,567;38,64950
 883,65;11069,883;  197,438;28296,183;38,69370
 884,21;11217,729;  235,362;28611,952;38,70221
 884,77;11196,267;  204,900;28568,413;38,75178
 885,32;11333,960;  208,592;28737,260;38,99715
 885,88;11426,498;  235,515;28818,260;39,15293
 886,44;11492,883;  213,362;29018,029;39,15866
 887,00;11562,883;  229,131;29005,260;39,38595
 887,56;11564,190;  204,285;29124,721;39,27986
 888,11;11634,037;  208,900;29123,260;39,51371
 888,67;11696,652;  245,592;29285,106;39,43268
 889,23;11769,960;  215,977;29233,337;39,81748
 889,79;11682,113;  194,131;29203,490;39,60095
 890,34;11753,883;  214,285;29125,337;39,91414
 890,90;11811,806;  267,285;29395,490;39,63348
 891,46;11775,421;  199,438;29217,721;39,89203
 892,01;11822,421;  236,900;29188,952;40,01624
 892,57;11822,190;  236,285;29105,260;40,13272
 893,13;11688,421;  203,746;28905,721;40,01354
 893,69;11704,498;  206,438;28872,106;40,11091
 894,24;11724,806;  211,362;28718,183;40,38838
 894,80;11713,421;  217,362;28590,875;40,51687
 895,36;11688,037;  215,977;28459,029;40,61905
 895,91;11607,113;  215,438;28251,567;40,63213
 896,47;11696,344;  237,515;28129,413;41,08300
 897,03;11571,267;  203,977;27957,490;40,95802
 897,58;11569,267;  225,900;27905,644;40,98075
 898,14;11554,729;  223,669;27669,337;41,28542
 898,70;11481,190;  191,208;27466,490;41,39272
 899,25;11533,652;  218,362;27531,029;41,42873
 899,81;11509,652;  236,900;27286,875;41,67380
 900,37;11433,267;  181,515;27045,490;41,88417
 900,92;11438,498;  218,900;27003,029;41,88898
 901,48;11374,190;  198,592;26994,875;41,70578
 902,03;11317,267;  204,746;26775,567;41,82227
 902,59;11365,806;  211,131;26706,798;42,10000
 903,15;11280,421;  237,592;26565,952;41,94272
 903,70;11248,037;  213,131;26298,029;42,30381
 904,26;11182,190;  201,515;26190,029;42,25203
 904,82;11211,113;  214,669;26156,337;42,38912
 905,37;11172,037;  222,131;26028,567;42,43091
 905,93;11068,037;  205,362;25822,644;42,40370
 906,48;11165,960;  215,977;25838,567;42,73566
 907,04;11149,729;  232,054;25749,260;42,78554
 907,60;11070,729;  208,592;25580,875;42,81103
 908,15;11089,960;  199,131;25376,567;43,25631
 908,71;11099,806;  231,054;25396,029;43,19000
 909,26;10997,037;  207,823;25226,721;43,12426
 909,82;11053,037;  224,900;25071,106;43,58064
 910,37;11019,729;  259,515;25026,337;43,44608
 910,93;10942,344;  203,054;24826,490;43,61410
 911,48;10921,421;  201,515;24648,413;43,84976
 912,04;10952,883;  197,515;24614,875;44,04804
 912,60;10973,267;  222,592;24608,337;44,08590
 913,15;10841,113;  223,746;24384,413;43,94484
 913,71;10833,113;  216,285;24195,337;44,27543
 914,26;10823,652;  195,977;24064,798;44,52535
 914,82;10810,806;  212,054;23967,875;44,61539
 915,37;10816,960;  205,592;23966,721;44,65852
 915,93;10803,344;  258,208;23832,721;44,73109
 916,48;10760,652;  205,592;23705,952;44,91446
 917,04;10710,344;  231,823;23544,337;44,94805
 917,59;10756,267;  238,515;23475,721;45,26255
 918,15;10602,113;  184,746;23311,029;45,04558
 918,70;10591,883;  214,054;23211,875;45,12527
 919,26;10660,883;  212,977;23183,875;45,48323
 919,81;10561,729;  199,208;22977,413;45,49314
 920,37;10560,421;  206,823;22853,952;45,71704
 920,92;10530,190;  225,900;22825,798;45,59441
 921,48;10461,652;  190,900;22624,721;45,78245
 922,03;10448,729;  198,362;22584,490;45,78892
 922,59;10454,960;  203,669;22434,567;46,11280
 923,14;10383,267;  203,208;22254,490;46,16539
 923,69;10444,806;  237,208;22258,490;46,35333
 924,25;10455,575;  231,823;22196,490;46,54635
 924,80;10360,113;  211,823;21988,260;46,60216
 925,36;10342,883;  198,362;21896,567;46,75281
 925,91;10301,729;  213,054;21771,029;46,79788
 926,47;10260,037;  200,438;21696,106;46,79826
 927,02;10283,190;  253,977;21614,337;46,95246
 927,57;10270,267;  218,823;21509,183;47,21125
 928,13;10238,113;  207,746;21357,875;47,42462
 928,68;10203,806;  213,362;21359,875;47,24393
 929,24;10192,267;  187,131;21070,029;47,91067
 929,79;10128,421;  203,669;21006,952;47,70762
 930,34;10114,498;  215,592;20851,490;47,96935
 930,90;10114,267;  207,131;20847,798;47,99814
 931,45;10085,960;  214,131;20843,490;47,85330
 932,01;10051,113;  229,515;20694,183;47,99295
 932,56;10039,729;  238,438;20547,721;48,26015
 933,11;10014,344;  244,592;20476,798;48,28812
 933,67; 9958,037;  211,208;20294,183;48,53279
 934,22; 9967,190;  209,208;20273,106;48,63453
 934,77; 9954,421;  233,438;20123,798;48,87284
 935,33; 9877,575;  217,823;20039,875;48,73235
 935,88; 9829,421;  228,054;19944,260;48,69784
 936,43; 9789,652;  210,438;19825,106;48,83699
 936,99; 9777,421;  216,131;19786,183;48,85675
 937,54; 9730,806;  196,977;19597,875;49,14117
 938,09; 9839,037;  221,977;19586,183;49,66411
 938,65; 9709,421;  231,054;19423,183;49,38674
 939,20; 9677,344;  198,362;19304,644;49,61186
 939,75; 9679,267;  197,285;19205,029;49,88484
 940,31; 9705,883;  201,131;19061,413;50,39560
 940,86; 9698,729;  219,669;19111,644;50,17506
 941,41; 9681,498;  273,823;19012,337;50,20502
 941,96; 9594,729;  209,438;18860,106;50,32147
 942,52; 9608,190;  217,746;18744,952;50,68462
 943,07; 9552,421;  195,669;18638,644;50,73342
 943,62; 9546,575;  206,900;18532,029;50,96649
 944,18; 9521,652;  189,900;18484,183;51,00912
 944,73; 9480,344;  206,362;18377,106;51,03799
 945,28; 9376,806;  177,515;18157,106;51,16518
 945,83; 9402,883;  207,515;18180,106;51,16328
 946,39; 9424,806;  207,208;18103,644;51,50521
 946,94; 9406,037;  232,208;18063,413;51,44817
 947,49; 9353,498;  200,900;17941,490;51,59128
 948,04; 9359,421;  234,977;17890,490;51,68042
 948,59; 9324,883;  231,592;17853,260;51,60289
 949,15; 9256,421;  198,131;17732,413;51,66046
 949,70; 9245,960;  195,362;17628,952;51,91471
 950,25; 9283,037;  217,362;17560,413;52,27266
 950,80; 9195,498;  173,823;17422,644;52,30314
 951,36; 9178,806;  173,823;17359,183;52,39915
 951,91; 9221,729;  225,746;17327,875;52,60154
 952,46; 9103,498;  195,285;17151,106;52,53779
 953,01; 9174,883;  218,669;17183,260;52,79357
 953,56; 9072,344;  200,823;17027,106;52,72419
 954,11; 9101,729;  224,438;16970,337;53,01173
 954,67; 9093,883;  206,362;16925,721;53,15707
 955,22; 9010,267;  191,362;16792,875;53,12110
 955,77; 9077,037;  230,823;16717,721;53,65602
 956,32; 9023,575;  255,515;16593,337;53,66725
 956,87; 8966,037;  201,592;16475,644;53,85533
 957,42; 8964,190;  208,285;16469,490;53,84537
 957,98; 8904,883;  204,054;16331,567;53,95022
 958,53; 8941,652;  224,669;16315,106;54,17493
 959,08; 8888,883;  196,669;16148,106;54,49173
 959,63; 8861,652;  208,131;16079,183;54,52393
 960,18; 8850,883;  217,285;16020,183;54,63300
 960,73; 8782,498;  214,285;15973,337;54,37011
 961,28; 8770,421;  190,285;15852,106;54,78377
 961,83; 8799,113;  225,438;15834,106;54,92894
 962,39; 8684,575;  192,515;15666,337;54,88017
 962,94; 8646,267;  217,362;15576,337;54,87935
 963,49; 8584,960;  209,515;15429,106;55,03068
 964,04; 8590,190;  224,054;15424,644;55,03823
 964,59; 8547,344;  187,438;15327,952;55,21547
 965,14; 8574,037;  227,285;15264,183;55,50847
 965,69; 8546,729;  217,054;15197,183;55,60483
 966,24; 8446,190;  199,285;15073,952;55,44262
 966,79; 8428,960;  221,208;14977,644;55,62150
 967,34; 8346,344;  185,438;14850,952;55,64691
 967,89; 8323,267;  187,592;14833,952;55,54742
 968,44; 8324,267;  218,669;14708,644;55,93935
 968,99; 8313,575;  214,362;14658,260;56,07360
 969,55; 8331,883;  215,746;14575,413;56,52037
 970,10; 8324,190;  214,823;14487,721;56,81654
 970,65; 8248,960;  218,592;14401,260;56,62099
 971,20; 8166,960;  198,977;14237,490;56,75802
 971,75; 8068,113;  190,362;14092,644;56,66517
 972,30; 8101,344;  211,669;14052,721;57,00199
 972,85; 8057,267;  188,823;13959,798;57,13789
 973,40; 8046,575;  199,208;13830,721;57,56784
 973,95; 7958,806;  213,208;13790,029;57,05016
 974,50; 7949,421;  227,438;13743,875;57,13031
 975,05; 7906,113;  207,054;13596,644;57,50034
 975,60; 7885,652;  226,054;13553,721;57,47141
 976,15; 7834,344;  203,054;13518,875;57,30995
 976,70; 7747,806;  227,746;13395,875;57,10803
 977,25; 7778,421;  221,746;13325,644;57,66738
 977,80; 7673,729;  198,208;13137,875;57,77213
 978,35; 7585,113;  218,900;13099,337;57,18916
 978,89; 7564,421;  192,977;12973,875;57,67548
 979,44; 7544,960;  208,515;12963,260;57,51934
 979,99; 7443,344;  201,669;12699,490;57,94350
 980,54; 7440,652;  242,977;12649,106;58,01709
 981,09; 7396,729;  221,515;12634,490;57,80414
 981,64; 7332,575;  222,746;12474,644;58,03043
 982,19; 7301,883;  251,669;12398,875;58,03980
 982,74; 7253,037;  227,438;12283,875;58,27259
 983,29; 7173,344;  207,054;12128,952;58,43273
 983,84; 7154,190;  221,054;12035,644;58,68283
 984,39; 7137,883;  266,592;12028,490;58,41991
 984,94; 7018,267;  188,900;11850,106;58,56485
 985,49; 7036,267;  232,669;11772,952;58,95521
 986,03; 7021,267;  234,131;11732,337;59,02779
 986,58; 6960,267;  250,900;11542,798;59,41753
 987,13; 6863,190;  218,746;11436,337;59,23237
 987,68; 6850,037;  237,900;11319,337;59,66859
 988,23; 6840,575;  229,131;11326,337;59,57756
 988,78; 6758,113;  211,592;11094,567;60,15378
 989,33; 6701,498;  234,285;11014,798;59,98985
 989,88; 6697,037;  247,900;10998,183;59,99039
 990,42; 6608,190;  212,823;10821,875;60,28218
 990,97; 6529,806;  206,592;10711,413;60,19344
 991,52; 6504,729;  241,977;10690,260;59,94049
 992,07; 6488,037;  240,592;10568,413;60,49141
 992,62; 6477,883;  222,746;10467,337;61,05795
 993,17; 6378,498;  239,285;10346,567;60,74049
 993,71; 6330,575;  229,977;10217,106;61,08460
 994,26; 6247,498;  208,362;10090,029;61,11455
 994,81; 6269,344;  248,823;10088,567;61,18575
 995,36; 6189,960;  207,977; 9906,567;61,67889
 995,91; 6170,883;  221,823; 9849,644;61,79030
 996,45; 6096,344;  221,592; 9761,029;61,58385
 997,00; 5994,421;  196,746; 9621,875;61,51295
 997,55; 5950,960;  225,900; 9569,875;61,27007
 998,10; 5933,960;  250,131; 9448,567;61,79125
 998,65; 5890,421;  215,054; 9386,490;61,88090
 999,19; 5852,883;  236,208; 9250,106;62,31128
 999,74; 5783,037;  254,362; 9150,337;62,14805
1000,29; 5738,883;  231,285; 9101,337;62,09206
1000,84; 5626,267;  219,746; 8956,490;61,88256
1001,38; 5598,498;  224,054; 8857,413;62,25206
1001,93; 5575,960;  236,438; 8790,413;62,42152
1002,48; 5458,960;  209,208; 8639,260;62,27425
1003,03; 5490,883;  239,054; 8581,644;62,95202
1003,57; 5418,267;  233,285; 8459,106;63,03301
1004,12; 5374,113;  256,362; 8424,029;62,65867
1004,67; 5290,344;  213,669; 8306,798;62,72821
1005,22; 5207,729;  217,438; 8128,567;63,07937
1005,76; 5114,652;  208,285; 8041,413;62,63611
1006,31; 5135,575;  238,054; 8020,952;62,92670
1006,86; 5055,729;  216,592; 7854,721;63,35500
1007,40; 4988,575;  207,362; 7722,183;63,62378
1007,95; 4915,806;  226,823; 7679,875;62,91359
1008,50; 4867,729;  229,208; 7576,260;63,13445
1009,04; 4850,421;  223,515; 7426,952;64,23192
1009,59; 4726,344;  230,362; 7305,260;63,54837
1010,14; 4683,421;  216,515; 7213,798;63,83772
1010,68; 4619,344;  222,592; 7073,029;64,18207
1011,23; 4545,421;  223,054; 6976,337;64,00394
1011,78; 4479,806;  226,362; 6949,567;63,26512
1012,32; 4454,113;  234,208; 6817,106;64,10407
1012,87; 4459,806;  244,592; 6759,875;64,69732
1013,42; 4398,498;  217,054; 6651,798;64,98229
1013,96; 4373,037;  248,054; 6665,644;64,27619
1014,51; 4322,190;  187,438; 6541,644;65,07111
1015,06; 4359,421;  190,823; 6563,413;65,41450
1015,60; 4404,729;  268,977; 6603,875;65,28522
1016,15; 4364,190;  217,131; 6581,029;65,16540
1016,69; 4349,421;  219,362; 6592,183;64,80740
1017,24; 4361,267;  203,515; 6614,952;64,84899
1017,79; 4481,883;  242,362; 6666,260;65,99608
1018,33; 4445,498;  218,669; 6645,952;65,76385
1018,88; 4456,883;  224,515; 6727,644;65,08202
1019,42; 4458,652;  219,669; 6695,029;65,46328
1019,97; 4452,806;  216,131; 6701,798;65,32366
1020,51; 4549,190;  232,438; 6727,798;66,45901
1021,06; 4474,421;  198,900; 6726,721;65,49691
1021,61; 4483,421;  191,669; 6679,337;66,15247
1022,15; 4447,652;  171,131; 6656,260;65,94350
1022,70; 4448,883;  215,977; 6651,106;65,77810
1023,24; 4415,190;  211,131; 6634,260;65,45190
1023,79; 4393,113;  225,977; 6554,644;65,84540
1024,33; 4376,267;  204,977; 6513,875;66,11757
1024,88; 4324,190;  223,362; 6409,490;66,29071
1025,42; 4236,344;  228,515; 6312,798;65,87184
1025,97; 4188,729;  210,746; 6220,798;66,18882
1026,51; 4112,498;  183,746; 6119,721;66,18545
1027,06; 4101,806;  211,592; 6090,644;66,17076
1027,60; 4030,575;  217,669; 5963,106;66,36407
1028,15; 3981,037;  215,977; 5864,260;66,65848
1028,69; 3875,806;  182,823; 5754,875;66,27689
1029,24; 3850,344;  192,054; 5702,260;66,39118
1029,78; 3787,344;  197,669; 5573,337;66,77636
1030,33; 3719,421;  186,669; 5471,413;66,84812
1030,87; 3699,113;  206,669; 5435,260;66,79514
1031,42; 3595,498;  196,208; 5321,952;66,31799
1031,96; 3620,190;  210,977; 5266,721;67,43247
1032,51; 3566,421;  196,515; 5181,029;67,60752
1033,05; 3536,344;  223,823; 5123,183;67,61131
1033,60; 3405,806;  176,285; 5016,413;66,72387
1034,14; 3410,267;  207,438; 4937,798;67,70794
1034,69; 3361,037;  207,977; 4890,952;67,33027
1035,23; 3328,652;  214,669; 4825,644;67,53415
1035,77; 3278,190;  208,823; 4753,567;67,53663
1036,32; 3244,113;  182,515; 4679,183;68,08594
1036,86; 3236,037;  208,823; 4631,029;68,45483
1037,41; 3171,190;  225,900; 4570,106;67,79813
1037,95; 3111,344;  197,285; 4478,875;68,06021
1038,50; 3102,113;  206,208; 4419,413;68,73402
1039,04; 3046,344;  229,823; 4396,106;67,60274
1039,58; 3003,652;  191,977; 4271,952;68,91403
1040,13; 2955,113;  205,900; 4232,644;68,27385
1040,67; 2972,575;  231,515; 4220,952;68,70794
1041,21; 2910,652;  240,362; 4134,490;68,57221
1041,76; 2815,806;  191,054; 4041,798;68,16220
1042,30; 2774,498;  210,131; 4005,567;67,56449
1042,85; 2746,883;  202,285; 3944,952;67,98889
1043,39; 2702,421;  182,977; 3902,567;67,73445
1043,93; 2682,421;  230,592; 3840,952;67,91093
1044,48; 2670,652;  218,131; 3782,029;68,81569
1045,02; 2607,883;  205,592; 3719,337;68,36839
1045,56; 2598,190;  227,592; 3712,721;68,02039
1046,11; 2545,190;  217,054; 3637,952;68,05630
1046,65; 2533,421;  222,285; 3593,260;68,55988
1047,19; 2498,037;  203,131; 3541,952;68,73401
1047,74; 2453,883;  196,438; 3461,106;69,14776
1048,28; 2422,113;  217,900; 3456,183;68,06736
1048,82; 2443,652;  232,746; 3444,875;68,82992
1049,37; 2408,190;  214,131; 3353,260;69,89390
1049,91; 2349,960;  210,592; 3303,337;69,17375
1050,45; 2336,498;  233,823; 3275,260;69,13427
1050,99; 2306,960;  223,592; 3208,875;69,78794
1051,54; 2248,421;  200,054; 3155,490;69,30845
1052,08; 2265,421;  233,823; 3143,798;69,81497
1052,62; 2237,267;  228,746; 3106,183;69,80245
1053,16; 2172,498;  202,515; 3023,413;69,83530
1053,71; 2197,883;  218,208; 2998,490;71,20409
1054,25; 2125,883;  229,669; 2944,260;69,85266
1054,79; 2102,190;  224,208; 2919,337;69,68063
1055,33; 2054,729;  200,208; 2847,183;70,06191
1055,88; 2063,267;  217,208; 2836,875;70,46924
1056,42; 2056,652;  237,054; 2800,260;70,98915
1056,96; 2009,729;  222,438; 2756,413;70,53307
1057,50; 1993,421;  224,977; 2719,875;70,88242
1058,05; 1953,421;  211,515; 2668,337;70,90080
1058,59; 1952,883;  236,669; 2644,798;71,26751
1059,13; 1887,960;  207,208; 2565,798;71,26087
1059,67; 1886,037;  228,592; 2571,875;70,73172
1060,21; 1859,575;  213,438; 2509,644;71,68942
1060,76; 1835,267;  221,131; 2466,567;71,88520
1061,30; 1807,498;  252,285; 2455,183;70,59852
1061,84; 1774,729;  222,362; 2384,798;71,78788
1062,38; 1741,575;  204,592; 2356,798;71,41430
1062,92; 1784,883;  261,438; 2380,798;71,88229
1063,46; 1739,037;  242,054; 2309,490;72,40767
1064,01; 1679,806;  219,977; 2266,490;71,33248
1064,55; 1678,729;  236,362; 2241,875;71,92010
1065,09; 1612,190;  195,515; 2187,413;71,12186
1065,63; 1654,267;  237,438; 2210,337;71,81460
1066,17; 1656,729;  246,746; 2165,106;73,49939
1066,71; 1601,190;  245,977; 2155,260;70,98024
1067,25; 1562,806;  211,977; 2073,567;72,56316
1067,80; 1570,421;  233,977; 2083,337;72,26524
1068,34; 1561,806;  256,823; 2076,721;71,70636
1068,88; 1514,344;  225,285; 2010,721;72,19857
1069,42; 1539,344;  246,669; 2016,644;73,03352
1069,96; 1484,421;  218,900; 1972,798;72,15477
1070,50; 1507,267;  253,900; 1974,490;72,84519
1071,04; 1437,267;  219,592; 1929,106;71,22933
1071,58; 1449,344;  221,054; 1891,952;73,51079
1072,12; 1429,113;  225,054; 1878,337;72,82842
1072,66; 1418,806;  219,438; 1877,798;72,32251
1073,21; 1415,729;  251,208; 1844,644;73,08237
1073,75; 1396,190;  235,977; 1817,567;73,35739
1074,29; 1400,113;  231,592; 1802,798;74,37098
1074,83; 1386,113;  248,362; 1780,183;74,27446
1075,37; 1357,498;  234,900; 1765,567;73,34044
1075,91; 1355,575;  239,669; 1729,644;74,89426
1076,45; 1324,267;  234,438; 1726,875;73,02346
1076,99; 1328,344;  239,131; 1711,875;73,95809
1077,53; 1275,498;  224,669; 1659,798;73,22192
1078,07; 1295,960;  237,438; 1644,413;75,23383
1078,61; 1271,729;  235,054; 1618,721;74,92227
1079,15; 1240,652;  228,054; 1603,183;73,63660
1079,69; 1241,498;  227,669; 1595,106;74,14083
1080,23; 1249,344;  247,592; 1583,106;75,00875
1080,77; 1257,190;  272,669; 1589,413;74,76935
1081,31; 1196,267;  232,362; 1519,106;74,91044
1081,85; 1212,267;  245,592; 1513,413;76,24695
1082,39; 1180,729;  228,592; 1497,413;75,04104
1082,93; 1187,575;  231,977; 1490,106;75,95391
1083,47; 1140,729;  219,362; 1442,952;75,30031
1084,01; 1175,190;  242,823; 1471,644;75,87494
1084,55; 1146,113;  219,823; 1425,567;76,82312
1085,09; 1133,883;  251,362; 1429,721;74,89404
1085,63; 1093,498;  232,131; 1402,721;73,58401
1086,17; 1085,883;  233,669; 1392,798;73,52189
1086,71; 1062,652;  223,592; 1361,029;73,76760
1087,24; 1099,421;  259,977; 1383,490;74,71599
1087,78; 1078,037;  244,515; 1349,875;75,40724
1088,32; 1027,652;  219,285; 1303,106;74,58494
1088,86; 1062,498;  245,592; 1337,952;74,78359
1089,40; 1018,344;  232,362; 1287,183;74,51336
1089,94;  982,575;  205,900; 1253,952;74,10654
1090,48; 1010,729;  235,131; 1276,798;74,45737
1091,02;  991,113;  236,592; 1268,567;73,11429
1091,56;  992,421;  230,977; 1226,183;76,51124
1092,10;  950,806;  213,131; 1219,260;73,31814
1092,63;  980,652;  253,515; 1241,721;73,58149
1093,17;  960,113;  243,746; 1199,337;74,96594
1093,71;  926,421;  233,977; 1161,952;74,61885
1094,25;  941,190;  241,592; 1181,337;74,44558
1094,79;  922,498;  233,746; 1151,260;75,06723
1095,33;  906,729;  223,285; 1132,260;75,18845
1095,87;  903,190;  236,977; 1114,183;75,94723
1096,40;  868,498;  208,438; 1093,413;74,58511
1096,94;  875,575;  231,977; 1091,644;74,86595
1097,48;  870,267;  235,900; 1093,644;73,95763
1098,02;  852,806;  231,823; 1077,952;73,39103
1098,56;  818,883;  200,054; 1020,490;75,42678
1099,10;  814,652;  204,746; 1029,798;73,92332
1099,63;  824,883;  217,746; 1026,567;75,06437
1100,17;  846,498;  236,131; 1015,875;78,27789
1100,71;  833,652;  251,131; 1039,337;73,90471

