
Integration time [ms]: 120,000
Averaging Nr. [scans]: 13
Smoothing Nr. [pixels]: 0
Data measured with spectrometer [name]: 2009305U1
Wave   ;Sample   ;Dark     ;Reference;Reflectance
[nm]   ;[counts] ;[counts] ;[counts] ;[%]

 175,72;  207,438;  203,396;  206,415;133,87776
 176,32;  228,492;  232,238;  221,005; 0,00000
 176,92;  253,311;  247,318;  255,764;70,95118
 177,52;  259,087;  258,088;  254,242; 0,00000
 178,12;  230,121;  225,239;  236,618;42,90133
 178,72;  267,831;  252,468;  247,609; 0,00000
 179,32;  253,701;  251,777;  252,264; 0,00000
 179,92;  244,931;  252,009;  253,834;-387,87995
 180,52;  246,939;  243,091;  251,014;48,57141
 181,12;  262,528;  248,932;  250,733;755,07928
 181,73;  272,698;  266,394;  270,722;145,64628
 182,33;  347,158;  342,551;  361,599;24,18582
 182,93;  265,460;  265,011;  272,969; 5,63898
 183,53;  236,262;  234,237;  231,203; 0,00000
 184,13;  239,533;  243,468;  230,540; 0,00000
 184,73;  279,848;  267,775;  273,447;212,87018
 185,33;  262,404;  227,443;  345,598;29,58888
 185,93;  266,068;  241,133;  358,546;21,23698
 186,53;  290,430;  255,981;  380,144;27,74485
 187,13;  311,121;  272,984;  407,516;28,34780
 187,73;  263,634;  241,287;  363,269;18,31976
 188,33;  276,260;  240,209;  362,629;29,44915
 188,93;  275,640;  245,742;  378,979;22,43990
 189,53;  285,718;  251,815;  383,112;25,82154
 190,13;  315,278;  280,501;  415,888;25,68744
 190,73;  257,096;  224,505;  369,988;22,40218
 191,34;  298,290;  261,894;  396,267;27,08558
 191,94;  265,149;  239,284;  361,088;21,23483
 192,54;  289,834;  242,755;  397,442;30,43458
 193,14;  285,117;  262,137;  384,184;18,82841
 193,74;  295,637;  253,983;  388,973;30,85694
 194,34;  291,071;  249,600;  378,777;32,10442
 194,94;  251,951;  214,214;  353,835;27,02821
 195,54;  222,241;  216,674;  342,009; 4,44159
 196,14;  250,905;  221,292;  354,658;22,20379
 196,74;  248,287;  228,135;  356,800;15,66188
 197,34;  235,151;  197,833;  349,603;24,58845
 197,94;  258,177;  230,138;  376,501;19,15720
 198,54;  270,421;  232,908;  397,071;22,85116
 199,14;  251,121;  213,526;  383,801;22,07899
 199,74;  242,210;  193,603;  378,842;26,23995
 200,34;  239,369;  192,296;  402,209;22,42511
 200,94;  276,628;  230,602;  433,790;22,65196
 201,54;  259,147;  207,910;  427,072;23,37845
 202,14;  289,139;  243,066;  476,318;19,75228
 202,74;  264,658;  210,218;  468,075;21,11247
 203,34;  244,200;  190,452;  474,780;18,90374
 203,94;  226,582;  167,682;  479,987;18,85990
 204,54;  300,784;  239,446;  569,638;18,57668
 205,14;  264,176;  207,834;  575,137;15,33939
 205,74;  324,715;  243,298;  662,389;19,42714
 206,34;  291,566;  200,681;  678,382;19,02550
 206,94;  301,472;  213,758;  737,667;16,74230
 207,54;  286,938;  183,758;  755,999;18,03081
 208,14;  300,075;  198,681;  854,932;15,45040
 208,74;  317,086;  205,295;  920,831;15,62335
 209,34;  317,047;  200,757;  996,638;14,61145
 209,94;  350,924;  219,757; 1096,814;14,95538
 210,54;  358,268;  205,913; 1200,696;15,31542
 211,14;  373,670;  223,603; 1269,731;14,34498
 211,73;  384,924;  203,679; 1406,089;15,07345
 212,33;  412,231;  221,832; 1487,287;15,04590
 212,93;  412,909;  198,834; 1587,825;15,41225
 213,53;  408,251;  176,295; 1656,334;15,67231
 214,13;  443,742;  210,145; 1766,419;15,01001
 214,73;  433,677;  184,758; 1744,780;15,95611
 215,33;  401,001;  171,219; 1778,968;14,29219
 215,93;  468,340;  212,529; 1866,132;15,46993
 216,53;  447,786;  154,218; 1934,078;16,49387
 217,13;  525,565;  221,836; 2160,304;15,66852
 217,73;  528,286;  194,452; 2358,138;15,42898
 218,33;  532,626;  151,069; 2513,919;16,14819
 218,93;  623,569;  181,610; 2817,997;16,76380
 219,53;  681,022;  188,915; 3082,652;17,00595
 220,13;  714,658;  159,762; 3367,589;17,29819
 220,73;  791,486;  178,449; 3702,204;17,39726
 221,32;  852,932;  179,065; 4090,215;17,22939
 221,92;  923,062;  187,992; 4480,570;17,12420
 222,52;  987,530;  172,221; 4890,290;17,28057
 223,12; 1071,335;  186,144; 5324,030;17,22869
 223,72; 1152,808;  197,067; 5776,609;17,12937
 224,32; 1210,965;  193,452; 6174,831;17,01133
 224,92; 1234,151;  171,452; 6496,656;16,80102
 225,52; 1326,869;  211,604; 6849,016;16,80270
 226,12; 1354,531;  183,990; 7219,368;16,63794
 226,72; 1396,583;  162,297; 7536,482;16,73793
 227,31; 1448,924;  168,297; 7998,538;16,35488
 227,91; 1537,711;  189,296; 8323,145;16,57782
 228,51; 1576,763;  185,371; 8784,073;16,18142
 229,11; 1667,109;  174,066; 9235,022;16,47776
 229,71; 1686,929;  172,064; 9534,301;16,18059
 230,31; 1741,786;  169,222; 9935,594;16,10183
 230,91; 1795,245;  162,986;10333,594;16,04879
 231,51; 1823,550;  171,759;10659,579;15,74961
 232,10; 1891,824;  169,761;10995,785;15,90670
 232,70; 1936,302;  184,446;11237,239;15,84990
 233,30; 2001,997;  202,528;11520,547;15,89915
 233,90; 1991,260;  174,836;11631,141;15,85524
 234,50; 1995,066;  177,682;11734,915;15,72508
 235,10; 1992,920;  166,529;11775,656;15,73237
 235,70; 2041,677;  196,219;11812,901;15,88627
 236,29; 2018,656;  188,757;11778,545;15,78889
 236,89; 1946,809;  152,755;11704,249;15,53092
 237,49; 1999,971;  191,682;11622,550;15,81935
 238,09; 1936,797;  177,297;11388,459;15,69418
 238,69; 1904,301;  211,139;11131,546;15,50457
 239,29; 1832,969;  168,219;10801,560;15,65594
 239,89; 1781,007;  188,678;10452,500;15,51399
 240,48; 1700,291;  171,297;10068,285;15,44909
 241,08; 1647,197;  182,065; 9752,646;15,30870
 241,68; 1609,150;  194,912; 9398,898;15,36550
 242,28; 1519,368;  172,221; 9078,164;15,12639
 242,88; 1518,061;  212,607; 8743,230;15,30316
 243,48; 1478,728;  218,297; 8428,893;15,35127
 244,07; 1425,436;  194,296; 8176,201;15,42413
 244,67; 1385,560;  195,374; 8034,323;15,18298
 245,27; 1368,385;  206,525; 7879,781;15,14168
 245,87; 1368,080;  198,991; 7804,792;15,37101
 246,47; 1337,507;  189,987; 7771,725;15,13531
 247,06; 1340,101;  173,066; 7771,896;15,35809
 247,66; 1360,030;  181,066; 7821,219;15,43116
 248,26; 1385,313;  216,141; 7971,037;15,07656
 248,86; 1428,530;  198,756; 8097,577;15,56908
 249,46; 1434,769;  147,067; 8322,076;15,75169
 250,05; 1522,114;  198,220; 8709,433;15,55471
 250,65; 1559,173;  172,217; 9080,959;15,56848
 251,25; 1658,734;  179,758; 9489,151;15,88693
 251,85; 1740,479;  191,293;10093,892;15,64423
 252,44; 1846,118;  155,911;10660,272;16,09053
 253,04; 2025,871;  205,526;11430,743;16,21656
 253,64; 2130,630;  146,140;12067,396;16,64665
 254,24; 2347,948;  203,681;13054,776;16,68548
 254,84; 2515,461;  172,836;13907,999;17,05568
 255,43; 2695,933;  179,526;14928,557;17,06151
 256,03; 2888,358;  191,756;15909,828;17,15606
 256,63; 3098,149;  184,755;16890,074;17,43992
 257,23; 3285,195;  177,294;17824,052;17,61174
 257,82; 3500,044;  188,754;18820,164;17,77262
 258,42; 3650,529;  151,599;19574,214;18,01472
 259,02; 3934,991;  195,757;20491,653;18,42360
 259,62; 4072,941;  176,906;21225,981;18,50929
 260,21; 4232,756;  185,449;21823,782;18,70434
 260,81; 4368,277;  179,143;22350,439;18,89440
 261,41; 4458,953;  164,907;22820,132;18,95389
 262,01; 4609,955;  208,598;23240,750;19,10962
 262,60; 4718,118;  171,217;23577,206;19,42623
 263,20; 4835,198;  188,064;23878,768;19,61585
 263,80; 4905,536;  194,983;24112,198;19,69524
 264,40; 4987,475;  167,598;24287,495;19,98299
 264,99; 5004,193;  191,675;24467,920;19,82398
 265,59; 5082,826;  174,442;24619,032;20,07963
 266,19; 5110,471;  161,444;24758,239;20,12062
 266,78; 5239,764;  208,366;24913,405;20,36588
 267,38; 5223,183;  184,212;24901,804;20,38618
 267,98; 5216,480;  181,597;24907,718;20,36261
 268,58; 5287,601;  185,827;25016,167;20,54653
 269,17; 5265,459;  170,364;24988,792;20,52948
 269,77; 5245,780;  186,062;24752,107;20,59639
 270,37; 5193,775;  167,136;24681,907;20,50453
 270,96; 5216,407;  223,600;24538,654;20,53381
 271,56; 5135,028;  170,217;24297,592;20,57750
 272,16; 5062,786;  182,753;24038,749;20,45621
 272,75; 5084,062;  186,292;24019,881;20,54986
 273,35; 5030,541;  174,908;23944,212;20,42817
 273,95; 5034,305;  185,984;23884,307;20,45850
 274,54; 5051,541;  168,143;23891,727;20,58457
 275,14; 5125,696;  208,216;24297,630;20,41345
 275,74; 5106,775;  157,446;24328,050;20,47665
 276,33; 5198,252;  205,139;24746,269;20,34590
 276,93; 5291,745;  185,143;25131,191;20,47058
 277,53; 5397,360;  174,218;25555,741;20,57852
 278,12; 5449,572;  160,371;26123,189;20,37221
 278,72; 5658,225;  206,833;26741,722;20,54424
 279,32; 5751,552;  180,295;27291,472;20,54967
 279,91; 5903,118;  163,910;28007,777;20,61211
 280,51; 5996,053;  182,218;28570,005;20,48006
 281,11; 6201,381;  180,602;29225,449;20,72925
 281,70; 6302,411;  160,371;29692,206;20,79803
 282,30; 6455,489;  180,755;30403,438;20,76167
 282,90; 6561,192;  172,447;30816,138;20,84848
 283,49; 6743,860;  182,677;31264,176;21,10961
 284,09; 6923,574;  211,832;31783,103;21,25902
 284,69; 7008,320;  213,833;32162,515;21,26688
 285,28; 7157,793;  190,986;32511,908;21,55510
 285,88; 7323,027;  235,753;32632,603;21,87643
 286,47; 7359,026;  192,216;32827,020;21,96063
 287,07; 7498,156;  209,833;32883,815;22,30620
 287,67; 7584,113;  199,990;33014,893;22,50235
 288,26; 7687,177;  171,910;32884,291;22,97377
 288,86; 7823,102;  176,063;33004,788;23,29374
 289,46; 8045,988;  196,833;33129,167;23,83419
 290,05; 8179,722;  174,450;33145,879;24,27942
 290,65; 8428,364;  188,755;33413,316;24,79975
 291,24; 8605,774;  188,295;33554,191;25,22779
 291,84; 8854,072;  200,447;33571,997;25,93114
 292,44; 9094,237;  179,759;33788,751;26,52409
 293,03; 9281,367;  244,449;33928,526;26,82846
 293,63; 9404,225;  182,601;34108,963;27,18129
 294,22; 9618,404;  197,217;34208,344;27,70031
 294,82; 9707,246;  180,137;34351,144;27,88068
 295,41; 9743,565;  168,525;33973,437;28,32440
 296,01; 9868,288;  218,599;33979,053;28,58282
 296,61; 9871,586;  203,987;33634,331;28,91863
 297,20; 9783,422;  190,446;33442,533;28,84925
 297,80; 9802,981;  200,758;33170,755;29,12412
 298,39; 9684,248;  175,370;32777,584;29,16636
 298,99; 9717,912;  203,446;32677,521;29,29865
 299,58; 9665,702;  190,989;32559,281;29,27159
 300,18; 9599,076;  207,758;32312,702;29,25194
 300,78; 9418,978;  185,142;31897,885;29,11712
 301,37; 9441,606;  205,521;31938,182;29,10593
 301,97; 9443,482;  193,141;31873,378;29,19909
 302,56; 9408,398;  185,139;31812,098;29,16265
 303,16; 9354,941;  165,600;31709,432;29,13197
 303,75; 9300,366;  178,219;31737,295;28,90499
 304,35; 9332,686;  172,683;31988,324;28,79088
 304,94; 9307,176;  186,448;32052,335;28,62223
 305,54; 9241,163;  203,603;31958,446;28,46041
 306,13; 9213,577;  150,452;31881,840;28,56202
 306,73; 9113,863;  169,221;31632,912;28,42846
 307,33; 9065,430;  198,066;31628,713;28,21247
 307,92; 8999,258;  189,987;31616,393;28,03143
 308,52; 9076,973;  168,370;32189,992;27,82059
 309,11; 9162,977;  185,214;32645,139;27,65799
 309,71; 9226,054;  157,983;32939,798;27,66189
 310,30; 9274,904;  170,833;33093,031;27,65329
 310,90; 9337,289;  218,295;33487,954;27,40934
 311,49; 9275,891;  185,372;33619,494;27,18935
 312,09; 9243,120;  148,527;33792,185;27,03212
 312,68; 9349,251;  230,988;34163,564;26,87171
 313,28; 9254,027;  162,526;34301,316;26,63100
 313,87; 9267,266;  163,064;34460,179;26,54509
 314,47; 9239,213;  174,369;34707,813;26,24947
 315,06; 9207,446;  158,449;34834,406;26,09588
 315,66; 9190,966;  167,681;35121,185;25,81511
 316,25; 9091,339;  153,908;35029,122;25,62688
 316,85; 9018,385;  141,065;35072,352;25,41366
 317,44; 9010,814;  178,753;35374,627;25,09402
 318,04; 8915,006;  150,217;35390,466;24,87153
 318,63; 8829,500;  151,836;35376,884;24,63492
 319,22; 8790,715;  180,832;35541,149;24,34900
 319,82; 8688,199;  175,371;35624,692;24,01408
 320,41; 8598,222;  191,832;35502,126;23,80719
 321,01; 8587,480;  197,834;35601,991;23,69678
 321,60; 8509,585;  173,294;35642,649;23,50280
 322,20; 8367,259;  170,064;35616,966;23,12528
 322,79; 8342,468;  203,834;35745,763;22,89868
 323,39; 8250,715;  178,452;35765,620;22,68307
 323,98; 8162,470;  167,834;35687,523;22,50762
 324,58; 8071,841;  167,216;35551,964;22,33907
 325,17; 7933,978;  174,139;35381,820;22,04019
 325,76; 7826,286;  193,295;35215,578;21,79467
 326,36; 7700,875;  157,757;34847,075;21,74478
 326,95; 7579,784;  196,525;34498,088;21,52456
 327,55; 7362,681;  161,217;34156,630;21,18363
 328,14; 7245,577;  165,758;33819,620;21,03716
 328,74; 7142,232;  194,755;33386,749;20,93118
 329,33; 6981,973;  198,757;33012,783;20,67170
 329,92; 6781,825;  159,215;32478,557;20,49117
 330,52; 6620,645;  187,220;31800,031;20,35069
 331,11; 6491,607;  184,140;31400,313;20,20577
 331,71; 6272,349;  183,371;30765,546;19,91022
 332,30; 6140,252;  193,295;30257,873;19,78061
 332,89; 6030,960;  228,219;29819,246;19,60980
 333,49; 5854,422;  194,910;29188,214;19,52007
 334,08; 5698,274;  180,678;28766,581;19,30181
 334,68; 5563,572;  175,909;28253,189;19,18869
 335,27; 5461,023;  206,066;27924,741;18,95818
 335,86; 5424,991;  232,909;27733,005;18,88023
 336,46; 5281,947;  197,451;27428,390;18,67176
 337,05; 5196,562;  173,756;27255,369;18,54693
 337,65; 5112,517;  161,525;27009,238;18,44102
 338,24; 5168,481;  227,218;27063,684;18,41249
 338,83; 5049,306;  206,680;26875,977;18,15806
 339,43; 5022,417;  176,831;26789,771;18,20763
 340,02; 4931,063;  176,370;26769,914;17,87912
 340,61; 4952,500;  172,526;26764,973;17,97493
 341,21; 4955,463;  209,062;26772,672;17,86806
 341,80; 4912,076;  175,909;26746,022;17,82517
 342,40; 4885,008;  185,374;26814,170;17,64869
 342,99; 4895,036;  176,526;26901,323;17,65593
 343,58; 4900,050;  175,680;27040,321;17,58583
 344,18; 4929,722;  191,681;27106,032;17,60415
 344,77; 4927,073;  176,600;27457,383;17,41326
 345,36; 5011,938;  156,525;27770,780;17,58299
 345,96; 5053,940;  205,142;28138,496;17,35845
 346,55; 5041,178;  180,606;28308,423;17,28030
 347,14; 5121,229;  163,835;28633,240;17,41306
 347,74; 5156,731;  152,454;29076,026;17,30172
 348,33; 5321,727;  182,223;29727,617;17,39528
 348,92; 5378,074;  190,685;30325,106;17,21416
 349,52; 5443,220;  152,146;30821,826;17,25181
 350,11; 5508,323;  176,139;31060,441;17,26503
 350,70; 5529,203;  182,910;31140,750;17,26959
 351,29; 5482,181;  165,905;30902,230;17,29640
 351,89; 5510,724;  179,830;30893,167;17,35694
 352,48; 5516,752;  146,680;30871,449;17,47799
 353,07; 5515,002;  187,297;30848,418;17,37609
 353,67; 5491,307;  195,993;30772,174;17,31843
 354,26; 5473,405;  187,758;30523,596;17,42377
 354,85; 5448,759;  185,373;30321,267;17,46550
 355,45; 5427,590;  152,986;30321,444;17,48384
 356,04; 5428,675;  167,759;30123,284;17,56242
 356,63; 5472,401;  204,679;29949,660;17,70962
 357,22; 5426,862;  180,136;29745,530;17,74617
 357,82; 5376,728;  185,906;29537,851;17,68476
 358,41; 5417,647;  206,371;29434,573;17,82962
 359,00; 5373,055;  172,062;29247,897;17,88768
 359,60; 5415,382;  184,911;29215,097;18,01735
 360,19; 5394,436;  183,298;29049,190;18,05293
 360,78; 5371,011;  187,602;28855,756;18,08072
 361,37; 5377,638;  172,063;28623,643;18,29626
 361,97; 5409,381;  181,448;28507,987;18,45595
 362,56; 5356,828;  173,062;28250,966;18,46208
 363,15; 5368,350;  220,524;27987,393;18,53945
 363,74; 5287,632;  178,215;27757,057;18,52658
 364,34; 5272,867;  202,985;27318,422;18,69740
 364,93; 5169,572;  171,985;26938,465;18,67107
 365,52; 5138,684;  148,986;26498,236;18,93677
 366,11; 5109,154;  175,985;26150,100;18,99263
 366,71; 5055,484;  169,832;25798,995;19,06286
 367,30; 5086,663;  184,140;25445,760;19,40700
 367,89; 5117,264;  207,758;25249,023;19,60566
 368,48; 5019,732;  194,215;24893,140;19,53736
 369,07; 4972,434;  177,064;24550,211;19,67481
 369,67; 4962,208;  202,677;24224,249;19,81357
 370,26; 4891,457;  176,064;23890,986;19,88365
 370,85; 4875,431;  189,986;23657,110;19,96599
 371,44; 4875,941;  174,602;23421,233;20,22374
 372,03; 4863,120;  166,216;23182,548;20,40683
 372,63; 4844,126;  158,525;22892,871;20,61023
 373,22; 4845,344;  169,218;22610,905;20,83678
 373,81; 4787,562;  159,679;22294,369;20,90783
 374,40; 4756,060;  170,066;22019,746;20,98884
 374,99; 4729,854;  172,909;21755,688;21,11380
 375,59; 4699,926;  158,989;21481,419;21,29653
 376,18; 4767,208;  192,448;21318,589;21,65450
 376,77; 4701,361;  191,064;21097,972;21,57324
 377,36; 4748,287;  199,909;21033,349;21,83210
 377,95; 4739,354;  190,524;20770,462;22,10322
 378,55; 4736,095;  162,911;20590,145;22,38768
 379,14; 4745,265;  182,063;20548,838;22,40513
 379,73; 4760,146;  184,293;20439,314;22,59120
 380,32; 4817,250;  187,294;20454,344;22,84474
 380,91; 4767,438;  179,907;20352,292;22,74164
 381,50; 4824,147;  188,216;20279,700;23,07411
 382,10; 4815,865;  175,679;20164,497;23,21391
 382,69; 4835,122;  155,832;20101,000;23,46077
 383,28; 4878,777;  208,754;20160,886;23,40613
 383,87; 4836,194;  176,139;19975,557;23,53632
 384,46; 4901,851;  165,906;19926,060;23,96714
 385,05; 4966,433;  200,446;19952,420;24,12917
 385,64; 4942,077;  174,370;19871,869;24,20463
 386,24; 4987,366;  157,675;19841,362;24,53651
 386,83; 5030,483;  197,137;19919,742;24,50663
 387,42; 5103,024;  197,832;20050,490;24,70799
 388,01; 5156,186;  178,443;20213,564;24,84509
 388,60; 5256,195;  176,214;20488,910;25,00889
 389,19; 5355,454;  164,518;20605,349;25,39494
 389,78; 5399,175;  172,749;20910,798;25,20211
 390,37; 5630,200;  225,675;21383,133;25,54430
 390,96; 5681,749;  188,522;21431,328;25,85924
 391,56; 5725,169;  189,825;21602,399;25,85091
 392,15; 5855,565;  165,826;21874,241;26,20983
 392,74; 5910,922;  149,899;22061,541;26,29206
 393,33; 6050,858;  184,055;22338,912;26,48089
 393,92; 6218,330;  177,820;22828,054;26,66864
 394,51; 6268,702;  155,593;22921,725;26,85177
 395,10; 6477,746;  194,047;23179,407;27,33783
 395,69; 6447,766;  187,124;23371,497;27,00371
 396,28; 6544,724;  186,815;23369,787;27,42491
 396,87; 6599,716;  191,042;23560,563;27,42322
 397,46; 6666,825;  190,808;23627,905;27,63148
 398,06; 6806,067;  204,728;23870,233;27,89435
 398,65; 6825,879;  183,259;23917,529;27,98746
 399,24; 6917,761;  194,643;24031,775;28,20439
 399,83; 6962,785;  168,478;24112,609;28,37567
 400,42; 7084,529;  199,083;24264,429;28,61145
 401,01; 7136,626;  181,764;24384,700;28,73561
 401,60; 7222,657;  179,749;24453,496;29,01451
 402,19; 7252,423;  207,813;24319,300;29,21682
 402,78; 7291,011;  206,487;24403,792;29,27815
 403,37; 7277,513;  193,161;24164,420;29,55352
 403,96; 7249,688;  184,448;24034,585;29,62348
 404,55; 7334,060;  190,886;23966,363;30,04429
 405,14; 7273,243;  171,788;23822,006;30,02701
 405,73; 7308,869;  189,302;23733,758;30,23883
 406,32; 7290,266;  186,747;23628,388;30,30300
 406,91; 7253,815;  186,343;23371,961;30,48214
 407,50; 7265,745;  195,718;23263,146;30,64940
 408,09; 7186,529;  173,403;22909,949;30,84517
 408,68; 7274,373;  186,244;22801,213;31,34264
 409,27; 7223,966;  164,327;22635,206;31,41683
 409,86; 7238,897;  174,265;22510,602;31,62842
 410,45; 7251,301;  214,355;22380,437;31,74646
 411,04; 7340,193;  209,214;22359,191;32,19407
 411,63; 7272,370;  195,846;22070,608;32,35017
 412,22; 7258,965;  197,631;21906,435;32,52751
 412,81; 7196,335;  209,406;21664,950;32,56468
 413,40; 7120,595;  212,874;21278,980;32,79069
 413,99; 7133,840;  244,026;20934,947;33,29873
 414,58; 6939,496;  181,873;20559,855;33,16140
 415,17; 6895,116;  182,713;20325,684;33,32380
 415,76; 6917,847;  181,169;20153,483;33,73008
 416,35; 6880,174;  182,018;20024,331;33,75693
 416,94; 6950,854;  201,555;20020,839;34,05420
 417,53; 7052,155;  182,406;20224,833;34,27603
 418,12; 7144,504;  183,100;20330,971;34,55156
 418,71; 7300,520;  195,643;20671,509;34,69879
 419,30; 7371,984;  176,793;20789,490;34,90660
 419,89; 7469,066;  171,178;20987,581;35,05835
 420,48; 7619,323;  209,336;21198,984;35,30306
 421,07; 7685,340;  192,337;21377,852;35,36852
 421,66; 7709,109;  161,571;21367,565;35,59153
 422,25; 7750,037;  173,808;21313,787;35,83840
 422,84; 7793,263;  220,963;21402,871;35,74891
 423,43; 7717,348;  191,883;21064,515;36,05422
 424,02; 7671,364;  212,500;20822,691;36,19018
 424,60; 7523,079;  183,353;20363,969;36,37018
 425,19; 7489,775;  198,734;20092,478;36,64992
 425,78; 7492,165;  209,658;20059,537;36,68792
 426,37; 7418,773;  216,045;19881,047;36,62714
 426,96; 7444,631;  198,506;19742,088;37,07675
 427,55; 7389,335;  190,434;19560,799;37,16451
 428,14; 7386,503;  183,820;19414,171;37,45477
 428,73; 7334,500;  194,817;19177,005;37,61254
 429,32; 7385,284;  206,121;19222,016;37,75348
 429,91; 7420,349;  231,432;19202,303;37,89450
 430,50; 7388,620;  203,511;19019,364;38,18646
 431,08; 7342,384;  212,744;18903,174;38,14594
 431,67; 7380,335;  237,131;18764,698;38,55446
 432,26; 7319,470;  253,594;18672,937;38,36117
 432,85; 7224,154;  262,670;18309,887;38,57372
 433,44; 7152,873;  263,981;17871,444;39,12484
 434,03; 7055,222;  277,831;17595,417;39,13589
 434,62; 6864,514;  235,750;17102,022;39,30189
 435,21; 6832,763;  252,901;16855,135;39,63239
 435,79; 6799,312;  241,214;16766,153;39,68607
 436,38; 6791,583;  233,064;16658,707;39,92854
 436,97; 6773,557;  238,680;16540,590;40,08657
 437,56; 6720,369;  249,762;16313,893;40,27984
 438,15; 6679,723;  210,222;16256,300;40,31827
 438,74; 6676,994;  246,531;16245,714;40,19245
 439,33; 6751,281;  224,684;16323,820;40,54005
 439,91; 6763,590;  198,225;16398,842;40,52540
 440,50; 6821,681;  241,071;16402,951;40,71686
 441,09; 6918,449;  241,613;16486,630;41,10083
 441,68; 6902,570;  225,077;16535,749;40,93941
 442,27; 6918,266;  213,384;16488,631;41,19681
 442,86; 6884,372;  187,775;16505,583;41,03858
 443,44; 6984,924;  199,774;16579,396;41,42434
 444,03; 7054,670;  263,545;16673,533;41,38410
 444,62; 7001,417;  201,391;16496,407;41,73071
 445,21; 6911,087;  217,467;16323,325;41,56016
 445,80; 6911,942;  233,471;16243,473;41,71437
 446,39; 6859,284;  261,316;15992,026;41,94323
 446,97; 6775,761;  193,936;15812,419;42,14125
 447,56; 6699,200;  201,708;15544,776;42,34806
 448,15; 6614,804;  198,936;15364,714;42,30490
 448,74; 6575,370;  212,475;15120,591;42,68075
 449,33; 6536,961;  198,246;14915,573;43,06975
 449,91; 6446,035;  192,865;14743,987;42,97380
 450,50; 6400,607;  187,018;14549,813;43,26169
 451,09; 6297,239;  218,096;14400,990;42,86250
 451,68; 6319,348;  228,943;14402,155;42,97124
 452,26; 6291,942;  216,330;14273,557;43,22056
 452,85; 6241,291;  198,790;14204,785;43,14225
 453,44; 6264,139;  220,257;14170,290;43,32522
 454,03; 6236,088;  187,254;14128,650;43,38758
 454,61; 6270,617;  191,026;14065,587;43,81825
 455,20; 6396,332;  228,797;14258,086;43,96185
 455,79; 6384,324;  214,948;14251,587;43,95194
 456,38; 6424,918;  216,723;14341,120;43,95370
 456,97; 6437,533;  197,107;14428,933;43,84839
 457,55; 6464,035;  197,801;14423,917;44,04740
 458,14; 6486,645;  229,721;14400,024;44,15519
 458,73; 6445,589;  210,263;14278,291;44,32267
 459,31; 6470,609;  239,035;14379,523;44,06901
 459,90; 6529,762;  245,418;14448,611;44,24599
 460,49; 6602,738;  274,263;14532,573;44,38447
 461,08; 6580,366;  212,114;14592,206;44,28519
 461,66; 6656,156;  218,574;14701,343;44,44994
 462,25; 6682,978;  214,577;14809,171;44,32053
 462,84; 6743,612;  235,037;14834,042;44,58232
 463,43; 6669,122;  175,657;14744,910;44,56965
 464,01; 6750,274;  207,428;14779,293;44,90054
 464,60; 6711,920;  250,887;14762,986;44,52170
 465,19; 6565,825;  189,967;14538,983;44,43411
 465,77; 6592,957;  215,199;14491,462;44,67386
 466,36; 6577,837;  235,349;14343,421;44,95645
 466,95; 6436,996;  204,350;14058,326;44,98814
 467,53; 6385,422;  214,278;13774,595;45,50885
 468,12; 6222,846;  228,432;13496,206;45,18025
 468,71; 6143,193;  217,737;13235,300;45,51893
 469,29; 5999,896;  195,741;12990,285;45,36430
 469,88; 5902,563;  203,434;12705,431;45,58575
 470,47; 5969,898;  265,975;12837,219;45,37278
 471,06; 5952,141;  206,283;12812,217;45,58058
 471,64; 6006,625;  221,359;12910,233;45,59321
 472,23; 5992,131;  182,211;12872,417;45,78270
 472,81; 6031,764;  185,747;13041,453;45,47411
 473,40; 6096,616;  199,288;13161,269;45,49712
 473,99; 6271,891;  284,057;13322,828;45,92330
 474,57; 6240,064;  200,596;13524,347;45,32859
 475,16; 6334,926;  216,055;13618,656;45,65436
 475,75; 6397,027;  222,829;13741,639;45,67117
 476,33; 6395,882;  228,985;13858,601;45,24630
 476,92; 6423,875;  226,750;13935,333;45,20617
 477,51; 6495,824;  214,676;13911,087;45,85981
 478,09; 6497,836;  214,061;13997,282;45,59003
 478,68; 6424,310;  221,523;13903,510;45,33542
 479,27; 6515,557;  247,752;13895,896;45,92423
 479,85; 6484,242;  209,523;13970,638;45,59746
 480,44; 6549,740;  205,293;14049,059;45,82891
 481,02; 7078,031;  227,911;15303,255;45,43923
 481,61; 8019,217;  236,525;17450,586;45,21125
 482,20; 8579,526;  222,911;18702,884;45,21985
 482,78; 8988,768;  249,216;19458,442;45,49664
 483,37; 9208,556;  228,144;20073,355;45,25229
 483,95; 9359,410;  264,607;20290,174;45,41596
 484,54; 9512,355;  265,371;20433,212;45,85014
 485,13; 9401,312;  235,532;20376,454;45,50824
 485,71; 9342,839;  213,685;20220,457;45,63032
 486,30; 9207,620;  247,070;19894,421;45,60691
 486,88; 9074,969;  273,609;19530,330;45,70539
 487,47; 8743,704;  261,225;18817,085;45,71321
 488,05; 8370,455;  240,995;18005,094;45,76342
 488,64; 7744,970;  239,767;16715,615;45,55276
 489,23; 6985,947;  251,842;14945,116;45,83121
 489,81; 5978,495;  248,304;12677,892;46,10121
 490,40; 5645,095;  202,689;12032,320;46,00655
 490,98; 5522,031;  200,844;11754,736;46,05537
 491,57; 5486,050;  234,227;11638,805;46,05013
 492,15; 5446,190;  215,460;11594,871;45,96662
 492,74; 5435,480;  215,534;11529,442;46,13743
 493,32; 5350,182;  233,536;11409,206;45,78380
 493,91; 5307,679;  208,538;11276,747;46,07015
 494,50; 5267,019;  221,388;11303,165;45,53088
 495,08; 5256,093;  209,234;11133,405;46,19902
 495,67; 5263,663;  226,768;11157,296;46,08098
 496,25; 5165,661;  175,848;11091,481;45,71254
 496,84; 5187,759;  188,537;11049,200;46,03054
 497,42; 5124,002;  177,772;11000,801;45,70098
 498,01; 5158,733;  217,923;10952,006;46,02918
 498,59; 5071,556;  188,387;10879,252;45,67609
 499,18; 5030,231;  191,923;10876,318;45,28388
 499,76; 5031,003;  215,078;10813,648;45,43938
 500,35; 4966,407;  202,235;10572,804;45,93935
 500,93; 4940,219;  194,002;10516,495;45,97937
 501,52; 4879,214;  196,849;10465,777;45,59741
 502,10; 4866,748;  215,314;10495,311;45,24742
 502,69; 4800,196;  197,392;10305,806;45,53438
 503,27; 4696,340;  182,696;10127,163;45,38849
 503,86; 4646,088;  199,084;10087,093;44,97371
 504,44; 4616,909;  174,778; 9992,777;45,24477
 505,03; 4487,854;  164,547; 9675,595;45,45564
 505,61; 4431,022;  191,239; 9624,748;44,94386
 506,19; 4374,732;  198,162; 9449,771;45,14425
 506,78; 4246,861;  170,396; 9229,137;45,00035
 507,36; 4211,192;  194,700; 9134,661;44,92740
 507,95; 4121,329;  181,013; 8946,263;44,95384
 508,53; 4104,497;  183,703; 8860,691;45,18612
 509,12; 4066,598;  191,320; 8715,883;45,46013
 509,70; 3982,014;  207,397; 8559,862;45,19165
 510,29; 3912,781;  205,245; 8401,244;45,23593
 510,87; 3815,914;  184,473; 8227,516;45,15009
 511,46; 3720,373;  173,473; 8038,943;45,09458
 512,04; 3657,681;  188,398; 7912,437;44,91540
 512,62; 3621,001;  184,319; 7804,754;45,09823
 513,21; 3524,256;  161,476; 7630,858;45,02086
 513,79; 3471,231;  181,404; 7489,410;45,01675
 514,38; 3389,824;  166,325; 7326,945;45,01705
 514,96; 3356,073;  211,940; 7244,507;44,70819
 515,54; 3283,340;  166,095; 7094,433;44,99267
 516,13; 3256,311;  197,480; 7026,710;44,79028
 516,71; 3171,766;  182,636; 6897,990;44,51188
 517,30; 3084,151;  171,945; 6780,825;44,06505
 517,88; 3083,490;  196,253; 6684,232;44,50133
 518,46; 3005,436;  168,100; 6554,929;44,42480
 519,05; 2966,904;  171,793; 6549,670;43,82510
 519,63; 2999,818;  189,946; 6433,740;45,00263
 520,22; 2932,329;  201,565; 6469,577;43,56667
 520,80; 2895,212;  178,642; 6342,966;44,06923
 521,38; 2913,534;  217,870; 6324,394;44,14399
 521,97; 2859,757;  178,720; 6246,476;44,18499
 522,55; 2839,614;  189,874; 6265,637;43,61164
 523,13; 2822,331;  176,721; 6252,248;43,54536
 523,72; 2798,236;  180,023; 6163,028;43,76084
 524,30; 2885,491;  208,030; 6362,032;43,50764
 524,89; 2846,332;  173,874; 6386,557;43,01617
 525,47; 2906,092;  205,031; 6514,802;42,80760
 526,05; 2886,624;  160,108; 6568,896;42,54340
 526,64; 2946,833;  196,955; 6676,188;42,44142
 527,22; 2979,366;  198,569; 6816,635;42,01827
 527,80; 3037,490;  233,647; 6913,910;41,97205
 528,39; 3072,483;  190,186; 7005,696;42,29026
 528,97; 3109,728;  190,494; 7176,310;41,78801
 529,55; 3197,914;  200,336; 7390,423;41,69043
 530,14; 3277,966;  210,572; 7594,744;41,54012
 530,72; 3284,124;  185,801; 7654,121;41,48621
 531,30; 3335,156;  167,726; 7810,517;41,44337
 531,89; 3361,035;  191,803; 7893,650;41,14898
 532,47; 3437,374;  218,265; 8050,398;41,10131
 533,05; 3432,709;  217,570; 8074,023;40,92355
 533,63; 3455,742;  207,419; 8137,561;40,96172
 534,22; 3430,885;  180,958; 8149,477;40,78458
 534,80; 3489,758;  211,114; 8273,232;40,66729
 535,38; 3571,182;  277,034; 8325,898;40,92687
 535,97; 3466,969;  198,342; 8260,998;40,54032
 536,55; 3532,817;  226,498; 8343,900;40,73124
 537,13; 3470,813;  219,495; 8297,624;40,24841
 537,71; 3524,315;  269,110; 8298,389;40,54168
 538,30; 3541,862;  255,266; 8423,966;40,23402
 538,88; 3580,090;  285,731; 8462,765;40,28795
 539,46; 3630,076;  328,883; 8646,701;39,68822
 540,05; 3662,411;  316,115; 8775,884;39,55540
 540,63; 3742,412;  361,038; 8905,380;39,57443
 541,21; 3791,319;  366,116; 9075,653;39,32703
 541,79; 3801,274;  390,654; 9170,864;38,84440
 542,38; 3843,989;  412,807; 9330,650;38,47548
 542,96; 3918,824;  408,656; 9479,706;38,69638
 543,54; 3984,227;  430,654; 9661,083;38,49846
 544,12; 3996,774;  388,578; 9823,594;38,24261
 544,70; 4016,244;  383,964; 9914,522;38,11193
 545,29; 4063,870;  407,499;10096,663;37,73670
 545,87; 4049,351;  399,039;10157,787;37,40554
 546,45; 4032,790;  363,730;10156,749;37,46608
 547,03; 4091,947;  342,500;10258,850;37,81076
 547,62; 4124,860;  326,885;10368,644;37,82181
 548,20; 4165,809;  355,117;10597,289;37,20590
 548,78; 4162,590;  317,044;10698,351;37,04298
 549,36; 4216,892;  292,275;10921,984;36,92121
 549,94; 4235,856;  272,117;11092,114;36,63346
 550,53; 4302,619;  286,274;11315,691;36,41485
 551,11; 4364,040;  254,584;11509,573;36,51231
 551,69; 4495,022;  268,198;11862,748;36,45527
 552,27; 4531,376;  233,119;12089,540;36,25257
 552,85; 4615,028;  233,430;12540,839;35,60130
 553,44; 4729,373;  233,736;12820,273;35,71782
 554,02; 4829,184;  257,814;13201,336;35,31782
 554,60; 4876,439;  201,584;13494,682;35,16753
 555,18; 5027,771;  243,121;13918,271;34,98791
 555,76; 5177,437;  226,198;14301,923;35,17573
 556,34; 5269,580;  233,662;14674,211;34,87345
 556,93; 5384,377;  219,583;15083,144;34,74803
 557,51; 5461,098;  203,278;15387,273;34,62738
 558,09; 5571,387;  224,198;15830,305;34,26344
 558,67; 5680,126;  233,048;16219,568;34,07294
 559,25; 5784,896;  242,355;16487,953;34,11719
 559,83; 5843,008;  229,280;16758,879;33,96167
 560,41; 5934,167;  208,585;17153,685;33,78901
 561,00; 6030,324;  222,125;17470,204;33,67447
 561,58; 6091,791;  212,662;17727,120;33,56729
 562,16; 6176,722;  210,584;18055,027;33,43415
 562,74; 6259,020;  190,352;18460,559;33,21620
 563,32; 6379,073;  199,511;18857,914;33,11946
 563,90; 6478,456;  216,125;19201,847;32,98442
 564,48; 6602,138;  227,123;19670,236;32,78804
 565,06; 6736,287;  217,279;20219,584;32,59129
 565,65; 6910,462;  216,513;20925,774;32,32346
 566,23; 7178,006;  264,433;21708,119;32,24060
 566,81; 7356,807;  213,740;22407,220;32,18543
 567,39; 7599,431;  225,819;23319,797;31,92872
 567,97; 7747,515;  237,202;24005,747;31,59770
 568,55; 8029,280;  245,895;24831,062;31,65886
 569,13; 8173,677;  215,279;25450,181;31,53727
 569,71; 8422,018;  209,660;26444,524;31,30322
 570,29; 8732,497;  258,736;27448,131;31,16568
 570,87; 8978,265;  261,737;28161,745;31,24203
 571,45; 9082,487;  235,433;28793,947;30,97869
 572,03; 9197,097;  196,281;29276,799;30,95136
 572,61; 9407,785;  194,587;30040,895;30,86880
 573,20; 9537,352;  215,047;30685,741;30,59433
 573,78; 9713,480;  222,049;31358,732;30,48311
 574,36; 9814,044;  223,818;31822,003;30,35056
 574,94; 9920,454;  267,050;32220,109;30,21120
 575,52; 9895,544;  221,130;32436,480;30,03045
 576,10;10100,332;  266,514;33090,274;29,95945
 576,68;10180,492;  249,665;33505,806;29,86163
 577,26;10371,844;  262,131;34187,650;29,79973
 577,84;10525,024;  272,818;34734,484;29,74960
 578,42;10521,310;  305,743;35110,116;29,35139
 579,00;10506,425;  248,049;35113,781;29,42252
 579,58;10517,180;  279,666;35455,584;29,10376
 580,16;10474,139;  258,975;35470,356;29,01097
 580,74;10451,988;  255,975;35730,039;28,74216
 581,32;10404,822;  251,512;35778,119;28,57945
 581,90;10355,259;  276,513;35652,497;28,49036
 582,48;10315,315;  277,975;35829,559;28,23317
 583,06;10337,412;  258,820;36024,002;28,17990
 583,64;10332,256;  246,897;36134,165;28,10289
 584,22;10178,550;  267,284;35945,573;27,77955
 584,80;10120,981;  274,897;35793,562;27,72087
 585,38; 9891,073;  275,124;35326,464;27,43390
 585,96; 9902,331;  257,434;35489,175;27,37559
 586,54; 9872,687;  277,592;35445,780;27,28345
 587,12; 9841,400;  234,744;35572,147;27,18552
 587,70; 9811,565;  277,511;35778,551;26,85570
 588,28; 9799,388;  256,591;35861,182;26,80215
 588,86; 9774,285;  268,360;35959,988;26,63349
 589,44; 9730,476;  243,978;36002,057;26,52966
 590,02; 9756,159;  264,362;36238,897;26,38476
 590,59; 9738,807;  235,515;36415,306;26,26685
 591,17; 9703,666;  257,750;36680,742;25,93394
 591,75; 9686,325;  235,287;36860,235;25,80492
 592,33; 9722,457;  263,440;37061,033;25,70553
 592,91; 9703,547;  203,519;37315,217;25,59847
 593,49; 9768,311;  222,059;37674,071;25,48929
 594,07; 9768,201;  239,520;37925,442;25,28446
 594,65; 9707,679;  250,284;37876,764;25,13495
 595,23; 9798,080;  239,978;38306,171;25,10916
 595,81; 9739,023;  245,286;38397,031;24,88415
 596,39; 9689,905;  226,671;38542,232;24,69815
 596,97; 9698,656;  223,750;38692,197;24,63033
 597,55; 9650,392;  234,515;38665,316;24,50086
 598,12; 9579,639;  222,521;38696,469;24,32066
 598,70; 9539,509;  211,365;38773,674;24,18980
 599,28; 9520,807;  239,442;39030,128;23,92679
 599,86; 9548,211;  232,673;38969,186;24,04847
 600,44; 9479,396;  189,904;39112,856;23,86636
 601,02; 9464,526;  254,677;39160,333;23,67226
 601,60; 9363,282;  236,826;39101,094;23,48290
 602,18; 9290,219;  195,367;39178,268;23,33036
 602,75; 9257,251;  220,516;39266,809;23,14364
 603,33; 9275,005;  217,289;39268,148;23,19467
 603,91; 9145,632;  206,829;39221,947;22,91112
 604,49; 9149,358;  232,750;39381,511;22,77622
 605,07; 9051,775;  238,056;39291,270;22,56848
 605,65; 9026,631;  248,982;39463,035;22,38394
 606,23; 9032,396;  287,053;39628,463;22,22936
 606,80; 8974,592;  305,901;39619,481;22,05012
 607,38; 8932,373;  334,752;39785,301;21,79341
 607,96; 8858,865;  359,593;39643,237;21,63565
 608,54; 8855,587;  403,905;39804,091;21,45087
 609,12; 8819,504;  378,670;39785,242;21,41986
 609,70; 8773,572;  418,827;39870,257;21,17729
 610,27; 8698,466;  418,132;39954,589;20,94354
 610,85; 8656,735;  425,980;39954,538;20,82230
 611,43; 8629,949;  431,904;39861,625;20,79154
 612,01; 8460,562;  413,517;39660,987;20,50335
 612,59; 8460,088;  409,827;39664,131;20,50797
 613,16; 8401,364;  381,284;39732,901;20,38056
 613,74; 8291,302;  375,981;39599,910;20,17983
 614,32; 8225,918;  345,213;39499,943;20,12708
 614,90; 8169,352;  337,595;39429,573;20,03418
 615,48; 8070,568;  297,362;39101,288;20,03201
 616,05; 7986,876;  277,207;39046,981;19,88577
 616,63; 7928,493;  278,976;38958,059;19,77688
 617,21; 7848,444;  295,285;38882,617;19,57419
 617,79; 7754,301;  271,517;38756,350;19,44346
 618,36; 7713,730;  291,825;38720,557;19,31343
 618,94; 7580,560;  229,823;38321,579;19,29745
 619,52; 7459,804;  249,360;38017,161;19,09151
 620,10; 7443,077;  234,670;38077,333;19,04836
 620,67; 7396,636;  253,899;37938,282;18,95410
 621,25; 7373,721;  270,287;37750,276;18,95260
 621,83; 7293,044;  249,439;37684,782;18,81539
 622,41; 7304,822;  300,439;37741,832;18,70759
 622,98; 7176,997;  256,360;37503,046;18,58054
 623,56; 7150,795;  274,667;37527,385;18,45806
 624,14; 7063,006;  257,211;37256,457;18,39441
 624,72; 6991,109;  247,516;37240,510;18,22938
 625,29; 7006,708;  241,975;37337,839;18,23581
 625,87; 7029,268;  275,209;37290,909;18,24647
 626,45; 6882,438;  231,359;37086,075;18,04675
 627,02; 6863,941;  248,132;37006,005;17,99835
 627,60; 6801,824;  228,289;37018,074;17,86783
 628,18; 6766,427;  210,747;37125,396;17,75902
 628,76; 6726,615;  225,360;37122,575;17,61991
 629,33; 6724,354;  254,284;37117,201;17,55170
 629,91; 6613,461;  232,978;37096,333;17,30847
 630,49; 6641,689;  255,207;37162,507;17,30411
 631,06; 6648,640;  248,976;37310,230;17,26780
 631,64; 6546,748;  255,437;37284,604;16,99015
 632,22; 6503,998;  212,589;37177,783;17,01982
 632,79; 6535,603;  230,205;37487,314;16,92401
 633,37; 6541,618;  225,902;37466,818;16,95908
 633,95; 6518,205;  236,436;37626,426;16,80067
 634,52; 6534,459;  226,593;37730,266;16,81933
 635,10; 6488,677;  233,593;37751,993;16,67204
 635,68; 6518,712;  232,359;37921,293;16,67957
 636,25; 6462,725;  202,434;38006,841;16,55968
 636,83; 6442,692;  207,360;38113,037;16,44960
 637,41; 6499,509;  222,358;38123,060;16,56210
 637,98; 6475,089;  246,666;38412,090;16,31954
 638,56; 6489,157;  237,049;38524,700;16,32931
 639,13; 6451,798;  224,898;38519,838;16,26037
 639,71; 6485,520;  266,899;38742,551;16,16248
 640,29; 6372,074;  183,514;38394,662;16,19569
 640,86; 6387,742;  203,976;38724,562;16,05315
 641,44; 6357,563;  203,053;38562,538;16,04430
 642,02; 6329,307;  237,669;38730,514;15,82538
 642,59; 6347,898;  210,207;38880,106;15,87201
 643,17; 6341,335;  209,361;38775,466;15,89990
 643,74; 6287,310;  209,592;38758,673;15,76618
 644,32; 6272,977;  233,515;38873,265;15,63018
 644,89; 6234,183;  230,130;38821,472;15,55803
 645,47; 6262,081;  253,669;38837,833;15,57222
 646,05; 6243,595;  235,361;38730,117;15,60793
 646,62; 6223,262;  224,285;38751,247;15,57086
 647,20; 6207,391;  232,362;38965,300;15,42622
 647,77; 6135,366;  195,669;38789,430;15,39030
 648,35; 6123,419;  202,669;38628,637;15,40820
 648,92; 6123,778;  225,516;38666,844;15,34355
 649,50; 6060,369;  195,131;38549,743;15,29213
 650,08; 6037,498;  205,977;38472,027;15,23941
 650,65; 6087,550;  204,362;38580,696;15,33025
 651,23; 6124,064;  187,670;39402,980;15,13795
 651,80; 6273,654;  187,593;40441,418;15,11921
 652,38; 6354,706;  207,747;40831,778;15,13134
 652,95; 6406,758;  180,593;41162,601;15,19244
 653,53; 6438,887;  217,362;41458,346;15,08578
 654,10; 6495,478;  238,593;41596,938;15,12847
 654,68; 6382,068;  200,286;41438,991;14,99024
 655,25; 6428,813;  195,440;41513,121;15,08645
 655,83; 6408,711;  198,440;41557,559;15,01548
 656,40; 6411,994;  226,824;41553,381;14,96657
 656,98; 6393,353;  211,132;41612,050;14,93257
 657,55; 6350,175;  202,132;41424,565;14,91431
 658,13; 6261,919;  200,055;41004,618;14,85585
 658,70; 6271,433;  218,132;40836,286;14,90294
 659,28; 6111,254;  207,517;39943,955;14,85724
 659,85; 5975,768;  221,133;39137,469;14,78720
 660,43; 5962,820;  211,517;39171,292;14,76216
 661,00; 5999,949;  203,287;39186,883;14,86949
 661,58; 6022,924;  198,825;39684,398;14,74994
 662,15; 6041,514;  200,671;39787,759;14,75441
 662,73; 6162,413;  259,287;40132,658;14,80468
 663,30; 6113,619;  208,825;40338,327;14,71434
 663,88; 6113,363;  203,133;40417,534;14,69680
 664,45; 6171,953;  191,595;40816,895;14,72077
 665,03; 6208,159;  204,287;41034,256;14,70457
 665,60; 6373,058;  283,980;41597,539;14,73869
 666,17; 6349,879;  219,287;41755,285;14,75971
 666,75; 6400,777;  194,057;41987,030;14,85111
 667,32; 6416,368;  211,980;42377,007;14,71454
 667,90; 6533,881;  198,057;42671,060;14,91730
 668,47; 6506,856;  224,595;42877,959;14,72864
 669,05; 6566,601;  207,134;43213,243;14,78736
 669,62; 6545,653;  169,365;43318,065;14,77747
 670,19; 6608,090;  186,596;43414,888;14,85484
 670,77; 6583,603;  201,365;43623,249;14,69821
 671,34; 6582,501;  188,519;43622,533;14,72114
 671,92; 6657,169;  195,211;43894,893;14,78720
 672,49; 6693,605;  220,134;43936,177;14,80800
 673,06; 6687,119;  167,673;43929,077;14,89771
 673,64; 6716,094;  185,904;43829,437;14,96256
 674,21; 6674,377;  171,827;43843,260;14,88971
 674,79; 6751,121;  215,442;44122,928;14,88511
 675,36; 6812,404;  212,289;44363,597;14,94886
 675,93; 6771,226;  186,443;44148,342;14,97839
 676,51; 6797,739;  203,673;44467,396;14,89722
 677,08; 6798,330;  206,443;44381,833;14,92208
 677,65; 6829,613;  209,904;44546,579;14,93055
 678,23; 6876,280;  196,520;44795,709;14,97731
 678,80; 6876,947;  191,058;44857,762;14,96840
 679,38; 6963,615;  192,058;44996,277;15,11366
 679,95; 6988,744;  204,597;45358,638;15,02445
 680,52; 7048,642;  187,520;45587,845;15,11250
 681,10; 7098,233;  213,136;45975,744;15,04525
 681,67; 7176,669;  203,597;46311,489;15,12338
 682,24; 7162,029;  185,597;46273,927;15,13709
 682,82; 7277,466;  195,367;46900,288;15,16350
 683,39; 7423,364;  238,521;47203,495;15,29830
 683,96; 7419,493;  204,521;47468,240;15,26535
 684,54; 7509,084;  181,367;47753,601;15,40335
 685,11; 7635,828;  239,521;48220,193;15,41518
 685,68; 7673,188;  205,598;48535,477;15,45129
 686,25; 7673,317;  184,367;48735,145;15,42498
 686,83; 7754,061;  198,444;48885,045;15,51888
 687,40; 7835,267;  186,213;49219,021;15,59987
 687,97; 7946,627;  228,983;49642,689;15,61843
 688,55; 7992,679;  184,137;49562,819;15,81359
 689,12; 8010,577;  166,829;49904,488;15,77024
 689,69; 8072,475;  174,906;50041,772;15,83731
 690,26; 8133,373;  202,983;50050,056;15,90944
 690,84; 8139,195;  188,983;50302,109;15,86453
 691,41; 8206,324;  203,060;50265,701;15,98650
 691,98; 8304,760;  201,983;50695,292;16,04723
 692,56; 8342,274;  189,753;50778,961;16,11514
 693,13; 8423,480;  244,137;50830,706;16,16900
 693,70; 8443,609;  207,061;50932,221;16,23760
 694,27; 8497,200;  198,214;51258,813;16,25321
 694,84; 8488,790;  190,061;51133,404;16,29012
 695,42; 8629,534;  230,061;51318,765;16,44096
 695,99; 8633,740;  195,369;51420,510;16,47311
 696,56; 8630,946;  197,522;51374,025;16,47909
 697,13; 8715,998;  203,523;51868,848;16,47619
 697,71; 8774,204;  175,292;51889,285;16,62783
 698,28; 8839,410;  189,830;52164,108;16,64204
 698,85; 8885,001;  157,446;52182,699;16,77561
 699,42; 8938,207;  162,907;52472,752;16,77562
 699,99; 9035,105;  197,215;52494,498;16,89933
 700,57; 9062,157;  193,677;52598,628;16,92298
 701,14; 9117,747;  179,677;52679,604;17,02492
 701,71; 9193,646;  198,908;52900,196;17,06740
 702,28; 9221,852;  187,600;52938,864;17,12613
 702,85; 9261,904;  199,908;52906,994;17,19313
 703,43; 9323,186;  207,831;53360,894;17,14926
 704,00; 9408,239;  225,062;53470,408;17,24691
 704,57; 9494,521;  208,524;53381,231;17,46384
 705,14; 9571,727;  216,447;53670,669;17,50148
 705,71; 9600,549;  211,062;53798,491;17,52181
 706,28; 9578,985;  189,678;53673,160;17,55553
 706,86; 9729,037;  225,216;53871,597;17,71568
 707,43; 9786,474;  239,755;53866,420;17,80219
 708,00; 9835,988;  218,678;53859,627;17,92904
 708,57; 9825,963;  190,832;53769,988;17,98298
 709,14; 9949,861;  221,909;53938,271;18,10985
 709,71;10020,759;  195,601;54030,786;18,25044
 710,28;10087,965;  204,678;54240,378;18,29029
 710,86;10155,479;  203,832;54357,662;18,37663
 711,43;10291,992;  226,986;54343,869;18,59864
 712,00;10266,814;  210,371;54522,076;18,51616
 712,57;10436,943;  219,986;54547,283;18,80630
 713,14;10462,687;  209,294;54769,567;18,79278
 713,71;10500,124;  222,448;54599,851;18,90064
 714,28;10550,483;  210,294;54662,211;18,98958
 714,85;10535,766;  190,371;54369,341;19,09485
 715,42;10663,895;  202,217;54618,010;19,22544
 716,00;10756,024;  263,987;54710,063;19,27051
 716,57;10827,615;  204,371;54790,732;19,46135
 717,14;10834,436;  197,679;54877,093;19,45295
 717,71;10937,104;  179,679;54784,761;19,70041
 718,28;11027,002;  233,372;54958,891;19,72321
 718,85;11026,054;  187,449;55041,944;19,75883
 719,42;11083,798;  217,833;55159,690;19,77721
 719,99;11181,004;  181,141;55005,128;20,06396
 720,56;11268,518;  216,218;55192,873;20,10362
 721,13;11341,954;  195,141;55296,618;20,22961
 721,70;11401,468;  192,449;55204,056;20,37573
 722,27;11494,828;  217,526;55252,263;20,49124
 722,84;11581,111;  256,757;55392,701;20,53897
 723,41;11611,163;  185,911;55387,370;20,69737
 723,98;11659,984;  194,757;55579,653;20,70100
 724,55;11784,344;  223,680;55786,245;20,80657
 725,12;11715,550;  154,296;55632,298;20,83935
 725,69;11911,371;  200,450;55798,505;21,06354
 726,27;11963,654;  195,450;55981,328;21,09531
 726,84;12088,167;  197,834;56216,612;21,22562
 727,41;12110,912;  214,142;56164,972;21,26290
 727,98;12239,887;  215,450;56552,102;21,34390
 728,55;12301,324;  234,296;56450,233;21,46549
 729,12;12348,222;  181,373;56490,055;21,60741
 729,69;12459,043;  219,296;56778,954;21,64042
 730,26;12527,711;  222,912;56899,007;21,71074
 730,82;12589,378;  207,297;56748,137;21,89936
 731,39;12624,815;  197,143;56856,191;21,93413
 731,96;12777,098;  190,143;57225,782;22,06858
 732,53;12936,534;  201,758;57488,451;22,22990
 733,10;12993,125;  213,374;57534,196;22,29513
 733,67;13133,408;  206,989;57751,096;22,46350
 734,24;13067,691;  190,682;57308,610;22,54460
 734,81;13227,666;  227,297;57476,586;22,70835
 735,38;13160,795;  205,759;57341,409;22,67417
 735,95;13293,616;  199,143;57096,000;23,01440
 736,52;13348,591;  217,374;57264,823;23,01806
 737,09;13321,412;  214,605;56955,876;23,09925
 737,66;13511,157;  255,451;57133,698;23,30540
 738,23;13529,363;  196,451;57238,521;23,37382
 738,80;13775,876;  262,528;57491,805;23,61265
 739,37;13807,621;  234,298;57758,089;23,59602
 739,94;13925,134;  213,529;57798,834;23,81095
 740,51;14121,648;  317,990;57901,118;23,97171
 741,07;14098,854;  201,837;57796,863;24,12885
 741,64;14194,675;  238,452;58036,917;24,14636
 742,21;14306,189;  215,991;58049,277;24,36347
 742,78;14330,010;  195,221;57761,792;24,55381
 743,35;14462,601;  212,221;58071,076;24,62956
 743,92;14607,345;  248,760;58380,052;24,70027
 744,49;14600,935;  229,222;57986,336;24,88302
 745,06;14657,603;  213,376;58040,005;24,97850
 745,63;14715,040;  194,837;58088,135;25,08097
 746,19;14826,707;  199,760;58059,265;25,28011
 746,76;14893,067;  213,222;58131,010;25,34600
 747,33;14946,427;  214,530;58115,063;25,44346
 747,90;15151,863;  214,914;58300,347;25,71548
 748,47;15154,069;  221,838;58159,093;25,77311
 749,04;15251,044;  230,376;58126,531;25,94416
 749,61;15355,943;  238,684;58085,199;26,13340
 750,17;15428,995;  218,453;58233,329;26,21835
 750,74;15463,585;  223,838;58144,382;26,31147
 751,31;15480,022;  198,992;58062,897;26,40857
 751,88;15494,766;  189,453;57927,643;26,50813
 752,45;15658,664;  211,992;58131,234;26,66933
 753,02;15661,870;  234,684;57998,210;26,70749
 753,58;15758,999;  193,069;57799,648;27,02110
 754,15;15858,821;  195,531;57940,624;27,12488
 754,72;15822,104;  199,531;57836,524;27,10511
 755,29;15851,463;  183,992;57553,885;27,30957
 755,86;15908,823;  209,146;57743,399;27,28753
 756,42;16005,260;  218,300;57561,222;27,53079
 756,99;16044,081;  197,070;57557,890;27,62689
 757,56;16074,595;  208,377;57604,559;27,64333
 758,13;16075,108;  165,300;57528,612;27,73516
 758,70;16269,468;  194,070;57577,588;28,01396
 759,26;16351,597;  200,301;57653,026;28,11232
 759,83;16428,880;  214,608;57756,002;28,17845
 760,40;16479,701;  190,532;57602,901;28,37223
 760,97;16540,138;  181,532;57745,724;28,41802
 761,53;16492,959;  173,686;57327,085;28,55346
 762,10;16595,627;  164,686;57321,369;28,74719
 762,67;16664,294;  205,840;57303,499;28,82509
 763,24;16576,346;  158,224;56833,552;28,96873
 763,80;16706,014;  198,147;56985,990;29,06937
 764,37;16734,758;  189,917;56905,658;29,17152
 764,94;16754,810;  178,917;56441,711;29,46155
 765,50;16788,477;  176,302;56408,764;29,54197
 766,07;17016,530;  205,917;56378,510;29,92672
 766,64;16875,812;  184,917;56131,409;29,83368
 767,21;16923,249;  181,917;56024,462;29,97953
 767,77;16937,609;  202,763;55931,592;30,02906
 768,34;17015,122;  209,148;55892,722;30,18121
 768,91;17036,251;  210,456;55688,314;30,32885
 769,47;17110,919;  205,225;55727,752;30,44835
 770,04;17140,048;  209,225;55589,343;30,57202
 770,61;17084,408;  190,533;55380,166;30,61059
 771,18;17131,152;  190,379;55216,142;30,78698
 771,74;17268,589;  195,918;55472,888;30,88569
 772,31;17244,410;  207,149;55135,018;31,01752
 772,88;17303,616;  172,456;54969,378;31,26300
 773,44;17262,822;  185,072;54724,893;31,31244
 774,01;17377,259;  208,149;54924,792;31,37822
 774,58;17376,311;  192,303;54459,846;31,66535
 775,14;17499,440;  179,380;54622,053;31,81339
 775,71;17536,338;  189,457;54557,029;31,90667
 776,27;17581,159;  238,534;54489,620;31,96733
 776,84;17713,365;  270,226;54588,981;32,11255
 777,41;17684,417;  209,457;54333,573;32,28683
 777,97;17661,469;  187,996;54079,857;32,42321
 778,54;17808,137;  202,303;54161,295;32,62817
 779,11;17855,496;  234,304;54029,502;32,75607
 779,67;17888,318;  194,534;54077,939;32,83717
 780,24;17982,293;  206,227;53719,454;33,21808
 780,80;17996,191;  226,381;53780,738;33,18089
 781,37;18045,243;  219,458;53756,176;33,29637
 781,94;18023,526;  201,227;53600,614;33,37548
 782,50;18155,424;  208,227;53384,282;33,75052
 783,07;18175,092;  230,381;53494,104;33,69030
 783,63;18156,682;  196,381;53211,388;33,87777
 784,20;18183,734;  223,766;53191,442;33,90741
 784,77;18209,940;  209,689;52920,110;34,14932
 785,33;18155,608;  189,612;52761,548;34,17412
 785,90;18275,352;  209,920;52792,909;34,35604
 786,46;18290,558;  229,151;52641,577;34,46016
 787,03;18246,225;  205,689;52420,553;34,55058
 787,59;18364,893;  205,228;52470,607;34,74511
 788,16;18411,022;  222,689;52317,814;34,91369
 788,73;18396,305;  228,074;52168,098;34,97925
 789,29;18366,587;  210,382;51840,151;35,16616
 789,86;18453,024;  227,844;51718,819;35,39490
 790,42;18425,845;  222,228;51698,642;35,36303
 790,99;18332,436;  226,382;51221,464;35,50549
 791,55;18459,027;  205,767;51189,517;35,80211
 792,12;18496,156;  235,459;51250,724;35,79457
 792,68;18498,977;  214,844;50930,162;36,05249
 793,25;18497,029;  218,382;50748,907;36,17347
 793,81;18519,389;  272,613;50268,961;36,49622
 794,38;18478,287;  197,460;50098,783;36,63395
 794,94;18503,954;  206,613;50010,836;36,73853
 795,51;18507,006;  234,614;49636,120;36,98752
 796,07;18451,058;  216,075;49489,250;37,00793
 796,64;18515,264;  229,537;49531,303;37,08940
 797,20;18501,316;  227,922;49147,049;37,35429
 797,77;18429,061;  194,614;48731,179;37,56847
 798,33;18453,882;  222,614;48696,924;37,61017
 798,90;18470,550;  237,614;48520,439;37,76278
 799,46;18376,832;  209,922;48030,569;37,98968
 800,03;18393,269;  218,537;47993,084;38,04271
 800,59;18404,475;  231,537;47753,445;38,24118
 801,15;18388,373;  244,230;47560,575;38,34646
 801,72;18278,887;  219,307;47296,705;38,36147
 802,28;18271,170;  248,845;46915,989;38,61887
 802,85;18176,068;  220,768;46647,042;38,67487
 803,41;18232,043;  218,922;46464,249;38,95122
 803,98;18194,480;  216,538;46099,763;39,18195
 804,54;18133,686;  213,999;45879,432;39,24125
 805,11;18136,045;  222,307;45628,947;39,45180
 805,67;18138,713;  249,846;45488,384;39,54342
 806,23;18070,688;  232,231;45109,207;39,74969
 806,80;18107,509;  249,231;45059,414;39,85317
 807,36;18117,254;  243,615;44980,390;39,95290
 807,93;18174,844;  248,154;44652,982;40,37104
 808,49;18106,896;  215,692;44293,496;40,59005
 809,05;18106,948;  205,231;44215,011;40,67668
 809,62;18072,231;  237,308;44081,295;40,67815
 810,18;18190,206;  235,462;43991,964;41,03332
 810,74;18081,105;  201,077;43586,094;41,21245
 811,31;18099,387;  204,770;43439,378;41,38957
 811,87;18076,055;  220,693;43221,969;41,52287
 812,44;18195,953;  253,924;43351,638;41,63105
 813,00;18063,236;  182,385;43052,614;41,70925
 813,56;18199,750;  234,616;43028,975;41,98014
 814,13;18205,648;  220,001;42955,182;42,08628
 814,69;18147,469;  224,078;42729,620;42,16719
 815,25;18102,137;  187,924;42265,980;42,57376
 815,82;18233,881;  235,770;42261,803;42,82610
 816,38;18158,625;  268,617;42136,010;42,73017
 816,94;18069,062;  210,617;41705,524;43,03768
 817,51;18018,037;  207,848;41603,655;43,02414
 818,07;17984,551;  210,232;41236,169;43,32459
 818,63;18051,295;  233,617;41066,222;43,63591
 819,20;18116,501;  226,925;40996,122;43,88013
 819,76;17941,245;  201,156;40596,252;43,91644
 820,32;18027,913;  248,694;40578,766;44,08427
 820,89;17936,965;  236,310;40284,589;44,19829
 821,45;17930,479;  222,848;39917,873;44,60919
 822,01;17903,377;  229,617;39761,387;44,70774
 822,57;17859,890;  234,848;39616,287;44,75469
 823,14;17835,327;  200,310;39335,494;45,06180
 823,70;17796,610;  212,387;39129,855;45,18337
 824,26;17769,893;  213,387;38920,985;45,35674
 824,82;17787,022;  249,002;38790,346;45,50443
 825,39;17722,458;  215,310;38492,476;45,73784
 825,95;17742,741;  233,156;38548,683;45,69841
 826,51;17702,563;  237,310;38121,351;46,10187
 827,08;17785,076;  262,157;38176,943;46,21659
 827,64;17772,282;  241,618;38010,304;46,41587
 828,20;17711,488;  211,618;37685,588;46,69874
 828,76;17770,540;  250,388;37665,641;46,82623
 829,32;17777,669;  248,234;37578,463;46,95775
 829,89;17691,952;  200,080;37370,901;47,05807
 830,45;17781,235;  241,003;37326,262;47,29705
 831,01;17792,441;  221,465;37130,930;47,60561
 831,57;17776,185;  223,388;37025,753;47,69475
 832,14;17838,852;  221,542;37007,190;47,89180
 832,70;17814,905;  202,619;36693,936;48,26432
 833,26;17808,880;  183,234;36693,681;48,27562
 833,82;17873,778;  217,081;36566,965;48,57429
 834,38;17955,061;  216,927;36445,172;48,96217
 834,95;17931,728;  201,465;36371,764;49,01885
 835,51;17848,242;  169,466;36375,509;48,82825
 836,07;17991,371;  221,389;36354,332;49,17945
 836,63;18098,731;  238,696;36262,231;49,57879
 837,19;17981,629;  231,158;36133,900;49,44043
 837,75;18016,065;  182,158;35783,183;50,09380
 838,32;18065,041;  244,851;35931,929;49,93457
 838,88;18203,554;  240,004;36031,367;50,18962
 839,44;18228,606;  231,312;35826,804;50,56060
 840,00;18205,351;  221,851;35768,396;50,59141
 840,56;18119,018;  204,928;35450,834;50,82602
 841,12;18155,993;  207,312;35470,964;50,89853
 841,68;18080,199;  194,313;35269,632;50,99280
 842,25;18206,174;  204,159;35319,224;51,26579
 842,81;18132,534;  201,236;34981,585;51,55583
 843,37;18229,202;  196,467;35065,715;51,71530
 843,93;18209,254;  201,313;34900,537;51,89724
 844,49;18267,690;  223,467;35037,206;51,83075
 845,05;18181,589;  180,698;34748,336;52,07440
 845,61;18321,333;  233,082;34749,543;52,40471
 846,17;18232,616;  216,467;34727,519;52,20400
 846,73;18311,206;  214,313;34654,957;52,54516
 847,29;18256,181;  198,083;34464,241;52,69951
 847,86;18291,464;  199,467;34366,679;52,95134
 848,42;18173,132;  199,237;34149,732;52,94148
 848,98;18277,491;  222,314;34060,708;53,35708
 849,54;18286,159;  200,929;34173,684;53,23451
 850,10;18284,057;  215,083;34019,661;53,45126
 850,66;18253,955;  190,468;33877,560;53,62139
 851,22;18262,623;  193,929;33775,151;53,80594
 851,78;18330,906;  250,083;33848,820;53,81399
 852,34;18333,419;  230,237;33620,104;54,21759
 852,90;18241,779;  204,160;33484,772;54,19858
 853,46;18176,908;  202,776;33288,672;54,32566
 854,02;18334,652;  208,776;33279,417;54,80957
 854,58;18189,089;  205,084;33035,163;54,77905
 855,14;18176,757;  209,315;32941,216;54,89275
 855,70;18126,270;  179,084;32930,038;54,79897
 856,26;18215,861;  226,238;32714,476;55,37273
 856,82;18138,528;  204,853;32531,683;55,47613
 857,38;18122,196;  237,776;32537,582;55,37005
 857,94;18015,709;  211,161;32329,943;55,43345
 858,50;18053,607;  223,469;32305,227;55,57719
 859,06;17992,890;  203,007;31977,357;55,98819
 859,62;17973,327;  232,854;31969,103;55,89972
 860,18;17929,148;  214,700;31814,617;56,05853
 860,74;18024,816;  186,469;31707,747;56,59144
 861,30;17881,560;  196,239;31471,108;56,54803
 861,86;17966,151;  259,008;31502,546;56,67458
 862,42;17890,049;  220,008;31344,061;56,77294
 862,98;17979,101;  245,239;31302,960;57,09969
 863,54;17895,076;  217,623;31021,398;57,38729
 864,10;18077,897;  219,624;31180,143;57,68079
 864,66;17929,719;  191,008;30899,966;57,76396
 865,22;17868,001;  212,547;30794,096;57,73238
 865,78;17901,284;  211,162;30645,226;58,12606
 866,34;17851,259;  197,778;30510,202;58,23844
 866,90;17965,312;  222,470;30363,871;58,86535
 867,45;17903,825;  215,316;30152,924;59,08458
 868,01;17833,262;  220,163;30001,285;59,14183
 868,57;17861,929;  216,393;29747,799;59,75176
 869,13;17826,443;  204,317;29714,622;59,71516
 869,69;17882,572;  206,394;29664,598;60,00426
 870,25;17769,701;  188,624;29505,420;59,96930
 870,81;17914,753;  216,471;29362,704;60,72237
 871,37;17952,190;  215,240;29343,834;60,89188
 871,93;17872,165;  229,855;29159,503;60,98349
 872,49;17812,063;  241,702;28918,633;61,27002
 873,04;17771,192;  201,933;28846,378;61,33566
 873,60;17667,936;  195,702;28661,970;61,37873
 874,16;17687,450;  219,394;28592,177;61,56624
 874,72;17669,065;  202,471;28505,023;61,71385
 875,28;17601,065;  216,394;28451,946;61,57015
 875,84;17707,988;  212,779;28416,485;62,03160
 876,40;17685,835;  202,702;28364,023;62,08208
 876,95;17683,835;  222,548;28281,100;62,23160
 877,51;17795,681;  237,240;28300,485;62,56739
 878,07;17785,988;  244,625;28271,485;62,58769
 878,63;17815,681;  207,240;28237,100;62,82029
 879,19;17974,988;  225,933;28303,254;63,21492
 879,75;17962,373;  202,010;28379,177;63,03105
 880,30;18081,988;  205,010;28285,792;63,66268
 880,86;18161,681;  252,856;28427,562;63,56349
 881,42;18298,912;  200,702;28463,023;64,03653
 881,98;18322,065;  234,856;28522,638;63,94000
 882,54;18476,835;  199,317;28608,331;64,33704
 883,09;18565,835;  222,933;28754,946;64,28885
 883,65;18642,681;  201,933;28861,792;64,34347
 884,21;18822,604;  244,471;29072,946;64,44369
 884,77;18966,527;  204,933;29068,023;65,00203
 885,32;19101,296;  207,625;29326,638;64,88431
 885,88;19245,604;  249,548;29431,792;65,09457
 886,44;19365,527;  216,471;29416,254;65,57945
 887,00;19445,835;  235,163;29470,100;65,71135
 887,56;19646,142;  216,702;29674,177;65,95759
 888,11;19676,912;  213,856;29634,177;66,15514
 888,67;19879,604;  248,856;29821,331;66,38182
 889,23;19908,681;  224,779;29841,023;66,46319
 889,79;19872,835;  200,933;29749,715;66,57432
 890,34;19858,219;  224,087;29662,562;66,69548
 890,90;20041,604;  289,471;29787,100;66,96176
 891,46;19940,912;  207,933;29726,177;66,85011
 892,01;20029,219;  229,856;29682,023;67,22549
 892,57;20019,758;  244,087;29601,177;67,36250
 893,13;19985,373;  215,240;29331,100;67,90159
 893,69;19941,219;  214,702;29356,638;67,69117
 894,24;19890,450;  226,163;29248,562;67,75555
 894,80;19810,604;  224,933;29131,254;67,75567
 895,36;19874,835;  227,625;29013,946;68,25189
 895,91;19728,835;  220,317;28725,946;68,43742
 896,47;19694,604;  234,548;28766,331;68,20484
 897,03;19596,912;  215,240;28519,408;68,47639
 897,58;19551,450;  224,010;28410,715;68,56935
 898,14;19435,988;  228,779;28245,485;68,55627
 898,70;19362,758;  205,087;28088,562;68,70618
 899,25;19409,835;  221,856;28018,254;69,03045
 899,81;19250,296;  235,163;27872,100;68,80333
 900,37;19147,604;  200,625;27663,331;68,99167
 900,92;19185,373;  221,702;27718,177;68,96764
 901,48;19058,142;  211,779;27456,254;69,17499
 902,03;18983,988;  210,010;27343,869;69,19023
 902,59;18937,142;  219,087;27251,100;69,24403
 903,15;18865,912;  240,702;27038,408;69,50300
 903,70;18645,988;  227,010;26772,485;69,38651
 904,26;18674,142;  210,856;26691,946;69,72253
 904,82;18683,450;  224,933;26620,715;69,92980
 905,37;18699,912;  232,240;26556,638;70,15420
 905,93;18570,373;  208,702;26433,715;70,01587
 906,48;18551,681;  235,779;26319,408;70,21991
 907,04;18626,988;  236,010;26205,715;70,81705
 907,60;18407,681;  226,625;25990,408;70,56827
 908,15;18395,835;  200,471;25854,485;70,92599
 908,71;18396,373;  243,317;25959,100;70,59111
 909,26;18345,988;  211,317;25708,869;71,12319
 909,82;18250,988;  241,394;25696,792;70,74961
 910,37;18265,142;  255,163;25506,100;71,32400
 910,93;18180,527;  212,163;25377,023;71,40260
 911,48;18040,758;  210,471;25194,792;71,36590
 912,04;17978,219;  209,779;25031,100;71,58539
 912,60;18023,835;  225,548;25080,485;71,60866
 913,15;17898,373;  217,548;24820,869;71,86357
 913,71;17812,065;  203,394;24704,485;71,86893
 914,26;17839,681;  203,856;24682,869;72,04467
 914,82;17811,219;  226,317;24523,869;72,37314
 915,37;17744,912;  201,087;24410,023;72,46838
 915,93;17748,527;  258,394;24353,408;72,58818
 916,48;17665,527;  202,240;24169,946;72,86174
 917,04;17613,758;  235,317;24069,100;72,91516
 917,59;17657,373;  251,394;23976,177;73,36623
 918,15;17431,681;  191,856;23859,792;72,84042
 918,70;17521,527;  216,856;23817,946;73,32149
 919,26;17475,296;  223,010;23684,177;73,53550
 919,81;17424,142;  203,010;23426,562;74,15374
 920,37;17468,373;  211,163;23411,715;74,38275
 920,92;17425,912;  232,856;23239,408;74,73113
 921,48;17242,835;  199,317;23019,869;74,68495
 922,03;17325,835;  207,394;23052,177;74,93370
 922,59;17292,219;  212,933;22870,715;75,37934
 923,14;17237,835;  209,471;22770,485;75,47694
 923,69;17256,604;  229,548;22779,715;75,50745
 924,25;17273,758;  232,163;22623,792;76,10699
 924,80;17100,142;  213,087;22481,638;75,83365
 925,36;17055,527;  216,779;22339,946;76,11364
 925,91;16988,527;  212,702;22210,485;76,26144
 926,47;17005,142;  191,087;22149,023;76,57393
 927,02;16973,835;  271,240;22125,792;76,42616
 927,57;16819,988;  209,856;21936,023;76,45220
 928,13;16749,373;  206,548;21810,869;76,57183
 928,68;16768,988;  215,163;21760,100;76,83395
 929,24;16614,296;  196,394;21569,562;76,81548
 929,79;16455,219;  202,702;21532,792;76,19526
 930,34;16381,912;  216,394;21315,408;76,61741
 930,90;16445,988;  214,163;21233,638;77,22279
 931,45;16397,065;  224,394;21307,869;76,70781
 932,01;16405,912;  232,240;21098,177;77,51232
 932,56;16287,373;  237,240;20955,331;77,46917
 933,11;16257,604;  249,702;20967,254;77,26734
 933,67;16186,758;  216,010;20769,946;77,70165
 934,22;16168,296;  226,548;20745,254;77,69373
 934,77;16094,681;  243,010;20597,485;77,87806
 935,33;15993,527;  221,240;20489,562;77,81743
 935,88;15983,450;  221,087;20395,100;78,13202
 936,43;15938,527;  208,010;20289,715;78,33258
 936,99;15840,988;  218,087;20199,485;78,18723
 937,54;15774,065;  202,933;19966,408;78,78742
 938,09;15760,527;  219,779;20040,869;78,40511
 938,65;15642,758;  218,471;19837,100;78,62061
 939,20;15646,988;  191,702;19767,408;78,95136
 939,75;15567,219;  196,702;19645,869;79,02918
 940,31;15504,604;  201,010;19523,562;79,20069
 940,86;15513,527;  218,240;19571,869;79,03059
 941,41;15395,758;  298,548;19481,254;78,70219
 941,96;15377,758;  210,933;19300,254;79,45188
 942,52;15318,527;  208,471;19239,792;79,39573
 943,07;15242,065;  201,625;19097,946;79,59454
 943,62;15231,450;  208,471;19001,100;79,94081
 944,18;15226,219;  195,702;18939,100;80,19099
 944,73;15209,296;  220,625;18894,792;80,26420
 945,28;15016,142;  178,394;18645,715;80,34597
 945,83;15095,065;  213,163;18682,100;80,57801
 946,39;15079,604;  209,010;18585,023;80,92394
 946,94;15072,065;  241,163;18501,946;81,21723
 947,49;14916,219;  207,240;18407,638;80,81680
 948,04;14953,835;  247,163;18397,254;81,02809
 948,59;14894,219;  236,548;18291,792;81,18235
 949,15;14890,604;  201,933;18110,562;82,02008
 949,70;14824,681;  220,010;18106,869;81,65028
 950,25;14792,065;  236,240;17984,562;82,01240
 950,80;14704,142;  179,317;17871,638;82,09677
 951,36;14725,758;  178,625;17785,177;82,62340
 951,91;14761,681;  232,010;17830,715;82,56102
 952,46;14580,219;  199,163;17579,254;82,74442
 953,01;14623,527;  224,240;17595,408;82,89188
 953,56;14465,373;  190,471;17396,946;82,96238
 954,11;14515,681;  220,087;17374,562;83,33449
 954,67;14475,835;  209,779;17376,715;83,10193
 955,22;14310,373;  189,240;17149,485;83,26020
 955,77;14396,373;  235,856;17149,331;83,72329
 956,32;14293,450;  259,856;17000,869;83,82763
 956,87;14242,835;  196,702;16885,792;84,16356
 957,42;14162,604;  209,163;16839,562;83,90323
 957,98;14198,758;  209,317;16755,023;84,55028
 958,53;14144,681;  235,317;16758,100;84,18294
 959,08;14045,527;  198,779;16575,177;84,55307
 959,63;14004,296;  203,625;16436,485;85,01688
 960,18;14058,604;  227,240;16404,715;85,49767
 960,73;14017,604;  218,471;16338,177;85,60412
 961,28;13923,219;  187,933;16310,638;85,19219
 961,83;13870,142;  239,163;16255,023;85,10926
 962,39;13779,142;  194,933;16131,254;85,24056
 962,94;13739,912;  222,010;16006,485;85,64049
 963,49;13649,758;  217,394;15937,408;85,44753
 964,04;13632,296;  226,548;15870,177;85,69462
 964,59;13586,604;  186,933;15730,408;86,20769
 965,14;13504,912;  224,087;15700,869;85,81128
 965,69;13504,835;  205,856;15567,177;86,57445
 966,24;13424,604;  202,625;15422,100;86,87539
 966,79;13345,450;  230,933;15378,869;86,57626
 967,34;13239,681;  192,471;15215,331;86,84904
 967,89;13272,142;  206,087;15166,023;87,34032
 968,44;13286,142;  213,010;15120,638;87,69425
 968,99;13220,219;  219,163;15072,177;87,53143
 969,55;13170,912;  225,625;14979,023;87,74444
 970,10;13145,988;  216,548;14840,485;88,41286
 970,65;13080,835;  227,548;14746,177;88,52962
 971,20;12977,142;  198,548;14626,715;88,56700
 971,75;12945,758;  188,933;14519,485;89,01838
 972,30;12901,219;  220,240;14463,408;89,03201
 972,85;12840,604;  202,471;14373,792;89,18105
 973,40;12790,988;  194,625;14285,254;89,39533
 973,95;12783,142;  226,087;14183,254;89,96851
 974,50;12751,912;  240,933;14163,254;89,86274
 975,05;12688,604;  223,010;14003,715;90,45686
 975,60;12675,219;  222,856;13962,254;90,63253
 976,15;12607,373;  205,625;13834,485;90,99623
 976,70;12527,065;  226,010;13747,946;90,97111
 977,25;12495,065;  233,779;13691,638;91,10874
 977,80;12383,373;  202,702;13509,023;91,54049
 978,35;12212,988;  217,394;13366,638;91,22649
 978,89;12164,142;  191,471;13324,946;91,16149
 979,44;12179,681;  221,240;13314,792;91,33076
 979,99;11963,450;  199,625;13033,485;91,66241
 980,54;11938,296;  240,240;13037,485;91,41074
 981,09;11877,527;  230,856;12928,254;91,72486
 981,64;11745,912;  225,702;12795,177;91,65227
 982,19;11786,527;  257,548;12768,792;92,14894
 982,74;11637,450;  226,240;12684,946;91,59226
 983,29;11527,988;  209,548;12498,177;92,10499
 983,84;11482,296;  223,933;12372,100;92,67541
 984,39;11442,296;  284,240;12408,792;92,02860
 984,94;11323,835;  189,317;12135,254;93,20757
 985,49;11260,219;  237,702;12149,792;92,53218
 986,03;11203,988;  236,471;12058,946;92,76837
 986,58;11086,758;  260,933;11876,100;93,20421
 987,13;10989,835;  222,240;11805,408;92,95898
 987,68;11005,065;  239,394;11672,562;94,16176
 988,23;10904,604;  236,702;11640,023;93,55083
 988,78;10762,065;  212,856;11427,023;94,07038
 989,33;10748,527;  233,240;11375,562;94,37250
 989,88;10715,758;  249,087;11319,638;94,54516
 990,42;10602,450;  222,625;11187,331;94,66579
 990,97;10466,373;  206,779;11049,331;94,62343
 991,52;10451,912;  245,779;10962,254;95,23778
 992,07;10375,604;  247,933;10895,792;95,11462
 992,62;10227,296;  236,933;10746,100;95,06332
 993,17;10196,527;  237,779;10666,408;95,49432
 993,71;10121,450;  239,471;10564,638;95,70769
 994,26; 9982,604;  213,471;10373,792;96,14984
 994,81; 9979,219;  251,240;10370,100;96,13711
 995,36; 9831,835;  219,240;10219,331;96,12507
 995,91; 9740,758;  227,163;10148,562;95,88965
 996,45; 9676,604;  228,471;10034,946;96,34586
 997,00; 9564,373;  206,394; 9881,254;96,72470
 997,55; 9597,219;  239,625; 9831,562;97,55688
 998,10; 9415,450;  256,548; 9740,638;96,57122
 998,65; 9342,219;  232,394; 9689,331;96,32956
 999,19; 9297,219;  253,625; 9552,715;97,25246
 999,74; 9162,527;  264,625; 9371,792;97,70219
1000,29; 9112,835;  237,625; 9336,100;97,54612
1000,84; 8957,373;  231,087; 9207,946;97,20868
1001,38; 8911,219;  227,702; 9067,023;98,23738
1001,93; 8828,142;  245,010; 9071,177;97,24643
1002,48; 8726,296;  213,779; 8896,331;98,04165
1003,03; 8711,450;  232,933; 8861,792;98,25768
1003,57; 8567,142;  236,087; 8769,254;97,63146
1004,12; 8471,219;  260,702; 8650,946;97,85791
1004,67; 8430,988;  220,010; 8534,792;98,75157
1005,22; 8244,065;  215,702; 8437,100;97,65205
1005,76; 8126,835;  210,010; 8245,177;98,52720
1006,31; 8154,142;  234,702; 8237,254;98,96144
1006,86; 8025,527;  226,087; 8080,331;99,30224
1007,40; 7879,988;  207,779; 7979,023;98,72563
1007,95; 7826,373;  226,317; 7911,562;98,89153
1008,50; 7739,912;  236,163; 7762,869;99,69498
1009,04; 7628,142;  225,163; 7689,177;99,18228
1009,59; 7502,681;  237,702; 7508,100;99,92546
1010,14; 7440,604;  218,856; 7450,638;99,86124
1010,68; 7318,373;  226,163; 7322,715;99,93881
1011,23; 7217,450;  224,163; 7241,023;99,66405
1011,78; 7113,758;  239,625; 7121,331;99,88995
1012,32; 7068,835;  246,779; 6990,792;101,15721
1012,87; 7022,527;  254,394; 6989,408;100,49175
1013,42; 6926,142;  218,933; 6858,946;101,01199
1013,96; 6923,373;  256,317; 6901,562;100,32823
1014,51; 6825,142;  195,933; 6746,254;101,20434
1015,06; 6825,988;  208,010; 6779,254;100,71120
1015,60; 6922,142;  260,471; 6820,254;101,55323
1016,15; 6913,142;  219,856; 6777,408;102,06990
1016,69; 6944,988;  228,163; 6822,562;101,85653
1017,24; 6929,604;  212,394; 6819,715;101,66313
1017,79; 7055,681;  259,933; 6863,946;102,90330
1018,33; 7000,142;  216,394; 6880,638;101,79321
1018,88; 7057,527;  236,394; 6917,254;102,09963
1019,42; 7105,065;  217,010; 6946,946;102,34949
1019,97; 7048,296;  207,317; 6931,869;101,73137
1020,51; 7165,988;  254,087; 6983,792;102,70734
1021,06; 7163,142;  206,471; 6926,792;103,51695
1021,61; 7134,219;  188,933; 6906,715;103,38659
1022,15; 7097,527;  183,471; 6878,562;103,27054
1022,70; 7054,296;  227,010; 6876,638;102,67169
1023,24; 7027,296;  213,856; 6841,254;102,80717
1023,79; 6989,835;  228,317; 6780,869;103,18907
1024,33; 6974,373;  219,702; 6723,023;103,86495
1024,88; 6865,142;  231,471; 6608,562;104,02348
1025,42; 6756,758;  233,010; 6528,100;103,63232
1025,97; 6728,604;  220,471; 6481,100;103,95334
1026,51; 6568,681;  186,625; 6314,254;104,15213
1027,06; 6532,219;  209,548; 6251,100;104,65310
1027,60; 6416,835;  226,471; 6163,023;104,27540
1028,15; 6351,296;  240,087; 6059,946;105,00613
1028,69; 6149,835;  197,240; 5920,562;104,00594
1029,24; 6128,758;  221,317; 5901,177;104,00680
1029,78; 6031,527;  202,548; 5790,715;104,30931
1030,33; 5886,142;  193,625; 5668,254;103,97997
1030,87; 5859,681;  210,010; 5598,023;104,85629
1031,42; 5752,373;  195,087; 5524,254;104,28058
1031,96; 5750,527;  224,779; 5448,792;105,77592
1032,51; 5554,835;  207,087; 5353,023;103,92177
1033,05; 5553,219;  218,087; 5307,100;104,83629
1033,60; 5425,373;  184,548; 5169,792;105,12675
1034,14; 5344,835;  210,471; 5137,408;104,21006
1034,69; 5349,988;  212,702; 5090,023;105,33009
1035,23; 5265,296;  198,779; 5015,331;105,18972
1035,77; 5215,604;  198,548; 4943,562;105,73323
1036,32; 5156,142;  186,240; 4832,100;106,97486
1036,86; 5114,065;  218,702; 4793,638;107,00396
1037,41; 4999,450;  220,702; 4727,254;106,04001
1037,95; 4948,912;  190,163; 4612,408;107,60935
1038,50; 4915,450;  200,394; 4609,562;106,93756
1039,04; 4829,373;  224,240; 4565,638;106,07488
1039,58; 4794,296;  183,702; 4440,562;108,30976
1040,13; 4730,219;  204,702; 4391,562;108,08858
1040,67; 4672,758;  239,240; 4383,177;106,98806
1041,21; 4601,527;  227,471; 4300,177;107,39926
1041,76; 4508,912;  196,779; 4221,408;107,14361
1042,30; 4487,296;  211,163; 4185,100;107,60445
1042,85; 4419,142;  205,163; 4093,638;108,37099
1043,39; 4369,681;  211,317; 4014,485;109,33948
1043,93; 4292,450;  227,471; 3991,946;107,98262
1044,48; 4262,296;  213,856; 3927,485;109,01575
1045,02; 4196,296;  205,625; 3871,638;108,85588
1045,56; 4157,219;  234,240; 3864,408;108,06606
1046,11; 4118,065;  207,856; 3784,100;109,33844
1046,65; 4060,373;  221,702; 3705,254;110,19417
1047,19; 3970,912;  207,933; 3653,562;109,21022
1047,74; 3919,142;  192,856; 3590,638;109,66818
1048,28; 3888,681;  216,933; 3554,408;110,01575
1048,82; 3876,065;  240,087; 3521,408;110,80838
1049,37; 3779,758;  227,856; 3472,177;109,48059
1049,91; 3751,296;  225,317; 3429,100;110,05674
1050,45; 3726,681;  235,240; 3373,792;111,24367
1050,99; 3671,835;  222,317; 3323,638;111,22735
1051,54; 3594,219;  206,010; 3256,177;111,08275
1052,08; 3580,219;  243,240; 3236,023;111,50087
1052,62; 3545,758;  233,163; 3212,485;111,18621
1053,16; 3458,527;  213,010; 3153,485;110,37391
1053,71; 3466,296;  217,163; 3094,023;112,94026
1054,25; 3389,988;  228,856; 3051,638;111,98640
1054,79; 3347,988;  232,010; 3029,638;111,37928
1055,33; 3292,373;  182,548; 2962,177;111,87915
1055,88; 3281,219;  229,394; 2943,023;112,46287
1056,42; 3249,373;  233,163; 2932,331;111,74593
1056,96; 3214,988;  235,856; 2842,254;114,30076
1057,50; 3154,681;  222,933; 2837,254;112,14185
1058,05; 3101,835;  218,779; 2793,562;111,97278
1058,59; 3067,219;  250,394; 2746,254;112,85991
1059,13; 2995,296;  203,548; 2659,792;113,65922
1059,67; 2992,219;  229,779; 2629,946;115,09366
1060,21; 2942,065;  223,856; 2607,023;114,05870
1060,76; 2913,373;  230,779; 2567,408;114,80618
1061,30; 2878,219;  251,010; 2541,408;114,70537
1061,84; 2803,142;  221,779; 2478,254;114,39805
1062,38; 2739,912;  211,779; 2426,869;114,13226
1062,92; 2771,065;  252,471; 2455,638;114,31698
1063,46; 2718,527;  238,702; 2404,792;114,48391
1064,01; 2653,296;  225,702; 2381,023;112,63260
1064,55; 2645,835;  231,779; 2324,408;115,35996
1065,09; 2595,758;  203,933; 2303,177;113,93743
1065,63; 2591,835;  259,933; 2301,408;114,22633
1066,17; 2585,835;  257,856; 2265,485;115,95663
1066,71; 2540,296;  247,010; 2241,100;115,00414
1067,25; 2486,450;  217,087; 2177,408;115,76488
1067,80; 2478,219;  248,548; 2184,177;115,19105
1068,34; 2454,835;  252,856; 2149,792;116,08079
1068,88; 2384,065;  226,087; 2092,254;115,63694
1069,42; 2414,912;  253,548; 2100,408;117,02911
1069,96; 2343,142;  225,625; 2046,638;116,28235
1070,50; 2359,527;  257,779; 2045,254;117,58196
1071,04; 2298,681;  214,010; 1980,562;118,00792
1071,58; 2271,527;  221,163; 1952,408;118,43294
1072,12; 2252,296;  239,163; 1941,869;118,23139
1072,66; 2236,758;  226,933; 1951,177;116,56266
1073,21; 2201,604;  240,163; 1947,946;114,85304
1073,75; 2168,988;  227,317; 1904,946;115,73902
1074,29; 2139,219;  247,933; 1861,331;117,22380
1074,83; 2127,373;  248,856; 1857,331;116,78872
1075,37; 2076,835;  249,548; 1841,638;114,77279
1075,91; 2070,988;  251,010; 1813,715;116,46331
1076,45; 2048,219;  235,625; 1789,869;116,62223
1076,99; 2022,219;  244,625; 1763,946;116,99924
1077,53; 1983,988;  229,779; 1720,715;117,65823
1078,07; 1970,835;  234,087; 1738,638;115,43291
1078,61; 1943,065;  236,010; 1687,792;117,58342
1079,15; 1918,373;  230,702; 1680,946;116,37151
1079,69; 1884,142;  231,317; 1660,562;115,64329
1080,23; 1896,450;  250,779; 1638,562;118,58277
1080,77; 1902,758;  277,933; 1655,177;117,97653
1081,31; 1832,604;  223,317; 1575,177;119,04243
1081,85; 1836,527;  253,087; 1587,946;118,62224
1082,39; 1800,142;  228,010; 1561,638;117,88382
1082,93; 1794,142;  244,625; 1558,331;117,95010
1083,47; 1766,604;  218,933; 1495,485;121,23840
1084,01; 1777,142;  253,856; 1518,177;120,48256
1084,55; 1732,296;  235,087; 1476,792;120,57684
1085,09; 1737,527;  253,625; 1495,100;119,52733
1085,63; 1687,988;  237,087; 1444,792;120,13704
1086,17; 1668,373;  227,163; 1443,715;118,46676
1086,71; 1636,604;  230,240; 1414,331;118,77163
1087,24; 1686,527;  260,394; 1423,638;122,59959
1087,78; 1628,142;  248,163; 1414,408;118,32675
1088,32; 1602,450;  220,163; 1367,331;120,49564
1088,86; 1602,219;  253,394; 1386,946;118,99102
1089,40; 1581,373;  238,471; 1338,408;122,08904
1089,94; 1537,296;  221,087; 1311,562;120,70058
1090,48; 1550,604;  244,010; 1317,562;121,70760
1091,02; 1537,065;  247,240; 1305,792;121,84806
1091,56; 1501,988;  239,087; 1292,869;119,84463
1092,10; 1452,527;  218,471; 1240,792;120,71116
1092,63; 1479,065;  258,471; 1270,100;120,65633
1093,17; 1452,219;  247,856; 1250,946;120,06530
1093,71; 1429,527;  229,240; 1210,792;122,28457
1094,25; 1451,450;  253,010; 1244,177;120,91202
1094,79; 1404,835;  237,471; 1191,331;122,38315
1095,33; 1396,142;  250,779; 1192,946;121,56689
1095,87; 1367,219;  231,394; 1167,638;121,31717
1096,40; 1337,296;  220,163; 1142,485;121,12188
1096,94; 1339,604;  242,394; 1159,792;119,60017
1097,48; 1334,912;  243,856; 1143,254;121,30955
1098,02; 1313,681;  233,779; 1105,562;123,87283
1098,56; 1271,758;  216,779; 1073,562;123,13260
1099,10; 1259,527;  214,087; 1059,485;123,66250
1099,63; 1256,450;  221,625; 1069,331;122,07361
1100,17; 1254,681;  247,779; 1086,408;120,06526
1100,71; 1246,835;  265,010; 1090,100;118,99605

