
Integration time [ms]: 120,000
Averaging Nr. [scans]: 13
Smoothing Nr. [pixels]: 0
Data measured with spectrometer [name]: 2009305U1
Wave   ;Sample   ;Dark     ;Reference;Reflectance
[nm]   ;[counts] ;[counts] ;[counts] ;[%]

 175,72;  202,121;  203,396;  206,415;-42,25627
 176,32;  235,605;  232,238;  221,005; 0,00000
 176,92;  261,565;  247,318;  255,764;168,67470
 177,52;  258,319;  258,088;  254,242; 0,00000
 178,12;  237,260;  225,239;  236,618;105,63757
 178,72;  254,964;  252,468;  247,609; 0,00000
 179,32;  256,748;  251,777;  252,264; 0,00000
 179,92;  250,537;  252,009;  253,834;-80,68237
 180,52;  250,255;  243,091;  251,014;90,41215
 181,12;  256,287;  248,932;  250,733;408,43551
 181,73;  265,474;  266,394;  270,722;-21,26988
 182,33;  355,889;  342,551;  361,599;70,02003
 182,93;  264,508;  265,011;  272,969;-6,32161
 183,53;  238,048;  234,237;  231,203; 0,00000
 184,13;  242,009;  243,468;  230,540; 0,00000
 184,73;  273,283;  267,775;  273,447;97,10764
 185,33;  258,893;  227,443;  345,598;26,61744
 185,93;  263,409;  241,133;  358,546;18,97223
 186,53;  273,263;  255,981;  380,144;13,91938
 187,13;  298,686;  272,984;  407,516;19,10510
 187,73;  262,177;  241,287;  363,269;17,12520
 188,33;  270,664;  240,209;  362,629;24,87807
 188,93;  276,160;  245,742;  378,979;22,83033
 189,53;  269,191;  251,815;  383,112;13,23408
 190,13;  315,439;  280,501;  415,888;25,80582
 190,73;  254,187;  224,505;  369,988;20,40204
 191,34;  289,117;  261,894;  396,267;20,25911
 191,94;  265,057;  239,284;  361,088;21,15945
 192,54;  279,496;  242,755;  397,442;23,75182
 193,14;  295,003;  262,137;  384,184;26,92873
 193,74;  279,975;  253,983;  388,973;19,25509
 194,34;  278,070;  249,600;  378,777;22,03947
 194,94;  249,653;  214,214;  353,835;25,38218
 195,54;  230,999;  216,674;  342,009;11,42901
 196,14;  253,115;  221,292;  354,658;23,86132
 196,74;  249,394;  228,135;  356,800;16,52231
 197,34;  232,245;  197,833;  349,603;22,67377
 197,94;  258,134;  230,138;  376,501;19,12814
 198,54;  265,412;  232,908;  397,071;19,80018
 199,14;  238,960;  213,526;  383,801;14,93713
 199,74;  226,695;  193,603;  378,842;17,86435
 200,34;  222,529;  192,296;  402,209;14,40284
 200,94;  261,193;  230,602;  433,790;15,05579
 201,54;  242,031;  207,910;  427,072;15,56868
 202,14;  279,076;  243,066;  476,318;15,43815
 202,74;  251,194;  210,218;  468,075;15,89090
 203,34;  232,597;  190,452;  474,780;14,82273
 203,94;  204,210;  167,682;  479,987;11,69645
 204,54;  280,237;  239,446;  569,638;12,35382
 205,14;  241,411;  207,834;  575,137; 9,14163
 205,74;  292,205;  243,298;  662,389;11,66974
 206,34;  255,177;  200,681;  678,382;11,40788
 206,94;  275,223;  213,758;  737,667;11,73211
 207,54;  248,368;  183,758;  755,999;11,29074
 208,14;  270,731;  198,681;  854,932;10,97889
 208,74;  273,987;  205,295;  920,831; 9,60010
 209,34;  284,878;  200,757;  996,638;10,56947
 209,94;  313,936;  219,757; 1096,814;10,73810
 210,54;  312,618;  205,913; 1200,696;10,72645
 211,14;  328,544;  223,603; 1269,731;10,03137
 211,73;  318,928;  203,679; 1406,089; 9,58483
 212,33;  354,612;  221,832; 1487,287;10,49268
 212,93;  340,595;  198,834; 1587,825;10,20608
 213,53;  327,260;  176,295; 1656,334;10,20008
 214,13;  359,522;  210,145; 1766,419; 9,59838
 214,73;  347,999;  184,758; 1744,780;10,46400
 215,33;  321,244;  171,219; 1778,968; 9,33139
 215,93;  361,484;  212,529; 1866,132; 9,00791
 216,53;  337,500;  154,218; 1934,078;10,29755
 217,13;  379,188;  221,836; 2160,304; 8,11734
 217,73;  371,645;  194,452; 2358,138; 8,18943
 218,33;  345,797;  151,069; 2513,919; 8,24125
 218,93;  391,849;  181,610; 2817,997; 7,97450
 219,53;  414,762;  188,915; 3082,652; 7,80470
 220,13;  400,787;  159,762; 3367,589; 7,51366
 220,73;  442,482;  178,449; 3702,204; 7,49294
 221,32;  480,834;  179,065; 4090,215; 7,71561
 221,92;  509,034;  187,992; 4480,570; 7,47900
 222,52;  510,377;  172,221; 4890,290; 7,16725
 223,12;  539,888;  186,144; 5324,030; 6,88501
 223,72;  575,392;  197,067; 5776,609; 6,78057
 224,32;  604,771;  193,452; 6174,831; 6,87665
 224,92;  586,365;  171,452; 6496,656; 6,55967
 225,52;  652,958;  211,604; 6849,016; 6,64949
 226,12;  668,289;  183,990; 7219,368; 6,88377
 226,72;  671,746;  162,297; 7536,482; 6,90854
 227,31;  684,109;  168,297; 7998,538; 6,58744
 227,91;  751,582;  189,296; 8323,145; 6,91292
 228,51;  769,558;  185,371; 8784,073; 6,79390
 229,11;  810,860;  174,066; 9235,022; 7,02789
 229,71;  853,147;  172,064; 9534,301; 7,27479
 230,31;  896,236;  169,222; 9935,594; 7,44405
 230,91;  920,641;  162,986;10333,594; 7,44946
 231,51;  980,855;  171,759;10659,579; 7,71462
 232,10; 1023,434;  169,761;10995,785; 7,88537
 232,70; 1097,070;  184,446;11237,239; 8,25695
 233,30; 1188,434;  202,528;11520,547; 8,71094
 233,90; 1206,028;  174,836;11631,141; 9,00109
 234,50; 1249,383;  177,682;11734,915; 9,27298
 235,10; 1318,673;  166,529;11775,656; 9,92446
 235,70; 1387,991;  196,219;11812,901;10,25914
 236,29; 1460,815;  188,757;11778,545;10,97568
 236,89; 1487,107;  152,755;11704,249;11,55134
 237,49; 1572,124;  191,682;11622,550;12,07645
 238,09; 1588,485;  177,297;11388,459;12,58735
 238,69; 1676,773;  211,139;11131,546;13,42106
 239,29; 1693,735;  168,219;10801,560;14,34653
 239,89; 1713,590;  188,678;10452,500;14,85715
 240,48; 1734,079;  171,297;10068,285;15,79048
 241,08; 1741,510;  182,065; 9752,646;16,29415
 241,68; 1769,810;  194,912; 9398,898;17,11105
 242,28; 1783,010;  172,221; 9078,164;18,08668
 242,88; 1836,257;  212,607; 8743,230;19,03319
 243,48; 1844,698;  218,297; 8428,893;19,80855
 244,07; 1854,638;  194,296; 8176,201;20,80132
 244,67; 1862,200;  195,374; 8034,323;21,26338
 245,27; 1897,621;  206,525; 7879,781;22,03882
 245,87; 1921,353;  198,991; 7804,792;22,64537
 246,47; 1930,642;  189,987; 7771,725;22,95852
 247,06; 1942,724;  173,066; 7771,896;23,28857
 247,66; 2013,325;  181,066; 7821,219;23,98196
 248,26; 2074,535;  216,141; 7971,037;23,96413
 248,86; 2145,111;  198,756; 8097,577;24,64108
 249,46; 2129,582;  147,067; 8322,076;24,25092
 250,05; 2275,610;  198,220; 8709,433;24,40768
 250,65; 2313,871;  172,217; 9080,959;24,03991
 251,25; 2414,744;  179,758; 9489,151;24,00786
 251,85; 2556,327;  191,293;10093,892;23,88296
 252,44; 2665,889;  155,911;10660,272;23,89464
 253,04; 2821,021;  205,526;11430,743;23,30017
 253,64; 2886,956;  146,140;12067,396;22,99100
 254,24; 3074,875;  203,681;13054,776;22,34202
 254,84; 3208,197;  172,836;13907,999;22,09920
 255,43; 3365,369;  179,526;14928,557;21,60035
 256,03; 3455,083;  191,756;15909,828;20,76163
 256,63; 3614,317;  184,755;16890,074;20,52976
 257,23; 3690,181;  177,294;17824,052;19,90670
 257,82; 3832,848;  188,754;18820,164;19,55888
 258,42; 3826,540;  151,599;19574,214;18,92094
 259,02; 3913,891;  195,757;20491,653;18,31963
 259,62; 3908,300;  176,906;21225,981;17,72711
 260,21; 3904,669;  185,449;21823,782;17,18811
 260,81; 3863,127;  179,143;22350,439;16,61601
 261,41; 3773,120;  164,907;22820,132;15,92662
 262,01; 3780,021;  208,598;23240,750;15,50625
 262,60; 3680,335;  171,217;23577,206;14,99239
 263,20; 3596,568;  188,064;23878,768;14,38752
 263,80; 3488,891;  194,983;24112,198;13,77212
 264,40; 3359,924;  167,598;24287,495;13,23524
 264,99; 3278,533;  191,675;24467,920;12,71555
 265,59; 3164,536;  174,442;24619,032;12,23213
 266,19; 3042,933;  161,444;24758,239;11,71490
 266,78; 2983,504;  208,366;24913,405;11,23308
 267,38; 2833,084;  184,212;24901,804;10,71655
 267,98; 2767,742;  181,597;24907,718;10,45916
 268,58; 2661,371;  185,827;25016,167; 9,96983
 269,17; 2571,240;  170,364;24988,792; 9,67376
 269,77; 2508,342;  186,062;24752,107; 9,45321
 270,37; 2389,942;  167,136;24681,907; 9,06721
 270,96; 2377,222;  223,600;24538,654; 8,85716
 271,56; 2221,295;  170,217;24297,592; 8,50104
 272,16; 2135,542;  182,753;24038,749; 8,18573
 272,75; 2080,175;  186,292;24019,881; 7,94628
 273,35; 2034,283;  174,908;23944,212; 7,82259
 273,95; 1997,141;  185,984;23884,307; 7,64255
 274,54; 1918,172;  168,143;23891,727; 7,37675
 275,14; 1964,126;  208,216;24297,630; 7,28914
 275,74; 1876,650;  157,446;24328,050; 7,11279
 276,33; 1925,002;  205,139;24746,269; 7,00809
 276,93; 1929,258;  185,143;25131,191; 6,99155
 277,53; 1940,165;  174,218;25555,741; 6,95761
 278,12; 1962,976;  160,371;26123,189; 6,94303
 278,72; 2058,182;  206,833;26741,722; 6,97703
 279,32; 2054,968;  180,295;27291,472; 6,91476
 279,91; 2090,112;  163,910;28007,777; 6,91787
 280,51; 2175,393;  182,218;28570,005; 7,02124
 281,11; 2282,629;  180,602;29225,449; 7,23718
 281,70; 2293,768;  160,371;29692,206; 7,22406
 282,30; 2382,449;  180,755;30403,438; 7,28491
 282,90; 2431,264;  172,447;30816,138; 7,37123
 283,49; 2552,017;  182,677;31264,176; 7,62299
 284,09; 2659,662;  211,832;31783,103; 7,75335
 284,69; 2735,509;  213,833;32162,515; 7,89289
 285,28; 2837,774;  190,986;32511,908; 8,18908
 285,88; 2965,664;  235,753;32632,603; 8,42647
 286,47; 3028,991;  192,216;32827,020; 8,69248
 287,07; 3158,848;  209,833;32883,815; 9,02558
 287,67; 3305,390;  199,990;33014,893; 9,46338
 288,26; 3424,170;  171,910;32884,291; 9,94198
 288,86; 3603,694;  176,063;33004,788;10,44095
 289,46; 3811,581;  196,833;33129,167;10,97629
 290,05; 3993,701;  174,450;33145,879;11,58352
 290,65; 4225,129;  188,755;33413,316;12,14877
 291,24; 4498,073;  188,295;33554,191;12,91672
 291,84; 4771,470;  200,447;33571,997;13,69737
 292,44; 5047,405;  179,759;33788,751;14,48317
 293,03; 5394,986;  244,449;33928,526;15,29072
 293,63; 5593,627;  182,601;34108,963;15,94933
 294,22; 5915,101;  197,217;34208,344;16,81180
 294,82; 6124,152;  180,137;34351,144;17,39491
 295,41; 6337,537;  168,525;33973,437;18,24886
 296,01; 6574,649;  218,599;33979,053;18,82691
 296,61; 6740,713;  203,987;33634,331;19,55327
 297,20; 6863,555;  190,446;33442,533;20,06824
 297,80; 7066,315;  200,758;33170,755;20,82365
 298,39; 7167,635;  175,370;32777,584;21,44721
 298,99; 7388,705;  203,446;32677,521;22,12614
 299,58; 7474,773;  190,989;32559,281;22,50284
 300,18; 7617,335;  207,758;32312,702;23,07924
 300,78; 7664,236;  185,142;31897,885;23,58388
 301,37; 7806,982;  205,521;31938,182;23,95469
 301,97; 7943,637;  193,141;31873,378;24,46477
 302,56; 8072,721;  185,139;31812,098;24,93942
 303,16; 8172,855;  165,600;31709,432;25,38453
 303,75; 8307,766;  178,219;31737,295;25,75978
 304,35; 8469,143;  172,683;31988,324;26,07667
 304,94; 8616,480;  186,448;32052,335;26,45472
 305,54; 8724,603;  203,603;31958,446;26,83370
 306,13; 8764,469;  150,452;31881,840;27,14668
 306,73; 8793,758;  169,221;31632,912;27,41108
 307,33; 8950,207;  198,066;31628,713;27,84588
 307,92; 9069,930;  189,987;31616,393;28,25631
 308,52; 9261,221;  168,370;32189,992;28,39597
 309,11; 9540,655;  185,214;32645,139;28,82151
 309,71; 9650,493;  157,983;32939,798;28,95663
 310,30; 9834,066;  170,833;33093,031;29,35172
 310,90;10045,143;  218,295;33487,954;29,53697
 311,49;10133,026;  185,372;33619,494;29,75300
 312,09;10239,202;  148,527;33792,185;29,99280
 312,68;10590,799;  230,988;34163,564;30,53058
 313,28;10626,776;  162,526;34301,316;30,65208
 313,87;10699,443;  163,064;34460,179;30,72089
 314,47;10801,027;  174,369;34707,813;30,77208
 315,06;10956,829;  158,449;34834,406;31,14083
 315,66;11037,202;  167,681;35121,185;31,09709
 316,25;11073,278;  153,908;35029,122;31,30983
 316,85;11096,332;  141,065;35072,352;31,36233
 317,44;11213,453;  178,753;35374,627;31,35225
 318,04;11236,593;  150,217;35390,466;31,45941
 318,63;11295,615;  151,836;35376,884;31,63595
 319,22;11361,769;  180,832;35541,149;31,62001
 319,82;11420,787;  175,371;35624,692;31,72252
 320,41;11433,018;  191,832;35502,126;31,83544
 321,01;11493,428;  197,834;35601,991;31,90471
 321,60;11467,861;  173,294;35642,649;31,84317
 322,20;11448,081;  170,064;35616,966;31,81665
 322,79;11615,839;  203,834;35745,763;32,10857
 323,39;11572,436;  178,452;35765,620;32,01711
 323,98;11582,680;  167,834;35687,523;32,13667
 324,58;11518,847;  167,216;35551,964;32,08058
 325,17;11451,440;  174,139;35381,820;32,03080
 325,76;11412,456;  193,295;35215,578;32,03435
 326,36;11262,858;  157,757;34847,075;32,01303
 326,95;11203,726;  196,525;34498,088;32,08950
 327,55;11065,878;  161,217;34156,630;32,07686
 328,14;10929,837;  165,758;33819,620;31,98468
 328,74;10771,755;  194,755;33386,749;31,86612
 329,33;10687,410;  198,757;33012,783;31,96393
 329,92;10410,267;  159,215;32478,557;31,71801
 330,52;10253,097;  187,220;31800,031;31,84113
 331,11;10070,795;  184,140;31400,313;31,67158
 331,71; 9840,727;  183,371;30765,546;31,57838
 332,30; 9693,788;  193,295;30257,873;31,60029
 332,89; 9579,294;  228,219;29819,246;31,60105
 333,49; 9264,582;  194,910;29188,214;31,28196
 334,08; 9149,790;  180,678;28766,581;31,37600
 334,68; 8910,284;  175,909;28253,189;31,10834
 335,27; 8807,197;  206,066;27924,741;31,03009
 335,86; 8737,103;  232,909;27733,005;30,92423
 336,46; 8614,501;  197,451;27428,390;30,90988
 337,05; 8511,389;  173,756;27255,369;30,78706
 337,65; 8358,602;  161,525;27009,238;30,53175
 338,24; 8401,802;  227,218;27063,684;30,46073
 338,83; 8366,788;  206,680;26875,977;30,59739
 339,43; 8295,891;  176,831;26789,771;30,50794
 340,02; 8241,337;  176,370;26769,914;30,32679
 340,61; 8210,126;  172,526;26764,973;30,22512
 341,21; 8157,678;  209,062;26772,672;29,92295
 341,80; 8095,846;  175,909;26746,022;29,80769
 342,40; 8092,007;  185,374;26814,170;29,69204
 342,99; 8070,217;  176,526;26901,323;29,53695
 343,58; 8106,333;  175,680;27040,321;29,52078
 344,18; 8106,471;  191,681;27106,032;29,40732
 344,77; 8166,075;  176,600;27457,383;29,28609
 345,36; 8178,572;  156,525;27770,780;29,05038
 345,96; 8247,893;  205,142;28138,496;28,79264
 346,55; 8256,663;  180,606;28308,423;28,71200
 347,14; 8332,038;  163,835;28633,240;28,69116
 347,74; 8412,180;  152,454;29076,026;28,55708
 348,33; 8553,497;  182,223;29727,617;28,33360
 348,92; 8742,777;  190,685;30325,106;28,37981
 349,52; 8794,102;  152,146;30821,826;28,17752
 350,11; 8812,707;  176,139;31060,441;27,96426
 350,70; 8793,940;  182,910;31140,750;27,81535
 351,29; 8658,560;  165,905;30902,230;27,63068
 351,89; 8611,644;  179,830;30893,167;27,45327
 352,48; 8570,216;  146,680;30871,449;27,41611
 353,07; 8457,645;  187,297;30848,418;26,97340
 353,67; 8419,617;  195,993;30772,174;26,89552
 354,26; 8274,510;  187,758;30523,596;26,65742
 354,85; 8175,671;  185,373;30321,267;26,51422
 355,45; 8043,303;  152,986;30321,444;26,15419
 356,04; 8017,936;  167,759;30123,284;26,20611
 356,63; 7863,415;  204,679;29949,660;25,74799
 357,22; 7788,064;  180,136;29745,530;25,73254
 357,82; 7716,781;  185,906;29537,851;25,65716
 358,41; 7643,833;  206,371;29434,573;25,44618
 359,00; 7467,594;  172,062;29247,897;25,09139
 359,60; 7464,176;  184,911;29215,097;25,07481
 360,19; 7343,039;  183,298;29049,190;24,80346
 360,78; 7262,273;  187,602;28855,756;24,67781
 361,37; 7131,315;  172,063;28623,643;24,45998
 361,97; 7091,476;  181,448;28507,987;24,39418
 362,56; 6928,500;  173,062;28250,966;24,05962
 363,15; 6888,101;  220,524;27987,393;24,01271
 363,74; 6688,234;  178,215;27757,057;23,60512
 364,34; 6609,849;  202,985;27318,422;23,62810
 364,93; 6397,803;  171,985;26938,465;23,25976
 365,52; 6256,795;  148,986;26498,236;23,18020
 366,11; 6151,912;  175,985;26150,100;23,00724
 366,71; 6029,692;  169,832;25798,995;22,86403
 367,30; 5939,397;  184,140;25445,760;22,78261
 367,89; 5863,465;  207,758;25249,023;22,58555
 368,48; 5714,242;  194,215;24893,140;22,34926
 369,07; 5570,787;  177,064;24550,211;22,12977
 369,67; 5469,047;  202,677;24224,249;21,92350
 370,26; 5373,410;  176,064;23890,986;21,91593
 370,85; 5268,554;  189,986;23657,110;21,64120
 371,44; 5223,797;  174,602;23421,233;21,72011
 372,03; 5086,936;  166,216;23182,548;21,37925
 372,63; 4973,625;  158,525;22892,871;21,17985
 373,22; 4914,517;  169,218;22610,905;21,14502
 373,81; 4789,159;  159,679;22294,369;20,91504
 374,40; 4732,925;  170,066;22019,746;20,88296
 374,99; 4626,740;  172,909;21755,688;20,63604
 375,59; 4563,557;  158,989;21481,419;20,65697
 376,18; 4525,989;  192,448;21318,589;20,51270
 376,77; 4468,154;  191,064;21097,972;20,45779
 377,36; 4423,291;  199,909;21033,349;20,27213
 377,95; 4373,699;  190,524;20770,462;20,32647
 378,55; 4269,813;  162,911;20590,145;20,10503
 379,14; 4245,358;  182,063;20548,838;19,95060
 379,73; 4213,092;  184,293;20439,314;19,89037
 380,32; 4208,871;  187,294;20454,344;19,84293
 380,91; 4113,589;  179,907;20352,292;19,50033
 381,50; 4115,235;  188,216;20279,700;19,54569
 382,10; 4064,871;  175,679;20164,497;19,45684
 382,69; 4043,480;  155,832;20101,000;19,49168
 383,28; 4030,040;  208,754;20160,886;19,15227
 383,87; 3980,250;  176,139;19975,557;19,21325
 384,46; 3970,261;  165,906;19926,060;19,25266
 385,05; 3999,916;  200,446;19952,420;19,23590
 385,64; 3952,681;  174,370;19871,869;19,18168
 386,24; 3909,484;  157,675;19841,362;19,06050
 386,83; 3948,591;  197,137;19919,742;19,02109
 387,42; 3943,920;  197,832;20050,490;18,86945
 388,01; 3996,155;  178,443;20213,564;19,05510
 388,60; 4041,077;  176,214;20488,910;19,02683
 389,19; 4061,098;  164,518;20605,349;19,06273
 389,78; 4117,017;  172,749;20910,798;19,01948
 390,37; 4257,510;  225,675;21383,133;19,05633
 390,96; 4228,333;  188,522;21431,328;19,01732
 391,56; 4245,098;  189,825;21602,399;18,93875
 392,15; 4305,544;  165,826;21874,241;19,06964
 392,74; 4319,117;  149,899;22061,541;19,02741
 393,33; 4421,030;  184,055;22338,912;19,12436
 393,92; 4487,259;  177,820;22828,054;19,02602
 394,51; 4543,263;  155,593;22921,725;19,27280
 395,10; 4612,198;  194,047;23179,407;19,22159
 395,69; 4609,376;  187,124;23371,497;19,07428
 396,28; 4677,476;  186,815;23369,787;19,37051
 396,87; 4691,997;  191,042;23560,563;19,25994
 397,46; 4749,259;  190,808;23627,905;19,44972
 398,06; 4803,343;  204,728;23870,233;19,43172
 398,65; 4791,519;  183,259;23917,529;19,41606
 399,24; 4853,242;  194,643;24031,775;19,54346
 399,83; 4869,279;  168,478;24112,609;19,63237
 400,42; 4946,553;  199,083;24264,429;19,72741
 401,01; 4967,983;  181,764;24384,700;19,77537
 401,60; 5012,797;  179,749;24453,496;19,91060
 402,19; 4999,977;  207,813;24319,300;19,87502
 402,78; 5052,083;  206,487;24403,792;20,02535
 403,37; 5044,225;  193,161;24164,420;20,23700
 403,96; 5030,469;  184,448;24034,585;20,31863
 404,55; 5045,557;  190,886;23966,363;20,41881
 405,14; 5022,314;  171,788;23822,006;20,50943
 405,73; 5028,928;  189,302;23733,758;20,55527
 406,32; 5035,937;  186,747;23628,388;20,68622
 406,91; 4990,155;  186,343;23371,961;20,71893
 407,50; 5016,716;  195,718;23263,146;20,89959
 408,09; 4983,674;  173,403;22909,949;21,15656
 408,68; 5005,087;  186,244;22801,213;21,30820
 409,27; 4994,762;  164,327;22635,206;21,49642
 409,86; 5009,828;  174,265;22510,602;21,64886
 410,45; 5062,447;  214,355;22380,437;21,87167
 411,04; 5049,222;  209,214;22359,191;21,85107
 411,63; 5042,263;  195,846;22070,608;22,15529
 412,22; 5021,263;  197,631;21906,435;22,21971
 412,81; 5016,290;  209,406;21664,950;22,40392
 413,40; 4976,817;  212,874;21278,980;22,61426
 413,99; 4951,057;  244,026;20934,947;22,74926
 414,58; 4858,104;  181,873;20559,855;22,94747
 415,17; 4823,486;  182,713;20325,684;23,03917
 415,76; 4835,918;  181,169;20153,483;23,30601
 416,35; 4806,200;  182,018;20024,331;23,30465
 416,94; 4930,526;  201,555;20020,839;23,86046
 417,53; 4961,988;  182,406;20224,833;23,84732
 418,12; 5007,034;  183,100;20330,971;23,94265
 418,71; 5169,504;  195,643;20671,509;24,29133
 419,30; 5234,600;  176,793;20789,490;24,53734
 419,89; 5295,289;  171,178;20987,581;24,61573
 420,48; 5451,864;  209,336;21198,984;24,97673
 421,07; 5439,675;  192,337;21377,852;24,76852
 421,66; 5508,941;  161,571;21367,565;25,21631
 422,25; 5527,684;  173,808;21313,787;25,32584
 422,84; 5617,097;  220,963;21402,871;25,47520
 423,43; 5526,582;  191,883;21064,515;25,55834
 424,02; 5542,239;  212,500;20822,691;25,85973
 424,60; 5470,867;  183,353;20363,969;26,20095
 425,19; 5451,353;  198,734;20092,478;26,40337
 425,78; 5449,803;  209,658;20059,537;26,39888
 426,37; 5459,702;  216,045;19881,047;26,66492
 426,96; 5461,667;  198,506;19742,088;26,93038
 427,55; 5478,830;  190,434;19560,799;27,30148
 428,14; 5444,116;  183,820;19414,171;27,35413
 428,73; 5422,471;  194,817;19177,005;27,53979
 429,32; 5501,165;  206,121;19222,016;27,84535
 429,91; 5549,004;  231,432;19202,303;28,03019
 430,50; 5543,599;  203,511;19019,364;28,38079
 431,08; 5507,481;  212,744;18903,174;28,32860
 431,67; 5574,653;  237,131;18764,698;28,80855
 432,26; 5571,037;  253,594;18672,937;28,86880
 432,85; 5508,671;  262,670;18309,887;29,06820
 433,44; 5433,389;  263,981;17871,444;29,35919
 434,03; 5389,154;  277,831;17595,417;29,51522
 434,62; 5280,932;  235,750;17102,022;29,91284
 435,21; 5270,001;  252,901;16855,135;30,21943
 435,79; 5224,867;  241,214;16766,153;30,15838
 436,38; 5224,405;  233,064;16658,707;30,38749
 436,97; 5237,180;  238,680;16540,590;30,66206
 437,56; 5220,036;  249,762;16313,893;30,94020
 438,15; 5197,728;  210,222;16256,300;31,08239
 438,74; 5250,458;  246,531;16245,714;31,27614
 439,33; 5260,975;  224,684;16323,820;31,28299
 439,91; 5271,153;  198,225;16398,842;31,31318
 440,50; 5364,958;  241,071;16402,951;31,70354
 441,09; 5440,535;  241,613;16486,630;32,00318
 441,68; 5455,822;  225,077;16535,749;32,06946
 442,27; 5442,720;  213,384;16488,631;32,13061
 442,86; 5458,248;  187,775;16505,583;32,29890
 443,44; 5561,268;  199,774;16579,396;32,73271
 444,03; 5658,739;  263,545;16673,533;32,87750
 444,62; 5584,651;  201,391;16496,407;33,03624
 445,21; 5596,479;  217,467;16323,325;33,39786
 445,80; 5569,265;  233,471;16243,473;33,32788
 446,39; 5552,922;  261,316;15992,026;33,63870
 446,97; 5459,002;  193,936;15812,419;33,71048
 447,56; 5411,027;  201,708;15544,776;33,95226
 448,15; 5427,334;  198,936;15364,714;34,47498
 448,74; 5342,871;  212,475;15120,591;34,41345
 449,33; 5300,737;  198,246;14915,573;34,66996
 449,91; 5266,866;  192,865;14743,987;34,87017
 450,50; 5192,680;  187,018;14549,813;34,85159
 451,09; 5175,787;  218,096;14400,990;34,95543
 451,68; 5157,170;  228,943;14402,155;34,77142
 452,26; 5167,560;  216,330;14273,557;35,22196
 452,85; 5131,118;  198,790;14204,785;35,21583
 453,44; 5164,474;  220,257;14170,290;35,44233
 454,03; 5148,133;  187,254;14128,650;35,58380
 454,61; 5163,430;  191,026;14065,587;35,83828
 455,20; 5274,380;  228,797;14258,086;35,96464
 455,79; 5313,678;  214,948;14251,587;36,32444
 456,38; 5358,112;  216,723;14341,120;36,40077
 456,97; 5384,335;  197,107;14428,933;36,44808
 457,55; 5408,776;  197,801;14423,917;36,62964
 458,14; 5435,069;  229,721;14400,024;36,73420
 458,73; 5419,810;  210,263;14278,291;37,03111
 459,31; 5432,323;  239,035;14379,523;36,72637
 459,90; 5473,768;  245,418;14448,611;36,81109
 460,49; 5554,753;  274,263;14532,573;37,03447
 461,08; 5568,761;  212,114;14592,206;37,25044
 461,66; 5598,525;  218,574;14701,343;37,14726
 462,25; 5661,171;  214,577;14809,171;37,31926
 462,84; 5737,256;  235,037;14834,042;37,68900
 463,43; 5643,850;  175,657;14744,910;37,53242
 464,01; 5690,334;  207,428;14779,293;37,62666
 464,60; 5732,368;  250,887;14762,986;37,77181
 465,19; 5592,538;  189,967;14538,983;37,65116
 465,77; 5651,313;  215,199;14491,462;38,07799
 466,36; 5639,399;  235,349;14343,421;38,30467
 466,95; 5505,926;  204,350;14058,326;38,26754
 467,53; 5415,785;  214,278;13774,595;38,35830
 468,12; 5326,826;  228,432;13496,206;38,42690
 468,71; 5244,593;  217,737;13235,300;38,61595
 469,29; 5181,066;  195,741;12990,285;38,96446
 469,88; 5014,003;  203,434;12705,431;38,47841
 470,47; 5160,645;  265,975;12837,219;38,93544
 471,06; 5128,838;  206,283;12812,217;39,04950
 471,64; 5195,917;  221,359;12910,233;39,20409
 472,23; 5148,924;  182,211;12872,417;39,13816
 472,81; 5184,609;  185,747;13041,453;38,88438
 473,40; 5272,470;  199,288;13161,269;39,13894
 473,99; 5408,414;  284,057;13322,828;39,30092
 474,57; 5369,969;  200,596;13524,347;38,79818
 475,16; 5496,975;  216,055;13618,656;39,40220
 475,75; 5554,488;  222,829;13741,639;39,43882
 476,33; 5568,486;  228,985;13858,601;39,17573
 476,92; 5618,081;  226,750;13935,333;39,32814
 477,51; 5657,879;  214,676;13911,087;39,74182
 478,09; 5662,614;  214,061;13997,282;39,53033
 478,68; 5671,741;  221,523;13903,510;39,83499
 479,27; 5680,824;  247,752;13895,896;39,80814
 479,85; 5701,251;  209,523;13970,638;39,90758
 480,44; 5728,460;  205,293;14049,059;39,89642
 481,02; 6249,226;  227,911;15303,255;39,94148
 481,61; 7075,427;  236,525;17450,586;39,72858
 482,20; 7581,202;  222,911;18702,884;39,81765
 482,78; 7941,681;  249,216;19458,442;40,04568
 483,37; 8157,837;  228,144;20073,355;39,95772
 483,95; 8344,281;  264,607;20290,174;40,34679
 484,54; 8400,702;  265,371;20433,212;40,33813
 485,13; 8365,987;  235,532;20376,454;40,36784
 485,71; 8237,090;  213,685;20220,457;40,10345
 486,30; 8115,671;  247,070;19894,421;40,04917
 486,88; 7998,706;  273,609;19530,330;40,11637
 487,47; 7755,203;  261,225;18817,085;40,38604
 488,05; 7416,191;  240,995;18005,094;40,39156
 488,64; 6940,365;  239,767;16715,615;40,66921
 489,23; 6199,723;  251,842;14945,116;40,48030
 489,81; 5335,779;  248,304;12677,892;40,93036
 490,40; 4985,523;  202,689;12032,320;40,43096
 490,98; 4909,416;  200,844;11754,736;40,75313
 491,57; 4872,878;  234,227;11638,805;40,67359
 492,15; 4837,097;  215,460;11594,871;40,61403
 492,74; 4817,812;  215,534;11529,442;40,67805
 493,32; 4764,269;  233,536;11409,206;40,54103
 493,91; 4705,799;  208,538;11276,747;40,63224
 494,50; 4688,667;  221,388;11303,165;40,31194
 495,08; 4631,366;  209,234;11133,405;40,48025
 495,67; 4703,996;  226,768;11157,296;40,96077
 496,25; 4586,642;  175,848;11091,481;40,40805
 496,84; 4581,244;  188,537;11049,200;40,44602
 497,42; 4598,398;  177,772;11000,801;40,84463
 498,01; 4524,481;  217,923;10952,006;40,12041
 498,59; 4525,201;  188,387;10879,252;40,56560
 499,18; 4501,066;  191,923;10876,318;40,33119
 499,76; 4518,541;  215,078;10813,648;40,60418
 500,35; 4408,285;  202,235;10572,804;40,55756
 500,93; 4393,128;  194,002;10516,495;40,67938
 501,52; 4329,994;  196,849;10465,777;40,24904
 502,10; 4342,280;  215,314;10495,311;40,14560
 502,69; 4261,491;  197,392;10305,806;40,20510
 503,27; 4244,553;  182,696;10127,163;40,84539
 503,86; 4178,652;  199,084;10087,093;40,24640
 504,44; 4124,666;  174,778; 9992,777;40,23109
 505,03; 4057,677;  164,547; 9675,595;40,93271
 505,61; 4019,166;  191,239; 9624,748;40,57798
 506,19; 3941,812;  198,162; 9449,771;40,46485
 506,78; 3842,535;  170,396; 9229,137;40,53697
 507,36; 3810,969;  194,700; 9134,661;40,45061
 507,95; 3731,221;  181,013; 8946,263;40,50322
 508,53; 3692,626;  183,703; 8860,691;40,43941
 509,12; 3633,180;  191,320; 8715,883;40,37579
 509,70; 3569,323;  207,397; 8559,862;40,25071
 510,29; 3512,269;  205,245; 8401,244;40,34924
 510,87; 3413,758;  184,473; 8227,516;40,15005
 511,46; 3371,695;  173,473; 8038,943;40,66155
 512,04; 3305,253;  188,398; 7912,437;40,35266
 512,62; 3255,353;  184,319; 7804,754;40,29998
 513,21; 3145,769;  161,476; 7630,858;39,95369
 513,79; 3107,435;  181,404; 7489,410;40,03870
 514,38; 3037,713;  166,325; 7326,945;40,09971
 514,96; 3001,578;  211,940; 7244,507;39,66742
 515,54; 2949,944;  166,095; 7094,433;40,18061
 516,13; 2930,264;  197,480; 7026,710;40,01599
 516,71; 2823,613;  182,636; 6897,990;39,32745
 517,30; 2797,245;  171,945; 6780,825;39,72383
 517,88; 2800,458;  196,253; 6684,232;40,13892
 518,46; 2721,707;  168,100; 6554,929;39,98240
 519,05; 2716,316;  171,793; 6549,670;39,89608
 519,63; 2680,798;  189,946; 6433,740;39,89324
 520,22; 2688,527;  201,565; 6469,577;39,67705
 520,80; 2661,343;  178,642; 6342,966;40,27532
 521,38; 2651,429;  217,870; 6324,394;39,85178
 521,97; 2599,875;  178,720; 6246,476;39,90198
 522,55; 2597,304;  189,874; 6265,637;39,62351
 523,13; 2586,394;  176,721; 6252,248;39,66196
 523,72; 2588,689;  180,023; 6163,028;40,25847
 524,30; 2643,929;  208,030; 6362,032;39,58235
 524,89; 2645,152;  173,874; 6386,557;39,77796
 525,47; 2682,747;  205,031; 6514,802;39,26792
 526,05; 2691,539;  160,108; 6568,896;39,49937
 526,64; 2742,459;  196,955; 6676,188;39,28713
 527,22; 2818,232;  198,569; 6816,635;39,58352
 527,80; 2856,179;  233,647; 6913,910;39,25791
 528,39; 2873,443;  190,186; 7005,696;39,36987
 528,97; 2895,010;  190,494; 7176,310;38,71439
 529,55; 2999,954;  200,336; 7390,423;38,93719
 530,14; 3093,080;  210,572; 7594,744;39,03631
 530,72; 3140,437;  185,801; 7654,121;39,56226
 531,30; 3144,281;  167,726; 7810,517;38,94592
 531,89; 3234,106;  191,803; 7893,650;39,50096
 532,47; 3248,327;  218,265; 8050,398;38,68757
 533,05; 3242,598;  217,570; 8074,023;38,50374
 533,63; 3291,843;  207,419; 8137,561;38,89493
 534,22; 3301,490;  180,958; 8149,477;39,16075
 534,80; 3327,969;  211,114; 8273,232;38,66051
 535,38; 3397,821;  277,034; 8325,898;38,77302
 535,97; 3301,852;  198,342; 8260,998;38,49240
 536,55; 3377,950;  226,498; 8343,900;38,82340
 537,13; 3318,770;  219,495; 8297,624;38,36625
 537,71; 3381,261;  269,110; 8298,389;38,76003
 538,30; 3404,952;  255,266; 8423,966;38,55798
 538,88; 3423,762;  285,731; 8462,765;38,37616
 539,46; 3511,399;  328,883; 8646,701;38,26143
 540,05; 3543,563;  316,115; 8775,884;38,15054
 540,63; 3620,098;  361,038; 8905,380;38,14291
 541,21; 3714,853;  366,116; 9075,653;38,44908
 541,79; 3740,755;  390,654; 9170,864;38,15514
 542,38; 3814,285;  412,807; 9330,650;38,14239
 542,96; 3853,124;  408,656; 9479,706;37,97210
 543,54; 3944,048;  430,654; 9661,083;38,06317
 544,12; 3988,568;  388,578; 9823,594;38,15564
 544,70; 4002,559;  383,964; 9914,522;37,96834
 545,29; 4036,723;  407,499;10096,663;37,45652
 545,87; 4074,909;  399,039;10157,787;37,66744
 546,45; 4064,190;  363,730;10156,749;37,78672
 547,03; 4063,654;  342,500;10258,850;37,52544
 547,62; 4104,924;  326,885;10368,644;37,62328
 548,20; 4176,088;  355,117;10597,289;37,30625
 548,78; 4197,638;  317,044;10698,351;37,38059
 549,36; 4241,881;  292,275;10921,984;37,15629
 549,94; 4294,249;  272,117;11092,114;37,17314
 550,53; 4364,845;  286,274;11315,691;36,97903
 551,11; 4409,758;  254,584;11509,573;36,91851
 551,69; 4549,104;  268,198;11862,748;36,92171
 552,27; 4594,026;  233,119;12089,540;36,78097
 552,85; 4743,331;  233,430;12540,839;36,64379
 553,44; 4862,589;  233,736;12820,273;36,77623
 554,02; 5011,624;  257,814;13201,336;36,72734
 554,60; 5041,409;  201,584;13494,682;36,40856
 555,18; 5239,629;  243,121;13918,271;36,53713
 555,76; 5340,481;  226,198;14301,923;36,33406
 556,34; 5460,540;  233,662;14674,211;36,19584
 556,93; 5625,811;  219,583;15083,144;36,37236
 557,51; 5723,373;  203,278;15387,273;36,35469
 558,09; 5868,549;  224,198;15830,305;36,16758
 558,67; 5985,610;  233,048;16219,568;35,98383
 559,25; 6098,984;  242,355;16487,953;36,05056
 559,83; 6176,822;  229,280;16758,879;35,98117
 560,41; 6282,083;  208,585;17153,685;35,84221
 561,00; 6425,093;  222,125;17470,204;35,96324
 561,58; 6494,669;  212,662;17727,120;35,86755
 562,16; 6542,559;  210,584;18055,027;35,48429
 562,74; 6720,810;  190,352;18460,559;35,74375
 563,32; 6837,549;  199,511;18857,914;35,57667
 563,90; 6990,621;  216,125;19201,847;35,68205
 564,48; 7136,241;  227,123;19670,236;35,53504
 565,06; 7324,969;  217,279;20219,584;35,53436
 565,65; 7525,864;  216,513;20925,774;35,29509
 566,23; 7807,817;  264,433;21708,119;35,17765
 566,81; 8014,634;  213,740;22407,220;35,14949
 567,39; 8305,017;  225,819;23319,797;34,98400
 567,97; 8530,052;  237,202;24005,747;34,89002
 568,55; 8844,465;  245,895;24831,062;34,97462
 569,13; 9007,265;  215,279;25450,181;34,84058
 569,71; 9312,747;  209,660;26444,524;34,69843
 570,29; 9680,066;  258,736;27448,131;34,65075
 570,87; 9903,923;  261,737;28161,745;34,55980
 571,45;10133,910;  235,433;28793,947;34,66034
 572,03;10220,719;  196,281;29276,799;34,47132
 572,61;10416,258;  194,587;30040,895;34,24769
 573,20;10744,150;  215,047;30685,741;34,55485
 573,78;10869,714;  222,049;31358,732;34,19653
 574,36;10994,784;  223,818;31822,003;34,08729
 574,94;11161,651;  267,050;32220,109;34,09564
 575,52;11187,333;  221,130;32436,480;34,04030
 576,10;11423,034;  266,514;33090,274;33,98916
 576,68;11499,379;  249,665;33505,806;33,82748
 577,26;11712,905;  262,131;34187,650;33,75269
 577,84;11884,998;  272,818;34734,484;33,69593
 578,42;11957,861;  305,743;35110,116;33,47889
 579,00;11977,339;  248,049;35113,781;33,64131
 579,58;12009,165;  279,666;35455,584;33,34525
 580,16;11921,300;  258,975;35470,356;33,12090
 580,74;12030,448;  255,975;35730,039;33,19178
 581,32;12048,706;  251,512;35778,119;33,20664
 581,90;11963,478;  276,513;35652,497;33,03644
 582,48;12011,772;  277,975;35829,559;33,00499
 583,06;11968,547;  258,820;36024,002;32,74058
 583,64;12025,784;  246,897;36134,165;32,82191
 584,22;11902,549;  267,284;35945,573;32,61161
 584,80;11810,155;  274,897;35793,562;32,47661
 585,38;11661,368;  275,124;35326,464;32,48448
 585,96;11667,779;  257,434;35489,175;32,38655
 586,54;11656,365;  277,592;35445,780;32,35530
 587,12;11626,139;  234,744;35572,147;32,23608
 587,70;11633,850;  277,511;35778,551;31,98875
 588,28;11576,943;  256,591;35861,182;31,79464
 588,86;11660,488;  268,360;35959,988;31,91821
 589,44;11659,024;  243,978;36002,057;31,92298
 590,02;11713,660;  264,362;36238,897;31,82612
 590,59;11746,081;  235,515;36415,306;31,81491
 591,17;11845,482;  257,750;36680,742;31,81433
 591,75;11780,949;  235,287;36860,235;31,52404
 592,33;11878,773;  263,440;37061,033;31,56547
 592,91;11876,678;  203,519;37315,217;31,45412
 593,49;11985,475;  222,059;37674,071;31,40931
 594,07;12047,730;  239,520;37925,442;31,33321
 594,65;12017,852;  250,284;37876,764;31,27470
 595,23;12158,124;  239,978;38306,171;31,30901
 595,81;12139,456;  245,286;38397,031;31,17595
 596,39;12150,045;  226,671;38542,232;31,11888
 596,97;12154,657;  223,750;38692,197;31,01479
 597,55;12098,184;  234,515;38665,316;30,87021
 598,12;11982,577;  222,521;38696,469;30,56628
 598,70;11988,873;  211,365;38773,674;30,54150
 599,28;12017,366;  239,442;39030,128;30,36276
 599,86;12032,613;  232,673;38969,186;30,46206
 600,44;11936,526;  189,904;39112,856;30,17917
 601,02;12062,554;  254,677;39160,333;30,35003
 601,60;11915,617;  236,826;39101,094;30,05020
 602,18;11871,527;  195,367;39178,268;29,95200
 602,75;11869,847;  220,516;39266,809;29,83466
 603,33;11762,926;  217,289;39268,148;29,56564
 603,91;11717,918;  206,829;39221,947;29,50418
 604,49;11748,790;  232,750;39381,511;29,41610
 605,07;11696,445;  238,056;39291,270;29,34045
 605,65;11670,671;  248,982;39463,035;29,12652
 606,23;11650,310;  287,053;39628,463;28,88371
 606,80;11590,364;  305,901;39619,481;28,70373
 607,38;11606,689;  334,752;39785,301;28,57232
 607,96;11530,465;  359,593;39643,237;28,43645
 608,54;11563,958;  403,905;39804,091;28,32487
 609,12;11561,858;  378,670;39785,242;28,37899
 609,70;11492,452;  418,827;39870,257;28,06901
 610,27;11497,737;  418,132;39954,589;28,02377
 610,85;11451,808;  425,980;39954,538;27,89332
 611,43;11401,862;  431,904;39861,625;27,82155
 612,01;11255,465;  413,517;39660,987;27,62458
 612,59;11254,749;  409,827;39664,131;27,62735
 613,16;11151,493;  381,284;39732,901;27,36916
 613,74;11099,188;  375,981;39599,910;27,33843
 614,32;11024,812;  345,213;39499,943;27,27537
 614,90;10949,717;  337,595;39429,573;27,14655
 615,48;10803,810;  297,362;39101,288;27,07574
 616,05;10744,876;  277,207;39046,981;26,99956
 616,63;10639,557;  278,976;38958,059;26,78601
 617,21;10520,649;  295,285;38882,617;26,49928
 617,79;10458,933;  271,517;38756,350;26,47125
 618,36;10396,732;  291,825;38720,557;26,29519
 618,94;10248,528;  229,823;38321,579;26,30150
 619,52;10168,010;  249,360;38017,161;26,26218
 620,10;10087,372;  234,670;38077,333;26,03596
 620,67;10056,051;  253,899;37938,282;26,01118
 621,25; 9948,299;  270,287;37750,276;25,82181
 621,83; 9944,693;  249,439;37684,782;25,89866
 622,41; 9832,664;  300,439;37741,832;25,45906
 622,98; 9765,889;  256,360;37503,046;25,53121
 623,56; 9703,492;  274,667;37527,385;25,31043
 624,14; 9641,684;  257,211;37256,457;25,36396
 624,72; 9570,035;  247,516;37240,510;25,20077
 625,29; 9519,755;  241,975;37337,839;25,01028
 625,87; 9514,416;  275,209;37290,909;24,96024
 626,45; 9420,868;  231,359;37086,075;24,93442
 627,02; 9363,861;  248,132;37006,005;24,79939
 627,60; 9270,550;  228,289;37018,074;24,57819
 628,18; 9223,473;  210,747;37125,396;24,41504
 628,76; 9195,729;  225,360;37122,575;24,31178
 629,33; 9164,679;  254,284;37117,201;24,17170
 629,91; 9126,987;  232,978;37096,333;24,12697
 630,49; 9053,054;  255,207;37162,507;23,83769
 631,06; 9093,196;  248,976;37310,230;23,86379
 631,64; 9019,323;  255,437;37284,604;23,66752
 632,22; 8896,639;  212,589;37177,783;23,49250
 632,79; 8940,132;  230,205;37487,314;23,37789
 633,37; 8884,297;  225,902;37466,818;23,24968
 633,95; 8850,563;  236,436;37626,426;23,03859
 634,52; 8843,367;  226,593;37730,266;22,97581
 635,10; 8805,566;  233,593;37751,993;22,84738
 635,68; 8837,419;  232,359;37921,293;22,83180
 636,25; 8694,750;  202,434;38006,841;22,46382
 636,83; 8753,883;  207,360;38113,037;22,54682
 637,41; 8725,564;  222,358;38123,060;22,43548
 637,98; 8738,821;  246,666;38412,090;22,25091
 638,56; 8710,600;  237,049;38524,700;22,13129
 639,13; 8667,871;  224,898;38519,838;22,04723
 639,71; 8719,171;  266,899;38742,551;21,96785
 640,29; 8591,179;  183,514;38394,662;22,00317
 640,86; 8553,548;  203,976;38724,562;21,67561
 641,44; 8575,379;  203,053;38562,538;21,82596
 642,02; 8486,209;  237,669;38730,514;21,42876
 642,59; 8492,732;  210,207;38880,106;21,41853
 643,17; 8370,563;  209,361;38775,466;21,16159
 643,74; 8316,163;  209,592;38758,673;21,02922
 644,32; 8299,686;  233,515;38873,265;20,87532
 644,89; 8282,055;  230,130;38821,472;20,86459
 645,47; 8192,578;  253,669;38837,833;20,57556
 646,05; 8165,178;  235,361;38730,117;20,59973
 646,62; 8070,009;  224,285;38751,247;20,36424
 647,20; 8055,224;  232,362;38965,300;20,19693
 647,77; 7973,132;  195,669;38789,430;20,15212
 648,35; 7904,655;  202,669;38628,637;20,04370
 648,92; 7898,716;  225,516;38666,844;19,96081
 649,50; 7802,855;  195,131;38549,743;19,83523
 650,08; 7771,147;  205,977;38472,027;19,76993
 650,65; 7753,824;  204,362;38580,696;19,67218
 651,23; 7809,885;  187,670;39402,980;19,43684
 651,80; 7965,332;  187,593;40441,418;19,32174
 652,38; 8004,393;  207,747;40831,778;19,19220
 652,95; 8006,685;  180,593;41162,601;19,09641
 653,53; 8093,131;  217,362;41458,346;19,09695
 654,10; 8084,270;  238,593;41596,938;18,97000
 654,68; 8002,177;  200,286;41438,991;18,91886
 655,25; 7969,162;  195,440;41513,121;18,81452
 655,83; 7926,608;  198,440;41557,559;18,68552
 656,40; 7945,285;  226,824;41553,381;18,67676
 656,98; 7869,885;  211,132;41612,050;18,49899
 657,55; 7813,869;  202,132;41424,565;18,46504
 658,13; 7666,392;  200,055;41004,618;18,29780
 658,70; 7589,223;  218,132;40836,286;18,14728
 659,28; 7379,746;  207,517;39943,955;18,04950
 659,85; 7187,577;  221,133;39137,469;17,90108
 660,43; 7165,408;  211,517;39171,292;17,84890
 661,00; 7131,238;  203,287;39186,883;17,77145
 661,58; 7135,838;  198,825;39684,398;17,56848
 662,15; 7110,284;  200,671;39787,759;17,45421
 662,73; 7187,731;  259,287;40132,658;17,37612
 663,30; 7189,638;  208,825;40338,327;17,39571
 663,88; 7156,238;  203,133;40417,534;17,29009
 664,45; 7113,915;  191,595;40816,895;17,03943
 665,03; 7189,438;  204,287;41034,256;17,10790
 665,60; 7243,576;  283,980;41597,539;16,84579
 666,17; 7157,407;  219,287;41755,285;16,70387
 666,75; 7175,545;  194,057;41987,030;16,70493
 667,32; 7192,453;  211,980;42377,007;16,55513
 667,90; 7181,361;  198,057;42671,060;16,44175
 668,47; 7238,807;  224,595;42877,959;16,44469
 669,05; 7230,561;  207,134;43213,243;16,33123
 669,62; 7163,776;  169,365;43318,065;16,21002
 670,19; 7128,837;  186,596;43414,888;16,05949
 670,77; 7156,591;  201,365;43623,249;16,01779
 671,34; 7122,576;  188,519;43622,533;15,96458
 671,92; 7143,791;  195,211;43894,893;15,90076
 672,49; 7065,006;  220,134;43936,177;15,65757
 673,06; 7025,914;  167,673;43929,077;15,67189
 673,64; 6998,668;  185,904;43829,437;15,61002
 674,21; 6945,191;  171,827;43843,260;15,50983
 674,79; 6981,252;  215,442;44122,928;15,40924
 675,36; 6932,929;  212,289;44363,597;15,22184
 675,93; 6869,991;  186,443;44148,342;15,20305
 676,51; 6908,821;  203,673;44467,396;15,14818
 677,08; 6852,960;  206,443;44381,833;15,04575
 677,65; 6827,560;  209,904;44546,579;14,92592
 678,23; 6832,544;  196,520;44795,709;14,87925
 678,80; 6829,990;  191,058;44857,762;14,86327
 679,38; 6804,206;  192,058;44996,277;14,75787
 679,95; 6833,190;  204,597;45358,638;14,67996
 680,52; 6788,175;  187,520;45587,845;14,53878
 681,10; 6837,698;  213,136;45975,744;14,47593
 681,67; 6831,375;  203,597;46311,489;14,37450
 682,24; 6796,359;  185,597;46273,927;14,34368
 682,82; 6883,882;  195,367;46900,288;14,32079
 683,39; 6952,713;  238,521;47203,495;14,29617
 683,96; 6859,698;  204,521;47468,240;14,08094
 684,54; 6889,144;  181,367;47753,601;14,10019
 685,11; 6921,282;  239,521;48220,193;13,92594
 685,68; 6925,497;  205,598;48535,477;13,90423
 686,25; 6917,097;  184,367;48735,145;13,86740
 686,83; 6935,697;  198,444;48885,045;13,83800
 687,40; 6981,836;  186,213;49219,021;13,85934
 687,97; 6997,128;  228,983;49642,689;13,69690
 688,55; 6955,113;  184,137;49562,819;13,71235
 689,12; 6893,174;  166,829;49904,488;13,52365
 689,69; 6949,082;  174,906;50041,772;13,58452
 690,26; 6915,143;  202,983;50050,056;13,46551
 690,84; 6899,512;  188,983;50302,109;13,39076
 691,41; 6889,497;  203,060;50265,701;13,35614
 691,98; 6899,635;  201,983;50695,292;13,26443
 692,56; 6793,697;  189,753;50778,961;13,05406
 693,13; 6844,989;  244,137;50830,706;13,04863
 693,70; 6839,897;  207,061;50932,221;13,07603
 694,27; 6768,497;  198,214;51258,813;12,86762
 694,84; 6783,635;  190,061;51133,404;12,94296
 695,42; 6834,004;  230,061;51318,765;12,92643
 695,99; 6791,220;  195,369;51420,510;12,87620
 696,56; 6735,435;  197,522;51374,025;12,77522
 697,13; 6768,958;  203,523;51868,848;12,70762
 697,71; 6721,404;  175,292;51889,285;12,65830
 698,28; 6720,542;  189,830;52164,108;12,56528
 698,85; 6722,296;  157,446;52182,699;12,61858
 699,42; 6722,204;  162,907;52472,752;12,53932
 699,99; 6755,573;  197,215;52494,498;12,54053
 700,57; 6706,865;  193,677;52598,628;12,42857
 701,14; 6663,696;  179,677;52679,604;12,35053
 701,71; 6697,527;  198,908;52900,196;12,33104
 702,28; 6657,588;  187,600;52938,864;12,26509
 702,85; 6648,804;  199,908;52906,994;12,23535
 703,43; 6664,250;  207,831;53360,894;12,14684
 704,00; 6672,850;  225,062;53470,408;12,10958
 704,57; 6601,449;  208,524;53381,231;12,02295
 705,14; 6651,973;  216,447;53670,669;12,03932
 705,71; 6653,649;  211,062;53798,491;12,02257
 706,28; 6623,557;  189,678;53673,160;12,02966
 706,86; 6620,772;  225,216;53871,597;11,92169
 707,43; 6611,757;  239,755;53866,420;11,88215
 708,00; 6562,665;  218,678;53859,627;11,82676
 708,57; 6536,418;  190,832;53769,988;11,84339
 709,14; 6564,634;  221,909;53938,271;11,80781
 709,71; 6549,695;  195,601;54030,786;11,80286
 710,28; 6544,372;  204,678;54240,378;11,73242
 710,86; 6541,049;  203,832;54357,662;11,70225
 711,43; 6591,495;  226,986;54343,869;11,76067
 712,00; 6537,480;  210,371;54522,076;11,64962
 712,57; 6554,849;  219,986;54547,283;11,66055
 713,14; 6516,756;  209,294;54769,567;11,56054
 713,71; 6477,279;  222,448;54599,851;11,50263
 714,28; 6483,033;  210,294;54662,211;11,51978
 714,85; 6408,787;  190,371;54369,341;11,47755
 715,42; 6416,772;  202,217;54618,010;11,42050
 716,00; 6508,602;  263,987;54710,063;11,46936
 716,57; 6455,202;  204,371;54790,732;11,45127
 717,14; 6369,110;  197,679;54877,093;11,28657
 717,71; 6369,633;  179,679;54784,761;11,33586
 718,28; 6382,617;  233,372;54958,891;11,23652
 718,85; 6327,987;  187,449;55041,944;11,19423
 719,42; 6406,740;  217,833;55159,690;11,26447
 719,99; 6365,648;  181,141;55005,128;11,28066
 720,56; 6324,709;  216,218;55192,873;11,11106
 721,13; 6345,309;  195,141;55296,618;11,16153
 721,70; 6323,217;  192,449;55204,056;11,14450
 722,27; 6370,509;  217,526;55252,263;11,18018
 722,84; 6419,494;  256,757;55392,701;11,17735
 723,41; 6316,171;  185,911;55387,370;11,10525
 723,98; 6366,386;  194,757;55579,653;11,14316
 724,55; 6360,371;  223,680;55786,245;11,04465
 725,12; 6322,201;  154,296;55632,298;11,11775
 725,69; 6359,724;  200,450;55798,505;11,07822
 726,27; 6382,170;  195,450;55981,328;11,09012
 726,84; 6401,847;  197,834;56216,612;11,07488
 727,41; 6428,063;  214,142;56164,972;11,10604
 727,98; 6410,201;  215,450;56552,102;10,99595
 728,55; 6440,186;  234,296;56450,233;11,03938
 729,12; 6380,016;  181,373;56490,055;11,00833
 729,69; 6440,924;  219,296;56778,954;11,00012
 730,26; 6440,139;  222,912;56899,007;10,96975
 730,82; 6414,893;  207,297;56748,137;10,97896
 731,39; 6432,108;  197,143;56856,191;11,00436
 731,96; 6471,939;  190,143;57225,782;11,01381
 732,53; 6552,847;  201,758;57488,451;11,08650
 733,10; 6509,062;  213,374;57534,196;10,98325
 733,67; 6547,277;  206,989;57751,096;11,01814
 734,24; 6496,339;  190,682;57308,610;11,03972
 734,81; 6564,631;  227,297;57476,586;11,06972
 735,38; 6497,385;  205,759;57341,409;11,01173
 735,95; 6526,369;  199,143;57096,000;11,12052
 736,52; 6523,354;  217,374;57264,823;11,05392
 737,09; 6453,954;  214,605;56955,876;10,99614
 737,66; 6474,554;  255,451;57133,698;10,93406
 738,23; 6514,692;  196,451;57238,521;11,07646
 738,80; 6571,369;  262,528;57491,805;11,02380
 739,37; 6566,815;  234,298;57758,089;11,00852
 739,94; 6559,723;  213,529;57798,834;11,02051
 740,51; 6658,400;  317,990;57901,118;11,01088
 741,07; 6568,769;  201,837;57796,863;11,05466
 741,64; 6598,907;  238,452;58036,917;11,00454
 742,21; 6582,046;  215,991;58049,277;11,00760
 742,78; 6561,800;  195,221;57761,792;11,05951
 743,35; 6615,707;  212,221;58071,076;11,06743
 743,92; 6643,923;  248,760;58380,052;11,00124
 744,49; 6626,446;  229,222;57986,336;11,07608
 745,06; 6658,046;  213,376;58040,005;11,14481
 745,63; 6630,492;  194,837;58088,135;11,11641
 746,19; 6633,092;  199,760;58059,265;11,11888
 746,76; 6688,230;  213,222;58131,010;11,17965
 747,33; 6680,368;  214,530;58115,063;11,16715
 747,90; 6709,122;  214,914;58300,347;11,18044
 748,47; 6707,722;  221,838;58159,093;11,19467
 749,04; 6754,937;  230,376;58126,531;11,26942
 749,61; 6727,768;  238,684;58085,199;11,21776
 750,17; 6748,983;  218,453;58233,329;11,25665
 750,74; 6763,737;  223,838;58144,382;11,29116
 751,31; 6742,799;  198,992;58062,897;11,30896
 751,88; 6699,091;  189,453;57927,643;11,27441
 752,45; 6761,306;  211,992;58131,234;11,30767
 753,02; 6735,214;  234,684;57998,210;11,25369
 753,58; 6756,968;  193,069;57799,648;11,39436
 754,15; 6773,491;  195,531;57940,624;11,39137
 754,72; 6759,398;  199,531;57836,524;11,38135
 755,29; 6737,306;  183,992;57553,885;11,42291
 755,86; 6771,291;  209,146;57743,399;11,40563
 756,42; 6817,352;  218,300;57561,222;11,50805
 756,99; 6785,567;  197,070;57557,890;11,48606
 757,56; 6809,475;  208,377;57604,559;11,50094
 758,13; 6784,075;  165,300;57528,612;11,53834
 758,70; 6866,367;  194,070;57577,588;11,62755
 759,26; 6846,121;  200,301;57653,026;11,56746
 759,83; 6883,106;  214,608;57756,002;11,58904
 760,40; 6896,090;  190,532;57602,901;11,67964
 760,97; 6900,229;  181,532;57745,724;11,67166
 761,53; 6880,752;  173,686;57327,085;11,73520
 762,10; 6858,890;  164,686;57321,369;11,71202
 762,67; 6908,951;  205,840;57303,499;11,73973
 763,24; 6849,936;  158,224;56833,552;11,80710
 763,80; 6908,074;  198,147;56985,990;11,81578
 764,37; 6906,905;  189,917;56905,658;11,84325
 764,94; 6868,890;  178,917;56441,711;11,89058
 765,50; 6883,336;  176,302;56408,764;11,92734
 766,07; 6950,551;  205,917;56378,510;12,00698
 766,64; 6879,382;  184,917;56131,409;11,96583
 767,21; 6907,443;  181,917;56024,462;12,04373
 767,77; 6968,428;  202,763;55931,592;12,14033
 768,34; 6934,874;  209,148;55892,722;12,07847
 768,91; 6945,397;  210,456;55688,314;12,13987
 769,47; 7005,920;  205,225;55727,752;12,24853
 770,04; 6981,289;  209,225;55589,343;12,22833
 770,61; 6951,889;  190,533;55380,166;12,25113
 771,18; 6992,028;  190,379;55216,142;12,36084
 771,74; 7041,166;  195,918;55472,888;12,38354
 772,31; 7048,074;  207,149;55135,018;12,45438
 772,88; 6978,981;  172,456;54969,378;12,42136
 773,44; 7004,966;  185,072;54724,893;12,50443
 774,01; 7063,489;  208,149;54924,792;12,52880
 774,58; 7021,781;  192,303;54459,846;12,58483
 775,14; 7067,150;  179,380;54622,053;12,65142
 775,71; 7061,058;  189,457;54557,029;12,63915
 776,27; 7117,889;  238,534;54489,620;12,68058
 776,84; 7203,489;  270,226;54588,981;12,76403
 777,41; 7144,550;  209,457;54333,573;12,81331
 777,97; 7089,688;  187,996;54079,857;12,80656
 778,54; 7177,058;  202,303;54161,295;12,92603
 779,11; 7213,811;  234,304;54029,502;12,97422
 779,67; 7213,334;  194,534;54077,939;13,02590
 780,24; 7210,088;  206,227;53719,454;13,08809
 780,80; 7281,611;  226,381;53780,738;13,17396
 781,37; 7285,365;  219,458;53756,176;13,19825
 781,94; 7301,888;  201,227;53600,614;13,29727
 782,50; 7326,411;  208,227;53384,282;13,38607
 783,07; 7342,242;  230,381;53494,104;13,35217
 783,63; 7333,919;  196,381;53211,388;13,46324
 784,20; 7379,288;  223,766;53191,442;13,50922
 784,77; 7380,888;  209,689;52920,110;13,60490
 785,33; 7370,642;  189,612;52761,548;13,65944
 785,90; 7406,318;  209,920;52792,909;13,68579
 786,46; 7438,303;  229,151;52641,577;13,75466
 787,03; 7414,057;  205,689;52420,553;13,80520
 787,59; 7423,811;  205,228;52470,607;13,81140
 788,16; 7405,257;  222,689;52317,814;13,78741
 788,73; 7440,010;  228,074;52168,098;13,88512
 789,29; 7404,303;  210,382;51840,151;13,93367
 789,86; 7431,826;  227,844;51718,819;13,99077
 790,42; 7442,195;  222,228;51698,642;14,02578
 790,99; 7423,564;  226,382;51221,464;14,11348
 791,55; 7430,087;  205,767;51189,517;14,16985
 792,12; 7445,610;  235,459;51250,724;14,13332
 792,68; 7480,595;  214,844;50930,162;14,32654
 793,25; 7469,118;  218,382;50748,907;14,34922
 793,81; 7504,333;  272,613;50268,961;14,46450
 794,38; 7391,702;  197,460;50098,783;14,41694
 794,94; 7459,533;  206,613;50010,836;14,56286
 795,51; 7456,441;  234,614;49636,120;14,61864
 796,07; 7464,425;  216,075;49489,250;14,71054
 796,64; 7513,025;  229,537;49531,303;14,77328
 797,20; 7438,087;  227,922;49147,049;14,73895
 797,77; 7405,148;  194,614;48731,179;14,85588
 798,33; 7494,594;  222,614;48696,924;15,00172
 798,90; 7492,579;  237,614;48520,439;15,02597
 799,46; 7401,563;  209,922;48030,569;15,03878
 800,03; 7476,471;  218,537;47993,084;15,19205
 800,59; 7502,455;  231,537;47753,445;15,30014
 801,15; 7475,209;  244,230;47560,575;15,28220
 801,72; 7431,809;  219,307;47296,705;15,32052
 802,28; 7446,717;  248,845;46915,989;15,42385
 802,85; 7409,778;  220,768;46647,042;15,48479
 803,41; 7424,301;  218,922;46464,249;15,58077
 803,98; 7400,747;  216,538;46099,763;15,65759
 804,54; 7348,424;  213,999;45879,432;15,62325
 805,11; 7385,024;  222,307;45628,947;15,77460
 805,67; 7429,855;  249,846;45488,384;15,87144
 806,23; 7336,378;  232,231;45109,207;15,83027
 806,80; 7399,286;  249,231;45059,414;15,95632
 807,36; 7402,501;  243,615;44980,390;16,00224
 807,93; 7400,101;  248,154;44652,982;16,10624
 808,49; 7348,316;  215,692;44293,496;16,18189
 809,05; 7333,916;  205,231;44215,011;16,19796
 809,62; 7345,670;  237,308;44081,295;16,21285
 810,18; 7373,424;  235,462;43991,964;16,31292
 810,74; 7348,485;  201,077;43586,094;16,47437
 811,31; 7384,393;  204,770;43439,378;16,60619
 811,87; 7408,070;  220,693;43221,969;16,71433
 812,44; 7454,054;  253,924;43351,638;16,70653
 813,00; 7403,654;  182,385;43052,614;16,84448
 813,56; 7449,793;  234,616;43028,975;16,86011
 814,13; 7451,085;  220,001;42955,182;16,92068
 814,69; 7494,992;  224,078;42729,620;17,10580
 815,25; 7418,131;  187,924;42265,980;17,18284
 815,82; 7473,962;  235,770;42261,803;17,22311
 816,38; 7460,946;  268,617;42136,010;17,17883
 816,94; 7412,085;  210,617;41705,524;17,35506
 817,51; 7446,069;  207,848;41603,655;17,48540
 818,07; 7354,977;  210,232;41236,169;17,41519
 818,63; 7400,192;  233,617;41066,222;17,55111
 819,20; 7427,330;  226,925;40996,122;17,66139
 819,76; 7391,930;  201,156;40596,252;17,80111
 820,32; 7429,223;  248,694;40578,766;17,80440
 820,89; 7416,284;  236,310;40284,589;17,92830
 821,45; 7416,884;  222,848;39917,873;18,12327
 822,01; 7375,099;  229,617;39761,387;18,07529
 822,57; 7433,930;  234,848;39616,287;18,28039
 823,14; 7394,992;  200,310;39335,494;18,38418
 823,70; 7401,515;  212,387;39129,855;18,47275
 824,26; 7369,807;  213,387;38920,985;18,48841
 824,82; 7398,022;  249,002;38790,346;18,54896
 825,39; 7344,853;  215,310;38492,476;18,62610
 825,95; 7435,530;  233,156;38548,683;18,79753
 826,51; 7359,668;  237,310;38121,351;18,80042
 827,08; 7434,191;  262,157;38176,943;18,91619
 827,64; 7433,407;  241,618;38010,304;19,04167
 828,20; 7370,160;  211,618;37685,588;19,10271
 828,76; 7424,991;  250,388;37665,641;19,17561
 829,32; 7416,129;  248,234;37578,463;19,20132
 829,89; 7412,037;  200,080;37370,901;19,40220
 830,45; 7449,099;  241,003;37326,262;19,43655
 831,01; 7452,006;  221,465;37130,930;19,58994
 831,57; 7490,298;  223,388;37025,753;19,74577
 832,14; 7484,822;  221,542;37007,190;19,74487
 832,70; 7457,883;  202,619;36693,936;19,88217
 833,26; 7493,098;  183,234;36693,681;20,02129
 833,82; 7533,467;  217,081;36566,965;20,12768
 834,38; 7567,837;  216,927;36445,172;20,29055
 834,95; 7545,667;  201,465;36371,764;20,30451
 835,51; 7545,113;  169,466;36375,509;20,37132
 836,07; 7649,790;  221,389;36354,332;20,55853
 836,63; 7674,698;  238,696;36262,231;20,64207
 837,19; 7631,452;  231,158;36133,900;20,61206
 837,75; 7546,744;  182,158;35783,183;20,68644
 838,32; 7675,959;  244,851;35931,929;20,82297
 838,88; 7689,021;  240,004;36031,367;20,81233
 839,44; 7710,775;  231,312;35826,804;21,01239
 840,00; 7683,375;  221,851;35768,396;20,99085
 840,56; 7659,282;  204,928;35450,834;21,14956
 841,12; 7716,574;  207,312;35470,964;21,29462
 841,68; 7675,328;  194,313;35269,632;21,32843
 842,25; 7685,159;  204,159;35319,224;21,30425
 842,81; 7673,297;  201,236;34981,585;21,48357
 843,37; 7711,743;  196,467;35065,715;21,55274
 843,93; 7739,266;  201,313;34900,537;21,72369
 844,49; 7789,097;  223,467;35037,206;21,73174
 845,05; 7743,928;  180,698;34748,336;21,87951
 845,61; 7843,682;  233,082;34749,543;22,04919
 846,17; 7819,282;  216,467;34727,519;22,03009
 846,73; 7875,728;  214,313;34654,957;22,24527
 847,29; 7829,482;  198,083;34464,241;22,27095
 847,86; 7869,543;  199,467;34366,679;22,44864
 848,42; 7843,758;  199,237;34149,732;22,51667
 848,98; 7866,128;  222,314;34060,708;22,58917
 849,54; 7941,651;  200,929;34173,684;22,78509
 850,10; 7972,020;  215,083;34019,661;22,94641
 850,66; 7903,927;  190,468;33877,560;22,89737
 851,22; 7946,450;  193,929;33775,151;23,08588
 851,78; 7960,358;  250,083;33848,820;22,94811
 852,34; 7952,112;  230,237;33620,104;23,12640
 852,90; 7929,635;  204,160;33484,772;23,21314
 853,46; 7928,312;  202,776;33288,672;23,34994
 854,02; 7975,912;  208,776;33279,417;23,48650
 854,58; 7916,819;  205,084;33035,163;23,48985
 855,14; 7950,496;  209,315;32941,216;23,65027
 855,70; 7932,404;  179,084;32930,038;23,67357
 856,26; 7987,081;  226,238;32714,476;23,88816
 856,82; 7920,527;  204,853;32531,683;23,86771
 857,38; 7990,819;  237,776;32537,582;24,00337
 857,94; 7975,727;  211,161;32329,943;24,17453
 858,50; 8007,250;  223,469;32305,227;24,26233
 859,06; 7993,850;  203,007;31977,357;24,51928
 859,62; 8009,603;  232,854;31969,103;24,50431
 860,18; 8021,973;  214,700;31814,617;24,70662
 860,74; 8003,803;  186,469;31707,747;24,80018
 861,30; 7990,172;  196,239;31471,108;24,92076
 861,86; 8096,311;  259,008;31502,546;25,08456
 862,42; 8014,834;  220,008;31344,061;25,04438
 862,98; 8177,665;  245,239;31302,960;25,54091
 863,54; 8076,572;  217,623;31021,398;25,51294
 864,10; 8133,557;  219,624;31180,143;25,56137
 864,66; 8100,695;  191,008;30899,966;25,75694
 865,22; 8162,834;  212,547;30794,096;25,99701
 865,78; 8118,741;  211,162;30645,226;25,98266
 866,34; 8111,880;  197,778;30510,202;26,10844
 866,90; 8115,480;  222,470;30363,871;26,18661
 867,45; 8154,233;  215,316;30152,924;26,51821
 868,01; 8081,372;  220,163;30001,285;26,39662
 868,57; 8034,126;  216,393;29747,799;26,47260
 869,13; 8059,649;  204,317;29714,622;26,61895
 869,69; 8081,172;  206,394;29664,598;26,73204
 870,25; 8075,464;  188,624;29505,420;26,90212
 870,81; 8126,525;  216,471;29362,704;27,13920
 871,37; 8098,895;  215,240;29343,834;27,06500
 871,93; 8096,879;  229,855;29159,503;27,19364
 872,49; 8097,325;  241,702;28918,633;27,39353
 873,04; 8005,233;  201,933;28846,378;27,24193
 873,60; 8022,987;  195,702;28661,970;27,49670
 874,16; 8056,663;  219,394;28592,177;27,62249
 874,72; 8084,279;  202,471;28505,023;27,84840
 875,28; 8044,433;  216,394;28451,946;27,72405
 875,84; 8050,740;  212,779;28416,485;27,79054
 876,40; 8056,125;  202,702;28364,023;27,88727
 876,95; 8050,279;  222,548;28281,100;27,89784
 877,51; 8111,048;  237,240;28300,485;28,05737
 878,07; 8151,510;  244,625;28271,485;28,21181
 878,63; 8180,894;  207,240;28237,100;28,44700
 879,19; 8171,279;  225,933;28303,254;28,29809
 879,75; 8251,048;  202,010;28379,177;28,56582
 880,30; 8265,971;  205,010;28285,792;28,70633
 880,86; 8343,279;  252,856;28427,562;28,71520
 881,42; 8382,510;  200,702;28463,023;28,94952
 881,98; 8431,817;  234,856;28522,638;28,97704
 882,54; 8443,510;  199,317;28608,331;29,01964
 883,09; 8581,663;  222,933;28754,946;29,29597
 883,65; 8596,663;  201,933;28861,792;29,29090
 884,21; 8713,740;  244,471;29072,946;29,37814
 884,77; 8703,433;  204,933;29068,023;29,44418
 885,32; 8775,740;  207,625;29326,638;29,42447
 885,88; 8890,433;  249,548;29431,792;29,61008
 886,44; 8914,125;  216,471;29416,254;29,78671
 887,00; 8940,817;  235,163;29470,100;29,77825
 887,56; 8989,587;  216,702;29674,177;29,78152
 888,11; 9044,125;  213,856;29634,177;30,01418
 888,67; 9145,279;  248,856;29821,331;30,08346
 889,23; 9193,894;  224,779;29841,023;30,28445
 889,79; 9137,279;  200,933;29749,715;30,24269
 890,34; 9156,048;  224,087;29662,562;30,34111
 890,90; 9325,433;  289,471;29787,100;30,63284
 891,46; 9165,817;  207,933;29726,177;30,34694
 892,01; 9280,202;  229,856;29682,023;30,72896
 892,57; 9286,356;  244,087;29601,177;30,80097
 893,13; 9264,817;  215,240;29331,100;31,08126
 893,69; 9318,125;  214,702;29356,638;31,23822
 894,24; 9292,202;  226,163;29248,562;31,23807
 894,80; 9278,433;  224,933;29131,254;31,32014
 895,36; 9271,971;  227,625;29013,946;31,41890
 895,91; 9225,356;  220,317;28725,946;31,59039
 896,47; 9292,279;  234,548;28766,331;31,74611
 897,03; 9213,510;  215,240;28519,408;31,79132
 897,58; 9201,894;  224,010;28410,715;31,85149
 898,14; 9173,356;  228,779;28245,485;31,92587
 898,70; 9099,356;  205,087;28088,562;31,89799
 899,25; 9159,894;  221,856;28018,254;32,15538
 899,81; 9146,894;  235,163;27872,100;32,24573
 900,37; 9053,433;  200,625;27663,331;32,23574
 900,92; 9160,971;  221,702;27718,177;32,51060
 901,48; 9060,663;  211,779;27456,254;32,47956
 902,03; 9024,125;  210,010;27343,869;32,48382
 902,59; 9034,356;  219,087;27251,100;32,61048
 903,15; 9061,740;  240,702;27038,408;32,91714
 903,70; 8982,125;  227,010;26772,485;32,98157
 904,26; 8941,279;  210,856;26691,946;32,96852
 904,82; 8958,663;  224,933;26620,715;33,08760
 905,37; 8966,125;  232,240;26556,638;33,17791
 905,93; 8934,433;  208,702;26433,715;33,27255
 906,48; 8958,817;  235,779;26319,408;33,44258
 907,04; 8996,433;  236,010;26205,715;33,73324
 907,60; 8917,587;  226,625;25990,408;33,73325
 908,15; 8917,510;  200,471;25854,485;33,97924
 908,71; 8958,510;  243,317;25959,100;33,89044
 909,26; 8938,663;  211,317;25708,869;34,22817
 909,82; 8949,202;  241,394;25696,792;34,20810
 910,37; 8987,587;  255,163;25506,100;34,58257
 910,93; 8910,510;  212,163;25377,023;34,56545
 911,48; 8943,125;  210,471;25194,792;34,95254
 912,04; 8914,663;  209,779;25031,100;35,07019
 912,60; 9000,279;  225,548;25080,485;35,30377
 913,15; 8938,510;  217,548;24820,869;35,44628
 913,71; 8917,510;  203,394;24704,485;35,56624
 914,26; 8877,817;  203,856;24682,869;35,43428
 914,82; 8930,971;  226,317;24523,869;35,82523
 915,37; 8887,740;  201,087;24410,023;35,88201
 915,93; 8938,817;  258,394;24353,408;36,02581
 916,48; 8870,817;  202,240;24169,946;36,16774
 917,04; 8887,740;  235,317;24069,100;36,30319
 917,59; 8883,279;  251,394;23976,177;36,38341
 918,15; 8817,817;  191,856;23859,792;36,44577
 918,70; 8778,202;  216,856;23817,946;36,27521
 919,26; 8817,125;  223,010;23684,177;36,63124
 919,81; 8775,817;  203,010;23426,562;36,91428
 920,37; 8769,510;  211,163;23411,715;36,88855
 920,92; 8759,971;  232,856;23239,408;37,06386
 921,48; 8672,510;  199,317;23019,869;37,12966
 922,03; 8749,279;  207,394;23052,177;37,39096
 922,59; 8663,125;  212,933;22870,715;37,29488
 923,14; 8652,202;  209,471;22770,485;37,42177
 923,69; 8671,971;  229,548;22779,715;37,43841
 924,25; 8698,356;  232,163;22623,792;37,80963
 924,80; 8636,279;  213,087;22481,638;37,82551
 925,36; 8632,048;  216,779;22339,946;38,03827
 925,91; 8584,587;  212,702;22210,485;38,05786
 926,47; 8576,510;  191,087;22149,023;38,18858
 927,02; 8636,510;  271,240;22125,792;38,27701
 927,57; 8540,279;  209,856;21936,023;38,34281
 928,13; 8481,663;  206,548;21810,869;38,30306
 928,68; 8536,356;  215,163;21760,100;38,62250
 929,24; 8478,971;  196,394;21569,562;38,75222
 929,79; 8446,663;  202,702;21532,792;38,64944
 930,34; 8449,510;  216,394;21315,408;39,02133
 930,90; 8454,048;  214,163;21233,638;39,20119
 931,45; 8532,202;  224,394;21307,869;39,40436
 932,01; 8476,048;  232,240;21098,177;39,50845
 932,56; 8441,202;  237,240;20955,331;39,59806
 933,11; 8490,740;  249,702;20967,254;39,77805
 933,67; 8437,510;  216,010;20769,946;39,99964
 934,22; 8444,279;  226,548;20745,254;40,04995
 934,77; 8407,663;  243,010;20597,485;40,11233
 935,33; 8396,971;  221,240;20489,562;40,33748
 935,88; 8362,894;  221,087;20395,100;40,35790
 936,43; 8349,433;  208,010;20289,715;40,54149
 936,99; 8349,202;  218,087;20199,485;40,69343
 937,54; 8307,356;  202,933;19966,408;41,00708
 938,09; 8310,125;  219,779;20040,869;40,81686
 938,65; 8245,510;  218,471;19837,100;40,91539
 939,20; 8244,356;  191,702;19767,408;41,13596
 939,75; 8163,587;  196,702;19645,869;40,96260
 940,31; 8145,971;  201,010;19523,562;41,11756
 940,86; 8199,125;  218,240;19571,869;41,23715
 941,41; 8239,663;  298,548;19481,254;41,39726
 941,96; 8167,202;  210,933;19300,254;41,67916
 942,52; 8125,971;  208,471;19239,792;41,60247
 943,07; 8101,279;  201,625;19097,946;41,80525
 943,62; 8101,279;  208,471;19001,100;41,99949
 944,18; 8031,356;  195,702;18939,100;41,80487
 944,73; 8036,894;  220,625;18894,792;41,85605
 945,28; 7975,817;  178,394;18645,715;42,22282
 945,83; 8032,279;  213,163;18682,100;42,33658
 946,39; 8002,202;  209,010;18585,023;42,40959
 946,94; 8026,663;  241,163;18501,946;42,63508
 947,49; 8013,510;  207,240;18407,638;42,89065
 948,04; 8000,510;  247,163;18397,254;42,71795
 948,59; 7991,356;  236,548;18291,792;42,95044
 949,15; 7960,125;  201,933;18110,562;43,32097
 949,70; 7977,125;  220,010;18106,869;43,36768
 950,25; 7987,202;  236,240;17984,562;43,67152
 950,80; 7945,279;  179,317;17871,638;43,89453
 951,36; 7912,587;  178,625;17785,177;43,92661
 951,91; 7991,202;  232,010;17830,715;44,08956
 952,46; 7886,817;  199,163;17579,254;44,23253
 953,01; 7948,817;  224,240;17595,408;44,46781
 953,56; 7871,663;  190,471;17396,946;44,64129
 954,11; 7855,894;  220,087;17374,562;44,51205
 954,67; 7844,433;  209,779;17376,715;44,47301
 955,22; 7789,663;  189,240;17149,485;44,81317
 955,77; 7819,971;  235,856;17149,331;44,84067
 956,32; 7762,510;  259,856;17000,869;44,81601
 956,87; 7689,817;  196,702;16885,792;44,89829
 957,42; 7724,894;  209,163;16839,562;45,19273
 957,98; 7684,048;  209,317;16755,023;45,17626
 958,53; 7690,125;  235,317;16758,100;45,11835
 959,08; 7621,510;  198,779;16575,177;45,32578
 959,63; 7624,356;  203,625;16436,485;45,71425
 960,18; 7585,433;  227,240;16404,715;45,48418
 960,73; 7591,663;  218,471;16338,177;45,74024
 961,28; 7544,048;  187,933;16310,638;45,62581
 961,83; 7565,587;  239,163;16255,023;45,74480
 962,39; 7547,740;  194,933;16131,254;46,13868
 962,94; 7502,279;  222,010;16006,485;46,12297
 963,49; 7494,125;  217,394;15937,408;46,28960
 964,04; 7480,510;  226,548;15870,177;46,37007
 964,59; 7440,356;  186,933;15730,408;46,66539
 965,14; 7454,894;  224,087;15700,869;46,72035
 965,69; 7435,740;  205,856;15567,177;47,06551
 966,24; 7347,125;  202,625;15422,100;46,94314
 966,79; 7353,356;  230,933;15378,869;47,01910
 967,34; 7283,433;  192,471;15215,331;47,20114
 967,89; 7313,971;  206,087;15166,023;47,51280
 968,44; 7353,971;  213,010;15120,638;47,90139
 968,99; 7325,279;  219,163;15072,177;47,84292
 969,55; 7246,663;  225,625;14979,023;47,58930
 970,10; 7208,817;  216,548;14840,485;47,81386
 970,65; 7183,587;  227,548;14746,177;47,91113
 971,20; 7138,356;  198,548;14626,715;48,09902
 971,75; 7078,817;  188,933;14519,485;48,07829
 972,30; 7122,125;  220,240;14463,408;48,45751
 972,85; 7050,663;  202,471;14373,792;48,32430
 973,40; 6996,048;  194,625;14285,254;48,26912
 973,95; 7001,433;  226,087;14183,254;48,54385
 974,50; 7001,202;  240,933;14163,254;48,55706
 975,05; 7007,663;  223,010;14003,715;49,23299
 975,60; 6944,587;  222,856;13962,254;48,92304
 976,15; 6901,894;  205,625;13834,485;49,13301
 976,70; 6868,740;  226,010;13747,946;49,12559
 977,25; 6851,894;  233,779;13691,638;49,17658
 977,80; 6804,663;  202,702;13509,023;49,61523
 978,35; 6751,433;  217,394;13366,638;49,69136
 978,89; 6694,817;  191,471;13324,946;49,51733
 979,44; 6745,894;  221,240;13314,792;49,83105
 979,99; 6662,279;  199,625;13033,485;50,35628
 980,54; 6641,587;  240,240;13037,485;50,02129
 981,09; 6602,971;  230,856;12928,254;50,18442
 981,64; 6555,356;  225,702;12795,177;50,35734
 982,19; 6595,356;  257,548;12768,792;50,65689
 982,74; 6512,510;  226,240;12684,946;50,45684
 983,29; 6442,356;  209,548;12498,177;50,72012
 983,84; 6478,971;  223,933;12372,100;51,48956
 984,39; 6518,740;  284,240;12408,792;51,42046
 984,94; 6408,048;  189,317;12135,254;52,05729
 985,49; 6427,587;  237,702;12149,792;51,96304
 986,03; 6382,894;  236,471;12058,946;51,98931
 986,58; 6318,433;  260,933;11876,100;52,15164
 987,13; 6301,356;  222,240;11805,408;52,48232
 987,68; 6224,740;  239,394;11672,562;52,35073
 988,23; 6184,740;  236,702;11640,023;52,16058
 988,78; 6096,356;  212,856;11427,023;52,46489
 989,33; 6118,433;  233,240;11375,562;52,81837
 989,88; 6098,202;  249,087;11319,638;52,83490
 990,42; 6011,356;  222,625;11187,331;52,79422
 990,97; 5941,125;  206,779;11049,331;52,88742
 991,52; 5936,817;  245,779;10962,254;53,10551
 992,07; 5893,202;  247,933;10895,792;53,01788
 992,62; 5828,971;  236,933;10746,100;53,21105
 993,17; 5777,125;  237,779;10666,408;53,11673
 993,71; 5753,587;  239,471;10564,638;53,40461
 994,26; 5671,817;  213,471;10373,792;53,72218
 994,81; 5682,663;  251,240;10370,100;53,67624
 995,36; 5568,279;  219,240;10219,331;53,48990
 995,91; 5575,817;  227,163;10148,562;53,91028
 996,45; 5497,971;  228,471;10034,946;53,73490
 997,00; 5417,433;  206,394; 9881,254;53,86164
 997,55; 5409,894;  239,625; 9831,562;53,90225
 998,10; 5397,894;  256,548; 9740,638;54,21022
 998,65; 5341,510;  232,394; 9689,331;54,02506
 999,19; 5282,740;  253,625; 9552,715;54,08180
 999,74; 5217,125;  264,625; 9371,792;54,38025
1000,29; 5217,587;  237,625; 9336,100;54,73402
1000,84; 5106,587;  231,087; 9207,946;54,31187
1001,38; 5093,433;  227,702; 9067,023;55,04643
1001,93; 5063,971;  245,010; 9071,177;54,59857
1002,48; 4969,356;  213,779; 8896,331;54,77165
1003,03; 4996,587;  232,933; 8861,792;55,20606
1003,57; 4889,587;  236,087; 8769,254;54,53426
1004,12; 4897,894;  260,702; 8650,946;55,26886
1004,67; 4794,048;  220,010; 8534,792;55,01092
1005,22; 4756,356;  215,702; 8437,100;55,22970
1005,76; 4673,510;  210,010; 8245,177;55,54956
1006,31; 4671,202;  234,702; 8237,254;55,43857
1006,86; 4586,356;  226,087; 8080,331;55,51482
1007,40; 4529,510;  207,779; 7979,023;55,61183
1007,95; 4539,433;  226,317; 7911,562;56,12203
1008,50; 4422,433;  236,163; 7762,869;55,61888
1009,04; 4426,433;  225,163; 7689,177;56,28700
1009,59; 4329,048;  237,702; 7508,100;56,27403
1010,14; 4266,894;  218,856; 7450,638;55,97567
1010,68; 4235,971;  226,163; 7322,715;56,50361
1011,23; 4180,740;  224,163; 7241,023;56,38672
1011,78; 4158,971;  239,625; 7121,331;56,95312
1012,32; 4120,433;  246,779; 6990,792;57,43841
1012,87; 4097,587;  254,394; 6989,408;57,06287
1013,42; 3996,356;  218,933; 6858,946;56,88879
1013,96; 4036,279;  256,317; 6901,562;56,88221
1014,51; 3961,433;  195,933; 6746,254;57,48573
1015,06; 3990,740;  208,010; 6779,254;57,56491
1015,60; 4074,740;  260,471; 6820,254;58,14627
1016,15; 4010,279;  219,856; 6777,408;57,80241
1016,69; 4038,740;  228,163; 6822,562;57,78506
1017,24; 4048,817;  212,394; 6819,715;58,06321
1017,79; 4095,048;  259,933; 6863,946;58,07249
1018,33; 4090,279;  216,394; 6880,638;58,12939
1018,88; 4149,740;  236,394; 6917,254;58,57549
1019,42; 4168,817;  217,010; 6946,946;58,71984
1019,97; 4153,817;  207,317; 6931,869;58,68793
1020,51; 4219,048;  254,087; 6983,792;58,91731
1021,06; 4192,510;  206,471; 6926,792;59,31321
1021,61; 4152,740;  188,933; 6906,715;59,00470
1022,15; 4128,817;  183,471; 6878,562;58,92895
1022,70; 4175,587;  227,010; 6876,638;59,38041
1023,24; 4129,894;  213,856; 6841,254;59,08863
1023,79; 4136,587;  228,317; 6780,869;59,64499
1024,33; 4104,663;  219,702; 6723,023;59,73812
1024,88; 4055,971;  231,471; 6608,562;59,97249
1025,42; 3997,894;  233,010; 6528,100;59,80668
1025,97; 3940,971;  220,471; 6481,100;59,42694
1026,51; 3883,740;  186,625; 6314,254;60,33517
1027,06; 3858,279;  209,548; 6251,100;60,39393
1027,60; 3822,971;  226,471; 6163,023;60,58231
1028,15; 3757,356;  240,087; 6059,946;60,43564
1028,69; 3647,740;  197,240; 5920,562;60,28842
1029,24; 3654,433;  221,317; 5901,177;60,44367
1029,78; 3605,740;  202,548; 5790,715;60,89997
1030,33; 3525,740;  193,625; 5668,254;60,86468
1030,87; 3502,971;  210,010; 5598,023;61,11643
1031,42; 3421,510;  195,087; 5524,254;60,54272
1031,96; 3387,740;  224,779; 5448,792;60,54658
1032,51; 3374,279;  207,087; 5353,023;61,54744
1033,05; 3350,202;  218,087; 5307,100;61,54661
1033,60; 3261,279;  184,548; 5169,792;61,71675
1034,14; 3230,740;  210,471; 5137,408;61,30116
1034,69; 3206,663;  212,702; 5090,023;61,38537
1035,23; 3160,125;  198,779; 5015,331;61,48270
1035,77; 3127,356;  198,548; 4943,562;61,72391
1036,32; 3065,433;  186,240; 4832,100;61,97330
1036,86; 3037,971;  218,702; 4793,638;61,62423
1037,41; 2989,510;  220,702; 4727,254;61,43960
1037,95; 2939,433;  190,163; 4612,408;62,16910
1038,50; 2936,587;  200,394; 4609,562;62,05689
1039,04; 2913,971;  224,240; 4565,638;61,95541
1039,58; 2848,356;  183,702; 4440,562;62,59670
1040,13; 2821,817;  204,702; 4391,562;62,50784
1040,67; 2831,663;  239,240; 4383,177;62,55943
1041,21; 2747,971;  227,471; 4300,177;61,88760
1041,76; 2690,279;  196,779; 4221,408;61,95602
1042,30; 2680,971;  211,163; 4185,100;62,15015
1042,85; 2632,279;  205,163; 4093,638;62,41818
1043,39; 2602,740;  211,317; 4014,485;62,87978
1043,93; 2585,433;  227,471; 3991,946;62,63719
1044,48; 2546,125;  213,856; 3927,485;62,80297
1045,02; 2518,433;  205,625; 3871,638;63,08781
1045,56; 2529,125;  234,240; 3864,408;63,21705
1046,11; 2460,971;  207,856; 3784,100;63,00228
1046,65; 2432,048;  221,702; 3705,254;63,45093
1047,19; 2408,894;  207,933; 3653,562;63,87692
1047,74; 2330,202;  192,856; 3590,638;62,90415
1048,28; 2326,202;  216,933; 3554,408;63,19955
1048,82; 2327,125;  240,087; 3521,408;63,60360
1049,37; 2282,663;  227,856; 3472,177;63,33552
1049,91; 2218,202;  225,317; 3429,100;62,20411
1050,45; 2222,356;  235,240; 3373,792;63,31313
1050,99; 2182,817;  222,317; 3323,638;63,21499
1051,54; 2122,048;  206,010; 3256,177;62,81749
1052,08; 2128,663;  243,240; 3236,023;62,99900
1052,62; 2120,202;  233,163; 3212,485;63,33787
1053,16; 2062,587;  213,010; 3153,485;62,90062
1053,71; 2036,817;  217,163; 3094,023;63,25140
1054,25; 2012,433;  228,856; 3051,638;63,18506
1054,79; 1999,894;  232,010; 3029,638;63,19225
1055,33; 1919,894;  182,548; 2962,177;62,50281
1055,88; 1940,048;  229,394; 2943,023;63,03934
1056,42; 1933,740;  233,163; 2932,331;63,00376
1056,96; 1908,817;  235,856; 2842,254;64,18672
1057,50; 1893,587;  222,933; 2837,254;63,90393
1058,05; 1834,433;  218,779; 2793,562;62,74913
1058,59; 1857,971;  250,394; 2746,254;64,40975
1059,13; 1797,202;  203,548; 2659,792;64,88173
1059,67; 1812,663;  229,779; 2629,946;65,94893
1060,21; 1760,356;  223,856; 2607,023;64,47302
1060,76; 1766,125;  230,779; 2567,408;65,70775
1061,30; 1750,971;  251,010; 2541,408;65,48912
1061,84; 1690,048;  221,779; 2478,254;65,06916
1062,38; 1670,048;  211,779; 2426,869;65,83340
1062,92; 1708,356;  252,471; 2455,638;66,08144
1063,46; 1663,433;  238,702; 2404,792;65,77430
1064,01; 1614,663;  225,702; 2381,023;64,44337
1064,55; 1612,510;  231,779; 2324,408;65,98068
1065,09; 1569,817;  203,933; 2303,177;65,06554
1065,63; 1612,817;  259,933; 2301,408;66,26996
1066,17; 1595,817;  257,856; 2265,485;66,64387
1066,71; 1572,279;  247,010; 2241,100;66,45984
1067,25; 1527,433;  217,087; 2177,408;66,84344
1067,80; 1530,740;  248,548; 2184,177;66,24164
1068,34; 1529,279;  252,856; 2149,792;67,28865
1068,88; 1460,971;  226,087; 2092,254;66,17223
1069,42; 1492,356;  253,548; 2100,408;67,07644
1069,96; 1445,510;  225,625; 2046,638;66,98932
1070,50; 1470,740;  257,779; 2045,254;67,85894
1071,04; 1422,740;  214,010; 1980,562;68,42317
1071,58; 1418,279;  221,163; 1952,408;69,14769
1072,12; 1393,048;  239,163; 1941,869;67,76770
1072,66; 1371,740;  226,933; 1951,177;66,39475
1073,21; 1374,817;  240,163; 1947,946;66,44018
1073,75; 1365,894;  227,317; 1904,946;67,86823
1074,29; 1347,663;  247,933; 1861,331;68,16239
1074,83; 1332,356;  248,856; 1857,331;67,36194
1075,37; 1317,125;  249,548; 1841,638;67,05504
1075,91; 1296,202;  251,010; 1813,715;66,88350
1076,45; 1300,510;  235,625; 1789,869;68,51463
1076,99; 1269,817;  244,625; 1763,946;67,47700
1077,53; 1253,279;  229,779; 1720,715;68,64813
1078,07; 1245,202;  234,087; 1738,638;67,20375
1078,61; 1239,125;  236,010; 1687,792;69,09542
1079,15; 1196,048;  230,702; 1680,946;66,56439
1079,69; 1195,125;  231,317; 1660,562;67,43478
1080,23; 1207,048;  250,779; 1638,562;68,90627
1080,77; 1238,202;  277,933; 1655,177;69,72396
1081,31; 1164,740;  223,317; 1575,177;69,63912
1081,85; 1180,894;  253,087; 1587,946;69,50601
1082,39; 1144,894;  228,010; 1561,638;68,75111
1082,93; 1147,202;  244,625; 1558,331;68,70465
1083,47; 1108,356;  218,933; 1495,485;69,67387
1084,01; 1119,894;  253,856; 1518,177;68,49830
1084,55; 1083,510;  235,087; 1476,792;68,32722
1085,09; 1096,433;  253,625; 1495,100;67,88761
1085,63; 1083,663;  237,087; 1444,792;70,09794
1086,17; 1068,279;  227,163; 1443,715;69,13929
1086,71; 1049,587;  230,240; 1414,331;69,19625
1087,24; 1077,894;  260,394; 1423,638;70,27759
1087,78; 1065,663;  248,163; 1414,408;70,09681
1088,32; 1023,125;  220,163; 1367,331;69,99516
1088,86; 1037,510;  253,394; 1386,946;69,17331
1089,40; 1023,587;  238,471; 1338,408;71,37824
1089,94;  973,202;  221,087; 1311,562;68,97136
1090,48;  999,510;  244,010; 1317,562;70,37387
1091,02; 1003,125;  247,240; 1305,792;71,40742
1091,56;  954,125;  239,087; 1292,869;67,85445
1092,10;  935,663;  218,471; 1240,792;70,15333
1092,63;  961,740;  258,471; 1270,100;69,51850
1093,17;  940,279;  247,856; 1250,946;69,02898
1093,71;  908,971;  229,240; 1210,792;69,25062
1094,25;  947,817;  253,010; 1244,177;70,09994
1094,79;  895,125;  237,471; 1191,331;68,94661
1095,33;  904,279;  250,779; 1192,946;69,36135
1095,87;  894,433;  231,394; 1167,638;70,81896
1096,40;  847,433;  220,163; 1142,485;68,00985
1096,94;  870,279;  242,394; 1159,792;68,44189
1097,48;  881,202;  243,856; 1143,254;70,86363
1098,02;  848,510;  233,779; 1105,562;70,51422
1098,56;  807,356;  216,779; 1073,562;68,92960
1099,10;  799,817;  214,087; 1059,485;69,28461
1099,63;  801,433;  221,625; 1069,331;68,39728
1100,17;  831,587;  247,779; 1086,408;69,61455
1100,71;  842,587;  265,010; 1090,100;70,00165

