
Integration time [ms]: 120,000
Averaging Nr. [scans]: 13
Smoothing Nr. [pixels]: 0
Data measured with spectrometer [name]: 2009305U1
Wave   ;Sample   ;Dark     ;Reference;Reflectance
[nm]   ;[counts] ;[counts] ;[counts] ;[%]

 175,72;  214,458;  188,592;  218,157;87,49095
 176,32;  227,277;  227,750;  225,747; 0,00000
 176,92;  259,893;  250,055;  253,068;326,46962
 177,52;  258,572;  255,362;  262,075;47,81072
 178,12;  242,365;  236,596;  227,589; 0,00000
 178,72;  264,796;  268,289;  253,678; 0,00000
 179,32;  260,262;  245,211;  241,699; 0,00000
 179,92;  259,850;  249,902;  255,316;183,74937
 180,52;  245,800;  239,283;  260,177;31,19363
 181,12;  259,920;  253,671;  251,518; 0,00000
 181,73;  278,833;  278,594;  281,269; 8,93119
 182,33;  355,047;  354,131;  367,102; 7,06737
 182,93;  266,127;  267,439;  276,188;-15,00100
 183,53;  247,074;  245,520;  231,361; 0,00000
 184,13;  242,674;  241,135;  238,225; 0,00000
 184,73;  279,687;  278,059;  281,998;41,33511
 185,33;  264,072;  245,542;  342,296;19,15204
 185,93;  263,905;  242,467;  360,299;18,19355
 186,53;  286,940;  252,389;  391,484;24,83976
 187,13;  315,501;  271,925;  427,719;27,97025
 187,73;  266,802;  244,159;  371,784;17,74147
 188,33;  265,476;  234,084;  382,174;21,19817
 188,93;  273,802;  253,011;  383,393;15,94620
 189,53;  272,741;  256,092;  375,910;13,89539
 190,13;  312,809;  282,328;  425,425;21,30074
 190,73;  274,551;  232,863;  357,671;33,40167
 191,34;  289,674;  261,243;  399,403;20,57792
 191,94;  271,554;  239,700;  377,052;23,19142
 192,54;  291,807;  254,384;  418,523;22,79934
 193,14;  295,955;  268,309;  400,776;20,86959
 193,74;  290,754;  265,695;  399,653;18,70715
 194,34;  282,705;  255,770;  395,741;19,24287
 194,94;  254,049;  221,540;  356,813;24,03169
 195,54;  233,914;  196,926;  344,551;25,05564
 196,14;  255,348;  221,539;  380,071;21,32626
 196,74;  251,549;  211,157;  358,586;27,39737
 197,34;  228,773;  207,537;  346,132;15,32181
 197,94;  258,052;  237,155;  375,317;15,12484
 198,54;  266,179;  232,693;  394,714;20,66772
 199,14;  255,436;  217,536;  386,849;22,38447
 199,74;  242,881;  208,998;  385,735;19,17128
 200,34;  243,839;  191,844;  389,094;26,36015
 200,94;  272,186;  226,538;  443,790;21,01148
 201,54;  258,573;  208,845;  434,438;22,04357
 202,14;  282,801;  238,074;  501,034;17,00917
 202,74;  256,331;  221,075;  479,663;13,63409
 203,34;  242,658;  191,996;  497,009;16,60978
 203,94;  223,870;  170,227;  492,928;16,62316
 204,54;  297,076;  246,770;  586,989;14,78636
 205,14;  245,190;  190,075;  595,954;13,57927
 205,74;  305,076;  244,227;  689,313;13,67142
 206,34;  270,034;  206,843;  693,407;12,98715
 206,94;  285,246;  213,920;  761,700;13,02088
 207,54;  257,253;  182,382;  785,796;12,40802
 208,14;  288,582;  207,612;  879,260;12,05533
 208,74;  297,641;  208,844;  941,420;12,12112
 209,34;  292,415;  199,075; 1043,682;11,05136
 209,94;  308,742;  205,075; 1148,630;10,98686
 210,54;  333,769;  205,304; 1228,092;12,56026
 211,14;  342,468;  228,460; 1323,857;10,40795
 211,73;  350,165;  206,845; 1431,074;11,70693
 212,33;  368,279;  223,461; 1545,211;10,95658
 212,93;  375,905;  215,767; 1629,340;11,32859
 213,53;  360,316;  177,844; 1704,076;11,95571
 214,13;  394,522;  210,764; 1802,628;11,54357
 214,73;  394,570;  187,151; 1825,188;12,66270
 215,33;  372,434;  172,767; 1829,860;12,04923
 215,93;  434,772;  197,996; 1956,751;13,46273
 216,53;  397,540;  176,152; 2004,518;12,10848
 217,13;  485,583;  217,919; 2233,084;13,28247
 217,73;  485,046;  197,919; 2402,062;13,02671
 218,33;  487,527;  155,533; 2578,044;13,70456
 218,93;  557,383;  190,069; 2880,141;13,65443
 219,53;  590,741;  180,148; 3160,161;13,77823
 220,13;  602,200;  164,994; 3471,316;13,22335
 220,73;  684,016;  187,921; 3826,403;13,63467
 221,32;  724,718;  183,152; 4189,805;13,51666
 221,92;  822,005;  196,071; 4628,224;14,12258
 222,52;  836,980;  174,150; 5070,980;13,53592
 223,12;  902,853;  177,842; 5497,716;13,62835
 223,72;  975,067;  197,919; 5953,372;13,50281
 224,32; 1019,353;  200,534; 6385,513;13,23884
 224,92; 1054,862;  173,380; 6738,954;13,42582
 225,52; 1121,537;  199,151; 7103,894;13,35873
 226,12; 1127,354;  194,766; 7540,534;12,69559
 226,72; 1174,898;  156,612; 7958,575;13,05167
 227,31; 1204,715;  160,304; 8388,093;12,69369
 227,91; 1265,991;  188,382; 8833,567;12,46485
 228,51; 1319,024;  173,922; 9307,068;12,53787
 229,11; 1375,810;  188,227; 9797,964;12,35812
 229,71; 1368,354;  176,152;10161,202;11,93987
 230,31; 1421,321;  163,841;10687,879;11,94865
 230,91; 1450,280;  168,769;11001,991;11,82945
 231,51; 1485,555;  168,073;11365,272;11,76617
 232,10; 1531,557;  166,841;11666,987;11,86695
 232,70; 1561,628;  204,617;12002,434;11,50222
 233,30; 1600,054;  202,304;12287,784;11,56553
 233,90; 1588,639;  168,535;12419,917;11,59138
 234,50; 1596,386;  177,380;12508,993;11,50705
 235,10; 1627,016;  169,303;12643,031;11,68626
 235,70; 1610,378;  200,151;12629,863;11,34561
 236,29; 1603,275;  188,614;12630,522;11,37013
 236,89; 1552,736;  157,923;12446,719;11,35028
 237,49; 1568,801;  186,150;12343,101;11,37333
 238,09; 1504,726;  181,458;12039,330;11,15940
 238,69; 1517,023;  219,770;11812,265;11,19046
 239,29; 1411,426;  178,613;11437,667;10,94953
 239,89; 1403,535;  181,307;11023,046;11,27335
 240,48; 1354,619;  179,228;10596,925;11,28264
 241,08; 1296,985;  183,843;10248,449;11,05996
 241,68; 1272,477;  198,151; 9892,305;11,08220
 242,28; 1216,273;  172,150; 9538,404;11,14772
 242,88; 1202,120;  224,302; 9222,668;10,86662
 243,48; 1187,125;  208,612; 8893,445;11,26692
 244,07; 1163,961;  189,998; 8635,701;11,53206
 244,67; 1148,932;  197,381; 8434,187;11,55243
 245,27; 1136,703;  206,614; 8205,151;11,62824
 245,87; 1157,590;  211,918; 8115,006;11,96585
 246,47; 1142,118;  185,229; 8094,941;12,09764
 247,06; 1133,719;  183,151; 8026,772;12,11899
 247,66; 1172,705;  187,766; 8148,471;12,37251
 248,26; 1255,864;  207,229; 8309,016;12,94326
 248,86; 1275,315;  212,922; 8476,175;12,85684
 249,46; 1303,648;  158,073; 8688,001;13,43007
 250,05; 1408,884;  198,536; 9081,768;13,62509
 250,65; 1478,711;  175,922; 9432,258;14,07456
 251,25; 1601,265;  180,920; 9930,648;14,56804
 251,85; 1702,413;  192,538;10500,747;14,64730
 252,44; 1800,303;  153,614;11116,092;15,02114
 253,04; 1995,554;  196,075;11870,633;15,41368
 253,64; 2120,396;  149,076;12598,315;15,83486
 254,24; 2350,824;  183,612;13569,189;16,19065
 254,84; 2526,418;  174,611;14503,001;16,41361
 255,43; 2718,823;  177,306;15485,837;16,60196
 256,03; 2941,345;  183,307;16477,205;16,92682
 256,63; 3201,706;  185,461;17615,391;17,30497
 257,23; 3387,764;  175,153;18499,289;17,53212
 257,82; 3615,309;  193,924;19478,736;17,74134
 258,42; 3795,621;  150,232;20378,722;18,02106
 259,02; 4061,864;  193,690;21260,391;18,36155
 259,62; 4251,555;  170,694;21977,189;18,71397
 260,21; 4405,164;  185,690;22616,064;18,81143
 260,81; 4560,003;  175,150;23166,145;19,07205
 261,41; 4666,500;  160,078;23571,862;19,24852
 262,01; 4854,094;  216,618;24073,277;19,43892
 262,60; 4892,841;  159,923;24359,751;19,55765
 263,20; 5029,859;  173,076;24712,216;19,79199
 263,80; 5151,096;  210,156;24967,265;19,95766
 264,40; 5121,394;  159,848;25105,863;19,88913
 264,99; 5219,839;  187,156;25228,298;20,09766
 265,59; 5261,077;  183,158;25370,909;20,16027
 266,19; 5284,387;  175,695;25609,151;20,08650
 266,78; 5418,078;  219,542;25696,799;20,40461
 267,38; 5394,065;  197,619;25681,749;20,39091
 267,98; 5375,736;  179,849;25723,880;20,34091
 268,58; 5394,343;  192,312;25733,729;20,36704
 269,17; 5399,276;  173,621;25809,536;20,38412
 269,77; 5378,349;  199,539;25592,510;20,39466
 270,37; 5282,610;  166,849;25416,671;20,26058
 270,96; 5362,986;  220,539;25276,764;20,52363
 271,56; 5206,445;  178,077;25025,678;20,23684
 272,16; 5196,104;  189,693;24919,251;20,24464
 272,75; 5162,778;  185,924;24745,919;20,26407
 273,35; 5148,566;  196,154;24716,703;20,19698
 273,95; 5107,453;  191,847;24690,113;20,06512
 274,54; 5095,501;  166,382;24654,525;20,12860
 275,14; 5183,901;  202,231;25074,735;20,02882
 275,74; 5164,226;  174,386;25025,166;20,07921
 276,33; 5249,843;  208,000;25550,364;19,89492
 276,93; 5268,413;  198,689;25869,212;19,74920
 277,53; 5424,950;  177,690;26372,562;20,03163
 278,12; 5487,942;  175,538;26890,037;19,88585
 278,72; 5633,755;  219,691;27454,777;19,87901
 279,32; 5730,483;  182,537;28019,685;19,93001
 279,91; 5881,879;  174,307;28894,306;19,87317
 280,51; 6026,517;  172,383;29394,209;20,03343
 281,11; 6167,696;  183,768;30030,978;20,04853
 281,70; 6271,763;  163,922;30593,894;20,07179
 282,30; 6429,291;  177,615;31196,371;20,15450
 282,90; 6569,169;  170,692;31709,225;20,28781
 283,49; 6730,703;  198,308;32166,974;20,43374
 284,09; 6842,844;  214,076;32661,024;20,42956
 284,69; 6985,455;  212,306;33082,345;20,60584
 285,28; 7138,938;  200,461;33413,676;20,89071
 285,88; 7316,752;  243,463;33641,644;21,17867
 286,47; 7339,571;  194,769;33846,800;21,23141
 287,07; 7542,731;  208,537;33752,645;21,86433
 287,67; 7612,741;  201,458;33912,599;21,98467
 288,26; 7697,641;  188,306;33838,430;22,31592
 288,86; 7832,504;  171,230;33935,016;22,69080
 289,46; 8036,615;  193,537;34035,002;23,17594
 290,05; 8206,436;  165,613;34176,223;23,64210
 290,65; 8390,331;  181,692;34263,716;24,08495
 291,24; 8602,480;  195,614;34488,632;24,51480
 291,84; 8867,936;  201,230;34520,545;25,25314
 292,44; 9033,596;  191,842;34812,683;25,53882
 293,03; 9314,003;  268,691;34872,814;26,13941
 293,63; 9432,524;  175,384;35013,205;26,57210
 294,22; 9624,095;  208,691;35156,411;26,94140
 294,82; 9693,884;  181,233;35230,048;27,14115
 295,41; 9732,609;  172,230;35020,740;27,43411
 296,01; 9851,589;  215,771;34851,714;27,82028
 296,61; 9808,481;  211,691;34644,620;27,87097
 297,20; 9751,861;  196,386;34194,191;28,10615
 297,80; 9764,640;  201,228;34061,784;28,24352
 298,39; 9686,490;  171,000;33672,439;28,40323
 298,99; 9630,093;  206,847;33398,938;28,39003
 299,58; 9564,257;  207,151;33269,916;28,30104
 300,18; 9533,955;  211,536;33125,583;28,32353
 300,78; 9393,622;  181,767;32747,549;28,28691
 301,37; 9305,032;  206,080;32666,643;28,03079
 301,97; 9321,970;  194,922;32663,059;28,11078
 302,56; 9257,252;  189,692;32606,959;27,97139
 303,16; 9150,018;  174,000;32460,454;27,80119
 303,75; 9139,398;  188,536;32562,953;27,64795
 304,35; 9137,932;  176,765;32753,781;27,50763
 304,94; 9072,228;  180,460;32747,860;27,30267
 305,54; 9062,564;  205,921;32713,112;27,24518
 306,13; 9012,836;  160,072;32644,680;27,25218
 306,73; 8825,090;  170,689;32349,614;26,89462
 307,33; 8857,206;  203,997;32275,037;26,98138
 307,92; 8739,879;  202,306;32339,834;26,56574
 308,52; 8772,190;  176,000;32818,017;26,33474
 309,11; 8865,994;  174,848;33297,265;26,23947
 309,71; 8871,494;  168,848;33647,171;25,99487
 310,30; 8882,590;  177,614;33772,244;25,91181
 310,90; 8929,513;  204,460;34163,320;25,69301
 311,49; 8855,502;  187,537;34238,171;25,45610
 312,09; 8835,985;  164,074;34536,680;25,22914
 312,68; 8929,239;  240,460;34839,307;25,11292
 313,28; 8843,495;  155,383;35060,450;24,89069
 313,87; 8794,009;  152,229;35146,163;24,69508
 314,47; 8753,183;  180,540;35476,316;24,28802
 315,06; 8723,031;  169,460;35539,923;24,18281
 315,66; 8675,831;  162,151;35742,295;23,92818
 316,25; 8527,875;  140,769;35774,373;23,53707
 316,85; 8487,137;  153,843;35797,999;23,37913
 317,44; 8438,682;  172,078;35959,366;23,09928
 318,04; 8348,507;  160,384;36025,937;22,83005
 318,63; 8255,566;  162,689;36119,201;22,50740
 319,22; 8190,794;  171,385;36402,396;22,13410
 319,82; 8134,002;  183,230;36309,770;22,00812
 320,41; 7986,544;  193,231;36238,756;21,62075
 321,01; 7917,222;  192,305;36331,106;21,37569
 321,60; 7874,030;  186,153;36366,340;21,24886
 322,20; 7735,446;  174,460;36318,943;20,91878
 322,79; 7702,585;  210,460;36338,971;20,73743
 323,39; 7615,845;  167,688;36323,390;20,60023
 323,98; 7494,487;  167,844;36263,882;20,29764
 324,58; 7398,667;  185,693;36145,220;20,05859
 325,17; 7304,303;  181,308;35881,607;19,95220
 325,76; 7221,150;  198,229;35771,487;19,74213
 326,36; 7074,638;  151,151;35305,037;19,69480
 326,95; 6959,780;  189,922;35019,238;19,43724
 327,55; 6834,758;  163,230;34558,863;19,39644
 328,14; 6655,758;  179,074;34166,261;19,05625
 328,74; 6560,576;  205,231;33771,918;18,93349
 329,33; 6382,471;  193,690;33379,361;18,64896
 329,92; 6247,484;  167,386;32813,528;18,62425
 330,52; 6093,677;  196,151;32153,977;18,45409
 331,11; 5940,353;  179,692;31699,773;18,27616
 331,71; 5742,803;  182,153;31115,460;17,97625
 332,30; 5668,613;  198,768;30717,937;17,92265
 332,89; 5566,153;  233,075;30098,212;17,85720
 333,49; 5414,718;  189,384;29578,441;17,77986
 334,08; 5253,051;  174,076;29044,815;17,59212
 334,68; 5159,557;  186,384;28611,345;17,49580
 335,27; 5081,345;  194,381;28350,526;17,35665
 335,86; 5027,814;  249,768;27955,389;17,24576
 336,46; 4950,835;  192,689;27648,943;17,32992
 337,05; 4870,015;  179,153;27484,830;17,17907
 337,65; 4790,957;  158,384;27252,778;17,09790
 338,24; 4812,673;  223,537;27227,582;16,99425
 338,83; 4799,147;  205,690;27125,335;17,06359
 339,43; 4751,211;  179,692;27056,559;17,00912
 340,02; 4719,740;  181,308;26895,321;16,98896
 340,61; 4739,324;  179,844;26917,874;17,05241
 341,21; 4742,346;  214,308;26952,457;16,93475
 341,80; 4729,559;  180,923;26907,410;17,01921
 342,40; 4738,998;  181,458;26929,268;17,03893
 342,99; 4744,230;  189,613;27021,058;16,97492
 343,58; 4752,395;  180,075;27137,592;16,96121
 344,18; 4784,436;  199,151;27269,761;16,93824
 344,77; 4876,003;  170,385;27492,713;17,22261
 345,36; 4904,088;  161,615;27846,392;17,13026
 345,96; 5018,271;  198,690;28131,843;17,25398
 346,55; 5050,335;  172,073;28456,960;17,24689
 347,14; 5126,812;  170,458;28769,491;17,33050
 347,74; 5195,424;  148,302;29160,759;17,39640
 348,33; 5335,494;  173,994;29804,201;17,41972
 348,92; 5501,335;  195,609;30423,435;17,55246
 349,52; 5584,320;  170,225;30931,705;17,60025
 350,11; 5672,577;  185,001;31215,313;17,68457
 350,70; 5673,894;  170,229;31228,960;17,72019
 351,29; 5678,971;  158,311;30962,241;17,92193
 351,89; 5702,671;  190,617;31001,140;17,89017
 352,48; 5752,618;  153,229;31009,737;18,14654
 353,07; 5781,358;  193,996;31000,125;18,13718
 353,67; 5790,084;  185,608;30951,114;18,21675
 354,26; 5789,289;  186,535;30730,078;18,34350
 354,85; 5816,259;  182,920;30545,530;18,55354
 355,45; 5804,488;  165,692;30258,297;18,73814
 356,04; 5813,322;  167,996;30188,602;18,80484
 356,63; 5825,731;  205,384;29986,963;18,87189
 357,22; 5847,104;  189,464;29844,833;19,07796
 357,82; 5844,101;  182,540;29676,680;19,19554
 358,41; 5907,645;  206,845;29549,484;19,42838
 359,00; 5847,072;  165,769;29312,145;19,49231
 359,60; 5918,119;  181,767;29292,534;19,70526
 360,19; 5913,577;  186,150;29105,350;19,80493
 360,78; 5970,234;  191,692;28895,527;20,13161
 361,37; 5924,756;  181,999;28727,721;20,11775
 361,97; 5987,003;  184,153;28571,517;20,44167
 362,56; 5926,502;  168,308;28367,532;20,41969
 363,15; 5980,946;  224,769;28102,321;20,64807
 363,74; 5951,181;  179,463;27700,405;20,97210
 364,34; 5892,612;  203,231;27330,364;20,97303
 364,93; 5845,815;  172,616;26921,727;21,20893
 365,52; 5806,122;  150,615;26533,081;21,43661
 366,11; 5787,010;  173,462;26246,117;21,53040
 366,71; 5738,486;  174,308;25909,858;21,62059
 367,30; 5741,596;  176,768;25576,757;21,90878
 367,89; 5753,569;  227,459;25283,825;22,05471
 368,48; 5680,455;  189,847;24970,178;22,15712
 369,07; 5639,356;  195,075;24595,960;22,31182
 369,67; 5636,648;  212,232;24276,975;22,54093
 370,26; 5547,706;  177,537;23979,656;22,56173
 370,85; 5530,799;  191,076;23787,571;22,62931
 371,44; 5533,067;  189,076;23459,918;22,96432
 372,03; 5511,627;  159,616;23196,490;23,23237
 372,63; 5480,548;  165,307;22969,866;23,30780
 373,22; 5472,806;  182,922;22643,118;23,55226
 373,81; 5448,399;  162,307;22354,830;23,81925
 374,40; 5416,388;  180,612;22094,310;23,89271
 374,99; 5403,178;  176,538;21767,155;24,20792
 375,59; 5364,732;  155,612;21554,756;24,34265
 376,18; 5405,159;  196,538;21433,592;24,52610
 376,77; 5389,093;  192,307;21193,577;24,74511
 377,36; 5400,293;  204,845;21128,733;24,83022
 377,95; 5378,529;  189,000;20917,246;25,03603
 378,55; 5337,299;  164,151;20631,029;25,27570
 379,14; 5392,354;  190,615;20586,608;25,50373
 379,73; 5381,803;  189,461;20544,173;25,50929
 380,32; 5445,788;  186,691;20583,411;25,78403
 380,91; 5435,082;  173,001;20447,481;25,95421
 381,50; 5447,254;  187,001;20344,342;26,09597
 382,10; 5433,326;  167,768;20258,642;26,20871
 382,69; 5486,309;  157,153;20295,462;26,46278
 383,28; 5538,524;  197,154;20138,138;26,78589
 383,87; 5512,263;  172,385;20029,349;26,89172
 384,46; 5540,236;  162,463;19994,271;27,11691
 385,05; 5617,547;  193,693;20015,832;27,36261
 385,64; 5590,010;  175,692;19961,040;27,36529
 386,24; 5608,655;  171,002;19941,114;27,50441
 386,83; 5663,831;  195,079;19974,191;27,64913
 387,42; 5782,284;  190,923;20046,428;28,16025
 388,01; 5867,967;  189,542;20198,736;28,37908
 388,60; 5967,444;  184,002;20496,808;28,47190
 389,19; 6069,395;  159,698;20683,408;28,79449
 389,78; 6180,165;  166,005;20945,694;28,94249
 390,37; 6379,094;  238,849;21365,979;29,06332
 390,96; 6418,319;  184,694;21537,774;29,19309
 391,56; 6505,553;  189,006;21694,318;29,37203
 392,15; 6611,047;  177,851;21971,053;29,51928
 392,74; 6660,599;  146,239;22156,746;29,59659
 393,33; 6869,699;  177,699;22453,222;30,04195
 393,92; 7031,054;  189,087;22847,363;30,19633
 394,51; 7086,133;  165,930;23058,113;30,22955
 395,10; 7284,676;  203,321;23286,796;30,67716
 395,69; 7338,366;  189,936;23387,567;30,81535
 396,28; 7397,073;  191,323;23507,053;30,90510
 396,87; 7515,469;  190,403;23608,287;31,27980
 397,46; 7577,631;  193,713;23723,600;31,38102
 398,06; 7672,179;  198,639;23957,835;31,45536
 398,65; 7722,502;  185,876;23959,272;31,70193
 399,24; 7854,402;  199,108;24203,545;31,89116
 399,83; 7843,782;  172,733;24107,438;32,04990
 400,42; 8004,867;  209,664;24252,140;32,42263
 401,01; 8075,856;  170,828;24475,553;32,52465
 401,60; 8134,584;  188,303;24448,876;32,75389
 402,19; 8130,134;  210,622;24381,761;32,76433
 402,78; 8205,588;  209,869;24396,616;33,05827
 403,37; 8150,617;  181,961;24260,819;33,09399
 403,96; 8247,712;  183,826;24039,693;33,80253
 404,55; 8219,260;  192,769;24046,306;33,64906
 405,14; 8244,255;  179,249;23930,202;33,95655
 405,73; 8168,257;  193,502;23791,740;33,79386
 406,32; 8266,746;  208,209;23724,307;34,26817
 406,91; 8214,091;  188,764;23443,637;34,51030
 407,50; 8193,530;  194,004;23323,703;34,58552
 408,09; 8109,276;  172,702;22973,257;34,80869
 408,68; 8111,196;  188,706;22829,001;34,99288
 409,27; 8054,975;  166,932;22604,255;35,15590
 409,86; 8141,395;  176,611;22514,286;35,65628
 410,45; 8132,325;  213,907;22455,723;35,60149
 411,04; 8125,200;  217,435;22340,150;35,74501
 411,63; 8078,814;  187,112;22127,319;35,96913
 412,22; 8014,657;  203,483;21937,697;35,93953
 412,81; 7991,218;  203,556;21728,187;36,18024
 413,40; 7925,013;  211,703;21343,698;36,50062
 413,99; 7829,886;  247,321;21016,168;36,50932
 414,58; 7640,987;  172,396;20604,434;36,55333
 415,17; 7633,124;  184,402;20360,535;36,91848
 415,76; 7565,518;  175,715;20190,141;36,92239
 416,35; 7540,835;  170,943;20047,469;37,07837
 416,94; 7606,159;  197,713;20033,318;37,34923
 417,53; 7692,850;  180,170;20318,059;37,30619
 418,12; 7789,027;  182,246;20415,709;37,59505
 418,71; 7908,607;  205,395;20766,531;37,46491
 419,30; 7965,304;  188,246;20759,218;37,80599
 419,89; 8052,379;  167,706;21004,516;37,84011
 420,48; 8206,375;  202,395;21228,928;38,06609
 421,07; 8266,635;  193,471;21376,466;38,11153
 421,66; 8317,608;  163,699;21392,810;38,40909
 422,25; 8313,398;  179,002;21367,301;38,39098
 422,84; 8345,594;  209,077;21350,053;38,48695
 423,43; 8224,943;  180,695;21079,670;38,49111
 424,02; 8129,665;  195,694;20932,824;38,25973
 424,60; 8002,435;  179,226;20440,807;38,61105
 425,19; 7938,968;  194,153;20143,773;38,82187
 425,78; 7896,619;  211,614;20072,978;38,69324
 426,37; 7876,886;  206,842;19852,130;39,04266
 426,96; 7848,176;  190,688;19822,632;39,00525
 427,55; 7775,018;  188,454;19616,879;39,04879
 428,14; 7745,569;  168,299;19439,832;39,31846
 428,73; 7699,231;  198,763;19279,193;39,30974
 429,32; 7717,451;  197,689;19223,107;39,52482
 429,91; 7707,133;  220,609;19211,257;39,42216
 430,50; 7602,629;  205,607;19050,508;39,25211
 431,08; 7575,480;  199,990;18813,123;39,62519
 431,67; 7585,349;  239,142;18781,071;39,61943
 432,26; 7532,853;  247,987;18596,275;39,70325
 432,85; 7414,530;  273,833;18352,621;39,49765
 433,44; 7290,977;  270,139;18002,355;39,59369
 434,03; 7139,243;  278,981;17613,102;39,57663
 434,62; 6962,279;  237,138;17158,468;39,74357
 435,21; 6908,121;  257,141;16913,401;39,93081
 435,79; 6834,512;  246,137;16779,480;39,84902
 436,38; 6786,442;  237,826;16683,348;39,82006
 436,97; 6753,843;  238,287;16601,528;39,81825
 437,56; 6666,830;  238,205;16389,725;39,80198
 438,15; 6655,839;  217,052;16215,391;40,24659
 438,74; 6628,054;  248,590;16349,640;39,62142
 439,33; 6623,259;  229,514;16357,221;39,64448
 439,91; 6646,453;  194,281;16369,426;39,88942
 440,50; 6680,569;  238,435;16450,684;39,73621
 441,09; 6728,591;  218,586;16542,689;39,87971
 441,68; 6687,672;  218,583;16520,899;39,68202
 442,27; 6671,601;  204,046;16485,653;39,72308
 442,86; 6699,473;  183,117;16515,549;39,89826
 443,44; 6726,050;  195,810;16582,850;39,85003
 444,03; 6734,162;  263,732;16664,957;39,45089
 444,62; 6709,300;  192,886;16502,217;39,95513
 445,21; 6578,708;  210,271;16323,459;39,52314
 445,80; 6598,466;  239,114;16203,456;39,83472
 446,39; 6493,914;  265,345;15965,791;39,67129
 446,97; 6340,428;  200,880;15789,948;39,38367
 447,56; 6296,848;  197,031;15634,320;39,51352
 448,15; 6235,045;  195,034;15436,013;39,63007
 448,74; 6118,634;  210,572;15133,574;39,59030
 449,33; 6044,218;  201,185;15013,821;39,44627
 449,91; 5955,454;  202,105;14746,547;39,55702
 450,50; 5870,797;  187,337;14553,772;39,56069
 451,09; 5845,354;  209,105;14442,018;39,60011
 451,68; 5743,297;  225,258;14373,230;39,00233
 452,26; 5720,898;  217,641;14251,524;39,21407
 452,85; 5711,679;  196,334;14177,386;39,44871
 453,44; 5669,374;  211,715;14144,950;39,17008
 454,03; 5616,654;  178,948;14121,827;38,99988
 454,61; 5611,519;  184,330;14107,394;38,97985
 455,20; 5716,842;  222,097;14295,322;39,04396
 455,79; 5703,123;  211,946;14258,957;39,09143
 456,38; 5733,660;  209,864;14354,534;39,05214
 456,97; 5749,544;  186,788;14452,517;38,99384
 457,55; 5713,579;  192,402;14416,307;38,81618
 458,14; 5769,609;  216,019;14424,390;39,08674
 458,73; 5695,261;  203,401;14383,751;38,72867
 459,31; 5743,809;  230,014;14392,002;38,93376
 459,90; 5733,501;  243,400;14434,660;38,68649
 460,49; 5796,111;  267,939;14582,178;38,62009
 461,08; 5731,568;  197,244;14616,272;38,38209
 461,66; 5789,659;  198,476;14700,825;38,55364
 462,25; 5807,639;  200,935;14813,825;38,36821
 462,84; 5848,712;  234,012;14852,023;38,40947
 463,43; 5767,608;  176,624;14775,423;38,29756
 464,01; 5809,322;  201,469;14800,932;38,41137
 464,60; 5775,147;  249,010;14786,521;38,01296
 465,19; 5649,344;  176,160;14493,528;38,22758
 465,77; 5670,407;  195,082;14526,436;38,20522
 466,36; 5608,239;  219,086;14400,241;38,00221
 466,95; 5472,736;  198,701;14026,677;38,14032
 467,53; 5364,079;  199,080;13759,380;38,08912
 468,12; 5281,882;  228,695;13544,136;37,94983
 468,71; 5154,672;  193,468;13299,069;37,85560
 469,29; 5052,332;  183,849;13007,745;37,96415
 469,88; 4951,772;  192,078;12764,020;37,85965
 470,47; 5039,834;  252,615;12833,138;38,05262
 471,06; 4946,691;  202,153;12805,134;37,64616
 471,64; 4979,514;  211,384;12907,858;37,55475
 472,23; 4948,760;  186,226;12930,164;37,37098
 472,81; 5008,063;  186,305;13043,328;37,50292
 473,40; 5043,264;  190,841;13149,629;37,44504
 473,99; 5141,217;  288,456;13380,034;37,06781
 474,57; 5141,407;  199,533;13477,864;37,21758
 475,16; 5177,924;  196,689;13600,674;37,16235
 475,75; 5275,441;  224,916;13779,423;37,26086
 476,33; 5286,687;  225,837;13897,880;37,01605
 476,92; 5299,035;  217,302;13869,530;37,22274
 477,51; 5267,915;  216,838;13962,847;36,74577
 478,09; 5298,514;  213,992;14007,964;36,86046
 478,68; 5287,382;  208,991;13962,252;36,92499
 479,27; 5301,899;  230,839;13985,062;36,86911
 479,85; 5236,770;  203,299;13961,613;36,58494
 480,44; 5260,479;  193,529;14058,552;36,54483
 481,02; 5688,856;  207,758;15305,018;36,30525
 481,61; 6427,557;  231,528;17413,058;36,06215
 482,20; 6843,624;  218,604;18571,338;36,09827
 482,78; 7143,106;  245,837;19481,096;35,85742
 483,37; 7347,357;  230,524;20061,982;35,88658
 483,95; 7438,372;  262,139;20301,097;35,81141
 484,54; 7510,874;  266,374;20550,691;35,71478
 485,13; 7435,781;  227,137;20451,869;35,64272
 485,71; 7368,144;  204,907;20240,812;35,75200
 486,30; 7287,973;  239,292;19893,698;35,86311
 486,88; 7150,601;  279,753;19639,133;35,49106
 487,47; 6923,229;  270,290;18925,645;35,66236
 488,05; 6552,414;  243,366;18025,248;35,48021
 488,64; 6141,075;  239,672;16788,725;35,66007
 489,23; 5522,829;  249,827;15007,334;35,73098
 489,81; 4663,333;  243,673;12751,097;35,33629
 490,40; 4386,151;  214,826;12109,901;35,06766
 490,98; 4297,047;  191,518;11797,836;35,37322
 491,57; 4260,082;  223,827;11708,556;35,14454
 492,15; 4209,159;  209,210;11599,349;35,11765
 492,74; 4168,178;  210,520;11461,668;35,17559
 493,32; 4107,914;  220,826;11430,926;34,67487
 493,91; 4083,528;  211,978;11329,895;34,82262
 494,50; 4028,741;  211,282;11331,390;34,32934
 495,08; 4011,685;  195,975;11214,787;34,62905
 495,67; 4007,615;  226,671;11240,913;34,32777
 496,25; 3963,983;  173,130;11087,669;34,73214
 496,84; 3928,650;  186,748;11106,512;34,26724
 497,42; 3915,299;  181,130;11060,973;34,32191
 498,01; 3900,205;  208,747;11033,770;34,10116
 498,59; 3811,828;  168,129;10928,494;33,86222
 499,18; 3836,106;  177,978;10881,153;34,17797
 499,76; 3801,288;  199,515;10790,219;34,00882
 500,35; 3725,452;  200,589;10642,317;33,75747
 500,93; 3682,288;  190,668;10574,132;33,62674
 501,52; 3653,215;  190,206;10551,175;33,42360
 502,10; 3649,346;  205,511;10526,869;33,36610
 502,69; 3597,692;  188,279;10359,953;33,51870
 503,27; 3517,599;  174,667;10156,000;33,49184
 503,86; 3475,893;  193,818;10068,943;33,23578
 504,44; 3428,410;  161,201; 9998,986;33,21082
 505,03; 3339,733;  156,509; 9755,112;33,16341
 505,61; 3310,194;  169,740; 9619,199;33,23422
 506,19; 3254,751;  192,355; 9470,367;33,00703
 506,78; 3147,808;  161,968; 9293,445;32,69832
 507,36; 3110,031;  168,740; 9133,105;32,81093
 507,95; 3034,679;  182,967; 8994,083;32,36494
 508,53; 3001,333;  179,429; 8821,077;32,65470
 509,12; 2959,953;  173,967; 8734,174;32,54578
 509,70; 2896,703;  200,274; 8573,447;32,20320
 510,29; 2848,725;  210,427; 8464,494;31,96362
 510,87; 2777,149;  171,429; 8210,672;32,41250
 511,46; 2702,978;  170,429; 8069,317;32,06210
 512,04; 2654,182;  175,274; 7955,089;31,86333
 512,62; 2613,884;  188,275; 7784,588;31,93140
 513,21; 2543,429;  168,119; 7629,643;31,83411
 513,79; 2490,150;  171,730; 7494,338;31,66112
 514,38; 2441,008;  157,886; 7341,287;31,78331
 514,96; 2416,631;  191,193; 7250,547;31,52467
 515,54; 2350,773;  163,577; 7133,301;31,38139
 516,13; 2332,887;  183,192; 7010,571;31,48639
 516,71; 2284,374;  180,729; 6917,737;31,22521
 517,30; 2222,836;  161,189; 6758,771;31,24853
 517,88; 2223,778;  193,805; 6690,104;31,24816
 518,46; 2159,294;  170,804; 6572,477;31,06203
 519,05; 2120,473;  174,187; 6545,270;30,54875
 519,63; 2099,815;  186,188; 6458,123;30,51095
 520,22; 2098,969;  179,724; 6457,674;30,57120
 520,80; 2052,946;  170,416; 6337,135;30,52726
 521,38; 2065,897;  213,879; 6353,682;30,16412
 521,97; 2010,126;  175,492; 6263,235;30,13652
 522,55; 2010,157;  184,338; 6244,551;30,12797
 523,13; 1986,652;  174,491; 6258,604;29,78513
 523,72; 1995,928;  169,727; 6219,425;30,18665
 524,30; 2052,496;  194,721; 6391,595;29,97923
 524,89; 2011,949;  173,107; 6334,772;29,84326
 525,47; 2037,880;  190,797; 6489,354;29,32549
 526,05; 2018,778;  152,874; 6532,442;29,24813
 526,64; 2071,033;  189,027; 6654,410;29,10896
 527,22; 2094,343;  184,951; 6785,573;28,92746
 527,80; 2147,699;  220,565; 6913,982;28,79148
 528,39; 2142,531;  173,180; 7036,977;28,69187
 528,97; 2184,070;  172,950; 7170,449;28,74056
 529,55; 2229,221;  193,337; 7329,470;28,52923
 530,14; 2264,942;  209,256; 7567,857;27,93582
 530,72; 2269,669;  169,027; 7659,566;28,04394
 531,30; 2282,765;  158,641; 7826,779;27,70066
 531,89; 2344,889;  183,871; 7956,836;27,80172
 532,47; 2377,870;  208,332; 8053,185;27,65556
 533,05; 2380,101;  208,104; 8041,403;27,72774
 533,63; 2398,813;  204,794; 8111,496;27,74886
 534,22; 2391,551;  169,178; 8174,641;27,76070
 534,80; 2408,343;  196,946; 8252,128;27,45310
 535,38; 2459,634;  282,333; 8309,693;27,12350
 535,97; 2357,960;  195,948; 8295,323;26,69357
 536,55; 2412,489;  232,484; 8338,252;26,89450
 537,13; 2378,431;  216,487; 8309,658;26,71319
 537,71; 2398,762;  249,026; 8369,429;26,47327
 538,30; 2399,931;  252,408; 8430,809;26,25847
 538,88; 2415,464;  292,559; 8447,704;26,03148
 539,46; 2500,606;  320,638; 8701,444;26,01144
 540,05; 2482,436;  339,945; 8767,990;25,42098
 540,63; 2559,311;  362,406; 8989,329;25,46568
 541,21; 2588,908;  385,790; 9113,811;25,24190
 541,79; 2629,955;  397,636; 9197,790;25,36682
 542,38; 2664,382;  425,329; 9321,452;25,16886
 542,96; 2702,911;  436,788; 9488,910;25,03416
 543,54; 2735,331;  449,251; 9680,245;24,76526
 544,12; 2752,807;  418,020; 9845,668;24,76531
 544,70; 2754,860;  404,404; 9954,723;24,61129
 545,29; 2804,919;  428,791;10128,695;24,49640
 545,87; 2815,032;  400,944;10162,098;24,73159
 546,45; 2768,401;  375,483;10173,708;24,42195
 547,03; 2752,727;  366,483;10291,558;24,04258
 547,62; 2787,580;  335,559;10428,105;24,29537
 548,20; 2820,795;  356,404;10668,344;23,89842
 548,78; 2824,993;  335,939;10747,867;23,90580
 549,36; 2847,650;  311,016;10948,123;23,84703
 549,94; 2826,304;  267,943;11115,873;23,58386
 550,53; 2916,099;  280,401;11286,919;23,94670
 551,11; 2915,357;  246,477;11561,767;23,58649
 551,69; 2962,915;  265,709;11830,735;23,32209
 552,27; 2983,692;  225,556;12098,478;23,23048
 552,85; 3067,450;  235,477;12501,419;23,08811
 553,44; 3138,993;  232,093;12889,185;22,96657
 554,02; 3237,391;  248,323;13173,620;23,12572
 554,60; 3234,088;  197,630;13517,717;22,79608
 555,18; 3358,312;  236,093;13900,411;22,84943
 555,76; 3368,483;  220,631;14274,591;22,39832
 556,34; 3467,155;  232,014;14686,910;22,38094
 556,93; 3544,308;  210,016;15035,742;22,48991
 557,51; 3585,399;  199,090;15421,509;22,24553
 558,09; 3687,879;  215,324;15774,905;22,31779
 558,67; 3722,026;  217,935;16174,394;21,96033
 559,25; 3796,631;  237,936;16536,179;21,83484
 559,83; 3845,861;  218,242;16829,225;21,83867
 560,41; 3876,538;  206,860;17187,932;21,61040
 561,00; 3941,210;  217,935;17474,645;21,57581
 561,58; 3978,388;  208,937;17768,524;21,46662
 562,16; 3974,248;  202,784;18029,066;21,15676
 562,74; 4053,590;  185,170;18404,996;21,23193
 563,32; 4095,877;  179,781;18761,107;21,07544
 563,90; 4198,503;  211,243;19167,289;21,03424
 564,48; 4243,305;  216,938;19686,569;20,68025
 565,06; 4352,925;  201,397;20282,954;20,67334
 565,65; 4428,963;  213,241;20943,007;20,33656
 566,23; 4646,563;  254,012;21641,637;20,53781
 566,81; 4691,955;  208,244;22412,754;20,19280
 567,39; 4890,509;  213,934;23309,134;20,24912
 567,97; 4954,869;  233,320;23913,736;19,93862
 568,55; 5137,527;  242,089;24749,411;19,97541
 569,13; 5260,268;  209,089;25440,005;20,01980
 569,71; 5378,572;  207,092;26423,334;19,72625
 570,29; 5654,387;  241,939;27389,500;19,93714
 570,87; 5717,937;  242,015;28115,946;19,64531
 571,45; 5834,291;  222,936;28794,391;19,63973
 572,03; 5833,498;  197,857;29236,897;19,40712
 572,61; 5933,759;  182,396;29951,169;19,32012
 573,20; 6092,519;  211,475;30576,666;19,36771
 573,78; 6162,662;  203,781;31279,233;19,17552
 574,36; 6202,953;  211,089;31864,976;18,92931
 574,94; 6294,102;  270,780;32166,276;18,88455
 575,52; 6282,201;  208,854;32470,291;18,82541
 576,10; 6392,968;  265,855;33010,950;18,71154
 576,68; 6396,222;  239,780;33550,136;18,48207
 577,26; 6535,341;  254,315;34250,825;18,47550
 577,84; 6624,071;  259,550;34737,068;18,45992
 578,42; 6653,683;  303,010;35117,731;18,24134
 579,00; 6535,754;  247,319;35252,051;17,96453
 579,58; 6633,869;  284,164;35377,519;18,09375
 580,16; 6535,319;  242,625;35402,503;17,89737
 580,74; 6563,606;  255,086;35646,567;17,82497
 581,32; 6496,276;  255,318;35818,894;17,54874
 581,90; 6507,474;  272,471;35668,722;17,61487
 582,48; 6516,949;  264,625;35804,705;17,59232
 583,06; 6462,282;  265,318;35927,628;17,37679
 583,64; 6455,995;  251,933;36083,795;17,31437
 584,22; 6366,726;  261,469;35959,758;17,10238
 584,80; 6339,927;  268,779;35729,253;17,12089
 585,38; 6201,943;  280,783;35256,165;16,92951
 585,96; 6183,543;  250,011;35369,899;16,89508
 586,54; 6163,400;  256,777;35416,975;16,79917
 587,12; 6123,502;  244,470;35611,205;16,62305
 587,70; 6189,599;  276,934;35710,117;16,68680
 588,28; 6103,134;  255,778;35840,626;16,43215
 588,86; 6112,997;  260,547;36039,037;16,35745
 589,44; 6048,063;  240,468;36095,132;16,19760
 590,02; 6108,713;  251,853;36239,216;16,27477
 590,59; 6041,864;  241,470;36428,578;16,02890
 591,17; 6058,052;  236,235;36709,689;15,96179
 591,75; 6067,004;  233,851;36771,213;15,96490
 592,33; 6067,363;  249,468;36999,026;15,83120
 592,91; 6058,809;  206,620;37203,254;15,81817
 593,49; 6071,851;  218,926;37628,314;15,64560
 594,07; 6106,007;  230,003;37827,456;15,62873
 594,65; 6046,040;  248,546;37769,030;15,45154
 595,23; 6058,146;  234,699;38218,953;15,33121
 595,81; 6031,682;  231,929;38359,878;15,21129
 596,39; 6086,170;  213,083;38571,768;15,31097
 596,97; 6062,317;  220,158;38770,618;15,15458
 597,55; 6021,499;  224,930;38674,340;15,07583
 598,12; 5971,387;  201,695;38540,085;15,04939
 598,70; 5940,227;  206,466;38749,009;14,87645
 599,28; 5943,349;  232,542;38871,309;14,77999
 599,86; 5928,000;  217,466;38951,524;14,74293
 600,44; 5857,134;  185,465;39035,797;14,59877
 601,02; 5903,988;  241,232;39123,060;14,56402
 601,60; 5852,079;  215,698;39094,148;14,49744
 602,18; 5759,515;  195,926;39076,425;14,30946
 602,75; 5721,395;  195,237;39177,121;14,17622
 603,33; 5728,455;  214,850;39245,406;14,12638
 603,91; 5690,681;  194,002;39261,927;14,06954
 604,49; 5682,590;  223,927;39273,073;13,97896
 605,07; 5635,406;  224,390;39297,558;13,84842
 605,65; 5637,680;  227,542;39418,200;13,80466
 606,23; 5637,149;  274,855;39461,818;13,68387
 606,80; 5623,519;  307,699;39502,947;13,56241
 607,38; 5607,323;  318,771;39556,904;13,47809
 607,96; 5593,906;  360,776;39621,551;13,32916
 608,54; 5569,573;  410,157;39599,257;13,16544
 609,12; 5578,180;  404,930;39720,093;13,15841
 609,70; 5545,187;  434,927;39697,751;13,01552
 610,27; 5541,790;  426,315;39786,447;12,99659
 610,85; 5516,114;  457,312;39788,650;12,86201
 611,43; 5517,442;  444,850;39796,653;12,89037
 612,01; 5408,721;  416,467;39598,895;12,74105
 612,59; 5358,711;  412,466;39560,472;12,63473
 613,16; 5326,987;  397,546;39632,394;12,56394
 613,74; 5298,347;  378,773;39432,244;12,59702
 614,32; 5311,539;  357,849;39434,414;12,67688
 614,90; 5219,208;  330,236;39342,313;12,53195
 615,48; 5113,745;  299,623;38964,465;12,45090
 616,05; 5105,657;  272,931;39056,942;12,46061
 616,63; 5094,185;  278,932;38791,187;12,50317
 617,21; 5078,082;  278,007;38676,398;12,50072
 617,79; 4986,768;  273,622;38622,577;12,29016
 618,36; 4945,376;  286,236;38544,922;12,17799
 618,94; 4861,385;  231,161;38294,367;12,16457
 619,52; 4857,884;  256,470;37952,822;12,20652
 620,10; 4803,024;  244,237;37875,951;12,11421
 620,67; 4759,461;  249,547;37827,948;12,00135
 621,25; 4755,218;  257,313;37741,407;11,99950
 621,83; 4690,246;  245,776;37713,339;11,86218
 622,41; 4727,711;  285,315;37642,930;11,89154
 622,98; 4645,341;  247,778;37429,406;11,82725
 623,56; 4631,303;  252,317;37384,598;11,79294
 624,14; 4564,445;  253,389;37297,498;11,63763
 624,72; 4553,724;  246,238;37101,529;11,68757
 625,29; 4529,502;  228,778;37234,743;11,62170
 625,87; 4578,029;  271,391;37126,674;11,68527
 626,45; 4488,007;  231,009;36992,603;11,58001
 627,02; 4467,455;  240,237;37019,844;11,49338
 627,60; 4421,905;  230,773;36896,554;11,43064
 628,18; 4408,180;  217,237;36903,554;11,42372
 628,76; 4410,858;  209,932;36920,316;11,44343
 629,33; 4409,263;  250,623;36931,232;11,33743
 629,91; 4397,947;  236,622;36948,028;11,33524
 630,49; 4417,582;  254,316;37162,699;11,28000
 631,06; 4393,468;  243,854;37226,044;11,22057
 631,64; 4356,756;  240,471;37165,821;11,14759
 632,22; 4331,676;  201,856;37070,327;11,20149
 632,79; 4382,182;  237,779;37406,242;11,15032
 633,37; 4386,734;  209,544;37473,955;11,20960
 633,95; 4350,748;  234,933;37398,033;11,07501
 634,52; 4340,111;  212,238;37577,440;11,04737
 635,10; 4343,215;  221,545;37629,770;11,01809
 635,68; 4355,691;  208,395;37925,299;10,99585
 636,25; 4359,855;  204,781;37798,645;11,05253
 636,83; 4353,704;  198,009;37987,855;10,99686
 637,41; 4363,010;  218,703;38097,535;10,94096
 637,98; 4389,061;  236,241;38204,184;10,93770
 638,56; 4401,084;  228,858;38341,821;10,94700
 639,13; 4356,283;  208,855;38451,354;10,84507
 639,71; 4419,543;  264,778;38621,441;10,83193
 640,29; 4307,784;  182,547;38366,398;10,80362
 640,86; 4338,487;  199,547;38491,526;10,80890
 641,44; 4344,574;  205,316;38561,347;10,79168
 642,02; 4337,661;  226,085;38575,553;10,72134
 642,59; 4347,441;  207,470;38675,527;10,76210
 643,17; 4321,067;  196,623;38595,502;10,74105
 643,74; 4343,077;  206,085;38715,400;10,74284
 644,32; 4336,472;  226,085;38576,451;10,71799
 644,89; 4332,790;  216,546;38611,964;10,72066
 645,47; 4312,185;  246,008;38755,093;10,55901
 646,05; 4312,119;  222,700;38647,221;10,64273
 646,62; 4302,513;  214,546;38622,965;10,64342
 647,20; 4338,524;  222,700;38717,478;10,69190
 647,77; 4248,996;  195,161;38595,607;10,55674
 648,35; 4251,083;  189,392;38590,889;10,57691
 648,92; 4274,555;  220,161;38523,402;10,58499
 649,50; 4257,719;  180,546;38501,531;10,63953
 650,08; 4232,191;  194,546;38399,890;10,56827
 650,65; 4281,047;  200,622;38652,096;10,61188
 651,23; 4333,212;  182,161;39302,916;10,61087
 651,80; 4428,299;  178,545;40265,122;10,60144
 652,38; 4471,232;  204,930;40710,020;10,53276
 652,95; 4532,474;  178,084;41102,225;10,64015
 653,53; 4556,561;  208,468;41348,123;10,56910
 654,10; 4629,263;  243,853;41449,636;10,64271
 654,68; 4586,735;  194,237;41334,303;10,67694
 655,25; 4582,515;  187,237;41435,277;10,65573
 655,83; 4563,987;  184,314;41562,329;10,58454
 656,40; 4602,228;  221,929;41446,611;10,62543
 656,98; 4606,084;  190,237;41432,586;10,70707
 657,55; 4610,249;  203,237;41315,791;10,71938
 658,13; 4555,874;  199,237;40992,843;10,67971
 658,70; 4514,962;  209,775;40791,587;10,60866
 659,28; 4467,126;  192,698;39840,869;10,78089
 659,85; 4351,059;  209,237;39000,844;10,67711
 660,43; 4384,608;  219,775;39124,203;10,70529
 661,00; 4341,772;  198,006;39221,101;10,61875
 661,58; 4413,937;  194,621;39508,922;10,73227
 662,15; 4447,947;  180,390;39768,435;10,77991
 662,73; 4502,111;  248,467;39980,102;10,70594
 663,30; 4494,198;  200,082;40219,461;10,73009
 663,88; 4529,747;  197,390;40358,590;10,78742
 664,45; 4534,911;  190,698;40653,026;10,73644
 665,03; 4606,306;  192,390;41064,001;10,79947
 665,60; 4741,624;  273,851;41464,591;10,84655
 666,17; 4702,558;  190,159;41678,258;10,87637
 666,75; 4707,184;  194,082;41881,309;10,82610
 667,32; 4780,271;  213,620;42262,361;10,86037
 667,90; 4824,820;  194,236;42503,258;10,94467
 668,47; 4897,676;  221,774;42809,541;10,97945
 669,05; 4894,071;  194,082;43048,669;10,96730
 669,62; 4886,389;  163,851;43173,336;10,98023
 670,19; 4913,323;  170,389;43296,388;10,99785
 670,77; 4968,641;  188,004;43513,132;11,03433
 671,34; 4954,266;  174,543;43338,953;11,07330
 671,92; 4995,277;  183,697;43911,619;11,00345
 672,49; 5050,441;  211,158;43706,825;11,12590
 673,06; 5006,682;  150,389;43916,184;11,09609
 673,64; 5038,846;  176,620;43822,236;11,14024
 674,21; 5021,626;  171,004;43760,980;11,12784
 674,79; 5122,944;  207,773;43964,493;11,23295
 675,36; 5124,493;  198,081;44106,314;11,21979
 675,93; 5117,118;  170,619;43908,904;11,30931
 676,51; 5166,590;  200,619;44220,955;11,28108
 677,08; 5174,908;  191,234;44277,084;11,30448
 677,65; 5194,457;  196,234;44315,135;11,32898
 678,23; 5264,929;  198,696;44683,802;11,38861
 678,80; 5284,170;  180,773;44676,392;11,46944
 679,38; 5290,257;  189,311;44864,598;11,41783
 679,95; 5399,652;  197,234;45102,572;11,58530
 680,52; 5390,586;  183,696;45448,547;11,50316
 681,10; 5467,058;  203,926;45727,599;11,56131
 681,67; 5513,991;  186,234;46008,419;11,62703
 682,24; 5532,771;  173,080;46130,625;11,66227
 682,82; 5640,320;  181,465;46771,369;11,71682
 683,39; 5766,868;  233,234;47027,420;11,82547
 683,96; 5753,956;  192,311;47280,549;11,81111
 684,54; 5807,966;  180,618;47623,831;11,86123
 685,11; 5883,438;  226,310;48023,652;11,83565
 685,68; 5929,987;  193,618;48420,704;11,89450
 686,25; 5919,997;  178,079;48516,986;11,87846
 686,83; 5996,007;  180,387;48818,961;11,95681
 687,40; 6047,172;  176,079;49034,320;12,01659
 687,97; 6124,951;  225,233;49489,602;11,97563
 688,55; 6147,962;  173,848;49522,962;12,10582
 689,12; 6170,510;  162,771;49761,782;12,11262
 689,69; 6229,521;  179,387;49803,911;12,19182
 690,26; 6254,223;  191,079;49945,809;12,18607
 690,84; 6284,080;  184,771;50148,706;12,20742
 691,41; 6364,013;  192,694;50198,219;12,34127
 691,98; 6384,178;  193,002;50512,810;12,30366
 692,56; 6405,803;  183,694;50592,707;12,34325
 693,13; 6478,660;  223,002;50538,836;12,43278
 693,70; 6524,209;  205,617;50834,118;12,48031
 694,27; 6531,219;  177,386;50995,093;12,50319
 694,84; 6525,152;  179,617;51017,298;12,48195
 695,42; 6645,086;  220,386;51176,965;12,60819
 695,99; 6644,789;  190,001;51417,248;12,60030
 696,56; 6684,260;  182,694;51156,299;12,75477
 697,13; 6787,578;  207,694;51581,428;12,80788
 697,71; 6769,358;  177,770;51594,248;12,81999
 698,28; 6833,984;  178,924;52017,069;12,83815
 698,85; 6834,379;  157,386;52084,044;12,85851
 699,42; 6903,774;  156,924;52295,249;12,94029
 699,99; 6952,476;  195,770;52357,532;12,95337
 700,57; 7021,102;  190,616;52287,429;13,11114
 701,14; 7027,266;  172,001;52534,481;13,09194
 701,71; 7157,661;  193,847;52707,456;13,26097
 702,28; 7160,210;  180,385;52761,507;13,27439
 702,85; 7156,297;  183,770;52757,867;13,26229
 703,43; 7246,308;  195,000;53109,303;13,32590
 704,00; 7299,318;  225,846;53298,200;13,32798
 704,57; 7287,944;  188,308;53241,483;13,38211
 705,14; 7441,646;  204,693;53547,842;13,56679
 705,71; 7422,195;  211,923;53606,432;13,50377
 706,28; 7421,821;  187,923;53464,945;13,57789
 706,86; 7507,293;  214,231;53782,151;13,61461
 707,43; 7575,996;  230,077;53584,202;13,76823
 708,00; 7565,083;  214,384;53657,485;13,75425
 708,57; 7538,786;  189,307;53490,767;13,78851
 709,14; 7635,181;  208,384;53757,280;13,86919
 709,71; 7667,114;  190,307;53798,101;13,94724
 710,28; 7704,355;  197,384;54061,229;13,93694
 710,86; 7731,750;  200,923;54161,589;13,95614
 711,43; 7849,683;  222,384;54122,025;14,15093
 712,00; 7840,309;  193,076;54291,461;14,13579
 712,57; 7956,166;  209,692;54422,436;14,28903
 713,14; 7913,099;  186,692;54615,180;14,19552
 713,71; 7997,186;  209,615;54441,616;14,35974
 714,28; 8015,735;  189,999;54444,898;14,42402
 714,85; 8030,361;  180,922;54281,950;14,50885
 715,42; 8117,756;  194,614;54422,463;14,61084
 716,00; 8224,228;  259,999;54624,284;14,64974
 716,57; 8236,007;  188,922;54722,797;14,75612
 717,14; 8242,479;  175,691;54671,848;14,80249
 717,71; 8272,413;  182,383;54716,285;14,83486
 718,28; 8393,731;  226,460;54748,413;14,97978
 718,85; 8358,049;  178,152;54758,080;14,98701
 719,42; 8450,675;  199,614;54955,362;15,06885
 719,99; 8438,300;  181,460;54696,799;15,14590
 720,56; 8525,849;  201,460;54985,543;15,19491
 721,13; 8613,859;  182,075;55051,594;15,36697
 721,70; 8576,716;  176,690;55040,492;15,31069
 722,27; 8600,419;  197,537;55019,082;15,32770
 722,84; 8784,044;  251,998;55151,518;15,54120
 723,41; 8762,824;  175,844;55253,339;15,59072
 723,98; 8797,988;  196,921;55421,852;15,57461
 724,55; 8848,691;  221,613;55549,827;15,59255
 725,12; 8843,547;  154,998;55408,878;15,72478
 725,69; 8960,942;  185,767;55554,545;15,84860
 726,27; 8929,414;  188,459;55666,443;15,75572
 726,84; 9067,578;  188,997;56010,418;15,90533
 727,41; 9099,050;  204,613;55920,238;15,96399
 727,98; 9178,445;  200,613;56292,752;16,00551
 728,55; 9202,763;  235,920;56085,880;16,05524
 729,12; 9238,312;  179,613;56366,701;16,12239
 729,69; 9323,476;  218,536;56498,137;16,17805
 730,26; 9395,333;  198,612;56717,035;16,27208
 730,82; 9374,959;  190,689;56459,548;16,32212
 731,39; 9434,430;  198,843;56629,061;16,36639
 731,96; 9527,056;  173,151;56794,343;16,52015
 732,53; 9601,143;  206,458;57074,549;16,52013
 733,10; 9742,154;  202,766;57112,370;16,76235
 733,67; 9796,395;  206,381;57475,421;16,74555
 734,24; 9723,713;  185,458;57110,242;16,75589
 734,81; 9861,493;  215,073;57262,986;16,90933
 735,38; 9831,964;  201,535;56971,961;16,96381
 735,95; 9857,206;  197,535;56860,858;17,04748
 736,52; 9901,524;  201,765;57094,756;17,04913
 737,09; 9913,303;  210,304;56723,961;17,16930
 737,66;10043,621;  259,996;56829,936;17,29474
 738,23;10054,555;  192,765;56942,295;17,37775
 738,80;10214,719;  254,919;57196,193;17,49135
 739,37;10268,883;  224,534;57498,014;17,53752
 739,94;10268,740;  194,457;57500,758;17,57971
 740,51;10409,135;  310,227;57614,733;17,62324
 741,07;10399,068;  195,919;57406,784;17,83429
 741,64;10475,232;  234,457;57608,220;17,84923
 742,21;10500,320;  187,688;57795,733;17,90137
 742,78;10458,714;  172,457;57523,477;17,93561
 743,35;10591,186;  204,995;57812,837;18,02913
 743,92;10710,043;  232,226;58029,042;18,12871
 744,49;10744,438;  231,841;57823,094;18,25381
 745,06;10778,064;  191,534;57820,761;18,37007
 745,63;10820,459;  178,303;57812,889;18,46488
 746,19;10817,392;  190,534;57810,941;18,44287
 746,76;10886,402;  197,226;57828,300;18,54759
 747,33;10919,567;  200,533;57869,813;18,58708
 747,90;11001,577;  222,456;58044,788;18,64180
 748,47;11070,972;  204,149;57973,147;18,81082
 749,04;11139,905;  215,225;57887,660;18,94264
 749,61;11138,685;  232,995;57852,173;18,92719
 750,17;11220,157;  222,225;57941,840;19,05406
 750,74;11222,859;  211,379;57862,738;19,10012
 751,31;11266,408;  187,456;57865,097;19,20840
 751,88;11230,803;  178,917;57652,303;19,22957
 752,45;11339,198;  203,456;57840,816;19,32035
 753,02;11348,747;  216,917;57704,867;19,36376
 753,58;11383,680;  192,686;57476,457;19,53606
 754,15;11469,768;  199,456;57633,124;19,62318
 754,72;11430,393;  194,763;57506,484;19,60442
 755,29;11427,558;  183,840;57409,843;19,64792
 755,86;11449,799;  206,148;57447,894;19,64240
 756,42;11537,348;  226,455;57413,946;19,77861
 756,99;11494,358;  178,071;57400,075;19,77611
 757,56;11587,291;  203,224;57351,434;19,92025
 758,13;11579,071;  155,378;57144,409;20,04542
 758,70;11711,389;  187,993;57317,614;20,17061
 759,26;11709,015;  192,224;57441,435;20,11694
 759,83;11824,333;  205,070;57455,256;20,29559
 760,40;11835,805;  187,070;57282,923;20,40207
 760,97;11874,123;  186,839;57433,897;20,41552
 761,53;11865,979;  171,070;57008,410;20,57610
 762,10;11936,990;  175,224;56977,000;20,70669
 762,67;11965,615;  207,531;57003,360;20,70237
 763,24;11981,780;  163,916;56540,180;20,96248
 763,80;12029,405;  194,993;56688,771;20,94817
 764,37;12073,339;  194,916;56606,437;21,05673
 764,94;12053,426;  166,762;56135,566;21,23802
 765,50;12043,667;  170,608;56097,848;21,22947
 766,07;12138,601;  206,916;56265,900;21,28416
 766,64;12110,380;  184,531;55785,875;21,44885
 767,21;12200,314;  186,223;55827,618;21,59200
 767,77;12237,401;  209,377;55700,439;21,67561
 768,34;12277,950;  192,761;55685,952;21,77779
 768,91;12272,960;  198,531;55527,081;21,82314
 769,47;12323,355;  197,223;55496,286;21,92828
 770,04;12336,596;  194,069;55355,569;22,01268
 770,61;12331,222;  177,607;55091,851;22,13199
 771,18;12358,309;  182,915;54981,672;22,21838
 771,74;12471,089;  192,607;55145,954;22,34346
 772,31;12466,561;  187,607;55001,390;22,40121
 772,88;12352,109;  168,376;54689,673;22,34674
 773,44;12399,043;  169,145;54458,186;22,52738
 774,01;12522,284;  204,376;54533,930;22,67257
 774,58;12499,294;  174,530;54241,904;22,79520
 775,14;12554,305;  174,607;54386,802;22,83563
 775,71;12596,700;  175,068;54334,623;22,93525
 776,27;12677,095;  238,299;54119,367;23,08565
 776,84;12750,182;  260,376;54216,188;23,14821
 777,41;12699,115;  196,299;53969,085;23,25120
 777,97;12671,664;  184,606;53678,599;23,34292
 778,54;12686,136;  199,453;53789,419;23,30041
 779,11;12724,377;  219,222;53787,625;23,34428
 779,67;12780,464;  169,683;53726,446;23,54657
 780,24;12730,706;  201,606;53570,113;23,47658
 780,80;12796,793;  197,683;53525,472;23,62579
 781,37;12786,111;  201,144;53451,600;23,63354
 781,94;12763,967;  190,683;53267,037;23,68905
 782,50;12827,978;  192,298;53131,550;23,86826
 783,07;12839,680;  215,606;53286,678;23,78711
 783,63;12865,998;  191,298;52880,191;24,05573
 784,20;12876,393;  223,529;53018,397;23,96609
 784,77;12890,250;  200,529;52755,525;24,14560
 785,33;12824,953;  165,221;52641,346;24,12475
 785,90;12910,271;  194,144;52476,782;24,32189
 786,46;12930,896;  219,144;52462,295;24,33190
 787,03;12967,830;  182,375;52265,655;24,54810
 787,59;12965,225;  209,374;52217,399;24,52670
 788,16;12984,004;  208,759;52147,604;24,59671
 788,73;12996,861;  213,528;51974,040;24,69708
 789,29;12961,487;  192,759;51565,015;24,85530
 789,86;13043,035;  220,528;51527,297;24,99184
 790,42;13008,200;  204,682;51360,349;25,02854
 790,99;12991,518;  216,682;50978,785;25,16609
 791,55;13026,913;  206,682;51034,990;25,22262
 792,12;13066,231;  221,605;51082,273;25,25454
 792,68;13022,395;  214,989;50740,632;25,34833
 793,25;13034,482;  219,451;50490,222;25,49201
 793,81;13085,800;  277,989;50119,504;25,69707
 794,38;13012,426;  181,297;49959,864;25,77641
 794,94;13009,975;  191,450;49760,992;25,85968
 795,51;13027,831;  223,758;49507,813;25,98015
 796,07;13029,611;  204,989;49311,557;26,11590
 796,64;13103,313;  227,758;49453,070;26,15637
 797,20;12941,555;  216,527;48807,352;26,18813
 797,77;12900,642;  187,065;48474,865;26,32875
 798,33;12959,960;  203,912;48336,071;26,50213
 798,90;13031,893;  227,758;48224,276;26,67722
 799,46;12918,519;  201,527;47799,789;26,71735
 800,03;12976,683;  229,450;47675,610;26,86673
 800,59;12951,694;  231,373;47460,585;26,93316
 801,15;12913,396;  227,527;47221,944;26,99442
 801,72;12821,791;  222,065;47018,073;26,92479
 802,28;12830,648;  250,757;46642,432;27,11670
 802,85;12837,504;  209,988;46560,253;27,24368
 803,41;12764,284;  217,680;46214,458;27,27714
 803,98;12702,371;  202,065;45902,664;27,35261
 804,54;12683,382;  217,142;45618,254;27,45801
 805,11;12698,930;  223,141;45449,382;27,58529
 805,67;12678,018;  235,449;45384,895;27,55863
 806,23;12603,182;  220,603;44925,485;27,69849
 806,80;12656,500;  235,603;44795,152;27,87483
 807,36;12598,203;  243,910;44749,127;27,75920
 807,93;12662,059;  253,833;44479,409;28,05667
 808,49;12543,300;  218,064;43975,538;28,16716
 809,05;12524,618;  197,141;43882,205;28,21897
 809,62;12535,859;  238,679;43835,949;28,20631
 810,18;12568,793;  223,218;43765,539;28,35305
 810,74;12509,880;  193,910;43527,206;28,42149
 811,31;12501,813;  207,910;43334,950;28,50625
 811,87;12514,516;  218,833;43102,463;28,67221
 812,44;12576,526;  246,217;43056,284;28,80236
 813,00;12478,768;  182,602;42853,181;28,81650
 813,56;12592,547;  226,063;42867,310;29,00122
 814,13;12568,404;  225,602;42708,669;29,05346
 814,69;12576,183;  214,833;42610,951;29,15680
 815,25;12546,040;  191,602;42152,003;29,44309
 815,82;12510,050;  238,602;42180,824;29,25798
 816,38;12575,984;  259,371;41865,260;29,60305
 816,94;12449,609;  206,294;41565,312;29,60253
 817,51;12469,697;  203,986;41310,363;29,83895
 818,07;12442,476;  208,371;41132,722;29,89444
 818,63;12446,102;  225,986;40792,313;30,12379
 819,20;12480,420;  229,909;40859,595;30,15163
 819,76;12341,430;  202,524;40400,339;30,19793
 820,32;12382,671;  252,216;40369,852;30,23721
 820,89;12350,374;  231,139;40121,211;30,38158
 821,45;12253,461;  211,909;39793,263;30,42229
 822,01;12270,933;  228,447;39537,930;30,63507
 822,57;12295,944;  232,755;39352,135;30,83686
 823,14;12239,492;  191,293;39116,648;30,95206
 823,70;12275,041;  210,831;38908,777;31,17532
 824,26;12191,359;  210,139;38737,905;31,09762
 824,82;12233,600;  233,293;38615,111;31,26561
 825,39;12162,765;  205,985;38329,162;31,36354
 825,95;12208,698;  230,062;38408,983;31,37500
 826,51;12127,093;  231,293;37885,573;31,59216
 827,08;12203,796;  256,754;38026,317;31,63140
 827,64;12155,806;  231,292;37844,292;31,70317
 828,20;12130,816;  205,523;37481,574;31,99184
 828,76;12203,981;  234,754;37476,779;32,13903
 829,32;12154,452;  252,292;37290,831;32,13453
 829,89;12164,463;  199,754;37203,960;32,33338
 830,45;12161,089;  226,754;37164,780;32,30908
 831,01;12166,407;  221,600;36947,678;32,52405
 831,57;12118,417;  220,292;36853,576;32,47900
 832,14;12135,966;  216,369;36842,704;32,54379
 832,70;12128,592;  208,753;36533,371;32,81477
 833,26;12088,679;  180,984;36456,192;32,82599
 833,82;12120,689;  214,369;36348,705;32,95016
 834,38;12164,238;  199,984;36476,295;32,98090
 834,95;12158,864;  194,138;36235,424;33,19728
 835,51;12164,028;  186,830;36122,014;33,33000
 836,07;12247,115;  213,368;36183,758;33,45459
 836,63;12323,895;  231,907;36097,886;33,71437
 837,19;12249,290;  226,830;35938,707;33,66516
 837,75;12180,069;  194,907;35691,989;33,76380
 838,32;12216,080;  240,137;35773,272;33,70359
 838,88;12278,475;  232,676;35867,246;33,80369
 839,44;12287,177;  219,137;35704,375;34,00862
 840,00;12272,726;  218,214;35595,427;34,07423
 840,56;12268,813;  214,752;35254,863;34,40075
 841,12;12182,747;  211,137;35368,068;34,05192
 841,68;12117,603;  191,829;35085,197;34,17777
 842,25;12225,921;  204,598;35059,479;34,48964
 842,81;12145,624;  200,060;34831,684;34,49323
 843,37;12184,096;  194,752;34868,967;34,57712
 843,93;12157,876;  200,752;34800,480;34,55843
 844,49;12217,347;  214,136;34701,685;34,80448
 845,05;12121,050;  174,906;34705,891;34,59543
 845,61;12282,445;  224,290;34714,635;34,96096
 846,17;12199,302;  205,598;34505,532;34,96713
 846,73;12214,466;  218,213;34489,199;35,00411
 847,29;12145,553;  188,905;34281,020;35,07159
 847,86;12231,102;  198,675;34211,995;35,37563
 848,42;12160,112;  197,136;33937,046;35,45646
 848,98;12186,046;  220,905;33936,636;35,48830
 849,54;12230,056;  206,367;34010,227;35,56898
 850,10;12218,297;  217,751;33847,432;35,68439
 850,66;12220,231;  190,597;33710,868;35,88764
 851,22;12177,933;  186,520;33505,381;35,98986
 851,78;12293,944;  242,751;33599,048;36,12869
 852,34;12219,877;  214,135;33407,561;36,16903
 852,90;12230,118;  209,982;33354,690;36,26563
 853,46;12211,590;  200,212;33024,126;36,59337
 854,02;12234,831;  212,135;33013,255;36,65331
 854,58;12160,072;  205,289;32844,383;36,62719
 855,14;12137,006;  200,520;32705,358;36,72218
 855,70;12106,554;  167,443;32557,948;36,85991
 856,26;12117,488;  217,135;32451,153;36,91861
 856,82;12108,729;  202,135;32397,205;36,98266
 857,38;12122,509;  240,058;32320,872;37,03912
 857,94;12099,288;  209,596;32241,769;37,11797
 858,50;12010,606;  223,981;32106,821;36,96856
 859,06;11993,232;  199,212;31912,103;37,18999
 859,62;12047,319;  236,673;31751,463;37,47652
 860,18;11988,099;  207,288;31630,899;37,49031
 860,74;11951,263;  180,827;31536,412;37,53856
 861,30;11911,427;  185,596;31293,541;37,69401
 861,86;11975,515;  251,750;31358,746;37,68851
 862,42;11963,909;  207,288;31089,182;38,06963
 862,98;11912,766;  236,826;31130,234;37,79428
 863,54;11907,623;  206,980;30949,439;38,06020
 864,10;11936,710;  214,903;30956,029;38,13070
 864,66;11856,028;  189,288;30710,158;38,22545
 865,22;11886,500;  212,749;30593,671;38,42461
 865,78;11900,202;  212,288;30395,569;38,72314
 866,34;11849,136;  200,980;30396,466;38,57582
 866,90;11810,838;  216,903;30233,672;38,62486
 867,45;11815,772;  216,518;30003,954;38,94009
 868,01;11769,705;  221,364;29892,467;38,92117
 868,57;11711,023;  200,980;29715,288;38,99818
 869,13;11737,726;  191,826;29556,186;39,31943
 869,69;11703,736;  209,595;29441,853;39,32006
 870,25;11699,824;  188,056;29320,597;39,51515
 870,81;11728,296;  209,902;29267,110;39,64040
 871,37;11705,383;  215,672;29163,315;39,69135
 871,93;11771,855;  230,364;29023,905;40,08361
 872,49;11655,865;  246,133;28752,264;40,02554
 873,04;11580,029;  193,671;28696,624;39,94799
 873,60;11555,578;  202,825;28475,598;40,15437
 874,16;11576,665;  215,133;28439,188;40,25478
 874,72;11508,665;  210,671;28339,650;40,16496
 875,28;11525,204;  212,517;28259,265;40,33511
 875,84;11506,281;  206,517;28127,881;40,46996
 876,40;11504,050;  202,133;28170,804;40,40920
 876,95;11515,896;  224,210;28176,958;40,39562
 877,51;11557,512;  239,363;28134,035;40,57459
 878,07;11623,358;  250,517;28051,496;40,90806
 878,63;11592,050;  214,517;28028,265;40,90615
 879,19;11635,435;  236,363;28060,265;40,96863
 879,75;11717,435;  205,517;28206,342;41,11278
 880,30;11789,665;  207,671;28119,804;41,49448
 880,86;11930,819;  244,287;28318,496;41,62729
 881,42;11879,512;  198,287;28242,804;41,65244
 881,98;11874,050;  232,287;28395,342;41,33700
 882,54;11988,973;  202,979;28430,188;41,75402
 883,09;12036,435;  227,056;28585,650;41,64303
 883,65;12081,358;  208,133;28687,881;41,69006
 884,21;12323,281;  238,825;28854,650;42,22998
 884,77;12273,435;  203,825;28919,419;42,03155
 885,32;12311,127;  212,671;29065,573;41,93150
 885,88;12494,819;  246,056;29209,342;42,29065
 886,44;12497,896;  228,902;29324,112;42,16843
 887,00;12541,973;  231,363;29266,188;42,39946
 887,56;12665,512;  216,825;29446,188;42,58966
 888,11;12642,050;  220,056;29499,188;42,42610
 888,67;12746,281;  243,825;29682,265;42,46983
 889,23;12712,665;  221,287;29719,112;42,34678
 889,79;12730,896;  195,671;29564,188;42,68253
 890,34;12813,896;  212,594;29500,112;43,02619
 890,90;12911,050;  282,825;29664,881;42,97938
 891,46;12909,435;  211,825;29556,881;43,27001
 892,01;12934,050;  221,979;29562,419;43,32611
 892,57;12903,435;  239,210;29488,342;43,29778
 893,13;12896,435;  215,825;29261,496;43,65749
 893,69;12932,665;  207,440;29292,958;43,75107
 894,24;12947,896;  207,287;29126,035;44,05657
 894,80;12877,512;  224,748;28970,804;44,01565
 895,36;12920,127;  225,594;28809,342;44,41171
 895,91;12819,742;  217,287;28692,419;44,25776
 896,47;12810,896;  236,210;28555,265;44,40362
 897,03;12697,896;  220,056;28270,573;44,48346
 897,58;12696,665;  226,133;28190,496;44,59437
 898,14;12689,050;  232,517;28065,650;44,75433
 898,70;12629,204;  193,902;27869,804;44,93188
 899,25;12642,050;  225,056;27800,650;45,02893
 899,81;12671,435;  235,748;27599,650;45,44559
 900,37;12529,050;  200,594;27427,881;45,27978
 900,92;12576,896;  223,594;27460,419;45,35515
 901,48;12487,742;  213,287;27325,265;45,27318
 902,03;12474,665;  211,825;27160,573;45,50430
 902,59;12398,819;  207,287;27020,958;45,46760
 903,15;12339,742;  236,517;26944,112;45,31754
 903,70;12256,358;  226,671;26587,496;45,63471
 904,26;12277,512;  212,056;26596,496;45,72944
 904,82;12246,819;  217,979;26558,265;45,66708
 905,37;12224,512;  223,287;26369,265;45,90084
 905,93;12162,588;  207,979;26219,496;45,95891
 906,48;12167,358;  234,902;26170,035;46,00885
 907,04;12208,588;  234,210;26015,958;46,44518
 907,60;12129,127;  230,825;25877,804;46,39261
 908,15;12047,512;  198,056;25708,727;46,44902
 908,71;12081,973;  241,363;25719,419;46,47376
 909,26;11988,819;  214,363;25552,650;46,46903
 909,82;12067,050;  226,133;25483,035;46,88191
 910,37;11995,358;  263,440;25365,650;46,73659
 910,93;11957,588;  211,440;25092,804;47,20862
 911,48;11856,435;  216,056;24978,188;47,00879
 912,04;11827,742;  209,440;24877,112;47,09931
 912,60;11903,512;  233,979;24864,727;47,37791
 913,15;11796,050;  230,748;24669,650;47,32333
 913,71;11775,204;  214,825;24523,804;47,55600
 914,26;11700,050;  198,210;24400,573;47,52362
 914,82;11669,896;  219,440;24425,496;47,30410
 915,37;11616,588;  211,287;24273,496;47,39923
 915,93;11654,281;  260,287;24132,958;47,72819
 916,48;11541,742;  203,594;24072,650;47,50145
 917,04;11558,281;  229,671;23877,265;47,90597
 917,59;11511,358;  242,056;23860,573;47,71384
 918,15;11357,819;  186,594;23641,188;47,62915
 918,70;11417,896;  212,517;23525,496;48,06498
 919,26;11356,512;  219,133;23553,188;47,73015
 919,81;11224,050;  203,056;23296,188;47,72412
 920,37;11336,127;  212,440;23266,727;48,24997
 920,92;11316,588;  226,748;23184,881;48,30463
 921,48;11239,204;  192,979;22903,496;48,63925
 922,03;11271,358;  205,210;22852,804;48,86236
 922,59;11238,127;  214,287;22756,727;48,90260
 923,14;11244,127;  209,287;22646,804;49,18031
 923,69;11206,896;  227,825;22529,035;49,23083
 924,25;11214,973;  236,210;22584,573;49,12558
 924,80;11100,973;  223,517;22282,727;49,31027
 925,36;11108,665;  207,210;22256,727;49,44079
 925,91;11154,512;  205,748;22106,265;49,99317
 926,47;11060,819;  193,825;21967,881;49,90799
 927,02;11175,358;  262,902;22022,958;50,14902
 927,57;11058,896;  222,671;21811,419;50,19386
 928,13;11008,204;  207,363;21769,496;50,09171
 928,68;11021,665;  212,825;21645,958;50,43052
 929,24;10869,973;  189,671;21443,804;50,25047
 929,79;10834,742;  209,210;21321,496;50,32867
 930,34;10794,665;  227,210;21177,496;50,44063
 930,90;10780,512;  212,133;21154,881;50,46319
 931,45;10827,281;  226,210;21140,035;50,68930
 932,01;10788,665;  225,287;21016,419;50,80713
 932,56;10721,896;  238,133;20846,496;50,87140
 933,11;10762,973;  242,133;20899,265;50,93079
 933,67;10726,819;  216,287;20613,650;51,52888
 934,22;10691,512;  233,748;20591,650;51,36955
 934,77;10600,127;  246,979;20452,035;51,24038
 935,33;10622,588;  229,440;20333,035;51,69796
 935,88;10494,281;  234,210;20216,881;51,34484
 936,43;10495,127;  217,363;20137,573;51,59466
 936,99;10449,127;  223,210;20117,342;51,40167
 937,54;10387,588;  204,825;19854,804;51,82073
 938,09;10343,819;  233,440;19881,419;51,45760
 938,65;10261,050;  224,363;19699,958;51,53469
 939,20;10199,742;  210,056;19580,419;51,57201
 939,75;10165,127;  210,210;19487,188;51,64148
 940,31;10117,358;  195,902;19433,958;51,57203
 940,86;10161,819;  219,671;19390,112;51,86187
 941,41;10159,204;  299,979;19292,419;51,91131
 941,96;10080,512;  207,594;19122,188;52,19735
 942,52;10000,050;  214,287;19128,496;51,73763
 943,07; 9941,281;  200,671;18956,188;51,93464
 943,62; 9900,050;  206,902;18807,342;52,11247
 944,18; 9884,281;  192,287;18809,573;52,05911
 944,73; 9858,127;  225,133;18679,958;52,19770
 945,28; 9792,588;  191,210;18469,881;52,52777
 945,83; 9792,435;  207,671;18536,650;52,29295
 946,39; 9802,512;  207,825;18422,881;52,67448
 946,94; 9793,588;  229,979;18364,035;52,73839
 947,49; 9783,896;  218,594;18205,419;53,17949
 948,04; 9681,204;  254,671;18258,188;52,35939
 948,59; 9691,435;  232,287;18166,342;52,74405
 949,15; 9625,435;  197,671;18026,035;52,88070
 949,70; 9646,512;  213,748;17911,650;53,29877
 950,25; 9575,435;  232,440;17843,573;53,05164
 950,80; 9535,127;  192,440;17746,496;53,22238
 951,36; 9513,358;  190,210;17661,496;53,36269
 951,91; 9530,512;  235,594;17641,342;53,40142
 952,46; 9453,204;  201,287;17444,958;53,65399
 953,01; 9513,435;  234,748;17499,727;53,74282
 953,56; 9416,358;  197,517;17290,035;53,93495
 954,11; 9403,742;  225,440;17340,112;53,62827
 954,67; 9373,896;  210,671;17231,188;53,83635
 955,22; 9341,896;  198,594;17061,650;54,22091
 955,77; 9405,358;  229,825;17086,727;54,43190
 956,32; 9360,973;  257,594;16934,804;54,58574
 956,87; 9264,512;  192,979;16760,112;54,75620
 957,42; 9272,973;  220,671;16759,342;54,73416
 957,98; 9203,512;  206,979;16642,035;54,73990
 958,53; 9207,588;  239,517;16637,419;54,69036
 959,08; 9121,127;  202,210;16448,188;54,89923
 959,63; 9119,742;  206,979;16353,727;55,19850
 960,18; 9162,512;  219,210;16308,727;55,58465
 960,73; 9071,050;  222,517;16294,650;55,05512
 961,28; 8985,050;  193,440;16178,650;54,99840
 961,83; 9086,819;  238,671;16126,881;55,69003
 962,39; 8969,358;  203,440;15931,265;55,73509
 962,94; 8919,665;  223,748;15883,265;55,53120
 963,49; 8928,973;  220,056;15778,188;55,97662
 964,04; 8887,512;  230,440;15703,804;55,94822
 964,59; 8864,358;  179,210;15634,958;56,19364
 965,14; 8918,358;  234,287;15589,804;56,55343
 965,69; 8839,665;  218,133;15454,265;56,58610
 966,24; 8759,435;  202,671;15369,496;56,41763
 966,79; 8769,512;  235,825;15238,727;56,88024
 967,34; 8721,819;  188,363;15131,958;57,10444
 967,89; 8682,358;  206,133;15068,188;57,03266
 968,44; 8651,512;  217,594;15043,650;56,88578
 968,99; 8675,819;  223,979;14942,496;57,42318
 969,55; 8669,742;  226,133;14876,958;57,63232
 970,10; 8636,050;  216,671;14771,419;57,84627
 970,65; 8565,819;  232,748;14657,342;57,76988
 971,20; 8490,896;  210,363;14533,035;57,81416
 971,75; 8401,896;  185,440;14384,035;57,86809
 972,30; 8417,512;  216,517;14376,881;57,91514
 972,85; 8364,358;  201,287;14248,958;58,10978
 973,40; 8304,204;  200,979;14079,881;58,38520
 973,95; 8294,435;  214,133;14052,496;58,39059
 974,50; 8286,742;  233,594;13976,958;58,59663
 975,05; 8216,127;  225,594;13947,573;58,23164
 975,60; 8177,358;  236,671;13882,573;58,19100
 976,15; 8111,973;  199,056;13705,804;58,58492
 976,70; 8064,665;  221,517;13650,188;58,40599
 977,25; 8116,435;  229,517;13601,958;58,97889
 977,80; 8010,281;  208,363;13426,650;59,02367
 978,35; 7951,050;  226,133;13307,342;59,05354
 978,89; 7879,896;  197,440;13243,881;58,88545
 979,44; 7921,050;  217,517;13192,496;59,37222
 979,99; 7798,435;  204,594;13001,496;59,34124
 980,54; 7798,127;  239,056;12943,727;59,49836
 981,09; 7729,050;  241,210;12857,342;59,35131
 981,64; 7705,204;  222,363;12727,112;59,83999
 982,19; 7667,127;  256,825;12658,573;59,75208
 982,74; 7611,512;  224,517;12570,881;59,83134
 983,29; 7541,896;  211,825;12411,342;60,08493
 983,84; 7496,896;  222,979;12333,265;60,06396
 984,39; 7504,435;  286,287;12319,881;59,98331
 984,94; 7418,358;  195,133;12125,804;60,54332
 985,49; 7416,742;  234,056;12096,496;60,54982
 986,03; 7411,050;  239,363;11960,881;61,18394
 986,58; 7291,281;  267,440;11850,958;60,63651
 987,13; 7224,819;  227,594;11696,035;61,01287
 987,68; 7184,896;  237,825;11552,112;61,40088
 988,23; 7182,281;  232,594;11574,573;61,27402
 988,78; 7102,973;  208,440;11438,650;61,39273
 989,33; 7040,588;  234,594;11321,727;61,38642
 989,88; 7018,896;  253,517;11253,650;61,50270
 990,42; 6916,358;  222,671;11075,958;61,67428
 990,97; 6848,819;  218,594;11007,188;61,45588
 991,52; 6855,819;  251,517;10894,496;62,05313
 992,07; 6812,896;  251,748;10815,112;62,11230
 992,62; 6700,819;  225,979;10694,342;61,85151
 993,17; 6655,204;  236,671;10562,727;62,15861
 993,71; 6594,281;  241,517;10475,804;62,07334
 994,26; 6529,742;  216,902;10327,958;62,43503
 994,81; 6499,050;  247,056;10291,881;62,24095
 995,36; 6443,588;  220,902;10167,496;62,56098
 995,91; 6398,204;  227,748;10093,650;62,54325
 996,45; 6322,435;  227,056; 9969,342;62,56620
 997,00; 6210,127;  196,440; 9808,804;62,56200
 997,55; 6213,204;  236,517; 9780,496;62,62259
 998,10; 6178,281;  264,979; 9687,188;62,75918
 998,65; 6150,435;  230,825; 9623,958;63,02061
 999,19; 6076,973;  249,287; 9473,727;63,17659
 999,74; 6000,127;  246,210; 9403,573;62,83378
1000,29; 5954,358;  240,287; 9272,573;63,26273
1000,84; 5876,896;  225,363; 9157,573;63,27138
1001,38; 5813,973;  233,440; 9052,419;63,27867
1001,93; 5812,281;  245,594; 8985,112;63,69558
1002,48; 5696,896;  211,671; 8833,804;63,61796
1003,03; 5741,896;  236,056; 8799,188;64,29703
1003,57; 5621,665;  240,825; 8685,804;63,71645
1004,12; 5607,588;  265,287; 8624,112;63,91212
1004,67; 5520,435;  229,902; 8547,496;63,60653
1005,22; 5399,512;  223,056; 8321,804;63,91674
1005,76; 5320,742;  219,210; 8250,727;63,51892
1006,31; 5327,973;  242,517; 8192,265;63,97002
1006,86; 5278,127;  221,671; 8064,573;64,47175
1007,40; 5179,742;  215,133; 7900,958;64,59436
1007,95; 5154,127;  229,979; 7844,958;64,66398
1008,50; 5096,742;  228,517; 7754,727;64,68362
1009,04; 5017,435;  229,594; 7633,035;64,67048
1009,59; 4944,665;  232,671; 7466,727;65,13627
1010,14; 4892,588;  219,825; 7384,804;65,21671
1010,68; 4807,358;  226,440; 7286,573;64,88429
1011,23; 4738,973;  227,287; 7147,573;65,19508
1011,78; 4746,127;  239,440; 7131,650;65,38812
1012,32; 4690,665;  246,902; 6996,188;65,84049
1012,87; 4643,281;  260,133; 6942,035;65,59731
1013,42; 4562,281;  222,517; 6811,804;65,86090
1013,96; 4612,050;  253,979; 6860,727;65,96394
1014,51; 4520,435;  206,363; 6733,342;66,09599
1015,06; 4514,665;  209,287; 6732,650;65,99937
1015,60; 4625,973;  263,594; 6726,419;67,49957
1016,15; 4531,127;  221,363; 6723,727;66,27995
1016,69; 4583,435;  226,825; 6771,573;66,56650
1017,24; 4552,435;  205,671; 6781,419;66,10295
1017,79; 4657,281;  256,287; 6846,650;66,77923
1018,33; 4627,512;  214,210; 6824,650;66,76260
1018,88; 4704,435;  236,210; 6878,496;67,26938
1019,42; 4665,896;  227,517; 6921,496;66,30405
1019,97; 4700,896;  215,979; 6880,727;67,29313
1020,51; 4718,588;  257,825; 6987,419;66,28577
1021,06; 4693,050;  203,748; 6895,188;67,09022
1021,61; 4672,358;  195,210; 6874,419;67,03111
1022,15; 4636,435;  173,979; 6890,727;66,43774
1022,70; 4670,665;  221,979; 6826,188;67,36138
1023,24; 4621,358;  212,517; 6808,112;66,84523
1023,79; 4620,281;  224,902; 6748,265;67,37903
1024,33; 4571,896;  222,825; 6655,496;67,60910
1024,88; 4509,204;  236,748; 6634,804;66,77741
1025,42; 4493,512;  228,671; 6490,035;68,11361
1025,97; 4346,742;  204,056; 6409,496;66,75895
1026,51; 4293,435;  180,594; 6295,496;67,25930
1027,06; 4295,127;  214,979; 6263,650;67,45528
1027,60; 4229,127;  221,363; 6169,573;67,37764
1028,15; 4196,204;  234,748; 6063,650;67,96230
1028,69; 4092,281;  200,210; 5929,881;67,92835
1029,24; 4051,204;  202,287; 5872,265;67,88239
1029,78; 3984,127;  206,979; 5726,188;68,43639
1030,33; 3892,512;  200,671; 5674,496;67,44535
1030,87; 3904,588;  211,363; 5561,573;69,02954
1031,42; 3812,435;  194,517; 5488,573;68,33924
1031,96; 3791,819;  227,210; 5437,496;68,41485
1032,51; 3728,281;  199,979; 5336,650;68,68849
1033,05; 3692,819;  218,748; 5301,265;68,35336
1033,60; 3628,973;  190,517; 5133,112;69,56783
1034,14; 3583,973;  217,287; 5078,419;69,25724
1034,69; 3532,512;  218,133; 5018,881;69,03880
1035,23; 3505,127;  212,748; 4958,804;69,37084
1035,77; 3458,588;  214,517; 4907,573;69,12492
1036,32; 3406,588;  189,210; 4856,573;68,93354
1036,86; 3413,973;  205,979; 4784,419;70,06740
1037,41; 3335,204;  221,979; 4679,804;69,83731
1037,95; 3248,358;  187,594; 4631,573;68,87439
1038,50; 3256,665;  208,517; 4563,188;69,99720
1039,04; 3227,281;  230,056; 4508,881;70,04785
1039,58; 3128,358;  193,517; 4421,804;69,40969
1040,13; 3109,973;  215,594; 4399,265;69,18275
1040,67; 3133,896;  243,594; 4348,573;70,40967
1041,21; 3098,050;  253,133; 4264,265;70,92553
1041,76; 3011,588;  197,210; 4173,342;70,78181
1042,30; 2985,281;  209,594; 4128,650;70,82539
1042,85; 2938,281;  214,056; 4082,265;70,42599
1043,39; 2899,819;  202,210; 3987,804;71,25987
1043,93; 2896,512;  231,363; 3994,112;70,82983
1044,48; 2851,665;  218,979; 3903,112;71,46014
1045,02; 2794,512;  218,748; 3847,804;70,97613
1045,56; 2776,512;  245,210; 3814,727;70,91440
1046,11; 2740,281;  219,363; 3780,112;70,79741
1046,65; 2704,127;  224,056; 3693,804;71,47698
1047,19; 2646,742;  209,671; 3656,958;70,69535
1047,74; 2605,358;  191,287; 3596,881;70,88546
1048,28; 2583,127;  218,210; 3548,035;71,02227
1048,82; 2584,512;  246,363; 3496,419;71,94178
1049,37; 2527,819;  228,287; 3439,496;71,60955
1049,91; 2514,819;  208,594; 3417,958;71,85927
1050,45; 2480,973;  235,825; 3371,419;71,60200
1050,99; 2446,973;  231,671; 3312,342;71,90972
1051,54; 2389,358;  203,671; 3239,342;72,00011
1052,08; 2392,665;  245,133; 3242,727;71,64187
1052,62; 2339,358;  237,287; 3173,265;71,59694
1053,16; 2290,435;  207,517; 3112,804;71,69404
1053,71; 2301,281;  225,056; 3125,035;71,59449
1054,25; 2269,819;  234,210; 3029,804;72,81492
1054,79; 2240,973;  232,825; 2986,804;72,91806
1055,33; 2159,127;  194,748; 2926,650;71,90517
1055,88; 2163,512;  229,825; 2917,188;71,95478
1056,42; 2137,050;  238,671; 2905,035;71,19730
1056,96; 2120,358;  238,748; 2854,342;71,93813
1057,50; 2088,281;  236,056; 2808,035;72,01556
1058,05; 2045,665;  233,210; 2765,342;71,57823
1058,59; 2040,819;  241,210; 2738,035;72,07592
1059,13; 1964,973;  197,133; 2664,112;71,66014
1059,67; 1960,742;  235,671; 2653,727;71,34125
1060,21; 1947,742;  231,287; 2594,727;72,62530
1060,76; 1905,281;  237,363; 2568,112;71,56146
1061,30; 1920,588;  248,902; 2526,804;73,38712
1061,84; 1856,588;  232,287; 2506,265;71,42995
1062,38; 1827,973;  215,979; 2427,958;72,87566
1062,92; 1850,973;  261,440; 2465,188;72,12860
1063,46; 1786,050;  252,210; 2401,881;71,35233
1064,01; 1765,512;  217,056; 2360,727;72,23383
1064,55; 1743,588;  232,287; 2342,342;71,62379
1065,09; 1699,050;  203,440; 2258,265;72,78525
1065,63; 1750,127;  260,133; 2282,496;73,67589
1066,17; 1729,204;  254,056; 2254,112;73,75535
1066,71; 1693,281;  242,902; 2205,573;73,89821
1067,25; 1663,973;  226,210; 2185,035;73,39928
1067,80; 1663,358;  244,287; 2153,881;74,31271
1068,34; 1666,819;  257,594; 2146,573;74,60248
1068,88; 1605,665;  217,902; 2088,958;74,17007
1069,42; 1622,896;  251,671; 2111,958;73,71042
1069,96; 1578,281;  226,748; 2052,035;74,04496
1070,50; 1609,665;  269,902; 2056,958;74,97043
1071,04; 1540,819;  223,902; 1995,188;74,34807
1071,58; 1534,896;  227,594; 1961,035;75,41661
1072,12; 1512,281;  232,440; 1932,727;75,27204
1072,66; 1507,819;  228,287; 1930,035;75,18931
1073,21; 1503,358;  252,363; 1917,112;75,14616
1073,75; 1488,665;  234,594; 1902,342;75,19548
1074,29; 1453,588;  236,979; 1876,958;74,18447
1074,83; 1451,588;  256,133; 1849,342;75,03443
1075,37; 1446,512;  249,363; 1839,035;75,30791
1075,91; 1424,281;  246,363; 1772,958;77,15982
1076,45; 1404,588;  243,363; 1782,727;75,43540
1076,99; 1386,358;  251,287; 1751,650;75,65308
1077,53; 1363,050;  233,748; 1714,573;76,26167
1078,07; 1372,204;  242,748; 1731,496;75,86614
1078,61; 1336,050;  234,133; 1671,188;76,67881
1079,15; 1308,896;  233,979; 1668,112;74,95243
1079,69; 1294,896;  230,440; 1661,035;74,40655
1080,23; 1319,512;  258,594; 1644,881;76,52944
1080,77; 1312,435;  283,594; 1669,188;74,25265
1081,31; 1251,819;  233,902; 1601,958;74,40613
1081,85; 1252,665;  247,517; 1569,342;76,04245
1082,39; 1220,896;  236,517; 1539,265;75,56172
1082,93; 1228,050;  237,825; 1560,496;74,86555
1083,47; 1193,512;  228,287; 1499,804;75,91127
1084,01; 1204,588;  244,287; 1521,342;75,19655
1084,55; 1186,973;  233,210; 1468,112;77,23394
1085,09; 1192,127;  246,671; 1475,650;76,93019
1085,63; 1163,896;  240,671; 1445,496;76,62731
1086,17; 1148,665;  227,056; 1436,188;76,22072
1086,71; 1126,665;  233,825; 1402,419;76,40294
1087,24; 1144,742;  259,748; 1407,496;77,10701
1087,78; 1137,896;  249,133; 1413,265;76,34555
1088,32; 1074,819;  229,287; 1345,265;75,76601
1088,86; 1119,050;  251,825; 1368,650;77,65093
1089,40; 1083,665;  244,210; 1343,650;76,35300
1089,94; 1061,281;  213,287; 1311,419;77,22147
1090,48; 1061,358;  239,517; 1294,958;77,86706
1091,02; 1065,819;  260,440; 1296,188;77,75818
1091,56; 1041,435;  249,133; 1276,342;77,13147
1092,10; 1009,127;  217,902; 1260,342;75,90122
1092,63; 1034,281;  255,363; 1271,419;76,66088
1093,17; 1003,665;  244,440; 1244,650;75,90659
1093,71;  992,819;  232,210; 1206,650;78,05604
1094,25;  991,819;  258,210; 1232,419;75,30306
1094,79;  963,281;  224,440; 1194,573;76,15869
1095,33;  962,050;  236,979; 1181,727;76,74757
1095,87;  939,358;  237,517; 1168,881;75,35623
1096,40;  935,358;  219,287; 1155,496;76,48620
1096,94;  943,512;  234,287; 1147,573;77,65635
1097,48;  929,896;  245,210; 1139,265;76,58208
1098,02;  922,588;  234,210; 1110,265;78,57706
1098,56;  869,896;  204,594; 1078,958;76,08986
1099,10;  858,973;  219,594; 1061,573;75,93764
1099,63;  866,127;  215,210; 1068,958;76,24232
1100,17;  885,512;  241,825; 1070,573;77,66975
1100,71;  895,819;  265,210; 1063,188;79,02586

