
Integration time [ms]: 120,000
Averaging Nr. [scans]: 13
Smoothing Nr. [pixels]: 0
Data measured with spectrometer [name]: 2009305U1
Wave   ;Sample   ;Dark     ;Reference;Reflectance
[nm]   ;[counts] ;[counts] ;[counts] ;[%]

 175,72;  194,777;  196,668;  197,919;-151,14497
 176,32;  221,801;  224,824;  212,280; 0,00000
 176,92;  249,795;  241,130;  242,571;601,48984
 177,52;  256,179;  242,515;  254,327;115,67238
 178,12;  235,893;  234,286;  223,116; 0,00000
 178,72;  261,065;  259,440;  254,402; 0,00000
 179,32;  252,632;  246,671;  235,386; 0,00000
 179,92;  251,644;  234,900;  248,482;123,27751
 180,52;  250,480;  240,436;  237,089; 0,00000
 181,12;  246,720;  253,977;  245,596; 0,00000
 181,73;  271,874;  269,515;  273,796;55,09070
 182,33;  340,453;  335,668;  334,695; 0,00000
 182,93;  266,117;  254,130;  265,674;103,84131
 183,53;  240,866;  236,441;  221,261; 0,00000
 184,13;  232,942;  237,671;  221,796; 0,00000
 184,73;  263,544;  262,518;  271,534;11,38218
 185,33;  263,256;  229,840;  336,352;31,37280
 185,93;  268,093;  230,227;  351,774;31,15359
 186,53;  283,859;  244,918;  379,899;28,84918
 187,13;  318,652;  274,916;  403,937;33,89840
 187,73;  274,154;  235,688;  356,935;31,72511
 188,33;  279,942;  241,766;  349,541;35,42178
 188,93;  284,368;  249,615;  369,880;28,89687
 189,53;  282,130;  249,772;  385,703;23,80529
 190,13;  322,421;  275,006;  414,463;33,99947
 190,73;  268,504;  214,465;  357,542;37,76903
 191,34;  292,510;  255,616;  380,255;29,60040
 191,94;  265,207;  233,998;  358,715;25,02396
 192,54;  290,555;  238,761;  386,808;34,98498
 193,14;  287,715;  254,609;  383,084;25,76834
 193,74;  287,731;  248,378;  396,443;26,57817
 194,34;  292,482;  252,224;  387,868;29,67961
 194,94;  254,961;  212,609;  342,507;32,60404
 195,54;  222,794;  192,610;  327,986;22,29691
 196,14;  265,450;  222,454;  364,863;30,19184
 196,74;  250,180;  216,764;  341,279;26,83742
 197,34;  235,077;  194,760;  337,313;28,28162
 197,94;  264,668;  225,608;  364,072;28,20903
 198,54;  272,819;  230,300;  376,969;28,98983
 199,14;  254,613;  205,914;  371,989;29,32352
 199,74;  240,367;  202,991;  371,028;22,24278
 200,34;  237,258;  185,529;  381,448;26,40338
 200,94;  267,247;  230,838;  425,835;18,67164
 201,54;  262,276;  210,991;  424,829;23,98292
 202,14;  287,087;  228,221;  464,972;24,86429
 202,74;  264,275;  209,452;  467,115;21,27683
 203,34;  251,746;  188,758;  473,666;22,10810
 203,94;  230,779;  173,913;  479,547;18,60593
 204,54;  305,544;  230,608;  560,734;22,69916
 205,14;  267,905;  194,529;  577,711;19,14920
 205,74;  320,008;  234,297;  662,667;20,00863
 206,34;  287,703;  194,990;  656,194;20,10236
 206,94;  313,904;  206,682;  723,812;20,73392
 207,54;  287,995;  180,990;  761,512;18,43261
 208,14;  310,794;  194,759;  845,961;17,81866
 208,74;  330,890;  208,529;  911,260;17,41223
 209,34;  324,520;  205,914;  978,815;15,34563
 209,94;  350,151;  213,375; 1077,076;15,83606
 210,54;  356,609;  203,989; 1184,084;15,57192
 211,14;  387,567;  215,606; 1280,692;16,14526
 211,73;  393,861;  202,914; 1388,013;16,11229
 212,33;  403,032;  218,530; 1506,797;14,32169
 212,93;  414,306;  198,914; 1587,260;15,51428
 213,53;  400,182;  178,298; 1618,606;15,40533
 214,13;  411,405;  200,450; 1689,169;14,17026
 214,73;  404,933;  178,451; 1740,510;14,49894
 215,33;  388,767;  160,837; 1762,383;14,23186
 215,93;  434,393;  204,605; 1872,417;13,77781
 216,53;  407,091;  159,606; 1926,444;14,00720
 217,13;  478,655;  214,605; 2158,920;13,58063
 217,73;  476,746;  190,528; 2304,263;13,54089
 218,33;  455,112;  152,219; 2518,725;12,79918
 218,93;  523,198;  182,832; 2769,091;13,16054
 219,53;  561,712;  193,450; 3043,686;12,92042
 220,13;  571,726;  158,449; 3363,047;12,89637
 220,73;  644,428;  180,221; 3703,613;13,17499
 221,32;  687,198;  184,529; 4093,106;12,86066
 221,92;  740,373;  183,065; 4469,423;13,00190
 222,52;  783,761;  183,066; 4860,098;12,84351
 223,12;  849,638;  181,835; 5272,367;13,11853
 223,72;  936,468;  191,912; 5711,636;13,48902
 224,32;  959,299;  191,681; 6080,154;13,03594
 224,92;  999,960;  176,296; 6396,211;13,24237
 225,52; 1066,427;  194,375; 6776,081;13,24963
 226,12; 1133,886;  184,066; 7115,680;13,70272
 226,72; 1181,502;  163,836; 7436,883;13,99229
 227,31; 1239,317;  150,836; 7843,941;14,14879
 227,91; 1319,104;  191,529; 8225,304;14,03544
 228,51; 1393,554;  176,068; 8674,641;14,32577
 229,11; 1460,256;  180,451; 9046,663;14,43463
 229,71; 1528,598;  178,683; 9391,280;14,65293
 230,31; 1622,205;  167,758; 9800,650;15,09876
 230,91; 1703,171;  165,146;10128,599;15,43667
 231,51; 1799,023;  167,066;10384,244;15,97268
 232,10; 1894,220;  162,988;10757,667;16,34058
 232,70; 2006,867;  186,608;11009,483;16,81862
 233,30; 2112,747;  196,066;11238,918;17,35675
 233,90; 2166,793;  171,374;11352,438;17,84642
 234,50; 2237,239;  174,451;11517,427;18,18560
 235,10; 2341,268;  156,450;11505,442;19,25121
 235,70; 2420,950;  193,760;11579,833;19,56066
 236,29; 2513,137;  192,068;11503,674;20,51936
 236,89; 2554,017;  152,992;11438,703;21,27491
 237,49; 2605,332;  180,913;11287,940;21,82780
 238,09; 2657,626;  180,451;10997,578;22,90048
 238,69; 2687,973;  202,146;10858,055;23,32815
 239,29; 2681,088;  166,682;10503,772;24,32411
 239,89; 2670,971;  180,915;10194,569;24,86661
 240,48; 2646,903;  154,451; 9754,405;25,96316
 241,08; 2631,873;  170,529; 9405,870;26,65136
 241,68; 2603,841;  194,836; 9140,318;26,92985
 242,28; 2567,962;  174,220; 8763,467;27,86906
 242,88; 2603,159;  208,065; 8530,515;28,77871
 243,48; 2546,271;  199,374; 8222,440;29,25187
 244,07; 2507,073;  185,452; 8005,746;29,68714
 244,67; 2509,148;  194,220; 7827,115;30,32831
 245,27; 2449,168;  201,683; 7655,244;30,15317
 245,87; 2457,236;  198,988; 7542,632;30,75106
 246,47; 2456,199;  191,299; 7517,879;30,91347
 247,06; 2452,919;  176,221; 7552,186;30,86644
 247,66; 2450,148;  173,067; 7597,404;30,67051
 248,26; 2535,799;  204,375; 7721,867;31,01331
 248,86; 2570,476;  196,068; 7946,032;30,63766
 249,46; 2569,039;  150,220; 8117,436;30,35965
 250,05; 2657,088;  205,605; 8529,406;29,45148
 250,65; 2692,707;  158,684; 8867,977;29,09563
 251,25; 2786,535;  180,529; 9300,687;28,57413
 251,85; 2866,156;  183,915; 9897,809;27,61241
 252,44; 2960,321;  143,760;10426,548;27,39102
 253,04; 3112,736;  193,837;11157,152;26,62424
 253,64; 3178,616;  144,299;11872,353;25,87229
 254,24; 3336,026;  199,990;12750,291;24,98774
 254,84; 3443,346;  178,374;13710,898;24,12686
 255,43; 3580,613;  177,606;14641,288;23,52794
 256,03; 3695,800;  173,068;15619,314;22,80639
 256,63; 3851,371;  187,607;16570,915;22,36278
 257,23; 3874,971;  165,530;17440,270;21,47321
 257,82; 3965,789;  185,685;18410,923;20,74104
 258,42; 4022,544;  140,301;19238,014;20,32832
 259,02; 4072,428;  195,529;20100,066;19,47746
 259,62; 4063,468;  164,301;20780,805;18,91284
 260,21; 4023,336;  185,760;21389,750;18,09837
 260,81; 3974,301;  179,297;21840,834;17,51955
 261,41; 3937,897;  165,070;22271,751;17,06646
 262,01; 3890,377;  205,071;22747,222;16,34851
 262,60; 3786,971;  153,146;23059,270;15,86399
 263,20; 3736,784;  175,530;23358,004;15,36184
 263,80; 3680,070;  188,609;23556,520;14,94126
 264,40; 3560,377;  157,224;23717,182;14,44465
 264,99; 3492,962;  188,609;23856,252;13,96148
 265,59; 3429,151;  163,226;24016,091;13,69196
 266,19; 3332,747;  174,224;24242,712;13,12306
 266,78; 3322,641;  208,533;24397,709;12,87397
 267,38; 3256,381;  179,149;24300,377;12,75736
 267,98; 3188,149;  173,764;24345,555;12,47067
 268,58; 3130,273;  178,072;24350,973;12,21286
 269,17; 3091,861;  172,919;24355,377;12,07050
 269,77; 3037,387;  194,454;24203,591;11,84105
 270,37; 2995,116;  161,455;24082,628;11,84583
 270,96; 2974,466;  221,993;24011,182;11,57027
 271,56; 2882,879;  169,607;23734,204;11,51419
 272,16; 2859,267;  176,301;23539,069;11,48394
 272,75; 2849,482;  176,916;23407,117;11,50471
 273,35; 2861,435;  184,069;23453,806;11,50578
 273,95; 2869,620;  184,839;23409,924;11,55983
 274,54; 2921,088;  164,144;23390,628;11,86983
 275,14; 2970,773;  201,916;23686,758;11,78998
 275,74; 2944,313;  154,454;23785,213;11,80605
 276,33; 3058,880;  203,223;24173,832;11,91316
 276,93; 3090,471;  186,451;24621,375;11,88471
 277,53; 3226,890;  189,606;25047,943;12,21837
 278,12; 3304,155;  166,145;25551,471;12,36151
 278,72; 3472,383;  213,529;26164,319;12,55782
 279,32; 3565,645;  179,453;26731,464;12,75305
 279,91; 3709,877;  159,760;27416,178;13,02488
 280,51; 3860,382;  171,452;27950,740;13,27943
 281,11; 4046,000;  179,991;28722,006;13,54497
 281,70; 4147,831;  161,530;29076,084;13,78649
 282,30; 4332,879;  172,992;29653,281;14,11074
 282,90; 4520,217;  175,453;30050,521;14,54311
 283,49; 4668,342;  201,377;30707,229;14,64298
 284,09; 4894,908;  206,761;31099,989;15,17532
 284,69; 5071,230;  199,299;31383,821;15,62291
 285,28; 5291,155;  196,684;31825,797;16,10690
 285,88; 5487,836;  220,762;32019,926;16,56356
 286,47; 5641,771;  181,223;32128,176;17,09255
 287,07; 5856,430;  214,837;32257,888;17,60629
 287,67; 6093,194;  200,143;32393,594;18,30512
 288,26; 6316,030;  177,683;32269,677;19,12735
 288,86; 6576,185;  180,684;32334,209;19,89051
 289,46; 6907,461;  193,376;32530,562;20,76274
 290,05; 7237,627;  170,375;32505,111;21,85653
 290,65; 7566,295;  184,223;32648,485;22,73907
 291,24; 7985,414;  193,068;32961,560;23,78000
 291,84; 8411,679;  197,530;33029,454;25,01879
 292,44; 8761,747;  183,220;33101,900;26,05975
 293,03; 9254,937;  239,145;33291,127;27,27761
 293,63; 9601,340;  183,300;33470,733;28,29308
 294,22; 9976,554;  192,991;33683,054;29,21333
 294,82;10326,407;  174,532;33575,594;30,39387
 295,41;10573,062;  161,376;33298,468;31,42003
 296,01;10856,052;  224,685;33327,004;32,11668
 296,61;11019,876;  193,683;32993,397;33,00697
 297,20;11147,559;  195,301;32730,397;33,66291
 297,80;11329,919;  193,682;32568,733;34,39759
 298,39;11464,309;  170,992;32250,732;35,20389
 298,99;11590,266;  197,839;32006,740;35,81522
 299,58;11707,779;  196,528;31893,076;36,31705
 300,18;11816,765;  210,606;31673,312;36,88862
 300,78;11877,567;  177,375;31300,769;37,59292
 301,37;11982,532;  187,532;31326,148;37,87901
 301,97;12150,046;  195,068;31357,466;38,36347
 302,56;12217,602;  183,530;31272,571;38,70841
 303,16;12294,665;  169,761;31119,621;39,17596
 303,75;12398,582;  177,067;31117,546;39,50008
 304,35;12564,176;  173,066;31521,511;39,52703
 304,94;12637,538;  183,299;31356,572;39,95166
 305,54;12756,583;  206,529;31336,491;40,31503
 306,13;12773,776;  163,912;31367,636;40,41141
 306,73;12756,624;  175,143;31149,833;40,61859
 307,33;12805,117;  194,374;31011,498;40,92122
 307,92;12962,891;  186,914;31149,531;41,26259
 308,52;13114,296;  169,608;31623,266;41,15479
 309,11;13440,068;  181,070;32031,332;41,62916
 309,71;13593,623;  162,840;32261,962;41,84159
 310,30;13742,291;  169,145;32596,483;41,85711
 310,90;13897,830;  201,606;32942,868;41,83169
 311,49;13989,891;  185,299;33078,879;41,96744
 312,09;14068,719;  150,529;33147,793;42,17983
 312,68;14308,490;  223,760;33564,913;42,24428
 313,28;14344,199;  162,837;33776,608;42,18914
 313,87;14445,476;  155,683;33948,023;42,28708
 314,47;14573,959;  167,916;34121,906;42,42813
 315,06;14591,814;  166,914;34277,617;42,28849
 315,66;14657,642;  174,606;34487,947;42,20818
 316,25;14618,372;  146,223;34415,457;42,23073
 316,85;14573,411;  148,452;34577,725;41,89737
 317,44;14680,298;  178,455;34696,120;42,01282
 318,04;14629,479;  156,300;34691,771;41,90816
 318,63;14501,486;  148,835;34867,727;41,33960
 319,22;14584,141;  184,069;35016,168;41,34139
 319,82;14608,216;  173,838;34976,663;41,47473
 320,41;14470,279;  188,146;34860,446;41,19177
 321,01;14462,566;  191,144;35028,765;40,96555
 321,60;14372,324;  176,299;35146,306;40,59486
 322,20;14323,075;  155,606;35103,713;40,53859
 322,79;14335,752;  210,529;35170,511;40,40398
 323,39;14298,008;  169,374;35258,974;40,26445
 323,98;14251,044;  159,606;34983,952;40,46433
 324,58;14086,234;  164,454;34968,930;39,99997
 325,17;13948,572;  178,607;34806,918;39,76505
 325,76;13887,230;  190,606;34590,812;39,81553
 326,36;13594,904;  157,836;34290,160;39,36757
 326,95;13470,616;  191,914;33891,046;39,40369
 327,55;13177,509;  156,453;33609,990;38,92281
 328,14;13037,349;  168,374;33306,357;38,83451
 328,74;12812,002;  204,146;32801,533;38,67751
 329,33;12615,966;  185,067;32458,102;38,51791
 329,92;12266,945;  160,301;31882,668;38,16438
 330,52;12008,349;  172,451;31214,683;38,12837
 331,11;11762,724;  176,376;30849,970;37,77304
 331,71;11421,723;  169,607;30282,948;37,36588
 332,30;11231,307;  186,683;29783,956;37,31636
 332,89;10986,105;  225,837;29357,728;36,93639
 333,49;10704,400;  185,914;28709,171;36,87688
 334,08;10431,032;  176,299;28312,711;36,44648
 334,68;10261,847;  182,915;27909,086;36,35169
 335,27;10049,640;  184,528;27528,220;36,07820
 335,86; 9906,801;  223,838;27324,046;35,73022
 336,46; 9685,363;  190,759;27025,094;35,38230
 337,05; 9579,924;  172,607;26773,720;35,36437
 337,65; 9457,170;  161,915;26639,826;35,10570
 338,24; 9394,536;  224,298;26590,654;34,78007
 338,83; 9278,321;  208,068;26462,711;34,54723
 339,43; 9188,480;  177,069;26457,101;34,28995
 340,02; 9114,772;  178,531;26386,871;34,09694
 340,61; 9095,029;  173,837;26369,338;34,05620
 341,21; 9028,772;  203,607;26349,533;33,75350
 341,80; 8961,309;  179,915;26375,384;33,52257
 342,40; 8936,287;  171,682;26432,125;33,37569
 342,99; 8882,335;  182,067;26467,113;33,09969
 343,58; 8841,043;  175,990;26717,718;32,64690
 344,18; 8868,089;  190,836;26808,342;32,59980
 344,77; 8851,111;  162,992;27092,035;32,26301
 345,36; 8983,154;  157,453;27385,200;32,41437
 345,96; 8959,766;  203,606;27672,891;31,87619
 346,55; 8972,961;  164,143;27940,079;31,71385
 347,14; 9041,948;  155,297;28302,500;31,57206
 347,74; 9061,096;  140,142;28698,886;31,23721
 348,33; 9236,235;  175,526;29329,262;31,07906
 348,92; 9343,648;  185,218;29983,524;30,73473
 349,52; 9446,849;  147,526;30445,585;30,69280
 350,11; 9441,527;  173,454;30582,180;30,47833
 350,70; 9423,675;  173,452;30809,809;30,19361
 351,29; 9252,610;  148,764;30507,921;29,98715
 351,89; 9205,591;  174,685;30478,746;29,80098
 352,48; 9138,091;  155,299;30497,665;29,60478
 353,07; 9116,425;  182,066;30396,277;29,57005
 353,67; 8988,093;  191,756;30353,888;29,16351
 354,26; 8815,502;  170,990;30103,932;28,87959
 354,85; 8743,688;  185,067;29973,792;28,73108
 355,45; 8596,540;  155,684;29816,742;28,45770
 356,04; 8496,009;  174,759;29768,055;28,11870
 356,63; 8437,723;  201,145;29409,997;28,19891
 357,22; 8294,378;  175,917;29375,176;27,80365
 357,82; 8223,777;  193,224;29208,614;27,67687
 358,41; 8116,646;  201,760;29108,120;27,38112
 359,00; 7969,880;  158,300;28913,918;27,16540
 359,60; 7883,136;  180,221;28724,683;26,98567
 360,19; 7782,962;  176,605;28638,178;26,72501
 360,78; 7708,678;  190,222;28497,576;26,56008
 361,37; 7639,662;  174,761;28242,538;26,59598
 361,97; 7557,384;  186,530;28190,006;26,32121
 362,56; 7423,065;  169,531;27892,787;26,16408
 363,15; 7322,155;  213,453;27606,375;25,95087
 363,74; 7130,190;  174,685;27373,531;25,57279
 364,34; 7040,341;  195,992;26912,293;25,61863
 364,93; 6862,143;  163,069;26430,374;25,50347
 365,52; 6680,031;  149,376;26172,508;25,09558
 366,11; 6633,818;  171,146;25882,043;25,13593
 366,71; 6460,141;  163,377;25437,168;24,91421
 367,30; 6379,893;  170,607;25110,181;24,89732
 367,89; 6313,611;  198,990;24925,860;24,72865
 368,48; 6171,005;  198,224;24640,300;24,43647
 369,07; 6028,214;  179,760;24120,963;24,42840
 369,67; 5927,897;  203,454;23868,702;24,18924
 370,26; 5821,567;  171,452;23599,578;24,11680
 370,85; 5760,478;  179,530;23323,075;24,11449
 371,44; 5678,600;  176,145;23107,871;23,99494
 372,03; 5543,895;  152,223;22932,418;23,66824
 372,63; 5449,231;  152,684;22571,978;23,62495
 373,22; 5418,891;  166,376;22343,589;23,68429
 373,81; 5264,078;  148,376;22009,643;23,40076
 374,40; 5228,595;  165,913;21699,790;23,51031
 374,99; 5120,001;  169,761;21518,751;23,18724
 375,59; 5042,242;  162,528;21175,243;23,22267
 376,18; 5040,755;  193,761;21119,644;23,16267
 376,77; 4941,861;  186,299;20977,832;22,87259
 377,36; 4951,355;  195,838;20847,778;23,02697
 377,95; 4841,418;  181,146;20525,705;22,90672
 378,55; 4772,873;  157,913;20341,534;22,86488
 379,14; 4801,955;  185,299;20317,114;22,93214
 379,73; 4745,156;  175,684;20230,320;22,78511
 380,32; 4783,169;  185,991;20308,823;22,84558
 380,91; 4741,943;  175,685;20112,135;22,90407
 381,50; 4716,665;  189,915;20145,055;22,68463
 382,10; 4674,707;  166,530;19978,130;22,75524
 382,69; 4673,985;  153,376;19923,509;22,86585
 383,28; 4694,557;  190,761;19875,842;22,87923
 383,87; 4646,680;  170,377;19769,746;22,83902
 384,46; 4649,530;  162,070;19724,738;22,93890
 385,05; 4687,265;  193,223;19732,931;22,99954
 385,64; 4653,203;  178,069;19695,581;22,92881
 386,24; 4647,638;  149,609;19626,893;23,09372
 386,83; 4721,500;  192,455;19630,827;23,29951
 387,42; 4703,787;  188,761;19800,427;23,02214
 388,01; 4788,058;  187,379;19979,741;23,24472
 388,60; 4866,591;  175,378;20220,112;23,40372
 389,19; 4944,124;  156,457;20416,341;23,63126
 389,78; 4978,599;  165,765;20729,299;23,40471
 390,37; 5183,132;  222,994;21142,177;23,71096
 390,96; 5192,992;  180,763;21286,326;23,74838
 391,56; 5248,187;  176,227;21344,508;23,96019
 392,15; 5377,799;  160,072;21679,720;24,24634
 392,74; 5389,624;  151,460;21795,507;24,20141
 393,33; 5538,018;  166,227;22126,116;24,46183
 393,92; 5639,504;  173,461;22513,333;24,46766
 394,51; 5741,603;  149,304;22716,088;24,78111
 395,10; 5851,712;  192,848;22911,234;24,90874
 395,69; 5905,573;  176,924;23003,980;25,09587
 396,28; 5972,224;  185,464;23176,013;25,17017
 396,87; 6052,985;  192,620;23343,392;25,31391
 397,46; 6124,775;  181,314;23335,340;25,66923
 398,06; 6240,321;  189,701;23615,542;25,82883
 398,65; 6305,383;  177,244;23677,260;26,07717
 399,24; 6402,324;  188,014;23858,432;26,25349
 399,83; 6424,963;  164,329;23835,982;26,44781
 400,42; 6574,107;  201,796;23985,677;26,79256
 401,01; 6591,655;  182,573;24029,218;26,87624
 401,60; 6670,303;  177,275;24210,515;27,01687
 402,19; 6677,160;  196,513;24101,561;27,10995
 402,78; 6735,908;  200,602;24087,601;27,35926
 403,37; 6789,331;  187,228;23877,105;27,86888
 403,96; 6779,591;  182,241;23721,090;28,02749
 404,55; 6825,548;  167,487;23720,600;28,26829
 405,14; 6839,163;  167,808;23513,307;28,57662
 405,73; 6835,693;  183,285;23436,720;28,60828
 406,32; 6926,298;  190,910;23384,544;29,03981
 406,91; 6930,847;  180,307;23126,231;29,41934
 407,50; 6962,883;  178,159;22981,523;29,75317
 408,09; 6883,914;  155,241;22707,575;29,83582
 408,68; 6952,248;  181,013;22565,971;30,24904
 409,27; 6927,572;  175,086;22354,826;30,44439
 409,86; 6992,448;  170,231;22237,205;30,91596
 410,45; 7033,852;  200,684;22171,617;31,10094
 411,04; 7089,978;  197,445;22092,777;31,47946
 411,63; 7086,634;  175,204;21749,606;32,03533
 412,22; 7074,555;  201,425;21608,780;32,10639
 412,81; 7044,636;  192,883;21395,680;32,31532
 413,40; 6998,759;  204,187;21034,618;32,61849
 413,99; 6969,964;  234,803;20717,708;32,88186
 414,58; 6858,484;  160,726;20274,844;33,29879
 415,17; 6815,620;  175,114;20101,949;33,32444
 415,76; 6847,402;  169,195;19974,707;33,71893
 416,35; 6840,719;  159,116;19776,073;34,06034
 416,94; 6925,461;  199,502;19821,526;34,27760
 417,53; 7027,050;  172,960;20056,994;34,47032
 418,12; 7148,032;  166,036;20023,822;35,15999
 418,71; 7335,205;  190,494;20445,675;35,27350
 419,30; 7444,246;  177,189;20578,386;35,62074
 419,89; 7541,120;  176,573;20770,792;35,76026
 420,48; 7733,974;  195,110;21032,068;36,18025
 421,07; 7749,802;  185,340;21040,253;36,27185
 421,66; 7852,934;  165,876;21069,935;36,77304
 422,25; 7925,106;  172,718;21036,735;37,15674
 422,84; 7946,103;  208,487;21049,362;37,12712
 423,43; 7927,463;  171,489;20839,926;37,52569
 424,02; 7914,829;  206,026;20496,880;37,99152
 424,60; 7822,014;  165,714;20092,893;38,42139
 425,19; 7724,453;  185,793;19869,157;38,29965
 425,78; 7716,421;  196,485;19774,962;38,40920
 426,37; 7783,215;  189,715;19661,859;38,99674
 426,96; 7771,200;  189,638;19529,359;39,20202
 427,55; 7781,683;  179,020;19339,603;39,67867
 428,14; 7722,818;  167,788;19155,101;39,78988
 428,73; 7733,394;  186,021;19002,055;40,11139
 429,32; 7743,155;  191,715;18977,775;40,19704
 429,91; 7807,533;  212,482;18966,112;40,49910
 430,50; 7788,159;  195,711;18786,512;40,83981
 431,08; 7770,524;  200,864;18610,124;41,11876
 431,67; 7800,750;  233,863;18580,766;41,24340
 432,26; 7795,838;  230,939;18330,206;41,79672
 432,85; 7641,271;  244,016;18032,499;41,58452
 433,44; 7555,403;  259,014;17649,895;41,95526
 434,03; 7460,380;  264,704;17299,958;42,23991
 434,62; 7348,556;  220,476;16897,307;42,74242
 435,21; 7318,408;  235,708;16746,958;42,89621
 435,79; 7290,152;  230,782;16568,544;43,20892
 436,38; 7222,636;  224,164;16412,732;43,23095
 436,97; 7244,743;  220,472;16329,431;43,60475
 437,56; 7188,562;  235,930;16162,416;43,65452
 438,15; 7198,226;  218,700;16037,367;44,12209
 438,74; 7204,610;  235,776;16092,672;43,94828
 439,33; 7264,334;  219,777;16171,359;44,16212
 439,91; 7295,206;  187,314;16238,238;44,28338
 440,50; 7391,944;  236,006;16217,333;44,77687
 441,09; 7488,276;  220,312;16301,833;45,19451
 441,68; 7468,515;  214,310;16343,764;44,97490
 442,27; 7538,333;  196,464;16282,263;45,64193
 442,86; 7472,765;  183,537;16344,663;45,10346
 443,44; 7540,306;  185,307;16399,787;45,36068
 444,03; 7656,764;  234,768;16429,527;45,82962
 444,62; 7557,749;  186,844;16264,941;45,84439
 445,21; 7546,828;  202,230;16176,369;45,97805
 445,80; 7546,220;  225,535;15999,528;46,40984
 446,39; 7450,806;  250,920;15821,042;46,24168
 446,97; 7364,966;  183,225;15554,035;46,72324
 447,56; 7271,082;  181,761;15307,592;46,86897
 448,15; 7238,427;  185,994;15168,718;47,07043
 448,74; 7124,180;  195,686;14965,263;46,91058
 449,33; 7084,591;  191,608;14784,807;47,23421
 449,91; 7006,229;  191,298;14588,544;47,33496
 450,50; 6959,169;  181,375;14406,952;47,64512
 451,09; 6899,507;  191,837;14299,949;47,54477
 451,68; 6944,488;  209,682;14214,719;48,08846
 452,26; 6903,054;  197,604;14109,488;48,19944
 452,85; 6832,886;  182,989;14003,849;48,11493
 453,44; 6903,630;  201,832;14047,530;48,40346
 454,03; 6838,682;  183,680;13933,596;48,40031
 454,61; 6856,475;  175,370;13940,884;48,53509
 455,20; 6995,456;  205,139;14121,979;48,79209
 455,79; 7010,278;  204,679;14106,344;48,95528
 456,38; 7038,420;  204,752;14172,857;48,92337
 456,97; 7118,975;  183,445;14221,795;49,40417
 457,55; 7091,601;  187,213;14341,041;48,78107
 458,14; 7170,561;  207,599;14274,847;49,49769
 458,73; 7114,139;  197,751;14154,010;49,55761
 459,31; 7162,687;  215,519;14203,915;49,66379
 459,90; 7235,259;  226,750;14306,406;49,77756
 460,49; 7295,615;  273,366;14411,806;49,66778
 461,08; 7298,483;  191,133;14403,434;50,00844
 461,66; 7391,456;  192,365;14554,358;50,12599
 462,25; 7504,050;  188,517;14600,243;50,76098
 462,84; 7495,713;  218,133;14695,403;50,26901
 463,43; 7464,796;  161,130;14551,405;50,75418
 464,01; 7533,393;  195,821;14623,012;50,85933
 464,60; 7536,614;  229,977;14589,624;50,88313
 465,19; 7427,437;  165,359;14358,804;51,16501
 465,77; 7422,157;  190,281;14302,727;51,24467
 466,36; 7417,196;  206,669;14272,145;51,26401
 466,95; 7244,626;  182,899;13880,028;51,55626
 467,53; 7129,876;  179,819;13600,061;51,78787
 468,12; 6998,229;  212,434;13372,184;51,56477
 468,71; 6915,852;  196,898;13136,177;51,92681
 469,29; 6756,536;  176,972;12847,700;51,92727
 469,88; 6665,087;  179,894;12587,461;52,26804
 470,47; 6750,835;  239,969;12708,011;52,22043
 471,06; 6769,850;  196,585;12693,693;52,59829
 471,64; 6804,575;  203,278;12803,602;52,38990
 472,23; 6792,116;  165,274;12796,077;52,46573
 472,81; 6885,276;  172,430;12890,420;52,78229
 473,40; 6961,393;  179,197;13041,307;52,73004
 473,99; 7086,578;  265,197;13223,941;52,63921
 474,57; 7107,224;  172,889;13406,317;52,40014
 475,16; 7222,613;  187,660;13512,513;52,79573
 475,75; 7321,235;  200,888;13632,333;53,01251
 476,33; 7332,615;  219,733;13698,089;52,77262
 476,92; 7398,715;  211,812;13770,265;53,00681
 477,51; 7427,432;  201,272;13807,479;53,10929
 478,09; 7447,878;  193,810;13841,364;53,15288
 478,68; 7466,000;  204,964;13846,695;53,22665
 479,27; 7460,004;  216,888;13833,967;53,19141
 479,85; 7442,231;  204,195;13767,446;53,36505
 480,44; 7525,197;  163,425;13890,035;53,63140
 481,02; 8255,009;  199,193;15348,965;53,17450
 481,61; 9324,303;  219,270;17381,884;53,05155
 482,20;10007,855;  201,346;18466,821;53,68877
 482,78;10455,660;  225,040;19260,365;53,74544
 483,37;10754,433;  221,575;19787,966;53,83138
 483,95;10901,001;  238,421;20101,597;53,68014
 484,54;11058,381;  253,270;20269,915;53,98063
 485,13;10999,857;  215,035;20216,120;53,92119
 485,71;10811,659;  190,959;20019,097;53,56378
 486,30;10779,797;  226,420;19680,289;54,24822
 486,88;10530,288;  268,420;19317,698;53,87012
 487,47;10192,856;  232,958;18612,877;54,18902
 488,05; 9707,531;  227,419;17775,668;54,02312
 488,64; 9093,403;  227,263;16521,135;54,41395
 489,23; 8086,883;  242,418;14695,116;54,27682
 489,81; 6997,713;  230,033;12503,314;55,14157
 490,40; 6608,081;  203,648;11907,484;54,72080
 490,98; 6497,848;  173,955;11627,382;55,21398
 491,57; 6408,683;  215,187;11548,864;54,64683
 492,15; 6408,201;  189,647;11515,648;54,90511
 492,74; 6390,915;  199,957;11363,542;55,45672
 493,32; 6336,864;  218,340;11287,171;55,27705
 493,91; 6260,675;  195,570;11139,766;55,41846
 494,50; 6251,759;  207,721;11189,107;55,03894
 495,08; 6189,236;  183,798;11094,897;55,03972
 495,67; 6206,215;  208,339;11096,644;55,08549
 496,25; 6130,564;  170,184;10988,928;55,09308
 496,84; 6120,323;  167,724;10969,404;55,10808
 497,42; 6082,593;  162,107;10888,278;55,19664
 498,01; 6054,968;  198,262;10888,488;54,78561
 498,59; 6018,284;  171,183;10805,786;54,98185
 499,18; 6013,029;  163,647;10772,169;55,13852
 499,76; 5997,102;  200,338;10714,168;55,13466
 500,35; 5855,957;  190,951;10529,303;54,79603
 500,93; 5849,885;  178,260;10438,289;55,27884
 501,52; 5820,438;  177,337;10374,623;55,33925
 502,10; 5803,738;  191,489;10378,023;55,09478
 502,69; 5692,504;  182,180;10226,592;54,85960
 503,27; 5557,159;  170,567;10017,943;54,70078
 503,86; 5565,383;  175,719; 9986,836;54,93425
 504,44; 5457,164;  162,410; 9862,597;54,58404
 505,03; 5345,641;  149,257; 9629,414;54,81327
 505,61; 5313,627;  163,718; 9546,523;54,88666
 506,19; 5228,964;  182,257; 9366,059;54,95227
 506,78; 5113,712;  152,716; 9184,790;54,92643
 507,36; 5026,472;  167,795; 9072,185;54,56497
 507,95; 4982,232;  168,408; 8850,302;55,44671
 508,53; 4878,466;  164,332; 8761,887;54,83110
 509,12; 4816,802;  177,870; 8629,949;54,88511
 509,70; 4752,185;  180,715; 8488,348;55,02735
 510,29; 4669,552;  188,407; 8328,108;55,05294
 510,87; 4549,820;  164,409; 8144,099;54,95716
 511,46; 4482,742;  159,485; 7966,028;55,37991
 512,04; 4417,292;  180,638; 7824,201;55,42774
 512,62; 4314,572;  172,716; 7724,681;54,84475
 513,21; 4205,797;  158,868; 7536,098;54,85703
 513,79; 4137,249;  166,942; 7407,618;54,83338
 514,38; 4052,529;  144,405; 7251,704;54,98748
 514,96; 4004,299;  194,866; 7217,206;54,24735
 515,54; 3921,697;  155,481; 7062,844;54,52466
 516,13; 3878,589;  179,096; 6917,948;54,89797
 516,71; 3783,816;  174,403; 6831,734;54,21711
 517,30; 3750,704;  155,325; 6691,551;55,00696
 517,88; 3687,797;  185,787; 6621,965;54,41133
 518,46; 3616,103;  153,401; 6497,999;54,57717
 519,05; 3581,777;  160,478; 6477,664;54,15860
 519,63; 3564,178;  181,324; 6415,620;54,26201
 520,22; 3543,249;  182,092; 6337,987;54,60063
 520,80; 3504,233;  174,476; 6226,822;55,01598
 521,38; 3469,746;  195,631; 6241,450;54,15502
 521,97; 3448,677;  160,552; 6210,102;54,35321
 522,55; 3433,554;  182,475; 6213,881;53,90250
 523,13; 3428,998;  165,167; 6207,817;54,01323
 523,72; 3429,426;  162,709; 6145,874;54,59847
 524,30; 3499,718;  183,705; 6308,377;54,14189
 524,89; 3480,968;  154,244; 6317,937;53,97291
 525,47; 3534,194;  171,550; 6418,422;53,82924
 526,05; 3564,101;  147,089; 6489,573;53,87498
 526,64; 3639,222;  186,934; 6620,203;53,66304
 527,22; 3731,040;  175,397; 6752,643;54,05976
 527,80; 3798,038;  215,242; 6874,935;53,79821
 528,39; 3804,436;  171,472; 6963,659;53,48739
 528,97; 3873,806;  179,626; 7137,153;53,09616
 529,55; 3997,336;  181,090; 7292,452;53,66407
 530,14; 4083,403;  202,626; 7473,664;53,37309
 530,72; 4138,098;  171,780; 7625,729;53,21096
 531,30; 4172,464;  148,856; 7738,499;53,01446
 531,89; 4249,126;  177,010; 7827,403;53,22754
 532,47; 4300,586;  206,625; 7946,187;52,89654
 533,05; 4297,823;  203,319; 7993,435;52,56024
 533,63; 4350,385;  191,240; 8016,483;53,15036
 534,22; 4336,816;  166,163; 8045,473;52,93170
 534,80; 4393,811;  196,931; 8129,191;52,90901
 535,38; 4478,571;  268,010; 8276,247;52,57788
 535,97; 4394,909;  173,240; 8124,860;53,09193
 536,55; 4420,965;  215,546; 8278,382;52,15806
 537,13; 4408,126;  207,087; 8215,154;52,46009
 537,71; 4428,142;  246,164; 8231,165;52,37292
 538,30; 4472,060;  248,086; 8351,459;52,12613
 538,88; 4461,746;  273,084; 8422,315;51,39948
 539,46; 4559,227;  308,700; 8568,663;51,45939
 540,05; 4650,701;  308,623; 8699,627;51,74683
 540,63; 4742,040;  343,546; 8864,809;51,61786
 541,21; 4801,437;  351,007; 8970,782;51,63047
 541,79; 4851,329;  381,007; 9119,533;51,15649
 542,38; 4974,564;  400,161; 9275,331;51,54158
 542,96; 5009,864;  394,236; 9398,667;51,25952
 543,54; 5122,699;  420,776; 9606,688;51,18624
 544,12; 5185,575;  391,622; 9719,703;51,39270
 544,70; 5187,510;  380,082; 9848,243;50,77468
 545,29; 5309,486;  399,008;10022,801;51,02436
 545,87; 5308,868;  374,776;10086,994;50,80294
 546,45; 5275,118;  348,854;10109,053;50,47299
 547,03; 5363,777;  339,084;10206,710;50,92099
 547,62; 5385,114;  315,007;10346,147;50,54368
 548,20; 5456,896;  330,006;10512,803;50,34854
 548,78; 5486,887;  295,542;10627,019;50,24785
 549,36; 5586,534;  275,542;10914,598;49,91977
 549,94; 5637,928;  264,314;11046,201;49,83927
 550,53; 5731,813;  269,081;11255,266;49,72365
 551,11; 5815,424;  234,849;11460,197;49,71405
 551,69; 5920,488;  240,004;11797,137;49,15133
 552,27; 6062,691;  212,543;12027,242;49,51585
 552,85; 6255,132;  222,695;12402,005;49,53020
 553,44; 6365,950;  225,388;12707,128;49,19636
 554,02; 6530,210;  232,926;13119,768;48,86600
 554,60; 6665,547;  193,772;13422,753;48,92119
 555,18; 6854,580;  223,542;13805,579;48,82212
 555,76; 6997,379;  206,619;14182,816;48,58804
 556,34; 7188,343;  211,002;14557,042;48,63601
 556,93; 7359,811;  205,311;14950,136;48,52211
 557,51; 7521,666;  192,156;15311,022;48,47923
 558,09; 7675,303;  212,850;15734,992;48,07618
 558,67; 7812,941;  210,693;16082,476;47,89788
 559,25; 7984,757;  223,848;16371,596;48,06187
 559,83; 8092,031;  205,308;16683,960;47,86024
 560,41; 8255,252;  205,771;17055,006;47,77357
 561,00; 8411,740;  208,539;17343,264;47,87472
 561,58; 8474,868;  198,464;17668,680;47,37436
 562,16; 8608,009;  185,157;18011,648;47,24907
 562,74; 8747,333;  167,234;18288,528;47,34816
 563,32; 8967,739;  174,923;18759,153;47,31332
 563,90; 9114,879;  207,309;19120,524;47,09707
 564,48; 9224,315;  204,772;19511,356;46,71745
 565,06; 9543,910;  188,232;20160,583;46,84315
 565,65; 9765,104;  204,153;20836,746;46,33906
 566,23;10143,633;  250,770;21605,331;46,32670
 566,81;10427,850;  195,001;22249,173;46,39870
 567,39;10855,230;  205,077;23136,467;46,44356
 567,97;11068,465;  222,924;23837,757;45,92681
 568,55;11437,308;  234,770;24603,461;45,97103
 569,13;11729,340;  195,539;25332,542;45,88376
 569,71;12100,332;  195,311;26288,841;45,62442
 570,29;12565,273;  230,004;27237,665;45,67322
 570,87;12888,302;  228,157;28016,084;45,55988
 571,45;13099,587;  222,924;28595,630;45,38398
 572,03;13225,690;  180,307;29118,291;45,08048
 572,61;13476,077;  171,539;29768,913;44,95175
 573,20;13800,174;  212,155;30457,944;44,92532
 573,78;13988,138;  194,693;31102,278;44,62803
 574,36;14242,417;  197,001;31598,733;44,72816
 574,94;14406,459;  251,538;31941,039;44,66754
 575,52;14465,007;  186,690;32172,417;44,63965
 576,10;14714,978;  249,537;32753,885;44,50310
 576,68;14853,721;  222,307;33359,301;44,15432
 577,26;15144,405;  242,920;34034,218;44,09859
 577,84;15326,462;  240,847;34439,972;44,11112
 578,42;15458,211;  277,153;34750,082;44,03762
 579,00;15389,923;  227,846;34942,556;43,67623
 579,58;15487,459;  257,538;35231,125;43,54692
 580,16;15410,010;  239,076;35261,609;43,31764
 580,74;15459,918;  233,229;35397,512;43,30158
 581,32;15444,950;  234,076;35482,642;43,15317
 581,90;15369,010;  240,307;35369,754;43,06559
 582,48;15372,795;  242,230;35585,042;42,81087
 583,06;15414,797;  244,307;35773,307;42,69889
 583,64;15368,197;  240,923;35789,173;42,55420
 584,22;15208,160;  251,459;35758,020;42,12377
 584,80;15079,149;  261,537;35487,370;42,06462
 585,38;14851,128;  260,617;35102,456;41,87641
 585,96;14869,953;  224,154;35305,083;41,74861
 586,54;14840,207;  251,921;35185,484;41,76009
 587,12;14758,286;  221,768;35412,288;41,30805
 587,70;14882,860;  257,846;35489,986;41,51043
 588,28;14811,378;  242,306;35598,019;41,20712
 588,86;14891,408;  243,460;35696,487;41,31650
 589,44;14784,156;  219,843;35803,711;40,92954
 590,02;14897,404;  234,843;36051,052;40,93834
 590,59;14896,899;  220,075;36245,321;40,74039
 591,17;14899,750;  223,764;36479,320;40,47928
 591,75;14991,969;  213,227;36521,830;40,70314
 592,33;14985,617;  238,535;36839,517;40,29149
 592,91;14992,260;  193,918;37044,756;40,15741
 593,49;15118,641;  206,764;37432,306;40,05819
 594,07;15162,103;  212,841;37568,143;40,01912
 594,65;15145,160;  224,459;37618,762;39,90100
 595,23;15243,681;  217,612;38120,562;39,64353
 595,81;15118,003;  221,612;38259,539;39,16194
 596,39;15144,418;  209,996;38308,269;39,19973
 596,97;15212,690;  206,149;38540,276;39,14669
 597,55;15092,020;  211,074;38368,431;38,99889
 598,12;15012,425;  184,302;38453,822;38,74656
 598,70;14968,766;  195,149;38552,494;38,51575
 599,28;14992,197;  214,995;38744,330;38,35312
 599,86;15001,536;  204,841;38706,937;38,43088
 600,44;14913,919;  172,610;38933,337;38,03156
 601,02;14896,082;  227,608;38927,712;37,90293
 601,60;14760,354;  209,688;38862,685;37,64434
 602,18;14763,856;  178,610;38870,938;37,69545
 602,75;14719,480;  189,920;39007,867;37,43001
 603,33;14637,920;  201,687;38987,272;37,22061
 603,91;14509,438;  188,840;39040,469;36,85971
 604,49;14547,827;  208,226;39087,397;36,88248
 605,07;14409,985;  215,996;39057,561;36,54330
 605,65;14410,472;  225,533;39172,729;36,42095
 606,23;14462,408;  264,306;39339,727;36,33512
 606,80;14334,372;  285,074;39292,079;36,01737
 607,38;14270,608;  300,686;39398,846;35,73038
 607,96;14278,296;  337,612;39460,608;35,63297
 608,54;14300,595;  389,225;39519,710;35,55123
 609,12;14207,265;  377,689;39488,530;35,35995
 609,70;14179,105;  406,226;39536,322;35,19766
 610,27;14131,865;  399,458;39596,436;35,03435
 610,85;14118,721;  415,995;39673,996;34,90429
 611,43;14017,828;  418,226;39607,677;34,70220
 612,01;13836,062;  389,150;39405,678;34,46466
 612,59;13841,936;  400,072;39457,428;34,41570
 613,16;13711,498;  365,767;39440,885;34,15404
 613,74;13628,812;  354,149;39277,032;34,10504
 614,32;13516,103;  334,533;39289,863;33,83765
 614,90;13388,953;  313,842;39167,606;33,65211
 615,48;13245,728;  264,151;38815,633;33,67335
 616,05;13133,391;  257,844;38842,752;33,36939
 616,63;13011,593;  267,460;38596,795;33,24903
 617,21;12905,465;  266,458;38494,004;33,06256
 617,79;12864,402;  245,073;38478,384;33,00611
 618,36;12691,339;  268,996;38341,157;32,62842
 618,94;12529,220;  209,920;38066,448;32,54207
 619,52;12382,608;  227,536;37750,342;32,39382
 620,10;12237,803;  235,304;37721,155;32,01874
 620,67;12171,716;  234,229;37593,632;31,95310
 621,25;12100,723;  252,303;37527,175;31,78661
 621,83;12047,543;  224,689;37484,189;31,73111
 622,41;11985,159;  272,305;37410,324;31,53871
 622,98;11844,747;  257,460;37138,325;31,41815
 623,56;11729,778;  249,537;37196,221;31,07245
 624,14;11643,737;  239,226;37025,315;31,00224
 624,72;11509,405;  232,920;36893,535;30,75913
 625,29;11425,901;  218,691;36946,057;30,51460
 625,87;11450,587;  265,996;36963,556;30,47775
 626,45;11237,164;  211,153;36814,243;30,12317
 627,02;11199,402;  228,458;36763,334;30,02869
 627,60;11120,842;  216,072;36601,251;29,97036
 628,18;11014,265;  203,535;36778,453;29,55777
 628,76;11001,193;  204,075;36703,843;29,58133
 629,33;10923,467;  236,844;36620,875;29,37174
 629,91;10834,264;  220,766;36669,155;29,11925
 630,49;10843,699;  236,152;36885,051;28,94370
 631,06;10841,423;  224,460;36968,332;28,89451
 631,64;10740,840;  236,691;36931,222;28,62593
 632,22;10627,966;  191,076;36867,998;28,45629
 632,79;10684,781;  222,922;37220,911;28,27683
 633,37;10571,385;  206,150;37185,197;28,03002
 633,95;10544,287;  217,537;37305,676;27,84381
 634,52;10530,482;  204,151;37411,449;27,75351
 635,10;10410,988;  202,997;37377,906;27,45936
 635,68;10467,596;  217,153;37630,353;27,39793
 636,25;10334,799;  192,692;37673,295;27,05962
 636,83;10310,039;  186,767;37842,843;26,88350
 637,41;10271,905;  194,538;37809,837;26,79061
 637,98;10335,644;  220,230;38059,492;26,73259
 638,56;10241,016;  217,539;38136,337;26,43406
 639,13;10200,686;  203,768;38190,123;26,31713
 639,71;10254,961;  245,152;38394,802;26,23827
 640,29;10088,510;  171,152;38119,221;26,13403
 640,86;10113,600;  196,844;38359,500;25,98550
 641,44;10022,997;  195,613;38410,933;25,71582
 642,02; 9939,471;  222,152;38363,981;25,47680
 642,59; 9957,022;  195,075;38474,337;25,50192
 643,17; 9884,957;  195,921;38457,694;25,32302
 643,74; 9824,200;  186,228;38548,281;25,12371
 644,32; 9820,290;  217,151;38467,021;25,10633
 644,89; 9705,917;  207,382;38420,839;24,85652
 645,47; 9699,622;  237,074;38521,349;24,71654
 646,05; 9585,481;  206,536;38420,705;24,54311
 646,62; 9555,570;  201,844;38402,907;24,48551
 647,20; 9538,813;  207,690;38607,956;24,29963
 647,77; 9402,595;  185,767;38427,004;24,10180
 648,35; 9347,300;  180,074;38225,745;24,09532
 648,92; 9304,158;  217,305;38309,794;23,85471
 649,50; 9199,863;  175,459;38234,996;23,71128
 650,08; 9142,260;  171,382;38187,660;23,59747
 650,65; 9130,349;  185,228;38396,554;23,40961
 651,23; 9253,362;  165,689;39107,910;23,33630
 651,80; 9420,989;  179,535;40033,113;23,18852
 652,38; 9486,002;  194,766;40427,469;23,09374
 652,95; 9560,707;  163,458;40771,671;23,14125
 653,53; 9563,873;  190,766;41022,181;22,95563
 654,10; 9606,116;  222,151;41124,076;22,94260
 654,68; 9481,051;  190,689;41047,509;22,73883
 655,25; 9461,141;  178,535;41136,634;22,66366
 655,83; 9428,384;  178,612;41312,836;22,48680
 656,40; 9363,396;  214,689;41245,731;22,29704
 656,98; 9278,640;  187,920;41228,395;22,15062
 657,55; 9283,652;  198,227;41059,136;22,23500
 658,13; 9115,895;  190,843;40647,338;22,06086
 658,70; 8999,754;  203,842;40417,156;21,87313
 659,28; 8739,074;  180,150;39642,127;21,68904
 659,85; 8529,625;  196,612;38796,945;21,58793
 660,43; 8458,714;  213,073;38870,763;21,32989
 661,00; 8451,419;  191,304;38975,734;21,29750
 661,58; 8430,047;  183,765;39279,783;21,09238
 662,15; 8469,597;  174,458;39463,600;21,11306
 662,73; 8515,225;  233,611;39757,803;20,95328
 663,30; 8504,238;  186,534;40068,005;20,85606
 663,88; 8515,019;  197,765;40163,822;20,81079
 664,45; 8468,801;  183,227;40366,179;20,61963
 665,03; 8536,736;  179,842;40832,381;20,55688
 665,60; 8641,134;  262,534;41160,429;20,48663
 666,17; 8550,300;  190,765;41403,401;20,28391
 666,75; 8564,235;  188,457;41655,988;20,19840
 667,32; 8659,017;  215,072;41977,806;20,21885
 667,90; 8645,875;  188,072;42194,085;20,13474
 668,47; 8666,657;  208,149;42570,672;19,96696
 669,05; 8683,900;  177,842;42819,951;19,94756
 669,62; 8640,220;  163,995;42916,692;19,82618
 670,19; 8659,617;  172,688;43051,971;19,79261
 670,77; 8585,861;  197,226;43265,865;19,47736
 671,34; 8522,719;  176,072;43150,683;19,42227
 671,92; 8595,732;  169,918;43589,347;19,40563
 672,49; 8535,513;  196,072;43523,934;19,24729
 673,06; 8543,141;  154,918;43520,828;19,34290
 673,64; 8547,538;  172,995;43528,338;19,31606
 674,21; 8458,935;  161,764;43487,695;19,15059
 674,79; 8470,101;  193,995;43788,589;18,98425
 675,36; 8422,806;  198,149;43863,792;18,83553
 675,93; 8385,280;  167,995;43710,686;18,87179
 676,51; 8384,446;  182,225;43909,581;18,75764
 677,08; 8366,536;  188,687;43958,937;18,68358
 677,65; 8355,548;  187,918;44171,370;18,56978
 678,23; 8319,407;  193,379;44278,957;18,43239
 678,80; 8325,188;  169,071;44424,159;18,42978
 679,38; 8296,662;  175,379;44556,515;18,29895
 679,95; 8289,290;  186,841;44784,871;18,16773
 680,52; 8262,610;  175,917;45115,997;17,99439
 681,10; 8374,469;  184,917;45545,814;18,05421
 681,67; 8339,943;  197,533;45819,248;17,84766
 682,24; 8317,340;  163,610;45886,604;17,83289
 682,82; 8382,814;  175,456;46435,268;17,74187
 683,39; 8470,826;  214,148;46738,778;17,74690
 683,96; 8434,069;  178,071;47100,980;17,59481
 684,54; 8433,466;  163,686;47315,721;17,53854
 685,11; 8495,402;  216,994;47796,077;17,39926
 685,68; 8496,568;  183,609;48151,202;17,33036
 686,25; 8466,965;  174,763;48245,712;17,24992
 686,83; 8452,054;  177,994;48409,837;17,15477
 687,40; 8506,759;  164,301;48766,578;17,16475
 687,97; 8563,156;  219,763;49137,011;17,05614
 688,55; 8470,322;  163,455;49114,829;16,96963
 689,12; 8520,873;  146,378;49392,031;17,00555
 689,69; 8511,424;  160,686;49510,311;16,92158
 690,26; 8474,052;  172,070;49682,590;16,76812
 690,84; 8483,295;  175,763;49831,100;16,73039
 691,41; 8549,846;  187,301;49880,764;16,82826
 691,98; 8505,166;  189,147;50233,427;16,61732
 692,56; 8541,717;  174,686;50284,168;16,69750
 693,13; 8597,499;  221,916;50345,447;16,70988
 693,70; 8608,280;  192,609;50475,650;16,73660
 694,27; 8538,293;  169,455;50631,467;16,58443
 694,84; 8535,382;  158,916;50728,747;16,56416
 695,42; 8597,087;  216,993;50812,641;16,56287
 695,99; 8554,176;  185,531;51125,920;16,42831
 696,56; 8517,804;  176,762;50773,200;16,48543
 697,13; 8606,893;  182,378;51275,863;16,48843
 697,71; 8531,829;  161,454;51270,989;16,37732
 698,28; 8547,380;  180,916;51717,114;16,23415
 698,85; 8512,315;  145,531;51689,163;16,23243
 699,42; 8548,789;  145,454;51791,519;16,27101
 699,99; 8566,109;  188,070;51950,336;16,18561
 700,57; 8538,506;  182,223;52047,000;16,11167
 701,14; 8525,595;  172,377;52172,203;16,06394
 701,71; 8521,685;  178,377;52392,328;15,97908
 702,28; 8542,236;  171,531;52471,223;16,00527
 702,85; 8492,710;  180,300;52403,502;15,91708
 703,43; 8536,568;  181,531;52774,166;15,88633
 704,00; 8614,504;  195,377;52887,214;15,97805
 704,57; 8594,978;  175,992;52949,724;15,95298
 705,14; 8629,913;  199,531;53182,080;15,91162
 705,71; 8586,464;  203,838;53139,513;15,83549
 706,28; 8547,092;  181,300;53165,946;15,78909
 706,86; 8633,720;  208,300;53405,610;15,83806
 707,43; 8569,424;  226,069;53336,813;15,70936
 708,00; 8539,206;  204,223;53266,322;15,70798
 708,57; 8483,603;  174,069;53150,063;15,68547
 709,14; 8571,154;  200,761;53341,573;15,75135
 709,71; 8532,012;  178,915;53489,083;15,66886
 710,28; 8573,794;  180,530;53723,670;15,67570
 710,86; 8564,114;  200,761;53711,411;15,62932
 711,43; 8586,204;  210,376;53873,382;15,60820
 712,00; 8555,062;  186,761;53907,046;15,57754
 712,57; 8614,459;  201,453;54009,095;15,63534
 713,14; 8602,472;  179,145;54185,989;15,59678
 713,71; 8575,484;  187,222;54008,807;15,58531
 714,28; 8562,343;  194,761;54082,702;15,52774
 714,85; 8538,893;  178,991;53894,596;15,56327
 715,42; 8535,290;  184,376;54027,183;15,50981
 716,00; 8621,149;  250,530;54201,078;15,51536
 716,57; 8583,546;  193,068;54324,126;15,50030
 717,14; 8525,635;  177,376;54273,252;15,43234
 717,71; 8535,725;  172,760;54275,531;15,45755
 718,28; 8537,814;  216,145;54345,887;15,37356
 718,85; 8564,673;  167,145;54372,089;15,49218
 719,42; 8529,531;  204,299;54609,215;15,30235
 719,99; 8521,697;  174,529;54345,725;15,40887
 720,56; 8538,941;  191,991;54672,158;15,32108
 721,13; 8536,953;  176,529;54740,206;15,32232
 721,70; 8500,427;  170,068;54607,101;15,30274
 722,27; 8563,901;  196,837;54661,380;15,36241
 722,84; 8665,375;  237,991;54881,121;15,42259
 723,41; 8578,849;  167,683;54741,631;15,41242
 723,98; 8660,938;  182,837;54994,064;15,46782
 724,55; 8683,489;  214,990;55060,805;15,44056
 725,12; 8631,425;  154,221;55026,776;15,44890
 725,69; 8645,283;  180,298;55180,286;15,39089
 726,27; 8735,680;  187,375;55261,719;15,52139
 726,84; 8777,539;  198,836;55627,383;15,47705
 727,41; 8749,705;  208,606;55544,816;15,43492
 727,98; 8785,025;  207,452;55875,941;15,40831
 728,55; 8841,191;  216,836;55755,144;15,52866
 729,12; 8849,281;  167,605;55813,961;15,60152
 729,69; 8876,447;  210,221;55962,779;15,54409
 730,26; 8929,075;  198,682;56213,443;15,58588
 730,82; 8907,933;  184,913;56095,030;15,60186
 731,39; 8852,792;  194,374;56137,617;15,47715
 731,96; 8947,804;  169,990;56522,127;15,57672
 732,53; 9027,971;  190,067;56737,329;15,62923
 733,10; 9098,137;  203,451;56801,224;15,71561
 733,67; 9121,995;  205,605;57072,887;15,67930
 734,24; 9058,623;  182,605;56736,474;15,69480
 734,81; 9134,943;  200,066;56852,754;15,77132
 735,38; 9097,879;  191,759;56642,571;15,77678
 735,95; 9056,430;  189,143;56516,774;15,74234
 736,52; 9100,673;  206,759;56567,668;15,78029
 737,09; 9095,993;  214,066;56263,563;15,84658
 737,66; 9232,852;  226,989;56505,457;16,00232
 738,23; 9143,787;  181,758;56571,890;15,89290
 738,80; 9282,030;  234,066;56727,016;16,01609
 739,37; 9326,812;  220,451;57013,449;16,03430
 739,94; 9353,824;  191,220;57087,190;16,10414
 740,51; 9486,375;  288,989;57217,315;16,15608
 741,07; 9371,388;  188,758;57010,210;16,16050
 741,64; 9446,169;  210,681;57304,643;16,17595
 742,21; 9524,566;  198,297;57378,922;16,31019
 742,78; 9454,502;  164,296;57089,278;16,32008
 743,35; 9477,668;  185,450;57470,019;16,22115
 743,92; 9574,680;  221,066;57462,221;16,34072
 744,49; 9569,462;  212,681;57394,193;16,36330
 745,06; 9553,013;  186,066;57407,318;16,36970
 745,63; 9603,025;  177,065;57428,136;16,46425
 746,19; 9575,653;  182,835;57418,646;16,41074
 746,76; 9614,819;  194,527;57385,156;16,47174
 747,33; 9641,986;  186,911;57375,512;16,53314
 747,90; 9726,229;  204,142;57591,022;16,59279
 748,47; 9725,164;  197,758;57503,916;16,62545
 749,04; 9750,715;  204,219;57567,426;16,64219
 749,61; 9789,035;  221,065;57412,859;16,72962
 750,17; 9804,355;  219,527;57580,831;16,70957
 750,74; 9835,906;  207,603;57433,418;16,82510
 751,31; 9832,457;  187,680;57384,928;16,86231
 751,88; 9857,854;  175,757;57254,515;16,96270
 752,45; 9872,944;  188,526;57389,794;16,93042
 753,02; 9920,571;  213,680;57212,150;17,03009
 753,58; 9951,199;  180,449;57085,352;17,17031
 754,15; 9959,058;  184,834;57280,478;17,11904
 754,72; 9936,839;  183,295;57070,449;17,14542
 755,29; 9880,159;  181,834;56891,421;17,10174
 755,86; 9980,787;  199,065;57059,239;17,20312
 756,42;10024,107;  211,065;56937,902;17,29877
 756,99; 9971,043;  182,680;56933,489;17,24797
 757,56;10029,055;  193,372;56864,153;17,35583
 758,13; 9999,683;  162,141;56730,279;17,39061
 758,70;10134,542;  184,910;56782,635;17,57956
 759,26;10141,477;  190,295;56940,606;17,53503
 759,83;10149,182;  201,064;57008,116;17,51212
 760,40;10199,348;  190,372;56726,626;17,70364
 760,97;10178,899;  177,218;56920,059;17,62633
 761,53;10172,911;  164,526;56539,339;17,75329
 762,10;10195,232;  164,756;56492,925;17,80721
 762,67;10250,936;  203,295;56444,128;17,86539
 763,24;10197,487;  157,525;55971,945;17,98811
 763,80;10328,115;  185,833;56198,609;18,10709
 764,37;10296,589;  179,448;56055,427;18,10642
 764,94;10224,986;  168,602;55661,322;18,12199
 765,50;10333,537;  165,371;55636,601;18,33052
 766,07;10371,165;  203,141;55684,341;18,32697
 766,64;10302,946;  167,371;55326,159;18,37527
 767,21;10338,266;  173,756;55232,054;18,46136
 767,77;10357,817;  190,602;55148,564;18,49999
 768,34;10404,214;  196,525;55235,689;18,54623
 768,91;10430,611;  196,371;54968,815;18,68502
 769,47;10455,547;  188,833;55026,940;18,72186
 770,04;10481,790;  191,833;54845,911;18,82743
 770,61;10432,572;  181,217;54715,498;18,79800
 771,18;10442,892;  170,832;54589,008;18,87616
 771,74;10527,596;  190,294;54655,364;18,97969
 772,31;10505,070;  176,140;54451,028;19,03077
 772,88;10483,544;  169,448;54240,846;19,07496
 773,44;10478,249;  166,448;54021,971;19,14716
 774,01;10560,954;  193,909;54134,943;19,21922
 774,58;10514,120;  177,140;53742,914;19,29773
 775,14;10598,979;  172,217;53925,271;19,39752
 775,71;10576,376;  174,678;53789,319;19,40085
 776,27;10668,619;  218,293;53678,829;19,54774
 776,84;10756,247;  245,063;53766,262;19,63929
 777,41;10711,567;  190,447;53549,849;19,71746
 777,97;10708,041;  181,986;53314,897;19,81080
 778,54;10741,438;  194,601;53366,869;19,83522
 779,11;10762,450;  212,139;53356,456;19,85219
 779,67;10812,847;  169,601;53295,504;20,03401
 780,24;10833,629;  193,909;53023,937;20,13953
 780,80;10870,795;  214,370;53013,678;20,18289
 781,37;10940,269;  205,216;52987,188;20,33848
 781,94;10887,128;  191,755;52730,160;20,35725
 782,50;10975,986;  198,216;52704,439;20,52665
 783,07;11009,075;  213,139;52829,641;20,51816
 783,63;11023,780;  181,985;52499,151;20,72321
 784,20;11052,946;  207,985;52386,507;20,78434
 784,77;11031,882;  194,600;52324,094;20,78916
 785,33;11046,587;  168,447;52102,527;20,94605
 785,90;11173,907;  197,985;52037,730;21,17279
 786,46;11151,381;  214,677;51925,317;21,14981
 787,03;11172,778;  183,831;51839,903;21,27329
 787,59;11231,790;  198,369;51767,260;21,39550
 788,16;11263,495;  197,369;51654,000;21,50573
 788,73;11303,584;  200,985;51537,049;21,62729
 789,29;11281,366;  190,062;51084,559;21,79274
 789,86;11271,994;  209,138;50995,453;21,78314
 790,42;11343,083;  204,446;50920,810;21,96261
 790,99;11270,634;  207,369;50563,320;21,97012
 791,55;11358,262;  191,369;50593,906;22,15542
 792,12;11373,659;  216,984;50541,878;22,16930
 792,68;11358,517;  202,830;50166,311;22,32768
 793,25;11364,914;  212,984;49944,744;22,42416
 793,81;11421,157;  253,138;49621,331;22,62189
 794,38;11304,554;  168,907;49381,379;22,62769
 794,94;11401,567;  196,446;49312,505;22,81356
 795,51;11374,810;  214,369;48964,938;22,89295
 796,07;11345,669;  203,599;48756,525;22,94830
 796,64;11367,296;  218,984;48868,958;22,91535
 797,20;11361,078;  209,445;48385,929;23,14746
 797,77;11287,475;  184,138;47988,362;23,22669
 798,33;11331,564;  199,368;47845,103;23,36452
 798,90;11378,962;  223,291;47800,613;23,44745
 799,46;11268,051;  208,907;47259,662;23,50471
 800,03;11303,986;  208,214;47214,864;23,60469
 800,59;11295,691;  222,368;46957,528;23,69377
 801,15;11315,242;  221,753;46844,884;23,79396
 801,72;11270,100;  226,137;46459,779;23,88729
 802,28;11265,113;  238,830;46156,519;24,01315
 802,85;11350,202;  206,830;46055,722;24,30456
 803,41;11280,984;  209,906;45829,924;24,26803
 803,98;11212,073;  211,599;45325,588;24,38373
 804,54;11258,470;  212,676;45133,252;24,58961
 805,11;11275,867;  212,522;44999,915;24,70192
 805,67;11286,110;  238,675;44844,349;24,76688
 806,23;11207,815;  215,522;44381,705;24,88848
 806,80;11242,443;  222,829;44288,522;25,00724
 807,36;11358,071;  232,060;44206,417;25,30113
 807,93;11304,699;  239,829;43938,081;25,32108
 808,49;11243,942;  203,598;43598,206;25,44174
 809,05;11225,416;  191,906;43368,870;25,55416
 809,62;11277,582;  230,290;43348,765;25,62078
 810,18;11329,517;  222,983;43249,582;25,81318
 810,74;11263,607;  190,983;42947,400;25,89699
 811,31;11305,465;  193,829;42808,679;26,07456
 811,87;11290,401;  207,521;42600,343;26,14329
 812,44;11361,106;  240,983;42570,776;26,27020
 813,00;11334,426;  166,752;42252,363;26,53561
 813,56;11394,515;  218,829;42345,258;26,52892
 814,13;11433,989;  222,367;42177,383;26,72296
 814,69;11418,309;  211,367;41986,508;26,82682
 815,25;11341,168;  188,752;41599,403;26,93127
 815,82;11359,180;  233,751;41614,374;26,88560
 816,38;11450,577;  246,751;41365,884;27,24723
 816,94;11321,205;  203,059;41060,010;27,21237
 817,51;11339,448;  186,444;40868,904;27,41477
 818,07;11321,768;  205,367;40651,953;27,48415
 818,63;11362,550;  221,751;40447,309;27,69582
 819,20;11368,485;  217,982;40328,973;27,79912
 819,76;11315,190;  202,443;39945,175;27,96171
 820,32;11367,433;  247,520;39857,147;28,07376
 820,89;11405,215;  234,905;39659,349;28,33346
 821,45;11311,612;  198,597;39336,397;28,39458
 822,01;11386,778;  222,751;39097,369;28,71804
 822,57;11331,868;  229,366;38904,802;28,70685
 823,14;11327,188;  186,905;38724,389;28,90765
 823,70;11310,200;  203,828;38463,899;29,02862
 824,26;11357,136;  201,135;38282,870;29,29488
 824,82;11369,225;  231,981;38128,227;29,38878
 825,39;11367,083;  208,751;37809,737;29,67564
 825,95;11388,788;  231,135;37881,400;29,63499
 826,51;11339,185;  226,135;37413,680;29,88380
 827,08;11458,582;  255,058;37546,267;30,04334
 827,64;11371,441;  234,520;37333,623;30,01938
 828,20;11312,838;  203,827;37073,825;30,13022
 828,76;11442,927;  231,981;37046,643;30,45239
 829,32;11462,632;  237,366;36879,691;30,63470
 829,89;11404,644;  193,135;36702,663;30,70845
 830,45;11490,734;  215,058;36642,942;30,95342
 831,01;11426,515;  217,904;36452,144;30,93376
 831,57;11462,451;  225,365;36346,731;31,10925
 832,14;11455,079;  210,904;36376,472;31,09083
 832,70;11437,553;  200,058;36099,982;31,30228
 833,26;11431,488;  185,519;36024,953;31,37876
 833,82;11443,577;  211,673;35978,079;31,40350
 834,38;11470,590;  201,519;35897,973;31,56916
 834,95;11498,910;  193,980;35778,560;31,76918
 835,51;11463,768;  172,596;35642,301;31,83329
 836,07;11572,319;  216,134;35712,503;31,99253
 836,63;11641,024;  232,826;35781,552;32,09172
 837,19;11642,960;  209,057;35477,446;32,41969
 837,75;11611,587;  174,596;35236,187;32,61972
 838,32;11746,138;  225,826;35364,389;32,78538
 838,88;11808,074;  220,442;35382,053;32,95535
 839,44;11781,701;  209,519;35322,794;32,95672
 840,00;11844,945;  204,749;35187,689;33,27392
 840,56;11815,880;  189,057;34877,737;33,51763
 841,12;11850,354;  196,749;34811,632;33,66646
 841,68;11814,213;  183,749;34663,603;33,73119
 842,25;11871,840;  201,749;34793,267;33,73686
 842,81;11850,084;  196,441;34370,546;34,10080
 843,37;11914,865;  186,980;34470,826;34,20820
 843,93;11972,108;  201,749;34398,720;34,41930
 844,49;11988,275;  216,133;34443,230;34,39422
 845,05;11989,826;  180,287;34171,202;34,74322
 845,61;12096,838;  226,595;34274,019;34,86385
 846,17;12096,235;  202,903;34148,299;35,03666
 846,73;12068,094;  213,749;34074,962;35,00862
 847,29;12048,568;  186,595;33753,472;35,33833
 847,86;12086,811;  193,979;33848,521;35,33797
 848,42;12144,746;  190,902;33540,800;35,84372
 848,98;12173,836;  203,902;33503,695;35,94597
 849,54;12216,386;  206,133;33561,359;36,00711
 850,10;12211,937;  208,595;33397,868;36,16633
 850,66;12230,642;  191,287;33204,994;36,46775
 851,22;12281,501;  192,441;33273,965;36,54324
 851,78;12321,821;  234,441;33214,706;36,65034
 852,34;12290,295;  222,133;32956,293;36,86718
 852,90;12287,538;  211,056;32944,188;36,89376
 853,46;12286,935;  191,517;32622,390;37,29600
 854,02;12402,563;  213,286;32732,823;37,48293
 854,58;12298,114;  196,979;32437,948;37,53341
 855,14;12331,357;  195,517;32381,305;37,70559
 855,70;12320,831;  161,825;32202,507;37,94865
 856,26;12372,997;  211,055;32132,709;38,09935
 856,82;12366,856;  196,902;31943,450;38,33473
 857,38;12351,253;  228,517;31904,806;38,27069
 857,94;12293,727;  202,209;31825,701;38,23587
 858,50;12320,124;  215,671;31719,903;38,42167
 859,06;12297,444;  194,978;31564,105;38,58082
 859,62;12352,225;  211,671;31461,308;38,85023
 860,18;12281,622;  199,517;31234,971;38,93001
 860,74;12227,481;  174,209;31134,558;38,93132
 861,30;12182,032;  185,901;30921,838;39,02966
 861,86;12301,660;  235,517;30921,040;39,32194
 862,42;12280,134;  199,824;30755,242;39,53574
 862,98;12352,454;  231,978;30739,598;39,72934
 863,54;12247,312;  205,055;30572,570;39,65506
 864,10;12335,709;  202,286;30565,695;39,96068
 864,66;12260,029;  190,978;30311,205;40,06959
 865,22;12250,503;  198,285;30183,946;40,19327
 865,78;12279,208;  208,439;30096,302;40,38686
 866,34;12183,836;  198,208;29955,427;40,27805
 866,90;12268,079;  220,208;29864,322;40,64170
 867,45;12236,014;  209,208;29665,909;40,82876
 868,01;12195,027;  213,747;29548,650;40,84309
 868,57;12183,578;  190,362;29359,237;41,11648
 869,13;12201,513;  184,131;29243,977;41,35391
 869,69;12164,372;  195,747;29100,410;41,40725
 870,25;12205,230;  183,131;28971,536;41,76021
 870,81;12228,781;  194,593;28962,200;41,83243
 871,37;12207,948;  214,439;28801,479;41,95436
 871,93;12212,037;  220,669;28665,758;42,15620
 872,49;12162,972;  223,362;28491,345;42,23722
 873,04;12118,831;  198,439;28222,086;42,53691
 873,60;12124,536;  182,977;28131,365;42,72718
 874,16;12187,933;  212,592;28031,337;43,04774
 874,72;12114,856;  202,669;27894,567;43,01687
 875,28;12142,933;  209,285;27946,260;43,02433
 875,84;12152,471;  206,592;27892,798;43,14740
 876,40;12133,779;  196,131;27799,106;43,24769
 876,95;12210,702;  213,746;27745,952;43,57426
 877,51;12251,702;  230,746;27755,260;43,67364
 878,07;12246,317;  249,977;27778,490;43,57787
 878,63;12256,317;  199,054;27740,875;43,77802
 879,19;12275,933;  224,977;27715,644;43,83653
 879,75;12326,548;  196,900;27768,875;43,99267
 880,30;12425,702;  193,208;27740,798;44,40495
 880,86;12494,317;  237,669;27948,798;44,23006
 881,42;12525,240;  190,746;27995,952;44,36038
 881,98;12533,702;  221,823;28080,260;44,19444
 882,54;12682,933;  194,746;28214,952;44,56850
 883,09;12736,702;  217,669;28222,567;44,70301
 883,65;12816,702;  197,438;28296,183;44,91042
 884,21;12975,625;  235,362;28611,952;44,89709
 884,77;12997,779;  204,900;28568,413;45,10329
 885,32;13080,779;  208,592;28737,260;45,12018
 885,88;13229,471;  235,515;28818,260;45,46084
 886,44;13351,779;  213,362;29018,029;45,61211
 887,00;13363,394;  229,131;29005,260;45,64291
 887,56;13459,087;  204,285;29124,721;45,83196
 888,11;13504,548;  208,900;29123,260;45,98286
 888,67;13703,087;  245,592;29285,106;46,34201
 889,23;13781,010;  215,977;29233,337;46,74799
 889,79;13744,471;  194,131;29203,490;46,71024
 890,34;13777,625;  214,285;29125,337;46,91403
 890,90;13983,933;  267,285;29395,490;47,09060
 891,46;13880,548;  199,438;29217,721;47,14652
 892,01;13963,317;  236,900;29188,952;47,41086
 892,57;14007,702;  236,285;29105,260;47,70317
 893,13;13983,625;  203,746;28905,721;48,01021
 893,69;13980,702;  206,438;28872,106;48,05143
 894,24;14041,548;  211,362;28718,183;48,51536
 894,80;13938,010;  217,362;28590,875;48,35724
 895,36;13922,856;  215,977;28459,029;48,53186
 895,91;13940,240;  215,438;28251,567;48,95398
 896,47;13844,548;  237,515;28129,413;48,78489
 897,03;13732,933;  203,977;27957,490;48,74682
 897,58;13654,548;  225,900;27905,644;48,51435
 898,14;13665,548;  223,669;27669,337;48,97632
 898,70;13636,163;  191,208;27466,490;49,29355
 899,25;13640,779;  218,362;27531,029;49,14356
 899,81;13716,702;  236,900;27286,875;49,83296
 900,37;13515,394;  181,515;27045,490;49,63479
 900,92;13581,394;  218,900;27003,029;49,88960
 901,48;13555,317;  198,592;26994,875;49,84544
 902,03;13451,625;  204,746;26775,567;49,85498
 902,59;13473,779;  211,131;26706,798;50,05591
 903,15;13411,087;  237,592;26565,952;50,03538
 903,70;13366,087;  213,131;26298,029;50,42364
 904,26;13323,394;  201,515;26190,029;50,49107
 904,82;13360,702;  214,669;26156,337;50,67536
 905,37;13352,625;  222,131;26028,567;50,88069
 905,93;13234,317;  205,362;25822,644;50,86002
 906,48;13279,856;  215,977;25838,567;50,98579
 907,04;13269,163;  232,054;25749,260;51,09145
 907,60;13215,087;  208,592;25580,875;51,26261
 908,15;13165,317;  199,131;25376,567;51,49923
 908,71;13244,702;  231,054;25396,029;51,71334
 909,26;13142,240;  207,823;25226,721;51,69859
 909,82;13074,933;  224,900;25071,106;51,71829
 910,37;13214,394;  259,515;25026,337;52,30739
 910,93;13034,010;  203,054;24826,490;52,10871
 911,48;12991,471;  201,515;24648,413;52,31729
 912,04;12992,548;  197,515;24614,875;52,40138
 912,60;13044,471;  222,592;24608,337;52,57940
 913,15;12934,163;  223,746;24384,413;52,60789
 913,71;12864,010;  216,285;24195,337;52,74489
 914,26;12864,548;  195,977;24064,798;53,07581
 914,82;12881,625;  212,054;23967,875;53,33249
 915,37;12858,856;  205,592;23966,721;53,25195
 915,93;12857,702;  258,208;23832,721;53,44541
 916,48;12858,087;  205,592;23705,952;53,83958
 917,04;12835,933;  231,823;23544,337;54,06585
 917,59;12807,933;  238,515;23475,721;54,09178
 918,15;12660,163;  184,746;23311,029;53,94476
 918,70;12630,702;  214,054;23211,875;53,99054
 919,26;12699,625;  212,977;23183,875;54,35855
 919,81;12639,856;  199,208;22977,413;54,61645
 920,37;12590,548;  206,823;22853,952;54,68121
 920,92;12610,933;  225,900;22825,798;54,80128
 921,48;12492,087;  190,900;22624,721;54,83322
 922,03;12460,394;  198,362;22584,490;54,77514
 922,59;12481,394;  203,669;22434,567;55,22820
 923,14;12391,163;  203,208;22254,490;55,27096
 923,69;12402,240;  237,208;22258,490;55,24216
 924,25;12429,548;  231,823;22196,490;55,53339
 924,80;12364,779;  211,823;21988,260;55,80783
 925,36;12304,702;  198,362;21896,567;55,79420
 925,91;12276,856;  213,054;21771,029;55,95981
 926,47;12261,779;  200,438;21696,106;56,11057
 927,02;12263,779;  253,977;21614,337;56,22472
 927,57;12212,087;  218,823;21509,183;56,33190
 928,13;12189,471;  207,746;21357,875;56,65084
 928,68;12207,702;  213,362;21359,875;56,72018
 929,24;12157,702;  187,131;21070,029;57,32237
 929,79;12081,010;  203,669;21006,952;57,09359
 930,34;12086,087;  215,592;20851,490;57,52352
 930,90;12071,087;  207,131;20847,798;57,47855
 931,45;12091,394;  214,131;20843,490;57,57456
 932,01;12026,317;  229,515;20694,183;57,64473
 932,56;11925,240;  238,438;20547,721;57,54414
 933,11;11967,010;  244,592;20476,798;57,93939
 933,67;11908,087;  211,208;20294,183;58,24276
 934,22;11871,548;  209,208;20273,106;58,12599
 934,77;11873,548;  233,438;20123,798;58,52136
 935,33;11729,702;  217,823;20039,875;58,07612
 935,88;11772,779;  228,054;19944,260;58,55450
 936,43;11755,087;  210,438;19825,106;58,85722
 936,99;11711,779;  216,131;19786,183;58,74102
 937,54;11656,317;  196,977;19597,875;59,06603
 938,09;11659,471;  221,977;19586,183;59,06513
 938,65;11608,240;  231,054;19423,183;59,28048
 939,20;11571,394;  198,362;19304,644;59,52509
 939,75;11533,548;  197,285;19205,029;59,64024
 940,31;11478,625;  201,131;19061,413;59,79494
 940,86;11483,779;  219,669;19111,644;59,62378
 941,41;11547,779;  273,823;19012,337;60,16462
 941,96;11481,240;  209,438;18860,106;60,43645
 942,52;11399,010;  217,746;18744,952;60,35051
 943,07;11421,856;  195,669;18638,644;60,86972
 943,62;11391,471;  206,900;18532,029;61,03407
 944,18;11369,933;  189,900;18484,183;61,11217
 944,73;11345,856;  206,362;18377,106;61,30456
 945,28;11208,548;  177,515;18157,106;61,35308
 945,83;11287,933;  207,515;18180,106;61,65175
 946,39;11223,087;  207,208;18103,644;61,55348
 946,94;11239,317;  232,208;18063,413;61,72947
 947,49;11192,087;  200,900;17941,490;61,95502
 948,04;11245,394;  234,977;17890,490;62,36249
 948,59;11176,317;  231,592;17853,260;62,10947
 949,15;11147,010;  198,131;17732,413;62,44270
 949,70;11084,010;  195,362;17628,952;62,45786
 950,25;11074,087;  217,362;17560,413;62,59985
 950,80;11006,779;  173,823;17422,644;62,80404
 951,36;11001,548;  173,823;17359,183;63,00552
 951,91;11003,933;  225,746;17327,875;63,02248
 952,46;10908,240;  195,285;17151,106;63,18158
 953,01;10946,856;  218,669;17183,260;63,23870
 953,56;10911,779;  200,823;17027,106;63,65610
 954,11;10882,163;  224,438;16970,337;63,64379
 954,67;10861,087;  206,362;16925,721;63,72687
 955,22;10786,087;  191,362;16792,875;63,81783
 955,77;10817,933;  230,823;16717,721;64,21529
 956,32;10749,240;  255,515;16593,337;64,22965
 956,87;10665,087;  201,592;16475,644;64,29557
 957,42;10631,087;  208,285;16469,490;64,09612
 957,98;10610,010;  204,054;16331,567;64,52300
 958,53;10577,702;  224,669;16315,106;64,34277
 959,08;10480,471;  196,669;16148,106;64,46944
 959,63;10500,779;  208,131;16079,183;64,85171
 960,18;10487,394;  217,285;16020,183;64,98877
 960,73;10384,856;  214,285;15973,337;64,53796
 961,28;10418,010;  190,285;15852,106;65,30355
 961,83;10376,471;  225,438;15834,106;65,03459
 962,39;10335,933;  192,515;15666,337;65,55212
 962,94;10320,394;  217,362;15576,337;65,77934
 963,49;10176,779;  209,515;15429,106;65,48970
 964,04;10258,010;  224,054;15424,644;66,01030
 964,59;10170,702;  187,438;15327,952;65,93742
 965,14;10162,702;  227,285;15264,183;66,07358
 965,69;10108,933;  217,054;15197,183;66,03334
 966,24;10110,394;  199,285;15073,952;66,63080
 966,79;10067,933;  221,208;14977,644;66,72834
 967,34; 9982,625;  185,438;14850,952;66,80425
 967,89; 9995,471;  187,592;14833,952;66,96462
 968,44;10026,010;  218,669;14708,644;67,68363
 968,99; 9979,471;  214,362;14658,260;67,60716
 969,55; 9993,779;  215,746;14575,413;68,09373
 970,10; 9998,010;  214,823;14487,721;68,54380
 970,65; 9976,471;  218,592;14401,260;68,80144
 971,20; 9905,087;  198,977;14237,490;69,13916
 971,75; 9803,856;  190,362;14092,644;69,15047
 972,30; 9842,471;  211,669;14052,721;69,58143
 972,85; 9760,856;  188,823;13959,798;69,50875
 973,40; 9680,471;  199,208;13830,721;69,55400
 973,95; 9648,933;  213,208;13790,029;69,49878
 974,50; 9614,010;  227,438;13743,875;69,44561
 975,05; 9540,548;  207,054;13596,644;69,70709
 975,60; 9550,317;  226,054;13553,721;69,96171
 976,15; 9438,240;  203,054;13518,875;69,35499
 976,70; 9424,779;  227,746;13395,875;69,84313
 977,25; 9341,317;  221,746;13325,644;69,59434
 977,80; 9228,779;  198,208;13137,875;69,78982
 978,35; 9085,548;  218,900;13099,337;68,83810
 978,89; 9065,548;  192,977;12973,875;69,42056
 979,44; 9078,317;  208,515;12963,260;69,54120
 979,99; 8932,163;  201,669;12699,490;69,85613
 980,54; 8920,394;  242,977;12649,106;69,94460
 981,09; 8834,394;  221,515;12634,490;69,38610
 981,64; 8767,702;  222,746;12474,644;69,74393
 982,19; 8718,779;  251,669;12398,875;69,70418
 982,74; 8634,087;  227,438;12283,875;69,72747
 983,29; 8539,779;  207,054;12128,952;69,89428
 983,84; 8530,010;  221,054;12035,644;70,32792
 984,39; 8570,471;  266,592;12028,490;70,59982
 984,94; 8485,010;  188,900;11850,106;71,14281
 985,49; 8472,779;  232,669;11772,952;71,40301
 986,03; 8368,471;  234,131;11732,337;70,74443
 986,58; 8307,933;  250,900;11542,798;71,35233
 987,13; 8193,317;  218,746;11436,337;71,08988
 987,68; 8185,856;  237,900;11319,337;71,72315
 988,23; 8192,240;  229,131;11326,337;71,75779
 988,78; 8040,548;  211,592;11094,567;71,93764
 989,33; 8022,087;  234,285;11014,798;72,23962
 989,88; 8027,317;  247,900;10998,183;72,36477
 990,42; 7921,394;  212,823;10821,875;72,66032
 990,97; 7896,240;  206,592;10711,413;73,20113
 991,52; 7850,471;  241,977;10690,260;72,82052
 992,07; 7819,087;  240,592;10568,413;73,37941
 992,62; 7707,317;  222,746;10467,337;73,05876
 993,17; 7675,625;  239,285;10346,567;73,57408
 993,71; 7638,317;  229,977;10217,106;74,17888
 994,26; 7584,702;  208,362;10090,029;74,64672
 994,81; 7558,779;  248,823;10088,567;74,29010
 995,36; 7484,394;  207,977; 9906,567;75,02551
 995,91; 7381,087;  221,823; 9849,644;74,36016
 996,45; 7352,856;  221,592; 9761,029;74,75560
 997,00; 7261,394;  196,746; 9621,875;74,95545
 997,55; 7275,240;  225,900; 9569,875;75,44263
 998,10; 7194,625;  250,131; 9448,567;75,49646
 998,65; 7162,010;  215,054; 9386,490;75,74556
 999,19; 7111,317;  236,208; 9250,106;76,27232
 999,74; 7016,010;  254,362; 9150,337;76,00795
1000,29; 6982,010;  231,285; 9101,337;76,10694
1000,84; 6907,087;  219,746; 8956,490;76,54271
1001,38; 6824,702;  224,054; 8857,413;76,45515
1001,93; 6791,087;  236,438; 8790,413;76,62693
1002,48; 6653,779;  209,208; 8639,260;76,44759
1003,03; 6685,702;  239,054; 8581,644;77,27394
1003,57; 6595,625;  233,285; 8459,106;77,34596
1004,12; 6558,625;  256,362; 8424,029;77,16112
1004,67; 6470,163;  213,669; 8306,798;77,30625
1005,22; 6339,317;  217,438; 8128,567;77,38313
1005,76; 6317,702;  208,285; 8041,413;77,99460
1006,31; 6230,010;  238,054; 8020,952;76,98875
1006,86; 6122,856;  216,592; 7854,721;77,32605
1007,40; 6045,471;  207,362; 7722,183;77,68794
1007,95; 6002,394;  226,823; 7679,875;77,49270
1008,50; 5877,933;  229,208; 7576,260;76,88424
1009,04; 5816,548;  223,515; 7426,952;77,64395
1009,59; 5722,933;  230,362; 7305,260;77,63463
1010,14; 5641,471;  216,515; 7213,798;77,52946
1010,68; 5578,163;  222,592; 7073,029;78,17854
1011,23; 5507,779;  223,054; 6976,337;78,25417
1011,78; 5498,933;  226,362; 6949,567;78,42347
1012,32; 5398,471;  234,208; 6817,106;78,44969
1012,87; 5388,856;  244,592; 6759,875;78,95687
1013,42; 5298,394;  217,054; 6651,798;78,96725
1013,96; 5305,394;  248,054; 6665,644;78,80435
1014,51; 5217,779;  187,438; 6541,644;79,16553
1015,06; 5228,394;  190,823; 6563,413;79,05060
1015,60; 5294,240;  268,977; 6603,875;79,32667
1016,15; 5227,010;  217,131; 6581,029;78,72343
1016,69; 5267,394;  219,362; 6592,183;79,21190
1017,24; 5257,394;  203,515; 6614,952;78,82600
1017,79; 5327,856;  242,362; 6666,260;79,16524
1018,33; 5332,625;  218,669; 6645,952;79,56637
1018,88; 5410,163;  224,515; 6727,644;79,74082
1019,42; 5427,933;  219,669; 6695,029;80,43203
1019,97; 5409,163;  216,131; 6701,798;80,06937
1020,51; 5491,240;  232,438; 6727,798;80,96244
1021,06; 5459,394;  198,900; 6726,721;80,58576
1021,61; 5447,625;  191,669; 6679,337;81,01457
1022,15; 5456,163;  171,131; 6656,260;81,49464
1022,70; 5503,010;  215,977; 6651,106;82,15893
1023,24; 5410,856;  211,131; 6634,260;80,95315
1023,79; 5427,933;  225,977; 6554,644;82,19670
1024,33; 5398,625;  204,977; 6513,875;82,32259
1024,88; 5389,702;  223,362; 6409,490;83,51492
1025,42; 5290,702;  228,515; 6312,798;83,20104
1025,97; 5234,163;  210,746; 6220,798;83,58359
1026,51; 5126,471;  183,746; 6119,721;83,26728
1027,06; 5104,779;  211,592; 6090,644;83,23088
1027,60; 5024,087;  217,669; 5963,106;83,65626
1028,15; 4981,856;  215,977; 5864,260;84,37748
1028,69; 4868,087;  182,823; 5754,875;84,08506
1029,24; 4843,471;  192,054; 5702,260;84,41458
1029,78; 4762,087;  197,669; 5573,337;84,90885
1030,33; 4666,779;  186,669; 5471,413;84,77439
1030,87; 4622,163;  206,669; 5435,260;84,44904
1031,42; 4579,471;  196,208; 5321,952;85,51467
1031,96; 4506,394;  210,977; 5266,721;84,96113
1032,51; 4416,625;  196,515; 5181,029;84,66442
1033,05; 4395,317;  223,823; 5123,183;85,14366
1033,60; 4262,933;  176,285; 5016,413;84,43263
1034,14; 4208,317;  207,438; 4937,798;84,57875
1034,69; 4198,548;  207,977; 4890,952;85,21444
1035,23; 4139,856;  214,669; 4825,644;85,12704
1035,77; 4095,317;  208,823; 4753,567;85,51624
1036,32; 4033,933;  182,515; 4679,183;85,65048
1036,86; 3982,394;  208,823; 4631,029;85,33233
1037,41; 3899,240;  225,900; 4570,106;84,55724
1037,95; 3839,548;  197,285; 4478,875;85,06800
1038,50; 3806,163;  206,208; 4419,413;85,44458
1039,04; 3788,240;  229,823; 4396,106;85,40989
1039,58; 3739,317;  191,977; 4271,952;86,94515
1040,13; 3658,471;  205,900; 4232,644;85,74101
1040,67; 3660,856;  231,515; 4220,952;85,96052
1041,21; 3584,010;  240,362; 4134,490;85,86383
1041,76; 3503,163;  191,054; 4041,798;86,01219
1042,30; 3477,317;  210,131; 4005,567;86,08197
1042,85; 3415,317;  202,285; 3944,952;85,84874
1043,39; 3379,856;  182,977; 3902,567;85,94707
1043,93; 3368,702;  230,592; 3840,952;86,91959
1044,48; 3290,317;  218,131; 3782,029;86,20299
1045,02; 3251,087;  205,592; 3719,337;86,67376
1045,56; 3252,240;  227,592; 3712,721;86,78727
1046,11; 3194,933;  217,054; 3637,952;87,04962
1046,65; 3141,394;  222,285; 3593,260;86,59541
1047,19; 3094,163;  203,131; 3541,952;86,58843
1047,74; 3033,779;  196,438; 3461,106;86,91055
1048,28; 3022,779;  217,900; 3456,183;86,61624
1048,82; 3018,394;  232,746; 3444,875;86,72280
1049,37; 2975,317;  214,131; 3353,260;87,96028
1049,91; 2935,317;  210,592; 3303,337;88,10056
1050,45; 2901,625;  233,823; 3275,260;87,71519
1050,99; 2825,933;  223,592; 3208,875;87,17233
1051,54; 2806,087;  200,054; 3155,490;88,17759
1052,08; 2810,163;  233,823; 3143,798;88,53479
1052,62; 2764,779;  228,746; 3106,183;88,13514
1053,16; 2706,087;  202,515; 3023,413;88,75085
1053,71; 2701,010;  218,208; 2998,490;89,30034
1054,25; 2650,779;  229,669; 2944,260;89,18876
1054,79; 2613,625;  224,208; 2919,337;88,65689
1055,33; 2558,087;  200,208; 2847,183;89,07824
1055,88; 2540,163;  217,208; 2836,875;88,67369
1056,42; 2514,548;  237,054; 2800,260;88,85335
1056,96; 2485,240;  222,438; 2756,413;89,29851
1057,50; 2423,702;  224,977; 2719,875;88,12885
1058,05; 2409,087;  211,515; 2668,337;89,44775
1058,59; 2404,317;  236,669; 2644,798;90,01379
1059,13; 2343,163;  207,208; 2565,798;90,56069
1059,67; 2349,471;  228,592; 2571,875;90,50888
1060,21; 2279,087;  213,438; 2509,644;89,95919
1060,76; 2265,471;  221,131; 2466,567;91,04423
1061,30; 2253,240;  252,285; 2455,183;90,83288
1061,84; 2227,163;  222,362; 2384,798;92,71032
1062,38; 2154,625;  204,592; 2356,798;90,60624
1062,92; 2183,240;  261,438; 2380,798;90,67843
1063,46; 2116,317;  242,054; 2309,490;90,65640
1064,01; 2075,471;  219,977; 2266,490;90,66611
1064,55; 2084,394;  236,362; 2241,875;92,14761
1065,09; 2020,010;  195,515; 2187,413;91,59576
1065,63; 2067,933;  237,438; 2210,337;92,78200
1066,17; 2033,702;  246,746; 2165,106;93,15020
1066,71; 2001,856;  245,977; 2155,260;91,96537
1067,25; 1962,471;  211,977; 2073,567;94,03219
1067,80; 1948,471;  233,977; 2083,337;92,70745
1068,34; 1923,087;  256,823; 2076,721;91,55806
1068,88; 1870,394;  225,285; 2010,721;92,14047
1069,42; 1880,163;  246,669; 2016,644;92,28911
1069,96; 1852,087;  218,900; 1972,798;93,11753
1070,50; 1879,087;  253,900; 1974,490;94,45517
1071,04; 1781,933;  219,592; 1929,106;91,39094
1071,58; 1760,240;  221,054; 1891,952;92,11732
1072,12; 1743,394;  225,054; 1878,337;91,83792
1072,66; 1750,471;  219,438; 1877,798;92,32212
1073,21; 1738,548;  251,208; 1844,644;93,34168
1073,75; 1711,625;  235,977; 1817,567;93,30153
1074,29; 1689,471;  231,592; 1802,798;92,78726
1074,83; 1702,933;  248,362; 1780,183;94,95698
1075,37; 1661,933;  234,900; 1765,567;93,22945
1075,91; 1641,471;  239,669; 1729,644;94,08224
1076,45; 1619,317;  234,438; 1726,875;92,79315
1076,99; 1586,933;  239,131; 1711,875;91,51636
1077,53; 1564,933;  224,669; 1659,798;93,38977
1078,07; 1569,625;  237,438; 1644,413;94,68445
1078,61; 1531,856;  235,054; 1618,721;93,72209
1079,15; 1527,010;  228,054; 1603,183;94,46066
1079,69; 1524,779;  227,669; 1595,106;94,85702
1080,23; 1517,856;  247,592; 1583,106;95,11424
1080,77; 1520,087;  272,669; 1589,413;94,73497
1081,31; 1453,548;  232,362; 1519,106;94,90515
1081,85; 1450,240;  245,592; 1513,413;95,01719
1082,39; 1435,779;  228,592; 1497,413;95,14237
1082,93; 1413,317;  231,977; 1490,106;93,89661
1083,47; 1365,702;  219,362; 1442,952;93,68661
1084,01; 1399,702;  242,823; 1471,644;94,14542
1084,55; 1349,317;  219,823; 1425,567;93,67610
1085,09; 1363,548;  251,362; 1429,721;94,38431
1085,63; 1321,779;  232,131; 1402,721;93,08534
1086,17; 1305,625;  233,669; 1392,798;92,47943
1086,71; 1304,087;  223,592; 1361,029;94,99380
1087,24; 1310,625;  259,977; 1383,490;93,51451
1087,78; 1286,163;  244,515; 1349,875;94,23613
1088,32; 1254,394;  219,285; 1303,106;95,50557
1088,86; 1280,856;  245,592; 1337,952;94,77314
1089,40; 1244,856;  232,362; 1287,183;95,98729
1089,94; 1202,625;  205,900; 1253,952;95,10264
1090,48; 1210,010;  235,131; 1276,798;93,58831
1091,02; 1206,548;  236,592; 1268,567;93,99024
1091,56; 1186,087;  230,977; 1226,183;95,97107
1092,10; 1167,548;  213,131; 1219,260;94,86035
1092,63; 1196,625;  253,515; 1241,721;95,43656
1093,17; 1167,240;  243,746; 1199,337;96,64122
1093,71; 1146,856;  233,977; 1161,952;98,37322
1094,25; 1148,010;  241,592; 1181,337;96,45362
1094,79; 1114,702;  233,746; 1151,260;96,01557
1095,33; 1115,163;  223,285; 1132,260;98,11918
1095,87; 1103,933;  236,977; 1114,183;98,83152
1096,40; 1046,933;  208,438; 1093,413;94,74779
1096,94; 1068,317;  231,977; 1091,644;97,28652
1097,48; 1081,317;  235,900; 1093,644;98,56287
1098,02; 1034,471;  231,823; 1077,952;94,86121
1098,56; 1007,471;  200,054; 1020,490;98,41313
1099,10;  987,010;  204,746; 1029,798;94,81385
1099,63;  987,779;  217,746; 1026,567;95,20432
1100,17; 1002,779;  236,131; 1015,875;98,32046
1100,71; 1011,471;  251,131; 1039,337;96,46471

