
Integration time [ms]: 120,000
Averaging Nr. [scans]: 13
Smoothing Nr. [pixels]: 0
Data measured with spectrometer [name]: 2009305U1
Wave   ;Sample   ;Dark     ;Reference;Reflectance
[nm]   ;[counts] ;[counts] ;[counts] ;[%]

 175,72;  201,631;  188,592;  218,157;44,10082
 176,32;  236,168;  227,750;  225,747; 0,00000
 176,92;  253,771;  250,055;  253,068;123,31313
 177,52;  261,090;  255,362;  262,075;85,33045
 178,12;  229,187;  236,596;  227,589; 0,00000
 178,72;  262,253;  268,289;  253,678; 0,00000
 179,32;  265,921;  245,211;  241,699; 0,00000
 179,92;  249,896;  249,902;  255,316;-0,12491
 180,52;  247,079;  239,283;  260,177;37,31497
 181,12;  263,979;  253,671;  251,518; 0,00000
 181,73;  276,064;  278,594;  281,269;-94,57789
 182,33;  354,548;  354,131;  367,102; 3,21502
 182,93;  273,950;  267,439;  276,188;74,41959
 183,53;  236,116;  245,520;  231,361; 0,00000
 184,13;  235,360;  241,135;  238,225; 0,00000
 184,73;  279,782;  278,059;  281,998;43,72242
 185,33;  265,283;  245,542;  342,296;20,40314
 185,93;  261,200;  242,467;  360,299;15,89824
 186,53;  287,313;  252,389;  391,484;25,10813
 187,13;  314,954;  271,925;  427,719;27,61952
 187,73;  273,810;  244,159;  371,784;23,23276
 188,33;  279,788;  234,084;  382,174;30,86258
 188,93;  290,700;  253,011;  383,393;28,90633
 189,53;  283,824;  256,092;  375,910;23,14540
 190,13;  318,261;  282,328;  425,425;25,11068
 190,73;  262,223;  232,863;  357,671;23,52427
 191,34;  296,727;  261,243;  399,403;25,68313
 191,94;  268,395;  239,700;  377,052;20,89102
 192,54;  291,607;  254,384;  418,523;22,67780
 193,14;  287,624;  268,309;  400,776;14,58084
 193,74;  286,396;  265,695;  399,653;15,45380
 194,34;  287,564;  255,770;  395,741;22,71412
 194,94;  264,177;  221,540;  356,813;31,51893
 195,54;  228,824;  196,926;  344,551;21,60764
 196,14;  253,933;  221,539;  380,071;20,43372
 196,74;  239,500;  211,157;  358,586;19,22487
 197,34;  234,762;  207,537;  346,132;19,64308
 197,94;  258,202;  237,155;  375,317;15,23352
 198,54;  270,302;  232,693;  394,714;23,21232
 199,14;  250,632;  217,536;  386,849;19,54712
 199,74;  239,772;  208,998;  385,735;17,41226
 200,34;  240,289;  191,844;  389,094;24,56013
 200,94;  269,612;  226,538;  443,790;19,82692
 201,54;  256,743;  208,845;  434,438;21,23230
 202,14;  291,908;  238,074;  501,034;20,47229
 202,74;  256,445;  221,075;  479,663;13,67823
 203,34;  243,446;  191,996;  497,009;16,86809
 203,94;  217,299;  170,227;  492,928;14,58674
 204,54;  296,392;  246,770;  586,989;14,58532
 205,14;  249,386;  190,075;  595,954;14,61290
 205,74;  305,551;  244,227;  689,313;13,77803
 206,34;  277,291;  206,843;  693,407;14,47861
 206,94;  281,250;  213,920;  761,700;12,29130
 207,54;  259,349;  182,382;  785,796;12,75526
 208,14;  290,157;  207,612;  879,260;12,28997
 208,74;  293,521;  208,844;  941,420;11,55870
 209,34;  301,006;  199,075; 1043,682;12,06847
 209,94;  328,480;  205,075; 1148,630;13,07873
 210,54;  317,445;  205,304; 1228,092;10,96425
 211,14;  344,200;  228,460; 1323,857;10,56610
 211,73;  349,630;  206,845; 1431,074;11,66327
 212,33;  377,626;  223,461; 1545,211;11,66373
 212,93;  387,472;  215,767; 1629,340;12,14684
 213,53;  360,737;  177,844; 1704,076;11,98330
 214,13;  398,208;  210,764; 1802,628;11,77510
 214,73;  392,215;  187,151; 1825,188;12,51893
 215,33;  386,711;  172,767; 1829,860;12,91077
 215,93;  432,240;  197,996; 1956,751;13,31873
 216,53;  403,177;  176,152; 2004,518;12,41679
 217,13;  489,646;  217,919; 2233,084;13,48409
 217,73;  499,596;  197,919; 2402,062;13,68683
 218,33;  491,539;  155,533; 2578,044;13,87016
 218,93;  575,625;  190,069; 2880,141;14,33254
 219,53;  610,756;  180,148; 3160,161;14,44986
 220,13;  628,632;  164,994; 3471,316;14,02278
 220,73;  702,759;  187,921; 3826,403;14,14982
 221,32;  761,751;  183,152; 4189,805;14,44096
 221,92;  829,505;  196,071; 4628,224;14,29179
 222,52;  865,461;  174,150; 5070,980;14,11753
 223,12;  954,881;  177,842; 5497,716;14,60634
 223,72; 1001,174;  197,919; 5953,372;13,95643
 224,32; 1054,163;  200,534; 6385,513;13,80166
 224,92; 1088,132;  173,380; 6738,954;13,93255
 225,52; 1147,389;  199,151; 7103,894;13,73314
 226,12; 1188,029;  194,766; 7540,534;13,52157
 226,72; 1198,024;  156,612; 7958,575;13,34808
 227,31; 1231,300;  160,304; 8388,093;13,01682
 227,91; 1288,136;  188,382; 8833,567;12,72100
 228,51; 1314,772;  173,922; 9307,068;12,49132
 229,11; 1380,621;  188,227; 9797,964;12,40818
 229,71; 1395,916;  176,152;10161,202;12,21590
 230,31; 1431,470;  163,841;10687,879;12,04508
 230,91; 1462,290;  168,769;11001,991;11,94032
 231,51; 1487,488;  168,073;11365,272;11,78344
 232,10; 1542,724;  166,841;11666,987;11,96405
 232,70; 1554,640;  204,617;12002,434;11,44300
 233,30; 1592,820;  202,304;12287,784;11,50568
 233,90; 1584,174;  168,535;12419,917;11,55493
 234,50; 1588,626;  177,380;12508,993;11,44413
 235,10; 1576,670;  169,303;12643,031;11,28265
 235,70; 1582,135;  200,151;12629,863;11,11839
 236,29; 1571,918;  188,614;12630,522;11,11810
 236,89; 1509,602;  157,923;12446,719;10,99928
 237,49; 1526,398;  186,150;12343,101;11,02454
 238,09; 1468,291;  181,458;12039,330;10,85214
 238,69; 1476,227;  219,770;11812,265;10,83854
 239,29; 1399,669;  178,613;11437,667;10,84511
 239,89; 1357,788;  181,307;11023,046;10,85140
 240,48; 1306,413;  179,228;10596,925;10,81991
 241,08; 1273,757;  183,843;10248,449;10,82917
 241,68; 1226,663;  198,151; 9892,305;10,60961
 242,28; 1171,032;  172,150; 9538,404;10,66469
 242,88; 1194,194;  224,302; 9222,668;10,77853
 243,48; 1180,566;  208,612; 8893,445;11,19140
 244,07; 1116,567;  189,998; 8635,701;10,97089
 244,67; 1142,745;  197,381; 8434,187;11,47731
 245,27; 1132,245;  206,614; 8205,151;11,57251
 245,87; 1146,341;  211,918; 8115,006;11,82352
 246,47; 1178,892;  185,229; 8094,941;12,56257
 247,06; 1188,038;  183,151; 8026,772;12,81152
 247,66; 1227,049;  187,766; 8148,471;13,05517
 248,26; 1299,883;  207,229; 8309,016;13,48658
 248,86; 1348,941;  212,922; 8476,175;13,74785
 249,46; 1383,502;  158,073; 8688,001;14,36623
 250,05; 1500,364;  198,536; 9081,768;14,65490
 250,65; 1574,393;  175,922; 9432,258;15,10825
 251,25; 1706,724;  180,920; 9930,648;15,64970
 251,85; 1852,971;  192,538;10500,747;16,10787
 252,44; 1949,412;  153,614;11116,092;16,38132
 253,04; 2173,606;  196,075;11870,633;16,93881
 253,64; 2287,294;  149,076;12598,315;17,17549
 254,24; 2547,532;  183,612;13569,189;17,66020
 254,84; 2780,887;  174,611;14503,001;18,18959
 255,43; 2982,169;  177,306;15485,837;18,32222
 256,03; 3224,559;  183,307;16477,205;18,66498
 256,63; 3493,109;  185,461;17615,391;18,97683
 257,23; 3699,712;  175,153;18499,289;19,23452
 257,82; 3969,573;  193,924;19478,736;19,57836
 258,42; 4166,387;  150,232;20378,722;19,85396
 259,02; 4481,065;  193,690;21260,391;20,35143
 259,62; 4661,609;  170,694;21977,189;20,59439
 260,21; 4826,428;  185,690;22616,064;20,68952
 260,81; 4954,980;  175,150;23166,145;20,79001
 261,41; 5108,290;  160,078;23571,862;21,13556
 262,01; 5291,657;  216,618;24073,277;21,27305
 262,60; 5321,097;  159,923;24359,751;21,32732
 263,20; 5487,628;  173,076;24712,216;21,65745
 263,80; 5550,732;  210,156;24967,265;21,57189
 264,40; 5600,817;  159,848;25105,863;21,81097
 264,99; 5700,313;  187,156;25228,298;22,01639
 265,59; 5684,068;  183,158;25370,909;21,83962
 266,19; 5731,487;  175,695;25609,151;21,84443
 266,78; 5805,432;  219,542;25696,799;21,92500
 267,38; 5836,924;  197,619;25681,749;22,12869
 267,98; 5826,788;  179,849;25723,880;22,10669
 268,58; 5774,354;  192,312;25733,729;21,85487
 269,17; 5775,596;  173,621;25809,536;21,85206
 269,77; 5741,498;  199,539;25592,510;21,82478
 270,37; 5644,080;  166,849;25416,671;21,69216
 270,96; 5690,404;  220,539;25276,764;21,83036
 271,56; 5543,155;  178,077;25025,678;21,59194
 272,16; 5492,887;  189,693;24919,251;21,44476
 272,75; 5488,259;  185,924;24745,919;21,58932
 273,35; 5438,685;  196,154;24716,703;21,38015
 273,95; 5400,168;  191,847;24690,113;21,25996
 274,54; 5398,901;  166,382;24654,525;21,36756
 275,14; 5439,641;  202,231;25074,735;21,05703
 275,74; 5426,703;  174,386;25025,166;21,13542
 276,33; 5507,374;  208,000;25550,364;20,91113
 276,93; 5544,373;  198,689;25869,212;20,82421
 277,53; 5672,519;  177,690;26372,562;20,97673
 278,12; 5744,595;  175,538;26890,037;20,84657
 278,72; 5909,930;  219,691;27454,777;20,89305
 279,32; 6016,880;  182,537;28019,685;20,95884
 279,91; 6127,178;  174,307;28894,306;20,72727
 280,51; 6269,244;  172,383;29394,209;20,86407
 281,11; 6430,069;  183,768;30030,978;20,92759
 281,70; 6539,433;  163,922;30593,894;20,95142
 282,30; 6689,924;  177,615;31196,371;20,99475
 282,90; 6837,723;  170,692;31709,225;21,13932
 283,49; 6980,363;  198,308;32166,974;21,21469
 284,09; 7109,584;  214,076;32661,024;21,25164
 284,69; 7222,616;  212,306;33082,345;21,32735
 285,28; 7365,752;  200,461;33413,676;21,57361
 285,88; 7475,994;  243,463;33641,644;21,65546
 286,47; 7515,814;  194,769;33846,800;21,75514
 287,07; 7681,355;  208,537;33752,645;22,27759
 287,67; 7745,874;  201,458;33912,599;22,37959
 288,26; 7824,261;  188,306;33838,430;22,69220
 288,86; 7977,246;  171,230;33935,016;23,11949
 289,46; 8209,919;  193,537;34035,002;23,68805
 290,05; 8329,661;  165,613;34176,223;24,00441
 290,65; 8585,871;  181,692;34263,716;24,65868
 291,24; 8827,037;  195,614;34488,632;25,16962
 291,84; 8973,186;  201,230;34520,545;25,55982
 292,44; 9165,740;  191,842;34812,683;25,92051
 293,03; 9392,713;  268,691;34872,814;26,36687
 293,63; 9517,384;  175,384;35013,205;26,81568
 294,22; 9714,623;  208,691;35156,411;27,20044
 294,82; 9825,850;  181,233;35230,048;27,51767
 295,41; 9808,356;  172,230;35020,740;27,65147
 296,01; 9930,665;  215,771;34851,714;28,04859
 296,61; 9902,497;  211,691;34644,620;28,14401
 297,20; 9791,408;  196,386;34194,191;28,22248
 297,80; 9787,809;  201,228;34061,784;28,31194
 298,39; 9684,817;  171,000;33672,439;28,39824
 298,99; 9671,743;  206,847;33398,938;28,51552
 299,58; 9577,605;  207,151;33269,916;28,34141
 300,18; 9472,648;  211,536;33125,583;28,13726
 300,78; 9326,893;  181,767;32747,549;28,08201
 301,37; 9312,413;  206,080;32666,643;28,05353
 301,97; 9284,195;  194,922;32663,059;27,99444
 302,56; 9229,872;  189,692;32606,959;27,88693
 303,16; 9137,001;  174,000;32460,454;27,76087
 303,75; 9061,453;  188,536;32562,953;27,40719
 304,35; 9106,033;  176,765;32753,781;27,40972
 304,94; 9072,459;  180,460;32747,860;27,30337
 305,54; 8990,751;  205,921;32713,112;27,02427
 306,13; 8891,405;  160,072;32644,680;26,87837
 306,73; 8785,232;  170,689;32349,614;26,77076
 307,33; 8737,024;  203,997;32275,037;26,60664
 307,92; 8647,283;  202,306;32339,834;26,27762
 308,52; 8705,782;  176,000;32818,017;26,13130
 309,11; 8747,830;  174,848;33297,265;25,88272
 309,71; 8756,596;  168,848;33647,171;25,65166
 310,30; 8821,680;  177,614;33772,244;25,73050
 310,90; 8835,142;  204,460;34163,320;25,41511
 311,49; 8745,661;  187,537;34238,171;25,13352
 312,09; 8660,218;  164,074;34536,680;24,71778
 312,68; 8813,353;  240,460;34839,307;24,77797
 313,28; 8644,283;  155,383;35060,450;24,31997
 313,87; 8585,862;  152,229;35146,163;24,10027
 314,47; 8603,501;  180,540;35476,316;23,86393
 315,06; 8533,208;  169,460;35539,923;23,64614
 315,66; 8509,603;  162,151;35742,295;23,46098
 316,25; 8401,173;  140,769;35774,373;23,18150
 316,85; 8303,374;  153,843;35797,999;22,86358
 317,44; 8234,141;  172,078;35959,366;22,52773
 318,04; 8130,447;  160,384;36025,937;22,22205
 318,63; 8028,555;  162,689;36119,201;21,87606
 319,22; 8033,407;  171,385;36402,396;21,69971
 319,82; 7983,350;  183,230;36309,770;21,59111
 320,41; 7827,010;  193,231;36238,756;21,17816
 321,01; 7768,059;  192,305;36331,106;20,96294
 321,60; 7679,152;  186,153;36366,340;20,71023
 322,20; 7537,393;  174,460;36318,943;20,37084
 322,79; 7515,993;  210,460;36338,971;20,22096
 323,39; 7429,166;  167,688;36323,390;20,08391
 323,98; 7309,290;  167,844;36263,882;19,78457
 324,58; 7227,952;  185,693;36145,220;19,58385
 325,17; 7125,684;  181,308;35881,607;19,45187
 325,76; 7005,691;  198,229;35771,487;19,13646
 326,36; 6852,012;  151,151;35305,037;19,06151
 326,95; 6756,601;  189,922;35019,238;18,85388
 327,55; 6624,256;  163,230;34558,863;18,78444
 328,14; 6493,936;  179,074;34166,261;18,58013
 328,74; 6365,348;  205,231;33771,918;18,35188
 329,33; 6240,303;  193,690;33379,361;18,22055
 329,92; 6047,402;  167,386;32813,528;18,01136
 330,52; 5958,555;  196,151;32153,977;18,03128
 331,11; 5783,168;  179,692;31699,773;17,77748
 331,71; 5620,793;  182,153;31115,460;17,58183
 332,30; 5510,997;  198,768;30717,937;17,40621
 332,89; 5416,745;  233,075;30098,212;17,35693
 333,49; 5255,232;  189,384;29578,441;17,23719
 334,08; 5132,702;  174,076;29044,815;17,17526
 334,68; 5014,903;  186,384;28611,345;16,98690
 335,27; 5009,855;  194,381;28350,526;17,10274
 335,86; 4919,245;  249,768;27955,389;16,85390
 336,46; 4824,888;  192,689;27648,943;16,87120
 337,05; 4753,060;  179,153;27484,830;16,75075
 337,65; 4700,072;  158,384;27252,778;16,76246
 338,24; 4731,243;  223,537;27227,582;16,69271
 338,83; 4707,183;  205,690;27125,335;16,72196
 339,43; 4664,668;  179,692;27056,559;16,68712
 340,02; 4665,878;  181,308;26895,321;16,78733
 340,61; 4648,577;  179,844;26917,874;16,71302
 341,21; 4655,886;  214,308;26952,457;16,61139
 341,80; 4685,286;  180,923;26907,410;16,85355
 342,40; 4671,418;  181,458;26929,268;16,78627
 342,99; 4670,053;  189,613;27021,058;16,69847
 343,58; 4708,610;  180,075;27137,592;16,79879
 344,18; 4735,968;  199,151;27269,761;16,75920
 344,77; 4768,677;  170,385;27492,713;16,82980
 345,36; 4859,601;  161,615;27846,392;16,96957
 345,96; 4949,026;  198,690;28131,843;17,00609
 346,55; 4997,430;  172,073;28456,960;17,05984
 347,14; 5079,542;  170,458;28769,491;17,16521
 347,74; 5162,610;  148,302;29160,759;17,28329
 348,33; 5285,665;  173,994;29804,201;17,25155
 348,92; 5477,956;  195,609;30423,435;17,47512
 349,52; 5553,681;  170,225;30931,705;17,50064
 350,11; 5652,781;  185,001;31215,313;17,62077
 350,70; 5675,991;  170,229;31228,960;17,72694
 351,29; 5646,939;  158,311;30962,241;17,81795
 351,89; 5691,199;  190,617;31001,140;17,85293
 352,48; 5748,636;  153,229;31009,737;18,13364
 353,07; 5789,872;  193,996;31000,125;18,16481
 353,67; 5821,099;  185,608;30951,114;18,31756
 354,26; 5816,635;  186,535;30730,078;18,43303
 354,85; 5831,036;  182,920;30545,530;18,60221
 355,45; 5809,588;  165,692;30258,297;18,75509
 356,04; 5839,076;  167,996;30188,602;18,89062
 356,63; 5895,557;  205,384;29986,963;19,10635
 357,22; 5900,418;  189,464;29844,833;19,25774
 357,82; 5904,525;  182,540;29676,680;19,40041
 358,41; 5928,181;  206,845;29549,484;19,49837
 359,00; 5908,607;  165,769;29312,145;19,70344
 359,60; 5976,073;  181,767;29292,534;19,90434
 360,19; 5962,882;  186,150;29105,350;19,97542
 360,78; 6003,118;  191,692;28895,527;20,24617
 361,37; 6016,873;  181,999;28727,721;20,44045
 361,97; 6046,300;  184,153;28571,517;20,65055
 362,56; 5998,933;  168,308;28367,532;20,67654
 363,15; 6080,284;  224,769;28102,321;21,00441
 363,74; 6000,733;  179,463;27700,405;21,15215
 364,34; 5971,451;  203,231;27330,364;21,26366
 364,93; 5922,467;  172,616;26921,727;21,49548
 365,52; 5886,860;  150,615;26533,081;21,74264
 366,11; 5873,315;  173,462;26246,117;21,86142
 366,71; 5839,254;  174,308;25909,858;22,01214
 367,30; 5859,493;  176,768;25576,757;22,37294
 367,89; 5837,573;  227,459;25283,825;22,38997
 368,48; 5804,397;  189,847;24970,178;22,65728
 369,07; 5743,068;  195,075;24595,960;22,73685
 369,67; 5733,449;  212,232;24276,975;22,94318
 370,26; 5729,886;  177,537;23979,656;23,32712
 370,85; 5703,691;  191,076;23787,571;23,36201
 371,44; 5690,437;  189,076;23459,918;23,64057
 372,03; 5662,005;  159,616;23196,490;23,88514
 372,63; 5643,295;  165,307;22969,866;24,02146
 373,22; 5618,126;  182,922;22643,118;24,19927
 373,81; 5596,983;  162,307;22354,830;24,48877
 374,40; 5550,952;  180,612;22094,310;24,50677
 374,99; 5573,359;  176,538;21767,155;24,99614
 375,59; 5536,517;  155,612;21554,756;25,14542
 376,18; 5549,808;  196,538;21433,592;25,20722
 376,77; 5533,240;  192,307;21193,577;25,43148
 377,36; 5565,336;  204,845;21128,733;25,61900
 377,95; 5528,379;  189,000;20917,246;25,75895
 378,55; 5498,367;  164,151;20631,029;26,06268
 379,14; 5538,936;  190,615;20586,608;26,22241
 379,73; 5548,043;  189,461;20544,173;26,32600
 380,32; 5622,700;  186,691;20583,411;26,65139
 380,91; 5604,878;  173,001;20447,481;26,79169
 381,50; 5667,842;  187,001;20344,342;27,19030
 382,10; 5601,470;  167,768;20258,642;27,04562
 382,69; 5624,119;  157,153;20295,462;27,14710
 383,28; 5690,894;  197,154;20138,138;27,54999
 383,87; 5691,478;  172,385;20029,349;27,79424
 384,46; 5720,436;  162,463;19994,271;28,02555
 385,05; 5763,826;  193,693;20015,832;28,10057
 385,64; 5800,776;  175,692;19961,040;28,43055
 386,24; 5759,695;  171,002;19941,114;28,26839
 386,83; 5864,935;  195,079;19974,191;28,66587
 387,42; 5924,594;  190,923;20046,428;28,87698
 388,01; 6047,605;  189,542;20198,736;29,27686
 388,60; 6143,965;  184,002;20496,808;29,34091
 389,19; 6231,310;  159,698;20683,408;29,58341
 389,78; 6338,414;  166,005;20945,694;29,70405
 390,37; 6572,936;  238,849;21365,979;29,98082
 390,96; 6608,354;  184,694;21537,774;30,08306
 391,56; 6762,509;  189,006;21694,318;30,56688
 392,15; 6819,546;  177,851;21971,053;30,47600
 392,74; 6898,644;  146,239;22156,746;30,67810
 393,33; 7058,179;  177,699;22453,222;30,88808
 393,92; 7255,026;  189,087;22847,363;31,18480
 394,51; 7305,223;  165,930;23058,113;31,18660
 395,10; 7463,283;  203,321;23286,796;31,45091
 395,69; 7531,544;  189,936;23387,567;31,64810
 396,28; 7616,755;  191,323;23507,053;31,84731
 396,87; 7702,959;  190,403;23608,287;32,08042
 397,46; 7789,147;  193,713;23723,600;32,27994
 398,06; 7919,690;  198,639;23957,835;32,49711
 398,65; 7924,028;  185,876;23959,272;32,54963
 399,24; 8045,319;  199,108;24203,545;32,68651
 399,83; 8090,832;  172,733;24107,438;33,08209
 400,42; 8229,113;  209,664;24252,140;33,35533
 401,01; 8277,758;  170,828;24475,553;33,35536
 401,60; 8335,172;  188,303;24448,876;33,58069
 402,19; 8354,643;  210,622;24381,761;33,69316
 402,78; 8401,146;  209,869;24396,616;33,86680
 403,37; 8422,118;  181,961;24260,819;34,22154
 403,96; 8392,696;  183,826;24039,693;34,41028
 404,55; 8365,756;  192,769;24046,306;34,26321
 405,14; 8362,452;  179,249;23930,202;34,45421
 405,73; 8358,202;  193,502;23791,740;34,59877
 406,32; 8390,538;  208,209;23724,307;34,79459
 406,91; 8279,292;  188,764;23443,637;34,79068
 407,50; 8266,771;  194,004;23323,703;34,90217
 408,09; 8244,702;  172,702;22973,257;35,40265
 408,68; 8213,833;  188,706;22829,001;35,44621
 409,27; 8178,397;  166,932;22604,255;35,70597
 409,86; 8193,959;  176,611;22514,286;35,89159
 410,45; 8213,451;  213,907;22455,723;35,96624
 411,04; 8192,366;  217,435;22340,150;36,04861
 411,63; 8123,526;  187,112;22127,319;36,17292
 412,22; 8111,911;  203,483;21937,697;36,38700
 412,81; 8024,511;  203,556;21728,187;36,33491
 413,40; 7912,118;  211,703;21343,698;36,43960
 413,99; 7879,038;  247,321;21016,168;36,74598
 414,58; 7728,670;  172,396;20604,434;36,98248
 415,17; 7659,190;  184,402;20360,535;37,04767
 415,76; 7650,744;  175,715;20190,141;37,34821
 416,35; 7530,368;  170,943;20047,469;37,02571
 416,94; 7650,067;  197,713;20033,318;37,57059
 417,53; 7748,169;  180,170;20318,059;37,58090
 418,12; 7799,109;  182,246;20415,709;37,64488
 418,71; 7919,261;  205,395;20766,531;37,51673
 419,30; 7982,337;  188,246;20759,218;37,88879
 419,89; 8052,473;  167,706;21004,516;37,84057
 420,48; 8198,647;  202,395;21228,928;38,02934
 421,07; 8246,043;  193,471;21376,466;38,01432
 421,66; 8276,871;  163,699;21392,810;38,21720
 422,25; 8321,502;  179,002;21367,301;38,42923
 422,84; 8293,762;  209,077;21350,053;38,24178
 423,43; 8220,824;  180,695;21079,670;38,47140
 424,02; 8125,759;  195,694;20932,824;38,24090
 424,60; 7970,896;  179,226;20440,807;38,45539
 425,19; 7912,779;  194,153;20143,773;38,69059
 425,78; 7916,834;  211,614;20072,978;38,79502
 426,37; 7837,080;  206,842;19852,130;38,84004
 426,96; 7816,296;  190,688;19822,632;38,84286
 427,55; 7770,345;  188,454;19616,879;39,02473
 428,14; 7668,987;  168,299;19439,832;38,92108
 428,73; 7659,939;  198,763;19279,193;39,10381
 429,32; 7597,701;  197,689;19223,107;38,89540
 429,91; 7666,543;  220,609;19211,257;39,20843
 430,50; 7609,377;  205,607;19050,508;39,28792
 431,08; 7514,563;  199,990;18813,123;39,29792
 431,67; 7539,455;  239,142;18781,071;39,37192
 432,26; 7507,128;  247,987;18596,275;39,56305
 432,85; 7343,238;  273,833;18352,621;39,10331
 433,44; 7235,825;  270,139;18002,355;39,28266
 434,03; 7089,512;  278,981;17613,102;39,28974
 434,62; 6916,907;  237,138;17158,468;39,47544
 435,21; 6873,769;  257,141;16913,401;39,72457
 435,79; 6767,326;  246,137;16779,480;39,44266
 436,38; 6707,442;  237,826;16683,348;39,33968
 436,97; 6683,100;  238,287;16601,528;39,38592
 437,56; 6563,443;  238,205;16389,725;39,16187
 438,15; 6558,533;  217,052;16215,391;39,63837
 438,74; 6554,392;  248,590;16349,640;39,16392
 439,33; 6552,790;  229,514;16357,221;39,20753
 439,91; 6552,955;  194,281;16369,426;39,31139
 440,50; 6593,854;  238,435;16450,684;39,20134
 441,09; 6637,879;  218,586;16542,689;39,32402
 441,68; 6592,047;  218,583;16520,899;39,09545
 442,27; 6629,215;  204,046;16485,653;39,46275
 442,86; 6579,514;  183,117;16515,549;39,16378
 443,44; 6612,558;  195,810;16582,850;39,15746
 444,03; 6700,979;  263,732;16664,957;39,24857
 444,62; 6578,501;  192,886;16502,217;39,15314
 445,21; 6520,713;  210,271;16323,459;39,16321
 445,80; 6506,124;  239,114;16203,456;39,25630
 446,39; 6440,462;  265,345;15965,791;39,33084
 446,97; 6295,577;  200,880;15789,948;39,09597
 447,56; 6181,620;  197,031;15634,320;38,76710
 448,15; 6080,037;  195,034;15436,013;38,61302
 448,74; 6022,108;  210,572;15133,574;38,94347
 449,33; 5979,575;  201,185;15013,821;39,00987
 449,91; 5885,462;  202,105;14746,547;39,07580
 450,50; 5778,152;  187,337;14553,772;38,91581
 451,09; 5753,809;  209,105;14442,018;38,95691
 451,68; 5698,598;  225,258;14373,230;38,68639
 452,26; 5670,743;  217,641;14251,524;38,85669
 452,85; 5601,705;  196,334;14177,386;38,66212
 453,44; 5595,112;  211,715;14144,950;38,63710
 454,03; 5569,937;  178,948;14121,827;38,66482
 454,61; 5552,428;  184,330;14107,394;38,55544
 455,20; 5607,759;  222,097;14295,322;38,26885
 455,79; 5599,505;  211,946;14258,957;38,35378
 456,38; 5629,944;  209,864;14354,534;38,31889
 456,97; 5610,248;  186,788;14452,517;38,01741
 457,55; 5632,851;  192,402;14416,307;38,24863
 458,14; 5639,972;  216,019;14424,390;38,17434
 458,73; 5594,398;  203,401;14383,751;38,01737
 459,31; 5593,022;  230,014;14392,002;37,86903
 459,90; 5625,399;  243,400;14434,660;37,92474
 460,49; 5706,577;  267,939;14582,178;37,99460
 461,08; 5630,318;  197,244;14616,272;37,67989
 461,66; 5719,941;  198,476;14700,825;38,07291
 462,25; 5717,457;  200,935;14813,825;37,75107
 462,84; 5740,557;  234,012;14852,023;37,66959
 463,43; 5678,904;  176,624;14775,423;37,68995
 464,01; 5711,537;  201,469;14800,932;37,74158
 464,60; 5714,923;  249,010;14786,521;37,59869
 465,19; 5548,988;  176,160;14493,528;37,52665
 465,77; 5565,903;  195,082;14526,436;37,47602
 466,36; 5565,458;  219,086;14400,241;37,70054
 466,95; 5381,667;  198,701;14026,677;37,48174
 467,53; 5293,900;  199,080;13759,380;37,57158
 468,12; 5198,495;  228,695;13544,136;37,32359
 468,71; 5076,874;  193,468;13299,069;37,26198
 469,29; 4961,505;  183,849;13007,745;37,25588
 469,88; 4862,936;  192,078;12764,020;37,15303
 470,47; 4929,678;  252,615;12833,138;37,17701
 471,06; 4858,312;  202,153;12805,134;36,94490
 471,64; 4888,170;  211,384;12907,858;36,83531
 472,23; 4860,546;  186,226;12930,164;36,67878
 472,81; 4928,023;  186,305;13043,328;36,88037
 473,40; 4940,441;  190,841;13149,629;36,65158
 473,99; 5092,396;  288,456;13380,034;36,69489
 474,57; 5032,499;  199,533;13477,864;36,39739
 475,16; 5086,914;  196,689;13600,674;36,48336
 475,75; 5171,563;  224,916;13779,423;36,49448
 476,33; 5210,384;  225,837;13897,880;36,45796
 476,92; 5190,160;  217,302;13869,530;36,42525
 477,51; 5210,176;  216,838;13962,847;36,32573
 478,09; 5211,701;  213,992;14007,964;36,23111
 478,68; 5168,767;  208,991;13962,252;36,06255
 479,27; 5225,259;  230,839;13985,062;36,31190
 479,85; 5153,303;  203,299;13961,613;35,97827
 480,44; 5144,989;  193,529;14058,552;35,71188
 481,02; 5590,157;  207,758;15305,018;35,65150
 481,61; 6353,814;  231,528;17413,058;35,63295
 482,20; 6763,928;  218,604;18571,338;35,66403
 482,78; 7049,980;  245,837;19481,096;35,37328
 483,37; 7207,736;  230,524;20061,982;35,18254
 483,95; 7330,857;  262,139;20301,097;35,27488
 484,54; 7333,345;  266,374;20550,691;34,83958
 485,13; 7358,622;  227,137;20451,869;35,26121
 485,71; 7227,324;  204,907;20240,812;35,04916
 486,30; 7146,541;  239,292;19893,698;35,14351
 486,88; 7035,433;  279,753;19639,133;34,89616
 487,47; 6790,171;  270,290;18925,645;34,94911
 488,05; 6453,412;  243,366;18025,248;34,92345
 488,64; 5976,342;  239,672;16788,725;34,66464
 489,23; 5346,780;  249,827;15007,334;34,53803
 489,81; 4602,781;  243,673;12751,097;34,85216
 490,40; 4293,546;  214,826;12109,901;34,28914
 490,98; 4223,645;  191,518;11797,836;34,74080
 491,57; 4133,895;  223,827;11708,556;34,04580
 492,15; 4119,239;  209,210;11599,349;34,32819
 492,74; 4069,802;  210,520;11461,668;34,30123
 493,32; 4052,502;  220,826;11430,926;34,18057
 493,91; 3983,434;  211,978;11329,895;33,92233
 494,50; 3981,389;  211,282;11331,390;33,90351
 495,08; 3908,092;  195,975;11214,787;33,68890
 495,67; 3941,657;  226,671;11240,913;33,72893
 496,25; 3847,910;  173,130;11087,669;33,66867
 496,84; 3841,453;  186,748;11106,512;33,46872
 497,42; 3812,267;  181,130;11060,973;33,37490
 498,01; 3793,342;  208,747;11033,770;33,11397
 498,59; 3732,044;  168,129;10928,494;33,12076
 499,18; 3719,640;  177,978;10881,153;33,08983
 499,76; 3681,142;  199,515;10790,219;32,87437
 500,35; 3602,074;  200,589;10642,317;32,57588
 500,93; 3579,402;  190,668;10574,132;32,63587
 501,52; 3574,581;  190,206;10551,175;32,66466
 502,10; 3532,665;  205,511;10526,869;32,23563
 502,69; 3448,236;  188,279;10359,953;32,04937
 503,27; 3392,638;  174,667;10156,000;32,23990
 503,86; 3370,099;  193,818;10068,943;32,16447
 504,44; 3310,069;  161,201; 9998,986;32,00789
 505,03; 3217,315;  156,509; 9755,112;31,88804
 505,61; 3162,594;  169,740; 9619,199;31,67223
 506,19; 3142,097;  192,355; 9470,367;31,79282
 506,78; 3033,151;  161,968; 9293,445;31,44270
 507,36; 2997,448;  168,740; 9133,105;31,55504
 507,95; 2953,550;  182,967; 8994,083;31,44418
 508,53; 2886,287;  179,429; 8821,077;31,32340
 509,12; 2856,494;  173,967; 8734,174;31,33717
 509,70; 2814,356;  200,274; 8573,447;31,21973
 510,29; 2760,297;  210,427; 8464,494;30,89229
 510,87; 2666,794;  171,429; 8210,672;31,03980
 511,46; 2606,117;  170,429; 8069,317;30,83583
 512,04; 2550,706;  175,274; 7955,089;30,53328
 512,62; 2530,103;  188,275; 7784,588;30,82847
 513,21; 2439,624;  168,119; 7629,643;30,44291
 513,79; 2393,114;  171,730; 7494,338;30,33597
 514,38; 2334,355;  157,886; 7341,287;30,29859
 514,96; 2336,964;  191,193; 7250,547;30,39612
 515,54; 2258,925;  163,577; 7133,301;30,06357
 516,13; 2252,594;  183,192; 7010,571;30,31034
 516,71; 2185,407;  180,729; 6917,737;29,75620
 517,30; 2123,722;  161,189; 6758,771;29,74624
 517,88; 2128,658;  193,805; 6690,104;29,78393
 518,46; 2055,139;  170,804; 6572,477;29,43503
 519,05; 2053,154;  174,187; 6545,270;29,49211
 519,63; 2053,922;  186,188; 6458,123;29,77924
 520,22; 2001,833;  179,724; 6457,674;29,02395
 520,80; 1974,901;  170,416; 6337,135;29,26167
 521,38; 1993,436;  213,879; 6353,682;28,98395
 521,97; 1930,993;  175,492; 6263,235;28,83665
 522,55; 1932,715;  184,338; 6244,551;28,85010
 523,13; 1918,647;  174,491; 6258,604;28,66738
 523,72; 1879,997;  169,727; 6219,425;28,27034
 524,30; 1953,167;  194,721; 6391,595;28,37635
 524,89; 1908,292;  173,107; 6334,772;28,16097
 525,47; 1957,581;  190,797; 6489,354;28,05061
 526,05; 1951,188;  152,874; 6532,442;28,18866
 526,64; 1981,023;  189,027; 6654,410;27,71678
 527,22; 2014,502;  184,951; 6785,573;27,71786
 527,80; 2076,757;  220,565; 6913,982;27,73161
 528,39; 2058,720;  173,180; 7036,977;27,47080
 528,97; 2082,384;  172,950; 7170,449;27,28738
 529,55; 2122,524;  193,337; 7329,470;27,03407
 530,14; 2199,399;  209,256; 7567,857;27,04513
 530,72; 2181,601;  169,027; 7659,566;26,86821
 531,30; 2188,928;  158,641; 7826,779;26,47693
 531,89; 2254,205;  183,871; 7956,836;26,63505
 532,47; 2279,759;  208,332; 8053,185;26,40492
 533,05; 2258,156;  208,104; 8041,403;26,17099
 533,63; 2269,645;  204,794; 8111,496;26,11520
 534,22; 2259,538;  169,178; 8174,641;26,11167
 534,80; 2277,737;  196,946; 8252,128;25,83172
 535,38; 2352,582;  282,333; 8309,693;25,78991
 535,97; 2267,392;  195,948; 8295,323;25,57536
 536,55; 2295,436;  232,484; 8338,252;25,45042
 537,13; 2258,663;  216,487; 8309,658;25,23332
 537,71; 2289,057;  249,026; 8369,429;25,12229
 538,30; 2281,955;  252,408; 8430,809;24,81593
 538,88; 2287,640;  292,559; 8447,704;24,46407
 539,46; 2366,306;  320,638; 8701,444;24,40896
 540,05; 2361,655;  339,945; 8767,990;23,98789
 540,63; 2403,611;  362,406; 8989,329;23,66087
 541,21; 2448,501;  385,790; 9113,811;23,63320
 541,79; 2482,084;  397,636; 9197,790;23,68650
 542,38; 2477,972;  425,329; 9321,452;23,07345
 542,96; 2496,968;  436,788; 9488,910;22,75908
 543,54; 2570,679;  449,251; 9680,245;22,98158
 544,12; 2575,647;  418,020; 9845,668;22,88616
 544,70; 2558,618;  404,404; 9954,723;22,55647
 545,29; 2628,281;  428,791;10128,695;22,67538
 545,87; 2615,700;  400,944;10162,098;22,68949
 546,45; 2581,984;  375,483;10173,708;22,51940
 547,03; 2603,439;  366,483;10291,558;22,53843
 547,62; 2593,951;  335,559;10428,105;22,37683
 548,20; 2638,454;  356,404;10668,344;22,13018
 548,78; 2640,624;  335,939;10747,867;22,13504
 549,36; 2664,722;  311,016;10948,123;22,12731
 549,94; 2667,856;  267,943;11115,873;22,12323
 550,53; 2714,061;  280,401;11286,919;22,11108
 551,11; 2706,872;  246,477;11561,767;21,74399
 551,69; 2791,058;  265,709;11830,735;21,83609
 552,27; 2823,456;  225,556;12098,478;21,88088
 552,85; 2870,733;  235,477;12501,419;21,48433
 553,44; 2913,595;  232,093;12889,185;21,18577
 554,02; 3012,564;  248,323;13173,620;21,38629
 554,60; 2982,386;  197,630;13517,717;20,90644
 555,18; 3097,922;  236,093;13900,411;20,94381
 555,76; 3133,195;  220,631;14274,591;20,72415
 556,34; 3212,836;  232,014;14686,910;20,62154
 556,93; 3307,310;  210,016;15035,742;20,89134
 557,51; 3338,315;  199,090;15421,509;20,62238
 558,09; 3413,801;  215,324;15774,905;20,55632
 558,67; 3481,159;  217,935;16174,394;20,45080
 559,25; 3536,188;  237,936;16536,179;20,23686
 559,83; 3555,582;  218,242;16829,225;20,09116
 560,41; 3588,040;  206,860;17187,932;19,91146
 561,00; 3643,805;  217,935;17474,645;19,85239
 561,58; 3654,806;  208,937;17768,524;19,62386
 562,16; 3694,612;  202,784;18029,066;19,58809
 562,74; 3742,150;  185,170;18404,996;19,52258
 563,32; 3808,827;  179,781;18761,107;19,53061
 563,90; 3861,867;  211,243;19167,289;19,25836
 564,48; 3928,089;  216,938;19686,569;19,06123
 565,06; 4023,738;  201,397;20282,954;19,03408
 565,65; 4123,395;  213,241;20943,007;18,86251
 566,23; 4275,545;  254,012;21641,637;18,80308
 566,81; 4338,971;  208,244;22412,754;18,60310
 567,39; 4450,869;  213,934;23309,134;18,34552
 567,97; 4601,133;  233,320;23913,736;18,44483
 568,55; 4740,547;  242,089;24749,411;18,35557
 569,13; 4810,562;  209,089;25440,005;18,23744
 569,71; 4918,626;  207,092;26423,334;17,97181
 570,29; 5151,231;  241,939;27389,500;18,08373
 570,87; 5217,586;  242,015;28115,946;17,85027
 571,45; 5317,187;  222,936;28794,391;17,82986
 572,03; 5326,725;  197,857;29236,897;17,66198
 572,61; 5432,315;  182,396;29951,169;17,63566
 573,20; 5529,748;  211,475;30576,666;17,51437
 573,78; 5622,996;  203,781;31279,233;17,43889
 574,36; 5686,799;  211,089;31864,976;17,29870
 574,94; 5739,966;  270,780;32166,276;17,14720
 575,52; 5704,809;  208,854;32470,291;17,03568
 576,10; 5805,909;  265,855;33010,950;16,91873
 576,68; 5844,909;  239,780;33550,136;16,82699
 577,26; 5931,695;  254,315;34250,825;16,69989
 577,84; 5992,234;  259,550;34737,068;16,62731
 578,42; 6047,582;  303,010;35117,731;16,50041
 579,00; 5947,935;  247,319;35252,051;16,28527
 579,58; 6027,352;  284,164;35377,519;16,36546
 580,16; 5963,390;  242,625;35402,503;16,27072
 580,74; 5934,226;  255,086;35646,567;16,04663
 581,32; 5932,697;  255,318;35818,894;15,96403
 581,90; 5912,927;  272,471;35668,722;15,93518
 582,48; 5886,637;  264,625;35804,705;15,81879
 583,06; 5890,077;  265,318;35927,628;15,77228
 583,64; 5867,857;  251,933;36083,795;15,67299
 584,22; 5810,051;  261,469;35959,758;15,54299
 584,80; 5748,368;  268,779;35729,253;15,45267
 585,38; 5638,771;  280,783;35256,165;15,31931
 585,96; 5610,051;  250,011;35369,899;15,26212
 586,54; 5594,395;  256,777;35416,975;15,18085
 587,12; 5514,297;  244,470;35611,205;14,90052
 587,70; 5576,964;  276,934;35710,117;14,95781
 588,28; 5526,541;  255,778;35840,626;14,81182
 588,86; 5512,969;  260,547;36039,037;14,68039
 589,44; 5494,245;  240,468;36095,132;14,65298
 590,02; 5487,706;  251,853;36239,216;14,54914
 590,59; 5457,085;  241,470;36428,578;14,41291
 591,17; 5482,214;  236,235;36709,689;14,38301
 591,75; 5450,623;  233,851;36771,213;14,27791
 592,33; 5517,483;  249,468;36999,026;14,33491
 592,91; 5453,168;  206,620;37203,254;14,18115
 593,49; 5437,967;  218,926;37628,314;13,95115
 594,07; 5496,580;  230,003;37827,456;14,00780
 594,65; 5450,200;  248,546;37769,030;13,86350
 595,23; 5486,827;  234,699;38218,953;13,82712
 595,81; 5500,704;  231,929;38359,878;13,81867
 596,39; 5439,046;  213,083;38571,768;13,62394
 596,97; 5458,829;  220,158;38770,618;13,58913
 597,55; 5432,461;  224,930;38674,340;13,54385
 598,12; 5372,535;  201,695;38540,085;13,48737
 598,70; 5357,379;  206,466;38749,009;13,36423
 599,28; 5402,811;  232,542;38871,309;13,38104
 599,86; 5365,914;  217,466;38951,524;13,29179
 600,44; 5312,700;  185,465;39035,797;13,19740
 601,02; 5343,941;  241,232;39123,060;13,12363
 601,60; 5261,701;  215,698;39094,148;12,97892
 602,18; 5244,501;  195,926;39076,425;12,98485
 602,75; 5220,945;  195,237;39177,121;12,89242
 603,33; 5221,765;  214,850;39245,406;12,82819
 603,91; 5148,268;  194,002;39261,927;12,68116
 604,49; 5186,599;  223,927;39273,073;12,70878
 605,07; 5176,483;  224,390;39297,558;12,67390
 605,65; 5135,876;  227,542;39418,200;12,52424
 606,23; 5151,663;  274,855;39461,818;12,44498
 606,80; 5141,299;  307,699;39502,947;12,33211
 607,38; 5134,581;  318,771;39556,904;12,27329
 607,96; 5113,066;  360,776;39621,551;12,10442
 608,54; 5140,767;  410,157;39599,257;12,07124
 609,12; 5129,807;  404,930;39720,093;12,01795
 609,70; 5076,635;  434,927;39697,751;11,82214
 610,27; 5050,783;  426,315;39786,447;11,74912
 610,85; 5079,478;  457,312;39788,650;11,75186
 611,43; 5053,979;  444,850;39796,653;11,71262
 612,01; 4969,938;  416,467;39598,895;11,62121
 612,59; 4992,696;  412,466;39560,472;11,69978
 613,16; 4932,006;  397,546;39632,394;11,55722
 613,74; 4907,505;  378,773;39432,244;11,59623
 614,32; 4901,278;  357,849;39434,414;11,62699
 614,90; 4857,540;  330,236;39342,313;11,60488
 615,48; 4772,477;  299,623;38964,465;11,56827
 616,05; 4699,583;  272,931;39056,942;11,41360
 616,63; 4731,305;  278,932;38791,187;11,56092
 617,21; 4671,383;  278,007;38676,398;11,44156
 617,79; 4639,340;  273,622;38622,577;11,38419
 618,36; 4626,836;  286,236;38544,922;11,34540
 618,94; 4510,205;  231,161;38294,367;11,24194
 619,52; 4494,942;  256,470;37952,822;11,24372
 620,10; 4463,040;  244,237;37875,951;11,21076
 620,67; 4428,583;  249,547;37827,948;11,12084
 621,25; 4425,686;  257,313;37741,407;11,12038
 621,83; 4374,913;  245,776;37713,339;11,02056
 622,41; 4411,449;  285,315;37642,930;11,04496
 622,98; 4356,995;  247,778;37429,406;11,05174
 623,56; 4355,942;  252,317;37384,598;11,05137
 624,14; 4269,564;  253,389;37297,498;10,84160
 624,72; 4277,466;  246,238;37101,529;10,93799
 625,29; 4222,835;  228,778;37234,743;10,79301
 625,87; 4247,602;  271,391;37126,674;10,78871
 626,45; 4193,470;  231,009;36992,603;10,77881
 627,02; 4191,575;  240,237;37019,844;10,74329
 627,60; 4147,467;  230,773;36896,554;10,68215
 628,18; 4158,192;  217,237;36903,554;10,74230
 628,76; 4122,061;  209,932;36920,316;10,65674
 629,33; 4142,745;  250,623;36931,232;10,61084
 629,91; 4157,501;  236,622;36948,028;10,68028
 630,49; 4183,504;  254,316;37162,699;10,64579
 631,06; 4142,989;  243,854;37226,044;10,54328
 631,64; 4133,152;  240,471;37165,821;10,54203
 632,22; 4121,713;  201,856;37070,327;10,63200
 632,79; 4150,837;  237,779;37406,242;10,52790
 633,37; 4135,109;  209,544;37473,955;10,53436
 633,95; 4176,668;  234,933;37398,033;10,60658
 634,52; 4180,695;  212,238;37577,440;10,62073
 635,10; 4196,141;  221,545;37629,770;10,62493
 635,68; 4195,575;  208,395;37925,299;10,57134
 636,25; 4168,356;  204,781;37798,645;10,54314
 636,83; 4193,831;  198,009;37987,855;10,57380
 637,41; 4171,796;  218,703;38097,535;10,43615
 637,98; 4218,685;  236,241;38204,184;10,48896
 638,56; 4219,867;  228,858;38341,821;10,47153
 639,13; 4215,931;  208,855;38451,354;10,47807
 639,71; 4295,837;  264,778;38621,441;10,50941
 640,29; 4153,617;  182,547;38366,398;10,39987
 640,86; 4263,786;  199,547;38491,526;10,61381
 641,44; 4220,415;  205,316;38561,347;10,46797
 642,02; 4264,891;  226,085;38575,553;10,53158
 642,59; 4253,291;  207,470;38675,527;10,51735
 643,17; 4237,151;  196,623;38595,502;10,52252
 643,74; 4259,781;  206,085;38715,400;10,52653
 644,32; 4267,488;  226,085;38576,451;10,53811
 644,89; 4270,887;  216,546;38611,964;10,55944
 645,47; 4241,748;  246,008;38755,093;10,37610
 646,05; 4243,916;  222,700;38647,221;10,46523
 646,62; 4206,546;  214,546;38622,965;10,39355
 647,20; 4238,637;  222,700;38717,478;10,43242
 647,77; 4209,344;  195,161;38595,607;10,45348
 648,35; 4197,435;  189,392;38590,889;10,43721
 648,92; 4214,450;  220,161;38523,402;10,42807
 649,50; 4206,157;  180,546;38501,531;10,50498
 650,08; 4194,556;  194,546;38399,890;10,46977
 650,65; 4210,186;  200,622;38652,096;10,42759
 651,23; 4273,815;  182,161;39302,916;10,45904
 651,80; 4384,061;  178,545;40265,122;10,49108
 652,38; 4459,690;  204,930;40710,020;10,50426
 652,95; 4500,782;  178,084;41102,225;10,56271
 653,53; 4509,335;  208,468;41348,123;10,45431
 654,10; 4581,349;  243,853;41449,636;10,52643
 654,68; 4534,979;  194,237;41334,303;10,55113
 655,25; 4534,224;  187,237;41435,277;10,53865
 655,83; 4546,931;  184,314;41562,329;10,54332
 656,40; 4569,792;  221,929;41446,611;10,54675
 656,98; 4552,422;  190,237;41432,586;10,57696
 657,55; 4557,590;  203,237;41315,791;10,59130
 658,13; 4536,374;  199,237;40992,843;10,63190
 658,70; 4539,696;  209,775;40791,587;10,66961
 659,28; 4435,172;  192,698;39840,869;10,70030
 659,85; 4352,186;  209,237;39000,844;10,68002
 660,43; 4376,047;  219,775;39124,203;10,68329
 661,00; 4386,677;  198,006;39221,101;10,73383
 661,58; 4438,614;  194,621;39508,922;10,79504
 662,15; 4436,629;  180,390;39768,435;10,75132
 662,73; 4541,182;  248,467;39980,102;10,80427
 663,30; 4541,889;  200,082;40219,461;10,84926
 663,88; 4571,749;  197,390;40358,590;10,89200
 664,45; 4566,302;  190,698;40653,026;10,81402
 665,03; 4632,394;  192,390;41064,001;10,86330
 665,60; 4807,023;  273,851;41464,591;11,00532
 666,17; 4737,422;  190,159;41678,258;10,96040
 666,75; 4796,206;  194,082;41881,309;11,03965
 667,32; 4842,990;  213,620;42262,361;11,00953
 667,90; 4879,927;  194,236;42503,258;11,07492
 668,47; 4931,480;  221,774;42809,541;11,05882
 669,05; 4946,495;  194,082;43048,669;11,08963
 669,62; 4909,048;  163,851;43173,336;11,03291
 670,19; 4989,293;  170,389;43296,388;11,17401
 670,77; 5035,000;  188,004;43513,132;11,18749
 671,34; 5037,322;  174,543;43338,953;11,26571
 671,92; 5095,567;  183,697;43911,619;11,23280
 672,49; 5113,736;  211,158;43706,825;11,27142
 673,06; 5126,673;  150,389;43916,184;11,37026
 673,64; 5175,457;  176,620;43822,236;11,45324
 674,21; 5143,702;  171,004;43760,980;11,40789
 674,79; 5228,101;  207,773;43964,493;11,47327
 675,36; 5252,116;  198,081;44106,314;11,51045
 675,93; 5252,669;  170,619;43908,904;11,61922
 676,51; 5285,529;  200,619;44220,955;11,55127
 677,08; 5313,005;  191,234;44277,084;11,61772
 677,65; 5355,712;  196,234;44315,135;11,69448
 678,23; 5432,880;  198,696;44683,802;11,76615
 678,80; 5421,279;  180,773;44676,392;11,77758
 679,38; 5488,217;  189,311;44864,598;11,86093
 679,95; 5523,385;  197,234;45102,572;11,86084
 680,52; 5578,323;  183,696;45448,547;11,91792
 681,10; 5639,799;  203,926;45727,599;11,94076
 681,67; 5723,352;  186,234;46008,419;12,08392
 682,24; 5719,982;  173,080;46130,625;12,06962
 682,82; 5813,996;  181,465;46771,369;12,08960
 683,39; 5904,011;  233,234;47027,420;12,11855
 683,96; 5948,794;  192,311;47280,549;12,22489
 684,54; 5993,655;  180,618;47623,831;12,25262
 685,11; 6084,669;  226,310;48023,652;12,25666
 685,68; 6087,222;  193,618;48420,704;12,22053
 686,25; 6141,237;  178,079;48516,986;12,33614
 686,83; 6207,405;  180,387;48818,961;12,39144
 687,40; 6272,804;  176,079;49034,320;12,47840
 687,97; 6390,126;  225,233;49489,602;12,51390
 688,55; 6368,064;  173,848;49522,962;12,55183
 689,12; 6405,540;  162,771;49761,782;12,58648
 689,69; 6473,247;  179,387;49803,911;12,68296
 690,26; 6515,953;  191,079;49945,809;12,71211
 690,84; 6579,430;  184,771;50148,706;12,79855
 691,41; 6645,367;  192,694;50198,219;12,90392
 691,98; 6700,458;  193,002;50512,810;12,93220
 692,56; 6707,627;  183,694;50592,707;12,94200
 693,13; 6781,487;  223,002;50538,836;13,03464
 693,70; 6794,579;  205,617;50834,118;13,01433
 694,27; 6861,363;  177,386;50995,093;13,15285
 694,84; 6882,069;  179,617;51017,298;13,18402
 695,42; 6980,699;  220,386;51176,965;13,26681
 695,99; 7009,098;  190,001;51417,248;13,31146
 696,56; 6989,497;  182,694;51156,299;13,35359
 697,13; 7091,050;  207,694;51581,428;13,39859
 697,71; 7085,988;  177,770;51594,248;13,43580
 698,28; 7162,772;  178,924;52017,069;13,47241
 698,85; 7181,863;  157,386;52084,044;13,52769
 699,42; 7210,954;  156,924;52295,249;13,52945
 699,99; 7293,584;  195,770;52357,532;13,60731
 700,57; 7340,214;  190,616;52287,429;13,72368
 701,14; 7380,690;  172,001;52534,481;13,76690
 701,71; 7454,089;  193,847;52707,456;13,82545
 702,28; 7462,565;  180,385;52761,507;13,84942
 702,85; 7526,657;  183,770;52757,867;13,96674
 703,43; 7581,671;  195,000;53109,303;13,95969
 704,00; 7627,532;  225,846;53298,200;13,94640
 704,57; 7648,777;  188,308;53241,483;14,06225
 705,14; 7751,484;  204,693;53547,842;14,14763
 705,71; 7807,652;  211,923;53606,432;14,22567
 706,28; 7808,205;  187,923;53464,945;14,30313
 706,86; 7887,912;  214,231;53782,151;14,32514
 707,43; 7914,234;  230,077;53584,202;14,40218
 708,00; 7914,633;  214,384;53657,485;14,40831
 708,57; 7904,494;  189,307;53490,767;14,47462
 709,14; 8005,508;  208,384;53757,280;14,56076
 709,71; 8053,446;  190,307;53798,101;14,66790
 710,28; 8167,306;  197,384;54061,229;14,79642
 710,86; 8183,936;  200,923;54161,589;14,79413
 711,43; 8253,258;  222,384;54122,025;14,89968
 712,00; 8276,734;  193,076;54291,461;14,94251
 712,57; 8360,672;  209,692;54422,436;15,03517
 713,14; 8428,917;  186,692;54615,180;15,14322
 713,71; 8451,470;  209,615;54441,616;15,19740
 714,28; 8456,331;  189,999;54444,898;15,23610
 714,85; 8464,422;  180,922;54281,950;15,31117
 715,42; 8530,283;  194,614;54422,463;15,37156
 716,00; 8628,297;  259,999;54624,284;15,39301
 716,57; 8658,850;  188,922;54722,797;15,53150
 717,14; 8656,249;  175,691;54671,848;15,56175
 717,71; 8718,341;  182,383;54716,285;15,65257
 718,28; 8789,355;  226,460;54748,413;15,70541
 718,85; 8815,062;  178,152;54758,080;15,82433
 719,42; 8895,538;  199,614;54955,362;15,88130
 719,99; 8895,937;  181,460;54696,799;15,98537
 720,56; 8993,721;  201,460;54985,543;16,04893
 721,13; 8986,581;  182,075;55051,594;16,04626
 721,70; 9049,519;  176,690;55040,492;16,17246
 722,27; 9153,918;  197,537;55019,082;16,33734
 722,84; 9206,471;  251,998;55151,518;16,31066
 723,41; 9196,485;  175,844;55253,339;16,37809
 723,98; 9292,115;  196,921;55421,852;16,46936
 724,55; 9363,360;  221,613;55549,827;16,52276
 725,12; 9342,144;  154,998;55408,878;16,62715
 725,69; 9457,928;  185,767;55554,545;16,74619
 726,27; 9494,327;  188,459;55666,443;16,77398
 726,84; 9579,495;  188,997;56010,418;16,82239
 727,41; 9643,279;  204,613;55920,238;16,94079
 727,98; 9729,755;  200,613;56292,752;16,98837
 728,55; 9748,693;  235,920;56085,880;17,03273
 729,12; 9723,245;  179,613;56366,701;16,98546
 729,69; 9823,337;  218,536;56498,137;17,06622
 730,26; 9882,582;  198,612;56717,035;17,13418
 730,82; 9904,827;  190,689;56459,548;17,26379
 731,39; 9957,073;  198,843;56629,061;17,29256
 731,96;10027,702;  173,151;56794,343;17,40435
 732,53;10140,871;  206,458;57074,549;17,46922
 733,10;10234,578;  202,766;57112,370;17,62763
 733,67;10272,900;  206,381;57475,421;17,57759
 734,24;10264,299;  185,458;57110,242;17,70554
 734,81;10330,544;  215,073;57262,986;17,73154
 735,38;10324,635;  201,535;56971,961;17,83164
 735,95;10343,804;  197,535;56860,858;17,90624
 736,52;10460,664;  201,765;57094,756;18,03192
 737,09;10485,140;  210,304;56723,961;18,18116
 737,66;10582,155;  259,996;56829,936;18,24672
 738,23;10620,708;  192,765;56942,295;18,37538
 738,80;10789,338;  254,919;57196,193;18,50050
 739,37;10805,352;  224,534;57498,014;18,47420
 739,94;10851,444;  194,457;57500,758;18,59653
 740,51;11006,843;  310,227;57614,733;18,66627
 741,07;10956,703;  195,919;57406,784;18,80899
 741,64;11052,641;  234,457;57608,220;18,85563
 742,21;11149,886;  187,688;57795,733;19,02894
 742,78;11154,439;  172,457;57523,477;19,14871
 743,35;11229,453;  204,995;57812,837;19,13708
 743,92;11317,699;  232,226;58029,042;19,18007
 744,49;11358,098;  231,841;57823,094;19,31935
 745,06;11368,958;  191,534;57820,761;19,39541
 745,63;11414,511;  178,303;57812,889;19,49560
 746,19;11490,757;  190,534;57810,941;19,61149
 746,76;11501,694;  197,226;57828,300;19,61523
 747,33;11569,093;  200,533;57869,813;19,71337
 747,90;11657,877;  222,456;58044,788;19,77682
 748,47;11702,353;  204,149;57973,147;19,90376
 749,04;11659,367;  215,225;57887,660;19,84335
 749,61;11789,074;  232,995;57852,173;20,05596
 750,17;11807,319;  222,225;57941,840;20,07133
 750,74;11864,949;  211,379;57862,738;20,21387
 751,31;11865,502;  187,456;57865,097;20,24709
 751,88;11865,671;  178,917;57652,303;20,33420
 752,45;11986,224;  203,456;57840,816;20,44293
 753,02;12007,084;  216,917;57704,867;20,50894
 753,58;12034,406;  192,686;57476,457;20,67203
 754,15;12105,882;  199,456;57633,124;20,73074
 754,72;12098,281;  194,763;57506,484;20,76978
 755,29;12171,527;  183,840;57409,843;20,94797
 755,86;12233,310;  206,148;57447,894;21,01117
 756,42;12293,325;  226,455;57413,946;21,10054
 756,99;12343,262;  178,071;57400,075;21,25964
 757,56;12320,738;  203,224;57351,434;21,20366
 758,13;12337,214;  155,378;57144,409;21,37576
 758,70;12452,075;  187,993;57317,614;21,46712
 759,26;12584,243;  192,224;57441,435;21,64575
 759,83;12570,027;  205,070;57455,256;21,59811
 760,40;12587,426;  187,070;57282,923;21,71849
 760,97;12611,364;  186,839;57433,897;21,70334
 761,53;12564,609;  171,070;57008,410;21,80528
 762,10;12602,854;  175,224;56977,000;21,87895
 762,67;12669,176;  207,531;57003,360;21,94113
 763,24;12558,960;  163,916;56540,180;21,98628
 763,80;12702,667;  194,993;56688,771;22,13991
 764,37;12662,835;  194,916;56606,437;22,10172
 764,94;12607,696;  166,762;56135,566;22,22834
 765,50;12666,556;  170,608;56097,848;22,34322
 766,07;12795,956;  206,916;56265,900;22,45677
 766,64;12711,432;  184,531;55785,875;22,52985
 767,21;12692,754;  186,223;55827,618;22,47703
 767,77;12789,845;  209,377;55700,439;22,67116
 768,34;12866,244;  192,761;55685,952;22,83791
 768,91;12846,874;  198,531;55527,081;22,86043
 769,47;12871,658;  197,223;55496,286;22,91980
 770,04;12886,826;  194,069;55355,569;23,01017
 770,61;12842,764;  177,607;55091,851;23,06352
 771,18;12937,932;  182,915;54981,672;23,27611
 771,74;13051,331;  192,607;55145,954;23,39935
 772,31;13039,653;  187,607;55001,390;23,44674
 772,88;12974,745;  168,376;54689,673;23,48874
 773,44;13016,913;  169,145;54458,186;23,66549
 774,01;13058,774;  204,376;54533,930;23,66005
 774,58;13033,250;  174,530;54241,904;23,78277
 775,14;13198,033;  174,607;54386,802;24,02306
 775,71;13266,202;  175,068;54334,623;24,17142
 776,27;13277,447;  238,299;54119,367;24,19987
 776,84;13344,461;  260,376;54216,188;24,24963
 777,41;13334,245;  196,299;53969,085;24,43233
 777,97;13341,336;  184,606;53678,599;24,59478
 778,54;13355,735;  199,453;53789,419;24,54990
 779,11;13424,596;  219,222;53787,625;24,65142
 779,67;13473,149;  169,683;53726,446;24,83994
 780,24;13469,856;  201,606;53570,113;24,86157
 780,80;13497,178;  197,683;53525,472;24,93915
 781,37;13602,423;  201,144;53451,600;25,16651
 781,94;13561,438;  190,683;53267,037;25,19155
 782,50;13578,298;  192,298;53131,550;25,28559
 783,07;13599,082;  215,606;53286,678;25,21802
 783,63;13593,097;  191,298;52880,191;25,43572
 784,20;13659,265;  223,529;53018,397;25,44894
 784,77;13621,587;  200,529;52755,525;25,53717
 785,33;13639,294;  165,221;52641,346;25,67658
 785,90;13741,231;  194,144;52476,782;25,91125
 786,46;13757,784;  219,144;52462,295;25,91467
 787,03;13660,645;  182,375;52265,655;25,87831
 787,59;13705,198;  209,374;52217,399;25,94950
 788,16;13808,828;  208,759;52147,604;26,18477
 788,73;13746,458;  213,528;51974,040;26,14528
 789,29;13767,087;  192,759;51565,015;26,42346
 789,86;13832,794;  220,528;51527,297;26,53113
 790,42;13815,655;  204,682;51360,349;26,60697
 790,99;13807,285;  216,682;50978,785;26,77313
 791,55;13855,068;  206,682;51034,990;26,85194
 792,12;13899,852;  221,605;51082,273;26,89357
 792,68;13847,790;  214,989;50740,632;26,98194
 793,25;13915,881;  219,451;50490,222;27,24532
 793,81;13920,203;  277,989;50119,504;27,37119
 794,38;13849,987;  181,297;49959,864;27,45899
 794,94;13846,694;  191,450;49760,992;27,54765
 795,51;13876,631;  223,758;49507,813;27,70241
 796,07;13878,646;  204,989;49311,557;27,84486
 796,64;13928,814;  227,758;49453,070;27,83336
 797,20;13858,905;  216,527;48807,352;28,07604
 797,77;13797,766;  187,065;48474,865;28,18662
 798,33;13789,319;  203,912;48336,071;28,22522
 798,90;13803,795;  227,758;48224,276;28,28546
 799,46;13674,117;  201,527;47799,789;28,30479
 800,03;13729,593;  229,450;47675,610;28,45361
 800,59;13681,069;  231,373;47460,585;28,47749
 801,15;13604,391;  227,527;47221,944;28,46480
 801,72;13589,175;  222,065;47018,073;28,56464
 802,28;13549,190;  250,757;46642,432;28,66556
 802,85;13492,666;  209,988;46560,253;28,65718
 803,41;13535,449;  217,680;46214,458;28,95370
 803,98;13449,771;  202,065;45902,664;28,98804
 804,54;13460,094;  217,142;45618,254;29,16878
 805,11;13456,493;  223,141;45449,382;29,26034
 805,67;13455,507;  235,449;45384,895;29,28066
 806,23;13346,676;  220,603;44925,485;29,36161
 806,80;13385,844;  235,603;44795,152;29,51161
 807,36;13434,397;  243,910;44749,127;29,63807
 807,93;13399,334;  253,833;44479,409;29,72375
 808,49;13343,964;  218,064;43975,538;29,99693
 809,05;13323,363;  197,141;43882,205;30,04739
 809,62;13364,224;  238,679;43835,949;30,10635
 810,18;13372,085;  223,218;43765,539;30,19790
 810,74;13268,484;  193,910;43527,206;30,17212
 811,31;13276,652;  207,910;43334,950;30,30290
 811,87;13295,743;  218,833;43102,463;30,49394
 812,44;13342,219;  246,217;43056,284;30,59094
 813,00;13253,618;  182,602;42853,181;30,63239
 813,56;13401,633;  226,063;42867,310;30,89865
 814,13;13320,570;  225,602;42708,669;30,82397
 814,69;13314,431;  214,833;42610,951;30,89811
 815,25;13220,830;  191,602;42152,003;31,05125
 815,82;13283,383;  238,602;42180,824;31,10179
 816,38;13338,705;  259,371;41865,260;31,43626
 816,94;13201,643;  206,294;41565,312;31,42084
 817,51;13157,042;  203,986;41310,363;31,51106
 818,07;13091,518;  208,371;41132,722;31,48039
 818,63;13096,455;  225,986;40792,313;31,72698
 819,20;13163,162;  229,909;40859,595;31,83203
 819,76;13008,792;  202,524;40400,339;31,85812
 820,32;13031,422;  252,216;40369,852;31,85433
 820,89;12923,436;  231,139;40121,211;31,81819
 821,45;12926,066;  211,909;39793,263;32,12158
 822,01;12821,773;  228,447;39537,930;32,03636
 822,57;12836,634;  232,755;39352,135;32,21902
 823,14;12756,648;  191,293;39116,648;32,28064
 823,70;12697,893;  210,831;38908,777;32,26802
 824,26;12725,985;  210,139;38737,905;32,48526
 824,82;12758,153;  233,293;38615,111;32,63227
 825,39;12634,552;  205,985;38329,162;32,60108
 825,95;12739,259;  230,062;38408,983;32,76467
 826,51;12664,735;  231,293;37885,573;33,02000
 827,08;12730,519;  256,754;38026,317;33,02597
 827,64;12682,995;  231,292;37844,292;33,10478
 828,20;12633,625;  205,523;37481,574;33,34071
 828,76;12667,178;  234,754;37476,779;33,38278
 829,32;12641,500;  252,292;37290,831;33,44950
 829,89;12686,283;  199,754;37203,960;33,74354
 830,45;12685,067;  226,754;37164,780;33,72761
 831,01;12664,851;  221,600;36947,678;33,88124
 831,57;12633,942;  220,292;36853,576;33,88626
 832,14;12693,649;  216,369;36842,704;34,06642
 832,70;12666,048;  208,753;36533,371;34,29436
 833,26;12627,447;  180,984;36456,192;34,31121
 833,82;12689,616;  214,369;36348,705;34,52463
 834,38;12744,322;  199,984;36476,295;34,57997
 834,95;12674,644;  194,138;36235,424;34,62836
 835,51;12628,428;  186,830;36122,014;34,62233
 836,07;12718,673;  213,368;36183,758;34,76555
 836,63;12787,073;  231,907;36097,886;35,00578
 837,19;12770,241;  226,830;35938,707;35,12392
 837,75;12639,948;  194,907;35691,989;35,05933
 838,32;12759,116;  240,137;35773,272;35,23184
 838,88;12824,361;  232,676;35867,246;35,33559
 839,44;12801,991;  219,137;35704,375;35,45940
 840,00;12835,698;  218,214;35595,427;35,66557
 840,56;12727,251;  214,752;35254,863;35,70907
 841,12;12790,342;  211,137;35368,068;35,78016
 841,68;12716,434;  191,829;35085,197;35,89394
 842,25;12828,217;  204,598;35059,479;36,21765
 842,81;12739,539;  200,060;34831,684;36,20818
 843,37;12755,708;  194,752;34868,967;36,22564
 843,93;12827,645;  200,752;34800,480;36,49420
 844,49;12903,429;  214,136;34701,685;36,79384
 845,05;12796,443;  174,906;34705,891;36,55134
 845,61;12889,150;  224,290;34714,635;36,72002
 846,17;12811,549;  205,598;34505,532;36,75212
 846,73;12865,795;  218,213;34489,199;36,90463
 847,29;12841,886;  188,905;34281,020;37,11410
 847,86;12834,977;  198,675;34211,995;37,15104
 848,42;12801,992;  197,136;33937,046;37,35889
 848,98;12851,852;  220,905;33936,636;37,46307
 849,54;12816,559;  206,367;34010,227;37,30400
 850,10;12817,035;  217,751;33847,432;37,46477
 850,66;12764,204;  190,597;33710,868;37,51046
 851,22;12748,987;  186,520;33505,381;37,70377
 851,78;12876,848;  242,751;33599,048;37,87620
 852,34;12760,555;  214,135;33407,561;37,79790
 852,90;12750,031;  209,982;33354,690;37,83424
 853,46;12671,122;  200,212;33024,126;37,99337
 854,02;12688,367;  212,135;33013,255;38,03600
 854,58;12602,228;  205,289;32844,383;37,98187
 855,14;12536,550;  200,520;32705,358;37,95137
 855,70;12514,718;  167,443;32557,948;38,12005
 856,26;12540,656;  217,135;32451,153;38,23141
 856,82;12493,055;  202,135;32397,205;38,17640
 857,38;12508,300;  240,058;32320,872;38,24168
 857,94;12489,930;  209,596;32241,769;38,33750
 858,50;12464,637;  223,981;32106,821;38,39262
 859,06;12455,959;  199,212;31912,103;38,64910
 859,62;12456,512;  236,673;31751,463;38,77493
 860,18;12432,834;  207,288;31630,899;38,90561
 860,74;12396,618;  180,827;31536,412;38,95890
 861,30;12321,556;  185,596;31293,541;39,01241
 861,86;12415,570;  251,750;31358,746;39,10317
 862,42;12366,354;  207,288;31089,182;39,37280
 862,98;12426,830;  236,826;31130,234;39,45827
 863,54;12347,921;  206,980;30949,439;39,49242
 864,10;12360,166;  214,903;30956,029;39,50819
 864,66;12308,489;  189,288;30710,158;39,70791
 865,22;12309,426;  212,749;30593,671;39,81669
 865,78;12238,594;  212,288;30395,569;39,84427
 866,34;12209,147;  200,980;30396,466;39,76809
 866,90;12222,085;  216,903;30233,672;39,99492
 867,45;12169,715;  216,518;30003,954;40,12832
 868,01;12117,498;  221,364;29892,467;40,09333
 868,57;12072,436;  200,980;29715,288;40,22272
 869,13;12089,220;  191,826;29556,186;40,51644
 869,69;12052,080;  209,595;29441,853;40,51170
 870,25;11992,326;  188,056;29320,597;40,51919
 870,81;12078,417;  209,902;29267,110;40,84534
 871,37;12046,278;  215,672;29163,315;40,86898
 871,93;11999,600;  230,364;29023,905;40,87457
 872,49;11962,537;  246,133;28752,264;41,10135
 873,04;11903,090;  193,671;28696,624;41,08142
 873,60;11886,489;  202,825;28475,598;41,32479
 874,16;11874,888;  215,133;28439,188;41,31141
 874,72;11850,965;  210,671;28339,650;41,38186
 875,28;11872,658;  212,517;28259,265;41,57395
 875,84;11924,965;  206,517;28127,881;41,96947
 876,40;11938,581;  202,133;28170,804;41,96284
 876,95;11924,735;  224,210;28176,958;41,85823
 877,51;11900,119;  239,363;28134,035;41,80281
 878,07;11948,735;  250,517;28051,496;42,07844
 878,63;12040,658;  214,517;28028,265;42,51905
 879,19;12025,581;  236,363;28060,265;42,37083
 879,75;12041,888;  205,517;28206,342;42,27151
 880,30;12135,273;  207,671;28119,804;42,73268
 880,86;12251,735;  244,287;28318,496;42,77039
 881,42;12252,119;  198,287;28242,804;42,98107
 881,98;12263,965;  232,287;28395,342;42,72150
 882,54;12322,658;  202,979;28430,188;42,93616
 883,09;12446,581;  227,056;28585,650;43,08932
 883,65;12513,735;  208,133;28687,881;43,20825
 884,21;12696,965;  238,825;28854,650;43,53584
 884,77;12685,196;  203,825;28919,419;43,46548
 885,32;12790,196;  212,671;29065,573;43,59189
 885,88;12935,350;  246,056;29209,342;43,81165
 886,44;13000,658;  228,902;29324,112;43,89642
 887,00;13013,812;  231,363;29266,188;44,02454
 887,56;13093,888;  216,825;29446,188;44,05523
 888,11;13132,042;  220,056;29499,188;44,09962
 888,67;13225,735;  243,825;29682,265;44,09850
 889,23;13324,196;  221,287;29719,112;44,41992
 889,79;13219,888;  195,671;29564,188;44,34755
 890,34;13276,888;  212,594;29500,112;44,60704
 890,90;13451,581;  282,825;29664,881;44,81904
 891,46;13389,581;  211,825;29556,881;44,90622
 892,01;13408,812;  221,979;29562,419;44,94422
 892,57;13392,427;  239,210;29488,342;44,96960
 893,13;13333,658;  215,825;29261,496;45,16278
 893,69;13422,965;  207,440;29292,958;45,43679
 894,24;13339,273;  207,287;29126,035;45,40994
 894,80;13337,504;  224,748;28970,804;45,61584
 895,36;13296,427;  225,594;28809,342;45,72820
 895,91;13189,888;  217,287;28692,419;45,55765
 896,47;13266,581;  236,210;28555,265;46,01273
 897,03;13188,119;  220,056;28270,573;46,23110
 897,58;13120,735;  226,133;28190,496;46,11084
 898,14;13076,196;  232,517;28065,650;46,14529
 898,70;13010,504;  193,902;27869,804;46,30961
 899,25;13072,812;  225,056;27800,650;46,59104
 899,81;13031,273;  235,748;27599,650;46,76060
 900,37;12841,042;  200,594;27427,881;46,42566
 900,92;12922,812;  223,594;27460,419;46,62517
 901,48;12817,658;  213,287;27325,265;46,49004
 902,03;12786,427;  211,825;27160,573;46,66117
 902,59;12743,273;  207,287;27020,958;46,75222
 903,15;12754,119;  236,517;26944,112;46,86907
 903,70;12661,812;  226,671;26587,496;47,17280
 904,26;12618,658;  212,056;26596,496;47,02242
 904,82;12646,350;  217,979;26558,265;47,18389
 905,37;12645,119;  223,287;26369,265;47,50953
 905,93;12586,581;  207,979;26219,496;47,58893
 906,48;12646,350;  234,902;26170,035;47,85573
 907,04;12610,427;  234,210;26015,958;48,00379
 907,60;12581,119;  230,825;25877,804;48,15497
 908,15;12500,581;  198,056;25708,727;48,22502
 908,71;12567,350;  241,363;25719,419;48,37883
 909,26;12511,350;  214,363;25552,650;48,53125
 909,82;12480,196;  226,133;25483,035;48,51768
 910,37;12504,350;  263,440;25365,650;48,76427
 910,93;12393,273;  211,440;25092,804;48,95967
 911,48;12346,812;  216,056;24978,188;48,98914
 912,04;12346,888;  209,440;24877,112;49,20387
 912,60;12372,658;  233,979;24864,727;49,28262
 913,15;12265,658;  230,748;24669,650;49,24489
 913,71;12236,658;  214,825;24523,804;49,45429
 914,26;12240,581;  198,210;24400,573;49,75700
 914,82;12149,812;  219,440;24425,496;49,28672
 915,37;12124,273;  211,287;24273,496;49,50911
 915,93;12159,042;  260,287;24132,958;49,84258
 916,48;12058,273;  203,594;24072,650;49,66547
 917,04;12080,504;  229,671;23877,265;50,11433
 917,59;12039,735;  242,056;23860,573;49,95097
 918,15;11940,504;  186,594;23641,188;50,11346
 918,70;11967,350;  212,517;23525,496;50,42184
 919,26;11922,042;  219,133;23553,188;50,15377
 919,81;11879,735;  203,056;23296,188;50,56343
 920,37;11877,427;  212,440;23266,727;50,59791
 920,92;11815,504;  226,748;23184,881;50,47778
 921,48;11689,888;  192,979;22903,496;50,62372
 922,03;11754,504;  205,210;22852,804;50,99568
 922,59;11743,888;  214,287;22756,727;51,14620
 923,14;11683,735;  209,287;22646,804;51,13956
 923,69;11698,119;  227,825;22529,035;51,43351
 924,25;11715,427;  236,210;22584,573;51,36491
 924,80;11562,735;  223,517;22282,727;51,40355
 925,36;11563,273;  207,210;22256,727;51,50255
 925,91;11482,965;  205,748;22106,265;51,49293
 926,47;11454,042;  193,825;21967,881;51,71392
 927,02;11487,042;  262,902;22022,958;51,58140
 927,57;11431,735;  222,671;21811,419;51,92086
 928,13;11400,119;  207,363;21769,496;51,90932
 928,68;11407,196;  212,825;21645,958;52,22928
 929,24;11304,196;  189,671;21443,804;52,29348
 929,79;11273,119;  209,210;21321,496;52,40508
 930,34;11232,812;  227,210;21177,496;52,53199
 930,90;11186,965;  212,133;21154,881;52,40398
 931,45;11234,273;  226,210;21140,035;52,63534
 932,01;11128,119;  225,287;21016,419;52,43982
 932,56;11128,504;  238,133;20846,496;52,84442
 933,11;11119,581;  242,133;20899,265;52,65711
 933,67;11091,658;  216,287;20613,650;53,31753
 934,22;11104,581;  233,748;20591,650;53,39859
 934,77;10986,965;  246,979;20452,035;53,15495
 935,33;10923,196;  229,440;20333,035;53,19325
 935,88;10972,350;  234,210;20216,881;53,73726
 936,43;10914,427;  217,363;20137,573;53,69955
 936,99;10988,042;  223,210;20117,342;54,11059
 937,54;10822,042;  204,825;19854,804;54,03170
 938,09;10864,273;  233,440;19881,419;54,10650
 938,65;10806,504;  224,363;19699,958;54,33539
 939,20;10809,119;  210,056;19580,419;54,71794
 939,75;10764,735;  210,210;19487,188;54,75197
 940,31;10658,812;  195,902;19433,958;54,38652
 940,86;10730,888;  219,671;19390,112;54,83034
 941,41;10772,735;  299,979;19292,419;55,14171
 941,96;10670,658;  207,594;19122,188;55,31741
 942,52;10627,119;  214,287;19128,496;55,05296
 943,07;10600,581;  200,671;18956,188;55,44987
 943,62;10563,581;  206,902;18807,342;55,67975
 944,18;10469,735;  192,287;18809,573;55,20379
 944,73;10474,888;  225,133;18679,958;55,53971
 945,28;10383,273;  191,210;18469,881;55,75932
 945,83;10381,504;  207,671;18536,650;55,50682
 946,39;10379,427;  207,825;18422,881;55,84173
 946,94;10333,504;  229,979;18364,035;55,71575
 947,49;10201,350;  218,594;18205,419;55,50038
 948,04;10290,658;  254,671;18258,188;55,74459
 948,59;10288,196;  232,287;18166,342;56,07159
 949,15;10169,119;  197,671;18026,035;55,93025
 949,70;10110,735;  213,748;17911,650;55,92181
 950,25;10144,427;  232,440;17843,573;56,28250
 950,80;10104,273;  192,440;17746,496;56,46463
 951,36;10047,658;  190,210;17661,496;56,42085
 951,91;10079,350;  235,594;17641,342;56,55463
 952,46; 9926,427;  201,287;17444,958;56,39832
 953,01;10001,119;  234,748;17499,727;56,56752
 953,56; 9881,812;  197,517;17290,035;56,65809
 954,11; 9906,119;  225,440;17340,112;56,56363
 954,67; 9888,196;  210,671;17231,188;56,85800
 955,22; 9814,581;  198,594;17061,650;57,02399
 955,77; 9853,965;  229,825;17086,727;57,09317
 956,32; 9814,119;  257,594;16934,804;57,30290
 956,87; 9683,042;  192,979;16760,112;57,28247
 957,42; 9681,504;  220,671;16759,342;57,20431
 957,98; 9702,504;  206,979;16642,035;57,77604
 958,53; 9646,504;  239,517;16637,419;57,36701
 959,08; 9576,812;  202,210;16448,188;57,70414
 959,63; 9487,350;  206,979;16353,727;57,47517
 960,18; 9525,042;  219,210;16308,727;57,83786
 960,73; 9582,812;  222,517;16294,650;58,23928
 961,28; 9488,965;  193,440;16178,650;58,15079
 961,83; 9492,196;  238,671;16126,881;58,24146
 962,39; 9421,427;  203,440;15931,265;58,60942
 962,94; 9396,812;  223,748;15883,265;58,57820
 963,49; 9316,735;  220,056;15778,188;58,46896
 964,04; 9319,504;  230,440;15703,804;58,74006
 964,59; 9299,658;  179,210;15634,958;59,01007
 965,14; 9315,735;  234,287;15589,804;59,14127
 965,69; 9211,042;  218,133;15454,265;59,02357
 966,24; 9212,427;  202,671;15369,496;59,40436
 966,79; 9156,888;  235,825;15238,727;59,46225
 967,34; 9143,196;  188,363;15131,958;59,92422
 967,89; 9106,888;  206,133;15068,188;59,88913
 968,44; 9108,658;  217,594;15043,650;59,96918
 968,99; 9077,504;  223,979;14942,496;60,15229
 969,55; 9033,504;  226,133;14876,958;60,11519
 970,10; 9038,350;  216,671;14771,419;60,61032
 970,65; 9047,273;  232,748;14657,342;61,10761
 971,20; 8964,504;  210,363;14533,035;61,12086
 971,75; 8844,658;  185,440;14384,035;60,98644
 972,30; 8801,273;  216,517;14376,881;60,62525
 972,85; 8780,888;  201,287;14248,958;61,07491
 973,40; 8710,350;  200,979;14079,881;61,31156
 973,95; 8699,119;  214,133;14052,496;61,31496
 974,50; 8663,350;  233,594;13976,958;61,33692
 975,05; 8590,273;  225,594;13947,573;60,95825
 975,60; 8577,888;  236,671;13882,573;61,12617
 976,15; 8562,042;  199,056;13705,804;61,91710
 976,70; 8495,735;  221,517;13650,188;61,61605
 977,25; 8457,427;  229,517;13601,958;61,52886
 977,80; 8385,658;  208,363;13426,650;61,86350
 978,35; 8270,581;  226,133;13307,342;61,49621
 978,89; 8226,812;  197,440;13243,881;61,54454
 979,44; 8272,735;  217,517;13192,496;62,08270
 979,99; 8169,812;  204,594;13001,496;62,24333
 980,54; 8161,581;  239,056;12943,727;62,35915
 981,09; 8123,812;  241,210;12857,342;62,48033
 981,64; 8037,812;  222,363;12727,112;62,49984
 982,19; 8045,196;  256,825;12658,573;62,80059
 982,74; 7963,581;  224,517;12570,881;62,68294
 983,29; 7867,888;  211,825;12411,342;62,75710
 983,84; 7784,427;  222,979;12333,265;62,43823
 984,39; 7801,196;  286,287;12319,881;62,44942
 984,94; 7714,196;  195,133;12125,804;63,02297
 985,49; 7710,888;  234,056;12096,496;63,02946
 986,03; 7655,504;  239,363;11960,881;63,26946
 986,58; 7570,119;  267,440;11850,958;63,04371
 987,13; 7517,119;  227,594;11696,035;63,56161
 987,68; 7414,581;  237,825;11552,112;63,43092
 988,23; 7411,119;  232,594;11574,573;63,29165
 988,78; 7329,119;  208,440;11438,650;63,40646
 989,33; 7283,350;  234,594;11321,727;63,57600
 989,88; 7238,350;  253,517;11253,650;63,49771
 990,42; 7119,119;  222,671;11075,958;63,54249
 990,97; 7050,735;  218,594;11007,188;63,32744
 991,52; 7034,273;  251,517;10894,496;63,72986
 992,07; 6998,427;  251,748;10815,112;63,86866
 992,62; 6892,888;  225,979;10694,342;63,68626
 993,17; 6835,965;  236,671;10562,727;63,90915
 993,71; 6777,196;  241,517;10475,804;63,86062
 994,26; 6687,581;  216,902;10327,958;63,99608
 994,81; 6692,812;  247,056;10291,881;64,16992
 995,36; 6598,812;  220,902;10167,496;64,12154
 995,91; 6576,735;  227,748;10093,650;64,35282
 996,45; 6462,812;  227,056; 9969,342;64,00711
 997,00; 6380,581;  196,440; 9808,804;64,33527
 997,55; 6407,658;  236,517; 9780,496;64,66004
 998,10; 6336,735;  264,979; 9687,188;64,44089
 998,65; 6300,350;  230,825; 9623,958;64,61662
 999,19; 6223,119;  249,287; 9473,727;64,76092
 999,74; 6187,658;  246,210; 9403,573;64,88165
1000,29; 6155,273;  240,287; 9272,573;65,48714
1000,84; 6007,504;  225,363; 9157,573;64,73359
1001,38; 6032,427;  233,440; 9052,419;65,75576
1001,93; 5981,350;  245,594; 8985,112;65,63012
1002,48; 5839,196;  211,671; 8833,804;65,26836
1003,03; 5878,119;  236,056; 8799,188;65,88784
1003,57; 5828,658;  240,825; 8685,804;66,16752
1004,12; 5808,965;  265,287; 8624,112;66,32127
1004,67; 5748,888;  229,902; 8547,496;66,35316
1005,22; 5644,119;  223,056; 8321,804;66,93706
1005,76; 5554,119;  219,210; 8250,727;66,42468
1006,31; 5572,965;  242,517; 8192,265;67,05179
1006,86; 5447,427;  221,671; 8064,573;66,63039
1007,40; 5367,735;  215,133; 7900,958;67,04032
1007,95; 5312,965;  229,979; 7844,958;66,74984
1008,50; 5250,119;  228,517; 7754,727;66,72153
1009,04; 5226,658;  229,594; 7633,035;67,49650
1009,59; 5120,888;  232,671; 7466,727;67,57229
1010,14; 5052,350;  219,825; 7384,804;67,44647
1010,68; 5006,658;  226,440; 7286,573;67,70719
1011,23; 4940,196;  227,287; 7147,573;68,10281
1011,78; 4917,504;  239,440; 7131,650;67,87465
1012,32; 4855,350;  246,902; 6996,188;68,28052
1012,87; 4843,735;  260,133; 6942,035;68,59726
1013,42; 4728,119;  222,517; 6811,804;68,37769
1013,96; 4763,888;  253,979; 6860,727;68,26217
1014,51; 4680,888;  206,363; 6733,342;68,55431
1015,06; 4709,196;  209,287; 6732,650;68,98143
1015,60; 4765,888;  263,594; 6726,419;69,66449
1016,15; 4692,196;  221,363; 6723,727;68,75704
1016,69; 4764,735;  226,825; 6771,573;69,33666
1017,24; 4723,735;  205,671; 6781,419;68,70798
1017,79; 4786,658;  256,287; 6846,650;68,74236
1018,33; 4773,427;  214,210; 6824,650;68,96995
1018,88; 4830,658;  236,210; 6878,496;69,16968
1019,42; 4827,888;  227,517; 6921,496;68,72402
1019,97; 4793,350;  215,979; 6880,727;68,68033
1020,51; 4876,812;  257,825; 6987,419;68,63692
1021,06; 4871,196;  203,748; 6895,188;69,75252
1021,61; 4794,350;  195,210; 6874,419;68,85755
1022,15; 4779,273;  173,979; 6890,727;68,56434
1022,70; 4811,196;  221,979; 6826,188;69,48927
1023,24; 4767,427;  212,517; 6808,112;69,05988
1023,79; 4737,581;  224,902; 6748,265;69,17718
1024,33; 4698,350;  222,825; 6655,496;69,57491
1024,88; 4660,427;  236,748; 6634,804;69,14099
1025,42; 4631,042;  228,671; 6490,035;70,31010
1025,97; 4520,042;  204,056; 6409,496;69,55166
1026,51; 4461,888;  180,594; 6295,496;70,01411
1027,06; 4447,812;  214,979; 6263,650;69,97955
1027,60; 4367,042;  221,363; 6169,573;69,69625
1028,15; 4320,042;  234,748; 6063,650;70,08686
1028,69; 4223,504;  200,210; 5929,881;70,21859
1029,24; 4205,196;  202,287; 5872,265;70,59832
1029,78; 4165,504;  206,979; 5726,188;71,72268
1030,33; 4046,042;  200,671; 5674,496;70,25017
1030,87; 4035,812;  211,363; 5561,573;71,48221
1031,42; 3959,350;  194,517; 5488,573;71,11434
1031,96; 3945,888;  227,210; 5437,496;71,37187
1032,51; 3833,965;  199,979; 5336,650;70,74594
1033,05; 3828,504;  218,748; 5301,265;71,02299
1033,60; 3718,812;  190,517; 5133,112;71,38547
1034,14; 3697,812;  217,287; 5078,419;71,59905
1034,69; 3670,273;  218,133; 5018,881;71,90838
1035,23; 3611,965;  212,748; 4958,804;71,62194
1035,77; 3608,581;  214,517; 4907,573;72,32097
1036,32; 3547,735;  189,210; 4856,573;71,95765
1036,86; 3541,119;  205,979; 4784,419;72,84446
1037,41; 3471,427;  221,979; 4679,804;72,89313
1037,95; 3392,735;  187,594; 4631,573;72,12321
1038,50; 3389,888;  208,517; 4563,188;73,05652
1039,04; 3372,427;  230,056; 4508,881;73,44005
1039,58; 3286,658;  193,517; 4421,804;73,15352
1040,13; 3245,504;  215,594; 4399,265;72,42227
1040,67; 3263,196;  243,594; 4348,573;73,55950
1041,21; 3179,504;  253,133; 4264,265;72,95623
1041,76; 3126,350;  197,210; 4173,342;73,66807
1042,30; 3078,196;  209,594; 4128,650;73,19625
1042,85; 3048,273;  214,056; 4082,265;73,26949
1043,39; 3031,350;  202,210; 3987,804;74,73438
1043,93; 2979,504;  231,363; 3994,112;73,03546
1044,48; 2934,273;  218,979; 3903,112;73,70240
1045,02; 2915,888;  218,748; 3847,804;74,32072
1045,56; 2892,735;  245,210; 3814,727;74,17039
1046,11; 2829,658;  219,363; 3780,112;73,30747
1046,65; 2773,581;  224,056; 3693,804;73,47868
1047,19; 2778,658;  209,671; 3656,958;74,52199
1047,74; 2697,812;  191,287; 3596,881;73,60022
1048,28; 2656,504;  218,210; 3548,035;73,22590
1048,82; 2691,273;  246,363; 3496,419;75,22670
1049,37; 2661,581;  228,287; 3439,496;75,77500
1049,91; 2599,735;  208,594; 3417,958;74,50513
1050,45; 2571,658;  235,825; 3371,419;74,49410
1050,99; 2517,119;  231,671; 3312,342;74,18669
1051,54; 2480,658;  203,671; 3239,342;75,00768
1052,08; 2471,273;  245,133; 3242,727;74,26423
1052,62; 2438,427;  237,287; 3173,265;74,97126
1053,16; 2376,812;  207,517; 3112,804;74,66714
1053,71; 2385,581;  225,056; 3125,035;74,50141
1054,25; 2333,888;  234,210; 3029,804;75,10671
1054,79; 2299,042;  232,825; 2986,804;75,02662
1055,33; 2244,196;  194,748; 2926,650;75,01909
1055,88; 2281,273;  229,825; 2917,188;76,33683
1056,42; 2240,581;  238,671; 2905,035;75,08015
1056,96; 2208,350;  238,748; 2854,342;75,30227
1057,50; 2167,812;  236,056; 2808,035;75,10776
1058,05; 2128,581;  233,210; 2765,342;74,85276
1058,59; 2120,735;  241,210; 2738,035;75,27660
1059,13; 2055,581;  197,133; 2664,112;75,33296
1059,67; 2068,119;  235,671; 2653,727;75,78188
1060,21; 2015,042;  231,287; 2594,727;75,47285
1060,76; 1996,888;  237,363; 2568,112;75,49186
1061,30; 1981,735;  248,902; 2526,804;76,07144
1061,84; 1945,504;  232,287; 2506,265;75,34007
1062,38; 1875,427;  215,979; 2427,958;75,02097
1062,92; 1924,427;  261,440; 2465,188;75,46174
1063,46; 1886,735;  252,210; 2401,881;76,03605
1064,01; 1837,119;  217,056; 2360,727;75,57425
1064,55; 1786,504;  232,287; 2342,342;73,65764
1065,09; 1762,427;  203,440; 2258,265;75,86955
1065,63; 1773,350;  260,133; 2282,496;74,82420
1066,17; 1788,350;  254,056; 2254,112;76,71257
1066,71; 1747,273;  242,902; 2205,573;76,64917
1067,25; 1704,119;  226,210; 2185,035;75,44878
1067,80; 1711,812;  244,287; 2153,881;76,85010
1068,34; 1692,581;  257,594; 2146,573;75,96626
1068,88; 1632,427;  217,902; 2088,958;75,60037
1069,42; 1659,735;  251,671; 2111,958;75,69068
1069,96; 1610,735;  226,748; 2052,035;75,82297
1070,50; 1626,812;  269,902; 2056,958;75,92990
1071,04; 1540,042;  223,902; 1995,188;74,30421
1071,58; 1543,965;  227,594; 1961,035;75,93980
1072,12; 1551,350;  232,440; 1932,727;77,56984
1072,66; 1513,427;  228,287; 1930,035;75,51884
1073,21; 1545,735;  252,363; 1917,112;77,69170
1073,75; 1478,735;  234,594; 1902,342;74,60002
1074,29; 1474,196;  236,979; 1876,958;75,44105
1074,83; 1469,427;  256,133; 1849,342;76,15409
1075,37; 1446,888;  249,363; 1839,035;75,33162
1075,91; 1431,658;  246,363; 1772,958;77,64304
1076,45; 1420,965;  243,363; 1782,727;76,49928
1076,99; 1402,888;  251,287; 1751,650;76,75486
1077,53; 1363,427;  233,748; 1714,573;76,28713
1078,07; 1386,427;  242,748; 1731,496;76,82152
1078,61; 1357,427;  234,133; 1671,188;78,16636
1079,15; 1340,581;  233,979; 1668,112;77,16175
1079,69; 1334,042;  230,440; 1661,035;77,14290
1080,23; 1330,042;  258,594; 1644,881;77,28908
1080,77; 1343,196;  283,594; 1669,188;76,47274
1081,31; 1286,042;  233,902; 1601,958;76,90771
1081,85; 1294,735;  247,517; 1569,342;79,22511
1082,39; 1260,196;  236,517; 1539,265;78,57842
1082,93; 1251,504;  237,825; 1560,496;76,63877
1083,47; 1215,196;  228,287; 1499,804;77,61669
1084,01; 1241,888;  244,287; 1521,342;78,11733
1084,55; 1204,273;  233,210; 1468,112;78,63487
1085,09; 1206,658;  246,671; 1475,650;78,11254
1085,63; 1167,965;  240,671; 1445,496;76,96506
1086,17; 1163,504;  227,056; 1436,188;77,44792
1086,71; 1158,273;  233,825; 1402,419;79,10771
1087,24; 1161,658;  259,748; 1407,496;78,58080
1087,78; 1128,965;  249,133; 1413,265;75,57839
1088,32; 1110,735;  229,287; 1345,265;78,98430
1088,86; 1129,350;  251,825; 1368,650;78,57319
1089,40; 1101,119;  244,210; 1343,650;77,94053
1089,94; 1070,658;  213,287; 1311,419;78,07537
1090,48; 1083,273;  239,517; 1294,958;79,94348
1091,02; 1073,273;  260,440; 1296,188;78,47784
1091,56; 1073,273;  249,133; 1276,342;80,23098
1092,10; 1027,196;  217,902; 1260,342;77,63458
1092,63; 1057,504;  255,363; 1271,419;78,94649
1093,17; 1046,119;  244,440; 1244,650;80,15108
1093,71; 1014,965;  232,210; 1206,650;80,32875
1094,25; 1011,119;  258,210; 1232,419;77,28415
1094,79;  997,735;  224,440; 1194,573;79,71015
1095,33;  973,504;  236,979; 1181,727;77,95994
1095,87;  972,119;  237,517; 1168,881;78,87382
1096,40;  949,812;  219,287; 1155,496;78,03007
1096,94;  945,119;  234,287; 1147,573;77,83238
1097,48;  932,350;  245,210; 1139,265;76,85655
1098,02;  928,735;  234,210; 1110,265;79,27863
1098,56;  899,581;  204,594; 1078,958;79,48486
1099,10;  867,658;  219,594; 1061,573;76,96909
1099,63;  887,735;  215,210; 1068,958;78,77324
1100,17;  894,581;  241,825; 1070,573;78,76408
1100,71;  911,350;  265,210; 1063,188;80,97212

