
Integration time [ms]: 120,000
Averaging Nr. [scans]: 13
Smoothing Nr. [pixels]: 0
Data measured with spectrometer [name]: 2009305U1
Wave   ;Sample   ;Dark     ;Reference;Reflectance
[nm]   ;[counts] ;[counts] ;[counts] ;[%]

 175,72;  205,946;  203,396;  206,415;84,47194
 176,32;  216,213;  232,238;  221,005; 0,00000
 176,92;  261,737;  247,318;  255,764;170,71632
 177,52;  255,427;  258,088;  254,242; 0,00000
 178,12;  246,304;  225,239;  236,618;185,11566
 178,72;  266,864;  252,468;  247,609; 0,00000
 179,32;  251,121;  251,777;  252,264; 0,00000
 179,92;  245,282;  252,009;  253,834;-368,63820
 180,52;  235,951;  243,091;  251,014;-90,10379
 181,12;  245,742;  248,932;  250,733;-177,18834
 181,73;  272,125;  266,394;  270,722;132,41179
 182,33;  349,237;  342,551;  361,599;35,09943
 182,93;  258,673;  265,011;  272,969;-79,62942
 183,53;  240,590;  234,237;  231,203; 0,00000
 184,13;  226,510;  243,468;  230,540; 0,00000
 184,73;  272,731;  267,775;  273,447;87,37992
 185,33;  252,818;  227,443;  345,598;21,47595
 185,93;  263,664;  241,133;  358,546;19,18930
 186,53;  279,348;  255,981;  380,144;18,81996
 187,13;  308,825;  272,984;  407,516;26,64129
 187,73;  271,877;  241,287;  363,269;25,07741
 188,33;  268,285;  240,209;  362,629;22,93443
 188,93;  275,957;  245,742;  378,979;22,67776
 189,53;  293,731;  251,815;  383,112;31,92425
 190,13;  317,424;  280,501;  415,888;27,27245
 190,73;  252,956;  224,505;  369,988;19,55636
 191,34;  290,564;  261,894;  396,267;21,33624
 191,94;  279,247;  239,284;  361,088;32,80974
 192,54;  296,106;  242,755;  397,442;34,48928
 193,14;  289,888;  262,137;  384,184;22,73777
 193,74;  282,368;  253,983;  388,973;21,02726
 194,34;  282,577;  249,600;  378,777;25,52849
 194,94;  249,442;  214,214;  353,835;25,23117
 195,54;  234,895;  216,674;  342,009;14,53719
 196,14;  259,466;  221,292;  354,658;28,62289
 196,74;  247,360;  228,135;  356,800;14,94144
 197,34;  241,702;  197,833;  349,603;28,90522
 197,94;  255,455;  230,138;  376,501;17,29773
 198,54;  271,989;  232,908;  397,071;23,80614
 199,14;  243,466;  213,526;  383,801;17,58333
 199,74;  248,604;  193,603;  378,842;29,69199
 200,34;  244,341;  192,296;  402,209;24,79361
 200,94;  269,105;  230,602;  433,790;18,94945
 201,54;  263,592;  207,910;  427,072;25,40657
 202,14;  284,937;  243,066;  476,318;17,95082
 202,74;  259,051;  210,218;  468,075;18,93801
 203,34;  243,592;  190,452;  474,780;18,68962
 203,94;  230,551;  167,682;  479,987;20,13065
 204,54;  296,485;  239,446;  569,638;17,27451
 205,14;  260,682;  207,834;  575,137;14,38805
 205,74;  305,161;  243,298;  662,389;14,76135
 206,34;  281,245;  200,681;  678,382;16,86483
 206,94;  297,755;  213,758;  737,667;16,03273
 207,54;  260,846;  183,758;  755,999;13,47115
 208,14;  293,105;  198,681;  854,932;14,38835
 208,74;  308,205;  205,295;  920,831;14,38226
 209,34;  316,142;  200,757;  996,638;14,49777
 209,94;  333,620;  219,757; 1096,814;12,98235
 210,54;  334,841;  205,913; 1200,696;12,96046
 211,14;  349,574;  223,603; 1269,731;12,04164
 211,73;  363,716;  203,679; 1406,089;13,30968
 212,33;  384,966;  221,832; 1487,287;12,89135
 212,93;  387,929;  198,834; 1587,825;13,61387
 213,53;  369,959;  176,295; 1656,334;13,08505
 214,13;  389,479;  210,145; 1766,419;11,52327
 214,73;  387,091;  184,758; 1744,780;12,96984
 215,33;  363,850;  171,219; 1778,968;11,98146
 215,93;  424,393;  212,529; 1866,132;12,81228
 216,53;  396,714;  154,218; 1934,078;13,62446
 217,13;  456,580;  221,836; 2160,304;12,10975
 217,73;  459,054;  194,452; 2358,138;12,22923
 218,33;  441,569;  151,069; 2513,919;12,29450
 218,93;  507,954;  181,610; 2817,997;12,37845
 219,53;  543,092;  188,915; 3082,652;12,23944
 220,13;  552,181;  159,762; 3367,589;12,23319
 220,73;  624,588;  178,449; 3702,204;12,66089
 221,32;  674,744;  179,065; 4090,215;12,67349
 221,92;  727,521;  187,992; 4480,570;12,56887
 222,52;  763,299;  172,221; 4890,290;12,52797
 223,12;  821,868;  186,144; 5324,030;12,37325
 223,72;  894,929;  197,067; 5776,609;12,50750
 224,32;  942,759;  193,452; 6174,831;12,52732
 224,92;  970,651;  171,452; 6496,656;12,63515
 225,52; 1047,508;  211,604; 6849,016;12,59383
 226,12; 1084,888;  183,990; 7219,368;12,80525
 226,72; 1113,119;  162,297; 7536,482;12,89393
 227,31; 1157,320;  168,297; 7998,538;12,63080
 227,91; 1256,417;  189,296; 8323,145;13,11951
 228,51; 1302,411;  185,371; 8784,073;12,99080
 229,11; 1379,874;  174,066; 9235,022;13,30773
 229,71; 1417,145;  172,064; 9534,301;13,29896
 230,31; 1461,202;  169,222; 9935,594;13,22886
 230,91; 1527,646;  162,986;10333,594;13,41769
 231,51; 1606,639;  171,759;10659,579;13,68139
 232,10; 1657,985;  169,761;10995,785;13,74672
 232,70; 1724,115;  184,446;11237,239;13,93014
 233,30; 1803,209;  202,528;11520,547;14,14277
 233,90; 1851,717;  174,836;11631,141;14,63719
 234,50; 1890,008;  177,682;11734,915;14,81605
 235,10; 1936,574;  166,529;11775,656;15,24701
 235,70; 1999,264;  196,219;11812,901;15,52117
 236,29; 2017,683;  188,757;11778,545;15,78050
 236,89; 2013,184;  152,755;11704,249;16,10552
 237,49; 2061,103;  191,682;11622,550;16,35415
 238,09; 2070,399;  177,297;11388,459;16,88587
 238,69; 2103,373;  211,139;11131,546;17,32751
 239,29; 2032,938;  168,219;10801,560;17,53653
 239,89; 2023,907;  188,678;10452,500;17,88056
 240,48; 1989,368;  171,297;10068,285;18,36995
 241,08; 1960,955;  182,065; 9752,646;18,58706
 241,68; 1938,613;  194,912; 9398,898;18,94507
 242,28; 1880,810;  172,221; 9078,164;19,18482
 242,88; 1857,309;  212,607; 8743,230;19,27998
 243,48; 1834,580;  218,297; 8428,893;19,68533
 244,07; 1779,771;  194,296; 8176,201;19,86337
 244,67; 1759,920;  195,374; 8034,323;19,95862
 245,27; 1754,408;  206,525; 7879,781;20,17244
 245,87; 1763,388;  198,991; 7804,792;20,56847
 246,47; 1747,978;  189,987; 7771,725;20,54925
 247,06; 1740,692;  173,066; 7771,896;20,62984
 247,66; 1751,075;  181,066; 7821,219;20,54944
 248,26; 1768,499;  216,141; 7971,037;20,01778
 248,86; 1815,100;  198,756; 8097,577;20,46310
 249,46; 1824,654;  147,067; 8322,076;20,52092
 250,05; 1868,322;  198,220; 8709,433;19,62238
 250,65; 1924,333;  172,217; 9080,959;19,66737
 251,25; 1993,848;  179,758; 9489,151;19,48666
 251,85; 2085,938;  191,293;10093,892;19,13280
 252,44; 2141,175;  155,911;10660,272;18,89943
 253,04; 2278,896;  205,526;11430,743;18,47064
 253,64; 2365,088;  146,140;12067,396;18,61337
 254,24; 2534,030;  203,681;13054,776;18,13347
 254,84; 2587,654;  172,836;13907,999;17,58128
 255,43; 2741,620;  179,526;14928,557;17,37127
 256,03; 2870,734;  191,756;15909,828;17,04393
 256,63; 2981,230;  184,755;16890,074;16,74003
 257,23; 3039,599;  177,294;17824,052;16,22000
 257,82; 3177,344;  188,754;18820,164;16,04060
 258,42; 3248,409;  151,599;19574,214;15,94435
 259,02; 3388,050;  195,757;20491,653;15,72876
 259,62; 3408,334;  176,906;21225,981;15,35188
 260,21; 3475,113;  185,449;21823,782;15,20295
 260,81; 3459,842;  179,143;22350,439;14,79705
 261,41; 3475,299;  164,907;22820,132;14,61204
 262,01; 3505,399;  208,598;23240,750;14,31391
 262,60; 3473,675;  171,217;23577,206;14,10946
 263,20; 3513,793;  188,064;23878,768;14,03812
 263,80; 3482,014;  194,983;24112,198;13,74337
 264,40; 3455,013;  167,598;24287,495;13,62947
 264,99; 3449,523;  191,675;24467,920;13,41990
 265,59; 3393,179;  174,442;24619,032;13,16748
 266,19; 3390,229;  161,444;24758,239;13,12685
 266,78; 3421,204;  208,366;24913,405;13,00479
 267,38; 3355,715;  184,212;24901,804;12,83096
 267,98; 3338,788;  181,597;24907,718;12,76865
 268,58; 3291,607;  185,827;25016,167;12,50801
 269,17; 3302,046;  170,364;24988,792;12,61837
 269,77; 3290,171;  186,062;24752,107;12,63577
 270,37; 3197,523;  167,136;24681,907;12,36147
 270,96; 3241,252;  223,600;24538,654;12,41063
 271,56; 3179,815;  170,217;24297,592;12,47379
 272,16; 3136,746;  182,753;24038,749;12,38260
 272,75; 3132,038;  186,292;24019,881;12,35964
 273,35; 3117,374;  174,908;23944,212;12,37927
 273,95; 3113,714;  185,984;23884,307;12,35416
 274,54; 3112,400;  168,143;23891,727;12,41068
 275,14; 3206,942;  208,216;24297,630;12,44832
 275,74; 3162,869;  157,446;24328,050;12,43421
 276,33; 3271,894;  205,139;24746,269;12,49639
 276,93; 3303,244;  185,143;25131,191;12,49938
 277,53; 3370,975;  174,218;25555,741;12,59482
 278,12; 3478,320;  160,371;26123,189;12,77962
 278,72; 3620,468;  206,833;26741,722;12,86470
 279,32; 3660,654;  180,295;27291,472;12,83736
 279,91; 3777,733;  163,910;28007,777;12,97888
 280,51; 3928,159;  182,218;28570,005;13,19561
 281,11; 4063,164;  180,602;29225,449;13,36747
 281,70; 4124,919;  160,371;29692,206;13,42466
 282,30; 4284,969;  180,755;30403,438;13,57991
 282,90; 4426,230;  172,447;30816,138;13,88143
 283,49; 4565,127;  182,677;31264,176;14,09987
 284,09; 4739,996;  211,832;31783,103;14,34267
 284,69; 4862,008;  213,833;32162,515;14,54888
 285,28; 4989,627;  190,986;32511,908;14,84686
 285,88; 5169,315;  235,753;32632,603;15,22852
 286,47; 5231,861;  192,216;32827,020;15,44255
 287,07; 5385,516;  209,833;32883,815;15,84038
 287,67; 5546,119;  199,990;33014,893;16,29177
 288,26; 5599,347;  171,910;32884,291;16,59138
 288,86; 5843,735;  176,063;33004,788;17,26437
 289,46; 6071,471;  196,833;33129,167;17,83851
 290,05; 6289,017;  174,450;33145,879;18,54505
 290,65; 6539,078;  188,755;33413,316;19,11334
 291,24; 6833,345;  188,295;33554,191;19,91570
 291,84; 7102,230;  200,447;33571,997;20,68164
 292,44; 7339,748;  179,759;33788,751;21,30379
 293,03; 7647,099;  244,449;33928,526;21,97671
 293,63; 7886,123;  182,601;34108,963;22,70659
 294,22; 8160,102;  197,217;34208,344;23,41259
 294,82; 8290,735;  180,137;34351,144;23,73532
 295,41; 8401,534;  168,525;33973,437;24,35448
 296,01; 8648,916;  218,599;33979,053;24,97098
 296,61; 8715,884;  203,987;33634,331;25,46159
 297,20; 8772,115;  190,446;33442,533;25,80791
 297,80; 8828,846;  200,758;33170,755;26,16951
 298,39; 8900,938;  175,370;32777,584;26,76373
 298,99; 8980,051;  203,446;32677,521;27,02650
 299,58; 8961,705;  190,989;32559,281;27,09663
 300,18; 9038,001;  207,758;32312,702;27,50431
 300,78; 9022,574;  185,142;31897,885;27,86713
 301,37; 9033,632;  205,521;31938,182;27,82027
 301,97; 9159,286;  193,141;31873,378;28,30202
 302,56; 9167,462;  185,139;31812,098;28,40084
 303,16; 9163,372;  165,600;31709,432;28,52466
 303,75; 9253,203;  178,219;31737,295;28,75555
 304,35; 9344,714;  172,683;31988,324;28,82869
 304,94; 9384,547;  186,448;32052,335;28,86503
 305,54; 9448,898;  203,603;31958,446;29,11460
 306,13; 9459,237;  150,452;31881,840;29,33620
 306,73; 9405,472;  169,221;31632,912;29,35527
 307,33; 9403,427;  198,066;31628,713;29,28785
 307,92; 9520,284;  189,987;31616,393;29,68935
 308,52; 9609,850;  168,370;32189,992;29,48470
 309,11; 9816,471;  185,214;32645,139;29,67122
 309,71; 9849,798;  157,983;32939,798;29,56461
 310,30; 9957,454;  170,833;33093,031;29,72651
 310,90;10102,069;  218,295;33487,954;29,70807
 311,49;10133,285;  185,372;33619,494;29,75377
 312,09;10189,186;  148,527;33792,185;29,84414
 312,68;10361,959;  230,988;34163,564;29,85618
 313,28;10344,361;  162,526;34301,316;29,82483
 313,87;10381,639;  163,064;34460,179;29,79427
 314,47;10440,669;  174,369;34707,813;29,72857
 315,06;10462,437;  158,449;34834,406;29,71508
 315,66;10560,955;  167,681;35121,185;29,73457
 316,25;10420,002;  153,908;35029,122;29,43665
 316,85;10408,493;  141,065;35072,352;29,39321
 317,44;10463,624;  178,753;35374,627;29,22181
 318,04;10409,338;  150,217;35390,466;29,11194
 318,63;10377,795;  151,836;35376,884;29,03036
 319,22;10429,078;  180,832;35541,149;28,98234
 319,82;10399,305;  175,371;35624,692;28,84099
 320,41;10300,908;  191,832;35502,126;28,62926
 321,01;10241,264;  197,834;35601,991;28,36794
 321,60;10185,335;  173,294;35642,649;28,22730
 322,20;10086,699;  170,064;35616,966;27,97603
 322,79;10161,914;  203,834;35745,763;28,01784
 323,39;10059,315;  178,452;35765,620;27,76524
 323,98; 9945,052;  167,834;35687,523;27,52619
 324,58; 9907,634;  167,216;35551,964;27,52717
 325,17; 9831,740;  174,139;35381,820;27,43038
 325,76; 9725,239;  193,295;35215,578;27,21680
 326,36; 9557,218;  157,757;34847,075;27,09612
 326,95; 9455,550;  196,525;34498,088;26,99301
 327,55; 9211,367;  161,217;34156,630;26,62168
 328,14; 9116,583;  165,758;33819,620;26,59673
 328,74; 8974,862;  194,755;33386,749;26,45249
 329,33; 8800,433;  198,757;33012,783;26,21341
 329,92; 8551,732;  159,215;32478,557;25,96748
 330,52; 8366,198;  187,220;31800,031;25,87235
 331,11; 8211,581;  184,140;31400,313;25,71565
 331,71; 8017,117;  183,371;30765,546;25,61540
 332,30; 7842,163;  193,295;30257,873;25,44146
 332,89; 7671,957;  228,219;29819,246;25,15539
 333,49; 7438,719;  194,910;29188,214;24,98442
 334,08; 7277,890;  180,678;28766,581;24,82766
 334,68; 7123,628;  175,909;28253,189;24,74499
 335,27; 6979,873;  206,066;27924,741;24,43770
 335,86; 6897,812;  232,909;27733,005;24,23592
 336,46; 6733,057;  197,451;27428,390;24,00066
 337,05; 6611,858;  173,756;27255,369;23,77297
 337,65; 6515,182;  161,525;27009,238;23,66554
 338,24; 6551,467;  227,218;27063,684;23,56588
 338,83; 6465,098;  206,680;26875,977;23,46675
 339,43; 6383,878;  176,831;26789,771;23,32342
 340,02; 6310,403;  176,370;26769,914;23,06587
 340,61; 6308,268;  172,526;26764,973;23,07325
 341,21; 6269,555;  209,062;26772,672;22,81502
 341,80; 6202,628;  175,909;26746,022;22,68232
 342,40; 6226,752;  185,374;26814,170;22,68739
 342,99; 6197,265;  176,526;26901,323;22,52866
 343,58; 6153,433;  175,680;27040,321;22,25138
 344,18; 6185,402;  191,681;27106,032;22,26961
 344,77; 6192,818;  176,600;27457,383;22,05295
 345,36; 6226,319;  156,525;27770,780;21,98065
 345,96; 6291,695;  205,142;28138,496;21,78955
 346,55; 6282,499;  180,606;28308,423;21,69345
 347,14; 6326,874;  163,835;28633,240;21,64794
 347,74; 6363,937;  152,454;29076,026;21,47550
 348,33; 6498,615;  182,223;29727,617;21,37860
 348,92; 6621,639;  190,685;30325,106;21,34089
 349,52; 6661,381;  152,146;30821,826;21,22368
 350,11; 6720,004;  176,139;31060,441;21,18832
 350,70; 6657,761;  182,910;31140,750;20,91506
 351,29; 6561,866;  165,905;30902,230;20,80913
 351,89; 6536,917;  179,830;30893,167;20,69813
 352,48; 6504,715;  146,680;30871,449;20,69352
 353,07; 6461,581;  187,297;30848,418;20,46332
 353,67; 6447,931;  195,993;30772,174;20,44708
 354,26; 6345,967;  187,758;30523,596;20,30011
 354,85; 6276,308;  185,373;30321,267;20,21156
 355,45; 6238,245;  152,986;30321,444;20,17093
 356,04; 6197,857;  167,759;30123,284;20,13017
 356,63; 6178,042;  204,679;29949,660;20,08192
 357,22; 6068,477;  180,136;29745,530;19,91633
 357,82; 6013,028;  185,906;29537,851;19,85259
 358,41; 5970,194;  206,371;29434,573;19,72007
 359,00; 5849,894;  172,062;29247,897;19,52766
 359,60; 5872,221;  184,911;29215,097;19,59102
 360,19; 5810,886;  183,298;29049,190;19,49563
 360,78; 5791,305;  187,602;28855,756;19,54679
 361,37; 5737,289;  172,063;28623,643;19,56034
 361,97; 5647,702;  181,448;28507,987;19,29729
 362,56; 5562,927;  173,062;28250,966;19,19611
 363,15; 5594,090;  220,524;27987,393;19,35244
 363,74; 5450,746;  178,215;27757,057;19,11803
 364,34; 5379,509;  202,985;27318,422;19,09069
 364,93; 5257,928;  171,985;26938,465;19,00117
 365,52; 5172,427;  148,986;26498,236;19,06483
 366,11; 5123,294;  175,985;26150,100;19,04707
 366,71; 5016,386;  169,832;25798,995;18,91031
 367,30; 4960,211;  184,140;25445,760;18,90643
 367,89; 4941,232;  207,758;25249,023;18,90269
 368,48; 4859,484;  194,215;24893,140;18,88855
 369,07; 4743,607;  177,064;24550,211;18,73596
 369,67; 4712,836;  202,677;24224,249;18,77546
 370,26; 4630,883;  176,064;23890,986;18,78488
 370,85; 4590,489;  189,986;23657,110;18,75178
 371,44; 4518,764;  174,602;23421,233;18,68728
 372,03; 4490,294;  166,216;23182,548;18,78700
 372,63; 4440,165;  158,525;22892,871;18,83335
 373,22; 4384,054;  169,218;22610,905;18,78128
 373,81; 4324,243;  159,679;22294,369;18,81465
 374,40; 4274,060;  170,066;22019,746;18,78286
 374,99; 4264,860;  172,909;21755,688;18,95933
 375,59; 4175,784;  158,989;21481,419;18,83836
 376,18; 4159,536;  192,448;21318,589;18,77810
 376,77; 4131,948;  191,064;21097,972;18,84967
 377,36; 4130,366;  199,909;21033,349;18,86610
 377,95; 4085,739;  190,524;20770,462;18,92724
 378,55; 4084,264;  162,911;20590,145;19,19669
 379,14; 4037,351;  182,063;20548,838;18,92930
 379,73; 4031,477;  184,293;20439,314;18,99373
 380,32; 4074,641;  187,294;20454,344;19,18062
 380,91; 4028,421;  179,907;20352,292;19,07813
 381,50; 4032,296;  188,216;20279,700;19,13288
 382,10; 4026,410;  175,679;20164,497;19,26442
 382,69; 3982,997;  155,832;20101,000;19,18843
 383,28; 4055,572;  208,754;20160,886;19,28023
 383,87; 3984,387;  176,139;19975,557;19,23414
 384,46; 4016,473;  165,906;19926,060;19,48652
 385,05; 4030,204;  200,446;19952,420;19,38924
 385,64; 4054,447;  174,370;19871,869;19,69833
 386,24; 4039,582;  157,675;19841,362;19,72144
 386,83; 4099,137;  197,137;19919,742;19,78440
 387,42; 4104,801;  197,832;20050,490;19,67983
 388,01; 4184,083;  178,443;20213,564;19,99309
 388,60; 4269,687;  176,214;20488,910;20,15229
 389,19; 4290,848;  164,518;20605,349;20,18670
 389,78; 4373,861;  172,749;20910,798;20,25799
 390,37; 4538,617;  225,675;21383,133;20,38497
 390,96; 4538,397;  188,522;21431,328;20,47694
 391,56; 4588,913;  189,825;21602,399;20,54442
 392,15; 4680,059;  165,826;21874,241;20,79485
 392,74; 4683,973;  149,899;22061,541;20,69254
 393,33; 4861,514;  184,055;22338,912;21,11257
 393,92; 4943,550;  177,820;22828,054;21,04053
 394,51; 4971,407;  155,593;22921,725;21,15341
 395,10; 5099,232;  194,047;23179,407;21,34048
 395,69; 5146,321;  187,124;23371,497;21,39026
 396,28; 5222,594;  186,815;23369,787;21,72189
 396,87; 5219,213;  191,042;23560,563;21,51594
 397,46; 5304,318;  190,808;23627,905;21,81802
 398,06; 5401,411;  204,728;23870,233;21,95889
 398,65; 5420,724;  183,259;23917,529;22,06710
 399,24; 5477,747;  194,643;24031,775;22,16334
 399,83; 5519,648;  168,478;24112,609;22,34857
 400,42; 5606,359;  199,083;24264,429;22,46914
 401,01; 5690,247;  181,764;24384,700;22,75956
 401,60; 5706,016;  179,749;24453,496;22,76644
 402,19; 5749,293;  207,813;24319,300;22,98274
 402,78; 5770,864;  206,487;24403,792;22,99586
 403,37; 5767,339;  193,161;24164,420;23,25359
 403,96; 5744,120;  184,448;24034,585;23,31086
 404,55; 5779,684;  190,886;23966,363;23,50656
 405,14; 5784,974;  171,788;23822,006;23,73418
 405,73; 5796,806;  189,302;23733,758;23,81667
 406,32; 5822,383;  186,747;23628,388;24,04113
 406,91; 5805,064;  186,343;23371,961;24,23365
 407,50; 5845,898;  195,718;23263,146;24,49419
 408,09; 5749,487;  173,403;22909,949;24,52476
 408,68; 5739,451;  186,244;22801,213;24,55545
 409,27; 5801,372;  164,327;22635,206;25,08600
 409,86; 5788,051;  174,265;22510,602;25,13297
 410,45; 5880,726;  214,355;22380,437;25,56325
 411,04; 5854,892;  209,214;22359,191;25,48841
 411,63; 5833,422;  195,846;22070,608;25,77206
 412,22; 5824,684;  197,631;21906,435;25,92060
 412,81; 5780,134;  209,406;21664,950;25,96405
 413,40; 5781,392;  212,874;21278,980;26,43354
 413,99; 5723,141;  244,026;20934,947;26,48077
 414,58; 5616,118;  181,873;20559,855;26,66724
 415,17; 5592,888;  182,713;20325,684;26,85887
 415,76; 5578,687;  181,169;20153,483;27,02500
 416,35; 5576,379;  182,018;20024,331;27,18615
 416,94; 5646,895;  201,555;20020,839;27,47496
 417,53; 5682,316;  182,406;20224,833;27,44134
 418,12; 5785,140;  183,100;20330,971;27,80462
 418,71; 5936,760;  195,643;20671,509;28,03846
 419,30; 5997,660;  176,793;20789,490;28,23923
 419,89; 6078,685;  171,178;20987,581;28,37909
 420,48; 6207,836;  209,336;21198,984;28,57838
 421,07; 6263,584;  192,337;21377,852;28,65754
 421,66; 6284,861;  161,571;21367,565;28,87528
 422,25; 6322,861;  173,808;21313,787;29,08732
 422,84; 6377,932;  220,963;21402,871;29,06711
 423,43; 6326,068;  191,883;21064,515;29,38865
 424,02; 6309,355;  212,500;20822,691;29,58175
 424,60; 6184,749;  183,353;20363,969;29,73842
 425,19; 6113,737;  198,734;20092,478;29,73298
 425,78; 6158,550;  209,658;20059,537;29,96942
 426,37; 6136,414;  216,045;19881,047;30,10612
 426,96; 6116,168;  198,506;19742,088;30,27931
 427,55; 6116,332;  190,434;19560,799;30,59260
 428,14; 6028,076;  183,820;19414,171;30,39080
 428,73; 6056,124;  194,817;19177,005;30,87794
 429,32; 6078,431;  206,121;19222,016;30,88106
 429,91; 6158,954;  231,432;19202,303;31,24539
 430,50; 6139,113;  203,511;19019,364;31,54575
 431,08; 6075,702;  212,744;18903,174;31,36877
 431,67; 6142,616;  237,131;18764,698;31,87404
 432,26; 6075,237;  253,594;18672,937;31,60614
 432,85; 6015,440;  262,670;18309,887;31,87622
 433,44; 5965,257;  263,981;17871,444;32,37988
 434,03; 5828,761;  277,831;17595,417;32,05372
 434,62; 5730,179;  235,750;17102,022;32,57643
 435,21; 5719,731;  252,901;16855,135;32,92827
 435,79; 5667,922;  241,214;16766,153;32,83950
 436,38; 5676,088;  233,064;16658,707;33,13736
 436,97; 5670,424;  238,680;16540,590;33,31968
 437,56; 5628,996;  249,762;16313,893;33,48599
 438,15; 5620,280;  210,222;16256,300;33,71577
 438,74; 5645,585;  246,531;16245,714;33,74581
 439,33; 5666,158;  224,684;16323,820;33,79979
 439,91; 5700,561;  198,225;16398,842;33,96375
 440,50; 5756,760;  241,071;16402,951;34,12777
 441,09; 5804,313;  241,613;16486,630;34,24250
 441,68; 5812,389;  225,077;16535,749;34,25556
 442,27; 5828,904;  213,384;16488,631;34,50344
 442,86; 5822,854;  187,775;16505,583;34,53331
 443,44; 5908,476;  199,774;16579,396;34,85247
 444,03; 5985,545;  263,545;16673,533;34,86901
 444,62; 5864,453;  201,391;16496,407;34,75334
 445,21; 5882,765;  217,467;16323,325;35,17539
 445,80; 5874,685;  233,471;16243,473;35,23556
 446,39; 5774,888;  261,316;15992,026;35,04973
 446,97; 5729,112;  193,936;15812,419;35,43991
 447,56; 5677,989;  201,708;15544,776;35,69221
 448,15; 5639,036;  198,936;15364,714;35,87089
 448,74; 5566,865;  212,475;15120,591;35,91594
 449,33; 5504,807;  198,246;14915,573;36,05655
 449,91; 5434,358;  192,865;14743,987;36,02123
 450,50; 5398,992;  187,018;14549,813;36,28802
 451,09; 5364,944;  218,096;14400,990;36,28912
 451,68; 5370,459;  228,943;14402,155;36,27629
 452,26; 5323,251;  216,330;14273,557;36,32951
 452,85; 5271,471;  198,790;14204,785;36,21793
 453,44; 5288,739;  220,257;14170,290;36,33312
 454,03; 5313,415;  187,254;14128,650;36,76935
 454,61; 5290,737;  191,026;14065,587;36,75584
 455,20; 5404,482;  228,797;14258,086;36,89200
 455,79; 5377,159;  214,948;14251,587;36,77669
 456,38; 5410,592;  216,723;14341,120;36,77232
 456,97; 5425,073;  197,107;14428,933;36,73433
 457,55; 5445,001;  197,801;14423,917;36,88428
 458,14; 5475,430;  229,721;14400,024;37,01903
 458,73; 5422,461;  210,263;14278,291;37,04995
 459,31; 5476,845;  239,035;14379,523;37,04123
 459,90; 5528,577;  245,418;14448,611;37,19698
 460,49; 5611,474;  274,263;14532,573;37,43228
 461,08; 5594,869;  212,114;14592,206;37,43199
 461,66; 5639,077;  218,574;14701,343;37,42726
 462,25; 5705,200;  214,577;14809,171;37,62094
 462,84; 5716,021;  235,037;14834,042;37,54354
 463,43; 5643,014;  175,657;14744,910;37,52668
 464,01; 5712,761;  207,428;14779,293;37,78057
 464,60; 5735,066;  250,887;14762,986;37,79039
 465,19; 5624,110;  189,967;14538,983;37,87119
 465,77; 5593,902;  215,199;14491,462;37,67585
 466,36; 5564,491;  235,349;14343,421;37,77371
 466,95; 5428,535;  204,350;14058,326;37,70893
 467,53; 5367,231;  214,278;13774,595;38,00024
 468,12; 5254,737;  228,432;13496,206;37,88355
 468,71; 5151,370;  217,737;13235,300;37,89982
 469,29; 5060,888;  195,741;12990,285;38,02517
 469,88; 4979,512;  203,434;12705,431;38,20252
 470,47; 5063,483;  265,975;12837,219;38,16255
 471,06; 5004,036;  206,283;12812,217;38,05948
 471,64; 5045,225;  221,359;12910,233;38,01650
 472,23; 5045,289;  182,211;12872,417;38,32150
 472,81; 5071,687;  185,747;13041,453;38,00600
 473,40; 5138,565;  199,288;13161,269;38,10588
 473,99; 5269,980;  284,057;13322,828;38,23921
 474,57; 5246,858;  200,596;13524,347;37,87419
 475,16; 5311,561;  216,055;13618,656;38,01878
 475,75; 5400,940;  222,829;13741,639;38,30301
 476,33; 5420,852;  228,985;13858,601;38,09254
 476,92; 5441,809;  226,750;13935,333;38,04229
 477,51; 5460,288;  214,676;13911,087;38,29917
 478,09; 5435,656;  214,061;13997,282;37,88371
 478,68; 5445,852;  221,523;13903,510;38,18399
 479,27; 5470,170;  247,752;13895,896;38,26468
 479,85; 5452,007;  209,523;13970,638;38,09636
 480,44; 5499,663;  205,293;14049,059;38,24371
 481,02; 5976,161;  227,911;15303,255;38,13014
 481,61; 6735,534;  236,525;17450,586;37,75407
 482,20; 7233,853;  222,911;18702,884;37,93805
 482,78; 7533,511;  249,216;19458,442;37,92082
 483,37; 7729,191;  228,144;20073,355;37,79777
 483,95; 7867,373;  264,607;20290,174;37,96530
 484,54; 7911,767;  265,371;20433,212;37,91380
 485,13; 7884,607;  235,532;20376,454;37,97778
 485,71; 7765,181;  213,685;20220,457;37,74470
 486,30; 7703,319;  247,070;19894,421;37,95040
 486,88; 7601,192;  273,609;19530,330;38,05208
 487,47; 7323,374;  261,225;18817,085;38,05886
 488,05; 7009,199;  240,995;18005,094;38,10046
 488,64; 6544,372;  239,767;16715,615;38,26574
 489,23; 5846,319;  251,842;14945,116;38,07509
 489,81; 4970,685;  248,304;12677,892;37,99306
 490,40; 4772,975;  202,689;12032,320;38,63422
 490,98; 4617,739;  200,844;11754,736;38,22863
 491,57; 4611,040;  234,227;11638,805;38,37769
 492,15; 4560,475;  215,460;11594,871;38,18313
 492,74; 4532,044;  215,534;11529,442;38,15225
 493,32; 4492,448;  233,536;11409,206;38,10878
 493,91; 4485,101;  208,538;11276,747;38,63825
 494,50; 4462,634;  221,388;11303,165;38,27226
 495,08; 4437,420;  209,234;11133,405;38,70487
 495,67; 4398,179;  226,768;11157,296;38,16294
 496,25; 4345,983;  175,848;11091,481;38,20333
 496,84; 4336,288;  188,537;11049,200;38,19058
 497,42; 4309,548;  177,772;11000,801;38,17579
 498,01; 4328,701;  217,923;10952,006;38,29650
 498,59; 4249,777;  188,387;10879,252;37,98935
 499,18; 4253,376;  191,923;10876,318;38,01295
 499,76; 4275,444;  215,078;10813,648;38,31051
 500,35; 4146,829;  202,235;10572,804;38,03643
 500,93; 4131,764;  194,002;10516,495;38,14740
 501,52; 4117,470;  196,849;10465,777;38,17946
 502,10; 4126,529;  215,314;10495,311;38,04685
 502,69; 4030,291;  197,392;10305,806;37,91790
 503,27; 3952,341;  182,696;10127,163;37,90696
 503,86; 3931,402;  199,084;10087,093;37,74590
 504,44; 3905,949;  174,778; 9992,777;38,00337
 505,03; 3793,810;  164,547; 9675,595;38,15839
 505,61; 3762,259;  191,239; 9624,748;37,85463
 506,19; 3739,903;  198,162; 9449,771;38,28243
 506,78; 3606,488;  170,396; 9229,137;37,93123
 507,36; 3542,873;  194,700; 9134,661;37,45176
 507,95; 3534,389;  181,013; 8946,263;38,25762
 508,53; 3458,319;  183,703; 8860,691;37,73909
 509,12; 3402,422;  191,320; 8715,883;37,66882
 509,70; 3372,265;  207,397; 8559,862;37,89142
 510,29; 3305,781;  205,245; 8401,244;37,82987
 510,87; 3199,827;  184,473; 8227,516;37,49022
 511,46; 3181,824;  173,473; 8038,943;38,24756
 512,04; 3089,139;  188,398; 7912,437;37,55472
 512,62; 3051,039;  184,319; 7804,754;37,61885
 513,21; 2966,564;  161,476; 7630,858;37,55449
 513,79; 2938,772;  181,404; 7489,410;37,73079
 514,38; 2872,442;  166,325; 7326,945;37,79166
 514,96; 2862,059;  211,940; 7244,507;37,68351
 515,54; 2788,838;  166,095; 7094,433;37,85530
 516,13; 2752,883;  197,480; 7026,710;37,41861
 516,71; 2691,335;  182,636; 6897,990;37,35766
 517,30; 2637,373;  171,945; 6780,825;37,30477
 517,88; 2638,158;  196,253; 6684,232;37,63738
 518,46; 2579,154;  168,100; 6554,929;37,75041
 519,05; 2554,209;  171,793; 6549,670;37,35437
 519,63; 2515,843;  189,946; 6433,740;37,25133
 520,22; 2515,598;  201,565; 6469,577;36,91814
 520,80; 2479,889;  178,642; 6342,966;37,33170
 521,38; 2487,253;  217,870; 6324,394;37,16325
 521,97; 2443,867;  178,720; 6246,476;37,33089
 522,55; 2443,744;  189,874; 6265,637;37,09608
 523,13; 2424,108;  176,721; 6252,248;36,99082
 523,72; 2420,093;  180,023; 6163,028;37,44055
 524,30; 2457,594;  208,030; 6362,032;36,55449
 524,89; 2460,389;  173,874; 6386,557;36,80398
 525,47; 2474,453;  205,031; 6514,802;35,96679
 526,05; 2488,051;  160,108; 6568,896;36,32424
 526,64; 2541,016;  196,955; 6676,188;36,17807
 527,22; 2585,223;  198,569; 6816,635;36,06271
 527,80; 2640,986;  233,647; 6913,910;36,03660
 528,39; 2633,227;  190,186; 7005,696;35,84532
 528,97; 2693,676;  190,494; 7176,310;35,83236
 529,55; 2761,985;  200,336; 7390,423;35,62751
 530,14; 2813,347;  210,572; 7594,744;35,24803
 530,72; 2858,430;  185,801; 7654,121;35,78621
 531,30; 2865,330;  167,726; 7810,517;35,29606
 531,89; 2893,299;  191,803; 7893,650;35,07596
 532,47; 2950,296;  218,265; 8050,398;34,88233
 533,05; 2972,002;  217,570; 8074,023;35,05949
 533,63; 3010,940;  207,419; 8137,561;35,35272
 534,22; 2975,524;  180,958; 8149,477;35,07009
 534,80; 3016,745;  211,114; 8273,232;34,80018
 535,38; 3086,282;  277,034; 8325,898;34,90242
 535,97; 3004,618;  198,342; 8260,998;34,80585
 536,55; 3042,821;  226,498; 8343,900;34,69488
 537,13; 3015,915;  219,495; 8297,624;34,61718
 537,71; 3094,086;  269,110; 8298,389;35,18343
 538,30; 3094,690;  255,266; 8423,966;34,75980
 538,88; 3117,290;  285,731; 8462,765;34,62820
 539,46; 3214,622;  328,883; 8646,701;34,69347
 540,05; 3237,171;  316,115; 8775,884;34,52879
 540,63; 3276,509;  361,038; 8905,380;34,12165
 541,21; 3345,903;  366,116; 9075,653;34,21291
 541,79; 3357,718;  390,654; 9170,864;33,79263
 542,38; 3422,649;  412,807; 9330,650;33,75079
 542,96; 3469,248;  408,656; 9479,706;33,74022
 543,54; 3585,550;  430,654; 9661,083;34,17930
 544,12; 3584,347;  388,578; 9823,594;33,87137
 544,70; 3607,509;  383,964; 9914,522;33,82326
 545,29; 3671,418;  407,499;10096,663;33,68628
 545,87; 3664,718;  399,039;10157,787;33,46412
 546,45; 3665,280;  363,730;10156,749;33,71331
 547,03; 3668,244;  342,500;10258,850;33,53799
 547,62; 3672,425;  326,885;10368,644;33,31627
 548,20; 3741,357;  355,117;10597,289;33,06174
 548,78; 3737,953;  317,044;10698,351;32,95258
 549,36; 3804,755;  292,275;10921,984;33,04399
 549,94; 3831,468;  272,117;11092,114;32,89605
 550,53; 3893,650;  286,274;11315,691;32,70686
 551,11; 3906,872;  254,584;11509,573;32,45039
 551,69; 4002,171;  268,198;11862,748;32,20455
 552,27; 4052,839;  233,119;12089,540;32,21647
 552,85; 4147,811;  233,430;12540,839;31,80508
 553,44; 4256,479;  233,736;12820,273;31,96068
 554,02; 4362,737;  257,814;13201,336;31,71411
 554,60; 4419,686;  201,584;13494,682;31,73152
 555,18; 4579,647;  243,121;13918,271;31,71100
 555,76; 4645,291;  226,198;14301,923;31,39513
 556,34; 4761,786;  233,662;14674,211;31,35701
 556,93; 4857,646;  219,583;15083,144;31,20426
 557,51; 5000,647;  203,278;15387,273;31,59491
 558,09; 5086,139;  224,198;15830,305;31,15409
 558,67; 5191,303;  233,048;16219,568;31,01522
 559,25; 5275,737;  242,355;16487,953;30,98305
 559,83; 5370,928;  229,280;16758,879;31,10571
 560,41; 5473,696;  208,585;17153,685;31,07159
 561,00; 5575,333;  222,125;17470,204;31,03655
 561,58; 5631,697;  212,662;17727,120;30,94035
 562,16; 5712,533;  210,584;18055,027;30,83285
 562,74; 5796,321;  190,352;18460,559;30,68367
 563,32; 5873,483;  199,511;18857,914;30,40974
 563,90; 6025,549;  216,125;19201,847;30,59891
 564,48; 6172,991;  227,123;19670,236;30,58085
 565,06; 6317,042;  217,279;20219,584;30,49530
 565,65; 6486,381;  216,513;20925,774;30,27567
 566,23; 6733,302;  264,433;21708,119;30,16678
 566,81; 6873,060;  213,740;22407,220;30,00575
 567,39; 7146,126;  225,819;23319,797;29,96585
 567,97; 7281,059;  237,202;24005,747;29,63520
 568,55; 7577,975;  245,895;24831,062;29,82319
 569,13; 7706,702;  215,279;25450,181;29,68675
 569,71; 7971,780;  209,660;26444,524;29,58704
 570,29; 8295,955;  258,736;27448,131;29,56012
 570,87; 8478,059;  261,737;28161,745;29,44917
 571,45; 8631,873;  235,433;28793,947;29,40083
 572,03; 8709,893;  196,281;29276,799;29,27600
 572,61; 8903,591;  194,587;30040,895;29,17950
 573,20; 9106,154;  215,047;30685,741;29,17921
 573,78; 9277,729;  222,049;31358,732;29,08364
 574,36; 9402,085;  223,818;31822,003;29,04682
 574,94; 9533,507;  267,050;32220,109;29,00022
 575,52; 9572,894;  221,130;32436,480;29,02891
 576,10; 9756,560;  266,514;33090,274;28,91213
 576,68; 9854,078;  249,665;33505,806;28,88012
 577,26;10022,596;  262,131;34187,650;28,77027
 577,84;10158,977;  272,818;34734,484;28,68741
 578,42;10259,949;  305,743;35110,116;28,60045
 579,00;10232,667;  248,049;35113,781;28,63734
 579,58;10239,583;  279,666;35455,584;28,31459
 580,16;10172,594;  258,975;35470,356;28,15459
 580,74;10227,654;  255,975;35730,039;28,10977
 581,32;10153,074;  251,512;35778,119;27,87083
 581,90;10204,902;  276,513;35652,497;28,06534
 582,48;10164,455;  277,975;35829,559;27,80883
 583,06;10189,152;  258,820;36024,002;27,76536
 583,64;10192,322;  246,897;36134,165;27,71296
 584,22;10056,430;  267,284;35945,573;27,43726
 584,80; 9993,657;  274,897;35793,562;27,36240
 585,38; 9814,648;  275,124;35326,464;27,21586
 585,96; 9828,311;  257,434;35489,175;27,16550
 586,54; 9802,709;  277,592;35445,780;27,08447
 587,12; 9799,714;  234,744;35572,147;27,06755
 587,70; 9829,218;  277,511;35778,551;26,90543
 588,28; 9804,037;  256,591;35861,182;26,81521
 588,86; 9800,450;  268,360;35959,988;26,70679
 589,44; 9731,190;  243,978;36002,057;26,53166
 590,02; 9812,978;  264,362;36238,897;26,54271
 590,59; 9798,017;  235,515;36415,306;26,43051
 591,17; 9824,700;  257,750;36680,742;26,26624
 591,75; 9739,001;  235,287;36860,235;25,94874
 592,33; 9833,881;  263,440;37061,033;26,00833
 592,91; 9862,826;  203,519;37315,217;26,02766
 593,49; 9882,128;  222,059;37674,071;25,79319
 594,07; 9916,744;  239,520;37925,442;25,67862
 594,65; 9895,277;  250,284;37876,764;25,63352
 595,23; 9974,871;  239,978;38306,171;25,57359
 595,81; 9958,422;  245,286;38397,031;25,45922
 596,39; 9976,221;  226,671;38542,232;25,44541
 596,97; 9970,873;  223,750;38692,197;25,33797
 597,55; 9908,828;  234,515;38665,316;25,17333
 598,12; 9850,448;  222,521;38696,469;25,02454
 598,70; 9837,947;  211,365;38773,674;24,96371
 599,28; 9844,685;  239,442;39030,128;24,76173
 599,86; 9830,563;  232,673;38969,186;24,77737
 600,44; 9758,098;  189,904;39112,856;24,58239
 601,02; 9810,406;  254,677;39160,333;24,56128
 601,60; 9787,846;  236,826;39101,094;24,57533
 602,18; 9705,033;  195,367;39178,268;24,39446
 602,75; 9702,592;  220,516;39266,809;24,28419
 603,33; 9635,408;  217,289;39268,148;24,11757
 603,91; 9639,073;  206,829;39221,947;24,17587
 604,49; 9606,239;  232,750;39381,511;23,94326
 605,07; 9586,093;  238,056;39291,270;23,93666
 605,65; 9545,651;  248,982;39463,035;23,70749
 606,23; 9551,065;  287,053;39628,463;23,54774
 606,80; 9499,254;  305,901;39619,481;23,38467
 607,38; 9488,014;  334,752;39785,301;23,20186
 607,96; 9490,331;  359,593;39643,237;23,24310
 608,54; 9502,235;  403,905;39804,091;23,09210
 609,12; 9428,069;  378,670;39785,242;22,96419
 609,70; 9441,056;  418,827;39870,257;22,86921
 610,27; 9413,055;  418,132;39954,589;22,75096
 610,85; 9403,441;  425,980;39954,538;22,71133
 611,43; 9357,624;  431,904;39861,625;22,63704
 612,01; 9280,710;  413,517;39660,987;22,59303
 612,59; 9237,733;  409,827;39664,131;22,48902
 613,16; 9164,999;  381,284;39732,901;22,32110
 613,74; 9140,839;  375,981;39599,910;22,34569
 614,32; 9048,589;  345,213;39499,943;22,22816
 614,90; 9053,983;  337,595;39429,573;22,29713
 615,48; 8863,151;  297,362;39101,288;22,07454
 616,05; 8841,739;  277,207;39046,981;22,09074
 616,63; 8770,866;  278,976;38958,059;21,95473
 617,21; 8727,271;  295,285;38882,617;21,85169
 617,79; 8665,513;  271,517;38756,350;21,81118
 618,36; 8572,755;  291,825;38720,557;21,54880
 618,94; 8439,642;  229,823;38321,579;21,55274
 619,52; 8357,110;  249,360;38017,161;21,46736
 620,10; 8357,761;  234,670;38077,333;21,46543
 620,67; 8240,681;  253,899;37938,282;21,19388
 621,25; 8217,831;  270,287;37750,276;21,20477
 621,83; 8162,503;  249,439;37684,782;21,13795
 622,41; 8177,119;  300,439;37741,832;21,03736
 622,98; 8096,789;  256,360;37503,046;21,05000
 623,56; 8041,283;  274,667;37527,385;20,84845
 624,14; 7972,535;  257,211;37256,457;20,85265
 624,72; 7919,365;  247,516;37240,510;20,73865
 625,29; 7944,714;  241,975;37337,839;20,76441
 625,87; 7936,313;  275,209;37290,909;20,69690
 626,45; 7842,593;  231,359;37086,075;20,65199
 627,02; 7773,820;  248,132;37006,005;20,47367
 627,60; 7708,560;  228,289;37018,074;20,33247
 628,18; 7694,453;  210,747;37125,396;20,27300
 628,76; 7650,157;  225,360;37122,575;20,12292
 629,33; 7653,737;  254,284;37117,201;20,07289
 629,91; 7617,453;  232,978;37096,333;20,03202
 630,49; 7593,893;  255,207;37162,507;19,88410
 631,06; 7562,233;  248,976;37310,230;19,73289
 631,64; 7486,269;  255,437;37284,604;19,52740
 632,22; 7472,166;  212,589;37177,783;19,63895
 632,79; 7524,904;  230,205;37487,314;19,57935
 633,37; 7476,417;  225,902;37466,818;19,46922
 633,95; 7452,639;  236,436;37626,426;19,29983
 634,52; 7449,827;  226,593;37730,266;19,26007
 635,10; 7357,716;  233,593;37751,993;18,98834
 635,68; 7393,643;  232,359;37921,293;19,00103
 636,25; 7362,312;  202,434;38006,841;18,93927
 636,83; 7340,927;  207,360;38113,037;18,81926
 637,41; 7362,030;  222,358;38123,060;18,83783
 637,98; 7393,615;  246,666;38412,090;18,72624
 638,56; 7357,068;  237,049;38524,700;18,59613
 639,13; 7356,190;  224,898;38519,838;18,62202
 639,71; 7335,694;  266,899;38742,551;18,37213
 640,29; 7237,167;  183,514;38394,662;18,45967
 640,86; 7281,794;  203,976;38724,562;18,37412
 641,44; 7263,114;  203,053;38562,538;18,40499
 642,02; 7279,126;  237,669;38730,514;18,29290
 642,59; 7229,600;  210,207;38880,106;18,15209
 643,17; 7208,997;  209,361;38775,466;18,14971
 643,74; 7202,624;  209,592;38758,673;18,14059
 644,32; 7132,713;  233,515;38873,265;17,85518
 644,89; 7115,341;  230,130;38821,472;17,84133
 645,47; 7113,122;  253,669;38837,833;17,77790
 646,05; 7075,442;  235,361;38730,117;17,76886
 646,62; 7023,608;  224,285;38751,247;17,64822
 647,20; 6981,313;  232,362;38965,300;17,42432
 647,77; 6911,863;  195,669;38789,430;17,40228
 648,35; 6890,876;  202,669;38628,637;17,40543
 648,92; 6854,195;  225,516;38666,844;17,24363
 649,50; 6790,054;  195,131;38549,743;17,19460
 650,08; 6771,604;  205,977;38472,027;17,15784
 650,65; 6773,770;  204,362;38580,696;17,11838
 651,23; 6866,860;  187,670;39402,980;17,03210
 651,80; 7050,410;  187,593;40441,418;17,04886
 652,38; 7086,038;  207,747;40831,778;16,93158
 652,95; 7151,358;  180,593;41162,601;17,00933
 653,53; 7162,601;  217,362;41458,346;16,84062
 654,10; 7250,305;  238,593;41596,938;16,95356
 654,68; 7125,779;  200,286;41438,991;16,79367
 655,25; 7151,560;  195,440;41513,121;16,83570
 655,83; 7104,034;  198,440;41557,559;16,69667
 656,40; 7102,354;  226,824;41553,381;16,63707
 656,98; 7067,289;  211,132;41612,050;16,56040
 657,55; 6997,994;  202,132;41424,565;16,48583
 658,13; 6927,621;  200,055;41004,618;16,48729
 658,70; 6850,403;  218,132;40836,286;16,32834
 659,28; 6742,799;  207,517;39943,955;16,44657
 659,85; 6550,196;  221,133;39137,469;16,26326
 660,43; 6558,824;  211,517;39171,292;16,29195
 661,00; 6534,990;  203,287;39186,883;16,24197
 661,58; 6549,310;  198,825;39684,398;16,08305
 662,15; 6538,553;  200,671;39787,759;16,00997
 662,73; 6629,642;  259,287;40132,658;15,97646
 663,30; 6644,423;  208,825;40338,327;16,03707
 663,88; 6618,512;  203,133;40417,534;15,95294
 664,45; 6613,217;  191,595;40816,895;15,80695
 665,03; 6674,306;  204,287;41034,256;15,84625
 665,60; 6781,087;  283,980;41597,539;15,72633
 666,17; 6769,022;  219,287;41755,285;15,76882
 666,75; 6769,804;  194,057;41987,030;15,73410
 667,32; 6850,970;  211,980;42377,007;15,74525
 667,90; 6837,136;  198,057;42671,060;15,63129
 668,47; 6863,379;  224,595;42877,959;15,56450
 669,05; 6901,853;  207,134;43213,243;15,56690
 669,62; 6843,557;  169,365;43318,065;15,46789
 670,19; 6899,877;  186,596;43414,888;15,52983
 670,77; 6909,735;  201,365;43623,249;15,44928
 671,34; 6884,747;  188,519;43622,533;15,41702
 671,92; 6902,683;  195,211;43894,893;15,34902
 672,49; 6909,618;  220,134;43936,177;15,30212
 673,06; 6853,399;  167,673;43929,077;15,27768
 673,64; 6937,412;  185,904;43829,437;15,46966
 674,21; 6845,039;  171,827;43843,260;15,28050
 674,79; 6943,282;  215,442;44122,928;15,32276
 675,36; 6917,833;  212,289;44363,597;15,18765
 675,93; 6913,768;  186,443;44148,342;15,30263
 676,51; 6950,857;  203,673;44467,396;15,24315
 677,08; 6929,485;  206,443;44381,833;15,21898
 677,65; 6921,266;  209,904;44546,579;15,13727
 678,23; 6948,970;  196,520;44795,709;15,14030
 678,80; 6952,752;  191,058;44857,762;15,13811
 679,38; 6979,610;  192,058;44996,277;15,14936
 679,95; 6977,622;  204,597;45358,638;14,99982
 680,52; 7021,788;  187,520;45587,845;15,05335
 681,10; 7089,801;  213,136;45975,744;15,02682
 681,67; 7089,197;  203,597;46311,489;14,93367
 682,24; 7089,133;  185,597;46273,927;14,97892
 682,82; 7168,376;  195,367;46900,288;14,92992
 683,39; 7246,772;  238,521;47203,495;14,92229
 683,96; 7295,092;  204,521;47468,240;15,00214
 684,54; 7265,874;  181,367;47753,601;14,89210
 685,11; 7342,886;  239,521;48220,193;14,80464
 685,68; 7408,052;  205,598;48535,477;14,90269
 686,25; 7310,218;  184,367;48735,145;14,67711
 686,83; 7424,230;  198,444;48885,045;14,84143
 687,40; 7459,242;  186,213;49219,021;14,83298
 687,97; 7560,485;  228,983;49642,689;14,83698
 688,55; 7488,882;  184,137;49562,819;14,79332
 689,12; 7533,202;  166,829;49904,488;14,81045
 689,69; 7581,676;  174,906;50041,772;14,85309
 690,26; 7579,303;  202,983;50050,056;14,79790
 690,84; 7586,623;  188,983;50302,109;14,76188
 691,41; 7613,251;  203,060;50265,701;14,80184
 691,98; 7683,494;  201,983;50695,292;14,81683
 692,56; 7602,044;  189,753;50778,961;14,65192
 693,13; 7723,749;  244,137;50830,706;14,78577
 693,70; 7708,376;  207,061;50932,221;14,78816
 694,27; 7701,542;  198,214;51258,813;14,69495
 694,84; 7718,170;  190,061;51133,404;14,77741
 695,42; 7770,720;  230,061;51318,765;14,75994
 695,99; 7769,194;  195,369;51420,510;14,78537
 696,56; 7732,129;  197,522;51374,025;14,72279
 697,13; 7824,065;  203,523;51868,848;14,74982
 697,71; 7817,385;  175,292;51889,285;14,77761
 698,28; 7905,551;  189,830;52164,108;14,84527
 698,85; 7830,255;  157,446;52182,699;14,74824
 699,42; 7894,729;  162,907;52472,752;14,78081
 699,99; 7923,433;  197,215;52494,498;14,77365
 700,57; 7935,061;  193,677;52598,628;14,77224
 701,14; 7913,535;  179,677;52679,604;14,73118
 701,71; 7967,854;  198,908;52900,196;14,74147
 702,28; 7987,636;  187,600;52938,864;14,78644
 702,85; 7994,187;  199,908;52906,994;14,78791
 703,43; 8057,122;  207,831;53360,894;14,76733
 704,00; 8098,288;  225,062;53470,408;14,78669
 704,57; 8064,992;  208,524;53381,231;14,77538
 705,14; 8156,928;  216,447;53670,669;14,85473
 705,71; 8173,786;  211,062;53798,491;14,85931
 706,28; 8167,183;  189,678;53673,160;14,91583
 706,86; 8188,503;  225,216;53871,597;14,84403
 707,43; 8215,207;  239,755;53866,420;14,87218
 708,00; 8251,219;  218,678;53859,627;14,97464
 708,57; 8186,770;  190,832;53769,988;14,92360
 709,14; 8201,782;  221,909;53938,271;14,85557
 709,71; 8230,794;  195,601;54030,786;14,92554
 710,28; 8246,191;  204,678;54240,378;14,88185
 710,86; 8303,972;  203,832;54357,662;14,95765
 711,43; 8374,831;  226,986;54343,869;15,05601
 712,00; 8337,920;  210,371;54522,076;14,96464
 712,57; 8371,932;  219,986;54547,283;15,00525
 713,14; 8390,329;  209,294;54769,567;14,99449
 713,71; 8412,110;  222,448;54599,851;15,06078
 714,28; 8430,276;  210,294;54662,211;15,09585
 714,85; 8388,058;  190,371;54369,341;15,13075
 715,42; 8451,916;  202,217;54618,010;15,16049
 716,00; 8511,851;  263,987;54710,063;15,14868
 716,57; 8473,171;  204,371;54790,732;15,14811
 717,14; 8452,799;  197,679;54877,093;15,09731
 717,71; 8505,426;  179,679;54784,761;15,24720
 718,28; 8499,977;  233,372;54958,891;15,10558
 718,85; 8532,912;  187,449;55041,944;15,21382
 719,42; 8577,155;  217,833;55159,690;15,21485
 719,99; 8562,475;  181,141;55005,128;15,28771
 720,56; 8624,103;  216,218;55192,873;15,29355
 721,13; 8622,422;  195,141;55296,618;15,29411
 721,70; 8592,973;  192,449;55204,056;15,27046
 722,27; 8666,678;  217,526;55252,263;15,35240
 722,84; 8740,920;  256,757;55392,701;15,38772
 723,41; 8695,317;  185,911;55387,370;15,41518
 723,98; 8712,945;  194,757;55579,653;15,37998
 724,55; 8779,957;  223,680;55786,245;15,39936
 725,12; 8742,585;  154,296;55632,298;15,48053
 725,69; 8861,135;  200,450;55798,505;15,57732
 726,27; 8884,840;  195,450;55981,328;15,57633
 726,84; 8955,390;  197,834;56216,612;15,63325
 727,41; 9012,710;  214,142;56164,972;15,72554
 727,98; 9110,107;  215,450;56552,102;15,78840
 728,55; 9135,812;  234,296;56450,233;15,83451
 729,12; 9085,439;  181,373;56490,055;15,81295
 729,69; 9208,220;  219,296;56778,954;15,89282
 730,26; 9186,540;  222,912;56899,007;15,81554
 730,82; 9220,014;  207,297;56748,137;15,94019
 731,39; 9252,642;  197,143;56856,191;15,98244
 731,96; 9340,962;  190,143;57225,782;16,04404
 732,53; 9395,512;  201,758;57488,451;16,04867
 733,10; 9433,217;  213,374;57534,196;16,08463
 733,67; 9472,306;  206,989;57751,096;16,10124
 734,24; 9487,318;  190,682;57308,610;16,27621
 734,81; 9558,715;  227,297;57476,586;16,29962
 735,38; 9495,342;  205,759;57341,409;16,25882
 735,95; 9524,201;  199,143;57096,000;16,38941
 736,52; 9606,828;  217,374;57264,823;16,45903
 737,09; 9540,610;  214,605;56955,876;16,43602
 737,66; 9642,929;  255,451;57133,698;16,50451
 738,23; 9691,634;  196,451;57238,521;16,64593
 738,80; 9743,338;  262,528;57491,805;16,56636
 739,37; 9800,581;  234,298;57758,089;16,63013
 739,94; 9826,517;  213,529;57798,834;16,69347
 740,51; 9933,221;  317,990;57901,118;16,69800
 741,07; 9788,156;  201,837;57796,863;16,64435
 741,64; 9883,630;  238,452;58036,917;16,68760
 742,21; 9984,642;  215,991;58049,277;16,89105
 742,78; 9958,116;  195,221;57761,792;16,95931
 743,35; 9980,667;  212,221;58071,076;16,88323
 743,92;10067,987;  248,760;58380,052;16,89146
 744,49;10134,999;  229,222;57986,336;17,15075
 745,06;10156,165;  213,376;58040,005;17,19414
 745,63;10150,715;  194,837;58088,135;17,19694
 746,19;10206,651;  199,760;58059,265;17,29515
 746,76;10170,586;  213,222;58131,010;17,19224
 747,33;10250,367;  214,530;58115,063;17,33289
 747,90;10360,303;  214,914;58300,347;17,46632
 748,47;10412,699;  221,838;58159,093;17,58948
 749,04;10356,788;  230,376;58126,531;17,49065
 749,61;10419,570;  238,684;58085,199;17,59983
 750,17;10469,890;  218,453;58233,329;17,67036
 750,74;10489,594;  223,838;58144,382;17,72386
 751,31;10480,991;  198,992;58062,897;17,76928
 751,88;10484,003;  189,453;57927,643;17,82971
 752,45;10560,246;  211,992;58131,234;17,86669
 753,02;10518,874;  234,684;57998,210;17,80395
 753,58;10563,270;  193,069;57799,648;18,00177
 754,15;10699,667;  195,531;57940,624;18,19053
 754,72;10615,141;  199,531;57836,524;18,07105
 755,29;10648,230;  183,992;57553,885;18,23995
 755,86;10703,550;  209,146;57743,399;18,24027
 756,42;10749,947;  218,300;57561,222;18,36608
 756,99;10752,190;  197,070;57557,890;18,40127
 757,56;10775,202;  208,377;57604,559;18,41033
 758,13;10792,214;  165,300;57528,612;18,52563
 758,70;10900,611;  194,070;57577,588;18,65787
 759,26;10979,777;  200,301;57653,026;18,76234
 759,83;11017,558;  214,608;57756,002;18,77422
 760,40;11082,417;  190,532;57602,901;18,97132
 760,97;11126,660;  181,532;57745,724;19,01378
 761,53;11094,903;  173,686;57327,085;19,10860
 762,10;11103,838;  164,686;57321,369;19,13889
 762,67;11227,696;  205,840;57303,499;19,30352
 763,24;11155,093;  158,224;56833,552;19,40327
 763,80;11209,951;  198,147;56985,990;19,39113
 764,37;11246,733;  189,917;56905,658;19,49514
 764,94;11200,745;  178,917;56441,711;19,58991
 765,50;11252,834;  176,302;56408,764;19,69775
 766,07;11302,308;  205,917;56378,510;19,75410
 766,64;11222,243;  184,917;56131,409;19,72836
 767,21;11303,794;  181,917;56024,462;19,91649
 767,77;11277,960;  202,763;55931,592;19,87337
 768,34;11362,664;  209,148;55892,722;20,03017
 768,91;11441,522;  210,456;55688,314;20,24423
 769,47;11464,150;  205,225;55727,752;20,27812
 770,04;11445,470;  209,225;55589,343;20,28931
 770,61;11423,713;  190,533;55380,166;20,35379
 771,18;11471,494;  190,379;55216,142;20,50151
 771,74;11558,814;  195,918;55472,888;20,55629
 772,31;11621,365;  207,149;55135,018;20,78037
 772,88;11575,915;  172,456;54969,378;20,81040
 773,44;11587,081;  185,072;54724,893;20,90584
 774,01;11628,247;  208,149;54924,792;20,87134
 774,58;11607,337;  192,303;54459,846;21,03473
 775,14;11729,503;  179,380;54622,053;21,21520
 775,71;11750,745;  189,457;54557,029;21,26504
 776,27;11807,219;  238,534;54489,620;21,32434
 776,84;11874,539;  270,226;54588,981;21,36336
 777,41;11836,782;  209,457;54333,573;21,48271
 777,97;11809,487;  187,996;54079,857;21,56446
 778,54;11885,653;  202,303;54161,295;21,65227
 779,11;11882,280;  234,304;54029,502;21,65245
 779,67;11927,523;  194,534;54077,939;21,77477
 780,24;11939,535;  206,227;53719,454;21,92600
 780,80;12062,855;  226,381;53780,738;22,10180
 781,37;12077,790;  219,458;53756,176;22,14991
 781,94;12052,187;  201,227;53600,614;22,19306
 782,50;12095,507;  208,227;53384,282;22,35457
 783,07;12164,827;  230,381;53494,104;22,40633
 783,63;12156,378;  196,381;53211,388;22,55964
 784,20;12200,774;  223,766;53191,442;22,61192
 784,77;12269,171;  209,689;52920,110;22,87874
 785,33;12227,876;  189,612;52761,548;22,89865
 785,90;12266,272;  209,920;52792,909;22,92824
 786,46;12335,592;  229,151;52641,577;23,09842
 787,03;12283,758;  205,689;52420,553;23,13148
 787,59;12333,463;  205,228;52470,607;23,20510
 788,16;12361,321;  222,689;52317,814;23,30090
 788,73;12420,333;  228,074;52168,098;23,47373
 789,29;12347,576;  210,382;51840,151;23,50813
 789,86;12436,973;  227,844;51718,819;23,71120
 790,42;12432,524;  222,228;51698,642;23,72018
 790,99;12354,228;  226,382;51221,464;23,78238
 791,55;12411,471;  205,767;51189,517;23,94038
 792,12;12461,176;  235,459;51250,724;23,96482
 792,68;12444,649;  214,844;50930,162;24,11462
 793,25;12462,815;  218,382;50748,907;24,23175
 793,81;12513,674;  272,613;50268,961;24,48391
 794,38;12403,224;  197,460;50098,783;24,45980
 794,94;12424,390;  206,613;50010,836;24,53161
 795,51;12463,787;  234,614;49636,120;24,75466
 796,07;12405,799;  216,075;49489,250;24,73907
 796,64;12559,581;  229,537;49531,303;25,00934
 797,20;12446,747;  227,922;49147,049;24,97760
 797,77;12411,836;  194,614;48731,179;25,17117
 798,33;12390,848;  222,614;48696,924;25,10244
 798,90;12442,783;  237,614;48520,439;25,27849
 799,46;12411,103;  209,922;48030,569;25,51446
 800,03;12414,808;  218,537;47993,084;25,52880
 800,59;12421,743;  231,537;47753,445;25,65176
 801,15;12445,447;  244,230;47560,575;25,78648
 801,72;12334,306;  219,307;47296,705;25,73422
 802,28;12342,241;  248,845;46915,989;25,91415
 802,85;12309,484;  220,768;46647,042;26,03852
 803,41;12336,035;  218,922;46464,249;26,20181
 803,98;12251,354;  216,538;46099,763;26,22923
 804,54;12212,674;  213,999;45879,432;26,27518
 805,11;12208,225;  222,307;45628,947;26,39684
 805,67;12254,468;  249,846;45488,384;26,53627
 806,23;12138,634;  232,231;45109,207;26,53121
 806,80;12205,415;  249,231;45059,414;26,68185
 807,36;12227,735;  243,615;44980,390;26,78807
 807,93;12224,055;  248,154;44652,982;26,96982
 808,49;12127,375;  215,692;44293,496;27,02422
 809,05;12135,003;  205,231;44215,011;27,10709
 809,62;12217,784;  237,308;44081,295;27,32524
 810,18;12245,412;  235,462;43991,964;27,44723
 810,74;12171,654;  201,077;43586,094;27,59150
 811,31;12185,744;  204,770;43439,378;27,71154
 811,87;12214,448;  220,693;43221,969;27,89163
 812,44;12238,922;  253,924;43351,638;27,80890
 813,00;12186,011;  182,385;43052,614;27,99991
 813,56;12345,638;  234,616;43028,975;28,30051
 814,13;12337,651;  220,001;42955,182;28,35521
 814,69;12290,124;  224,078;42729,620;28,38700
 815,25;12229,598;  187,924;42265,980;28,61747
 815,82;12275,226;  235,770;42261,803;28,64761
 816,38;12286,238;  268,617;42136,010;28,70401
 816,94;12212,865;  210,617;41705,524;28,92463
 817,51;12184,570;  207,848;41603,655;28,93221
 818,07;12134,659;  210,232;41236,169;29,06558
 818,63;12126,056;  233,617;41066,222;29,12486
 819,20;12131,683;  226,925;40996,122;29,20038
 819,76;12073,849;  201,156;40596,252;29,39142
 820,32;12114,092;  248,694;40578,766;29,42072
 820,89;12070,412;  236,310;40284,589;29,54959
 821,45;11988,578;  222,848;39917,873;29,64031
 822,01;12024,667;  229,617;39761,387;29,83689
 822,57;12027,372;  234,848;39616,287;29,94437
 823,14;11917,922;  200,310;39335,494;29,94138
 823,70;11899,319;  212,387;39129,855;30,03004
 824,26;11867,562;  213,387;38920,985;30,10824
 824,82;11920,344;  249,002;38790,346;30,28265
 825,39;11864,817;  215,310;38492,476;30,43461
 825,95;11929,676;  233,156;38548,683;30,52684
 826,51;11913,611;  237,310;38121,351;30,82116
 827,08;11942,162;  262,157;38176,943;30,80594
 827,64;11934,866;  241,618;38010,304;30,96017
 828,20;11847,186;  211,618;37685,588;31,04973
 828,76;11918,583;  250,388;37665,641;31,18566
 829,32;11898,749;  248,234;37578,463;31,20933
 829,89;11816,299;  200,080;37370,901;31,25091
 830,45;11944,388;  241,003;37326,262;31,55805
 831,01;11915,862;  221,465;37130,930;31,68401
 831,57;11966,490;  223,388;37025,753;31,90855
 832,14;11971,733;  221,542;37007,190;31,94232
 832,70;11975,899;  202,619;36693,936;32,26324
 833,26;11984,834;  183,234;36693,681;32,32390
 833,82;12016,000;  217,081;36566,965;32,45930
 834,38;12041,166;  216,927;36445,172;32,63818
 834,95;12014,409;  201,465;36371,764;32,65924
 835,51;12015,498;  169,466;36375,509;32,71838
 836,07;12137,510;  221,389;36354,332;32,97855
 836,63;12191,907;  238,696;36262,231;33,18167
 837,19;12128,227;  231,158;36133,900;33,13694
 837,75;12080,008;  182,158;35783,183;33,41996
 838,32;12181,636;  244,851;35931,929;33,44848
 838,88;12253,956;  240,004;36031,367;33,56662
 839,44;12199,506;  231,312;35826,804;33,62278
 840,00;12283,442;  221,851;35768,396;33,93182
 840,56;12181,454;  204,928;35450,834;33,97991
 841,12;12180,851;  207,312;35470,964;33,95433
 841,68;12164,555;  194,313;35269,632;34,12725
 842,25;12222,798;  204,159;35319,224;34,22645
 842,81;12162,041;  201,236;34981,585;34,38955
 843,37;12220,669;  196,467;35065,715;34,48369
 843,93;12261,065;  201,313;34900,537;34,75511
 844,49;12276,462;  223,467;35037,206;34,62138
 845,05;12224,321;  180,698;34748,336;34,84075
 845,61;12293,333;  233,082;34749,543;34,94058
 846,17;12283,653;  216,467;34727,519;34,96615
 846,73;12327,972;  214,313;34654,957;35,17257
 847,29;12280,215;  198,083;34464,241;35,25967
 847,86;12316,228;  199,467;34366,679;35,46312
 848,42;12329,932;  199,237;34149,732;35,73054
 848,98;12374,406;  222,314;34060,708;35,91214
 849,54;12413,418;  200,929;34173,684;35,94789
 850,10;12428,046;  215,083;34019,661;36,12813
 850,66;12354,442;  190,468;33877,560;36,10871
 851,22;12400,993;  193,929;33775,151;36,35086
 851,78;12500,544;  250,083;33848,820;36,46107
 852,34;12425,863;  230,237;33620,104;36,52493
 852,90;12457,337;  204,160;33484,772;36,81776
 853,46;12458,811;  202,776;33288,672;37,04308
 854,02;12550,054;  208,776;33279,417;37,31793
 854,58;12448,528;  205,084;33035,163;37,29337
 855,14;12465,694;  209,315;32941,216;37,44475
 855,70;12445,629;  179,084;32930,038;37,45401
 856,26;12496,333;  226,238;32714,476;37,76781
 856,82;12424,115;  204,853;32531,683;37,79913
 857,38;12454,512;  237,776;32537,582;37,82294
 857,94;12389,831;  211,161;32329,943;37,91760
 858,50;12429,305;  223,469;32305,227;38,04603
 859,06;12386,625;  203,007;31977,357;38,34419
 859,62;12407,022;  232,854;31969,103;38,36045
 860,18;12366,957;  214,700;31814,617;38,45661
 860,74;12262,738;  186,469;31707,747;38,31148
 861,30;12246,443;  196,239;31471,108;38,52999
 861,86;12323,994;  259,008;31502,546;38,61594
 862,42;12305,467;  220,008;31344,061;38,82997
 862,98;12397,787;  245,239;31302,960;39,12891
 863,54;12287,569;  217,623;31021,398;39,18333
 864,10;12344,273;  219,624;31180,143;39,16165
 864,66;12226,362;  191,008;30899,966;39,19167
 865,22;12262,605;  212,547;30794,096;39,40303
 865,78;12274,771;  211,162;30645,226;39,63851
 866,34;12221,091;  197,778;30510,202;39,66464
 866,90;12211,719;  222,470;30363,871;39,77668
 867,45;12174,577;  215,316;30152,924;39,94728
 868,01;12067,204;  220,163;30001,285;39,78037
 868,57;12132,755;  216,393;29747,799;40,35149
 869,13;12086,537;  204,317;29714,622;40,26465
 869,69;12074,933;  206,394;29664,598;40,28942
 870,25;12050,715;  188,624;29505,420;40,46176
 870,81;12079,573;  216,471;29362,704;40,70201
 871,37;12081,508;  215,240;29343,834;40,73752
 871,93;12091,751;  229,855;29159,503;41,00256
 872,49;11995,994;  241,702;28918,633;40,98867
 873,04;11912,853;  201,933;28846,378;40,88374
 873,60;11891,634;  195,702;28661,970;41,08699
 874,16;11901,031;  219,394;28592,177;41,17198
 874,72;11882,877;  202,471;28505,023;41,26980
 875,28;11831,800;  216,394;28451,946;41,13752
 875,84;11848,338;  212,779;28416,485;41,25543
 876,40;11856,031;  202,702;28364,023;41,38062
 876,95;11858,108;  222,548;28281,100;41,46885
 877,51;11898,877;  237,240;28300,485;41,55484
 878,07;11971,569;  244,625;28271,485;41,84181
 878,63;11975,646;  207,240;28237,100;41,98525
 879,19;11963,877;  225,933;28303,254;41,80578
 879,75;12030,108;  202,010;28379,177;41,97760
 880,30;12106,262;  205,010;28285,792;42,38219
 880,86;12169,338;  252,856;28427,562;42,29497
 881,42;12161,185;  200,702;28463,023;42,31953
 881,98;12262,338;  234,856;28522,638;42,51829
 882,54;12388,108;  199,317;28608,331;42,90466
 883,09;12428,569;  222,933;28754,946;42,77874
 883,65;12487,492;  201,933;28861,792;42,86678
 884,21;12666,877;  244,471;29072,946;43,09075
 884,77;12698,415;  204,933;29068,023;43,28533
 885,32;12888,877;  207,625;29326,638;43,54973
 885,88;12976,646;  249,548;29431,792;43,61247
 886,44;13081,338;  216,471;29416,254;44,05809
 887,00;13059,185;  235,163;29470,100;43,86540
 887,56;13165,262;  216,702;29674,177;43,95679
 888,11;13240,954;  213,856;29634,177;44,27925
 888,67;13361,108;  248,856;29821,331;44,33938
 889,23;13450,415;  224,779;29841,023;44,65670
 889,79;13368,031;  200,933;29749,715;44,56054
 890,34;13400,415;  224,087;29662,562;44,75887
 890,90;13555,492;  289,471;29787,100;44,97318
 891,46;13481,108;  207,933;29726,177;44,96600
 892,01;13542,492;  229,856;29682,023;45,20087
 892,57;13521,800;  244,087;29601,177;45,22830
 893,13;13442,646;  215,240;29331,100;45,43024
 893,69;13445,492;  214,702;29356,638;45,40121
 894,24;13399,723;  226,163;29248,562;45,39101
 894,80;13406,723;  224,933;29131,254;45,60176
 895,36;13381,954;  227,625;29013,946;45,69646
 895,91;13253,569;  220,317;28725,946;45,72168
 896,47;13315,800;  234,548;28766,331;45,84800
 897,03;13237,185;  215,240;28519,408;46,00716
 897,58;13140,877;  224,010;28410,715;45,82610
 898,14;13149,262;  228,779;28245,485;46,11707
 898,70;13068,108;  205,087;28088,562;46,13134
 899,25;13100,108;  221,856;28018,254;46,33065
 899,81;13077,492;  235,163;27872,100;46,46799
 900,37;12920,031;  200,625;27663,331;46,31520
 900,92;12978,646;  221,702;27718,177;46,39484
 901,48;12935,569;  211,779;27456,254;46,70228
 902,03;12863,031;  210,010;27343,869;46,63185
 902,59;12860,492;  219,087;27251,100;46,76457
 903,15;12877,954;  240,702;27038,408;47,15796
 903,70;12757,031;  227,010;26772,485;47,20210
 904,26;12722,646;  210,856;26691,946;47,24802
 904,82;12813,031;  224,933;26620,715;47,68981
 905,37;12778,108;  232,240;26556,638;47,65871
 905,93;12717,262;  208,702;26433,715;47,69706
 906,48;12708,338;  235,779;26319,408;47,81758
 907,04;12747,108;  236,010;26205,715;48,17574
 907,60;12616,723;  226,625;25990,408;48,09114
 908,15;12629,185;  200,471;25854,485;48,44744
 908,71;12597,800;  243,317;25959,100;48,04241
 909,26;12575,185;  211,317;25708,869;48,49041
 909,82;12590,646;  241,394;25696,792;48,51329
 910,37;12573,108;  255,163;25506,100;48,78213
 910,93;12478,108;  212,163;25377,023;48,74235
 911,48;12459,646;  210,471;25194,792;49,02745
 912,04;12427,262;  209,779;25031,100;49,22173
 912,60;12516,338;  225,548;25080,485;49,45010
 913,15;12367,877;  217,548;24820,869;49,38491
 913,71;12338,800;  203,394;24704,485;49,53006
 914,26;12369,108;  203,856;24682,869;49,69666
 914,82;12350,723;  226,317;24523,869;49,89970
 915,37;12347,723;  201,087;24410,023;50,17418
 915,93;12286,108;  258,394;24353,408;49,91785
 916,48;12295,338;  202,240;24169,946;50,45580
 917,04;12277,031;  235,317;24069,100;50,52372
 917,59;12255,954;  251,394;23976,177;50,59924
 918,15;12152,877;  191,856;23859,792;50,53681
 918,70;12142,031;  216,856;23817,946;50,52807
 919,26;12158,954;  223,010;23684,177;50,87532
 919,81;12086,646;  203,010;23426,562;51,17062
 920,37;12055,262;  211,163;23411,715;51,05093
 920,92;12071,877;  232,856;23239,408;51,45935
 921,48;11947,338;  199,317;23019,869;51,48000
 922,03;12004,338;  207,394;23052,177;51,63956
 922,59;11931,877;  212,933;22870,715;51,72150
 923,14;11901,185;  209,471;22770,485;51,82264
 923,69;11902,954;  229,548;22779,715;51,76638
 924,25;11930,877;  232,163;22623,792;52,24592
 924,80;11806,338;  213,087;22481,638;52,06109
 925,36;11789,877;  216,779;22339,946;52,31212
 925,91;11757,954;  212,702;22210,485;52,48371
 926,47;11745,492;  191,087;22149,023;52,62064
 927,02;11753,415;  271,240;22125,792;52,53905
 927,57;11640,415;  209,856;21936,023;52,61195
 928,13;11635,723;  206,548;21810,869;52,90226
 928,68;11629,800;  215,163;21760,100;52,98060
 929,24;11524,338;  196,394;21569,562;53,00077
 929,79;11495,800;  202,702;21532,792;52,94445
 930,34;11386,108;  216,394;21315,408;52,93951
 930,90;11434,185;  214,163;21233,638;53,37917
 931,45;11507,877;  224,394;21307,869;53,51814
 932,01;11430,800;  232,240;21098,177;53,66910
 932,56;11385,954;  237,240;20955,331;53,81149
 933,11;11402,877;  249,702;20967,254;53,83443
 933,67;11258,646;  216,010;20769,946;53,72517
 934,22;11290,108;  226,548;20745,254;53,91938
 934,77;11288,108;  243,010;20597,485;54,26373
 935,33;11278,877;  221,240;20489,562;54,55625
 935,88;11192,262;  221,087;20395,100;54,38271
 936,43;11207,415;  208,010;20289,715;54,77326
 936,99;11191,415;  218,087;20199,485;54,91772
 937,54;11077,492;  202,933;19966,408;55,02352
 938,09;11058,877;  219,779;20040,869;54,68467
 938,65;11066,646;  218,471;19837,100;55,29528
 939,20;11012,415;  191,702;19767,408;55,27624
 939,75;10968,415;  196,702;19645,869;55,38393
 940,31;10904,338;  201,010;19523,562;55,39294
 940,86;10951,877;  218,240;19571,869;55,46059
 941,41;10995,877;  298,548;19481,254;55,76548
 941,96;10913,415;  210,933;19300,254;56,06529
 942,52;10875,492;  208,471;19239,792;56,04982
 943,07;10798,877;  201,625;19097,946;56,08103
 943,62;10780,800;  208,471;19001,100;56,25785
 944,18;10771,723;  195,702;18939,100;56,42531
 944,73;10786,338;  220,625;18894,792;56,57930
 945,28;10713,723;  178,394;18645,715;57,04850
 945,83;10766,877;  213,163;18682,100;57,14305
 946,39;10751,338;  209,010;18585,023;57,37005
 946,94;10755,338;  241,163;18501,946;57,57790
 947,49;10682,646;  207,240;18407,638;57,55592
 948,04;10671,800;  247,163;18397,254;57,43573
 948,59;10613,723;  236,548;18291,792;57,47458
 949,15;10576,185;  201,933;18110,562;57,92879
 949,70;10552,108;  220,010;18106,869;57,76362
 950,25;10487,569;  236,240;17984,562;57,75943
 950,80;10408,108;  179,317;17871,638;57,81486
 951,36;10387,338;  178,625;17785,177;57,98247
 951,91;10418,569;  232,010;17830,715;57,88244
 952,46;10286,569;  199,163;17579,254;58,04001
 953,01;10321,415;  224,240;17595,408;58,12606
 953,56;10211,877;  190,471;17396,946;58,24206
 954,11;10226,877;  220,087;17374,562;58,33341
 954,67;10180,492;  209,779;17376,715;58,08091
 955,22;10090,338;  189,240;17149,485;58,37828
 955,77;10121,954;  235,856;17149,331;58,45102
 956,32;10093,262;  259,856;17000,869;58,73841
 956,87; 9978,800;  196,702;16885,792;58,61373
 957,42; 9997,954;  209,163;16839,562;58,86083
 957,98; 9947,569;  209,317;16755,023;58,85667
 958,53; 9953,723;  235,317;16758,100;58,81821
 959,08; 9878,646;  198,779;16575,177;59,10865
 959,63; 9797,723;  203,625;16436,485;59,10294
 960,18; 9856,415;  227,240;16404,715;59,52211
 960,73; 9835,415;  218,471;16338,177;59,65955
 961,28; 9701,954;  187,933;16310,638;59,01008
 961,83; 9776,723;  239,163;16255,023;59,55072
 962,39; 9706,415;  194,933;16131,254;59,68431
 962,94; 9697,877;  222,010;16006,485;60,03283
 963,49; 9603,800;  217,394;15937,408;59,70991
 964,04; 9617,108;  226,548;15870,177;60,02801
 964,59; 9529,185;  186,933;15730,408;60,10401
 965,14; 9527,569;  224,087;15700,869;60,11251
 965,69; 9496,338;  205,856;15567,177;60,47971
 966,24; 9514,262;  202,625;15422,100;61,18238
 966,79; 9423,031;  230,933;15378,869;60,68218
 967,34; 9338,415;  192,471;15215,331;60,88018
 967,89; 9325,338;  206,087;15166,023;60,95782
 968,44; 9340,723;  213,010;15120,638;61,22847
 968,99; 9295,338;  219,163;15072,177;61,10662
 969,55; 9285,800;  225,625;14979,023;61,41077
 970,10; 9239,185;  216,548;14840,485;61,69773
 970,65; 9231,338;  227,548;14746,177;62,01543
 971,20; 9167,262;  198,548;14626,715;62,16114
 971,75; 9045,185;  188,933;14519,485;61,79980
 972,30; 9039,569;  220,240;14463,408;61,91972
 972,85; 8967,492;  202,471;14373,792;61,85042
 973,40; 8933,723;  194,625;14285,254;62,02064
 973,95; 8939,800;  226,087;14183,254;62,43182
 974,50; 8880,954;  240,933;14163,254;62,05877
 975,05; 8853,108;  223,010;14003,715;62,62450
 975,60; 8823,492;  222,856;13962,254;62,59835
 976,15; 8767,415;  205,625;13834,485;62,82103
 976,70; 8759,723;  226,010;13747,946;63,11014
 977,25; 8713,108;  233,779;13691,638;63,00652
 977,80; 8656,262;  202,702;13509,023;63,53040
 978,35; 8589,800;  217,394;13366,638;63,67214
 978,89; 8577,108;  191,471;13324,946;63,84934
 979,44; 8596,492;  221,240;13314,792;63,96471
 979,99; 8475,492;  199,625;13033,485;64,48463
 980,54; 8447,954;  240,240;13037,485;64,13657
 981,09; 8415,338;  230,856;12928,254;64,45795
 981,64; 8350,262;  225,702;12795,177;64,63722
 982,19; 8375,800;  257,548;12768,792;64,88765
 982,74; 8288,262;  226,240;12684,946;64,70994
 983,29; 8230,646;  209,548;12498,177;65,27252
 983,84; 8193,954;  223,933;12372,100;65,60678
 984,39; 8178,338;  284,240;12408,792;65,10837
 984,94; 8057,569;  189,317;12135,254;65,86551
 985,49; 8049,108;  237,702;12149,792;65,57544
 986,03; 8025,262;  236,471;12058,946;65,88122
 986,58; 7935,108;  260,933;11876,100;66,07029
 987,13; 7856,108;  222,240;11805,408;65,90484
 987,68; 7795,031;  239,394;11672,562;66,08524
 988,23; 7792,415;  236,702;11640,023;66,25889
 988,78; 7702,108;  212,856;11427,023;66,78384
 989,33; 7657,877;  233,240;11375,562;66,63456
 989,88; 7630,185;  249,087;11319,638;66,67326
 990,42; 7561,569;  222,625;11187,331;66,93243
 990,97; 7499,338;  206,779;11049,331;67,25870
 991,52; 7431,569;  245,779;10962,254;67,05368
 992,07; 7409,646;  247,933;10895,792;67,25965
 992,62; 7329,262;  236,933;10746,100;67,48707
 993,17; 7240,800;  237,779;10666,408;67,15189
 993,71; 7180,262;  239,471;10564,638;67,22206
 994,26; 7086,415;  213,471;10373,792;67,64495
 994,81; 7117,031;  251,240;10370,100;67,85142
 995,36; 6987,723;  219,240;10219,331;67,68422
 995,91; 6969,646;  227,163;10148,562;67,95900
 996,45; 6884,954;  228,471;10034,946;67,87844
 997,00; 6800,108;  206,394; 9881,254;68,15307
 997,55; 6809,723;  239,625; 9831,562;68,49605
 998,10; 6743,338;  256,548; 9740,638;68,39655
 998,65; 6704,415;  232,394; 9689,331;68,43676
 999,19; 6640,646;  253,625; 9552,715;68,68436
 999,74; 6545,877;  264,625; 9371,792;68,97042
1000,29; 6538,954;  237,625; 9336,100;69,25698
1000,84; 6411,954;  231,087; 9207,946;68,85334
1001,38; 6372,031;  227,702; 9067,023;69,51132
1001,93; 6357,262;  245,010; 9071,177;69,25148
1002,48; 6254,800;  213,779; 8896,331;69,57656
1003,03; 6236,031;  232,933; 8861,792;69,57001
1003,57; 6222,877;  236,087; 8769,254;70,15906
1004,12; 6121,877;  260,702; 8650,946;69,85702
1004,67; 6022,338;  220,010; 8534,792;69,78329
1005,22; 5956,108;  215,702; 8437,100;69,82274
1005,76; 5877,954;  210,010; 8245,177;70,53922
1006,31; 5854,800;  234,702; 8237,254;70,22882
1006,86; 5754,646;  226,087; 8080,331;70,38945
1007,40; 5673,108;  207,779; 7979,023;70,32759
1007,95; 5675,031;  226,317; 7911,562;70,89838
1008,50; 5584,800;  236,163; 7762,869;71,06212
1009,04; 5517,723;  225,163; 7689,177;70,90769
1009,59; 5445,723;  237,702; 7508,100;71,63323
1010,14; 5382,954;  218,856; 7450,638;71,40837
1010,68; 5293,338;  226,163; 7322,715;71,40334
1011,23; 5217,954;  224,163; 7241,023;71,16845
1011,78; 5201,723;  239,625; 7121,331;72,10564
1012,32; 5133,569;  246,779; 6990,792;72,46116
1012,87; 5094,031;  254,394; 6989,408;71,85786
1013,42; 5005,031;  218,933; 6858,946;72,07964
1013,96; 5025,031;  256,317; 6901,562;71,76130
1014,51; 4939,569;  195,933; 6746,254;72,41838
1015,06; 4939,031;  208,010; 6779,254;71,99582
1015,60; 5005,262;  260,471; 6820,254;72,33152
1016,15; 4945,800;  219,856; 6777,408;72,06873
1016,69; 5016,723;  228,163; 6822,562;72,61557
1017,24; 4980,262;  212,394; 6819,715;72,16037
1017,79; 5079,569;  259,933; 6863,946;72,98042
1018,33; 5045,954;  216,394; 6880,638;72,46973
1018,88; 5112,338;  236,394; 6917,254;72,98379
1019,42; 5100,492;  217,010; 6946,946;72,56358
1019,97; 5118,031;  207,317; 6931,869;73,02663
1020,51; 5158,415;  254,087; 6983,792;72,87583
1021,06; 5139,031;  206,471; 6926,792;73,39768
1021,61; 5143,262;  188,933; 6906,715;73,74947
1022,15; 5110,569;  183,471; 6878,562;73,59270
1022,70; 5144,646;  227,010; 6876,638;73,95355
1023,24; 5104,954;  213,856; 6841,254;73,80118
1023,79; 5076,415;  228,317; 6780,869;73,98794
1024,33; 5065,415;  219,702; 6723,023;74,51137
1024,88; 4994,338;  231,471; 6608,562;74,68715
1025,42; 4932,800;  233,010; 6528,100;74,65803
1025,97; 4821,262;  220,471; 6481,100;73,48767
1026,51; 4751,185;  186,625; 6314,254;74,49145
1027,06; 4725,800;  209,548; 6251,100;74,75318
1027,60; 4653,877;  226,471; 6163,023;74,57874
1028,15; 4634,800;  240,087; 6059,946;75,51236
1028,69; 4531,492;  197,240; 5920,562;75,72966
1029,24; 4474,031;  221,317; 5901,177;74,87357
1029,78; 4385,569;  202,548; 5790,715;74,85497
1030,33; 4323,031;  193,625; 5668,254;75,42805
1030,87; 4287,569;  210,010; 5598,023;75,67835
1031,42; 4207,492;  195,087; 5524,254;75,29142
1031,96; 4202,185;  224,779; 5448,792;76,13697
1032,51; 4100,800;  207,087; 5353,023;75,66579
1033,05; 4081,262;  218,087; 5307,100;75,91206
1033,60; 3942,262;  184,548; 5169,792;75,37672
1034,14; 3914,415;  210,471; 5137,408;75,17743
1034,69; 3910,800;  212,702; 5090,023;75,82232
1035,23; 3863,492;  198,779; 5015,331;76,08583
1035,77; 3806,262;  198,548; 4943,562;76,03168
1036,32; 3722,262;  186,240; 4832,100;76,11124
1036,86; 3716,569;  218,702; 4793,638;76,45718
1037,41; 3633,415;  220,702; 4727,254;75,72782
1037,95; 3591,646;  190,163; 4612,408;76,91757
1038,50; 3555,108;  200,394; 4609,562;76,08497
1039,04; 3565,262;  224,240; 4565,638;76,95726
1039,58; 3447,492;  183,702; 4440,562;76,67132
1040,13; 3453,262;  204,702; 4391,562;77,58941
1040,67; 3404,723;  239,240; 4383,177;76,38830
1041,21; 3337,800;  227,471; 4300,177;76,37008
1041,76; 3273,954;  196,779; 4221,408;76,45860
1042,30; 3227,185;  211,163; 4185,100;75,89505
1042,85; 3183,954;  205,163; 4093,638;76,60562
1043,39; 3128,338;  211,317; 4014,485;76,69979
1043,93; 3120,031;  227,471; 3991,946;76,83833
1044,48; 3081,031;  213,856; 3927,485;77,20683
1045,02; 3026,800;  205,625; 3871,638;76,95485
1045,56; 3030,954;  234,240; 3864,408;77,04090
1046,11; 2994,338;  207,856; 3784,100;77,91645
1046,65; 2928,569;  221,702; 3705,254;77,70423
1047,19; 2884,108;  207,933; 3653,562;77,66870
1047,74; 2830,569;  192,856; 3590,638;77,63043
1048,28; 2785,569;  216,933; 3554,408;76,96347
1048,82; 2811,800;  240,087; 3521,408;78,37433
1049,37; 2748,031;  227,856; 3472,177;77,67958
1049,91; 2701,185;  225,317; 3429,100;77,27950
1050,45; 2670,031;  235,240; 3373,792;77,57687
1050,99; 2647,800;  222,317; 3323,638;78,20805
1051,54; 2597,031;  206,010; 3256,177;78,38984
1052,08; 2592,723;  243,240; 3236,023;78,50495
1052,62; 2556,031;  233,163; 3212,485;77,96633
1053,16; 2501,338;  213,010; 3153,485;77,82174
1053,71; 2484,338;  217,163; 3094,023;78,80729
1054,25; 2446,108;  228,856; 3051,638;78,54845
1054,79; 2387,646;  232,010; 3029,638;77,05227
1055,33; 2348,954;  182,548; 2962,177;77,93867
1055,88; 2359,108;  229,394; 2943,023;78,48212
1056,42; 2313,185;  233,163; 2932,331;77,06159
1056,96; 2300,415;  235,856; 2842,254;79,21122
1057,50; 2261,185;  222,933; 2837,254;77,96486
1058,05; 2232,492;  218,779; 2793,562;78,20906
1058,59; 2217,877;  250,394; 2746,254;78,82986
1059,13; 2141,415;  203,548; 2659,792;78,89555
1059,67; 2161,415;  229,779; 2629,946;80,47925
1060,21; 2108,646;  223,856; 2607,023;79,08762
1060,76; 2093,185;  230,779; 2567,408;79,70482
1061,30; 2097,569;  251,010; 2541,408;80,62178
1061,84; 2030,646;  221,779; 2478,254;80,16341
1062,38; 1998,800;  211,779; 2426,869;80,67486
1062,92; 2018,338;  252,471; 2455,638;80,15130
1063,46; 1971,954;  238,702; 2404,792;80,01753
1064,01; 1941,415;  225,702; 2381,023;79,60361
1064,55; 1926,800;  231,779; 2324,408;80,99961
1065,09; 1860,415;  203,933; 2303,177;78,90853
1065,63; 1893,108;  259,933; 2301,408;79,99976
1066,17; 1863,877;  257,856; 2265,485;79,99592
1066,71; 1835,646;  247,010; 2241,100;79,66723
1067,25; 1807,031;  217,087; 2177,408;81,10631
1067,80; 1805,569;  248,548; 2184,177;80,44007
1068,34; 1806,723;  252,856; 2149,792;81,91456
1068,88; 1751,415;  226,087; 2092,254;81,73591
1069,42; 1758,800;  253,548; 2100,408;81,50332
1069,96; 1705,262;  225,625; 2046,638;81,25347
1070,50; 1728,954;  257,779; 2045,254;82,30465
1071,04; 1665,415;  214,010; 1980,562;82,16038
1071,58; 1653,031;  221,163; 1952,408;82,70741
1072,12; 1645,185;  239,163; 1941,869;82,57570
1072,66; 1638,031;  226,933; 1951,177;81,83864
1073,21; 1626,569;  240,163; 1947,946;81,18163
1073,75; 1594,262;  227,317; 1904,946;81,48073
1074,29; 1571,415;  247,933; 1861,331;82,03076
1074,83; 1551,492;  248,856; 1857,331;80,98581
1075,37; 1535,262;  249,548; 1841,638;80,75631
1075,91; 1527,492;  251,010; 1813,715;81,68414
1076,45; 1513,646;  235,625; 1789,869;82,22782
1076,99; 1496,262;  244,625; 1763,946;82,38130
1077,53; 1464,569;  229,779; 1720,715;82,81978
1078,07; 1451,031;  234,087; 1738,638;80,88416
1078,61; 1442,415;  236,010; 1687,792;83,09823
1079,15; 1397,415;  230,702; 1680,946;80,44945
1079,69; 1393,492;  231,317; 1660,562;81,31395
1080,23; 1411,492;  250,779; 1638,562;83,63798
1080,77; 1413,415;  277,933; 1655,177;82,44599
1081,31; 1346,877;  223,317; 1575,177;83,11215
1081,85; 1362,031;  253,087; 1587,946;83,07572
1082,39; 1319,954;  228,010; 1561,638;81,87767
1082,93; 1336,108;  244,625; 1558,331;83,08426
1083,47; 1291,877;  218,933; 1495,485;84,05018
1084,01; 1285,569;  253,856; 1518,177;81,60217
1084,55; 1257,185;  235,087; 1476,792;82,31403
1085,09; 1247,031;  253,625; 1495,100;80,01819
1085,63; 1237,338;  237,087; 1444,792;82,82248
1086,17; 1220,877;  227,163; 1443,715;81,68278
1086,71; 1204,569;  230,240; 1414,331;82,28501
1087,24; 1210,492;  260,394; 1423,638;81,67658
1087,78; 1206,492;  248,163; 1414,408;82,17223
1088,32; 1158,262;  220,163; 1367,331;81,77518
1088,86; 1176,185;  253,394; 1386,946;81,40698
1089,40; 1135,338;  238,471; 1338,408;81,53810
1089,94; 1118,877;  221,087; 1311,562;82,33021
1090,48; 1132,569;  244,010; 1317,562;82,76820
1091,02; 1108,800;  247,240; 1305,792;81,39040
1091,56; 1093,646;  239,087; 1292,869;81,09448
1092,10; 1056,108;  218,471; 1240,792;81,93478
1092,63; 1098,723;  258,471; 1270,100;83,05931
1093,17; 1057,646;  247,856; 1250,946;80,72955
1093,71; 1053,108;  229,240; 1210,792;83,93517
1094,25; 1054,031;  253,010; 1244,177;80,81594
1094,79; 1037,031;  237,471; 1191,331;83,82362
1095,33; 1021,800;  250,779; 1192,946;81,83484
1095,87; 1007,108;  231,394; 1167,638;82,85375
1096,40;  973,492;  220,163; 1142,485;81,67750
1096,94; 1006,800;  242,394; 1159,792;83,32324
1097,48;  981,877;  243,856; 1143,254;82,05723
1098,02;  968,723;  233,779; 1105,562;84,30360
1098,56;  931,646;  216,779; 1073,562;83,43625
1099,10;  939,415;  214,087; 1059,485;85,79731
1099,63;  920,185;  221,625; 1069,331;82,40591
1100,17;  941,800;  247,779; 1086,408;82,75665
1100,71;  935,800;  265,010; 1090,100;81,29902

