
Integration time [ms]: 120,000
Averaging Nr. [scans]: 13
Smoothing Nr. [pixels]: 0
Data measured with spectrometer [name]: 2009305U1
Wave   ;Sample   ;Dark     ;Reference;Reflectance
[nm]   ;[counts] ;[counts] ;[counts] ;[%]

 175,72;  199,155;  203,396;  206,415;-140,48972
 176,32;  238,190;  232,238;  221,005; 0,00000
 176,92;  255,165;  247,318;  255,764;92,90293
 177,52;  254,799;  258,088;  254,242; 0,00000
 178,12;  235,264;  225,239;  236,618;88,10147
 178,72;  257,257;  252,468;  247,609; 0,00000
 179,32;  254,561;  251,777;  252,264; 0,00000
 179,92;  251,238;  252,009;  253,834;-42,26423
 180,52;  240,227;  243,091;  251,014;-36,14439
 181,12;  249,897;  248,932;  250,733;53,55985
 181,73;  275,394;  266,394;  270,722;207,93901
 182,33;  353,091;  342,551;  361,599;55,33592
 182,93;  264,821;  265,011;  272,969;-2,38586
 183,53;  243,668;  234,237;  231,203; 0,00000
 184,13;  237,985;  243,468;  230,540; 0,00000
 184,73;  282,020;  267,775;  273,447;251,15212
 185,33;  272,483;  227,443;  345,598;38,11889
 185,93;  269,426;  241,133;  358,546;24,09701
 186,53;  287,858;  255,981;  380,144;25,67372
 187,13;  309,673;  272,984;  407,516;27,27165
 187,73;  281,901;  241,287;  363,269;33,29482
 188,33;  268,337;  240,209;  362,629;22,97668
 188,93;  275,827;  245,742;  378,979;22,57985
 189,53;  280,741;  251,815;  383,112;22,03076
 190,13;  317,317;  280,501;  415,888;27,19340
 190,73;  254,507;  224,505;  369,988;20,62227
 191,34;  297,449;  261,894;  396,267;26,45987
 191,94;  266,342;  239,284;  361,088;22,21412
 192,54;  286,769;  242,755;  397,442;28,45345
 193,14;  303,539;  262,137;  384,184;33,92268
 193,74;  281,619;  253,983;  388,973;20,47274
 194,34;  281,302;  249,600;  378,777;24,54138
 194,94;  256,561;  214,214;  353,835;30,32978
 195,54;  223,235;  216,674;  342,009; 5,23475
 196,14;  252,575;  221,292;  354,658;23,45652
 196,74;  245,165;  228,135;  356,800;13,23559
 197,34;  238,672;  197,833;  349,603;26,90864
 197,94;  254,601;  230,138;  376,501;16,71437
 198,54;  264,485;  232,908;  397,071;19,23511
 199,14;  243,239;  213,526;  383,801;17,45015
 199,74;  249,602;  193,603;  378,842;30,23055
 200,34;  219,525;  192,296;  402,209;12,97142
 200,94;  266,821;  230,602;  433,790;17,82554
 201,54;  246,578;  207,910;  427,072;17,64341
 202,14;  282,719;  243,066;  476,318;16,99988
 202,74;  259,605;  210,218;  468,075;19,15272
 203,34;  229,225;  190,452;  474,780;13,63685
 203,94;  222,608;  167,682;  479,987;17,58753
 204,54;  288,758;  239,446;  569,638;14,93434
 205,14;  262,072;  207,834;  575,137;14,76655
 205,74;  311,115;  243,298;  662,389;16,18205
 206,34;  265,573;  200,681;  678,382;13,58419
 206,94;  293,365;  213,758;  737,667;15,19483
 207,54;  272,268;  183,758;  755,999;15,46731
 208,14;  298,100;  198,681;  854,932;15,14951
 208,74;  308,613;  205,295;  920,831;14,43925
 209,34;  317,201;  200,757;  996,638;14,63077
 209,94;  332,077;  219,757; 1096,814;12,80648
 210,54;  338,707;  205,913; 1200,696;13,34905
 211,14;  355,814;  223,603; 1269,731;12,63808
 211,73;  364,114;  203,679; 1406,089;13,34276
 212,33;  380,997;  221,832; 1487,287;12,57766
 212,93;  381,196;  198,834; 1587,825;13,12911
 213,53;  356,437;  176,295; 1656,334;12,17144
 214,13;  387,150;  210,145; 1766,419;11,37362
 214,73;  368,872;  184,758; 1744,780;11,80203
 215,33;  363,462;  171,219; 1778,968;11,95729
 215,93;  397,286;  212,529; 1866,132;11,17302
 216,53;  360,995;  154,218; 1934,078;11,61762
 217,13;  429,440;  221,836; 2160,304;10,70972
 217,73;  411,934;  194,452; 2358,138;10,05148
 218,33;  392,737;  151,069; 2513,919;10,22785
 218,93;  460,085;  181,610; 2817,997;10,56275
 219,53;  499,715;  188,915; 3082,652;10,74045
 220,13;  482,423;  159,762; 3367,589;10,05857
 220,73;  523,725;  178,449; 3702,204; 9,79852
 221,32;  571,306;  179,065; 4090,215;10,02879
 221,92;  620,783;  187,992; 4480,570;10,08231
 222,52;  629,470;  172,221; 4890,290; 9,69144
 223,12;  688,711;  186,144; 5324,030; 9,78159
 223,72;  730,458;  197,067; 5776,609; 9,55976
 224,32;  793,266;  193,452; 6174,831;10,02802
 224,92;  796,777;  171,452; 6496,656; 9,88624
 225,52;  855,343;  211,604; 6849,016; 9,69864
 226,12;  899,372;  183,990; 7219,368;10,16835
 226,72;  890,012;  162,297; 7536,482; 9,86841
 227,31;  966,600;  168,297; 7998,538;10,19513
 227,91; 1062,132;  189,296; 8323,145;10,73091
 228,51; 1102,018;  185,371; 8784,073;10,66030
 229,11; 1148,938;  174,066; 9235,022;10,75904
 229,71; 1204,883;  172,064; 9534,301;11,03175
 230,31; 1301,485;  169,222; 9935,594;11,59348
 230,91; 1320,973;  162,986;10333,594;11,38562
 231,51; 1407,753;  171,759;10659,579;11,78504
 232,10; 1474,303;  169,761;10995,785;12,05006
 232,70; 1570,609;  184,446;11237,239;12,54130
 233,30; 1673,660;  202,528;11520,547;12,99814
 233,90; 1729,555;  174,836;11631,141;13,57086
 234,50; 1778,278;  177,682;11734,915;13,84930
 235,10; 1865,392;  166,529;11775,656;14,63386
 235,70; 1952,986;  196,219;11812,901;15,12280
 236,29; 2016,951;  188,757;11778,545;15,77418
 236,89; 2028,409;  152,755;11704,249;16,23733
 237,49; 2142,358;  191,682;11622,550;17,06499
 238,09; 2153,265;  177,297;11388,459;17,62501
 238,69; 2208,707;  211,139;11131,546;18,29207
 239,29; 2191,145;  168,219;10801,560;19,02436
 239,89; 2240,591;  188,678;10452,500;19,99170
 240,48; 2184,930;  171,297;10068,285;20,34592
 241,08; 2189,645;  182,065; 9752,646;20,97657
 241,68; 2208,081;  194,912; 9398,898;21,87279
 242,28; 2163,586;  172,221; 9078,164;22,35996
 242,88; 2176,205;  212,607; 8743,230;23,01822
 243,48; 2159,149;  218,297; 8428,893;23,63838
 244,07; 2119,412;  194,296; 8176,201;24,11850
 244,67; 2132,056;  195,374; 8034,323;24,70589
 245,27; 2121,345;  206,525; 7879,781;24,95446
 245,87; 2138,930;  198,991; 7804,792;25,50605
 246,47; 2089,526;  189,987; 7771,725;25,05414
 247,06; 2132,823;  173,066; 7771,896;25,79026
 247,66; 2139,534;  181,066; 7821,219;25,63389
 248,26; 2195,479;  216,141; 7971,037;25,52372
 248,86; 2202,097;  198,756; 8097,577;25,36253
 249,46; 2218,775;  147,067; 8322,076;25,34197
 250,05; 2320,359;  198,220; 8709,433;24,93345
 250,65; 2369,070;  172,217; 9080,959;24,65952
 251,25; 2445,703;  179,758; 9489,151;24,34042
 251,85; 2531,703;  191,293;10093,892;23,63430
 252,44; 2582,509;  155,911;10660,272;23,10087
 253,04; 2758,802;  205,526;11430,743;22,74589
 253,64; 2797,321;  146,140;12067,396;22,23910
 254,24; 2966,689;  203,681;13054,776;21,50017
 254,84; 3068,237;  172,836;13907,999;21,08020
 255,43; 3222,017;  179,526;14928,557;20,62841
 256,03; 3256,793;  191,756;15909,828;19,50008
 256,63; 3464,767;  184,755;16890,074;19,63453
 257,23; 3511,736;  177,294;17824,052;18,89550
 257,82; 3589,329;  188,754;18820,164;18,25184
 258,42; 3586,167;  151,599;19574,214;17,68335
 259,02; 3701,041;  195,757;20491,653;17,27090
 259,62; 3672,140;  176,906;21225,981;16,60517
 260,21; 3660,984;  185,449;21823,782;16,06194
 260,81; 3616,339;  179,143;22350,439;15,50291
 261,41; 3542,389;  164,907;22820,132;14,90818
 262,01; 3570,347;  208,598;23240,750;14,59590
 262,60; 3468,890;  171,217;23577,206;14,08902
 263,20; 3410,507;  188,064;23878,768;13,60214
 263,80; 3294,586;  194,983;24112,198;12,95972
 264,40; 3228,314;  167,598;24287,495;12,68959
 264,99; 3154,575;  191,675;24467,920;12,20494
 265,59; 3059,144;  174,442;24619,032;11,80098
 266,19; 2998,641;  161,444;24758,239;11,53482
 266,78; 2968,739;  208,366;24913,405;11,17332
 267,38; 2874,094;  184,212;24901,804;10,88246
 267,98; 2798,387;  181,597;24907,718;10,58310
 268,58; 2758,836;  185,827;25016,167;10,36236
 269,17; 2710,598;  170,364;24988,792;10,23527
 269,77; 2641,223;  186,062;24752,107; 9,99412
 270,37; 2555,199;  167,136;24681,907; 9,74132
 270,96; 2569,161;  223,600;24538,654; 9,64654
 271,56; 2480,970;  170,217;24297,592; 9,57731
 272,16; 2445,623;  182,753;24038,749; 9,48554
 272,75; 2431,977;  186,292;24019,881; 9,42235
 273,35; 2421,032;  174,908;23944,212; 9,44968
 273,95; 2382,417;  185,984;23884,307; 9,26830
 274,54; 2398,752;  168,143;23891,727; 9,40250
 275,14; 2448,589;  208,216;24297,630; 9,30024
 275,74; 2417,126;  157,446;24328,050; 9,34888
 276,33; 2504,105;  205,139;24746,269; 9,36781
 276,93; 2567,933;  185,143;25131,191; 9,55177
 277,53; 2618,160;  174,218;25555,741; 9,62882
 278,12; 2682,816;  160,371;26123,189; 9,71560
 278,72; 2795,828;  206,833;26741,722; 9,75694
 279,32; 2869,342;  180,295;27291,472; 9,91859
 279,91; 2966,546;  163,910;28007,777;10,06554
 280,51; 3082,948;  182,218;28570,005;10,21823
 281,11; 3220,980;  180,602;29225,449;10,46787
 281,70; 3278,222;  160,371;29692,206;10,55759
 282,30; 3432,124;  180,755;30403,438;10,75804
 282,90; 3571,698;  172,447;30816,138;11,09282
 283,49; 3695,317;  182,677;31264,176;11,30139
 284,09; 3864,700;  211,832;31783,103;11,57023
 284,69; 4015,015;  213,833;32162,515;11,89777
 285,28; 4145,799;  190,986;32511,908;12,23608
 285,88; 4327,428;  235,753;32632,603;12,62985
 286,47; 4411,105;  192,216;32827,020;12,92757
 287,07; 4597,595;  209,833;32883,815;13,42892
 287,67; 4737,765;  199,990;33014,893;13,82840
 288,26; 4880,205;  171,910;32884,291;14,39300
 288,86; 5109,433;  176,063;33004,788;15,02760
 289,46; 5302,425;  196,833;33129,167;15,50328
 290,05; 5542,186;  174,450;33145,879;16,27996
 290,65; 5813,116;  188,755;33413,316;16,92832
 291,24; 6048,710;  188,295;33554,191;17,56409
 291,84; 6379,382;  200,447;33571,997;18,51558
 292,44; 6628,215;  179,759;33788,751;19,18670
 293,03; 6953,081;  244,449;33928,526;19,91633
 293,63; 7221,517;  182,601;34108,963;20,74763
 294,22; 7563,763;  197,217;34208,344;21,65922
 294,82; 7732,025;  180,137;34351,144;22,10028
 295,41; 7911,683;  168,525;33973,437;22,90542
 296,01; 8113,516;  218,599;33979,053;23,38510
 296,61; 8249,103;  203,987;33634,331;24,06531
 297,20; 8369,079;  190,446;33442,533;24,59585
 297,80; 8521,507;  200,758;33170,755;25,23734
 298,39; 8537,934;  175,370;32777,584;25,65029
 298,99; 8757,573;  203,446;32677,521;26,34140
 299,58; 8824,540;  190,989;32559,281;26,67286
 300,18; 8847,772;  207,758;32312,702;26,91179
 300,78; 8909,044;  185,142;31897,885;27,50914
 301,37; 9032,029;  205,521;31938,182;27,81522
 301,97; 9236,166;  193,141;31873,378;28,54469
 302,56; 9298,108;  185,139;31812,098;28,81393
 303,16; 9364,605;  165,600;31709,432;29,16261
 303,75; 9490,025;  178,219;31737,295;29,50595
 304,35; 9650,566;  172,683;31988,324;29,79001
 304,94; 9785,878;  186,448;32052,335;30,12447
 305,54; 9846,921;  203,603;31958,446;30,36802
 306,13; 9905,997;  150,452;31881,840;30,74415
 306,73; 9868,097;  169,221;31632,912;30,82561
 307,33;10022,704;  198,066;31628,713;31,25815
 307,92;10089,647;  189,987;31616,393;31,50109
 308,52;10340,251;  168,370;32189,992;31,76567
 309,11;10550,786;  185,214;32645,139;31,93344
 309,71;10641,207;  157,983;32939,798;31,97878
 310,30;10862,677;  170,833;33093,031;32,47609
 310,90;11031,523;  218,295;33487,954;32,50177
 311,49;11067,141;  185,372;33619,494;32,54690
 312,09;11244,337;  148,527;33792,185;32,98039
 312,68;11494,514;  230,988;34163,564;33,19384
 313,28;11533,185;  162,526;34301,316;33,30715
 313,87;11600,259;  163,064;34460,179;33,34740
 314,47;11695,708;  174,369;34707,813;33,36285
 315,06;11814,484;  158,449;34834,406;33,61417
 315,66;11890,337;  167,681;35121,185;33,53786
 316,25;11856,525;  153,908;35029,122;33,55569
 316,85;11872,944;  141,065;35072,352;33,58559
 317,44;11978,769;  178,753;35374,627;33,52670
 318,04;11999,572;  150,217;35390,466;33,62449
 318,63;11983,188;  151,836;35376,884;33,58789
 319,22;12032,740;  180,832;35541,149;33,51754
 319,82;12017,563;  175,371;35624,692;33,40598
 320,41;11989,555;  191,832;35502,126;33,41157
 321,01;12030,516;  197,834;35601,991;33,42173
 321,60;11957,043;  173,294;35642,649;33,22234
 322,20;11919,127;  170,064;35616,966;33,14553
 322,79;11961,037;  203,834;35745,763;33,07981
 323,39;11915,192;  178,452;35765,620;32,98026
 323,98;11851,536;  167,834;35687,523;32,89359
 324,58;11801,649;  167,216;35551,964;32,87980
 325,17;11707,943;  174,139;35381,820;32,75934
 325,76;11641,254;  193,295;35215,578;32,68764
 326,36;11479,706;  157,757;34847,075;32,63814
 326,95;11338,398;  196,525;34498,088;32,48211
 327,55;11154,250;  161,217;34156,630;32,33681
 328,14;10986,147;  165,758;33819,620;32,15200
 328,74;10835,437;  194,755;33386,749;32,05798
 329,33;10632,470;  198,757;33012,783;31,79650
 329,92;10393,497;  159,215;32478,557;31,66612
 330,52;10165,438;  187,220;31800,031;31,56384
 331,11; 9993,057;  184,140;31400,313;31,42255
 331,71; 9740,469;  183,371;30765,546;31,25055
 332,30; 9583,570;  193,295;30257,873;31,23368
 332,89; 9357,857;  228,219;29819,246;30,85273
 333,49; 9118,719;  194,910;29188,214;30,77886
 334,08; 8924,774;  180,678;28766,581;30,58884
 334,68; 8752,354;  175,909;28253,189;30,54585
 335,27; 8539,691;  206,066;27924,741;30,06502
 335,86; 8471,134;  232,909;27733,005;29,95708
 336,46; 8279,479;  197,451;27428,390;29,67958
 337,05; 8185,799;  173,756;27255,369;29,58481
 337,65; 8092,445;  161,525;27009,238;29,54039
 338,24; 8046,034;  227,218;27063,684;29,13504
 338,83; 7974,577;  206,680;26875,977;29,12674
 339,43; 7850,083;  176,831;26789,771;28,83278
 340,02; 7817,940;  176,370;26769,914;28,73468
 340,61; 7764,163;  172,526;26764,973;28,54810
 341,21; 7709,591;  209,062;26772,672;28,23611
 341,80; 7619,362;  175,909;26746,022;28,01438
 342,40; 7651,521;  185,374;26814,170;28,03787
 342,99; 7593,473;  176,526;26901,323;27,75305
 343,58; 7583,393;  175,680;27040,321;27,57421
 344,18; 7541,033;  191,681;27106,032;27,30644
 344,77; 7606,284;  176,600;27457,383;27,23413
 345,36; 7596,551;  156,525;27770,780;26,94270
 345,96; 7695,343;  205,142;28138,496;26,81454
 346,55; 7643,288;  180,606;28308,423;26,53133
 347,14; 7671,331;  163,835;28633,240;26,37040
 347,74; 7742,827;  152,454;29076,026;26,24286
 348,33; 7839,232;  182,223;29727,617;25,91608
 348,92; 7932,417;  190,685;30325,106;25,69066
 349,52; 8017,533;  152,146;30821,826;25,64548
 350,11; 8027,029;  176,139;31060,441;25,42033
 350,70; 8005,583;  182,910;31140,750;25,26880
 351,29; 7816,634;  165,905;30902,230;24,89149
 351,89; 7802,618;  179,830;30893,167;24,81915
 352,48; 7721,465;  146,680;30871,449;24,65368
 353,07; 7620,388;  187,297;30848,418;24,24272
 353,67; 7552,609;  195,993;30772,174;24,05996
 354,26; 7421,806;  187,758;30523,596;23,84654
 354,85; 7352,293;  185,373;30321,267;23,78201
 355,45; 7211,541;  152,986;30321,444;23,39714
 356,04; 7165,336;  167,759;30123,284;23,35989
 356,63; 7055,186;  204,679;29949,660;23,03080
 357,22; 6948,004;  180,136;29745,530;22,89118
 357,82; 6896,174;  185,906;29537,851;22,86141
 358,41; 6786,990;  206,371;29434,573;22,51462
 359,00; 6628,174;  172,062;29247,897;22,20439
 359,60; 6566,943;  184,911;29215,097;21,98412
 360,19; 6478,415;  183,298;29049,190;21,80815
 360,78; 6393,033;  187,602;28855,756;21,64573
 361,37; 6269,626;  172,063;28623,643;21,43137
 361,97; 6205,057;  181,448;28507,987;21,26489
 362,56; 6099,345;  173,062;28250,966;21,10657
 363,15; 6040,832;  220,524;27987,393;20,96134
 363,74; 5876,008;  178,215;27757,057;20,66001
 364,34; 5758,413;  202,985;27318,422;20,48806
 364,93; 5616,831;  171,985;26938,465;20,34203
 365,52; 5488,749;  148,986;26498,236;20,26533
 366,11; 5391,726;  175,985;26150,100;20,08053
 366,71; 5243,355;  169,832;25798,995;19,79590
 367,30; 5143,062;  184,140;25445,760;19,63026
 367,89; 5110,840;  207,758;25249,023;19,58001
 368,48; 4960,887;  194,215;24893,140;19,29911
 369,07; 4852,737;  177,064;24550,211;19,18371
 369,67; 4757,518;  202,677;24224,249;18,96146
 370,26; 4658,462;  176,064;23890,986;18,90117
 370,85; 4543,890;  189,986;23657,110;18,55320
 371,44; 4452,590;  174,602;23421,233;18,40261
 372,03; 4383,196;  166,216;23182,548;18,32168
 372,63; 4278,235;  158,525;22892,871;18,12109
 373,22; 4231,663;  169,218;22610,905;18,10223
 373,81; 4104,568;  159,679;22294,369;17,82220
 374,40; 4078,007;  170,066;22019,746;17,88558
 374,99; 4001,148;  172,909;21755,688;17,73747
 375,59; 3921,137;  158,989;21481,419;17,64408
 376,18; 3914,272;  192,448;21318,589;17,61715
 376,77; 3889,370;  191,064;21097,972;17,68940
 377,36; 3838,618;  199,909;21033,349;17,46571
 377,95; 3736,003;  190,524;20770,462;17,22784
 378,55; 3661,978;  162,911;20590,145;17,12942
 379,14; 3660,450;  182,063;20548,838;17,07873
 379,73; 3627,574;  184,293;20439,314;16,99964
 380,32; 3619,609;  187,294;20454,344;16,93544
 380,91; 3599,268;  179,907;20352,292;16,95070
 381,50; 3596,323;  188,216;20279,700;16,96294
 382,10; 3532,455;  175,679;20164,497;16,79327
 382,69; 3488,563;  155,832;20101,000;16,70946
 383,28; 3522,877;  208,754;20160,886;16,61037
 383,87; 3469,158;  176,139;19975,557;16,63190
 384,46; 3463,143;  165,906;19926,060;16,68629
 385,05; 3484,232;  200,446;19952,420;16,62510
 385,64; 3455,726;  174,370;19871,869;16,65874
 386,24; 3414,418;  157,675;19841,362;16,54539
 386,83; 3466,465;  197,137;19919,742;16,57655
 387,42; 3482,143;  197,832;20050,490;16,54344
 388,01; 3466,901;  178,443;20213,564;16,41347
 388,60; 3519,327;  176,214;20488,910;16,45824
 389,19; 3577,830;  164,518;20605,349;16,69850
 389,78; 3627,247;  172,749;20910,798;16,65778
 390,37; 3742,785;  225,675;21383,133;16,62350
 390,96; 3739,476;  188,522;21431,328;16,71603
 391,56; 3779,361;  189,825;21602,399;16,76368
 392,15; 3827,938;  165,826;21874,241;16,86955
 392,74; 3801,820;  149,899;22061,541;16,66658
 393,33; 3890,611;  184,055;22338,912;16,73022
 393,92; 3977,253;  177,820;22828,054;16,77437
 394,51; 4034,669;  155,593;22921,725;17,03880
 395,10; 4118,025;  194,047;23179,407;17,07164
 395,69; 4131,810;  187,124;23371,497;17,01441
 396,28; 4177,796;  186,815;23369,787;17,21514
 396,87; 4183,771;  191,042;23560,563;17,08520
 397,46; 4224,623;  190,808;23627,905;17,21124
 398,06; 4282,613;  204,728;23870,233;17,23134
 398,65; 4324,297;  183,259;23917,529;17,44751
 399,24; 4387,247;  194,643;24031,775;17,58854
 399,83; 4377,947;  168,478;24112,609;17,58038
 400,42; 4432,624;  199,083;24264,429;17,59186
 401,01; 4479,960;  181,764;24384,700;17,75898
 401,60; 4511,014;  179,749;24453,496;17,84341
 402,19; 4517,142;  207,813;24319,300;17,87251
 402,78; 4570,473;  206,487;24403,792;18,03501
 403,37; 4550,673;  193,161;24164,420;18,17807
 403,96; 4532,910;  184,448;24034,585;18,23244
 404,55; 4574,285;  190,886;23966,363;18,43664
 405,14; 4560,058;  171,788;23822,006;18,55488
 405,73; 4551,482;  189,302;23733,758;18,52742
 406,32; 4593,346;  186,747;23628,388;18,79817
 406,91; 4547,993;  186,343;23371,961;18,81188
 407,50; 4595,873;  195,718;23263,146;19,07519
 408,09; 4521,489;  173,403;22909,949;19,12378
 408,68; 4542,171;  186,244;22801,213;19,26126
 409,27; 4539,748;  164,327;22635,206;19,47152
 409,86; 4548,414;  174,265;22510,602;19,58311
 410,45; 4617,418;  214,355;22380,437;19,86396
 411,04; 4630,108;  209,214;22359,191;19,95891
 411,63; 4597,331;  195,846;22070,608;20,12129
 412,22; 4589,620;  197,631;21906,435;20,23137
 412,81; 4562,232;  209,406;21664,950;20,28765
 413,40; 4567,701;  212,874;21278,980;20,67220
 413,99; 4559,308;  244,026;20934,947;20,85592
 414,58; 4423,974;  181,873;20559,855;20,81708
 415,17; 4451,287;  182,713;20325,684;21,19138
 415,76; 4419,379;  181,169;20153,483;21,22043
 416,35; 4402,881;  182,018;20024,331;21,27203
 416,94; 4457,053;  201,555;20020,839;21,47151
 417,53; 4533,278;  182,406;20224,833;21,70831
 418,12; 4613,713;  183,100;20330,971;21,99048
 418,71; 4725,355;  195,643;20671,509;22,12220
 419,30; 4752,787;  176,793;20789,490;22,19988
 419,89; 4858,749;  171,178;20987,581;22,51864
 420,48; 4958,962;  209,336;21198,984;22,62842
 421,07; 5032,345;  192,337;21377,852;22,84584
 421,66; 5017,179;  161,571;21367,565;22,89734
 422,25; 5068,653;  173,808;21313,787;23,15445
 422,84; 5118,041;  220,963;21402,871;23,11916
 423,43; 5075,168;  191,883;21064,515;23,39564
 424,02; 5076,090;  212,500;20822,691;23,59799
 424,60; 4996,812;  183,353;20363,969;23,85189
 425,19; 4981,226;  198,734;20092,478;24,04018
 425,78; 5052,533;  209,658;20059,537;24,39750
 426,37; 5014,483;  216,045;19881,047;24,40090
 426,96; 5052,768;  198,506;19742,088;24,83814
 427,55; 5008,851;  190,434;19560,799;24,87520
 428,14; 5012,775;  183,820;19414,171;25,11111
 428,73; 4993,672;  194,817;19177,005;25,28083
 429,32; 5071,393;  206,121;19222,016;25,58529
 429,91; 5116,095;  231,432;19202,303;25,74823
 430,50; 5114,551;  203,511;19019,364;26,10054
 431,08; 5094,826;  212,744;18903,174;26,12076
 431,67; 5131,747;  237,131;18764,698;26,41802
 432,26; 5135,390;  253,594;18672,937;26,50364
 432,85; 5072,814;  262,670;18309,887;26,65310
 433,44; 5057,005;  263,981;17871,444;27,22155
 434,03; 4981,850;  277,831;17595,417;27,16325
 434,62; 4850,365;  235,750;17102,022;27,36002
 435,21; 4868,451;  252,901;16855,135;27,80077
 435,79; 4844,939;  241,214;16766,153;27,85926
 436,38; 4870,841;  233,064;16658,707;28,23498
 436,97; 4844,887;  238,680;16540,590;28,25563
 437,56; 4834,677;  249,762;16313,893;28,54132
 438,15; 4801,047;  210,222;16256,300;28,61026
 438,74; 4848,904;  246,531;16245,714;28,76630
 439,33; 4863,177;  224,684;16323,820;28,81206
 439,91; 4905,913;  198,225;16398,842;29,05870
 440,50; 4976,852;  241,071;16402,951;29,30217
 441,09; 5056,974;  241,613;16486,630;29,64208
 441,68; 5059,990;  225,077;16535,749;29,64263
 442,27; 5118,582;  213,384;16488,631;30,13901
 442,86; 5108,051;  187,775;16505,583;30,15280
 443,44; 5158,987;  199,774;16579,396;30,27673
 444,03; 5250,112;  263,545;16673,533;30,38739
 444,62; 5196,560;  201,391;16496,407;30,65458
 445,21; 5177,044;  217,467;16323,325;30,79362
 445,80; 5215,147;  233,471;16243,473;31,11602
 446,39; 5210,809;  261,316;15992,026;31,46389
 446,97; 5062,161;  193,936;15812,419;31,16964
 447,56; 5066,058;  201,708;15544,776;31,70390
 448,15; 5005,477;  198,936;15364,714;31,69334
 448,74; 4999,106;  212,475;15120,591;32,10755
 449,33; 4968,098;  198,246;14915,573;32,40977
 449,91; 4936,299;  192,865;14743,987;32,59841
 450,50; 4887,404;  187,018;14549,813;32,72612
 451,09; 4871,151;  218,096;14400,990;32,80752
 451,68; 4908,262;  228,943;14402,155;33,01523
 452,26; 4907,713;  216,330;14273,557;33,37346
 452,85; 4850,662;  198,790;14204,785;33,21344
 453,44; 4892,134;  220,257;14170,290;33,49008
 454,03; 4911,217;  187,254;14128,650;33,88444
 454,61; 4893,169;  191,026;14065,587;33,89039
 455,20; 5009,264;  228,797;14258,086;34,07490
 455,79; 5020,124;  214,948;14251,587;34,23310
 456,38; 5114,757;  216,723;14341,120;34,67783
 456,97; 5151,794;  197,107;14428,933;34,81414
 457,55; 5136,558;  197,801;14423,917;34,71613
 458,14; 5220,534;  229,721;14400,024;35,22023
 458,73; 5185,901;  210,263;14278,291;35,36841
 459,31; 5219,941;  239,035;14379,523;35,22443
 459,90; 5320,322;  245,418;14448,611;35,73073
 460,49; 5375,480;  274,263;14532,573;35,77715
 461,08; 5368,563;  212,114;14592,206;35,85825
 461,66; 5409,496;  218,574;14701,343;35,84206
 462,25; 5491,202;  214,577;14809,171;36,15465
 462,84; 5549,214;  235,037;14834,042;36,40095
 463,43; 5539,788;  175,657;14744,910;36,81816
 464,01; 5599,292;  207,428;14779,293;37,00188
 464,60; 5620,278;  250,887;14762,986;36,99942
 465,19; 5486,925;  189,967;14538,983;36,91513
 465,77; 5546,838;  215,199;14491,462;37,34618
 466,36; 5509,033;  235,349;14343,421;37,38061
 466,95; 5400,724;  204,350;14058,326;37,50818
 467,53; 5319,957;  214,278;13774,595;37,65162
 468,12; 5270,102;  228,432;13496,206;37,99936
 468,71; 5172,142;  217,737;13235,300;38,05939
 469,29; 5088,359;  195,741;12990,285;38,23988
 469,88; 5002,907;  203,434;12705,431;38,38965
 470,47; 5076,407;  265,975;12837,219;38,26536
 471,06; 5061,404;  206,283;12812,217;38,51456
 471,64; 5132,762;  221,359;12910,233;38,70637
 472,23; 5089,725;  182,211;12872,417;38,67166
 472,81; 5181,503;  185,747;13041,453;38,86022
 473,40; 5246,142;  199,288;13161,269;38,93582
 473,99; 5410,785;  284,057;13322,828;39,31910
 474,57; 5413,607;  200,596;13524,347;39,12570
 475,16; 5501,694;  216,055;13618,656;39,43741
 475,75; 5612,140;  222,829;13741,639;39,86528
 476,33; 5619,181;  228,985;13858,601;39,54768
 476,92; 5669,790;  226,750;13935,333;39,70534
 477,51; 5715,578;  214,676;13911,087;40,16309
 478,09; 5789,171;  214,061;13997,282;40,44853
 478,68; 5724,266;  221,523;13903,510;40,21889
 479,27; 5802,815;  247,752;13895,896;40,70197
 479,85; 5748,744;  209,523;13970,638;40,25271
 480,44; 5777,276;  205,293;14049,059;40,24904
 481,02; 6305,400;  227,911;15303,255;40,31410
 481,61; 7199,409;  236,525;17450,586;40,44882
 482,20; 7742,392;  222,911;18702,884;40,68989
 482,78; 8116,941;  249,216;19458,442;40,95806
 483,37; 8326,852;  228,144;20073,355;40,80938
 483,95; 8451,813;  264,607;20290,174;40,88377
 484,54; 8566,605;  265,371;20433,212;41,16075
 485,13; 8494,612;  235,532;20376,454;41,00646
 485,71; 8439,748;  213,685;20220,457;41,11639
 486,30; 8371,572;  247,070;19894,421;41,35164
 486,88; 8303,678;  273,609;19530,330;41,70009
 487,47; 7956,631;  261,225;18817,085;41,47157
 488,05; 7646,945;  240,995;18005,094;41,69055
 488,64; 7115,706;  239,767;16715,615;41,73345
 489,23; 6444,689;  251,842;14945,116;42,14750
 489,81; 5517,977;  248,304;12677,892;42,39620
 490,40; 5216,136;  202,689;12032,320;42,38041
 490,98; 5088,865;  200,844;11754,736;42,30627
 491,57; 5088,606;  234,227;11638,805;42,56518
 492,15; 5064,942;  215,460;11594,871;42,61628
 492,74; 5052,151;  215,534;11529,442;42,74931
 493,32; 5008,442;  233,536;11409,206;42,72590
 493,91; 4973,976;  208,538;11276,747;43,05519
 494,50; 5007,438;  221,388;11303,165;43,18847
 495,08; 4947,400;  209,234;11133,405;43,37323
 495,67; 4974,325;  226,768;11157,296;43,43392
 496,25; 4929,869;  175,848;11091,481;43,55241
 496,84; 4926,993;  188,537;11049,200;43,62952
 497,42; 4880,190;  177,772;11000,801;43,44826
 498,01; 4892,808;  217,923;10952,006;43,55179
 498,59; 4805,763;  188,387;10879,252;43,18992
 499,18; 4853,531;  191,923;10876,318;43,63006
 499,76; 4850,938;  215,078;10813,648;43,74042
 500,35; 4729,901;  202,235;10572,804;43,65880
 500,93; 4711,423;  194,002;10516,495;43,76289
 501,52; 4707,233;  196,849;10465,777;43,92264
 502,10; 4713,108;  215,314;10495,311;43,75287
 502,69; 4660,634;  197,392;10305,806;44,15373
 503,27; 4564,897;  182,696;10127,163;44,06672
 503,86; 4552,351;  199,084;10087,093;44,02572
 504,44; 4507,976;  174,778; 9992,777;44,13525
 505,03; 4424,144;  164,547; 9675,595;44,78578
 505,61; 4355,889;  191,239; 9624,748;44,14741
 506,19; 4324,174;  198,162; 9449,771;44,59778
 506,78; 4236,033;  170,396; 9229,137;44,88082
 507,36; 4175,232;  194,700; 9134,661;44,52516
 507,95; 4086,630;  181,013; 8946,263;44,55797
 508,53; 4051,489;  183,703; 8860,691;44,57521
 509,12; 4002,793;  191,320; 8715,883;44,71165
 509,70; 3966,556;  207,397; 8559,862;45,00658
 510,29; 3904,675;  205,245; 8401,244;45,13702
 510,87; 3837,923;  184,473; 8227,516;45,42373
 511,46; 3733,079;  173,473; 8038,943;45,25611
 512,04; 3651,910;  188,398; 7912,437;44,84068
 512,62; 3585,903;  184,319; 7804,754;44,63766
 513,21; 3516,210;  161,476; 7630,858;44,91315
 513,79; 3481,131;  181,404; 7489,410;45,15222
 514,38; 3368,825;  166,325; 7326,945;44,72378
 514,96; 3364,397;  211,940; 7244,507;44,82654
 515,54; 3264,525;  166,095; 7094,433;44,72111
 516,13; 3255,379;  197,480; 7026,710;44,77663
 516,71; 3198,231;  182,636; 6897,990;44,90597
 517,30; 3140,157;  171,945; 6780,825;44,91249
 517,88; 3130,572;  196,253; 6684,232;45,22702
 518,46; 3057,165;  168,100; 6554,929;45,23473
 519,05; 3052,454;  171,793; 6549,670;45,16646
 519,63; 3028,243;  189,946; 6433,740;45,45789
 520,22; 3010,603;  201,565; 6469,577;44,81545
 520,80; 2968,248;  178,642; 6342,966;45,25405
 521,38; 3008,547;  217,870; 6324,394;45,69992
 521,97; 2944,538;  178,720; 6246,476;45,58222
 522,55; 2931,112;  189,874; 6265,637;45,11759
 523,13; 2900,281;  176,721; 6252,248;44,82837
 523,72; 2924,964;  180,023; 6163,028;45,87897
 524,30; 2972,859;  208,030; 6362,032;44,92733
 524,89; 2990,183;  173,874; 6386,557;45,33160
 525,47; 3048,421;  205,031; 6514,802;45,06330
 526,05; 3033,520;  160,108; 6568,896;44,83550
 526,64; 3128,546;  196,955; 6676,188;45,24597
 527,22; 3179,430;  198,569; 6816,635;45,04127
 527,80; 3225,151;  233,647; 6913,910;44,78123
 528,39; 3276,117;  190,186; 7005,696;45,27806
 528,97; 3298,093;  190,494; 7176,310;44,48441
 529,55; 3433,462;  200,336; 7390,423;44,96644
 530,14; 3508,613;  210,572; 7594,744;44,66366
 530,72; 3549,378;  185,801; 7654,121;45,03794
 531,30; 3593,489;  167,726; 7810,517;44,82346
 531,89; 3639,923;  191,803; 7893,650;44,77004
 532,47; 3705,763;  218,265; 8050,398;44,52808
 533,05; 3690,712;  217,570; 8074,023;44,20750
 533,63; 3761,672;  207,419; 8137,561;44,81953
 534,22; 3724,559;  180,958; 8149,477;44,47001
 534,80; 3773,326;  211,114; 8273,232;44,18457
 535,38; 3880,791;  277,034; 8325,898;44,77349
 535,97; 3774,076;  198,342; 8260,998;44,34933
 536,55; 3844,062;  226,498; 8343,900;44,56553
 537,13; 3830,094;  219,495; 8297,624;44,69598
 537,71; 3836,295;  269,110; 8298,389;44,42721
 538,30; 3875,720;  255,266; 8423,966;44,32106
 538,88; 3929,670;  285,731; 8462,765;44,56309
 539,46; 4014,439;  328,883; 8646,701;44,30917
 540,05; 4042,319;  316,115; 8775,884;44,04617
 540,63; 4137,108;  361,038; 8905,380;44,19380
 541,21; 4216,441;  366,116; 9075,653;44,20815
 541,79; 4287,029;  390,654; 9170,864;44,37679
 542,38; 4399,828;  412,807; 9330,650;44,70836
 542,96; 4422,607;  408,656; 9479,706;44,25012
 543,54; 4537,810;  430,654; 9661,083;44,49583
 544,12; 4573,540;  388,578; 9823,594;44,35564
 544,70; 4607,771;  383,964; 9914,522;44,31857
 545,29; 4708,819;  407,499;10096,663;44,39310
 545,87; 4687,798;  399,039;10157,787;43,94785
 546,45; 4670,012;  363,730;10156,749;43,97298
 547,03; 4670,398;  342,500;10258,850;43,64407
 547,62; 4739,633;  326,885;10368,644;43,94397
 548,20; 4827,975;  355,117;10597,289;43,67099
 548,78; 4824,347;  317,044;10698,351;43,41749
 549,36; 4909,963;  292,275;10921,984;43,44134
 549,94; 4983,462;  272,117;11092,114;43,54295
 550,53; 5033,779;  286,274;11315,691;43,04403
 551,11; 5097,178;  254,584;11509,573;43,02620
 551,69; 5191,007;  268,198;11862,748;42,45796
 552,27; 5303,223;  233,119;12089,540;42,76251
 552,85; 5493,508;  233,430;12540,839;42,73912
 553,44; 5596,554;  233,736;12820,273;42,60757
 554,02; 5764,044;  257,814;13201,336;42,54044
 554,60; 5815,425;  201,584;13494,682;42,23125
 555,18; 6004,243;  243,121;13918,271;42,12840
 555,76; 6140,751;  226,198;14301,923;42,01952
 556,34; 6297,509;  233,662;14674,211;41,99180
 556,93; 6462,534;  219,583;15083,144;42,00172
 557,51; 6546,822;  203,278;15387,273;41,77783
 558,09; 6741,647;  224,198;15830,305;41,76217
 558,67; 6883,490;  233,048;16219,568;41,60031
 559,25; 6997,008;  242,355;16487,953;41,57836
 559,83; 7074,772;  229,280;16758,879;41,41354
 560,41; 7196,092;  208,585;17153,685;41,23615
 561,00; 7361,902;  222,125;17470,204;41,39462
 561,58; 7436,108;  212,662;17727,120;41,24276
 562,16; 7572,989;  210,584;18055,027;41,25881
 562,74; 7668,547;  190,352;18460,559;40,93109
 563,32; 7851,794;  199,511;18857,914;41,01253
 563,90; 8033,120;  216,125;19201,847;41,17302
 564,48; 8182,598;  227,123;19670,236;40,91667
 565,06; 8371,411;  217,279;20219,584;40,76596
 565,65; 8632,701;  216,513;20925,774;40,63973
 566,23; 8908,867;  264,433;21708,119;40,31226
 566,81; 9165,568;  213,740;22407,220;40,33540
 567,39; 9565,148;  225,819;23319,797;40,44054
 567,97; 9787,373;  237,202;24005,747;40,17987
 568,55;10184,377;  245,895;24831,062;40,42471
 569,13;10448,564;  215,279;25450,181;40,55211
 569,71;10786,165;  209,660;26444,524;40,31469
 570,29;11119,927;  258,736;27448,131;39,94642
 570,87;11424,717;  261,737;28161,745;40,01067
 571,45;11637,227;  235,433;28793,947;39,92433
 572,03;11789,944;  196,281;29276,799;39,86746
 572,61;12047,539;  194,587;30040,895;39,71329
 573,20;12332,008;  215,047;30685,741;39,76595
 573,78;12554,577;  222,049;31358,732;39,60771
 574,36;12702,762;  223,818;31822,003;39,49260
 574,94;12868,125;  267,050;32220,109;39,43621
 575,52;12901,608;  221,130;32436,480;39,36160
 576,10;13119,774;  266,514;33090,274;39,15840
 576,68;13280,749;  249,665;33505,806;39,18399
 577,26;13586,728;  262,131;34187,650;39,27603
 577,84;13762,248;  272,818;34734,484;39,14329
 578,42;13867,182;  305,743;35110,116;38,96475
 579,00;13860,052;  248,049;35113,781;39,04121
 579,58;13884,655;  279,666;35455,584;38,67700
 580,16;13870,783;  258,975;35470,356;38,65741
 580,74;13916,898;  255,975;35730,039;38,50961
 581,32;13876,880;  251,512;35778,119;38,35257
 581,90;13790,176;  276,513;35652,497;38,20010
 582,48;13823,258;  277,975;35829,559;38,10037
 583,06;13816,059;  258,820;36024,002;37,90625
 583,64;13828,944;  246,897;36134,165;37,84642
 584,22;13690,242;  267,284;35945,573;37,62220
 584,80;13607,649;  274,897;35793,562;37,53731
 585,38;13393,385;  275,124;35326,464;37,42585
 585,96;13311,346;  257,434;35489,175;37,05157
 586,54;13274,265;  277,592;35445,780;36,95576
 587,12;13281,219;  234,744;35572,147;36,91973
 587,70;13299,000;  277,511;35778,551;36,67917
 588,28;13267,318;  256,591;35861,182;36,54227
 588,86;13237,979;  268,360;35959,988;36,33799
 589,44;13249,034;  243,978;36002,057;36,36956
 590,02;13298,746;  264,362;36238,897;36,23225
 590,59;13347,196;  235,515;36415,306;36,24035
 591,17;13340,935;  257,750;36680,742;35,92013
 591,75;13334,651;  235,287;36860,235;35,76623
 592,33;13429,231;  263,440;37061,033;35,77895
 592,91;13427,597;  203,519;37315,217;35,63318
 593,49;13549,448;  222,059;37674,071;35,58524
 594,07;13534,071;  239,520;37925,442;35,27723
 594,65;13476,113;  250,284;37876,764;35,15032
 595,23;13592,189;  239,978;38306,171;35,07630
 595,81;13596,435;  245,286;38397,031;34,99486
 596,39;13580,523;  226,671;38542,232;34,85229
 596,97;13594,493;  223,750;38692,197;34,75769
 597,55;13562,590;  234,515;38665,316;34,68071
 598,12;13450,925;  222,521;38696,469;34,38276
 598,70;13468,281;  211,365;38773,674;34,37791
 599,28;13513,091;  239,442;39030,128;34,21865
 599,86;13501,836;  232,673;38969,186;34,25492
 600,44;13456,522;  189,904;39112,856;34,08430
 601,02;13466,554;  254,677;39160,333;33,95876
 601,60;13402,104;  236,826;39101,094;33,87502
 602,18;13397,299;  195,367;39178,268;33,86595
 602,75;13348,474;  220,516;39266,809;33,62152
 603,33;13281,734;  217,289;39268,148;33,45495
 603,91;13257,198;  206,829;39221,947;33,44952
 604,49;13180,935;  232,750;39381,511;33,07431
 605,07;13246,288;  238,056;39291,270;33,30899
 605,65;13170,502;  248,982;39463,035;32,95125
 606,23;13230,510;  287,053;39628,463;32,90034
 606,80;13197,139;  305,901;39619,481;32,79080
 607,38;13110,800;  334,752;39785,301;32,38497
 607,96;13108,224;  359,593;39643,237;32,45277
 608,54;13150,321;  403,905;39804,091;32,35116
 609,12;13038,411;  378,670;39785,242;32,12596
 609,70;12981,265;  418,827;39870,257;31,84279
 610,27;12960,900;  418,132;39954,589;31,72456
 610,85;12917,974;  425,980;39954,538;31,60245
 611,43;12856,421;  431,904;39861,625;31,51054
 612,01;12762,014;  413,517;39660,987;31,46317
 612,59;12773,943;  409,827;39664,131;31,49748
 613,16;12642,731;  381,284;39732,901;31,15869
 613,74;12600,852;  375,981;39599,910;31,16687
 614,32;12532,892;  345,213;39499,943;31,12697
 614,90;12415,895;  337,595;39429,573;30,89713
 615,48;12247,835;  297,362;39101,288;30,79707
 616,05;12186,506;  277,207;39046,981;30,71800
 616,63;12097,177;  278,976;38958,059;30,55450
 617,21;12006,963;  295,285;38882,617;30,35110
 617,79;11963,655;  271,517;38756,350;30,38116
 618,36;11817,645;  291,825;38720,557;29,99271
 618,94;11658,837;  229,823;38321,579;30,00390
 619,52;11548,927;  249,360;38017,161;29,91852
 620,10;11482,941;  234,670;38077,333;29,72378
 620,67;11372,603;  253,899;37938,282;29,50481
 621,25;11284,783;  270,287;37750,276;29,38767
 621,83;11224,543;  249,439;37684,782;29,31749
 622,41;11191,868;  300,439;37741,832;29,08927
 622,98;10989,186;  256,360;37503,046;28,81552
 623,56;10967,178;  274,667;37527,385;28,70263
 624,14;10830,636;  257,211;37256,457;28,57741
 624,72;10759,719;  247,516;37240,510;28,41674
 625,29;10699,219;  241,975;37337,839;28,18978
 625,87;10650,913;  275,209;37290,909;28,03055
 626,45;10555,459;  231,359;37086,075;28,01297
 627,02;10488,784;  248,132;37006,005;27,85975
 627,60;10438,761;  228,289;37018,074;27,75355
 628,18;10393,488;  210,747;37125,396;27,58455
 628,76;10333,378;  225,360;37122,575;27,39507
 629,33;10332,157;  254,284;37117,201;27,33878
 629,91;10255,941;  232,978;37096,333;27,18950
 630,49;10310,822;  255,207;37162,507;27,24560
 631,06;10286,122;  248,976;37310,230;27,08259
 631,64;10209,805;  255,437;37284,604;26,88251
 632,22;10144,048;  212,589;37177,783;26,86705
 632,79;10144,012;  230,205;37487,314;26,60917
 633,37;10127,788;  225,902;37466,818;26,58873
 633,95;10102,593;  236,436;37626,426;26,38716
 634,52;10101,189;  226,593;37730,266;26,32968
 635,10;10025,694;  233,593;37751,993;26,09946
 635,68;10044,215;  232,359;37921,293;26,03379
 636,25; 9956,747;  202,434;38006,841;25,80205
 636,83;10018,609;  207,360;38113,037;25,88332
 637,41; 9953,342;  222,358;38123,060;25,67494
 637,98; 9983,716;  246,666;38412,090;25,51275
 638,56;10032,253;  237,049;38524,700;25,58319
 639,13; 9968,755;  224,898;38519,838;25,44424
 639,71; 9990,037;  266,899;38742,551;25,27088
 640,29; 9855,046;  183,514;38394,662;25,31076
 640,86; 9909,972;  203,976;38724,562;25,19691
 641,44; 9823,437;  203,053;38562,538;25,07954
 642,02; 9771,055;  237,669;38730,514;24,76665
 642,59; 9767,289;  210,207;38880,106;24,71452
 643,17; 9756,522;  209,361;38775,466;24,75532
 643,74; 9635,448;  209,592;38758,673;24,45157
 644,32; 9593,913;  233,515;38873,265;24,22479
 644,89; 9579,300;  230,130;38821,472;24,22608
 645,47; 9508,611;  253,669;38837,833;23,98637
 646,05; 9442,845;  235,361;38730,117;23,91880
 646,62; 9421,001;  224,285;38751,247;23,87086
 647,20; 9427,466;  232,362;38965,300;23,73975
 647,77; 9305,238;  195,669;38789,430;23,60373
 648,35; 9286,779;  202,669;38628,637;23,64055
 648,92; 9202,244;  225,516;38666,844;23,35176
 649,50; 9133,477;  195,131;38549,743;23,30449
 650,08; 9110,711;  205,977;38472,027;23,27058
 650,65; 9164,099;  204,362;38580,696;23,34704
 651,23; 9225,563;  187,670;39402,980;23,04685
 651,80; 9452,566;  187,593;40441,418;23,01638
 652,38; 9511,415;  207,747;40831,778;22,90188
 652,95; 9578,264;  180,593;41162,601;22,93121
 653,53; 9570,190;  217,362;41458,346;22,67848
 654,10; 9622,039;  238,593;41596,938;22,68816
 654,68; 9522,965;  200,286;41438,991;22,60662
 655,25; 9521,122;  195,440;41513,121;22,57068
 655,83; 9466,509;  198,440;41557,559;22,40877
 656,40; 9459,281;  226,824;41553,381;22,34025
 656,98; 9339,130;  211,132;41612,050;22,04782
 657,55; 9316,903;  202,132;41424,565;22,11119
 658,13; 9192,598;  200,055;41004,618;22,03808
 658,70; 9104,601;  218,132;40836,286;21,87807
 659,28; 8839,911;  207,517;39943,955;21,72413
 659,85; 8609,299;  221,133;39137,469;21,55436
 660,43; 8555,994;  211,517;39171,292;21,41819
 661,00; 8565,305;  203,287;39186,883;21,45009
 661,58; 8583,923;  198,825;39684,398;21,23585
 662,15; 8574,233;  200,671;39787,759;21,15226
 662,73; 8552,313;  259,287;40132,658;20,79841
 663,30; 8614,778;  208,825;40338,327;20,94706
 663,88; 8610,011;  203,133;40417,534;20,90514
 664,45; 8564,168;  191,595;40816,895;20,60926
 665,03; 8625,556;  204,287;41034,256;20,62521
 665,60; 8700,559;  283,980;41597,539;20,37244
 666,17; 8633,408;  219,287;41755,285;20,25742
 666,75; 8661,718;  194,057;41987,030;20,26097
 667,32; 8690,952;  211,980;42377,007;20,10902
 667,90; 8659,109;  198,057;42671,060;19,92101
 668,47; 8768,573;  224,595;42877,959;20,03119
 669,05; 8754,807;  207,134;43213,243;19,87548
 669,62; 8693,656;  169,365;43318,065;19,75561
 670,19; 8667,659;  186,596;43414,888;19,61924
 670,77; 8726,969;  201,365;43623,249;19,63435
 671,34; 8656,126;  188,519;43622,533;19,49534
 671,92; 8707,283;  195,211;43894,893;19,47857
 672,49; 8670,286;  220,134;43936,177;19,32963
 673,06; 8608,135;  167,673;43929,077;19,28746
 673,64; 8583,445;  185,904;43829,437;19,24120
 674,21; 8543,371;  171,827;43843,260;19,16938
 674,79; 8540,143;  215,442;44122,928;18,95964
 675,36; 8542,069;  212,289;44363,597;18,86644
 675,93; 8468,149;  186,443;44148,342;18,83837
 676,51; 8496,229;  203,673;44467,396;18,73443
 677,08; 8452,847;  206,443;44381,833;18,66742
 677,65; 8456,312;  209,904;44546,579;18,59952
 678,23; 8420,622;  196,520;44795,709;18,44003
 678,80; 8433,702;  191,058;44857,762;18,45366
 679,38; 8361,474;  192,058;44996,277;18,23359
 679,95; 8431,016;  204,597;45358,638;18,21857
 680,52; 8399,172;  187,520;45587,845;18,08721
 681,10; 8511,175;  213,136;45975,744;18,13279
 681,67; 8483,178;  203,597;46311,489;17,95697
 682,24; 8473,489;  185,597;46273,927;17,98262
 682,82; 8475,799;  195,367;46900,288;17,72925
 683,39; 8588,648;  238,521;47203,495;17,77948
 683,96; 8572,882;  204,521;47468,240;17,70568
 684,54; 8659,654;  181,367;47753,601;17,82192
 685,11; 8689,426;  239,521;48220,193;17,61106
 685,68; 8706,506;  205,598;48535,477;17,58934
 686,25; 8676,740;  184,367;48735,145;17,49173
 686,83; 8648,204;  198,444;48885,045;17,35541
 687,40; 8660,284;  186,213;49219,021;17,28245
 687,97; 8726,825;  228,983;49642,689;17,19734
 688,55; 8731,828;  184,137;49562,819;17,31049
 689,12; 8700,139;  166,829;49904,488;17,15664
 689,69; 8687,988;  174,906;50041,772;17,07162
 690,26; 8699,299;  202,983;50050,056;17,04476
 690,84; 8739,301;  188,983;50302,109;17,06203
 691,41; 8714,304;  203,060;50265,701;17,00119
 691,98; 8769,769;  201,983;50695,292;16,96816
 692,56; 8721,695;  189,753;50778,961;16,86514
 693,13; 8755,775;  244,137;50830,706;16,82588
 693,70; 8754,239;  207,061;50932,221;16,84998
 694,27; 8692,319;  198,214;51258,813;16,63534
 694,84; 8778,860;  190,061;51133,404;16,85951
 695,42; 8798,632;  230,061;51318,765;16,77195
 695,99; 8727,558;  195,369;51420,510;16,65625
 696,56; 8740,946;  197,522;51374,025;16,69404
 697,13; 8752,256;  203,523;51868,848;16,54637
 697,71; 8700,490;  175,292;51889,285;16,48528
 698,28; 8783,724;  189,830;52164,108;16,53490
 698,85; 8732,650;  157,446;52182,699;16,48277
 699,42; 8672,730;  162,907;52472,752;16,26811
 699,99; 8741,194;  197,215;52494,498;16,33733
 700,57; 8666,812;  193,677;52598,628;16,16858
 701,14; 8677,507;  179,677;52679,604;16,18637
 701,71; 8680,126;  198,908;52900,196;16,09300
 702,28; 8659,667;  187,600;52938,864;16,06041
 702,85; 8643,439;  199,908;52906,994;16,01973
 703,43; 8636,442;  207,831;53360,894;15,85724
 704,00; 8665,676;  225,062;53470,408;15,85230
 704,57; 8641,909;  208,524;53381,231;15,86037
 705,14; 8639,605;  216,447;53670,669;15,75770
 705,71; 8593,377;  211,062;53798,491;15,64232
 706,28; 8571,226;  189,678;53673,160;15,67128
 706,86; 8615,459;  225,216;53871,597;15,63991
 707,43; 8599,078;  239,755;53866,420;15,58800
 708,00; 8569,696;  218,678;53859,627;15,56836
 708,57; 8538,776;  190,832;53769,988;15,58058
 709,14; 8496,471;  221,909;53938,271;15,40417
 709,71; 8544,551;  195,601;54030,786;15,50835
 710,28; 8501,169;  204,678;54240,378;15,35372
 710,86; 8512,787;  203,832;54357,662;15,34325
 711,43; 8563,098;  226,986;54343,869;15,40390
 712,00; 8499,947;  210,371;54522,076;15,26296
 712,57; 8561,258;  219,986;54547,283;15,35374
 713,14; 8597,107;  209,294;54769,567;15,37348
 713,71; 8532,571;  222,448;54599,851;15,28231
 714,28; 8521,113;  210,294;54662,211;15,26267
 714,85; 8460,500;  190,371;54369,341;15,26446
 715,42; 8469,349;  202,217;54618,010;15,19252
 716,00; 8569,044;  263,987;54710,063;15,25373
 716,57; 8532,509;  204,371;54790,732;15,25681
 717,14; 8472,742;  197,679;54877,093;15,13378
 717,71; 8484,591;  179,679;54784,761;15,20905
 718,28; 8475,056;  233,372;54958,891;15,06004
 718,85; 8452,751;  187,449;55041,944;15,06768
 719,42; 8528,600;  217,833;55159,690;15,12648
 719,99; 8474,372;  181,141;55005,128;15,12701
 720,56; 8466,452;  216,218;55192,873;15,00680
 721,13; 8529,686;  195,141;55296,618;15,12581
 721,70; 8469,996;  192,449;55204,056;15,04691
 722,27; 8460,615;  217,526;55252,263;14,97797
 722,84; 8538,848;  256,757;55392,701;15,02122
 723,41; 8485,313;  185,911;55387,370;15,03475
 723,98; 8487,623;  194,757;55579,653;14,97315
 724,55; 8527,472;  223,680;55786,245;14,94494
 725,12; 8483,398;  154,296;55632,298;15,01334
 725,69; 8534,555;  200,450;55798,505;14,98992
 726,27; 8530,943;  195,450;55981,328;14,94194
 726,84; 8559,946;  197,834;56216,612;14,92734
 727,41; 8589,718;  214,142;56164,972;14,96953
 727,98; 8644,413;  215,450;56552,102;14,96177
 728,55; 8625,493;  234,296;56450,233;14,92672
 729,12; 8591,188;  181,373;56490,055;14,93520
 729,69; 8650,345;  219,296;56778,954;14,90647
 730,26; 8705,348;  222,912;56899,007;14,96651
 730,82; 8636,889;  207,297;56748,137;14,90886
 731,39; 8686,738;  197,143;56856,191;14,98365
 731,96; 8753,433;  190,143;57225,782;15,01393
 732,53; 8790,051;  201,758;57488,451;14,99178
 733,10; 8801,900;  213,374;57534,196;14,98326
 733,67; 8809,365;  206,989;57751,096;14,94919
 734,24; 8800,291;  190,682;57308,610;15,07339
 734,81; 8855,832;  227,297;57476,586;15,07186
 735,38; 8768,143;  205,759;57341,409;14,98606
 735,95; 8755,915;  199,143;57096,000;15,03909
 736,52; 8801,072;  217,374;57264,823;15,04659
 737,09; 8772,305;  214,605;56955,876;15,08197
 737,66; 8792,462;  255,451;57133,698;15,00927
 738,23; 8726,773;  196,451;57238,521;14,95444
 738,80; 8874,929;  262,528;57491,805;15,04894
 739,37; 8874,548;  234,298;57758,089;15,02031
 739,94; 8869,704;  213,529;57798,834;15,03192
 740,51; 8981,784;  317,990;57901,118;15,04572
 741,07; 8897,172;  201,837;57796,863;15,09737
 741,64; 8962,867;  238,452;58036,917;15,09454
 742,21; 8992,947;  215,991;58049,277;15,17631
 742,78; 8922,796;  195,221;57761,792;15,16084
 743,35; 8995,645;  212,221;58071,076;15,18078
 743,92; 9049,340;  248,760;58380,052;15,13914
 744,49; 9019,728;  229,222;57986,336;15,21978
 745,06; 9003,346;  213,376;58040,005;15,20056
 745,63; 8999,887;  194,837;58088,135;15,20910
 746,19; 9035,506;  199,760;58059,265;15,27104
 746,76; 9065,585;  213,222;58131,010;15,28436
 747,33; 9076,127;  214,530;58115,063;15,30486
 747,90; 9155,053;  214,914;58300,347;15,39136
 748,47; 9092,748;  221,838;58159,093;15,31124
 749,04; 9181,059;  230,376;58126,531;15,45989
 749,61; 9180,677;  238,684;58085,199;15,45814
 750,17; 9256,218;  218,453;58233,329;15,57836
 750,74; 9220,990;  223,838;58144,382;15,53361
 751,31; 9163,686;  198,992;58062,897;15,49272
 751,88; 9190,458;  189,453;57927,643;15,58934
 752,45; 9306,153;  211,992;58131,234;15,70145
 753,02; 9233,387;  234,684;57998,210;15,57852
 753,58; 9234,620;  193,069;57799,648;15,69534
 754,15; 9277,238;  195,531;57940,624;15,72724
 754,72; 9227,011;  199,531;57836,524;15,66265
 755,29; 9245,860;  183,992;57553,885;15,79551
 755,86; 9309,863;  209,146;57743,399;15,81791
 756,42; 9382,327;  218,300;57561,222;15,98110
 756,99; 9271,099;  197,070;57557,890;15,81921
 757,56; 9338,871;  208,377;57604,559;15,90784
 758,13; 9327,951;  165,300;57528,612;15,97302
 758,70; 9373,569;  194,070;57577,588;15,99675
 759,26; 9470,880;  200,301;57653,026;16,13601
 759,83; 9434,652;  214,608;57756,002;16,02332
 760,40; 9452,347;  190,532;57602,901;16,13209
 760,97; 9482,196;  181,532;57745,724;16,15703
 761,53; 9473,122;  173,686;57327,085;16,27101
 762,10; 9458,202;  164,686;57321,369;16,25972
 762,67; 9543,820;  205,840;57303,499;16,35440
 763,24; 9470,516;  158,224;56833,552;16,43094
 763,80; 9486,749;  198,147;56985,990;16,35667
 764,37; 9462,829;  189,917;56905,658;16,34980
 764,94; 9476,601;  178,917;56441,711;16,52546
 765,50; 9468,143;  176,302;56408,764;16,52398
 766,07; 9536,992;  205,917;56378,510;16,61144
 766,64; 9489,841;  184,917;56131,409;16,63183
 767,21; 9513,074;  181,917;56024,462;16,70976
 767,77; 9563,231;  202,763;55931,592;16,79646
 768,34; 9560,080;  209,148;55892,722;16,79298
 768,91; 9601,622;  210,456;55688,314;16,92777
 769,47; 9652,240;  205,225;55727,752;17,01474
 770,04; 9611,166;  209,225;55589,343;16,97710
 770,61; 9567,092;  190,533;55380,166;16,98971
 771,18; 9600,633;  190,379;55216,142;17,10154
 771,74; 9655,636;  195,918;55472,888;17,11331
 772,31; 9706,562;  207,149;55135,018;17,29434
 772,88; 9656,411;  172,456;54969,378;17,30746
 773,44; 9620,568;  185,072;54724,893;17,30020
 774,01; 9684,878;  208,149;54924,792;17,31965
 774,58; 9631,112;  192,303;54459,846;17,39310
 775,14; 9668,500;  179,380;54622,053;17,42956
 775,71; 9737,579;  189,457;54557,029;17,56216
 776,27; 9760,505;  238,534;54489,620;17,55167
 776,84; 9791,508;  270,226;54588,981;17,52853
 777,41; 9800,511;  209,457;54333,573;17,72048
 777,97; 9757,745;  187,996;54079,857;17,75732
 778,54; 9742,902;  202,303;54161,295;17,68120
 779,11; 9852,674;  234,304;54029,502;17,87961
 779,67; 9818,754;  194,534;54077,939;17,86119
 780,24; 9822,756;  206,227;53719,454;17,97038
 780,80; 9870,990;  226,381;53780,738;18,00901
 781,37; 9857,685;  219,458;53756,176;18,00302
 781,94; 9867,611;  201,227;53600,614;18,10205
 782,50; 9893,768;  208,227;53384,282;18,21410
 783,07; 9921,925;  230,381;53494,104;18,19539
 783,63; 9852,005;  196,381;53211,388;18,21300
 784,20; 9921,854;  223,766;53191,442;18,30945
 784,77; 9916,472;  209,689;52920,110;18,41530
 785,33; 9885,782;  189,612;52761,548;18,44362
 785,90; 9966,862;  209,920;52792,909;18,55532
 786,46; 9938,788;  229,151;52641,577;18,52545
 787,03; 9956,176;  205,689;52420,553;18,67378
 787,59; 9995,333;  205,228;52470,607;18,73153
 788,16;10042,951;  222,689;52317,814;18,85063
 788,73;10087,723;  228,074;52168,098;18,98276
 789,29;10039,726;  210,382;51840,151;19,03813
 789,86;10098,190;  227,844;51718,819;19,16908
 790,42;10139,501;  222,228;51698,642;19,26566
 790,99;10074,042;  226,382;51221,464;19,31100
 791,55;10100,430;  205,767;51189,517;19,40748
 792,12;10173,048;  235,459;51250,724;19,47964
 792,68;10089,974;  214,844;50930,162;19,47169
 793,25;10149,746;  218,382;50748,907;19,65419
 793,81;10208,288;  272,613;50268,961;19,87280
 794,38;10118,598;  197,460;50098,783;19,88151
 794,94;10144,909;  206,613;50010,836;19,95472
 795,51;10144,296;  234,614;49636,120;20,05947
 796,07;10135,453;  216,075;49489,250;20,13140
 796,64;10211,225;  229,537;49531,303;20,24611
 797,20;10133,305;  227,922;49147,049;20,24849
 797,77;10058,154;  194,614;48731,179;20,32187
 798,33;10085,157;  222,614;48696,924;20,34592
 798,90;10122,544;  237,614;48520,439;20,47297
 799,46;10083,009;  209,922;48030,569;20,64608
 800,03;10056,396;  218,537;47993,084;20,59226
 800,59;10098,168;  231,537;47753,445;20,76228
 801,15;10069,017;  244,230;47560,575;20,76405
 801,72;10032,713;  219,307;47296,705;20,84526
 802,28; 9996,100;  248,845;46915,989;20,88676
 802,85;10026,718;  220,768;46647,042;21,12155
 803,41;10022,106;  218,922;46464,249;21,19821
 803,98; 9927,955;  216,538;46099,763;21,16551
 804,54; 9962,573;  213,999;45879,432;21,34782
 805,11; 9881,807;  222,307;45628,947;21,27332
 805,67; 9944,348;  249,846;45488,384;21,42974
 806,23; 9832,351;  232,231;45109,207;21,39208
 806,80; 9885,200;  249,231;45059,414;21,50397
 807,36; 9920,896;  243,615;44980,390;21,63160
 807,93; 9968,437;  248,154;44652,982;21,89015
 808,49; 9925,363;  215,692;44293,496;22,02848
 809,05; 9887,366;  205,231;44215,011;21,99996
 809,62; 9895,522;  237,308;44081,295;22,02860
 810,18; 9964,372;  235,462;43991,964;22,23420
 810,74; 9870,759;  201,077;43586,094;22,28807
 811,31; 9914,608;  204,770;43439,378;22,45849
 811,87; 9932,457;  220,693;43221,969;22,58483
 812,44; 9966,152;  253,924;43351,638;22,53537
 813,00; 9946,463;  182,385;43052,614;22,77589
 813,56; 9969,389;  234,616;43028,975;22,74779
 814,13;10010,700;  220,001;42955,182;22,91016
 814,69;10028,087;  224,078;42729,620;23,06525
 815,25; 9964,551;  187,924;42265,980;23,23450
 815,82; 9992,939;  235,770;42261,803;23,21696
 816,38;10043,480;  268,617;42136,010;23,34720
 816,94; 9978,329;  210,617;41705,524;23,53955
 817,51; 9931,486;  207,848;41603,655;23,48943
 818,07; 9950,566;  210,232;41236,169;23,74189
 818,63; 9900,953;  233,617;41066,222;23,67553
 819,20; 9922,495;  226,925;40996,122;23,78161
 819,76; 9833,882;  201,156;40596,252;23,84628
 820,32; 9881,501;  248,694;40578,766;23,88492
 820,89; 9827,042;  236,310;40284,589;23,94793
 821,45; 9846,660;  222,848;39917,873;24,24438
 822,01; 9809,663;  229,617;39761,387;24,23379
 822,57; 9771,205;  234,848;39616,287;24,21536
 823,14; 9780,284;  200,310;39335,494;24,47919
 823,70; 9744,518;  212,387;39129,855;24,49319
 824,26; 9708,213;  213,387;38920,985;24,52962
 824,82; 9801,139;  249,002;38790,346;24,78413
 825,39; 9709,681;  215,310;38492,476;24,80427
 825,95; 9754,683;  233,156;38548,683;24,85031
 826,51; 9734,379;  237,310;38121,351;25,06878
 827,08; 9790,612;  262,157;38176,943;25,13124
 827,64; 9758,231;  241,618;38010,304;25,19710
 828,20; 9723,080;  211,618;37685,588;25,38152
 828,76; 9786,467;  250,388;37665,641;25,48714
 829,32; 9740,778;  248,234;37578,463;25,42857
 829,89; 9741,473;  200,080;37370,901;25,66904
 830,45; 9771,476;  241,003;37326,262;25,69882
 831,01; 9712,325;  221,465;37130,930;25,71389
 831,57; 9740,328;  223,388;37025,753;25,85959
 832,14; 9764,100;  221,542;37007,190;25,94098
 832,70; 9760,641;  202,619;36693,936;26,19259
 833,26; 9731,029;  183,234;36693,681;26,15086
 833,82; 9759,647;  217,081;36566,965;26,25199
 834,38; 9804,496;  216,927;36445,172;26,46435
 834,95; 9764,884;  201,465;36371,764;26,43998
 835,51; 9781,810;  169,466;36375,509;26,54900
 836,07; 9851,274;  221,389;36354,332;26,65126
 836,63; 9900,431;  238,696;36262,231;26,82062
 837,19; 9887,126;  231,158;36133,900;26,89479
 837,75; 9851,206;  182,158;35783,183;27,15946
 838,32; 9886,132;  244,851;35931,929;27,01617
 838,88;10009,135;  240,004;36031,367;27,29466
 839,44; 9967,676;  231,312;35826,804;27,35280
 840,00;10022,987;  221,851;35768,396;27,57268
 840,56; 9942,990;  204,928;35450,834;27,62892
 841,12; 9992,992;  207,312;35470,964;27,75005
 841,68; 9953,765;  194,313;35269,632;27,82427
 842,25;10034,614;  204,159;35319,224;27,99498
 842,81;10015,463;  201,236;34981,585;28,21774
 843,37;10078,389;  196,467;35065,715;28,33993
 843,93;10076,392;  201,313;34900,537;28,45908
 844,49;10117,625;  223,467;35037,206;28,42027
 845,05;10046,628;  180,698;34748,336;28,54094
 845,61;10220,785;  233,082;34749,543;28,93606
 846,17;10148,019;  216,467;34727,519;28,77789
 846,73;10204,098;  214,313;34654,957;29,00580
 847,29;10170,024;  198,083;34464,241;29,10143
 847,86;10223,335;  199,467;34366,679;29,33768
 848,42;10225,261;  199,237;34149,732;29,53130
 848,98;10239,495;  222,314;34060,708;29,60300
 849,54;10266,113;  200,929;34173,684;29,62722
 850,10;10267,423;  215,083;34019,661;29,73662
 850,66;10267,888;  190,468;33877,560;29,91478
 851,22;10249,045;  193,929;33775,151;29,94267
 851,78;10331,124;  250,083;33848,820;30,00423
 852,34;10313,743;  230,237;33620,104;30,19930
 852,90;10321,284;  204,160;33484,772;30,39945
 853,46;10237,441;  202,776;33288,672;30,32913
 854,02;10337,905;  208,776;33279,417;30,62877
 854,58;10284,062;  205,084;33035,163;30,70044
 855,14;10311,450;  209,315;32941,216;30,86327
 855,70;10287,837;  179,084;32930,038;30,86552
 856,26;10333,071;  226,238;32714,476;31,10921
 856,82;10325,535;  204,853;32531,683;31,30738
 857,38;10324,000;  237,776;32537,582;31,22688
 857,94;10321,310;  211,161;32329,943;31,47737
 858,50;10351,852;  223,469;32305,227;31,57053
 859,06;10333,008;  203,007;31977,357;31,88106
 859,62;10333,473;  232,854;31969,103;31,82676
 860,18;10282,091;  214,700;31814,617;31,85892
 860,74;10249,709;  186,469;31707,747;31,92523
 861,30;10197,635;  196,239;31471,108;31,97902
 861,86;10372,407;  259,008;31502,546;32,36957
 862,42;10305,718;  220,008;31344,061;32,40487
 862,98;10376,029;  245,239;31302,960;32,61923
 863,54;10317,262;  217,623;31021,398;32,78702
 864,10;10326,265;  219,624;31180,143;32,64364
 864,66;10312,191;  191,008;30899,966;32,95841
 865,22;10255,732;  212,547;30794,096;32,84067
 865,78;10228,966;  211,162;30645,226;32,91642
 866,34;10254,584;  197,778;30510,202;33,17718
 866,90;10279,433;  222,470;30363,871;33,36595
 867,45;10253,513;  215,316;30152,924;33,53039
 868,01;10184,747;  220,163;30001,285;33,45940
 868,57;10181,596;  216,393;29747,799;33,74442
 869,13;10133,522;  204,317;29714,622;33,64657
 869,69;10144,448;  206,394;29664,598;33,73612
 870,25;10085,682;  188,624;29505,420;33,75900
 870,81;10172,915;  216,471;29362,704;34,16031
 871,37;10077,687;  215,240;29343,834;33,85830
 871,93;10124,152;  229,855;29159,503;34,20123
 872,49;10078,924;  241,702;28918,633;34,30361
 873,04; 9996,850;  201,933;28846,378;34,19482
 873,60; 9991,314;  195,702;28661,970;34,41130
 874,16;10019,087;  219,394;28592,177;34,53906
 874,72;10020,933;  202,471;28505,023;34,69108
 875,28;10013,625;  216,394;28451,946;34,69821
 875,84;10077,471;  212,779;28416,485;34,97658
 876,40;10096,856;  202,702;28364,023;35,13384
 876,95;10099,394;  222,548;28281,100;35,20084
 877,51;10167,702;  237,240;28300,485;35,38601
 878,07;10210,394;  244,625;28271,485;35,55792
 878,63;10230,240;  207,240;28237,100;35,75830
 879,19;10292,163;  225,933;28303,254;35,85182
 879,75;10355,471;  202,010;28379,177;36,03436
 880,30;10386,471;  205,010;28285,792;36,25776
 880,86;10499,240;  252,856;28427,562;36,36732
 881,42;10503,394;  200,702;28463,023;36,45381
 881,98;10540,010;  234,856;28522,638;36,42970
 882,54;10613,625;  199,317;28608,331;36,65846
 883,09;10740,779;  222,933;28754,946;36,86332
 883,65;10779,087;  201,933;28861,792;36,90581
 884,21;10946,010;  244,471;29072,946;37,12142
 884,77;10963,087;  204,933;29068,023;37,27305
 885,32;11033,625;  207,625;29326,638;37,17846
 885,88;11160,856;  249,548;29431,792;37,39023
 886,44;11248,933;  216,471;29416,254;37,78268
 887,00;11360,163;  235,163;29470,100;38,05379
 887,56;11365,856;  216,702;29674,177;37,84830
 888,11;11474,163;  213,856;29634,177;38,27391
 888,67;11538,163;  248,856;29821,331;38,17505
 889,23;11576,317;  224,779;29841,023;38,32876
 889,79;11543,087;  200,933;29749,715;38,38450
 890,34;11543,317;  224,087;29662,562;38,45047
 890,90;11758,625;  289,471;29787,100;38,88161
 891,46;11708,548;  207,933;29726,177;38,96104
 892,01;11704,240;  229,856;29682,023;38,95939
 892,57;11804,010;  244,087;29601,177;39,37694
 893,13;11710,702;  215,240;29331,100;39,48179
 893,69;11724,317;  214,702;29356,638;39,49503
 894,24;11740,240;  226,163;29248,562;39,67307
 894,80;11735,240;  224,933;29131,254;39,81934
 895,36;11738,087;  227,625;29013,946;39,98587
 895,91;11723,471;  220,317;28725,946;40,35397
 896,47;11698,010;  234,548;28766,331;40,17787
 897,03;11615,010;  215,240;28519,408;40,27594
 897,58;11667,394;  224,010;28410,715;40,59852
 898,14;11644,163;  228,779;28245,485;40,74492
 898,70;11582,548;  205,087;28088,562;40,80360
 899,25;11613,548;  221,856;28018,254;40,98262
 899,81;11599,394;  235,163;27872,100;41,11972
 900,37;11524,702;  200,625;27663,331;41,23438
 900,92;11546,856;  221,702;27718,177;41,18766
 901,48;11514,702;  211,779;27456,254;41,48703
 902,03;11441,317;  210,010;27343,869;41,39222
 902,59;11443,087;  219,087;27251,100;41,52114
 903,15;11455,010;  240,702;27038,408;41,84801
 903,70;11310,625;  227,010;26772,485;41,75331
 904,26;11344,240;  210,856;26691,946;42,04277
 904,82;11365,933;  224,933;26620,715;42,20750
 905,37;11310,856;  232,240;26556,638;42,08497
 905,93;11272,163;  208,702;26433,715;42,18668
 906,48;11316,163;  235,779;26319,408;42,48023
 907,04;11433,240;  236,010;26205,715;43,11651
 907,60;11268,471;  226,625;25990,408;42,85802
 908,15;11255,317;  200,471;25854,485;43,09207
 908,71;11330,394;  243,317;25959,100;43,11390
 909,26;11251,779;  211,317;25708,869;43,30008
 909,82;11276,471;  241,394;25696,792;43,35064
 910,37;11301,010;  255,163;25506,100;43,74430
 910,93;11171,317;  212,163;25377,023;43,54943
 911,48;11199,625;  210,471;25194,792;43,98420
 912,04;11210,856;  209,779;25031,100;44,32108
 912,60;11322,548;  225,548;25080,485;44,64707
 913,15;11207,856;  217,548;24820,869;44,67002
 913,71;11214,471;  203,394;24704,485;44,94117
 914,26;11222,856;  203,856;24682,869;45,01407
 914,82;11193,856;  226,317;24523,869;45,13845
 915,37;11262,548;  201,087;24410,023;45,69165
 915,93;11233,394;  258,394;24353,408;45,54884
 916,48;11203,087;  202,240;24169,946;45,89862
 917,04;11249,317;  235,317;24069,100;46,21172
 917,59;11236,933;  251,394;23976,177;46,30406
 918,15;11140,471;  191,856;23859,792;46,25927
 918,70;11191,394;  216,856;23817,946;46,50013
 919,26;11108,010;  223,010;23684,177;46,39582
 919,81;11044,394;  203,010;23426,562;46,68272
 920,37;11108,471;  211,163;23411,715;46,97004
 920,92;11043,240;  232,856;23239,408;46,98829
 921,48;11007,548;  199,317;23019,869;47,36183
 922,03;11037,394;  207,394;23052,177;47,40689
 922,59;10942,240;  212,933;22870,715;47,35374
 923,14;10944,087;  209,471;22770,485;47,58038
 923,69;10967,087;  229,548;22779,715;47,61623
 924,25;11027,010;  232,163;22623,792;48,20929
 924,80;10885,625;  213,087;22481,638;47,92650
 925,36;10869,856;  216,779;22339,946;48,15349
 925,91;10870,317;  212,702;22210,485;48,44859
 926,47;10888,087;  191,087;22149,023;48,71587
 927,02;10912,087;  271,240;22125,792;48,68938
 927,57;10789,856;  209,856;21936,023;48,69704
 928,13;10779,087;  206,548;21810,869;48,93715
 928,68;10816,548;  215,163;21760,100;49,20592
 929,24;10703,471;  196,394;21569,562;49,16013
 929,79;10695,625;  202,702;21532,792;49,19305
 930,34;10622,548;  216,394;21315,408;49,32057
 930,90;10672,163;  214,163;21233,638;49,75386
 931,45;10648,548;  224,394;21307,869;49,44229
 932,01;10662,317;  232,240;21098,177;49,98614
 932,56;10619,625;  237,240;20955,331;50,11265
 933,11;10595,933;  249,702;20967,254;49,93945
 933,67;10477,087;  216,010;20769,946;49,92268
 934,22;10538,548;  226,548;20745,254;50,25658
 934,77;10570,933;  243,010;20597,485;50,74031
 935,33;10535,548;  221,240;20489,562;50,88881
 935,88;10473,471;  221,087;20395,100;50,81976
 936,43;10449,163;  208,010;20289,715;50,99743
 936,99;10467,317;  218,087;20199,485;51,29386
 937,54;10347,010;  202,933;19966,408;51,32740
 938,09;10377,702;  219,779;20040,869;51,24805
 938,65;10355,625;  218,471;19837,100;51,67106
 939,20;10222,779;  191,702;19767,408;51,24248
 939,75;10229,471;  196,702;19645,869;51,58457
 940,31;10200,933;  201,010;19523,562;51,75260
 940,86;10231,471;  218,240;19571,869;51,73826
 941,41;10262,010;  298,548;19481,254;51,93981
 941,96;10160,933;  210,933;19300,254;52,12338
 942,52;10123,010;  208,471;19239,792;52,09590
 943,07;10080,471;  201,625;19097,946;52,27920
 943,62;10053,163;  208,471;19001,100;52,38592
 944,18;10052,933;  195,702;18939,100;52,59041
 944,73;10014,317;  220,625;18894,792;52,44514
 945,28; 9935,933;  178,394;18645,715;52,83678
 945,83;10001,625;  213,163;18682,100;52,99959
 946,39;10021,163;  209,010;18585,023;53,39653
 946,94; 9994,163;  241,163;18501,946;53,40954
 947,49; 9954,087;  207,240;18407,638;53,55293
 948,04;10014,702;  247,163;18397,254;53,81537
 948,59; 9973,087;  236,548;18291,792;53,92637
 949,15; 9971,548;  201,933;18110,562;54,55256
 949,70; 9947,317;  220,010;18106,869;54,38242
 950,25; 9894,471;  236,240;17984,562;54,41771
 950,80; 9912,856;  179,317;17871,638;55,01561
 951,36; 9865,087;  178,625;17785,177;55,01623
 951,91; 9947,240;  232,010;17830,715;55,20423
 952,46; 9852,779;  199,163;17579,254;55,54410
 953,01; 9917,702;  224,240;17595,408;55,80202
 953,56; 9790,933;  190,471;17396,946;55,79563
 954,11; 9860,548;  220,087;17374,562;56,19794
 954,67; 9831,163;  209,779;17376,715;56,04602
 955,22; 9714,394;  189,240;17149,485;56,16165
 955,77; 9778,317;  235,856;17149,331;56,41928
 956,32; 9756,625;  259,856;17000,869;56,72756
 956,87; 9661,625;  196,702;16885,792;56,71324
 957,42; 9661,471;  209,163;16839,562;56,83753
 957,98; 9589,548;  209,317;16755,023;56,69284
 958,53; 9614,471;  235,317;16758,100;56,76498
 959,08; 9521,394;  198,779;16575,177;56,92714
 959,63; 9585,010;  203,625;16436,485;57,79256
 960,18; 9575,317;  227,240;16404,715;57,78452
 960,73; 9475,317;  218,471;16338,177;57,42565
 961,28; 9444,625;  187,933;16310,638;57,41401
 961,83; 9500,548;  239,163;16255,023;57,82633
 962,39; 9455,010;  194,933;16131,254;58,10674
 962,94; 9427,394;  222,010;16006,485;58,31923
 963,49; 9397,702;  217,394;15937,408;58,39885
 964,04; 9381,933;  226,548;15870,177;58,52469
 964,59; 9286,471;  186,933;15730,408;58,54250
 965,14; 9307,471;  224,087;15700,869;58,69039
 965,69; 9270,087;  205,856;15567,177;59,00684
 966,24; 9257,394;  202,625;15422,100;59,49462
 966,79; 9185,856;  230,933;15378,869;59,11645
 967,34; 9133,087;  192,471;15215,331;59,51341
 967,89; 9161,856;  206,087;15166,023;59,86502
 968,44; 9123,240;  213,010;15120,638;59,76960
 968,99; 9055,317;  219,163;15072,177;59,49065
 969,55; 9041,856;  225,625;14979,023;59,75729
 970,10; 9022,856;  216,548;14840,485;60,21845
 970,65; 8986,471;  227,548;14746,177;60,32886
 971,20; 9003,702;  198,548;14626,715;61,02753
 971,75; 8892,010;  188,933;14519,485;60,73093
 972,30; 8894,317;  220,240;14463,408;60,89992
 972,85; 8861,856;  202,471;14373,792;61,10499
 973,40; 8783,394;  194,625;14285,254;60,95377
 973,95; 8836,856;  226,087;14183,254;61,69425
 974,50; 8792,394;  240,933;14163,254;61,42267
 975,05; 8756,856;  223,010;14003,715;61,92605
 975,60; 8751,394;  222,856;13962,254;62,07360
 976,15; 8712,548;  205,625;13834,485;62,41845
 976,70; 8709,779;  226,010;13747,946;62,74079
 977,25; 8652,163;  233,779;13691,638;62,55367
 977,80; 8634,702;  202,702;13509,023;63,36838
 978,35; 8521,317;  217,394;13366,638;63,15133
 978,89; 8494,317;  191,471;13324,946;63,21896
 979,44; 8507,394;  221,240;13314,792;63,28423
 979,99; 8384,548;  199,625;13033,485;63,77601
 980,54; 8383,317;  240,240;13037,485;63,63149
 981,09; 8277,702;  230,856;12928,254;63,37398
 981,64; 8277,317;  225,702;12795,177;64,05689
 982,19; 8218,163;  257,548;12768,792;63,62769
 982,74; 8160,779;  226,240;12684,946;63,68670
 983,29; 8034,240;  209,548;12498,177;63,67425
 983,84; 8015,702;  223,933;12372,100;64,13946
 984,39; 8100,548;  284,240;12408,792;64,46678
 984,94; 7949,779;  189,317;12135,254;64,96319
 985,49; 7929,471;  237,702;12149,792;64,57111
 986,03; 7897,856;  236,471;12058,946;64,80356
 986,58; 7770,779;  260,933;11876,100;64,65551
 987,13; 7664,163;  222,240;11805,408;64,24774
 987,68; 7672,625;  239,394;11672,562;65,01462
 988,23; 7601,779;  236,702;11640,023;64,58712
 988,78; 7551,163;  212,856;11427,023;65,43783
 989,33; 7543,317;  233,240;11375,562;65,60641
 989,88; 7517,933;  249,087;11319,638;65,65929
 990,42; 7425,779;  222,625;11187,331;65,69400
 990,97; 7361,163;  206,779;11049,331;65,98432
 991,52; 7308,163;  245,779;10962,254;65,90212
 992,07; 7249,163;  247,933;10895,792;65,75247
 992,62; 7234,317;  236,933;10746,100;66,58363
 993,17; 7138,087;  237,779;10666,408;66,16697
 993,71; 7119,625;  239,471;10564,638;66,63479
 994,26; 7026,625;  213,471;10373,792;67,05648
 994,81; 7034,394;  251,240;10370,100;67,03477
 995,36; 6946,702;  219,240;10219,331;67,27401
 995,91; 6903,933;  227,163;10148,562;67,29666
 996,45; 6827,087;  228,471;10034,946;67,28835
 997,00; 6739,779;  206,394; 9881,254;67,52950
 997,55; 6726,317;  239,625; 9831,562;67,62651
 998,10; 6711,240;  256,548; 9740,638;68,05811
 998,65; 6626,625;  232,394; 9689,331;67,61419
 999,19; 6577,087;  253,625; 9552,715;68,00086
 999,74; 6521,779;  264,625; 9371,792;68,70582
1000,29; 6466,471;  237,625; 9336,100;68,46033
1000,84; 6411,087;  231,087; 9207,946;68,84367
1001,38; 6325,240;  227,702; 9067,023;68,98198
1001,93; 6271,625;  245,010; 9071,177;68,28123
1002,48; 6140,087;  213,779; 8896,331;68,25537
1003,03; 6168,087;  232,933; 8861,792;68,78260
1003,57; 6093,702;  236,087; 8769,254;68,64527
1004,12; 6065,779;  260,702; 8650,946;69,18841
1004,67; 5950,625;  220,010; 8534,792;68,92081
1005,22; 5849,240;  215,702; 8437,100;68,52288
1005,76; 5753,010;  210,010; 8245,177;68,98425
1006,31; 5765,163;  234,702; 8237,254;69,10872
1006,86; 5665,779;  226,087; 8080,331;69,25800
1007,40; 5585,471;  207,779; 7979,023;69,19989
1007,95; 5515,240;  226,317; 7911,562;68,81919
1008,50; 5454,625;  236,163; 7762,869;69,33261
1009,04; 5379,010;  225,163; 7689,177;69,04926
1009,59; 5293,856;  237,702; 7508,100;69,54439
1010,14; 5215,471;  218,856; 7450,638;69,09244
1010,68; 5146,933;  226,163; 7322,715;69,34028
1011,23; 5133,933;  224,163; 7241,023;69,97103
1011,78; 5082,317;  239,625; 7121,331;70,37052
1012,32; 5048,702;  246,779; 6990,792;71,20275
1012,87; 5031,933;  254,394; 6989,408;70,93584
1013,42; 4922,163;  218,933; 6858,946;70,83165
1013,96; 4958,933;  256,317; 6901,562;70,76663
1014,51; 4859,856;  195,933; 6746,254;71,20144
1015,06; 4865,394;  208,010; 6779,254;70,87523
1015,60; 4976,933;  260,471; 6820,254;71,89966
1016,15; 4912,548;  219,856; 6777,408;71,56165
1016,69; 4931,702;  228,163; 6822,562;71,32627
1017,24; 4939,933;  212,394; 6819,715;71,55000
1017,79; 5013,317;  259,933; 6863,946;71,97721
1018,33; 4968,010;  216,394; 6880,638;71,30014
1018,88; 5043,240;  236,394; 6917,254;71,94952
1019,42; 5102,702;  217,010; 6946,946;72,59641
1019,97; 5058,933;  207,317; 6931,869;72,14779
1020,51; 5145,856;  254,087; 6983,792;72,68920
1021,06; 5077,933;  206,471; 6926,792;72,48852
1021,61; 5052,394;  188,933; 6906,715;72,39683
1022,15; 5059,394;  183,471; 6878,562;72,82834
1022,70; 5078,779;  227,010; 6876,638;72,96301
1023,24; 5039,548;  213,856; 6841,254;72,81428
1023,79; 5009,394;  228,317; 6780,869;72,96511
1024,33; 4973,856;  219,702; 6723,023;73,10348
1024,88; 4957,933;  231,471; 6608,562;74,11627
1025,42; 4883,779;  233,010; 6528,100;73,87931
1025,97; 4820,010;  220,471; 6481,100;73,46768
1026,51; 4724,933;  186,625; 6314,254;74,06303
1027,06; 4720,240;  209,548; 6251,100;74,66115
1027,60; 4602,856;  226,471; 6163,023;73,71930
1028,15; 4611,856;  240,087; 6059,946;75,11812
1028,69; 4507,471;  197,240; 5920,562;75,30996
1029,24; 4451,087;  221,317; 5901,177;74,46961
1029,78; 4381,933;  202,548; 5790,715;74,78990
1030,33; 4264,240;  193,625; 5668,254;74,35418
1030,87; 4262,317;  210,010; 5598,023;75,20968
1031,42; 4172,856;  195,087; 5524,254;74,64148
1031,96; 4160,394;  224,779; 5448,792;75,33701
1032,51; 4087,779;  207,087; 5353,023;75,41275
1033,05; 4066,394;  218,087; 5307,100;75,61992
1033,60; 3970,163;  184,548; 5169,792;75,93641
1034,14; 3931,625;  210,471; 5137,408;75,52673
1034,69; 3880,779;  212,702; 5090,023;75,20680
1035,23; 3839,702;  198,779; 5015,331;75,59190
1035,77; 3756,856;  198,548; 4943,562;74,99047
1036,32; 3685,163;  186,240; 4832,100;75,31272
1036,86; 3716,317;  218,702; 4793,638;76,45167
1037,41; 3631,702;  220,702; 4727,254;75,68980
1037,95; 3563,779;  190,163; 4612,408;76,28741
1038,50; 3526,317;  200,394; 4609,562;75,43200
1039,04; 3527,010;  224,240; 4565,638;76,07617
1039,58; 3431,240;  183,702; 4440,562;76,28954
1040,13; 3386,240;  204,702; 4391,562;75,98866
1040,67; 3388,548;  239,240; 4383,177;75,99797
1041,21; 3350,779;  227,471; 4300,177;76,68876
1041,76; 3293,394;  196,779; 4221,408;76,94164
1042,30; 3259,471;  211,163; 4185,100;76,70751
1042,85; 3185,163;  205,163; 4093,638;76,63673
1043,39; 3130,548;  211,317; 4014,485;76,75788
1043,93; 3133,933;  227,471; 3991,946;77,20762
1044,48; 3081,240;  213,856; 3927,485;77,21247
1045,02; 3053,779;  205,625; 3871,638;77,69076
1045,56; 3050,933;  234,240; 3864,408;77,59125
1046,11; 2992,856;  207,856; 3784,100;77,87499
1046,65; 2949,240;  221,702; 3705,254;78,29763
1047,19; 2931,933;  207,933; 3653,562;79,05669
1047,74; 2883,010;  192,856; 3590,638;79,17381
1048,28; 2855,087;  216,933; 3554,408;79,04640
1048,82; 2831,163;  240,087; 3521,408;78,96444
1049,37; 2797,856;  227,856; 3472,177;79,21534
1049,91; 2747,779;  225,317; 3429,100;78,73385
1050,45; 2739,317;  235,240; 3373,792;79,78447
1050,99; 2709,702;  222,317; 3323,638;80,20403
1051,54; 2676,163;  206,010; 3256,177;80,98421
1052,08; 2648,471;  243,240; 3236,023;80,36771
1052,62; 2602,240;  233,163; 3212,485;79,51734
1053,16; 2553,625;  213,010; 3153,485;79,59991
1053,71; 2545,240;  217,163; 3094,023;80,92424
1054,25; 2511,471;  228,856; 3051,638;80,86401
1054,79; 2473,240;  232,010; 3029,638;80,11180
1055,33; 2401,548;  182,548; 2962,177;79,83080
1055,88; 2400,702;  229,394; 2943,023;80,01491
1056,42; 2380,779;  233,163; 2932,331;79,56585
1056,96; 2356,702;  235,856; 2842,254;81,37077
1057,50; 2318,779;  222,933; 2837,254;80,16789
1058,05; 2248,471;  218,779; 2793,562;78,82965
1058,59; 2262,010;  250,394; 2746,254;80,59810
1059,13; 2181,856;  203,548; 2659,792;80,54198
1059,67; 2196,856;  229,779; 2629,946;81,95583
1060,21; 2123,010;  223,856; 2607,023;79,69033
1060,76; 2131,471;  230,779; 2567,408;81,34336
1061,30; 2099,856;  251,010; 2541,408;80,72161
1061,84; 2078,779;  221,779; 2478,254;82,29650
1062,38; 2020,548;  211,779; 2426,869;81,65668
1062,92; 2035,933;  252,471; 2455,638;80,94989
1063,46; 1969,394;  238,702; 2404,792;79,89936
1064,01; 1946,471;  225,702; 2381,023;79,83818
1064,55; 1939,240;  231,779; 2324,408;81,59409
1065,09; 1880,625;  203,933; 2303,177;79,87124
1065,63; 1915,933;  259,933; 2301,408;81,11782
1066,17; 1886,702;  257,856; 2265,485;81,13283
1066,71; 1859,394;  247,010; 2241,100;80,85815
1067,25; 1824,548;  217,087; 2177,408;81,99991
1067,80; 1808,087;  248,548; 2184,177;80,57012
1068,34; 1814,240;  252,856; 2149,792;82,31085
1068,88; 1753,548;  226,087; 2092,254;81,85019
1069,42; 1776,625;  253,548; 2100,408;82,46847
1069,96; 1702,702;  225,625; 2046,638;81,11291
1070,50; 1730,471;  257,779; 2045,254;82,38953
1071,04; 1660,856;  214,010; 1980,562;81,90227
1071,58; 1662,471;  221,163; 1952,408;83,25271
1072,12; 1647,394;  239,163; 1941,869;82,70547
1072,66; 1633,240;  226,933; 1951,177;81,56082
1073,21; 1623,856;  240,163; 1947,946;81,02274
1073,75; 1620,317;  227,317; 1904,946;83,03386
1074,29; 1571,010;  247,933; 1861,331;82,00561
1074,83; 1570,010;  248,856; 1857,331;82,13705
1075,37; 1568,702;  249,548; 1841,638;82,85672
1075,91; 1534,317;  251,010; 1813,715;82,12088
1076,45; 1504,625;  235,625; 1789,869;81,64740
1076,99; 1486,856;  244,625; 1763,946;81,76222
1077,53; 1455,087;  229,779; 1720,715;82,18376
1078,07; 1464,625;  234,087; 1738,638;81,78770
1078,61; 1437,471;  236,010; 1687,792;82,75767
1079,15; 1427,317;  230,702; 1680,946;82,51130
1079,69; 1398,702;  231,317; 1660,562;81,67846
1080,23; 1404,163;  250,779; 1638,562;83,10989
1080,77; 1431,087;  277,933; 1655,177;83,72907
1081,31; 1359,856;  223,317; 1575,177;84,07223
1081,85; 1376,087;  253,087; 1587,946;84,12870
1082,39; 1334,856;  228,010; 1561,638;82,99507
1082,93; 1336,010;  244,625; 1558,331;83,07679
1083,47; 1289,548;  218,933; 1495,485;83,86775
1084,01; 1321,317;  253,856; 1518,177;84,42962
1084,55; 1272,779;  235,087; 1476,792;83,56990
1085,09; 1286,548;  253,625; 1495,100;83,20128
1085,63; 1271,933;  237,087; 1444,792;85,68694
1086,17; 1246,625;  227,163; 1443,715;83,79926
1086,71; 1217,010;  230,240; 1414,331;83,33563
1087,24; 1258,779;  260,394; 1423,638;85,82760
1087,78; 1231,548;  248,163; 1414,408;84,32064
1088,32; 1182,856;  220,163; 1367,331;83,91908
1088,86; 1211,933;  253,394; 1386,946;84,56061
1089,40; 1177,779;  238,471; 1338,408;85,39654
1089,94; 1134,394;  221,087; 1311,562;83,75320
1090,48; 1162,702;  244,010; 1317,562;85,57502
1091,02; 1150,625;  247,240; 1305,792;85,34155
1091,56; 1124,010;  239,087; 1292,869;83,97586
1092,10; 1093,548;  218,471; 1240,792;85,59707
1092,63; 1111,240;  258,471; 1270,100;84,29665
1093,17; 1087,087;  247,856; 1250,946;83,66452
1093,71; 1064,625;  229,240; 1210,792;85,10855
1094,25; 1066,779;  253,010; 1244,177;82,10211
1094,79; 1037,471;  237,471; 1191,331;83,86978
1095,33; 1039,702;  250,779; 1192,946;83,73492
1095,87; 1032,394;  231,394; 1167,638;85,55460
1096,40;  993,933;  220,163; 1142,485;83,89369
1096,94; 1008,163;  242,394; 1159,792;83,47186
1097,48;  999,779;  243,856; 1143,254;84,04766
1098,02;  982,394;  233,779; 1105,562;85,87179
1098,56;  938,087;  216,779; 1073,562;84,18794
1099,10;  943,702;  214,087; 1059,485;86,30436
1099,63;  929,625;  221,625; 1069,331;83,51954
1100,17;  950,087;  247,779; 1086,408;83,74476
1100,71;  951,394;  265,010; 1090,100;83,18902

