
Integration time [ms]: 120,000
Averaging Nr. [scans]: 13
Smoothing Nr. [pixels]: 0
Data measured with spectrometer [name]: 2009305U1
Wave   ;Sample   ;Dark     ;Reference;Reflectance
[nm]   ;[counts] ;[counts] ;[counts] ;[%]

 175,72;  209,623;  196,668;  197,919;1035,59116
 176,32;  226,871;  224,824;  212,280; 0,00000
 176,92;  251,336;  241,130;  242,571;708,45307
 177,52;  255,035;  242,515;  254,327;105,98881
 178,12;  225,932;  234,286;  223,116; 0,00000
 178,72;  254,757;  259,440;  254,402; 0,00000
 179,32;  250,306;  246,671;  235,386; 0,00000
 179,92;  256,792;  234,900;  248,482;161,17981
 180,52;  244,325;  240,436;  237,089; 0,00000
 181,12;  256,631;  253,977;  245,596; 0,00000
 181,73;  268,141;  269,515;  273,796;-32,10443
 182,33;  341,932;  335,668;  334,695; 0,00000
 182,93;  272,390;  254,130;  265,674;158,17992
 183,53;  227,923;  236,441;  221,261; 0,00000
 184,13;  228,677;  237,671;  221,796; 0,00000
 184,73;  271,505;  262,518;  271,534;99,68397
 185,33;  266,527;  229,840;  336,352;34,44342
 185,93;  269,363;  230,227;  351,774;32,19873
 186,53;  281,054;  244,918;  379,899;26,77113
 187,13;  312,411;  274,916;  403,937;29,06131
 187,73;  276,441;  235,688;  356,935;33,61180
 188,33;  277,260;  241,766;  349,541;32,93330
 188,93;  272,717;  249,615;  369,880;19,20911
 189,53;  289,177;  249,772;  385,703;28,98952
 190,13;  315,810;  275,006;  414,463;29,25861
 190,73;  259,685;  214,465;  357,542;31,60487
 191,34;  292,441;  255,616;  380,255;29,54478
 191,94;  269,070;  233,998;  358,715;28,12144
 192,54;  294,305;  238,761;  386,808;37,51819
 193,14;  293,315;  254,609;  383,084;30,12777
 193,74;  275,664;  248,378;  396,443;18,42839
 194,34;  287,412;  252,224;  387,868;25,94202
 194,94;  251,132;  212,609;  342,507;29,65661
 195,54;  236,177;  192,610;  327,986;32,18238
 196,14;  257,072;  222,454;  364,863;24,30866
 196,74;  256,387;  216,764;  341,279;31,82240
 197,34;  238,991;  194,760;  337,313;31,02777
 197,94;  271,109;  225,608;  364,072;32,86134
 198,54;  276,353;  230,300;  376,969;31,39911
 199,14;  246,599;  205,914;  371,989;24,49785
 199,74;  243,397;  202,991;  371,028;24,04628
 200,34;  239,295;  185,529;  381,448;27,44286
 200,94;  282,242;  230,838;  425,835;26,36164
 201,54;  262,924;  210,991;  424,829;24,28601
 202,14;  289,939;  228,221;  464,972;26,06868
 202,74;  265,797;  209,452;  467,115;21,86779
 203,34;  259,178;  188,758;  473,666;24,71659
 203,94;  231,470;  173,913;  479,547;18,83197
 204,54;  294,407;  230,608;  560,734;19,32558
 205,14;  269,187;  194,529;  577,711;19,48382
 205,74;  318,504;  234,297;  662,667;19,65753
 206,34;  289,498;  194,990;  656,194;20,49164
 206,94;  308,725;  206,682;  723,812;19,73253
 207,54;  297,821;  180,990;  761,512;20,12523
 208,14;  309,154;  194,759;  845,961;17,56670
 208,74;  344,049;  208,529;  911,260;19,28478
 209,34;  340,970;  205,914;  978,815;17,47401
 209,94;  381,655;  213,375; 1077,076;19,48353
 210,54;  377,876;  203,989; 1184,084;17,74186
 211,14;  409,596;  215,606; 1280,692;18,21355
 211,73;  398,934;  202,914; 1388,013;16,54035
 212,33;  423,751;  218,530; 1506,797;15,93003
 212,93;  452,375;  198,914; 1587,260;18,25635
 213,53;  445,232;  178,298; 1618,606;18,53313
 214,13;  466,963;  200,450; 1689,169;17,90214
 214,73;  462,785;  178,451; 1740,510;18,20247
 215,33;  445,424;  160,837; 1762,383;17,76952
 215,93;  513,777;  204,605; 1872,417;18,53757
 216,53;  488,905;  159,606; 1926,444;18,63777
 217,13;  570,725;  214,605; 2158,920;18,31598
 217,73;  584,912;  190,528; 2304,263;18,65818
 218,33;  605,268;  152,219; 2518,725;19,14424
 218,93;  673,236;  182,832; 2769,091;18,96189
 219,53;  734,375;  193,450; 3043,686;18,97825
 220,13;  763,289;  158,449; 3363,047;18,87411
 220,73;  833,636;  180,221; 3703,613;18,54505
 221,32;  892,357;  184,529; 4093,106;18,10960
 221,92;  985,174;  183,065; 4469,423;18,71307
 222,52; 1030,973;  183,066; 4860,098;18,12918
 223,12; 1108,523;  181,835; 5272,367;18,20415
 223,72; 1182,860;  191,912; 5711,636;17,95286
 224,32; 1215,001;  191,681; 6080,154;17,37836
 224,92; 1249,794;  176,296; 6396,211;17,25904
 225,52; 1309,601;  194,375; 6776,081;16,94433
 226,12; 1350,054;  184,066; 7115,680;16,82130
 226,72; 1356,733;  163,836; 7436,883;16,40161
 227,31; 1378,372;  150,836; 7843,941;15,95631
 227,91; 1481,581;  191,529; 8225,304;16,05786
 228,51; 1494,158;  176,068; 8674,641;15,50954
 229,11; 1521,825;  180,451; 9046,663;15,12905
 229,71; 1545,600;  178,683; 9391,280;14,83748
 230,31; 1580,093;  167,758; 9800,650;14,66159
 230,91; 1607,663;  165,146;10128,599;14,47808
 231,51; 1632,705;  167,066;10384,244;14,34485
 232,10; 1645,937;  162,988;10757,667;13,99711
 232,70; 1642,874;  186,608;11009,483;13,45544
 233,30; 1722,073;  196,066;11238,918;13,81896
 233,90; 1662,482;  171,374;11352,438;13,33601
 234,50; 1652,371;  174,451;11517,427;13,02939
 235,10; 1637,794;  156,450;11505,442;13,05265
 235,70; 1666,141;  193,760;11579,833;12,93142
 236,29; 1621,810;  192,068;11503,674;12,63961
 236,89; 1565,061;  152,992;11438,703;12,51201
 237,49; 1568,181;  180,913;11287,940;12,49001
 238,09; 1522,575;  180,451;10997,578;12,40739
 238,69; 1496,332;  202,146;10858,055;12,14524
 239,29; 1431,659;  166,682;10503,772;12,23726
 239,89; 1399,729;  180,915;10194,569;12,17153
 240,48; 1338,906;  154,451; 9754,405;12,33813
 241,08; 1299,057;  170,529; 9405,870;12,21967
 241,68; 1284,429;  194,836; 9140,318;12,18038
 242,28; 1242,012;  174,220; 8763,467;12,43173
 242,88; 1254,530;  208,065; 8530,515;12,57400
 243,48; 1236,460;  199,374; 8222,440;12,92630
 244,07; 1192,528;  185,452; 8005,746;12,87773
 244,67; 1231,751;  194,220; 7827,115;13,59288
 245,27; 1227,626;  201,683; 7655,244;13,76446
 245,87; 1259,538;  198,988; 7542,632;14,44173
 246,47; 1299,141;  191,299; 7517,879;15,12086
 247,06; 1302,786;  176,221; 7552,186;15,27347
 247,66; 1357,254;  173,067; 7597,404;15,95008
 248,26; 1429,491;  204,375; 7721,867;16,29687
 248,86; 1516,815;  196,068; 7946,032;17,04197
 249,46; 1571,060;  150,220; 8117,436;17,83359
 250,05; 1735,463;  205,605; 8529,406;18,37932
 250,65; 1791,633;  158,684; 8867,977;18,74951
 251,25; 1949,486;  180,529; 9300,687;19,39613
 251,85; 2118,034;  183,915; 9897,809;19,91086
 252,44; 2282,150;  143,760;10426,548;20,79582
 253,04; 2490,713;  193,837;11157,152;20,95057
 253,64; 2660,076;  144,299;11872,353;21,45093
 254,24; 2967,280;  199,990;12750,291;22,04959
 254,84; 3194,753;  178,374;13710,898;22,28985
 255,43; 3447,004;  177,606;14641,288;22,60419
 256,03; 3741,164;  173,068;15619,314;23,10008
 256,63; 4074,700;  187,607;16570,915;23,72593
 257,23; 4306,862;  165,530;17440,270;23,97334
 257,82; 4597,517;  185,685;18410,923;24,20727
 258,42; 4801,085;  140,301;19238,014;24,40494
 259,02; 5151,811;  195,529;20100,066;24,90026
 259,62; 5318,443;  164,301;20780,805;25,00008
 260,21; 5534,330;  185,760;21389,750;25,22436
 260,81; 5669,765;  179,297;21840,834;25,34662
 261,41; 5779,193;  165,070;22271,751;25,39559
 262,01; 6045,815;  205,071;22747,222;25,91033
 262,60; 6102,555;  153,146;23059,270;25,97301
 263,20; 6243,570;  175,530;23358,004;26,17512
 263,80; 6270,375;  188,609;23556,520;26,02614
 264,40; 6325,423;  157,224;23717,182;26,18086
 264,99; 6411,671;  188,609;23856,252;26,29354
 265,59; 6418,160;  163,226;24016,091;26,22299
 266,19; 6459,866;  174,224;24242,712;26,11565
 266,78; 6540,128;  208,533;24397,709;26,17532
 267,38; 6523,803;  179,149;24300,377;26,30320
 267,98; 6450,033;  173,764;24345,555;25,96526
 268,58; 6420,212;  178,072;24350,973;25,82288
 269,17; 6414,216;  172,919;24355,377;25,80919
 269,77; 6332,951;  194,454;24203,591;25,56734
 270,37; 6268,923;  161,455;24082,628;25,53164
 270,96; 6222,644;  221,993;24011,182;25,22428
 271,56; 6097,570;  169,607;23734,204;25,15622
 272,16; 6018,747;  176,301;23539,069;25,00751
 272,75; 5934,063;  176,916;23407,117;24,78303
 273,35; 5907,066;  184,069;23453,806;24,59416
 273,95; 5858,092;  184,839;23409,924;24,42726
 274,54; 5791,177;  164,144;23390,628;24,22680
 275,14; 5865,868;  201,916;23686,758;24,11748
 275,74; 5784,749;  154,454;23785,213;23,82613
 276,33; 5868,102;  203,223;24173,832;23,63260
 276,93; 5918,666;  186,451;24621,375;23,45910
 277,53; 5982,686;  189,606;25047,943;23,30437
 278,12; 6048,544;  166,145;25551,471;23,17244
 278,72; 6252,879;  213,529;26164,319;23,27232
 279,32; 6304,226;  179,453;26731,464;23,06708
 279,91; 6445,275;  159,760;27416,178;23,06068
 280,51; 6551,718;  171,452;27950,740;22,96771
 281,11; 6687,607;  179,991;28722,006;22,80013
 281,70; 6741,797;  161,530;29076,084;22,75763
 282,30; 6862,032;  172,992;29653,281;22,68987
 282,90; 6988,260;  175,453;30050,521;22,80432
 283,49; 7103,711;  201,377;30707,229;22,62626
 284,09; 7221,762;  206,761;31099,989;22,70725
 284,69; 7334,040;  199,299;31383,821;22,87911
 285,28; 7446,964;  196,684;31825,797;22,92281
 285,88; 7555,821;  220,762;32019,926;23,06683
 286,47; 7549,076;  181,223;32128,176;23,06277
 287,07; 7651,350;  214,837;32257,888;23,20788
 287,67; 7717,306;  200,143;32393,594;23,34997
 288,26; 7810,345;  177,683;32269,677;23,78369
 288,86; 7872,381;  180,684;32334,209;23,92178
 289,46; 8015,103;  193,376;32530,562;24,18803
 290,05; 8158,918;  170,375;32505,111;24,70576
 290,65; 8332,498;  184,223;32648,485;25,09922
 291,24; 8453,799;  193,068;32961,560;25,20937
 291,84; 8613,546;  197,530;33029,454;25,63364
 292,44; 8772,423;  183,220;33101,900;26,09219
 293,03; 8967,542;  239,145;33291,127;26,40809
 293,63; 9004,130;  183,300;33470,733;26,49898
 294,22; 9186,172;  192,991;33683,054;26,85328
 294,82; 9246,917;  174,532;33575,594;27,16197
 295,41; 9192,874;  161,376;33298,468;27,25495
 296,01; 9274,627;  224,685;33327,004;27,33930
 296,61; 9114,666;  193,683;32993,397;27,19836
 297,20; 9096,741;  195,301;32730,397;27,35950
 297,80; 9077,150;  193,682;32568,733;27,43924
 298,39; 8880,727;  170,992;32250,732;27,15027
 298,99; 8838,774;  197,839;32006,740;27,16515
 299,58; 8709,645;  196,528;31893,076;26,85818
 300,18; 8678,850;  210,606;31673,312;26,91518
 300,78; 8530,211;  177,375;31300,769;26,83781
 301,37; 8442,061;  187,532;31326,148;26,50898
 301,97; 8413,127;  195,068;31357,466;26,37171
 302,56; 8277,169;  183,530;31272,571;26,03374
 303,16; 8176,884;  169,761;31119,621;25,87127
 303,75; 8147,077;  177,067;31117,546;25,75917
 304,35; 8139,775;  173,066;31521,511;25,41341
 304,94; 8119,159;  183,299;31356,572;25,45726
 305,54; 7983,742;  206,529;31336,491;24,98305
 306,13; 7922,245;  163,912;31367,636;24,86348
 306,73; 7781,651;  175,143;31149,833;24,55717
 307,33; 7715,040;  194,374;31011,498;24,40418
 307,92; 7653,210;  186,914;31149,531;24,11391
 308,52; 7715,953;  169,608;31623,266;23,99195
 309,11; 7724,332;  181,070;32031,332;23,68352
 309,71; 7703,996;  162,840;32261,962;23,49334
 310,30; 7722,971;  169,145;32596,483;23,29462
 310,90; 7759,510;  201,606;32942,868;23,08373
 311,49; 7669,756;  185,299;33078,879;22,75355
 312,09; 7653,749;  150,529;33147,793;22,73892
 312,68; 7698,309;  223,760;33564,913;22,41839
 313,28; 7602,441;  162,837;33776,608;22,13261
 313,87; 7536,528;  155,683;33948,023;21,84177
 314,47; 7563,306;  167,916;34121,906;21,78062
 315,06; 7481,651;  166,914;34277,617;21,44411
 315,66; 7454,287;  174,606;34487,947;21,21531
 316,25; 7354,638;  146,223;34415,457;21,03465
 316,85; 7256,651;  148,452;34577,725;20,64580
 317,44; 7267,213;  178,455;34696,120;20,53661
 318,04; 7205,620;  156,300;34691,771;20,41183
 318,63; 7090,831;  148,835;34867,727;19,99487
 319,22; 7096,980;  184,069;35016,168;19,84638
 319,82; 7049,035;  173,838;34976,663;19,75471
 320,41; 6913,758;  188,146;34860,446;19,39765
 321,01; 6865,274;  191,144;35028,765;19,15782
 321,60; 6838,529;  176,299;35146,306;19,05127
 322,20; 6727,396;  155,606;35103,713;18,80442
 322,79; 6730,600;  210,529;35170,511;18,65010
 323,39; 6656,581;  169,374;35258,974;18,48755
 323,98; 6602,895;  159,606;34983,952;18,50225
 324,58; 6505,056;  164,454;34968,930;18,21778
 325,17; 6502,081;  178,607;34806,918;18,26099
 325,76; 6373,446;  190,606;34590,812;17,97326
 326,36; 6258,963;  157,836;34290,160;17,87492
 326,95; 6218,383;  191,914;33891,046;17,88316
 327,55; 6036,568;  156,453;33609,990;17,57696
 328,14; 5980,880;  168,374;33306,357;17,54031
 328,74; 5944,447;  204,146;32801,533;17,60970
 329,33; 5823,650;  185,067;32458,102;17,47150
 329,92; 5705,595;  160,301;31882,668;17,48071
 330,52; 5582,915;  172,451;31214,683;17,42936
 331,11; 5496,248;  176,376;30849,970;17,34349
 331,71; 5361,583;  169,607;30282,948;17,24145
 332,30; 5271,313;  186,683;29783,956;17,17939
 332,89; 5201,050;  225,837;29357,728;17,07824
 333,49; 5069,333;  185,914;28709,171;17,12083
 334,08; 4978,465;  176,299;28312,711;17,06744
 334,68; 4880,775;  182,915;27909,086;16,94378
 335,27; 4809,014;  184,528;27528,220;16,91244
 335,86; 4826,632;  223,838;27324,046;16,98435
 336,46; 4766,892;  190,759;27025,094;17,05328
 337,05; 4715,656;  172,607;26773,720;17,07842
 337,65; 4674,879;  161,915;26639,826;17,04426
 338,24; 4715,046;  224,298;26590,654;17,03211
 338,83; 4719,052;  208,068;26462,711;17,18166
 339,43; 4670,208;  177,069;26457,101;17,09716
 340,02; 4682,476;  178,531;26386,871;17,18516
 340,61; 4709,317;  173,837;26369,338;17,31396
 341,21; 4724,447;  203,607;26349,533;17,29080
 341,80; 4717,566;  179,915;26375,384;17,32227
 342,40; 4754,228;  171,682;26432,125;17,45038
 342,99; 4782,512;  182,067;26467,113;17,50214
 343,58; 4833,342;  175,990;26717,718;17,54728
 344,18; 4912,918;  190,836;26808,342;17,74051
 344,77; 4974,550;  162,992;27092,035;17,86754
 345,36; 5014,460;  157,453;27385,200;17,83845
 345,96; 5172,011;  203,606;27672,891;18,08713
 346,55; 5184,766;  164,143;27940,079;18,07544
 347,14; 5280,385;  155,297;28302,500;18,20816
 347,74; 5436,654;  140,142;28698,886;18,54603
 348,33; 5582,942;  175,526;29329,262;18,54793
 348,92; 5750,463;  185,218;29983,524;18,67638
 349,52; 5858,270;  147,526;30445,585;18,84855
 350,11; 5935,128;  173,454;30582,180;18,94744
 350,70; 6021,622;  173,452;30809,809;19,08898
 351,29; 6015,537;  148,764;30507,921;19,32456
 351,89; 6029,921;  174,685;30478,746;19,32162
 352,48; 6074,234;  155,299;30497,665;19,50716
 353,07; 6112,327;  182,066;30396,277;19,62739
 353,67; 6160,604;  191,756;30353,888;19,78921
 354,26; 6134,796;  170,990;30103,932;19,92389
 354,85; 6181,346;  185,067;29973,792;20,12936
 355,45; 6175,244;  155,684;29816,742;20,29449
 356,04; 6211,211;  174,759;29768,055;20,39804
 356,63; 6243,415;  201,145;29409,997;20,68644
 357,22; 6264,459;  175,917;29375,176;20,85170
 357,82; 6231,219;  193,224;29208,614;20,80963
 358,41; 6288,926;  201,760;29108,120;21,05822
 359,00; 6261,466;  158,300;28913,918;21,22426
 359,60; 6306,481;  180,221;28724,683;21,46217
 360,19; 6314,970;  176,605;28638,178;21,56720
 360,78; 6367,364;  190,222;28497,576;21,82169
 361,37; 6359,778;  174,761;28242,538;22,03601
 361,97; 6363,761;  186,530;28190,006;22,05880
 362,56; 6331,303;  169,531;27892,787;22,22600
 363,15; 6396,894;  213,453;27606,375;22,57313
 363,74; 6337,824;  174,685;27373,531;22,65956
 364,34; 6307,564;  195,992;26912,293;22,87581
 364,93; 6242,366;  163,069;26430,374;23,14397
 365,52; 6190,325;  149,376;26172,508;23,21376
 366,11; 6217,108;  171,146;25882,043;23,51517
 366,71; 6141,903;  163,377;25437,168;23,65505
 367,30; 6147,792;  170,607;25110,181;23,96667
 367,89; 6145,598;  198,990;24925,860;24,04917
 368,48; 6087,421;  198,224;24640,300;24,09450
 369,07; 6001,852;  179,760;24120,963;24,31829
 369,67; 6035,437;  203,454;23868,702;24,64366
 370,26; 5991,988;  171,452;23599,578;24,84422
 370,85; 5968,914;  179,530;23323,075;25,01511
 371,44; 5930,909;  176,145;23107,871;25,09521
 372,03; 5913,898;  152,223;22932,418;25,29247
 372,63; 5876,132;  152,684;22571,978;25,52912
 373,22; 5892,945;  166,376;22343,589;25,82186
 373,81; 5812,425;  148,376;22009,643;25,90906
 374,40; 5829,522;  165,913;21699,790;26,30093
 374,99; 5809,761;  169,761;21518,751;26,41811
 375,59; 5759,792;  162,528;21175,243;26,63751
 376,18; 5795,077;  193,761;21119,644;26,76741
 376,77; 5768,997;  186,299;20977,832;26,85082
 377,36; 5831,834;  195,838;20847,778;27,29040
 377,95; 5757,577;  181,146;20525,705;27,40994
 378,55; 5774,351;  157,913;20341,534;27,82671
 379,14; 5815,192;  185,299;20317,114;27,96515
 379,73; 5766,174;  175,684;20230,320;27,87630
 380,32; 5876,326;  185,991;20308,823;28,27800
 380,91; 5827,251;  175,685;20112,135;28,34791
 381,50; 5877,870;  189,915;20145,055;28,50371
 382,10; 5915,941;  166,530;19978,130;29,02043
 382,69; 5929,035;  153,376;19923,509;29,21406
 383,28; 5974,656;  190,761;19875,842;29,38212
 383,87; 5974,603;  170,377;19769,746;29,61435
 384,46; 6010,074;  162,070;19724,738;29,89369
 385,05; 6072,690;  193,223;19732,931;30,08984
 385,64; 6069,108;  178,069;19695,581;30,18335
 386,24; 6097,861;  149,609;19626,893;30,53943
 386,83; 6178,203;  192,455;19630,827;30,79346
 387,42; 6233,551;  188,761;19800,427;30,82242
 388,01; 6336,175;  187,379;19979,741;31,06651
 388,60; 6486,732;  175,378;20220,112;31,48635
 389,19; 6576,626;  156,457;20416,341;31,68907
 389,78; 6671,890;  165,765;20729,299;31,63914
 390,37; 6893,034;  222,994;21142,177;31,88480
 390,96; 6960,291;  180,763;21286,326;32,12199
 391,56; 7025,426;  176,227;21344,508;32,35595
 392,15; 7158,249;  160,072;21679,720;32,51994
 392,74; 7228,215;  151,460;21795,507;32,69608
 393,33; 7421,253;  166,227;22126,116;33,03762
 393,92; 7574,325;  173,461;22513,333;33,12850
 394,51; 7650,144;  149,304;22716,088;33,23841
 395,10; 7841,130;  192,848;22911,234;33,66561
 395,69; 7888,505;  176,924;23003,980;33,78264
 396,28; 8004,540;  185,464;23176,013;34,00996
 396,87; 8017,727;  192,620;23343,392;33,80063
 397,46; 8119,820;  181,314;23335,340;34,28564
 398,06; 8224,229;  189,701;23615,542;34,29771
 398,65; 8268,442;  177,244;23677,260;34,43061
 399,24; 8397,967;  188,014;23858,432;34,68444
 399,83; 8406,217;  164,329;23835,982;34,81754
 400,42; 8531,035;  201,796;23985,677;35,02052
 401,01; 8576,958;  182,573;24029,218;35,20153
 401,60; 8658,415;  177,275;24210,515;35,28921
 402,19; 8671,129;  196,513;24101,561;35,45116
 402,78; 8722,281;  200,602;24087,601;35,67497
 403,37; 8680,035;  187,228;23877,105;35,84994
 403,96; 8649,283;  182,241;23721,090;35,97050
 404,55; 8650,268;  167,487;23720,600;36,01554
 405,14; 8613,757;  167,808;23513,307;36,17806
 405,73; 8658,314;  183,285;23436,720;36,44635
 406,32; 8646,707;  190,910;23384,544;36,45740
 406,91; 8586,829;  180,307;23126,231;36,63623
 407,50; 8627,132;  178,159;22981,523;37,05143
 408,09; 8504,495;  155,241;22707,575;37,02168
 408,68; 8483,401;  181,013;22565,971;37,08914
 409,27; 8445,153;  175,086;22354,826;37,28658
 409,86; 8457,852;  170,231;22237,205;37,55667
 410,45; 8474,834;  200,684;22171,617;37,65953
 411,04; 8438,631;  197,445;22092,777;37,63901
 411,63; 8377,095;  175,204;21749,606;38,01677
 412,22; 8395,096;  201,425;21608,780;38,27503
 412,81; 8310,061;  192,883;21395,680;38,28352
 413,40; 8209,796;  204,187;21034,618;38,43228
 413,99; 8127,836;  234,803;20717,708;38,53473
 414,58; 7965,465;  160,726;20274,844;38,80230
 415,17; 7915,936;  175,114;20101,949;38,84622
 415,76; 7832,803;  169,195;19974,707;38,69432
 416,35; 7797,001;  159,116;19776,073;38,93512
 416,94; 7833,530;  199,502;19821,526;38,90541
 417,53; 7984,505;  172,960;20056,994;39,28551
 418,12; 8013,980;  166,036;20023,822;39,52074
 418,71; 8197,014;  190,494;20445,675;39,52826
 419,30; 8249,478;  177,189;20578,386;39,56772
 419,89; 8355,558;  176,573;20770,792;39,71495
 420,48; 8478,608;  195,110;21032,068;39,75388
 421,07; 8531,378;  185,340;21040,253;40,01953
 421,66; 8528,921;  165,876;21069,935;40,00680
 422,25; 8607,338;  172,718;21036,735;40,42663
 422,84; 8603,882;  208,487;21049,362;40,28332
 423,43; 8540,839;  171,489;20839,926;40,49339
 424,02; 8457,301;  206,026;20496,880;40,66499
 424,60; 8323,827;  165,714;20092,893;40,93963
 425,19; 8223,659;  185,793;19869,157;40,83583
 425,78; 8243,710;  196,485;19774,962;41,10241
 426,37; 8192,831;  189,715;19661,859;41,10033
 426,96; 8138,168;  189,638;19529,359;41,09951
 427,55; 8167,769;  179,020;19339,603;41,69366
 428,14; 8057,579;  167,788;19155,101;41,55296
 428,73; 7994,433;  186,021;19002,055;41,49872
 429,32; 8017,214;  191,715;18977,775;41,65588
 429,91; 8066,882;  212,482;18966,112;41,88203
 430,50; 7959,585;  195,711;18786,512;41,76191
 431,08; 7911,926;  200,864;18610,124;41,88687
 431,67; 7936,106;  233,863;18580,766;41,98116
 432,26; 7884,201;  230,939;18330,206;42,28493
 432,85; 7764,931;  244,016;18032,499;42,27969
 433,44; 7650,678;  259,014;17649,895;42,50310
 434,03; 7527,822;  264,704;17299,958;42,63581
 434,62; 7294,922;  220,476;16897,307;42,42081
 435,21; 7218,723;  235,708;16746,958;42,29246
 435,79; 7171,166;  230,782;16568,544;42,48063
 436,38; 7142,432;  224,164;16412,732;42,73551
 436,97; 7141,646;  220,472;16329,431;42,96475
 437,56; 7065,340;  235,930;16162,416;42,88084
 438,15; 7035,631;  218,700;16037,367;43,09422
 438,74; 7063,309;  235,776;16092,672;43,05718
 439,33; 7096,363;  219,777;16171,359;43,10912
 439,91; 7030,910;  187,314;16238,238;42,63677
 440,50; 7116,388;  236,006;16217,333;43,05263
 441,09; 7185,284;  220,312;16301,833;43,31041
 441,68; 7208,573;  214,310;16343,764;43,36329
 442,27; 7190,073;  196,464;16282,263;43,47691
 442,86; 7173,885;  183,537;16344,663;43,25409
 443,44; 7203,999;  185,307;16399,787;43,28657
 444,03; 7244,766;  234,768;16429,527;43,28560
 444,62; 7181,971;  186,844;16264,941;43,50718
 445,21; 7148,146;  202,230;16176,369;43,48226
 445,80; 7094,959;  225,535;15999,528;43,54905
 446,39; 7069,249;  250,920;15821,042;43,79111
 446,97; 6947,991;  183,225;15554,035;44,01047
 447,56; 6840,354;  181,761;15307,592;44,02134
 448,15; 6761,166;  185,994;15168,718;43,88502
 448,74; 6712,321;  195,686;14965,263;44,12201
 449,33; 6625,393;  191,608;14784,807;44,08755
 449,91; 6574,638;  191,298;14588,544;44,33723
 450,50; 6450,203;  181,375;14406,952;44,06730
 451,09; 6432,669;  191,837;14299,949;44,23577
 451,68; 6466,256;  209,682;14214,719;44,67374
 452,26; 6376,440;  197,604;14109,488;44,41409
 452,85; 6305,093;  182,989;14003,849;44,29611
 453,44; 6358,571;  201,832;14047,530;44,46680
 454,03; 6294,997;  183,680;13933,596;44,44621
 454,61; 6288,158;  175,370;13940,884;44,40654
 455,20; 6381,780;  205,139;14121,979;44,38250
 455,79; 6425,996;  204,679;14106,344;44,75232
 456,38; 6423,137;  204,752;14172,857;44,51846
 456,97; 6476,570;  183,445;14221,795;44,82810
 457,55; 6453,580;  187,213;14341,041;44,27330
 458,14; 6441,322;  207,599;14274,847;44,31373
 458,73; 6436,706;  197,751;14154,010;44,70363
 459,31; 6455,365;  215,519;14203,915;44,60731
 459,90; 6487,539;  226,750;14306,406;44,46692
 460,49; 6504,606;  273,366;14411,806;44,07304
 461,08; 6475,822;  191,133;14403,434;44,22007
 461,66; 6564,484;  192,365;14554,358;44,36793
 462,25; 6618,014;  188,517;14600,243;44,61296
 462,84; 6638,640;  218,133;14695,403;44,34888
 463,43; 6570,438;  161,130;14551,405;44,53916
 464,01; 6617,277;  195,821;14623,012;44,50940
 464,60; 6615,799;  229,977;14589,624;44,47061
 465,19; 6462,335;  165,359;14358,804;44,36538
 465,77; 6482,519;  190,281;14302,727;44,58645
 466,36; 6407,311;  206,669;14272,145;44,08412
 466,95; 6272,747;  182,899;13880,028;44,46076
 467,53; 6175,794;  179,819;13600,061;44,67859
 468,12; 6041,363;  212,434;13372,184;44,29362
 468,71; 5924,052;  196,898;13136,177;44,26177
 469,29; 5812,390;  176,972;12847,700;44,47588
 469,88; 5713,786;  179,894;12587,461;44,60094
 470,47; 5762,225;  239,969;12708,011;44,29128
 471,06; 5762,671;  196,585;12693,693;44,53899
 471,64; 5793,438;  203,278;12803,602;44,36521
 472,23; 5778,780;  165,274;12796,077;44,44299
 472,81; 5810,965;  172,430;12890,420;44,33511
 473,40; 5885,300;  179,197;13041,307;44,36367
 473,99; 6002,661;  265,197;13223,941;44,27485
 474,57; 5964,162;  172,889;13406,317;43,76245
 475,16; 6065,157;  187,660;13512,513;44,10929
 475,75; 6116,711;  200,888;13632,333;44,04457
 476,33; 6148,729;  219,733;13698,089;43,98902
 476,92; 6151,487;  211,812;13770,265;43,80791
 477,51; 6183,663;  201,272;13807,479;43,96810
 478,09; 6200,924;  193,810;13841,364;44,01604
 478,68; 6177,904;  204,964;13846,695;43,78433
 479,27; 6222,438;  216,888;13833,967;44,10307
 479,85; 6172,793;  204,195;13767,446;44,00566
 480,44; 6205,633;  163,425;13890,035;44,01821
 481,02; 6748,298;  199,193;15348,965;43,22907
 481,61; 7605,755;  219,270;17381,884;43,03823
 482,20; 8136,893;  201,346;18466,821;43,44561
 482,78; 8416,760;  225,040;19260,365;43,03430
 483,37; 8679,319;  221,575;19787,966;43,22587
 483,95; 8787,357;  238,421;20101,597;43,03912
 484,54; 8868,553;  253,270;20269,915;43,04059
 485,13; 8827,493;  215,035;20216,120;43,05995
 485,71; 8671,974;  190,959;20019,097;42,77263
 486,30; 8583,003;  226,420;19680,289;42,95589
 486,88; 8429,790;  268,420;19317,698;42,84346
 487,47; 8166,423;  232,958;18612,877;43,16376
 488,05; 7805,213;  227,419;17775,668;43,18262
 488,64; 7231,592;  227,263;16521,135;42,98751
 489,23; 6456,201;  242,418;14695,116;42,99393
 489,81; 5535,195;  230,033;12503,314;43,22529
 490,40; 5241,175;  203,648;11907,484;43,04167
 490,98; 5131,803;  173,955;11627,382;43,28703
 491,57; 5062,478;  215,187;11548,864;42,76891
 492,15; 5029,547;  189,647;11515,648;42,73264
 492,74; 4967,150;  199,957;11363,542;42,70307
 493,32; 4926,277;  218,340;11287,171;42,53328
 493,91; 4884,006;  195,570;11139,766;42,83947
 494,50; 4890,217;  207,721;11189,107;42,64030
 495,08; 4842,922;  183,798;11094,897;42,70077
 495,67; 4854,342;  208,339;11096,644;42,66966
 496,25; 4742,209;  170,184;10988,928;42,26022
 496,84; 4772,766;  167,724;10969,404;42,63264
 497,42; 4726,415;  162,107;10888,278;42,55301
 498,01; 4692,902;  198,262;10888,488;42,04439
 498,59; 4641,079;  171,183;10805,786;42,03162
 499,18; 4641,022;  163,647;10772,169;42,20546
 499,76; 4600,957;  200,338;10714,168;41,85553
 500,35; 4509,925;  190,951;10529,303;41,77623
 500,93; 4494,738;  178,260;10438,289;42,07082
 501,52; 4463,023;  177,337;10374,623;42,02771
 502,10; 4421,082;  191,489;10378,023;41,52142
 502,69; 4349,353;  182,180;10226,592;41,48748
 503,27; 4292,970;  170,567;10017,943;41,86296
 503,86; 4243,750;  175,719; 9986,836;41,46348
 504,44; 4183,376;  162,410; 9862,597;41,45246
 505,03; 4055,326;  149,257; 9629,414;41,20258
 505,61; 4026,776;  163,718; 9546,523;41,17167
 506,19; 3962,625;  182,257; 9366,059;41,16344
 506,78; 3869,463;  152,716; 9184,790;41,15053
 507,36; 3791,363;  167,795; 9072,185;40,69417
 507,95; 3744,575;  168,408; 8850,302;41,19109
 508,53; 3687,996;  164,332; 8761,887;40,98449
 509,12; 3601,929;  177,870; 8629,949;40,51144
 509,70; 3563,411;  180,715; 8488,348;40,71792
 510,29; 3496,480;  188,407; 8328,108;40,64122
 510,87; 3374,866;  164,409; 8144,099;40,23285
 511,46; 3331,138;  159,485; 7966,028;40,62813
 512,04; 3229,163;  180,638; 7824,201;39,88355
 512,62; 3191,244;  172,716; 7724,681;39,97010
 513,21; 3092,773;  158,868; 7536,098;39,76973
 513,79; 3086,327;  166,942; 7407,618;40,31923
 514,38; 2975,737;  144,405; 7251,704;39,83696
 514,96; 2977,744;  194,866; 7217,206;39,62893
 515,54; 2902,861;  155,481; 7062,844;39,77465
 516,13; 2856,087;  179,096; 6917,948;39,72473
 516,71; 2824,595;  174,403; 6831,734;39,80863
 517,30; 2741,191;  155,325; 6691,551;39,56206
 517,88; 2729,721;  185,787; 6621,965;39,52554
 518,46; 2634,391;  153,401; 6497,999;39,10398
 519,05; 2653,426;  160,478; 6477,664;39,46296
 519,63; 2624,433;  181,324; 6415,620;39,18821
 520,22; 2597,590;  182,092; 6337,987;39,23879
 520,80; 2559,018;  174,476; 6226,822;39,39864
 521,38; 2546,520;  195,631; 6241,450;38,88453
 521,97; 2489,438;  160,552; 6210,102;38,49684
 522,55; 2534,050;  182,475; 6213,881;38,98884
 523,13; 2477,169;  165,167; 6207,817;38,26140
 523,72; 2450,614;  162,709; 6145,874;38,23904
 524,30; 2524,095;  183,705; 6308,377;38,21251
 524,89; 2503,635;  154,244; 6317,937;38,11660
 525,47; 2556,415;  171,550; 6418,422;38,17695
 526,05; 2546,899;  147,089; 6489,573;37,83706
 526,64; 2602,131;  186,934; 6620,203;37,54230
 527,22; 2646,205;  175,397; 6752,643;37,56600
 527,80; 2702,274;  215,242; 6874,935;37,34455
 528,39; 2706,446;  171,472; 6963,659;37,32192
 528,97; 2745,896;  179,626; 7137,153;36,88480
 529,55; 2811,223;  181,090; 7292,452;36,98494
 530,14; 2903,315;  202,626; 7473,664;37,14311
 530,72; 2915,079;  171,780; 7625,729;36,80329
 531,30; 2935,974;  148,856; 7738,499;36,72265
 531,89; 2976,075;  177,010; 7827,403;36,58720
 532,47; 3015,403;  206,625; 7946,187;36,29117
 533,05; 3005,168;  203,319; 7993,435;35,96672
 533,63; 3027,427;  191,240; 8016,483;36,24408
 534,22; 3009,507;  166,163; 8045,473;36,08620
 534,80; 3050,071;  196,931; 8129,191;35,96882
 535,38; 3112,789;  268,010; 8276,247;35,52316
 535,97; 3015,562;  173,240; 8124,860;35,74519
 536,55; 3072,679;  215,546; 8278,382;35,43583
 537,13; 3051,194;  207,087; 8215,154;35,51552
 537,71; 3047,381;  246,164; 8231,165;35,08099
 538,30; 3035,015;  248,086; 8351,459;34,39222
 538,88; 3085,187;  273,084; 8422,315;34,50759
 539,46; 3153,915;  308,700; 8568,663;34,44585
 540,05; 3179,220;  308,623; 8699,627;34,21041
 540,63; 3215,483;  343,546; 8864,809;33,70318
 541,21; 3248,228;  351,007; 8970,782;33,61133
 541,79; 3304,329;  381,007; 9119,533;33,45326
 542,38; 3312,792;  400,161; 9275,331;32,81775
 542,96; 3373,152;  394,236; 9398,667;33,08278
 543,54; 3416,827;  420,776; 9606,688;32,61572
 544,12; 3431,558;  391,622; 9719,703;32,58908
 544,70; 3473,856;  380,082; 9848,243;32,67555
 545,29; 3521,386;  399,008;10022,801;32,44437
 545,87; 3514,175;  374,776;10086,994;32,32422
 546,45; 3467,707;  348,854;10109,053;31,95481
 547,03; 3502,107;  339,084;10206,710;32,05455
 547,62; 3545,523;  315,007;10346,147;32,20488
 548,20; 3567,059;  330,006;10512,803;31,78943
 548,78; 3596,397;  295,542;10627,019;31,94950
 549,36; 3639,807;  275,542;10914,598;31,62184
 549,94; 3639,225;  264,314;11046,201;31,30167
 550,53; 3720,713;  269,081;11255,266;31,41793
 551,11; 3746,858;  234,849;11460,197;31,28641
 551,69; 3842,672;  240,004;11797,137;31,17268
 552,27; 3879,117;  212,543;12027,242;31,03400
 552,85; 3945,905;  222,695;12402,005;30,56996
 553,44; 4050,770;  225,388;12707,128;30,64782
 554,02; 4153,095;  232,926;13119,768;30,41993
 554,60; 4229,413;  193,772;13422,753;30,50606
 555,18; 4320,754;  223,542;13805,579;30,16640
 555,76; 4383,968;  206,619;14182,816;29,88902
 556,34; 4506,485;  211,002;14557,042;29,94195
 556,93; 4612,327;  205,311;14950,136;29,88856
 557,51; 4698,875;  192,156;15311,022;29,80858
 558,09; 4762,171;  212,850;15734,992;29,30859
 558,67; 4883,828;  210,693;16082,476;29,44304
 559,25; 4980,908;  223,848;16371,596;29,45959
 559,83; 5053,098;  205,308;16683,960;29,41861
 560,41; 5088,760;  205,771;17055,006;28,98048
 561,00; 5197,266;  208,539;17343,264;29,11471
 561,58; 5213,110;  198,464;17668,680;28,70397
 562,16; 5270,553;  185,157;18011,648;28,52718
 562,74; 5368,021;  167,234;18288,528;28,69986
 563,32; 5444,761;  174,923;18759,153;28,35650
 563,90; 5527,393;  207,309;19120,524;28,12893
 564,48; 5600,419;  204,772;19511,356;27,94719
 565,06; 5782,915;  188,232;20160,583;28,01214
 565,65; 5884,376;  204,153;20836,746;27,53034
 566,23; 6087,499;  250,770;21605,331;27,33247
 566,81; 6208,418;  195,001;22249,173;27,26657
 567,39; 6421,436;  205,077;23136,467;27,10851
 567,97; 6535,389;  222,924;23837,757;26,73093
 568,55; 6744,626;  234,770;24603,461;26,71402
 569,13; 6913,351;  195,539;25332,542;26,72479
 569,71; 7094,447;  195,311;26288,841;26,44003
 570,29; 7356,425;  230,004;27237,665;26,38667
 570,87; 7491,653;  228,157;28016,084;26,13903
 571,45; 7629,385;  222,924;28595,630;26,10417
 572,03; 7709,464;  180,307;29118,291;26,01825
 572,61; 7818,647;  171,539;29768,913;25,83712
 573,20; 7929,857;  212,155;30457,944;25,51662
 573,78; 8075,711;  194,693;31102,278;25,49865
 574,36; 8138,190;  197,001;31598,733;25,28902
 574,94; 8216,645;  251,538;31941,039;25,13485
 575,52; 8210,606;  186,690;32172,417;25,08593
 576,10; 8417,001;  249,537;32753,885;25,12730
 576,68; 8428,769;  222,307;33359,301;24,76526
 577,26; 8570,855;  242,920;34034,218;24,64521
 577,84; 8604,689;  240,847;34439,972;24,45630
 578,42; 8736,023;  277,153;34750,082;24,53772
 579,00; 8602,122;  227,846;34942,556;24,12313
 579,58; 8644,316;  257,538;35231,125;23,98032
 580,16; 8593,894;  239,076;35261,609;23,85555
 580,74; 8588,727;  233,229;35397,512;23,76132
 581,32; 8511,977;  234,076;35482,642;23,48436
 581,90; 8548,223;  240,307;35369,754;23,64944
 582,48; 8484,075;  242,230;35585,042;23,31972
 583,06; 8459,117;  244,307;35773,307;23,12142
 583,64; 8407,053;  240,923;35789,173;22,97196
 584,22; 8304,843;  251,459;35758,020;22,68140
 584,80; 8229,106;  261,537;35487,370;22,61854
 585,38; 8090,323;  260,617;35102,456;22,47214
 585,96; 7999,762;  224,154;35305,083;22,16477
 586,54; 7982,685;  251,921;35185,484;22,12991
 587,12; 7977,421;  221,768;35412,288;22,03904
 587,70; 7968,057;  257,846;35489,986;21,88403
 588,28; 7894,391;  242,306;35598,019;21,64314
 588,86; 7920,682;  243,460;35696,487;21,65463
 589,44; 7891,394;  219,843;35803,711;21,55907
 590,02; 7847,631;  234,843;36051,052;21,25515
 590,59; 7865,091;  220,075;36245,321;21,22127
 591,17; 7854,182;  223,764;36479,320;21,04620
 591,75; 7836,948;  213,227;36521,830;20,99701
 592,33; 7885,232;  238,535;36839,517;20,89206
 592,91; 7867,319;  193,918;37044,756;20,82287
 593,49; 7884,709;  206,764;37432,306;20,62548
 594,07; 7906,730;  212,841;37568,143;20,59651
 594,65; 7858,214;  224,459;37618,762;20,41422
 595,23; 7905,060;  217,612;38120,562;20,28192
 595,81; 7894,282;  221,612;38259,539;20,17110
 596,39; 7864,293;  209,996;38308,269;20,09093
 596,97; 7853,189;  206,149;38540,276;19,94839
 597,55; 7800,282;  211,074;38368,431;19,88924
 598,12; 7742,392;  184,302;38453,822;19,74963
 598,70; 7727,503;  195,149;38552,494;19,63732
 599,28; 7746,967;  214,995;38744,330;19,54867
 599,86; 7667,314;  204,841;38706,937;19,38199
 600,44; 7613,873;  172,610;38933,337;19,19794
 601,02; 7680,127;  227,608;38927,712;19,25710
 601,60; 7574,850;  209,688;38862,685;19,05457
 602,18; 7564,304;  178,610;38870,938;19,08827
 602,75; 7491,372;  189,920;39007,867;18,80947
 603,33; 7502,866;  201,687;38987,272;18,82447
 603,91; 7439,718;  188,840;39040,469;18,66300
 604,49; 7418,259;  208,226;39087,397;18,54472
 605,07; 7410,765;  215,996;39057,561;18,52337
 605,65; 7362,277;  225,533;39172,729;18,32415
 606,23; 7388,430;  264,306;39339,727;18,23173
 606,80; 7346,011;  285,074;39292,079;18,10172
 607,38; 7306,486;  300,686;39398,846;17,91849
 607,96; 7318,339;  337,612;39460,608;17,84303
 608,54; 7325,070;  389,225;39519,710;17,72491
 609,12; 7287,014;  377,689;39488,530;17,66601
 609,70; 7271,179;  406,226;39536,322;17,54392
 610,27; 7250,400;  399,458;39596,436;17,47824
 610,85; 7220,913;  415,995;39673,996;17,33384
 611,43; 7158,245;  418,226;39607,677;17,19856
 612,01; 7090,080;  389,150;39405,678;17,17459
 612,59; 7064,614;  400,072;39457,428;17,06347
 613,16; 6993,973;  365,767;39440,885;16,96273
 613,74; 7006,792;  354,149;39277,032;17,09186
 614,32; 6940,513;  334,533;39289,863;16,95783
 614,90; 6927,410;  313,842;39167,606;17,02169
 615,48; 6783,231;  264,151;38815,633;16,91006
 616,05; 6737,081;  257,844;38842,752;16,79215
 616,63; 6727,469;  267,460;38596,795;16,85396
 617,21; 6658,143;  266,458;38494,004;16,72010
 617,79; 6606,476;  245,073;38478,384;16,63838
 618,36; 6611,558;  268,996;38341,157;16,65932
 618,94; 6472,606;  209,920;38066,448;16,54321
 619,52; 6434,258;  227,536;37750,342;16,54120
 620,10; 6382,685;  235,304;37721,155;16,39920
 620,67; 6330,164;  234,229;37593,632;16,31700
 621,25; 6285,208;  252,303;37527,175;16,18491
 621,83; 6286,171;  224,689;37484,189;16,26828
 622,41; 6290,290;  272,305;37410,324;16,20438
 622,98; 6194,644;  257,460;37138,325;16,09828
 623,56; 6181,033;  249,537;37196,221;16,05421
 624,14; 6159,639;  239,226;37025,315;16,09416
 624,72; 6073,372;  232,920;36893,535;15,93114
 625,29; 6049,190;  218,691;36946,057;15,87508
 625,87; 6075,144;  265,996;36963,556;15,82979
 626,45; 5993,390;  211,153;36814,243;15,79713
 627,02; 5960,567;  228,458;36763,334;15,68942
 627,60; 5920,048;  216,072;36601,251;15,67665
 628,18; 5919,552;  203,535;36778,453;15,62824
 628,76; 5873,939;  204,075;36703,843;15,53397
 629,33; 5925,360;  236,844;36620,875;15,63465
 629,91; 5877,992;  220,766;36669,155;15,52120
 630,49; 5873,179;  236,152;36885,051;15,38116
 631,06; 5850,414;  224,460;36968,332;15,31127
 631,64; 5852,224;  236,691;36931,222;15,30346
 632,22; 5810,696;  191,076;36867,998;15,32195
 632,79; 5897,237;  222,922;37220,911;15,33682
 633,37; 5866,239;  206,150;37185,197;15,30621
 633,95; 5853,205;  217,537;37305,676;15,19534
 634,52; 5863,624;  204,151;37411,449;15,21065
 635,10; 5839,284;  202,997;37377,906;15,16153
 635,68; 5907,723;  217,153;37630,353;15,21006
 636,25; 5860,266;  192,692;37673,295;15,12135
 636,83; 5901,247;  186,767;37842,843;15,17545
 637,41; 5889,849;  194,538;37809,837;15,14094
 637,98; 5961,223;  220,230;38059,492;15,17205
 638,56; 5953,310;  217,539;38136,337;15,12646
 639,13; 5936,867;  203,768;38190,123;15,09252
 639,71; 6010,240;  245,152;38394,802;15,11177
 640,29; 5953,797;  171,152;38119,221;15,23831
 640,86; 5943,028;  196,844;38359,500;15,05709
 641,44; 5927,644;  195,613;38410,933;14,99930
 642,02; 5999,568;  222,152;38363,981;15,14719
 642,59; 5981,953;  195,075;38474,337;15,11753
 643,17; 5976,954;  195,921;38457,694;15,10916
 643,74; 5987,339;  186,228;38548,281;15,12200
 644,32; 6013,955;  217,151;38467,021;15,15509
 644,89; 5983,802;  207,382;38420,839;15,11619
 645,47; 6037,033;  237,074;38521,349;15,14972
 646,05; 5979,188;  206,536;38420,705;15,10605
 646,62; 5959,419;  201,844;38402,907;15,07177
 647,20; 5979,882;  207,690;38607,956;15,03165
 647,77; 5956,959;  185,767;38427,004;15,09154
 648,35; 5907,652;  180,074;38225,745;15,05448
 648,92; 5963,960;  217,305;38309,794;15,08606
 649,50; 5930,730;  175,459;38234,996;15,12176
 650,08; 5927,346;  171,382;38187,660;15,14079
 650,65; 5967,193;  185,228;38396,554;15,13155
 651,23; 6068,809;  165,689;39107,910;15,15866
 651,80; 6224,425;  179,535;40033,113;15,16775
 652,38; 6350,811;  194,766;40427,469;15,30110
 652,95; 6339,734;  163,458;40771,671;15,20943
 653,53; 6452,966;  190,766;41022,181;15,33672
 654,10; 6467,043;  222,151;41124,076;15,26797
 654,68; 6436,506;  190,689;41047,509;15,28708
 655,25; 6449,814;  178,535;41136,634;15,31145
 655,83; 6463,738;  178,612;41312,836;15,27955
 656,40; 6530,969;  214,689;41245,731;15,39391
 656,98; 6520,431;  187,920;41228,395;15,42992
 657,55; 6531,124;  198,227;41059,136;15,49867
 658,13; 6473,048;  190,843;40647,338;15,52830
 658,70; 6484,434;  203,842;40417,156;15,61819
 659,28; 6303,588;  180,150;39642,127;15,51731
 659,85; 6216,204;  196,612;38796,945;15,59466
 660,43; 6250,512;  213,073;38870,763;15,61769
 661,00; 6248,052;  191,304;38975,734;15,61644
 661,58; 6341,591;  183,765;39279,783;15,75052
 662,15; 6364,207;  174,458;39463,600;15,75435
 662,73; 6527,977;  233,611;39757,803;15,92535
 663,30; 6489,977;  186,534;40068,005;15,80544
 663,88; 6572,824;  197,765;40163,822;15,95118
 664,45; 6568,133;  183,227;40366,179;15,88959
 665,03; 6678,210;  179,842;40832,381;15,98515
 665,60; 6821,980;  262,534;41160,429;16,03859
 666,17; 6804,058;  190,765;41403,401;16,04676
 666,75; 6905,597;  188,457;41655,988;16,19855
 667,32; 7001,828;  215,072;41977,806;16,25075
 667,90; 7009,906;  188,072;42194,085;16,24014
 668,47; 7155,753;  208,149;42570,672;16,40035
 669,05; 7199,676;  177,842;42819,951;16,46690
 669,62; 7194,754;  163,995;42916,692;16,44518
 670,19; 7250,293;  172,688;43051,971;16,50589
 670,77; 7338,217;  197,226;43265,865;16,58049
 671,34; 7368,602;  176,072;43150,683;16,73670
 671,92; 7508,449;  169,918;43589,347;16,90149
 672,49; 7509,604;  196,072;43523,934;16,87951
 673,06; 7513,758;  154,918;43520,828;16,96918
 673,64; 7567,220;  172,995;43528,338;17,05493
 674,21; 7596,759;  161,764;43487,695;17,16061
 674,79; 7675,068;  193,995;43788,589;17,16055
 675,36; 7761,761;  198,149;43863,792;17,32166
 675,93; 7762,531;  167,995;43710,686;17,44159
 676,51; 7767,224;  182,225;43909,581;17,34612
 677,08; 7914,455;  188,687;43958,937;17,65073
 677,65; 7943,917;  187,918;44171,370;17,63390
 678,23; 8016,687;  193,379;44278,957;17,74573
 678,80; 8058,688;  169,071;44424,159;17,82759
 679,38; 8107,535;  175,379;44556,515;17,87281
 679,95; 8212,766;  186,841;44784,871;17,99614
 680,52; 8266,767;  175,917;45115,997;18,00364
 681,10; 8459,075;  184,917;45545,814;18,24073
 681,67; 8491,999;  197,533;45819,248;18,18096
 682,24; 8523,000;  163,610;45886,604;18,28268
 682,82; 8697,923;  175,456;46435,268;18,42305
 683,39; 8829,770;  214,148;46738,778;18,51841
 683,96; 8917,540;  178,071;47100,980;18,62517
 684,54; 9009,541;  163,686;47315,721;18,76028
 685,11; 9092,311;  216,994;47796,077;18,65382
 685,68; 9239,004;  183,609;48151,202;18,87815
 686,25; 9267,081;  174,763;48245,712;18,91437
 686,83; 9380,390;  177,994;48409,837;19,07950
 687,40; 9509,929;  164,301;48766,578;19,22879
 687,97; 9636,237;  219,763;49137,011;19,24980
 688,55; 9713,776;  163,455;49114,829;19,50981
 689,12; 9750,623;  146,378;49392,031;19,50273
 689,69; 9826,547;  160,686;49510,311;19,58649
 690,26; 9892,625;  172,070;49682,590;19,63331
 690,84; 9945,779;  175,763;49831,100;19,67566
 691,41;10058,087;  187,301;49880,764;19,86335
 691,98;10185,780;  189,147;50233,427;19,97558
 692,56;10293,627;  174,686;50284,168;20,19367
 693,13;10374,551;  221,916;50345,447;20,25523
 693,70;10373,859;  192,609;50475,650;20,24788
 694,27;10455,399;  169,455;50631,467;20,38354
 694,84;10553,630;  158,916;50728,747;20,55517
 695,42;10673,169;  216,993;50812,641;20,66616
 695,99;10782,093;  185,531;51125,920;20,80189
 696,56;10756,247;  176,762;50773,200;20,90955
 697,13;10902,248;  182,378;51275,863;20,98089
 697,71;10959,941;  161,454;51270,989;21,12813
 698,28;11076,403;  180,916;51717,114;21,14143
 698,85;11145,865;  145,531;51689,163;21,34179
 699,42;11243,482;  145,454;51791,519;21,48862
 699,99;11355,098;  188,070;51950,336;21,57368
 700,57;11387,483;  182,223;52047,000;21,60476
 701,14;11497,868;  172,377;52172,203;21,77986
 701,71;11566,253;  178,377;52392,328;21,81003
 702,28;11662,793;  171,531;52471,223;21,97195
 702,85;11734,562;  180,300;52403,502;22,12477
 703,43;11831,025;  181,531;52774,166;22,15043
 704,00;11990,948;  195,377;52887,214;22,38596
 704,57;12044,257;  175,992;52949,724;22,48896
 705,14;12175,411;  199,531;53182,080;22,60344
 705,71;12255,104;  203,838;53139,513;22,76587
 706,28;12256,413;  181,300;53165,946;22,78983
 706,86;12419,183;  208,300;53405,610;22,95395
 707,43;12544,337;  226,069;53336,813;23,19355
 708,00;12599,338;  204,223;53266,322;23,35964
 708,57;12645,492;  174,069;53150,063;23,54165
 709,14;12741,724;  200,761;53341,573;23,59949
 709,71;12845,109;  178,915;53489,083;23,75943
 710,28;12985,417;  180,530;53723,670;23,91508
 710,86;13101,726;  200,761;53711,411;24,10915
 711,43;13260,419;  210,376;53873,382;24,31851
 712,00;13323,573;  186,761;53907,046;24,45410
 712,57;13411,651;  201,453;54009,095;24,55078
 713,14;13488,267;  179,145;54185,989;24,64340
 713,71;13569,345;  187,222;54008,807;24,86386
 714,28;13706,884;  194,761;54082,702;25,07448
 714,85;13654,577;  178,991;53894,596;25,08691
 715,42;13852,577;  184,376;54027,183;25,38538
 716,00;13954,501;  250,530;54201,078;25,40099
 716,57;14040,809;  193,068;54324,126;25,58188
 717,14;14094,502;  177,376;54273,252;25,72678
 717,71;14140,426;  172,760;54275,531;25,81691
 718,28;14277,119;  216,145;54345,887;25,97643
 718,85;14264,966;  167,145;54372,089;26,00837
 719,42;14474,121;  204,299;54609,215;26,22892
 719,99;14417,429;  174,529;54345,725;26,29239
 720,56;14570,199;  191,991;54672,158;26,39164
 721,13;14641,584;  176,529;54740,206;26,51041
 721,70;14684,508;  170,068;54607,101;26,66281
 722,27;14812,278;  196,837;54661,380;26,83478
 722,84;14931,971;  237,991;54881,121;26,89081
 723,41;14962,510;  167,683;54741,631;27,10969
 723,98;14991,818;  182,837;54994,064;27,01815
 724,55;15197,280;  214,990;55060,805;27,31711
 725,12;15172,589;  154,221;55026,776;27,36954
 725,69;15374,359;  180,298;55180,286;27,62557
 726,27;15432,283;  187,375;55261,719;27,68060
 726,84;15611,745;  198,836;55627,383;27,80681
 727,41;15697,130;  208,606;55544,816;27,98985
 727,98;15861,900;  207,452;55875,941;28,12084
 728,55;15983,670;  216,836;55755,144;28,38911
 729,12;16092,901;  167,605;55813,961;28,61876
 729,69;16229,210;  210,221;55962,779;28,73229
 730,26;16318,287;  198,682;56213,443;28,77742
 730,82;16315,903;  184,913;56095,030;28,85165
 731,39;16423,596;  194,374;56137,617;29,01016
 731,96;16631,289;  169,990;56522,127;29,21149
 732,53;16797,136;  190,067;56737,329;29,36848
 733,10;16942,983;  203,451;56801,224;29,57631
 733,67;17062,445;  205,605;57072,887;29,64242
 734,24;17076,984;  182,605;56736,474;29,87307
 734,81;17176,139;  200,066;56852,754;29,96517
 735,38;17194,293;  191,759;56642,571;30,11920
 735,95;17236,986;  189,143;56516,774;30,26551
 736,52;17372,372;  206,759;56567,668;30,45659
 737,09;17271,834;  214,066;56263,563;30,43340
 737,66;17581,219;  226,989;56505,457;30,83636
 738,23;17567,220;  181,758;56571,890;30,83068
 738,80;17772,451;  234,066;56727,016;31,04526
 739,37;17856,298;  220,451;57013,449;31,05286
 739,94;17991,606;  191,220;57087,190;31,28585
 740,51;18245,992;  288,989;57217,315;31,54318
 741,07;18225,069;  188,758;57010,210;31,74208
 741,64;18381,224;  210,681;57304,643;31,82568
 742,21;18457,225;  198,297;57378,922;31,93202
 742,78;18523,456;  164,296;57089,278;32,25150
 743,35;18645,072;  185,450;57470,019;32,22442
 743,92;18795,842;  221,066;57462,221;32,45004
 744,49;18833,996;  212,681;57394,193;32,56527
 745,06;18844,228;  186,066;57407,318;32,60705
 745,63;19003,767;  177,065;57428,136;32,88445
 746,19;19103,691;  182,835;57418,646;33,05772
 746,76;19199,461;  194,527;57385,156;33,23085
 747,33;19223,077;  186,911;57375,512;33,28664
 747,90;19428,847;  204,142;57591,022;33,50017
 748,47;19440,232;  197,758;57503,916;33,57837
 749,04;19569,694;  204,219;57567,426;33,75940
 749,61;19707,003;  221,065;57412,859;34,07121
 750,17;19851,080;  219,527;57580,831;34,22438
 750,74;19885,389;  207,603;57433,418;34,38620
 751,31;19897,928;  187,680;57384,928;34,46013
 751,88;20039,005;  175,757;57254,515;34,79972
 752,45;20199,698;  188,526;57389,794;34,98379
 753,02;20140,391;  213,680;57212,150;34,96008
 753,58;20306,392;  180,449;57085,352;35,36768
 754,15;20423,854;  184,834;57280,478;35,44757
 754,72;20394,547;  183,295;57070,449;35,52867
 755,29;20468,009;  181,834;56891,421;35,77204
 755,86;20574,087;  199,065;57059,239;35,83356
 756,42;20675,780;  211,065;56937,902;36,07590
 756,99;20688,934;  182,680;56933,489;36,13385
 757,56;20705,858;  193,372;56864,153;36,19588
 758,13;20830,628;  162,141;56730,279;36,53733
 758,70;20970,860;  184,910;56782,635;36,72577
 759,26;21049,629;  190,295;56940,606;36,75633
 759,83;21251,707;  201,064;57008,116;37,05639
 760,40;21244,169;  190,372;56726,626;37,23946
 760,97;21282,555;  177,218;56920,059;37,19471
 761,53;21297,324;  164,526;56539,339;37,48624
 762,10;21356,710;  164,756;56492,925;37,62230
 762,67;21464,633;  203,295;56444,128;37,80410
 763,24;21489,942;  157,525;55971,945;38,22026
 763,80;21534,250;  185,833;56198,609;38,11348
 764,37;21623,251;  179,448;56055,427;38,37750
 764,94;21492,559;  168,602;55661,322;38,42659
 765,50;21668,560;  165,371;55636,601;38,76458
 766,07;21805,330;  203,141;55684,341;38,93605
 766,64;21843,946;  167,371;55326,159;39,29850
 767,21;21813,023;  173,756;55232,054;39,30246
 767,77;21902,947;  190,602;55148,564;39,50719
 768,34;21920,333;  196,525;55235,689;39,46973
 768,91;21963,333;  196,371;54968,815;39,74072
 769,47;22044,565;  188,833;55026,940;39,85501
 770,04;22034,488;  191,833;54845,911;39,96528
 770,61;21992,489;  181,217;54715,498;39,99552
 771,18;22088,028;  170,832;54589,008;40,27551
 771,74;22200,183;  190,294;54655,364;40,41102
 772,31;22190,568;  176,140;54451,028;40,56098
 772,88;22164,492;  169,448;54240,846;40,67778
 773,44;22172,723;  166,448;54021,971;40,86169
 774,01;22328,801;  193,909;54134,943;41,03535
 774,58;22244,340;  177,140;53742,914;41,19645
 775,14;22412,187;  172,217;53925,271;41,37434
 775,71;22405,187;  174,678;53789,319;41,46351
 776,27;22541,804;  218,293;53678,829;41,75699
 776,84;22675,958;  245,063;53766,262;41,91030
 777,41;22671,343;  190,447;53549,849;42,13109
 777,97;22580,575;  181,986;53314,897;42,15577
 778,54;22654,191;  194,601;53366,869;42,23929
 779,11;22843,345;  212,139;53356,456;42,58443
 779,67;22904,731;  169,601;53295,504;42,79481
 780,24;22855,731;  193,909;53023,937;42,89572
 780,80;23017,424;  214,370;53013,678;43,18817
 781,37;23052,733;  205,216;52987,188;43,28659
 781,94;23124,964;  191,755;52730,160;43,65037
 782,50;23140,273;  198,216;52704,439;43,69398
 783,07;23292,042;  213,139;52829,641;43,86248
 783,63;23252,658;  181,985;52499,151;44,09771
 784,20;23370,275;  207,985;52386,507;44,39047
 784,77;23356,660;  194,600;52324,094;44,43178
 785,33;23337,507;  168,447;52102,527;44,61244
 785,90;23409,584;  197,985;52037,730;44,77568
 786,46;23499,431;  214,677;51925,317;45,02894
 787,03;23468,124;  183,831;51839,903;45,07562
 787,59;23514,817;  198,369;51767,260;45,21417
 788,16;23543,433;  197,369;51654,000;45,37037
 788,73;23577,588;  200,985;51537,049;45,53641
 789,29;23566,204;  190,062;51084,559;45,93059
 789,86;23615,512;  209,138;50995,453;46,08795
 790,42;23713,205;  204,446;50920,810;46,35340
 790,99;23605,436;  207,369;50563,320;46,46535
 791,55;23707,668;  191,369;50593,906;46,65697
 792,12;23730,130;  216,984;50541,878;46,72269
 792,68;23660,746;  202,830;50166,311;46,95012
 793,25;23688,978;  212,984;49944,744;47,20523
 793,81;23567,363;  253,138;49621,331;47,22519
 794,38;23617,364;  168,907;49381,379;47,64739
 794,94;23664,210;  196,446;49312,505;47,78023
 795,51;23614,365;  214,369;48964,938;47,99943
 796,07;23524,596;  203,599;48756,525;48,03212
 796,64;23662,136;  218,984;48868,958;48,18739
 797,20;23569,059;  209,445;48385,929;48,48759
 797,77;23355,598;  184,138;47988,362;48,47158
 798,33;23314,368;  199,368;47845,103;48,51431
 798,90;23482,907;  223,291;47800,613;48,88803
 799,46;23335,370;  208,907;47259,662;49,15216
 800,03;23463,063;  208,214;47214,864;49,47140
 800,59;23306,910;  222,368;46957,528;49,39438
 801,15;23343,295;  221,753;46844,884;49,59243
 801,72;23187,065;  226,137;46459,779;49,66281
 802,28;23111,758;  238,830;46156,519;49,81289
 802,85;23091,143;  206,830;46055,722;49,91247
 803,41;23089,528;  209,906;45829,924;50,15259
 803,98;22963,683;  211,599;45325,588;50,43244
 804,54;23007,222;  212,676;45133,252;50,74411
 805,11;22939,300;  212,522;44999,915;50,74369
 805,67;23056,685;  238,675;44844,349;51,15495
 806,23;22861,378;  215,522;44381,705;51,27420
 806,80;22880,763;  222,829;44288,522;51,41854
 807,36;22978,456;  232,060;44206,417;51,72650
 807,93;22925,149;  239,829;43938,081;51,91356
 808,49;22789,534;  203,598;43598,206;52,04779
 809,05;22827,150;  191,906;43368,870;52,42435
 809,62;22878,536;  230,290;43348,765;52,52562
 810,18;22886,075;  222,983;43249,582;52,67228
 810,74;22838,999;  190,983;42947,400;52,96986
 811,31;22753,692;  193,829;42808,679;52,93897
 811,87;22808,538;  207,521;42600,343;53,31331
 812,44;22928,847;  240,983;42570,776;53,59786
 813,00;22826,155;  166,752;42252,363;53,84121
 813,56;22922,848;  218,829;42345,258;53,89495
 814,13;22961,387;  222,367;42177,383;54,19857
 814,69;22976,542;  211,367;41986,508;54,49455
 815,25;22831,542;  188,752;41599,403;54,67866
 815,82;22933,543;  233,751;41614,374;54,85609
 816,38;22913,159;  246,751;41365,884;55,12375
 816,94;22801,468;  203,059;41060,010;55,31105
 817,51;22750,237;  186,444;40868,904;55,46320
 818,07;22776,392;  205,367;40651,953;55,80453
 818,63;22702,162;  221,751;40447,309;55,88589
 819,20;22764,855;  217,982;40328,973;56,21121
 819,76;22504,086;  202,443;39945,175;56,11502
 820,32;22613,010;  247,520;39857,147;56,46478
 820,89;22548,165;  234,905;39659,349;56,59753
 821,45;22363,319;  198,597;39336,397;56,63252
 822,01;22311,397;  222,751;39097,369;56,82023
 822,57;22345,167;  229,366;38904,802;57,18307
 823,14;22304,475;  186,905;38724,389;57,39236
 823,70;22190,091;  203,828;38463,899;57,46530
 824,26;22162,015;  201,135;38282,870;57,66775
 824,82;22187,400;  231,981;38128,227;57,93560
 825,39;22022,016;  208,751;37809,737;58,01248
 825,95;22086,478;  231,135;37881,400;58,04831
 826,51;21965,787;  226,135;37413,680;58,45950
 827,08;22040,864;  255,058;37546,267;58,42076
 827,64;22026,557;  234,520;37333,623;58,74007
 828,20;21927,250;  203,827;37073,825;58,91897
 828,76;21997,251;  231,981;37046,643;59,12120
 829,32;21865,175;  237,366;36879,691;59,02412
 829,89;21978,099;  193,135;36702,663;59,66926
 830,45;21902,792;  215,058;36642,942;59,53608
 831,01;21857,023;  217,904;36452,144;59,72008
 831,57;21876,177;  225,365;36346,731;59,93907
 832,14;21891,563;  210,904;36376,472;59,94834
 832,70;21826,256;  200,058;36099,982;60,24023
 833,26;21889,641;  185,519;36024,953;60,55933
 833,82;21851,257;  211,673;35978,079;60,50254
 834,38;21899,642;  201,519;35897,973;60,78509
 834,95;21761,643;  193,980;35778,560;60,60957
 835,51;21870,567;  172,596;35642,301;61,17325
 836,07;22023,337;  216,134;35712,503;61,43502
 836,63;22139,184;  232,826;35781,552;61,62347
 837,19;22088,800;  209,057;35477,446;62,03783
 837,75;21919,800;  174,596;35236,187;62,02002
 838,32;22098,955;  225,826;35364,389;62,24822
 838,88;22177,494;  220,442;35382,053;62,44609
 839,44;22251,187;  209,519;35322,794;62,77303
 840,00;22356,265;  204,749;35187,689;63,32091
 840,56;22226,265;  189,057;34877,737;63,52853
 841,12;22244,574;  196,749;34811,632;63,69464
 841,68;22258,190;  183,749;34663,603;64,02127
 842,25;22323,652;  201,749;34793,267;63,95181
 842,81;22218,653;  196,441;34370,546;64,44122
 843,37;22319,730;  186,980;34470,826;64,55737
 843,93;22299,962;  201,749;34398,720;64,62038
 844,49;22476,962;  216,133;34443,230;65,03861
 845,05;22339,424;  180,287;34171,202;65,19135
 845,61;22445,348;  226,595;34274,019;65,25825
 846,17;22348,503;  202,903;34148,299;65,23889
 846,73;22388,196;  213,749;34074,962;65,48627
 847,29;22330,350;  186,595;33753,472;65,96907
 847,86;22382,428;  193,979;33848,521;65,93003
 848,42;22338,044;  190,902;33540,800;66,40842
 848,98;22406,506;  203,902;33503,695;66,67490
 849,54;22475,968;  206,133;33561,359;66,76566
 850,10;22488,969;  208,595;33397,868;67,13125
 850,66;22367,200;  191,287;33204,994;67,17184
 851,22;22403,817;  192,441;33273,965;67,14133
 851,78;22477,740;  234,441;33214,706;67,44427
 852,34;22353,972;  222,133;32956,293;67,61083
 852,90;22314,972;  211,056;32944,188;67,52766
 853,46;22272,665;  191,517;32622,390;68,08681
 854,02;22348,589;  213,286;32732,823;68,06771
 854,58;22203,128;  196,979;32437,948;68,25523
 855,14;22228,283;  195,517;32381,305;68,45495
 855,70;22176,514;  161,825;32202,507;68,70855
 856,26;22160,207;  211,055;32132,709;68,75944
 856,82;22147,439;  196,902;31943,450;69,14307
 857,38;22097,593;  228,517;31904,806;69,03926
 857,94;22026,671;  202,209;31825,701;69,01345
 858,50;22052,056;  215,671;31719,903;69,31255
 859,06;21978,211;  194,978;31564,105;69,44163
 859,62;22092,134;  211,671;31461,308;70,01830
 860,18;21986,135;  199,517;31234,971;70,19913
 860,74;21974,982;  174,209;31134,558;70,41514
 861,30;21894,521;  185,901;30921,838;70,62944
 861,86;21913,137;  235,517;30921,040;70,64445
 862,42;21842,215;  199,824;30755,242;70,82996
 862,98;21953,215;  231,978;30739,598;71,19938
 863,54;21726,370;  205,055;30572,570;70,86953
 864,10;21894,063;  202,286;30565,695;71,44052
 864,66;21803,140;  190,978;30311,205;71,75299
 865,22;21789,372;  198,285;30183,946;72,00471
 865,78;21734,988;  208,439;30096,302;72,02438
 866,34;21702,219;  198,208;29955,427;72,26485
 866,90;21663,451;  220,208;29864,322;72,33558
 867,45;21583,221;  209,208;29665,909;72,56078
 868,01;21541,529;  213,747;29548,650;72,70446
 868,57;21367,145;  190,362;29359,237;72,60062
 869,13;21419,838;  184,131;29243,977;73,07577
 869,69;21360,377;  195,747;29100,410;73,22220
 870,25;21291,916;  183,131;28971,536;73,32391
 870,81;21360,379;  194,593;28962,200;73,57507
 871,37;21325,918;  214,439;28801,479;73,84982
 871,93;21266,765;  220,669;28665,758;73,98850
 872,49;21110,458;  223,362;28491,345;73,88959
 873,04;21088,074;  198,439;28222,086;74,54288
 873,60;21122,767;  182,977;28131,365;74,92307
 874,16;21135,844;  212,592;28031,337;75,21278
 874,72;21109,460;  202,669;27894,567;75,49786
 875,28;21072,460;  209,285;27946,260;75,21792
 875,84;21186,229;  206,592;27892,798;75,77650
 876,40;21162,075;  196,131;27799,106;75,95538
 876,95;21197,229;  213,746;27745,952;76,21432
 877,51;21266,152;  230,746;27755,260;76,42426
 878,07;21278,690;  249,977;27778,490;76,38884
 878,63;21318,537;  199,054;27740,875;76,68150
 879,19;21298,767;  224,977;27715,644;76,65798
 879,75;21382,921;  196,900;27768,875;76,83897
 880,30;21373,844;  193,208;27740,798;76,88744
 880,86;21553,460;  237,669;27948,798;76,92141
 881,42;21549,306;  190,746;27995,952;76,81497
 881,98;21599,075;  221,823;28080,260;76,73529
 882,54;21647,613;  194,746;28214,952;76,56213
 883,09;21863,075;  217,669;28222,567;77,29150
 883,65;21799,460;  197,438;28296,183;76,87896
 884,21;22068,767;  235,362;28611,952;76,94161
 884,77;22171,537;  204,900;28568,413;77,44681
 885,32;22339,460;  208,592;28737,260;77,57414
 885,88;22487,306;  235,515;28818,260;77,85043
 886,44;22608,998;  213,362;29018,029;77,75003
 887,00;22589,460;  229,131;29005,260;77,70444
 887,56;22768,690;  204,285;29124,721;78,02236
 888,11;22774,306;  208,900;29123,260;78,04221
 888,67;23006,690;  245,592;29285,106;78,37975
 889,23;23019,613;  215,977;29233,337;78,58619
 889,79;22919,690;  194,131;29203,490;78,33872
 890,34;22904,537;  214,285;29125,337;78,48297
 890,90;23119,075;  267,285;29395,490;78,45245
 891,46;23020,537;  199,438;29217,721;78,64386
 892,01;23074,152;  236,900;29188,952;78,87956
 892,57;23003,690;  236,285;29105,260;78,86461
 893,13;22887,537;  203,746;28905,721;79,03216
 893,69;22873,690;  206,438;28872,106;79,07457
 894,24;22890,075;  211,362;28718,183;79,55539
 894,80;22811,921;  217,362;28590,875;79,63258
 895,36;22731,229;  215,977;28459,029;79,71961
 895,91;22625,075;  215,438;28251,567;79,93128
 896,47;22584,152;  237,515;28129,413;80,11874
 897,03;22427,767;  203,977;27957,490;80,07559
 897,58;22416,998;  225,900;27905,644;80,17089
 898,14;22276,460;  223,669;27669,337;80,35072
 898,70;22262,613;  191,208;27466,490;80,92091
 899,25;22327,613;  218,362;27531,029;80,94871
 899,81;22186,844;  236,900;27286,875;81,14589
 900,37;22012,921;  181,515;27045,490;81,26648
 900,92;22121,613;  218,900;27003,029;81,77497
 901,48;21942,844;  198,592;26994,875;81,14652
 902,03;21851,613;  204,746;26775,567;81,46857
 902,59;21858,690;  211,131;26706,798;81,70226
 903,15;21751,690;  237,592;26565,952;81,71454
 903,70;21565,844;  213,131;26298,029;81,85853
 904,26;21482,767;  201,515;26190,029;81,88715
 904,82;21444,229;  214,669;26156,337;81,83576
 905,37;21366,460;  222,131;26028,567;81,93432
 905,93;21178,229;  205,362;25822,644;81,86999
 906,48;21271,383;  215,977;25838,567;82,17516
 907,04;21140,767;  232,054;25749,260;81,93967
 907,60;21086,229;  208,592;25580,875;82,28521
 908,15;21025,844;  199,131;25376,567;82,71975
 908,71;21057,383;  231,054;25396,029;82,75919
 909,26;20894,613;  207,823;25226,721;82,68466
 909,82;20880,921;  224,900;25071,106;83,13552
 910,37;20899,921;  259,515;25026,337;83,33894
 910,93;20722,767;  203,054;24826,490;83,33408
 911,48;20619,921;  201,515;24648,413;83,52146
 912,04;20579,998;  197,515;24614,875;83,47538
 912,60;20635,460;  222,592;24608,337;83,70820
 913,15;20531,921;  223,746;24384,413;84,05469
 913,71;20400,537;  216,285;24195,337;84,17452
 914,26;20339,537;  195,977;24064,798;84,39277
 914,82;20341,921;  212,054;23967,875;84,73657
 915,37;20283,844;  205,592;23966,721;84,50041
 915,93;20172,152;  258,208;23832,721;84,47234
 916,48;20153,537;  205,592;23705,952;84,88357
 917,04;20075,998;  231,823;23544,337;85,12242
 917,59;20067,152;  238,515;23475,721;85,33142
 918,15;19883,537;  184,746;23311,029;85,17923
 918,70;19837,998;  214,054;23211,875;85,32958
 919,26;19850,383;  212,977;23183,875;85,48819
 919,81;19692,075;  199,208;22977,413;85,57683
 920,37;19662,998;  206,823;22853,952;85,91012
 920,92;19518,537;  225,900;22825,798;85,36603
 921,48;19450,152;  190,900;22624,721;85,84918
 922,03;19450,998;  198,362;22584,490;86,00253
 922,59;19295,229;  203,669;22434,567;85,87849
 923,14;19268,075;  203,208;22254,490;86,45695
 923,69;19231,383;  237,208;22258,490;86,25372
 924,25;19143,383;  231,823;22196,490;86,09991
 924,80;19030,921;  211,823;21988,260;86,41955
 925,36;19014,998;  198,362;21896,567;86,71978
 925,91;18848,152;  213,054;21771,029;86,44178
 926,47;18832,921;  200,438;21696,106;86,68018
 927,02;18835,460;  253,977;21614,337;86,99050
 927,57;18692,460;  218,823;21509,183;86,76996
 928,13;18652,690;  207,746;21357,875;87,20961
 928,68;18626,306;  213,362;21359,875;87,07319
 929,24;18480,383;  187,131;21070,029;87,59920
 929,79;18378,306;  203,669;21006,952;87,36427
 930,34;18328,075;  215,592;20851,490;87,77172
 930,90;18288,075;  207,131;20847,798;87,59864
 931,45;18292,075;  214,131;20843,490;87,63212
 932,01;18234,613;  229,515;20694,183;87,98139
 932,56;18219,075;  238,438;20547,721;88,53408
 933,11;18191,152;  244,592;20476,798;88,70293
 933,67;18061,844;  211,208;20294,183;88,88442
 934,22;18066,537;  209,208;20273,106;89,00229
 934,77;17923,075;  233,438;20123,798;88,93573
 935,33;17920,613;  217,823;20039,875;89,30857
 935,88;17851,998;  228,054;19944,260;89,38811
 936,43;17794,998;  210,438;19825,106;89,65005
 936,99;17771,075;  216,131;19786,183;89,70311
 937,54;17558,921;  196,977;19597,875;89,49042
 938,09;17592,844;  221,977;19586,183;89,70607
 938,65;17454,537;  231,054;19423,183;89,74243
 939,20;17437,152;  198,362;19304,644;90,22577
 939,75;17291,152;  197,285;19205,029;89,93107
 940,31;17214,460;  201,131;19061,413;90,20718
 940,86;17264,613;  219,669;19111,644;90,22320
 941,41;17179,998;  273,823;19012,337;90,22154
 941,96;16990,921;  209,438;18860,106;89,97792
 942,52;17002,460;  217,746;18744,952;90,59495
 943,07;16894,537;  195,669;18638,644;90,54324
 943,62;16850,460;  206,900;18532,029;90,82370
 944,18;16903,998;  189,900;18484,183;91,36241
 944,73;16768,460;  206,362;18377,106;91,14705
 945,28;16548,690;  177,515;18157,106;91,05422
 945,83;16680,537;  207,515;18180,106;91,65635
 946,39;16682,152;  207,208;18103,644;92,05712
 946,94;16620,613;  232,208;18063,413;91,90857
 947,49;16562,075;  200,900;17941,490;92,22452
 948,04;16542,152;  234,977;17890,490;92,36307
 948,59;16539,383;  231,592;17853,260;92,54397
 949,15;16493,460;  198,131;17732,413;92,93411
 949,70;16374,998;  195,362;17628,952;92,80725
 950,25;16305,306;  217,362;17560,413;92,76305
 950,80;16314,767;  173,823;17422,644;93,57709
 951,36;16245,229;  173,823;17359,183;93,51801
 951,91;16315,767;  225,746;17327,875;94,08198
 952,46;16122,152;  195,285;17151,106;93,93156
 953,01;16266,152;  218,669;17183,260;94,59399
 953,56;16097,075;  200,823;17027,106;94,47275
 954,11;16026,998;  224,438;16970,337;94,36675
 954,67;15924,537;  206,362;16925,721;94,01182
 955,22;15796,613;  191,362;16792,875;93,99897
 955,77;15840,537;  230,823;16717,721;94,67950
 956,32;15775,613;  255,515;16593,337;94,99491
 956,87;15621,383;  201,592;16475,644;94,75078
 957,42;15594,613;  208,285;16469,490;94,61985
 957,98;15608,306;  204,054;16331,567;95,51536
 958,53;15558,690;  224,669;16315,106;95,29898
 959,08;15456,306;  196,669;16148,106;95,66309
 959,63;15335,306;  208,131;16079,183;95,31300
 960,18;15356,690;  217,285;16020,183;95,80145
 960,73;15279,306;  214,285;15973,337;95,59599
 961,28;15142,383;  190,285;15852,106;95,46845
 961,83;15102,613;  225,438;15834,106;95,31355
 962,39;15034,306;  192,515;15666,337;95,91548
 962,94;14973,229;  217,362;15576,337;96,07326
 963,49;14830,613;  209,515;15429,106;96,06762
 964,04;14865,613;  224,054;15424,644;96,32231
 964,59;14699,613;  187,438;15327,952;95,84995
 965,14;14676,229;  227,285;15264,183;96,08993
 965,69;14587,229;  217,054;15197,183;95,92825
 966,24;14553,844;  199,285;15073,952;96,50340
 966,79;14518,767;  221,208;14977,644;96,89033
 967,34;14367,613;  185,438;14850,952;96,70425
 967,89;14362,537;  187,592;14833,952;96,78135
 968,44;14296,998;  218,669;14708,644;97,15910
 968,99;14301,306;  214,362;14658,260;97,52869
 969,55;14265,844;  215,746;14575,413;97,84418
 970,10;14183,229;  214,823;14487,721;97,86664
 970,65;14090,152;  218,592;14401,260;97,80642
 971,20;14046,229;  198,977;14237,490;98,63759
 971,75;13846,306;  190,362;14092,644;98,22807
 972,30;13876,844;  211,669;14052,721;98,72931
 972,85;13792,460;  188,823;13959,798;98,78485
 973,40;13738,998;  199,208;13830,721;99,32712
 973,95;13694,767;  213,208;13790,029;99,29835
 974,50;13713,998;  227,438;13743,875;99,77896
 975,05;13590,613;  207,054;13596,644;99,95496
 975,60;13556,998;  226,054;13553,721;100,02459
 976,15;13475,537;  203,054;13518,875;99,67453
 976,70;13409,229;  227,746;13395,875;100,10141
 977,25;13276,613;  221,746;13325,644;99,62583
 977,80;13150,152;  198,208;13137,875;100,09488
 978,35;13030,767;  218,900;13099,337;99,46765
 978,89;12981,383;  192,977;12973,875;100,05874
 979,44;13002,152;  208,515;12963,260;100,30492
 979,99;12821,537;  201,669;12699,490;100,97654
 980,54;12760,152;  242,977;12649,106;100,89509
 981,09;12705,921;  221,515;12634,490;100,57545
 981,64;12554,767;  222,746;12474,644;100,65396
 982,19;12514,767;  251,669;12398,875;100,95407
 982,74;12419,998;  227,438;12283,875;101,12905
 983,29;12331,383;  207,054;12128,952;101,69797
 983,84;12257,921;  221,054;12035,644;101,88138
 984,39;12160,767;  266,592;12028,490;101,12462
 984,94;11999,844;  188,900;11850,106;101,28407
 985,49;12044,613;  232,669;11772,952;102,35403
 986,03;11961,537;  234,131;11732,337;101,99335
 986,58;11848,383;  250,900;11542,798;102,70623
 987,13;11770,306;  218,746;11436,337;102,97719
 987,68;11694,767;  237,900;11319,337;103,38793
 988,23;11717,152;  229,131;11326,337;103,52175
 988,78;11557,152;  211,592;11094,567;104,25053
 989,33;11430,613;  234,285;11014,798;103,85710
 989,88;11404,844;  247,900;10998,183;103,78280
 990,42;11304,229;  212,823;10821,875;104,54663
 990,97;11190,998;  206,592;10711,413;104,56538
 991,52;11176,075;  241,977;10690,260;104,64972
 992,07;11101,460;  240,592;10568,413;105,16126
 992,62;11025,921;  222,746;10467,337;105,45248
 993,17;10909,998;  239,285;10346,567;105,57450
 993,71;10807,460;  229,977;10217,106;105,91115
 994,26;10714,383;  208,362;10090,029;106,31830
 994,81;10668,921;  248,823;10088,567;105,89806
 995,36;10491,921;  207,977; 9906,567;106,03545
 995,91;10505,998;  221,823; 9849,644;106,81726
 996,45;10423,460;  221,592; 9761,029;106,94413
 997,00;10254,844;  196,746; 9621,875;106,71576
 997,55;10233,537;  225,900; 9569,875;107,10256
 998,10;10158,075;  250,131; 9448,567;107,71335
 998,65;10071,075;  215,054; 9386,490;107,46431
 999,19; 9943,767;  236,208; 9250,106;107,69547
 999,74; 9880,075;  254,362; 9150,337;108,20302
1000,29; 9829,152;  231,285; 9101,337;108,20531
1000,84; 9641,075;  219,746; 8956,490;107,83569
1001,38; 9562,998;  224,054; 8857,413;108,17277
1001,93; 9510,383;  236,438; 8790,413;108,41678
1002,48; 9315,152;  209,208; 8639,260;108,01765
1003,03; 9338,767;  239,054; 8581,644;109,07540
1003,57; 9210,537;  233,285; 8459,106;109,13502
1004,12; 9121,921;  256,362; 8424,029;108,54457
1004,67; 9083,921;  213,669; 8306,798;109,60226
1005,22; 8956,306;  217,438; 8128,567;110,46296
1005,76; 8757,613;  208,285; 8041,413;109,14322
1006,31; 8770,998;  238,054; 8020,952;109,63711
1006,86; 8625,306;  216,592; 7854,721;110,08866
1007,40; 8512,075;  207,362; 7722,183;110,51113
1007,95; 8431,537;  226,823; 7679,875;110,08529
1008,50; 8321,229;  229,208; 7576,260;110,13970
1009,04; 8276,690;  223,515; 7426,952;111,79629
1009,59; 8123,460;  230,362; 7305,260;111,56483
1010,14; 7977,613;  216,515; 7213,798;110,91589
1010,68; 7912,767;  222,592; 7073,029;112,25817
1011,23; 7824,767;  223,054; 6976,337;112,56323
1011,78; 7759,767;  226,362; 6949,567;112,05080
1012,32; 7631,844;  234,208; 6817,106;112,37659
1012,87; 7597,690;  244,592; 6759,875;112,85923
1013,42; 7461,613;  217,054; 6651,798;112,58504
1013,96; 7511,613;  248,054; 6665,644;113,18204
1014,51; 7448,460;  187,438; 6541,644;114,27111
1015,06; 7457,075;  190,823; 6563,413;114,02352
1015,60; 7546,998;  268,977; 6603,875;114,88774
1016,15; 7496,075;  217,131; 6581,029;114,37871
1016,69; 7530,306;  219,362; 6592,183;114,72069
1017,24; 7553,383;  203,515; 6614,952;114,63683
1017,79; 7667,306;  242,362; 6666,260;115,58316
1018,33; 7683,767;  218,669; 6645,952;116,14703
1018,88; 7770,921;  224,515; 6727,644;116,04269
1019,42; 7752,690;  219,669; 6695,029;116,33363
1019,97; 7737,998;  216,131; 6701,798;115,97677
1020,51; 7846,921;  232,438; 6727,798;117,22958
1021,06; 7775,767;  198,900; 6726,721;116,07039
1021,61; 7753,229;  191,669; 6679,337;116,55283
1022,15; 7697,229;  171,131; 6656,260;116,05164
1022,70; 7751,537;  215,977; 6651,106;117,10037
1023,24; 7711,075;  211,131; 6634,260;116,76465
1023,79; 7602,998;  225,977; 6554,644;116,56516
1024,33; 7551,921;  204,977; 6513,875;116,45368
1024,88; 7492,998;  223,362; 6409,490;117,51512
1025,42; 7357,613;  228,515; 6312,798;117,17237
1025,97; 7305,690;  210,746; 6220,798;118,05130
1026,51; 7148,229;  183,746; 6119,721;117,32669
1027,06; 7093,075;  211,592; 6090,644;117,05089
1027,60; 6959,152;  217,669; 5963,106;117,33630
1028,15; 6889,690;  215,977; 5864,260;118,15474
1028,69; 6786,998;  182,823; 5754,875;118,52321
1029,24; 6734,306;  192,054; 5702,260;118,72972
1029,78; 6577,921;  197,669; 5573,337;118,68763
1030,33; 6463,229;  186,669; 5471,413;118,76752
1030,87; 6419,767;  206,669; 5435,260;118,82931
1031,42; 6333,921;  196,208; 5321,952;119,74287
1031,96; 6254,767;  210,977; 5266,721;119,54304
1032,51; 6126,229;  196,515; 5181,029;118,96273
1033,05; 6074,383;  223,823; 5123,183;119,41478
1033,60; 5928,537;  176,285; 5016,413;118,84502
1034,14; 5883,306;  207,438; 4937,798;119,98807
1034,69; 5815,690;  207,977; 4890,952;119,74682
1035,23; 5721,152;  214,669; 4825,644;119,42122
1035,77; 5669,229;  208,823; 4753,567;120,14770
1036,32; 5568,921;  182,515; 4679,183;119,78662
1036,86; 5538,921;  208,823; 4631,029;120,53030
1037,41; 5459,460;  225,900; 4570,106;120,47219
1037,95; 5389,690;  197,285; 4478,875;121,27283
1038,50; 5313,767;  206,208; 4419,413;121,22740
1039,04; 5278,152;  229,823; 4396,106;121,17106
1039,58; 5173,229;  191,977; 4271,952;122,09026
1040,13; 5117,844;  205,900; 4232,644;121,98302
1040,67; 5107,998;  231,515; 4220,952;122,23487
1041,21; 5018,767;  240,362; 4134,490;122,70795
1041,76; 4911,844;  191,054; 4041,798;122,59423
1042,30; 4885,998;  210,131; 4005,567;123,19709
1042,85; 4779,690;  202,285; 3944,952;122,30330
1043,39; 4726,537;  182,977; 3902,567;122,15215
1043,93; 4680,844;  230,592; 3840,952;123,26340
1044,48; 4595,460;  218,131; 3782,029;122,82419
1045,02; 4558,075;  205,592; 3719,337;123,87022
1045,56; 4550,613;  227,592; 3712,721;124,04193
1046,11; 4468,537;  217,054; 3637,952;124,27972
1046,65; 4373,383;  222,285; 3593,260;123,14236
1047,19; 4337,460;  203,131; 3541,952;123,82600
1047,74; 4300,767;  196,438; 3461,106;125,71967
1048,28; 4253,613;  217,900; 3456,183;124,62511
1048,82; 4193,383;  232,746; 3444,875;123,30254
1049,37; 4142,460;  214,131; 3353,260;125,14073
1049,91; 4100,383;  210,592; 3303,337;125,77149
1050,45; 4064,767;  233,823; 3275,260;125,95838
1050,99; 3981,844;  223,592; 3208,875;125,89266
1051,54; 3961,460;  200,054; 3155,490;127,27073
1052,08; 3951,844;  233,823; 3143,798;127,76815
1052,62; 3905,767;  228,746; 3106,183;127,78809
1053,16; 3796,229;  202,515; 3023,413;127,39608
1053,71; 3786,537;  218,208; 2998,490;128,34410
1054,25; 3750,998;  229,669; 2944,260;129,71861
1054,79; 3699,460;  224,208; 2919,337;128,94567
1055,33; 3597,690;  200,208; 2847,183;128,35341
1055,88; 3625,075;  217,208; 2836,875;130,08779
1056,42; 3547,537;  237,054; 2800,260;129,15400
1056,96; 3514,537;  222,438; 2756,413;129,91833
1057,50; 3483,998;  224,977; 2719,875;130,62743
1058,05; 3410,229;  211,515; 2668,337;130,19725
1058,59; 3409,075;  236,669; 2644,798;131,73738
1059,13; 3297,383;  207,208; 2565,798;131,01787
1059,67; 3273,383;  228,592; 2571,875;129,93696
1060,21; 3209,537;  213,438; 2509,644;130,48038
1060,76; 3193,844;  221,131; 2466,567;132,38911
1061,30; 3197,460;  252,285; 2455,183;133,69547
1061,84; 3084,998;  222,362; 2384,798;132,38014
1062,38; 3044,383;  204,592; 2356,798;131,94790
1062,92; 3078,383;  261,438; 2380,798;132,91488
1063,46; 3002,690;  242,054; 2309,490;133,52945
1064,01; 2940,998;  219,977; 2266,490;132,95887
1064,55; 2896,921;  236,362; 2241,875;132,66227
1065,09; 2814,075;  195,515; 2187,413;131,46052
1065,63; 2851,690;  237,438; 2210,337;132,50821
1066,17; 2820,844;  246,746; 2165,106;134,18225
1066,71; 2782,537;  245,977; 2155,260;132,85406
1067,25; 2704,767;  211,977; 2073,567;133,90649
1067,80; 2701,844;  233,977; 2083,337;133,44443
1068,34; 2665,383;  256,823; 2076,721;132,34585
1068,88; 2583,998;  225,285; 2010,721;132,10850
1069,42; 2615,613;  246,669; 2016,644;133,84055
1069,96; 2555,537;  218,900; 1972,798;133,22533
1070,50; 2554,152;  253,900; 1974,490;133,68969
1071,04; 2475,767;  219,592; 1929,106;131,97761
1071,58; 2444,613;  221,054; 1891,952;133,07572
1072,12; 2429,152;  225,054; 1878,337;133,31647
1072,66; 2426,229;  219,438; 1877,798;133,07068
1073,21; 2416,613;  251,208; 1844,644;135,89533
1073,75; 2369,075;  235,977; 1817,567;134,87045
1074,29; 2322,152;  231,592; 1802,798;133,05448
1074,83; 2311,306;  248,362; 1780,183;134,67266
1075,37; 2292,229;  234,900; 1765,567;134,40732
1075,91; 2285,613;  239,669; 1729,644;137,31400
1076,45; 2225,844;  234,438; 1726,875;133,43320
1076,99; 2199,613;  239,131; 1711,875;133,11766
1077,53; 2175,998;  224,669; 1659,798;135,96890
1078,07; 2174,613;  237,438; 1644,413;137,68368
1078,61; 2109,613;  235,054; 1618,721;135,47763
1079,15; 2094,383;  228,054; 1603,183;135,72029
1079,69; 2083,998;  227,669; 1595,106;135,75247
1080,23; 2068,613;  247,592; 1583,106;136,35364
1080,77; 2078,690;  272,669; 1589,413;137,15808
1081,31; 2006,613;  232,362; 1519,106;137,88691
1081,85; 1995,460;  245,592; 1513,413;138,02162
1082,39; 1953,460;  228,592; 1497,413;135,94251
1082,93; 1943,921;  231,977; 1490,106;136,07066
1083,47; 1911,767;  219,362; 1442,952;138,31473
1084,01; 1912,921;  242,823; 1471,644;135,91059
1084,55; 1867,306;  219,823; 1425,567;136,63617
1085,09; 1871,613;  251,362; 1429,721;137,50063
1085,63; 1841,229;  232,131; 1402,721;137,46039
1086,17; 1808,767;  233,669; 1392,798;135,88637
1086,71; 1788,921;  223,592; 1361,029;137,61900
1087,24; 1789,844;  259,977; 1383,490;136,16813
1087,78; 1772,152;  244,515; 1349,875;138,20267
1088,32; 1715,844;  219,285; 1303,106;138,08179
1088,86; 1730,383;  245,592; 1337,952;135,92505
1089,40; 1695,690;  232,362; 1287,183;138,72767
1089,94; 1641,767;  205,900; 1253,952;137,00345
1090,48; 1653,921;  235,131; 1276,798;136,20379
1091,02; 1648,921;  236,592; 1268,567;136,85689
1091,56; 1634,844;  230,977; 1226,183;141,06302
1092,10; 1593,229;  213,131; 1219,260;137,16912
1092,63; 1593,613;  253,515; 1241,721;135,60921
1093,17; 1566,075;  243,746; 1199,337;138,37821
1093,71; 1525,844;  233,977; 1161,952;139,21359
1094,25; 1543,613;  241,592; 1181,337;138,55059
1094,79; 1528,921;  233,746; 1151,260;141,16142
1095,33; 1491,921;  223,285; 1132,260;139,56781
1095,87; 1476,460;  236,977; 1114,183;141,29897
1096,40; 1432,075;  208,438; 1093,413;138,26792
1096,94; 1434,998;  231,977; 1091,644;139,94032
1097,48; 1453,767;  235,900; 1093,644;141,98490
1098,02; 1421,844;  231,823; 1077,952;140,64302
1098,56; 1375,844;  200,054; 1020,490;143,31278
1099,10; 1353,613;  204,746; 1029,798;139,24788
1099,63; 1353,767;  217,746; 1026,567;140,45394
1100,17; 1353,613;  236,131; 1015,875;143,31401
1100,71; 1369,537;  251,131; 1039,337;141,89261

