
Integration time [ms]: 120,000
Averaging Nr. [scans]: 13
Smoothing Nr. [pixels]: 0
Data measured with spectrometer [name]: 2009305U1
Wave   ;Sample   ;Dark     ;Reference;Reflectance
[nm]   ;[counts] ;[counts] ;[counts] ;[%]

 175,72;  189,041;  180,833;  191,616;76,11435
 176,32;  225,822;  215,990;  205,830; 0,00000
 176,92;  239,032;  229,834;  222,246; 0,00000
 177,52;  241,536;  236,526;  244,165;65,57631
 178,12;  229,879;  208,451;  206,206; 0,00000
 178,72;  246,377;  251,221;  231,626; 0,00000
 179,32;  252,502;  235,374;  241,551;277,31716
 179,92;  235,933;  226,296;  232,982;144,14967
 180,52;  237,499;  224,140;  232,362;162,47823
 181,12;  237,562;  239,758;  227,870; 0,00000
 181,73;  260,329;  252,681;  246,845; 0,00000
 182,33;  323,779;  287,141;  296,554;389,23603
 182,93;  252,256;  238,218;  239,049; 0,00000
 183,53;  238,544;  221,914;  211,552; 0,00000
 184,13;  241,186;  226,067;  208,020; 0,00000
 184,73;  267,413;  239,222;  244,662;518,22321
 185,33;  260,503;  220,544;  327,372;37,40489
 185,93;  251,528;  223,931;  342,281;23,31813
 186,53;  272,562;  224,930;  357,049;36,05280
 187,13;  294,733;  260,620;  391,758;26,01304
 187,73;  265,728;  215,084;  348,757;37,88620
 188,33;  260,952;  233,624;  352,027;23,08074
 188,93;  275,846;  229,088;  364,122;34,62670
 189,53;  278,879;  237,860;  373,029;30,34620
 190,13;  296,148;  264,172;  387,292;25,97171
 190,73;  245,251;  208,323;  350,756;25,92668
 191,34;  281,014;  242,782;  366,317;30,94874
 191,94;  265,220;  223,548;  336,479;36,90094
 192,54;  290,888;  237,926;  378,284;37,73337
 193,14;  280,400;  253,389;  377,053;21,84188
 193,74;  281,847;  240,928;  375,094;30,49854
 194,34;  269,933;  225,620;  368,849;30,93866
 194,94;  245,813;  206,851;  329,783;31,69362
 195,54;  220,625;  193,775;  319,624;21,33530
 196,14;  241,134;  206,773;  347,011;24,50196
 196,74;  238,477;  189,083;  336,366;33,53652
 197,34;  221,794;  191,080;  333,186;21,61334
 197,94;  244,883;  220,389;  354,201;18,30472
 198,54;  251,968;  211,850;  369,501;25,44735
 199,14;  239,940;  200,618;  383,266;21,52891
 199,74;  227,604;  190,002;  374,459;20,38516
 200,34;  220,561;  195,310;  377,963;13,82474
 200,94;  251,840;  224,080;  416,700;14,41196
 201,54;  244,104;  203,618;  418,712;18,82235
 202,14;  257,435;  207,078;  463,501;19,63803
 202,74;  248,777;  204,310;  467,005;16,92740
 203,34;  228,570;  183,924;  482,218;14,96707
 203,94;  215,756;  159,693;  479,774;17,51505
 204,54;  277,475;  226,466;  575,406;14,61834
 205,14;  235,620;  181,233;  597,679;13,05976
 205,74;  283,395;  220,385;  673,909;13,89338
 206,34;  240,835;  196,617;  691,953; 8,92697
 206,94;  275,368;  202,463;  765,871;12,93995
 207,54;  258,778;  183,078;  792,191;12,42784
 208,14;  269,261;  200,078;  885,032;10,10040
 208,74;  268,332;  196,079;  947,225; 9,61897
 209,34;  288,572;  189,310; 1021,095;11,93365
 209,94;  287,001;  199,925; 1150,661; 9,15875
 210,54;  303,664;  197,770; 1234,778;10,21148
 211,14;  317,595;  195,925; 1337,813;10,65517
 211,73;  317,973;  193,387; 1426,969;10,09952
 212,33;  334,868;  219,234; 1543,276; 8,73345
 212,93;  326,773;  192,695; 1651,762; 9,18929
 213,53;  309,304;  169,156; 1692,264; 9,20142
 214,13;  319,691;  178,231; 1778,124; 8,84187
 214,73;  328,050;  173,924; 1783,809; 9,57371
 215,33;  304,616;  153,464; 1825,968; 9,03749
 215,93;  329,965;  177,308; 1954,273; 8,59088
 216,53;  301,047;  145,387; 2024,328; 8,28447
 217,13;  376,931;  194,616; 2272,846; 8,77261
 217,73;  359,294;  178,154; 2465,044; 7,92077
 218,33;  343,470;  139,461; 2650,917; 8,12313
 218,93;  372,260;  166,075; 2951,336; 7,40271
 219,53;  401,750;  187,692; 3232,648; 7,02991
 220,13;  396,619;  149,384; 3497,252; 7,38484
 220,73;  455,637;  168,233; 3876,354; 7,75066
 221,32;  473,255;  177,771; 4280,148; 7,20273
 221,92;  511,460;  180,384; 4723,009; 7,28821
 222,52;  535,813;  167,154; 5076,574; 7,50920
 223,12;  566,497;  164,923; 5511,461; 7,51092
 223,72;  601,162;  187,847; 5880,885; 7,26001
 224,32;  659,948;  181,539; 6279,098; 7,84591
 224,92;  666,693;  168,385; 6511,694; 7,85564
 225,52;  718,417;  176,232; 6903,987; 8,05892
 226,12;  759,716;  176,309; 7191,604; 8,31623
 226,72;  756,149;  159,924; 7550,881; 8,06695
 227,31;  789,201;  161,463; 7894,707; 8,11740
 227,91;  879,237;  169,233; 8344,281; 8,68502
 228,51;  898,777;  167,541; 8634,742; 8,63609
 229,11;  964,630;  169,693; 9048,889; 8,95280
 229,71; 1012,084;  165,772; 9388,242; 9,17663
 230,31; 1040,562;  157,000; 9832,452; 9,13200
 230,91; 1092,060;  154,388;10143,991; 9,38648
 231,51; 1160,039;  149,924;10451,024; 9,80589
 232,10; 1218,187;  155,000;10755,706;10,02940
 232,70; 1286,164;  173,697;10941,003;10,33190
 233,30; 1379,588;  182,539;11275,310;10,79125
 233,90; 1414,179;  162,462;11420,213;11,11871
 234,50; 1482,719;  172,385;11531,360;11,53567
 235,10; 1506,770;  161,923;11564,002;11,79475
 235,70; 1605,330;  178,156;11628,194;12,46436
 236,29; 1631,606;  187,002;11580,022;12,67973
 236,89; 1655,551;  150,542;11558,407;13,19273
 237,49; 1709,474;  176,847;11356,018;13,70966
 238,09; 1734,374;  170,540;11148,183;14,24562
 238,69; 1774,568;  183,927;10861,204;14,89744
 239,29; 1755,976;  166,309;10597,911;15,23895
 239,89; 1770,114;  177,080;10244,042;15,82438
 240,48; 1737,657;  166,463; 9914,241;16,11848
 241,08; 1746,190;  157,079; 9533,159;16,94856
 241,68; 1742,099;  190,078; 9177,310;17,26917
 242,28; 1704,915;  152,539; 8847,471;17,85380
 242,88; 1734,894;  194,231; 8599,394;18,32996
 243,48; 1741,809;  193,155; 8317,517;19,06186
 244,07; 1702,828;  179,617; 8085,646;19,26645
 244,67; 1716,205;  185,386; 7953,264;19,70704
 245,27; 1695,204;  189,233; 7792,584;19,80667
 245,87; 1712,265;  195,000; 7727,506;20,14290
 246,47; 1709,074;  169,233; 7736,450;20,34884
 247,06; 1726,348;  168,232; 7741,863;20,57291
 247,66; 1747,852;  175,155; 7837,628;20,52467
 248,26; 1803,999;  197,849; 8034,828;20,49450
 248,86; 1816,172;  185,695; 8200,066;20,34442
 249,46; 1844,144;  142,770; 8444,600;20,49396
 250,05; 1942,406;  190,925; 8825,778;20,28385
 250,65; 1943,191;  158,387; 9244,927;19,64228
 251,25; 2018,104;  168,463; 9696,052;19,41353
 251,85; 2125,308;  175,080;10334,512;19,19623
 252,44; 2167,538;  135,156;10978,206;18,74364
 253,04; 2306,868;  179,925;11733,816;18,40888
 253,64; 2362,934;  149,618;12492,068;17,93255
 254,24; 2500,587;  194,771;13455,816;17,38790
 254,84; 2627,759;  172,539;14366,600;17,29751
 255,43; 2731,956;  167,925;15334,717;16,90556
 256,03; 2837,850;  169,772;16380,108;16,45911
 256,63; 2942,911;  182,003;17437,003;16,00063
 257,23; 2975,714;  169,234;18247,898;15,52371
 257,82; 3098,914;  170,235;19226,527;15,36857
 258,42; 3130,908;  139,005;20021,528;15,04790
 259,02; 3215,268;  177,541;20909,652;14,65228
 259,62; 3220,388;  166,928;21549,235;14,28031
 260,21; 3228,243;  164,387;22062,100;13,99167
 260,81; 3223,388;  171,693;22628,603;13,58911
 261,41; 3154,849;  165,081;23039,966;13,07009
 262,01; 3140,503;  207,467;23427,257;12,63162
 262,60; 3111,175;  157,619;23733,745;12,52774
 263,20; 3065,066;  163,233;24073,112;12,13654
 263,80; 3075,134;  190,082;24287,093;11,97265
 264,40; 2963,516;  161,697;24379,530;11,56924
 264,99; 2951,449;  176,005;24602,130;11,36260
 265,59; 2890,150;  167,391;24689,627;11,10322
 266,19; 2850,183;  155,928;24774,594;10,94395
 266,78; 2868,397;  198,237;24936,956;10,79345
 267,38; 2766,747;  173,622;25027,997;10,43327
 267,98; 2760,264;  157,698;24913,573;10,51292
 268,58; 2670,491;  181,237;25021,824;10,02092
 269,17; 2646,416;  162,700;25033,970; 9,98629
 269,77; 2613,650;  174,081;24744,209; 9,92901
 270,37; 2569,619;  153,928;24629,119; 9,86996
 270,96; 2538,902;  206,620;24567,710; 9,57380
 271,56; 2494,810;  178,080;24221,983; 9,63541
 272,16; 2434,484;  157,697;24086,820; 9,51471
 272,75; 2414,286;  175,620;24013,793; 9,39110
 273,35; 2430,599;  179,696;24014,260; 9,44386
 273,95; 2439,335;  176,774;23984,217; 9,50359
 274,54; 2443,114;  151,848;23996,152; 9,60928
 275,14; 2470,377;  180,466;24481,905; 9,42295
 275,74; 2447,136;  147,158;24521,350; 9,43612
 276,33; 2537,537;  177,388;24983,295; 9,51446
 276,93; 2570,018;  173,078;25389,984; 9,50529
 277,53; 2608,963;  174,541;25857,446; 9,47877
 278,12; 2685,921;  152,003;26386,795; 9,65862
 278,72; 2829,343;  176,849;27027,203; 9,87881
 279,32; 2888,800;  164,849;27585,038; 9,93411
 279,91; 2979,818;  156,234;28394,975; 9,99897
 280,51; 3089,741;  174,541;28879,168;10,15585
 281,11; 3200,563;  173,464;29680,956;10,25875
 281,70; 3287,829;  153,464;30082,645;10,47260
 282,30; 3426,118;  154,157;30705,214;10,70981
 282,90; 3545,773;  172,850;31110,454;10,90234
 283,49; 3660,879;  188,389;31632,068;11,04352
 284,09; 3805,938;  193,157;32038,009;11,34495
 284,69; 3912,406;  184,772;32401,162;11,57062
 285,28; 4024,120;  193,003;32649,816;11,80374
 285,88; 4218,986;  199,158;32944,368;12,27608
 286,47; 4277,571;  172,234;32981,492;12,51274
 287,07; 4436,366;  195,079;33114,922;12,88368
 287,67; 4573,502;  187,770;33219,209;13,27745
 288,26; 4717,908;  167,695;33123,786;13,80690
 288,86; 4914,051;  164,388;33288,692;14,33891
 289,46; 5137,377;  184,157;33296,899;14,95865
 290,05; 5342,286;  165,540;33478,859;15,53957
 290,65; 5606,683;  178,927;33615,335;16,23307
 291,24; 5904,691;  177,849;33841,751;17,01182
 291,84; 6185,758;  191,157;33937,926;17,76348
 292,44; 6432,620;  182,462;34096,058;18,42965
 293,03; 6785,679;  223,156;34201,856;19,31364
 293,63; 6996,903;  174,926;34369,973;19,95019
 294,22; 7283,191;  189,234;34536,312;20,65374
 294,82; 7470,832;  179,697;34492,868;21,24879
 295,41; 7612,829;  165,003;34197,568;21,88441
 296,01; 7857,867;  211,851;34125,673;22,54543
 296,61; 7923,861;  180,464;33816,356;23,02123
 297,20; 8066,641;  191,158;33430,146;23,69351
 297,80; 8158,409;  184,540;33316,027;24,06734
 298,39; 8233,077;  165,388;32876,205;24,66367
 298,99; 8353,388;  184,773;32830,729;25,02183
 299,58; 8378,233;  178,232;32575,610;25,31069
 300,18; 8493,934;  198,694;32461,293;25,71163
 300,78; 8519,672;  168,156;32123,429;26,13502
 301,37; 8577,861;  185,775;32118,559;26,28047
 301,97; 8715,122;  182,233;32203,265;26,64776
 302,56; 8750,975;  179,311;32045,807;26,89867
 303,16; 8793,751;  161,850;32031,081;27,08537
 303,75; 8877,621;  175,617;32111,672;27,24821
 304,35; 9056,129;  180,308;32339,450;27,59968
 304,94; 9107,054;  174,541;32243,218;27,85432
 305,54; 9184,255;  189,387;32332,225;27,98405
 306,13; 9145,085;  144,231;32182,885;28,09373
 306,73; 9217,660;  170,539;31948,375;28,46991
 307,33; 9288,918;  196,616;31974,419;28,61212
 307,92; 9303,626;  170,233;32028,953;28,66842
 308,52; 9554,102;  165,927;32522,647;29,01461
 309,11; 9770,466;  178,005;33043,998;29,18658
 309,71; 9842,130;  150,467;33305,075;29,23172
 310,30;10024,132;  156,772;33566,903;29,53403
 310,90;10188,516;  166,695;33867,750;29,73741
 311,49;10259,767;  170,772;33965,911;29,85339
 312,09;10290,574;  141,156;34235,313;29,76879
 312,68;10515,073;  194,310;34546,187;30,04425
 313,28;10562,088;  155,925;34701,261;30,12321
 313,87;10639,034;  143,079;34852,825;30,23921
 314,47;10751,038;  161,543;35042,348;30,35909
 315,06;10833,303;  158,925;35257,963;30,41216
 315,66;10910,728;  153,309;35396,620;30,52329
 316,25;10843,654;  130,696;35361,073;30,40830
 316,85;10899,020;  141,232;35402,400;30,50888
 317,44;10928,280;  165,005;35637,019;30,34301
 318,04;10925,721;  148,850;35682,935;30,32826
 318,63;10918,980;  138,847;35639,731;30,36582
 319,22;10996,084;  178,081;35952,863;30,23919
 319,82;10965,354;  171,849;35909,604;30,20197
 320,41;10902,424;  166,773;35801,913;30,12659
 321,01;10867,007;  174,925;35946,743;29,88968
 321,60;10910,978;  177,541;36090,787;29,88713
 322,20;10876,481;  165,541;36091,598;29,81385
 322,79;10915,238;  206,387;36256,012;29,70586
 323,39;10833,703;  167,616;36247,448;29,56246
 323,98;10759,870;  153,925;36227,687;29,40072
 324,58;10704,268;  166,465;35941,080;29,45609
 325,17;10630,982;  178,542;35835,844;29,31360
 325,76;10552,499;  188,387;35706,920;29,17945
 326,36;10380,278;  155,310;35312,598;29,08349
 326,95;10253,703;  179,157;34951,299;28,97304
 327,55;10130,820;  155,080;34618,622;28,94578
 328,14; 9957,183;  164,232;34226,423;28,75021
 328,74; 9853,003;  191,157;33734,614;28,80397
 329,33; 9685,127;  186,386;33337,309;28,65302
 329,92; 9464,551;  160,466;32814,951;28,49252
 330,52; 9258,382;  167,847;32098,290;28,46980
 331,11; 9091,990;  176,926;31719,990;28,26315
 331,71; 8865,049;  166,541;31060,437;28,15607
 332,30; 8705,208;  195,233;30588,371;27,99966
 332,89; 8548,763;  189,310;30115,855;27,93324
 333,49; 8305,639;  171,311;29579,962;27,65964
 334,08; 8132,423;  173,157;29095,497;27,51944
 334,68; 7962,844;  172,926;28691,257;27,31548
 335,27; 7848,675;  178,001;28326,217;27,25101
 335,86; 7756,144;  199,926;28145,759;27,03880
 336,46; 7597,991;  187,924;27910,632;26,72923
 337,05; 7439,428;  169,465;27721,124;26,38666
 337,65; 7379,241;  165,465;27576,690;26,31687
 338,24; 7400,064;  222,310;27590,311;26,22681
 338,83; 7298,984;  189,079;27497,908;26,03519
 339,43; 7233,278;  171,773;27519,795;25,82090
 340,02; 7172,467;  176,619;27395,254;25,70242
 340,61; 7171,752;  156,849;27340,223;25,80586
 341,21; 7126,849;  207,080;27425,460;25,42315
 341,80; 7059,245;  166,157;27398,400;25,31223
 342,40; 7018,148;  172,847;27471,810;25,07531
 342,99; 7052,609;  169,464;27569,932;25,12054
 343,58; 7034,666;  165,002;27789,616;24,86791
 344,18; 7009,671;  174,386;27918,013;24,63731
 344,77; 7008,585;  159,619;28255,494;24,37712
 345,36; 7057,627;  148,157;28592,837;24,29090
 345,96; 7113,767;  196,233;28843,636;24,14716
 346,55; 7103,788;  166,924;29079,939;23,99219
 347,14; 7171,877;  138,078;29554,186;23,91138
 347,74; 7215,132;  137,922;29885,239;23,79108
 348,33; 7330,721;  165,461;30658,380;23,49811
 348,92; 7436,306;  182,306;31199,510;23,38702
 349,52; 7483,562;  155,153;31645,638;23,27182
 350,11; 7476,887;  158,235;31788,560;23,13809
 350,70; 7470,023;  168,156;31891,770;23,01713
 351,29; 7356,757;  155,160;31538,321;22,94733
 351,89; 7279,992;  169,620;31565,719;22,64731
 352,48; 7239,832;  146,156;31540,779;22,59519
 353,07; 7213,210;  174,770;31503,891;22,46613
 353,67; 7111,015;  183,460;31367,878;22,21480
 354,26; 7023,581;  170,078;31221,850;22,07121
 354,85; 6933,980;  171,848;31093,391;21,86868
 355,45; 6846,062;  154,773;30800,292;21,83448
 356,04; 6759,292;  162,539;30718,211;21,58929
 356,63; 6678,635;  186,541;30530,252;21,39519
 357,22; 6630,813;  179,236;30360,513;21,37609
 357,82; 6550,297;  170,620;30163,886;21,27036
 358,41; 6462,556;  175,618;29998,227;21,08111
 359,00; 6341,444;  159,696;29820,074;20,84177
 359,60; 6297,898;  176,079;29766,725;20,68836
 360,19; 6194,730;  164,232;29545,185;20,52520
 360,78; 6152,755;  169,234;29390,978;20,47626
 361,37; 6059,727;  170,849;29142,709;20,32620
 361,97; 6019,409;  176,695;29019,802;20,25688
 362,56; 5900,519;  149,235;28734,626;20,11966
 363,15; 5855,876;  180,619;28421,467;20,09592
 363,74; 5716,330;  167,389;28015,436;19,92578
 364,34; 5645,460;  197,234;27669,910;19,83143
 364,93; 5476,105;  156,312;27286,056;19,60871
 365,52; 5363,914;  135,541;26853,836;19,56851
 366,11; 5243,072;  167,004;26545,738;19,24303
 366,71; 5158,468;  159,850;26166,171;19,22078
 367,30; 5081,602;  164,541;25778,202;19,19702
 367,89; 5030,765;  205,386;25566,073;19,02700
 368,48; 4912,889;  178,697;25261,668;18,87413
 369,07; 4824,408;  173,541;24861,540;18,83857
 369,67; 4736,339;  176,543;24540,152;18,71560
 370,26; 4653,044;  158,618;24300,695;18,61657
 370,85; 4591,978;  174,388;24023,095;18,52340
 371,44; 4524,874;  161,695;23750,205;18,49705
 372,03; 4451,318;  152,773;23519,343;18,39613
 372,63; 4366,149;  139,157;23167,463;18,35564
 373,22; 4310,504;  166,926;22947,855;18,18880
 373,81; 4233,581;  131,388;22618,585;18,24235
 374,40; 4171,811;  162,924;22349,087;18,06931
 374,99; 4098,584;  160,465;22083,149;17,96367
 375,59; 4057,114;  148,771;21793,460;18,05682
 376,18; 4018,617;  191,772;21778,275;17,72795
 376,77; 3968,098;  173,310;21494,476;17,79822
 377,36; 3956,403;  193,234;21442,950;17,70927
 377,95; 3899,720;  174,004;21108,941;17,79664
 378,55; 3856,545;  161,233;20989,743;17,74161
 379,14; 3858,468;  165,003;20901,210;17,81167
 379,73; 3796,048;  167,388;20872,866;17,52512
 380,32; 3822,344;  199,926;20901,850;17,49798
 380,91; 3769,485;  153,620;20729,814;17,57305
 381,50; 3778,952;  184,235;20694,665;17,52629
 382,10; 3744,114;  163,926;20527,619;17,58123
 382,69; 3735,508;  151,926;20540,681;17,57627
 383,28; 3736,095;  182,542;20435,533;17,54582
 383,87; 3704,994;  155,619;20320,437;17,60182
 384,46; 3690,715;  157,313;20311,243;17,53208
 385,05; 3744,478;  190,158;20307,848;17,66764
 385,64; 3706,918;  169,234;20308,123;17,56643
 386,24; 3694,463;  148,313;20205,088;17,68056
 386,83; 3732,462;  179,851;20378,171;17,58865
 387,42; 3765,631;  184,696;20423,893;17,69307
 388,01; 3796,994;  164,775;20658,595;17,72348
 388,60; 3835,639;  182,159;20940,852;17,59976
 389,19; 3879,459;  148,854;21177,158;17,74088
 389,78; 3972,745;  158,238;21403,433;17,95468
 390,37; 4056,925;  203,390;21849,895;17,80211
 390,96; 4085,609;  173,928;22000,135;17,92194
 391,56; 4128,222;  172,085;22146,082;18,00372
 392,15; 4179,779;  167,468;22456,091;18,00161
 392,74; 4172,680;  137,240;22560,800;17,99643
 393,33; 4296,119;  155,162;22902,223;18,20436
 393,92; 4446,269;  175,241;23335,370;18,44130
 394,51; 4428,572;  150,393;23479,193;18,33862
 395,10; 4525,491;  186,629;23705,428;18,44849
 395,69; 4554,129;  168,013;23840,724;18,52815
 396,28; 4615,278;  169,399;23925,641;18,71457
 396,87; 4655,048;  175,401;24000,568;18,80216
 397,46; 4652,172;  173,710;24137,395;18,68853
 398,06; 4761,195;  179,789;24328,465;18,97167
 398,65; 4803,133;  171,025;24434,208;19,09110
 399,24; 4848,387;  171,487;24543,971;19,18926
 399,83; 4836,439;  158,032;24611,479;19,13189
 400,42; 4953,103;  190,423;24757,000;19,38683
 401,01; 4937,207;  148,661;24859,341;19,37845
 401,60; 4998,306;  170,363;24852,444;19,56052
 402,19; 5043,139;  185,140;24698,737;19,81757
 402,78; 5040,431;  187,998;24760,598;19,74733
 403,37; 5047,181;  180,240;24526,864;19,99021
 403,96; 5054,448;  173,330;24410,096;20,13931
 404,55; 5059,118;  170,729;24387,732;20,18577
 405,14; 5055,101;  162,973;24197,759;20,35437
 405,73; 5076,745;  164,681;24105,196;20,51779
 406,32; 5105,880;  169,230;24021,341;20,69691
 406,91; 5017,307;  168,857;23703,149;20,60164
 407,50; 5119,486;  162,094;23466,882;21,27199
 408,09; 5050,551;  160,406;23228,657;21,19859
 408,68; 5049,308;  174,332;23038,889;21,32110
 409,27; 5037,192;  154,251;22971,934;21,39981
 409,86; 5076,314;  156,473;22793,269;21,73382
 410,45; 5100,564;  180,926;22668,443;21,87719
 411,04; 5127,928;  188,380;22614,601;22,02577
 411,63; 5062,632;  172,831;22332,112;22,06661
 412,22; 5051,881;  177,129;22114,787;22,22093
 412,81; 5056,607;  180,203;21840,396;22,51321
 413,40; 5054,481;  195,198;21520,995;22,78594
 413,99; 5023,857;  215,276;21177,971;22,93875
 414,58; 4929,834;  166,276;20807,054;23,07839
 415,17; 4867,656;  166,818;20572,743;23,03663
 415,76; 4888,008;  163,283;20478,550;23,25702
 416,35; 4869,259;  155,974;20330,508;23,36255
 416,94; 4957,924;  181,359;20393,315;23,63237
 417,53; 5025,366;  163,741;20638,643;23,74432
 418,12; 5091,728;  160,509;20715,187;23,99074
 418,71; 5222,344;  171,275;21038,132;24,20618
 419,30; 5265,896;  169,816;21160,530;24,27778
 419,89; 5361,727;  157,969;21360,650;24,54292
 420,48; 5451,098;  190,583;21640,912;24,52417
 421,07; 5507,276;  171,428;21678,656;24,80956
 421,66; 5530,302;  147,580;21632,933;25,05298
 422,25; 5582,128;  155,345;21600,530;25,30536
 422,84; 5616,764;  192,345;21556,641;25,39012
 423,43; 5576,175;  171,192;21226,851;25,66997
 424,02; 5590,200;  185,961;20948,980;26,02819
 424,60; 5509,213;  162,495;20544,660;26,23234
 425,19; 5466,186;  166,036;20362,319;26,24320
 425,78; 5505,143;  195,343;20305,515;26,40355
 426,37; 5464,502;  193,572;20075,305;26,51142
 426,96; 5502,320;  170,418;20007,190;26,87888
 427,55; 5478,114;  176,800;19844,199;26,95483
 428,14; 5473,918;  152,953;19644,421;27,29895
 428,73; 5477,569;  174,724;19428,392;27,54199
 429,32; 5499,148;  182,419;19439,752;27,60885
 429,91; 5579,509;  204,494;19428,375;27,96009
 430,50; 5567,121;  182,108;19288,044;28,18503
 431,08; 5484,400;  189,414;19119,616;27,97110
 431,67; 5527,724;  221,413;18972,369;28,29888
 432,26; 5539,476;  226,489;18767,380;28,65551
 432,85; 5538,272;  235,720;18337,354;29,29322
 433,44; 5436,469;  248,641;18015,954;29,19872
 434,03; 5359,752;  258,023;17665,545;29,30761
 434,62; 5286,883;  219,872;17254,600;29,74518
 435,21; 5261,334;  230,719;17054,435;29,90192
 435,79; 5253,147;  219,486;16894,183;30,18742
 436,38; 5256,267;  214,330;16869,129;30,27318
 436,97; 5243,411;  217,022;16730,606;30,43791
 437,56; 5203,526;  215,326;16537,765;30,56039
 438,15; 5206,051;  199,865;16553,229;30,61257
 438,74; 5289,693;  228,557;16500,005;31,10440
 439,33; 5312,661;  205,019;16516,141;31,31386
 439,91; 5329,591;  178,171;16540,294;31,48381
 440,50; 5392,810;  217,556;16679,163;31,43833
 441,09; 5454,519;  215,939;16732,487;31,71716
 441,68; 5479,261;  202,860;16791,937;31,80648
 442,27; 5527,539;  183,707;16706,181;32,34281
 442,86; 5492,952;  165,625;16737,164;32,14745
 443,44; 5557,039;  182,549;16820,571;32,30246
 444,03; 5651,689;  218,471;16778,570;32,80909
 444,62; 5607,831;  175,318;16663,983;32,94696
 445,21; 5572,253;  195,087;16511,550;32,95546
 445,80; 5588,636;  197,623;16369,161;33,33643
 446,39; 5528,524;  214,701;16117,433;33,41453
 446,97; 5465,335;  169,006;15928,116;33,60805
 447,56; 5435,348;  173,311;15667,499;33,96136
 448,15; 5440,582;  173,237;15496,721;34,37433
 448,74; 5371,013;  181,544;15294,966;34,33682
 449,33; 5339,297;  177,927;15083,473;34,62718
 449,91; 5273,709;  179,002;14881,045;34,65306
 450,50; 5231,666;  158,695;14716,825;34,84631
 451,09; 5223,441;  187,002;14602,291;34,93817
 451,68; 5250,771;  209,463;14493,319;35,29375
 452,26; 5256,045;  196,538;14438,270;35,52592
 452,85; 5240,640;  175,462;14302,845;35,85362
 453,44; 5268,806;  195,074;14274,614;36,03620
 454,03; 5303,972;  167,615;14319,936;36,29339
 454,61; 5283,342;  156,305;14330,589;36,17140
 455,20; 5430,640;  195,150;14467,867;36,68180
 455,79; 5394,284;  196,537;14506,333;36,32300
 456,38; 5448,764;  186,995;14585,331;36,54429
 456,97; 5495,275;  173,610;14655,639;36,74668
 457,55; 5540,502;  172,378;14676,615;37,01073
 458,14; 5548,086;  197,226;14581,603;37,19911
 458,73; 5519,500;  183,224;14504,052;37,26234
 459,31; 5568,136;  207,145;14618,471;37,19984
 459,90; 5636,157;  212,608;14634,856;37,60543
 460,49; 5739,186;  226,070;14729,009;38,01378
 461,08; 5754,980;  167,375;14880,094;37,97805
 461,66; 5823,475;  181,069;14911,527;38,30435
 462,25; 5833,933;  182,067;15023,389;38,08196
 462,84; 5903,823;  206,914;15031,531;38,42871
 463,43; 5864,003;  151,680;14968,994;38,55167
 464,01; 5909,733;  176,525;15012,934;38,64283
 464,60; 5978,002;  215,450;14863,654;39,33965
 465,19; 5810,579;  156,679;14635,973;39,04818
 465,77; 5894,084;  170,985;14662,924;39,49160
 466,36; 5868,938;  187,526;14464,966;39,79293
 466,95; 5730,972;  183,449;14177,239;39,64275
 467,53; 5636,310;  177,061;13880,292;39,83914
 468,12; 5569,482;  199,522;13572,114;40,15646
 468,71; 5517,832;  177,601;13387,045;40,42737
 469,29; 5414,463;  164,137;13119,869;40,52512
 469,88; 5337,327;  171,752;12892,115;40,60871
 470,47; 5469,679;  211,135;13045,484;40,97242
 471,06; 5428,736;  180,289;13018,938;40,88006
 471,64; 5492,413;  180,289;13112,832;41,07563
 472,23; 5482,383;  148,670;13083,252;41,23606
 472,81; 5576,757;  147,595;13264,087;41,39187
 473,40; 5633,711;  168,747;13393,484;41,32380
 473,99; 5789,813;  227,978;13595,042;41,60850
 474,57; 5783,808;  171,593;13739,723;41,36321
 475,16; 5893,731;  179,287;13899,190;41,65076
 475,75; 5983,881;  191,130;13998,084;41,95531
 476,33; 6036,295;  205,129;14069,340;42,05913
 476,92; 6067,381;  203,439;14039,067;42,38291
 477,51; 6116,109;  173,668;14167,944;42,46337
 478,09; 6107,773;  190,437;14168,906;42,33179
 478,68; 6125,234;  193,744;14079,253;42,71712
 479,27; 6182,772;  202,284;14172,412;42,80912
 479,85; 6165,497;  180,514;14193,540;42,71014
 480,44; 6243,910;  171,359;14386,995;42,71741
 481,02; 6923,748;  180,204;16460,651;41,42112
 481,61; 7826,004;  190,359;18126,170;42,57206
 482,20; 8359,963;  181,743;19256,508;42,87455
 482,78; 8709,236;  208,744;20068,778;42,80200
 483,37; 9047,331;  202,202;20420,090;43,74903
 483,95; 9144,998;  221,433;20644,424;43,69372
 484,54; 9213,775;  241,666;20814,503;43,61143
 485,13; 9186,530;  195,123;20708,683;43,83153
 485,71; 9087,376;  185,816;20396,567;44,04369
 486,30; 9042,348;  211,585;20055,299;44,50156
 486,88; 8881,460;  229,816;19647,489;44,55552
 487,47; 8547,188;  228,046;18841,371;44,69455
 488,05; 8203,921;  217,046;17866,413;45,25304
 488,64; 7614,821;  211,506;16452,920;45,58295
 489,23; 6779,215;  218,814;14178,641;46,99486
 489,81; 5851,044;  211,583;12509,620;45,85659
 490,40; 5619,612;  176,891;12011,337;45,99051
 490,98; 5462,390;  159,659;11786,098;45,60924
 491,57; 5475,791;  198,968;11779,856;45,56493
 492,15; 5426,039;  169,274;11700,218;45,58833
 492,74; 5396,181;  177,815;11616,598;45,61994
 493,32; 5370,988;  185,659;11558,731;45,59304
 493,91; 5299,489;  173,966;11417,202;45,58761
 494,50; 5295,825;  186,656;11443,921;45,38553
 495,08; 5272,731;  171,348;11335,784;45,69315
 495,67; 5314,799;  190,428;11353,996;45,90263
 496,25; 5243,788;  144,503;11266,705;45,84780
 496,84; 5223,025;  155,274;11200,754;45,88077
 497,42; 5227,022;  150,964;11159,685;46,10942
 498,01; 5201,631;  178,043;11107,462;45,96391
 498,59; 5156,327;  143,195;11042,122;45,99657
 499,18; 5174,862;  146,427;10949,994;46,54421
 499,76; 5121,619;  170,119;10892,639;46,17851
 500,35; 5029,485;  177,963;10695,135;46,12953
 500,93; 5048,042;  154,580;10690,155;46,44703
 501,52; 5056,651;  169,426;10611,496;46,80322
 502,10; 5016,977;  175,116;10565,730;46,59842
 502,69; 4945,659;  157,499;10374,247;46,86580
 503,27; 4850,113;  141,886;10230,836;46,66716
 503,86; 4811,519;  156,577;10161,634;46,52590
 504,44; 4784,152;  149,422;10033,726;46,88980
 505,03; 4670,626;  138,114; 9755,005;47,13074
 505,61; 4630,587;  141,422; 9634,720;47,28773
 506,19; 4560,285;  165,191; 9559,648;46,78391
 506,78; 4478,358;  136,882; 9326,586;47,24283
 507,36; 4406,277;  153,037; 9181,464;47,10942
 507,95; 4364,275;  154,342; 9044,351;47,35577
 508,53; 4303,593;  159,882; 8894,912;47,43785
 509,12; 4230,872;  162,804; 8759,452;47,32156
 509,70; 4162,097;  175,342; 8573,710;47,47060
 510,29; 4108,366;  174,572; 8453,880;47,51356
 510,87; 4020,261;  155,113; 8298,893;47,46135
 511,46; 3924,656;  151,958; 8056,217;47,72994
 512,04; 3883,857;  150,727; 7948,110;47,87670
 512,62; 3792,320;  155,958; 7819,102;47,45261
 513,21; 3724,885;  131,880; 7634,103;47,89254
 513,79; 3649,159;  157,415; 7541,165;47,28957
 514,38; 3571,561;  135,032; 7341,147;47,68907
 514,96; 3568,933;  164,416; 7280,721;47,84107
 515,54; 3469,338;  145,262; 7143,300;47,50011
 516,13; 3464,311;  164,646; 7037,794;48,00805
 516,71; 3360,573;  149,491; 6905,306;47,53064
 517,30; 3343,090;  139,183; 6809,382;48,03316
 517,88; 3302,365;  165,644; 6729,717;47,78619
 518,46; 3229,482;  146,721; 6642,535;47,45765
 519,05; 3221,090;  154,258; 6582,069;47,71192
 519,63; 3211,185;  165,105; 6522,167;47,91647
 520,22; 3187,471;  170,872; 6421,353;48,26187
 520,80; 3140,242;  160,411; 6373,193;47,96291
 521,38; 3168,848;  168,874; 6366,322;48,40661
 521,97; 3109,081;  159,025; 6335,342;47,76400
 522,55; 3103,968;  161,948; 6286,428;48,03704
 523,13; 3100,409;  135,640; 6300,844;48,08874
 523,72; 3074,910;  147,259; 6314,639;47,46993
 524,30; 3165,317;  175,101; 6478,656;47,43698
 524,89; 3164,467;  136,794; 6473,336;47,78115
 525,47; 3242,279;  167,947; 6617,018;47,67092
 526,05; 3254,264;  137,639; 6693,561;47,53908
 526,64; 3327,895;  162,254; 6792,435;47,74592
 527,22; 3368,987;  170,331; 6939,623;47,25244
 527,80; 3429,364;  196,561; 7056,626;47,12495
 528,39; 3471,368;  154,638; 7201,600;47,06610
 528,97; 3559,175;  166,407; 7361,468;47,15413
 529,55; 3626,433;  173,255; 7550,171;46,81059
 530,14; 3729,938;  183,022; 7742,464;46,92034
 530,72; 3797,839;  164,407; 7830,430;47,39657
 531,30; 3834,016;  142,791; 7983,688;47,07656
 531,89; 3912,914;  158,329; 8036,361;47,65892
 532,47; 3969,755;  188,252; 8191,542;47,24936
 533,05; 3951,084;  176,946; 8219,818;46,92526
 533,63; 4028,854;  190,790; 8273,921;47,48239
 534,22; 3996,660;  149,329; 8294,528;47,23434
 534,80; 4047,291;  181,250; 8392,742;47,08086
 535,38; 4098,976;  224,791; 8408,826;47,33833
 535,97; 4052,136;  159,867; 8413,985;47,15548
 536,55; 4121,151;  207,019; 8434,476;47,57401
 537,13; 4061,946;  207,176; 8392,648;47,09283
 537,71; 4139,176;  229,330; 8451,808;47,55070
 538,30; 4145,051;  235,174; 8517,449;47,20777
 538,88; 4206,444;  256,249; 8658,051;47,01605
 539,46; 4339,870;  294,558; 8809,905;47,50613
 540,05; 4414,474;  304,404; 8927,736;47,66221
 540,63; 4528,175;  320,942; 9087,458;47,99207
 541,21; 4596,147;  336,864; 9212,683;47,98749
 541,79; 4664,584;  359,326; 9337,510;47,95244
 542,38; 4721,857;  367,788; 9511,281;47,61932
 542,96; 4789,834;  377,479; 9667,596;47,49515
 543,54; 4896,620;  380,480; 9861,277;47,63460
 544,12; 4939,902;  363,403;10010,379;47,43972
 544,70; 4987,903;  348,863;10138,328;47,38809
 545,29; 5104,303;  364,634;10263,291;47,88194
 545,87; 5058,507;  349,710;10356,279;47,05706
 546,45; 5103,286;  314,173;10320,154;47,86250
 547,03; 5089,408;  297,403;10435,983;47,26504
 547,62; 5144,395;  287,864;10596,820;47,10982
 548,20; 5215,537;  298,787;10833,420;46,67225
 548,78; 5266,323;  274,246;10991,398;46,58026
 549,36; 5356,135;  266,707;11206,971;46,52016
 549,94; 5391,628;  236,402;11339,499;46,43052
 550,53; 5537,100;  240,092;11576,626;46,72510
 551,11; 5570,609;  229,553;11805,051;46,14105
 551,69; 5713,653;  223,707;12176,354;45,93079
 552,27; 5836,100;  190,785;12412,818;46,18966
 552,85; 5971,945;  200,014;12870,551;45,55396
 553,44; 6110,130;  200,092;13101,574;45,80898
 554,02; 6261,242;  221,707;13586,841;45,18873
 554,60; 6388,290;  165,707;13859,381;45,44130
 555,18; 6605,418;  207,784;14266,566;45,50632
 555,76; 6733,870;  187,092;14642,428;45,28970
 556,34; 6970,981;  186,090;15067,696;45,59246
 556,93; 7075,463;  188,246;15441,895;45,15128
 557,51; 7270,746;  176,321;15828,063;45,32675
 558,09; 7379,350;  189,092;16156,443;45,03100
 558,67; 7575,435;  196,936;16604,384;44,97043
 559,25; 7682,109;  206,398;16854,876;44,90327
 559,83; 7817,148;  187,550;17212,348;44,81462
 560,41; 7970,157;  169,398;17632,267;44,67054
 561,00; 8150,768;  182,166;17919,404;44,92583
 561,58; 8188,342;  186,706;18213,247;44,38809
 562,16; 8314,569;  167,937;18481,273;44,48470
 562,74; 8496,509;  159,938;18928,602;44,41750
 563,32; 8655,945;  152,320;19307,616;44,39308
 563,90; 8832,755;  181,166;19791,817;44,11679
 564,48; 9028,487;  182,245;20199,377;44,19335
 565,06; 9218,382;  169,013;20936,411;43,57488
 565,65; 9519,795;  182,472;21615,168;43,56579
 566,23; 9912,189;  229,320;22408,626;43,65722
 566,81;10176,137;  170,013;23130,222;43,58028
 567,39;10523,243;  176,627;24057,401;43,32613
 567,97;10818,826;  197,090;24709,274;43,33248
 568,55;11208,925;  201,704;25549,461;43,42483
 569,13;11521,108;  176,397;26252,607;43,50598
 569,71;11960,059;  184,937;27262,541;43,48657
 570,29;12437,556;  205,400;28159,961;43,75728
 570,87;12683,114;  204,245;28987,854;43,35408
 571,45;12964,953;  199,166;29560,076;43,47885
 572,03;13109,224;  167,011;30076,156;43,27176
 572,61;13417,094;  170,781;30832,912;43,20089
 573,20;13735,844;  192,167;31483,833;43,28206
 573,78;13956,111;  175,320;32207,665;43,02149
 574,36;14168,506;  173,166;32575,341;43,19259
 574,94;14300,129;  212,703;32972,142;43,00265
 575,52;14365,415;  175,163;33226,257;42,93429
 576,10;14626,151;  218,549;33856,630;42,83123
 576,68;14780,111;  203,857;34493,781;42,50885
 577,26;15124,111;  230,009;35127,385;42,67972
 577,84;15296,203;  218,858;35554,353;42,66912
 578,42;15388,727;  240,087;35765,582;42,64160
 579,00;15374,354;  213,396;36002,328;42,36214
 579,58;15450,036;  232,242;36167,383;42,34795
 580,16;15337,518;  230,318;36226,731;41,96863
 580,74;15481,766;  215,472;36476,329;42,10130
 581,32;15410,382;  205,703;36392,906;42,01673
 581,90;15418,995;  226,087;36497,797;41,88639
 582,48;15435,761;  238,780;36623,702;41,76725
 583,06;15457,045;  218,780;36816,413;41,63730
 583,64;15507,182;  226,934;36868,737;41,70168
 584,22;15315,765;  226,086;36525,946;41,56952
 584,80;15169,569;  231,164;36331,102;41,38069
 585,38;14942,332;  230,090;35971,570;41,16294
 585,96;14900,068;  220,242;36159,708;40,84598
 586,54;14893,374;  228,932;36204,710;40,76199
 587,12;14889,966;  207,625;36436,420;40,52671
 587,70;14928,701;  238,396;36577,691;40,42540
 588,28;14938,302;  232,472;36593,150;40,44432
 588,86;14968,292;  219,087;36790,858;40,32948
 589,44;14833,213;  201,008;36863,744;39,91029
 590,02;14989,538;  226,855;37071,919;40,06692
 590,59;14943,852;  193,394;37348,392;39,69979
 591,17;15012,289;  195,314;37413,015;39,81163
 591,75;15012,719;  204,623;37593,343;39,60579
 592,33;15162,457;  206,316;37898,171;39,68004
 592,91;15180,254;  167,314;38143,671;39,53233
 593,49;15205,583;  179,160;38498,628;39,21355
 594,07;15353,522;  198,237;38688,233;39,37461
 594,65;15323,120;  205,625;38699,222;39,27275
 595,23;15445,838;  198,855;39164,274;39,12952
 595,81;15437,860;  186,008;39188,108;39,10521
 596,39;15490,699;  189,162;39349,379;39,07419
 596,97;15487,768;  187,314;39512,652;38,90737
 597,55;15405,220;  182,086;39395,672;38,82107
 598,12;15381,990;  172,544;39432,001;38,74085
 598,70;15345,964;  185,391;39673,801;38,39246
 599,28;15385,078;  191,776;39846,485;38,31399
 599,86;15317,765;  182,930;39830,396;38,17352
 600,44;15260,375;  149,545;39902,192;38,01214
 601,02;15316,841;  209,389;39937,468;38,02714
 601,60;15216,319;  181,930;39913,584;37,83983
 602,18;15143,921;  168,775;40000,037;37,59646
 602,75;15149,305;  177,162;40066,048;37,53462
 603,33;15093,948;  188,006;40115,735;37,33231
 603,91;15052,994;  166,466;39974,359;37,39592
 604,49;15036,366;  198,083;40192,861;37,10055
 605,07;14988,209;  203,546;40256,996;36,91233
 605,65;14963,631;  204,006;40297,744;36,81279
 606,23;15038,583;  246,087;40352,946;36,88271
 606,80;14934,588;  255,624;40392,106;36,57262
 607,38;15005,718;  276,159;40455,037;36,65995
 607,96;14991,758;  313,393;40470,095;36,55272
 608,54;14937,530;  358,852;40486,186;36,33104
 609,12;14883,471;  349,393;40572,866;36,13332
 609,70;14954,129;  387,084;40549,164;36,27064
 610,27;14883,846;  375,624;40643,765;36,02903
 610,85;14872,238;  380,007;40698,297;35,94456
 611,43;14723,336;  393,160;40770,061;35,49103
 612,01;14567,503;  361,546;40349,800;35,52533
 612,59;14565,117;  346,699;40489,577;35,41953
 613,16;14460,020;  336,624;40379,657;35,27054
 613,74;14365,369;  315,776;40256,803;35,17584
 614,32;14215,243;  293,929;40221,264;34,86662
 614,90;14171,150;  286,469;40046,819;34,92092
 615,48;14018,386;  244,086;39871,874;34,75920
 616,05;13847,444;  230,548;39810,135;34,40384
 616,63;13734,117;  238,471;39640,472;34,25117
 617,21;13646,218;  237,547;39510,333;34,14240
 617,79;13570,056;  215,700;39420,649;34,06293
 618,36;13463,723;  240,007;39329,284;33,82952
 618,94;13257,286;  184,470;39001,386;33,67814
 619,52;13146,373;  210,240;38711,716;33,59906
 620,10;13075,609;  211,547;38655,568;33,46180
 620,67;13018,230;  211,317;38580,925;33,37775
 621,25;12861,230;  222,315;38471,613;33,04352
 621,83;12767,144;  207,086;38377,511;32,90521
 622,41;12686,484;  237,701;38321,490;32,68788
 622,98;12575,056;  223,702;38143,847;32,57201
 623,56;12462,468;  222,472;38077,199;32,33413
 624,14;12358,314;  211,776;37918,765;32,21296
 624,72;12257,403;  216,701;37825,241;32,01587
 625,29;12247,197;  184,087;37979,113;31,91719
 625,87;12132,772;  237,623;37965,438;31,52886
 626,45;11989,948;  198,703;37699,521;31,44263
 627,02;11910,777;  198,777;37698,604;31,23214
 627,60;11854,391;  182,468;37551,720;31,23403
 628,18;11804,009;  173,085;37677,327;31,01229
 628,76;11745,150;  192,933;37711,291;30,79084
 629,33;11688,133;  206,317;37777,417;30,56024
 629,91;11627,763;  205,624;37746,953;30,42551
 630,49;11638,690;  219,932;37850,201;30,34461
 631,06;11599,718;  207,240;38016,399;30,13153
 631,64;11556,811;  206,164;37960,581;30,06442
 632,22;11439,394;  172,242;37879,877;29,88029
 632,79;11515,969;  197,857;38132,868;29,83553
 633,37;11495,423;  180,238;38224,244;29,74236
 633,95;11445,708;  190,087;38292,799;29,54021
 634,52;11471,727;  182,163;38410,539;29,53190
 635,10;11393,928;  188,239;38333,008;29,37674
 635,68;11470,252;  190,318;38685,771;29,30199
 636,25;11286,716;  185,242;38558,918;28,92992
 636,83;11354,996;  162,087;38821,214;28,95282
 637,41;11369,040;  170,703;38873,940;28,93385
 637,98;11299,047;  189,011;39191,976;28,48511
 638,56;11347,046;  199,243;39219,335;28,56939
 639,13;11338,331;  187,548;39248,951;28,54680
 639,71;11308,932;  204,086;39399,871;28,33174
 640,29;11143,479;  161,163;39137,443;28,17692
 640,86;11182,550;  172,394;39385,340;28,07786
 641,44;11089,237;  181,856;39386,543;27,82163
 642,02;11093,077;  197,394;39343,670;27,83326
 642,59;11023,225;  167,625;39505,412;27,59586
 643,17;10943,142;  188,702;39544,770;27,32600
 643,74;10885,598;  173,548;39483,204;27,25043
 644,32;10836,438;  209,317;39369,870;27,13731
 644,89;10760,047;  200,317;39445,612;26,90700
 645,47;10740,734;  215,855;39453,431;26,82347
 646,05;10610,651;  185,778;39419,404;26,57127
 646,62;10517,260;  195,701;39422,454;26,31255
 647,20;10538,485;  203,393;39539,658;26,27370
 647,77;10406,556;  160,470;39415,400;26,10140
 648,35;10356,166;  170,547;39341,296;26,00312
 648,92;10281,698;  202,778;39266,423;25,80128
 649,50;10211,615;  157,701;39255,088;25,71505
 650,08;10072,379;  158,086;39188,522;25,40144
 650,65;10160,834;  172,393;39492,803;25,40269
 651,23;10238,674;  158,393;40438,007;25,02576
 651,80;10412,669;  168,085;41246,287;24,93922
 652,38;10517,124;  177,547;41552,183;24,99013
 652,95;10522,349;  156,547;41818,233;24,88090
 653,53;10472,035;  181,931;42160,129;24,51297
 654,10;10563,414;  204,085;42210,025;24,66158
 654,68;10405,331;  173,931;42091,306;24,40849
 655,25;10390,787;  164,777;42250,664;24,29795
 655,83;10333,627;  172,085;42337,560;24,09920
 656,40;10278,006;  183,854;42216,840;24,01483
 656,98;10263,538;  162,162;42157,429;24,05361
 657,55;10137,148;  179,316;42035,479;23,79060
 658,13; 9981,757;  170,623;41570,990;23,69818
 658,70; 9867,521;  190,623;41156,425;23,62189
 659,28; 9569,515;  173,700;40244,013;23,44832
 659,85; 9295,970;  162,931;39632,140;23,13966
 660,43; 9247,580;  184,238;39777,420;22,89117
 661,00; 9230,805;  184,085;39913,778;22,77068
 661,58; 9226,414;  163,546;40384,751;22,53256
 662,15; 9181,870;  158,623;40553,185;22,33778
 662,73; 9218,787;  198,931;40895,620;22,16361
 663,30; 9188,550;  167,469;41059,824;22,06056
 663,88; 9183,006;  178,084;41275,412;21,91121
 664,45; 9146,461;  158,469;41527,462;21,72640
 665,03; 9185,917;  171,315;41884,127;21,61111
 665,60; 9219,373;  215,546;42366,331;21,36099
 666,17; 9144,674;  173,853;42482,689;21,20319
 666,75; 9141,822;  162,238;42730,046;21,09478
 667,32; 9237,355;  188,469;43209,096;21,03383
 667,90; 9190,426;  171,007;43396,223;20,86610
 668,47; 9213,343;  192,776;43665,350;20,75002
 669,05; 9268,337;  168,853;43900,707;20,80745
 669,62; 9226,946;  145,391;44058,834;20,68058
 670,19; 9182,402;  147,391;44146,884;20,53435
 670,77; 9230,088;  177,699;44334,626;20,50050
 671,34; 9130,544;  164,776;44208,061;20,35672
 671,92; 9147,923;  153,622;44513,572;20,27572
 672,49; 9153,225;  186,622;44563,699;20,20548
 673,06; 9126,988;  133,007;44574,133;20,23797
 673,64; 9035,367;  148,699;44603,799;19,99021
 674,21; 8958,438;  151,391;44492,925;19,86184
 674,79; 9021,124;  175,006;44728,360;19,85511
 675,36; 8983,656;  179,622;44854,256;19,70701
 675,93; 8896,497;  152,237;44791,152;19,58887
 676,51; 8898,337;  173,314;44932,740;19,49315
 677,08; 8868,177;  171,545;45057,867;19,37479
 677,65; 8850,710;  176,006;45183,532;19,27390
 678,23; 8839,165;  174,391;45427,813;19,14722
 678,80; 8806,005;  158,314;45481,478;19,08007
 679,38; 8778,692;  146,621;45753,221;18,92724
 679,95; 8805,147;  169,698;46064,501;18,81575
 680,52; 8730,526;  158,237;46233,859;18,60483
 681,10; 8762,982;  175,006;46712,524;18,45388
 681,67; 8773,899;  171,929;47003,266;18,36798
 682,24; 8751,508;  153,929;47051,470;18,33269
 682,82; 8791,810;  154,621;47649,751;18,18542
 683,39; 8877,343;  186,236;47938,416;18,20044
 683,96; 8871,106;  167,390;48190,158;18,12414
 684,54; 8914,331;  145,159;48490,823;18,13849
 685,11; 8936,325;  185,236;48923,027;17,95545
 685,68; 8940,319;  178,698;49334,616;17,82414
 686,25; 8922,313;  163,082;49378,896;17,79759
 686,83; 8896,153;  164,928;49576,792;17,67030
 687,40; 8883,917;  157,851;49904,381;17,54105
 687,97; 8972,449;  184,005;50339,661;17,52234
 688,55; 8920,751;  155,005;50317,711;17,47463
 689,12; 8925,053;  138,159;50671,223;17,38840
 689,69; 8900,431;  157,005;50741,965;17,28464
 690,26; 8871,733;  167,467;50761,015;17,20430
 690,84; 8858,573;  165,543;50993,065;17,10300
 691,41; 8826,875;  162,928;50996,345;17,04380
 691,98; 8809,254;  170,313;51390,395;16,86632
 692,56; 8756,556;  149,466;51393,368;16,79632
 693,13; 8781,473;  217,774;51514,264;16,69451
 693,70; 8739,005;  176,697;51682,237;16,62405
 694,27; 8680,615;  156,235;51824,748;16,49821
 694,84; 8664,609;  148,774;51866,183;16,46609
 695,42; 8697,757;  191,005;52025,771;16,41129
 695,99; 8627,366;  164,312;52182,283;16,26948
 696,56; 8619,283;  142,851;52189,025;16,28637
 697,13; 8629,508;  175,466;52437,690;16,17620
 697,71; 8627,425;  139,774;52574,586;16,18705
 698,28; 8609,266;  168,850;52856,252;16,01980
 698,85; 8481,183;  125,927;52979,225;15,80839
 699,42; 8567,561;  135,389;53144,121;15,90714
 699,99; 8578,632;  165,004;53157,940;15,87689
 700,57; 8518,934;  152,620;53151,067;15,78596
 701,14; 8489,159;  154,543;53299,039;15,68293
 701,71; 8558,845;  172,773;53573,705;15,70398
 702,28; 8501,609;  160,389;53516,985;15,63297
 702,85; 8493,295;  154,004;53632,728;15,59366
 703,43; 8504,058;  169,388;53956,316;15,49572
 704,00; 8527,206;  178,081;54075,597;15,49074
 704,57; 8461,124;  163,773;54007,493;15,41006
 705,14; 8434,887;  185,311;54290,081;15,24741
 705,71; 8428,035;  191,619;54301,823;15,22156
 706,28; 8415,260;  161,773;54212,488;15,26989
 706,86; 8429,946;  198,927;54428,000;15,17824
 707,43; 8347,248;  192,696;54364,204;15,05321
 708,00; 8320,011;  170,311;54359,792;15,03927
 708,57; 8276,697;  161,926;54388,073;14,96468
 709,14; 8347,922;  187,926;54498,123;15,02480
 709,71; 8313,686;  161,234;54503,480;15,00205
 710,28; 8281,757;  172,388;54749,376;14,85859
 710,86; 8237,443;  167,388;54870,426;14,75248
 711,43; 8258,129;  186,157;54905,014;14,75172
 712,00; 8200,816;  175,157;55067,757;14,62066
 712,57; 8259,348;  171,542;55039,730;14,74043
 713,14; 8221,804;  169,157;55233,395;14,62410
 713,71; 8137,413;  186,080;55021,522;14,50035
 714,28; 8177,638;  178,080;55154,033;14,55101
 714,85; 8088,940;  168,541;54862,006;14,48144
 715,42; 8108,934;  175,926;55168,364;14,42563
 716,00; 8146,697;  212,464;55267,567;14,41144
 716,57; 8128,999;  176,310;55393,848;14,40247
 717,14; 8085,609;  151,772;55317,821;14,38174
 717,71; 8042,064;  152,695;55364,486;14,28928
 718,28; 8111,366;  188,310;55433,998;14,34149
 718,85; 8011,052;  155,849;55409,048;14,21674
 719,42; 8112,046;  179,772;55618,867;14,30809
 719,99; 8049,194;  159,233;55382,070;14,28750
 720,56; 8057,573;  168,233;55675,582;14,21314
 721,13; 8079,182;  167,464;55834,939;14,21246
 721,70; 8046,561;  148,771;55569,528;14,25060
 722,27; 8047,171;  191,387;55622,808;14,17208
 722,84; 8085,703;  206,002;55856,551;14,15925
 723,41; 7978,543;  165,617;55827,062;14,03651
 723,98; 8025,999;  181,694;56103,650;14,02724
 724,55; 8071,147;  193,694;56178,931;14,07059
 725,12; 7972,679;  136,156;56101,673;14,00241
 725,69; 8041,289;  165,925;56320,877;14,02434
 726,27; 8054,437;  166,771;56348,850;14,03947
 726,84; 8083,739;  173,309;56705,515;13,99278
 727,41; 8059,117;  177,386;56697,027;13,94512
 727,98; 8073,573;  185,540;56803,538;13,93202
 728,55; 8085,644;  200,079;56900,203;13,90749
 729,12; 8114,100;  149,155;56890,946;14,03717
 729,69; 8109,247;  190,155;57159,149;13,90071
 730,26; 8114,934;  195,925;57297,968;13,86817
 730,82; 8126,159;  178,001;57198,249;13,93918
 731,39; 8124,230;  169,309;57235,453;13,93983
 731,96; 8136,224;  147,078;57559,810;13,91529
 732,53; 8229,218;  176,924;57736,860;13,98941
 733,10; 8245,520;  179,155;57807,910;13,99712
 733,67; 8285,283;  179,847;58134,191;13,98590
 734,24; 8235,277;  163,232;57692,779;14,03113
 734,81; 8258,656;  187,770;57885,906;13,98812
 735,38; 8209,957;  174,232;57605,648;13,99186
 735,95; 8155,644;  171,770;57500,621;13,92645
 736,52; 8217,946;  188,309;57487,286;14,01358
 737,09; 8153,247;  180,462;57151,413;13,99447
 737,66; 8218,472;  209,462;57385,309;14,00768
 738,23; 8235,697;  170,539;57478,513;14,07336
 738,80; 8303,306;  195,385;57603,794;14,12323
 739,37; 8308,377;  195,001;57975,074;14,04183
 739,94; 8282,141;  179,154;57954,894;14,02489
 740,51; 8375,981;  233,077;58117,866;14,06743
 741,07; 8274,360;  172,154;58007,378;14,00912
 741,64; 8284,585;  194,539;58245,351;13,93615
 742,21; 8300,732;  176,770;58247,016;13,98989
 742,78; 8291,957;  152,154;57962,681;14,08014
 743,35; 8361,105;  172,385;58345,424;14,07649
 743,92; 8373,638;  188,846;58511,166;14,03372
 744,49; 8372,940;  176,231;58240,831;14,11653
 745,06; 8364,011;  166,308;58361,727;14,08651
 745,63; 8373,389;  155,077;58231,854;14,15077
 746,19; 8398,306;  163,231;58226,058;14,18304
 746,76; 8400,608;  182,615;58308,338;14,13831
 747,33; 8369,910;  167,231;58268,234;14,11796
 747,90; 8453,673;  199,923;58472,746;14,16398
 748,47; 8441,590;  184,538;58392,950;14,18532
 749,04; 8461,046;  186,077;58353,846;14,22604
 749,61; 8451,271;  203,154;58270,665;14,20436
 750,17; 8470,880;  196,000;58454,330;14,20377
 750,74; 8516,797;  187,461;58245,303;14,34662
 751,31; 8447,176;  167,077;58148,737;14,28055
 751,88; 8415,247;  154,307;58051,480;14,26830
 752,45; 8492,626;  177,692;58298,376;14,30633
 753,02; 8480,158;  178,923;58136,503;14,32295
 753,58; 8454,306;  163,153;57966,860;14,34364
 754,15; 8508,685;  164,922;58106,525;14,40030
 754,72; 8484,141;  162,769;57831,037;14,42972
 755,29; 8490,596;  154,307;57717,779;14,48191
 755,86; 8521,744;  184,768;57872,983;14,45178
 756,42; 8541,892;  190,845;57729,802;14,51373
 756,99; 8493,271;  161,461;57722,390;14,47477
 757,56; 8590,957;  161,922;57657,748;14,66026
 758,13; 8505,720;  153,922;57618,875;14,53373
 758,70; 8600,176;  166,691;57587,694;14,68711
 759,26; 8607,016;  162,922;57710,897;14,67314
 759,83; 8602,241;  177,537;57855,563;14,60644
 760,40; 8699,158;  169,922;57579,074;14,85693
 760,97; 8609,306;  164,999;57723,739;14,67076
 761,53; 8570,454;  155,922;57343,789;14,71384
 762,10; 8605,448;  151,076;57292,532;14,79551
 762,67; 8683,058;  185,152;57251,505;14,89127
 763,24; 8544,359;  139,999;56834,324;14,82399
 763,80; 8643,969;  175,768;56922,450;14,92281
 764,37; 8658,348;  173,691;56863,654;14,96677
 764,94; 8606,034;  151,460;56497,550;15,00472
 765,50; 8595,259;  150,306;56357,600;15,02466
 766,07; 8637,407;  183,306;56502,265;15,01111
 766,64; 8610,785;  152,306;56097,161;15,11932
 767,21; 8613,703;  159,229;55951,519;15,15348
 767,77; 8654,697;  174,690;55901,877;15,21700
 768,34; 8665,383;  178,460;55864,157;15,24076
 768,91; 8637,223;  175,306;55639,361;15,25658
 769,47; 8666,833;  170,690;55669,488;15,30870
 770,04; 8734,673;  172,690;55514,076;15,47121
 770,61; 8723,975;  158,306;55308,203;15,53161
 771,18; 8681,738;  157,229;55100,407;15,51514
 771,74; 8779,886;  166,229;55379,457;15,60071
 772,31; 8732,726;  170,075;55027,583;15,60890
 772,88; 8717,720;  153,228;54794,864;15,67393
 773,44; 8774,637;  156,998;54736,452;15,78916
 774,01; 8836,785;  174,382;54817,810;15,85260
 774,58; 8764,010;  152,690;54404,091;15,87299
 775,14; 8848,004;  148,459;54570,064;15,98546
 775,71; 8829,768;  157,613;54452,190;15,97241
 776,27; 8908,454;  192,074;54324,163;16,10206
 776,84; 8922,833;  205,459;54352,059;16,09958
 777,41; 8922,057;  164,690;54165,263;16,21718
 777,97; 8834,667;  159,766;53852,236;16,15664
 778,54; 8890,969;  173,766;53878,286;16,23179
 779,11; 8896,424;  188,843;53938,182;16,20035
 779,67; 8892,649;  154,612;53826,770;16,28039
 780,24; 8938,951;  170,766;53552,128;16,42555
 780,80; 8965,868;  190,766;53612,563;16,42607
 781,37; 8966,862;  180,228;53636,305;16,43711
 781,94; 8884,933;  177,381;53266,047;16,40190
 782,50; 8982,158;  181,304;53166,943;16,60988
 783,07; 9025,844;  199,612;53355,377;16,60447
 783,63; 9005,300;  166,997;52979,735;16,73517
 784,20; 9034,909;  196,920;52943,862;16,75545
 784,77; 9040,365;  181,766;52760,296;16,84832
 785,33; 9068,744;  160,458;52636,731;16,97584
 785,90; 9078,199;  185,073;52458,935;17,01257
 786,46; 9092,963;  202,612;52370,446;17,04182
 787,03; 9070,188;  169,150;52270,804;17,08398
 787,59; 9130,105;  165,919;52061,469;17,27351
 788,16; 9107,791;  199,073;51929,442;17,22145
 788,73; 9157,939;  189,842;52016,799;17,30392
 789,29; 9149,010;  177,919;51517,157;17,47414
 789,86; 9130,543;  185,073;51382,207;17,47260
 790,42; 9135,767;  196,611;51263,641;17,50475
 790,99; 9127,454;  204,919;50884,384;17,60582
 791,55; 9140,832;  171,381;50893,510;17,68351
 792,12; 9187,750;  188,688;50885,099;17,75088
 792,68; 9160,744;  181,611;50502,841;17,84363
 793,25; 9191,815;  198,534;50282,891;17,95627
 793,81; 9225,424;  223,150;50029,248;18,07464
 794,38; 9099,264;  155,073;49790,991;18,01960
 794,94; 9187,182;  167,765;49634,194;18,23341
 795,51; 9162,560;  199,996;49369,167;18,22802
 796,07; 9122,324;  187,149;49146,679;18,25012
 796,64; 9213,087;  197,611;49200,806;18,39773
 797,20; 9114,773;  196,149;48710,317;18,38355
 797,77; 9059,152;  177,457;48424,059;18,40895
 798,33; 9105,069;  181,534;48243,648;18,56667
 798,90; 9167,832;  215,149;48115,313;18,69030
 799,46; 9109,826;  193,918;47604,747;18,80564
 800,03; 9096,513;  191,303;47530,259;18,81159
 800,59; 9146,122;  211,226;47354,386;18,95269
 801,15; 9107,886;  197,457;47155,820;18,97517
 801,72; 9060,341;  201,995;46745,793;19,03228
 802,28; 9044,258;  226,610;46471,458;19,06731
 802,85; 9039,252;  185,380;46208,431;19,23791
 803,41; 8944,400;  200,380;46081,404;19,05803
 803,98; 8994,164;  191,995;45668,993;19,35521
 804,54; 8989,927;  191,918;45317,273;19,49682
 805,11; 9004,998;  203,456;45132,862;19,58971
 805,67; 9059,684;  209,149;45126,065;19,70424
 806,23; 8980,448;  202,456;44598,500;19,77201
 806,80; 9007,672;  216,995;44522,627;19,84099
 807,36; 9046,436;  226,764;44448,061;19,94440
 807,93; 9056,738;  210,994;44300,188;20,06329
 808,49; 8995,501;  193,456;43891,161;20,14304
 809,05; 8972,572;  180,917;43676,519;20,21274
 809,62; 8978,489;  205,840;43616,722;20,20841
 810,18; 9078,714;  211,840;43495,388;20,48555
 810,74; 8988,246;  180,994;43319,130;20,41640
 811,31; 8986,317;  190,686;43000,333;20,54591
 811,87; 8960,773;  189,071;42825,999;20,57302
 812,44; 9044,075;  217,763;42907,895;20,67530
 813,00; 8982,530;  160,840;42582,329;20,79533
 813,56; 9069,294;  209,532;42636,764;20,88225
 814,13; 9103,595;  189,609;42528,737;21,05378
 814,69; 9084,743;  207,378;42280,094;21,10005
 815,25; 9020,199;  182,994;41868,221;21,19985
 815,82; 9076,655;  213,301;41759,194;21,33389
 816,38; 9114,879;  226,917;41568,475;21,49886
 816,94; 9049,412;  191,148;41306,679;21,54481
 817,51; 8998,945;  195,378;41018,805;21,56499
 818,07; 8979,169;  191,763;40841,778;21,61723
 818,63; 9009,933;  214,070;40634,367;21,76100
 819,20; 9045,696;  211,993;40504,109;21,92415
 819,76; 8955,382;  182,840;40159,390;21,94422
 820,32; 9010,838;  230,070;39991,362;22,08371
 820,89; 8936,909;  228,916;39864,489;21,97014
 821,45; 8932,826;  188,455;39470,539;22,26046
 822,01; 8871,897;  219,762;39298,435;22,14030
 822,57; 8906,507;  209,147;39110,562;22,35744
 823,14; 8893,039;  177,301;38865,381;22,52823
 823,70; 8841,879;  185,608;38578,200;22,54672
 824,26; 8848,181;  183,839;38519,942;22,60100
 824,82; 8875,252;  216,608;38241,146;22,77120
 825,39; 8838,939;  188,608;37952,965;22,90607
 825,95; 8902,702;  226,608;38006,015;22,96514
 826,51; 8825,619;  205,531;37656,065;23,01726
 827,08; 8867,767;  234,993;37662,192;23,06551
 827,64; 8886,992;  210,070;37422,934;23,31700
 828,20; 8830,909;  194,146;37206,061;23,33509
 828,76; 8892,211;  211,531;37131,957;23,51186
 829,32; 8882,128;  215,993;37032,007;23,53904
 829,89; 8820,045;  187,608;36886,826;23,52213
 830,45; 8842,116;  198,839;36792,030;23,61991
 831,01; 8885,956;  192,146;36541,926;23,91709
 831,57; 8879,335;  203,838;36494,745;23,90543
 832,14; 8882,252;  197,531;36434,872;23,96622
 832,70; 8877,631;  193,377;36176,383;24,13432
 833,26; 8862,932;  182,608;36109,125;24,16133
 833,82; 8971,696;  203,608;36114,637;24,41614
 834,38; 9008,305;  193,992;36034,379;24,59324
 834,95; 8977,838;  188,684;35960,429;24,57010
 835,51; 8941,140;  163,300;35743,171;24,67080
 836,07; 9051,134;  205,377;35826,990;24,83256
 836,63; 9101,051;  219,607;35769,502;24,98304
 837,19; 9092,891;  200,223;35734,936;25,02530
 837,75; 9044,885;  178,530;35326,217;25,22600
 838,32; 9103,033;  221,838;35391,036;25,25277
 838,88; 9176,489;  213,992;35429,547;25,45039
 839,44; 9145,329;  195,607;35383,828;25,43386
 840,00; 9223,015;  193,145;35300,416;25,72080
 840,56; 9133,932;  177,376;34929,159;25,77294
 841,12; 9150,234;  184,376;34969,208;25,77519
 841,68; 9151,151;  176,991;34795,104;25,92331
 842,25; 9158,915;  183,607;34791,231;25,93448
 842,81; 9107,909;  184,222;34528,358;25,98314
 843,37; 9167,903;  179,530;34535,100;26,16278
 843,93; 9169,897;  189,299;34427,381;26,22985
 844,49; 9238,352;  196,683;34570,739;26,30376
 845,05; 9159,500;  174,299;34285,865;26,34063
 845,61; 9239,494;  197,837;34300,377;26,51315
 846,17; 9203,412;  203,453;34175,888;26,49195
 846,73; 9227,329;  201,376;34118,400;26,61187
 847,29; 9209,477;  167,914;33944,911;26,76840
 847,86; 9226,548;  183,683;33806,576;26,89496
 848,42; 9196,619;  174,298;33646,780;26,95444
 848,98; 9239,536;  192,606;33604,445;27,07702
 849,54; 9274,607;  178,606;33553,418;27,25409
 850,10; 9228,986;  185,760;33496,237;27,14829
 850,66; 9266,980;  174,991;33290,518;27,45537
 851,22; 9227,281;  178,375;33204,645;27,39912
 851,78; 9356,199;  224,298;33336,233;27,57888
 852,34; 9287,808;  190,375;33132,283;27,61659
 852,90; 9283,341;  181,683;32996,487;27,73644
 853,46; 9274,719;  175,837;32732,844;27,94754
 854,02; 9384,021;  189,836;32811,048;28,18468
 854,58; 9268,784;  189,144;32430,252;28,16169
 855,14; 9376,163;  173,990;32404,071;28,55150
 855,70; 9343,926;  158,682;32230,736;28,63940
 856,26; 9357,151;  211,067;32123,171;28,66024
 856,82; 9333,761;  174,913;31991,836;28,78609
 857,38; 9390,985;  205,067;31852,194;29,02607
 857,94; 9375,518;  190,375;31728,244;29,12417
 858,50; 9361,051;  196,605;31605,909;29,17749
 859,06; 9360,968;  188,759;31444,190;29,34597
 859,62; 9419,808;  201,913;31434,162;29,51403
 860,18; 9337,802;  186,221;31209,059;29,49950
 860,74; 9338,796;  159,374;31106,108;29,66200
 861,30; 9302,867;  167,913;30862,466;29,76083
 861,86; 9445,092;  200,143;30874,516;30,13900
 862,42; 9383,932;  191,605;30763,720;30,06769
 862,98; 9452,157;  215,759;30695,693;30,30321
 863,54; 9365,305;  193,605;30469,589;30,29365
 864,10; 9417,145;  202,066;30485,715;30,42922
 864,66; 9349,908;  180,143;30348,996;30,39481
 865,22; 9360,595;  193,143;30149,200;30,60300
 865,78; 9345,127;  200,758;30062,557;30,62230
 866,34; 9403,352;  180,989;29998,992;30,92884
 866,90; 9381,115;  198,528;29844,119;30,97455
 867,45; 9310,263;  202,143;29692,169;30,88543
 868,01; 9326,642;  189,451;29580,757;31,08808
 868,57; 9280,867;  201,604;29330,576;31,16918
 869,13; 9256,938;  185,374;29273,088;31,18693
 869,69; 9292,317;  186,066;29054,753;31,54370
 870,25; 9248,157;  177,758;29026,033;31,44174
 870,81; 9288,074;  195,220;28923,930;31,65076
 871,37; 9245,607;  188,604;28855,364;31,59409
 871,93; 9235,524;  197,066;28634,645;31,78350
 872,49; 9186,210;  199,296;28421,848;31,84302
 873,04; 9166,435;  186,296;28266,898;31,97987
 873,60; 9171,429;  175,835;28135,871;32,17304
 874,16; 9183,115;  196,065;28037,767;32,27910
 874,72; 9162,654;  186,065;27980,383;32,29649
 875,28; 9167,269;  199,219;27898,306;32,37670
 875,84; 9136,962;  192,988;27795,690;32,40253
 876,40; 9185,346;  194,296;27772,921;32,60152
 876,95; 9228,038;  200,681;27822,229;32,68230
 877,51; 9221,423;  217,065;27694,537;32,76997
 878,07; 9313,038;  224,527;27733,767;33,03803
 878,63; 9290,192;  188,681;27701,537;33,08094
 879,19; 9319,423;  207,065;27796,152;33,02885
 879,75; 9332,962;  197,988;27824,075;33,06648
 880,30; 9392,962;  193,527;27801,613;33,32152
 880,86; 9466,038;  224,296;27964,767;33,31502
 881,42; 9463,731;  184,450;27976,460;33,38830
 881,98; 9594,423;  204,604;28067,844;33,69967
 882,54; 9607,115;  194,758;28094,075;33,73687
 883,09; 9685,731;  202,912;28297,767;33,75287
 883,65; 9706,654;  186,373;28301,690;33,86154
 884,21; 9811,962;  226,219;28517,075;33,88283
 884,77; 9842,577;  183,604;28544,998;34,05676
 885,32; 9893,423;  193,527;28728,152;33,99342
 885,88;10029,115;  231,527;28857,075;34,22673
 886,44;10049,654;  216,142;29003,306;34,15936
 887,00;10073,192;  214,219;28954,998;34,30308
 887,56;10141,962;  196,142;29076,998;34,43741
 888,11;10156,038;  203,373;29161,690;34,36894
 888,67;10299,038;  228,373;29329,075;34,60626
 889,23;10323,269;  210,835;29251,229;34,82196
 889,79;10307,423;  177,296;29067,229;35,06456
 890,34;10295,423;  191,758;29042,460;35,02052
 890,90;10448,038;  240,912;29223,383;35,21828
 891,46;10372,346;  190,450;29129,537;35,18389
 892,01;10439,346;  209,912;29186,537;35,30237
 892,57;10478,808;  225,296;28998,613;35,63549
 893,13;10457,577;  187,373;28803,767;35,88923
 893,69;10573,885;  198,142;28879,998;36,17528
 894,24;10502,731;  212,450;28583,844;36,26992
 894,80;10560,962;  222,450;28485,537;36,57956
 895,36;10534,654;  201,988;28314,306;36,75494
 895,91;10518,577;  204,373;28161,460;36,89299
 896,47;10543,346;  217,758;27993,690;37,17459
 897,03;10517,038;  205,604;27816,075;37,34610
 897,58;10499,269;  218,681;27736,383;37,35991
 898,14;10532,115;  219,142;27556,998;37,72415
 898,70;10463,269;  180,373;27407,921;37,76652
 899,25;10516,269;  199,296;27361,537;37,98278
 899,81;10485,962;  221,065;27093,998;38,19790
 900,37;10402,269;  185,065;27018,152;38,07689
 900,92;10445,269;  205,835;27040,460;38,15755
 901,48;10431,500;  206,219;26798,306;38,45234
 902,03;10355,885;  197,758;26693,306;38,33900
 902,59;10325,500;  199,219;26603,460;38,35096
 903,15;10358,038;  219,296;26526,690;38,53952
 903,70;10205,731;  209,758;26234,690;38,40922
 904,26;10177,962;  193,835;26082,460;38,56569
 904,82;10271,115;  205,142;26039,921;38,96288
 905,37;10195,423;  208,296;25973,998;38,76132
 905,93;10140,885;  197,912;25707,844;38,97687
 906,48;10151,962;  212,835;25742,998;38,93092
 907,04;10224,500;  216,604;25678,613;39,30521
 907,60;10107,269;  191,373;25428,844;39,29037
 908,15;10129,423;  184,835;25272,306;39,63966
 908,71;10168,269;  231,604;25234,690;39,74175
 909,26;10073,500;  192,065;25031,844;39,78069
 909,82;10107,500;  224,604;24928,075;40,00610
 910,37;10088,808;  237,988;24893,998;39,95302
 910,93;10051,654;  189,681;24636,075;40,34122
 911,48;10049,192;  195,373;24517,844;40,51323
 912,04; 9963,269;  197,142;24376,460;40,39042
 912,60;10036,885;  214,373;24419,075;40,58101
 913,15; 9929,192;  198,373;24258,383;40,44395
 913,71; 9908,962;  199,450;23993,460;40,80654
 914,26; 9925,038;  182,681;23998,306;40,90742
 914,82; 9984,269;  205,065;23865,537;41,33140
 915,37; 9951,192;  199,065;23749,690;41,40921
 915,93; 9931,577;  223,065;23686,690;41,37686
 916,48; 9892,962;  194,450;23544,921;41,53454
 917,04; 9807,423;  213,373;23499,767;41,20024
 917,59; 9872,962;  229,450;23373,229;41,66783
 918,15; 9804,500;  174,835;23148,844;41,91548
 918,70; 9795,962;  194,604;23104,690;41,90887
 919,26; 9807,423;  202,912;22966,690;42,19208
 919,81; 9698,577;  188,988;22808,460;42,04160
 920,37; 9737,192;  197,373;22743,998;42,31152
 920,92; 9702,731;  208,681;22622,460;42,35810
 921,48; 9616,423;  183,604;22437,075;42,38808
 922,03; 9643,192;  192,219;22414,767;42,52876
 922,59; 9594,115;  193,912;22213,383;42,69042
 923,14; 9565,269;  188,065;22091,075;42,81240
 923,69; 9559,885;  212,758;22098,613;42,70853
 924,25; 9555,885;  210,065;22011,767;42,86738
 924,80; 9500,808;  206,219;21805,690;43,03156
 925,36; 9480,346;  201,912;21681,998;43,19552
 925,91; 9450,654;  198,450;21559,383;43,31367
 926,47; 9489,423;  184,296;21506,537;43,64047
 927,02; 9470,654;  220,373;21434,613;43,60411
 927,57; 9460,423;  198,835;21321,690;43,84629
 928,13; 9411,192;  192,373;21151,229;43,98532
 928,68; 9416,731;  196,912;21097,767;44,11216
 929,24; 9300,423;  178,142;20889,229;44,04540
 929,79; 9346,962;  193,296;20788,152;44,44637
 930,34; 9357,577;  210,527;20717,690;44,60417
 930,90; 9331,038;  193,681;20614,229;44,74590
 931,45; 9372,346;  205,604;20613,383;44,91788
 932,01; 9370,885;  219,527;20495,229;45,13460
 932,56; 9268,808;  221,681;20289,844;45,08199
 933,11; 9375,962;  220,373;20363,998;45,45154
 933,67; 9271,885;  194,450;20132,844;45,52741
 934,22; 9279,731;  202,988;20048,383;45,73727
 934,77; 9281,577;  229,373;19866,844;46,09659
 935,33; 9229,192;  219,527;19809,613;45,99094
 935,88; 9183,038;  219,296;19730,844;45,94070
 936,43; 9156,577;  201,219;19653,537;46,03749
 936,99; 9205,731;  206,296;19452,844;46,75869
 937,54; 9057,423;  198,835;19326,383;46,31325
 938,09; 9152,962;  212,681;19282,921;46,88080
 938,65; 9079,423;  208,835;19163,229;46,79964
 939,20; 9037,731;  183,681;19059,613;46,90656
 939,75; 9031,192;  187,142;18936,383;47,17018
 940,31; 9017,346;  182,065;18821,229;47,40170
 940,86; 9018,115;  214,988;18885,537;47,14980
 941,41; 9044,808;  238,065;18738,690;47,60240
 941,96; 8983,808;  195,527;18626,998;47,68084
 942,52; 8912,269;  203,604;18543,998;47,48352
 943,07; 8906,808;  187,219;18418,921;47,82652
 943,62; 8929,577;  193,065;18278,075;48,30803
 944,18; 8913,192;  183,758;18282,690;48,23176
 944,73; 8833,808;  196,142;18154,306;48,09882
 945,28; 8789,038;  172,296;17965,460;48,42726
 945,83; 8782,269;  203,681;17993,383;48,22222
 946,39; 8792,808;  188,835;17922,921;48,51658
 946,94; 8809,500;  218,065;17828,613;48,78573
 947,49; 8725,962;  195,835;17714,998;48,69026
 948,04; 8769,962;  211,373;17702,229;48,93179
 948,59; 8773,192;  214,142;17577,998;49,29234
 949,15; 8739,038;  182,142;17494,537;49,42642
 949,70; 8656,577;  196,450;17355,613;49,30384
 950,25; 8681,962;  218,835;17256,998;49,67159
 950,80; 8619,269;  176,373;17171,383;49,67868
 951,36; 8558,500;  168,219;17084,229;49,59965
 951,91; 8662,731;  213,373;17105,383;50,01985
 952,46; 8542,423;  168,296;16940,383;49,92895
 953,01; 8556,115;  213,450;16969,537;49,78887
 953,56; 8500,885;  186,296;16782,229;50,10016
 954,11; 8460,962;  206,219;16699,075;50,05041
 954,67; 8437,885;  199,681;16670,383;50,01732
 955,22; 8349,115;  179,296;16465,537;50,16394
 955,77; 8470,115;  217,219;16507,460;50,66160
 956,32; 8396,500;  228,912;16374,152;50,58821
 956,87; 8328,269;  193,219;16234,537;50,71310
 957,42; 8353,500;  196,604;16147,921;51,13619
 957,98; 8258,808;  190,219;16069,690;50,81144
 958,53; 8254,423;  215,296;15981,306;50,99024
 959,08; 8189,115;  189,450;15866,767;51,02700
 959,63; 8124,038;  192,912;15839,690;50,68856
 960,18; 8141,500;  211,604;15817,998;50,81184
 960,73; 8125,423;  206,219;15708,998;51,08248
 961,28; 8063,115;  173,527;15596,383;51,15517
 961,83; 8113,269;  212,450;15509,767;51,64840
 962,39; 8028,654;  185,142;15445,383;51,39835
 962,94; 8052,885;  203,450;15362,460;51,78066
 963,49; 7966,885;  201,604;15218,998;51,70858
 964,04; 7921,423;  216,373;15167,998;51,53319
 964,59; 7885,038;  170,988;15042,306;51,87200
 965,14; 7918,423;  203,219;14919,690;52,42564
 965,69; 7843,885;  204,604;14921,383;51,90865
 966,24; 7788,577;  200,681;14837,690;51,84048
 966,79; 7780,885;  203,142;14689,690;52,30882
 967,34; 7687,654;  177,296;14545,690;52,26999
 967,89; 7645,962;  200,219;14586,460;51,75600
 968,44; 7649,885;  197,219;14457,844;52,26044
 968,99; 7634,115;  196,835;14406,152;52,34087
 969,55; 7638,038;  205,219;14294,229;52,75615
 970,10; 7575,885;  199,296;14181,921;52,75539
 970,65; 7522,808;  209,604;14121,613;52,56756
 971,20; 7473,038;  188,527;13963,075;52,88385
 971,75; 7451,423;  183,604;13836,690;53,23206
 972,30; 7420,654;  200,604;13804,306;53,07416
 972,85; 7342,346;  183,219;13695,998;52,98042
 973,40; 7308,192;  187,065;13563,998;53,23438
 973,95; 7326,885;  199,450;13507,537;53,55717
 974,50; 7289,269;  208,912;13482,460;53,34186
 975,05; 7225,962;  213,912;13362,460;53,32946
 975,60; 7249,654;  220,219;13291,921;53,77597
 976,15; 7161,115;  192,758;13173,460;53,68244
 976,70; 7180,962;  209,681;13126,537;53,97042
 977,25; 7111,423;  209,758;13021,229;53,87098
 977,80; 7050,346;  200,065;12905,152;53,91762
 978,35; 7025,577;  216,296;12706,383;54,51748
 978,89; 6965,423;  184,681;12649,152;54,40056
 979,44; 6950,269;  197,912;12630,229;54,31295
 979,99; 6833,885;  182,142;12482,075;54,07950
 980,54; 6855,962;  231,604;12378,998;54,53316
 981,09; 6818,192;  211,527;12387,921;54,25798
 981,64; 6745,192;  206,065;12196,767;54,53498
 982,19; 6752,962;  236,527;12149,537;54,70015
 982,74; 6688,115;  223,527;12002,613;54,88192
 983,29; 6589,346;  186,988;11853,537;54,87791
 983,84; 6549,423;  221,219;11753,460;54,87402
 984,39; 6567,269;  228,373;11671,075;55,39685
 984,94; 6491,654;  183,142;11576,844;55,36841
 985,49; 6485,423;  225,604;11529,844;55,37585
 986,03; 6426,423;  225,604;11450,229;55,24300
 986,58; 6342,808;  239,988;11250,229;55,42857
 987,13; 6325,654;  214,065;11175,306;55,75636
 987,68; 6255,423;  211,988;11077,998;55,61779
 988,23; 6264,192;  219,835;10988,613;56,12853
 988,78; 6156,577;  203,296;10897,075;55,67051
 989,33; 6125,038;  207,219;10798,613;55,87385
 989,88; 6148,654;  232,681;10727,921;56,36815
 990,42; 6060,500;  205,835;10547,921;56,61010
 990,97; 5958,346;  206,604;10462,921;56,08000
 991,52; 5983,654;  232,604;10373,613;56,71082
 992,07; 5912,346;  224,450;10284,998;56,53664
 992,62; 5868,115;  226,450;10176,229;56,70141
 993,17; 5856,115;  219,450;10067,152;57,23838
 993,71; 5784,115;  214,219; 9945,690;57,23591
 994,26; 5713,346;  205,373; 9821,229;57,28011
 994,81; 5743,346;  225,988; 9769,537;57,81244
 995,36; 5642,346;  202,758; 9625,921;57,72571
 995,91; 5622,346;  213,142; 9565,998;57,83478
 996,45; 5598,269;  221,604; 9503,152;57,92854
 997,00; 5552,808;  195,988; 9308,306;58,78657
 997,55; 5518,654;  209,450; 9277,075;58,55121
 998,10; 5461,192;  237,835; 9150,152;58,60830
 998,65; 5435,038;  207,912; 9094,998;58,81710
 999,19; 5395,654;  218,912; 8972,613;59,13775
 999,74; 5372,885;  245,912; 8893,844;59,28553
1000,29; 5330,654;  226,450; 8783,998;59,64563
1000,84; 5249,731;  212,296; 8668,152;59,57333
1001,38; 5201,346;  206,758; 8534,998;59,97171
1001,93; 5175,731;  231,912; 8482,152;59,92334
1002,48; 5101,192;  199,450; 8377,690;59,93639
1003,03; 5056,731;  223,373; 8314,537;59,73625
1003,57; 5027,192;  232,065; 8237,306;59,89985
1004,12; 4988,962;  239,527; 8084,075;60,54440
1004,67; 4950,885;  211,835; 8030,613;60,61113
1005,22; 4850,962;  206,681; 7867,152;60,62657
1005,76; 4802,423;  204,065; 7782,613;60,67597
1006,31; 4768,962;  223,527; 7702,460;60,77651
1006,86; 4731,577;  206,527; 7560,460;61,53238
1007,40; 4613,500;  192,835; 7457,998;60,84743
1007,95; 4604,115;  210,527; 7384,075;61,24708
1008,50; 4510,192;  213,142; 7259,690;60,98092
1009,04; 4489,731;  217,219; 7187,383;61,29715
1009,59; 4409,885;  220,450; 7033,460;61,49169
1010,14; 4355,423;  211,450; 6958,613;61,41800
1010,68; 4308,269;  210,219; 6848,767;61,73112
1011,23; 4233,500;  186,065; 6678,844;62,33748
1011,78; 4192,038;  230,835; 6639,306;61,81199
1012,32; 4112,885;  207,450; 6522,613;61,84218
1012,87; 4097,346;  243,681; 6540,537;61,19984
1013,42; 4025,577;  205,912; 6421,537;61,45264
1013,96; 4059,423;  235,604; 6421,460;61,81553
1014,51; 3960,115;  184,988; 6325,460;61,47943
1015,06; 3970,962;  174,604; 6329,613;61,67915
1015,60; 4024,269;  241,065; 6356,767;61,86050
1016,15; 3997,038;  211,604; 6353,229;61,63572
1016,69; 3971,885;  212,912; 6377,998;60,97194
1017,24; 3981,808;  183,373; 6358,690;61,50995
1017,79; 4044,423;  231,450; 6466,921;61,14972
1018,33; 4021,192;  194,758; 6378,383;61,88012
1018,88; 4089,577;  222,912; 6469,075;61,90465
1019,42; 4038,962;  213,527; 6478,383;61,06181
1019,97; 4047,500;  203,142; 6472,767;61,31719
1020,51; 4121,115;  206,604; 6476,075;62,43767
1021,06; 4074,731;  206,835; 6485,767;61,60117
1021,61; 4042,731;  180,835; 6463,306;61,47097
1022,15; 4046,962;  170,450; 6391,767;62,31014
1022,70; 4065,808;  205,450; 6440,229;61,91651
1023,24; 4035,500;  202,988; 6332,690;62,52362
1023,79; 3996,192;  209,681; 6297,383;62,19936
1024,33; 3992,346;  198,142; 6239,460;62,80425
1024,88; 3905,885;  204,988; 6135,767;62,40152
1025,42; 3861,115;  204,296; 6033,844;62,72903
1025,97; 3805,500;  210,296; 5962,613;62,50010
1026,51; 3715,577;  171,296; 5839,613;62,52792
1027,06; 3685,731;  200,219; 5779,690;62,47029
1027,60; 3649,654;  211,912; 5684,613;62,81618
1028,15; 3598,500;  214,142; 5623,998;62,55911
1028,69; 3484,500;  174,912; 5497,998;62,17424
1029,24; 3484,038;  201,988; 5459,383;62,42731
1029,78; 3385,423;  197,065; 5329,613;62,12037
1030,33; 3336,423;  183,988; 5216,767;62,63805
1030,87; 3341,038;  193,988; 5188,767;63,00679
1031,42; 3292,115;  185,604; 5083,229;63,42894
1031,96; 3252,962;  209,142; 5011,229;63,38535
1032,51; 3209,423;  186,604; 4911,383;63,97800
1033,05; 3185,346;  202,681; 4911,152;63,34679
1033,60; 3090,038;  177,065; 4727,383;64,01692
1034,14; 3061,269;  201,219; 4712,537;63,39723
1034,69; 3050,962;  197,681; 4653,152;64,03993
1035,23; 3027,423;  194,296; 4593,306;64,40374
1035,77; 2969,423;  193,373; 4508,306;64,33588
1036,32; 2954,731;  180,065; 4440,383;65,12814
1036,86; 2932,731;  193,373; 4380,229;65,42756
1037,41; 2910,038;  205,527; 4313,613;65,83385
1037,95; 2826,423;  175,835; 4243,998;65,15442
1038,50; 2816,192;  193,681; 4209,613;65,30268
1039,04; 2794,808;  202,835; 4177,152;65,21807
1039,58; 2728,038;  183,604; 4077,460;65,34486
1040,13; 2727,731;  190,835; 4016,460;66,31325
1040,67; 2688,808;  219,912; 4009,306;65,15279
1041,21; 2668,885;  215,604; 3914,537;66,32402
1041,76; 2583,115;  177,373; 3831,844;65,83011
1042,30; 2580,577;  199,835; 3784,229;66,41966
1042,85; 2526,885;  198,450; 3713,613;66,23973
1043,39; 2464,731;  184,527; 3681,075;65,21300
1043,93; 2469,654;  213,296; 3622,537;66,18359
1044,48; 2429,346;  210,450; 3578,998;65,87100
1045,02; 2381,423;  192,296; 3519,075;65,80320
1045,56; 2394,192;  214,373; 3495,767;66,42967
1046,11; 2358,500;  203,835; 3438,767;66,60619
1046,65; 2305,038;  203,450; 3395,613;65,83587
1047,19; 2273,269;  197,373; 3338,152;66,09495
1047,74; 2190,654;  179,219; 3270,767;65,06238
1048,28; 2216,423;  199,450; 3236,844;66,40472
1048,82; 2189,654;  216,604; 3207,460;65,96941
1049,37; 2159,577;  199,373; 3158,921;66,23322
1049,91; 2126,654;  188,065; 3091,998;66,75735
1050,45; 2111,500;  215,988; 3099,152;65,74416
1050,99; 2077,731;  205,450; 3019,306;66,53791
1051,54; 2046,423;  190,835; 2965,998;66,86411
1052,08; 2051,423;  216,835; 2957,383;66,94239
1052,62; 2031,885;  222,758; 2899,921;67,57626
1053,16; 1982,423;  196,296; 2822,844;68,00283
1053,71; 1962,654;  213,912; 2812,075;67,30686
1054,25; 1930,269;  212,681; 2788,383;66,68429
1054,79; 1915,269;  209,142; 2740,229;67,40690
1055,33; 1845,346;  190,527; 2662,075;66,95477
1055,88; 1861,269;  213,142; 2666,075;67,19006
1056,42; 1864,654;  232,296; 2621,613;68,31900
1056,96; 1802,885;  214,988; 2586,844;66,94742
1057,50; 1796,885;  207,527; 2526,075;68,54970
1058,05; 1748,577;  212,296; 2490,152;67,44416
1058,59; 1747,192;  228,219; 2451,075;68,33431
1059,13; 1689,423;  190,065; 2393,383;68,05001
1059,67; 1725,269;  219,681; 2382,075;69,62599
1060,21; 1669,115;  211,219; 2329,613;68,82081
1060,76; 1670,885;  218,758; 2326,767;68,88616
1061,30; 1656,808;  225,527; 2294,229;69,18739
1061,84; 1607,500;  209,681; 2231,537;69,13546
1062,38; 1577,731;  201,988; 2182,229;69,47350
1062,92; 1607,115;  232,681; 2193,229;70,10461
1063,46; 1554,423;  229,988; 2154,690;68,81245
1064,01; 1514,269;  212,988; 2121,075;68,19821
1064,55; 1513,269;  215,604; 2085,306;69,40493
1065,09; 1455,577;  182,527; 2059,537;67,82331
1065,63; 1481,115;  240,296; 2079,075;67,48061
1066,17; 1487,962;  231,912; 2047,921;69,16538
1066,71; 1458,885;  231,450; 2014,690;68,83170
1067,25; 1410,577;  206,142; 1967,767;68,37066
1067,80; 1424,885;  224,912; 1983,152;68,24852
1068,34; 1407,269;  240,219; 1968,690;67,51921
1068,88; 1356,654;  209,373; 1898,229;67,93243
1069,42; 1379,654;  240,373; 1907,921;68,32072
1069,96; 1328,885;  201,681; 1855,537;68,15612
1070,50; 1349,423;  235,527; 1860,767;68,53732
1071,04; 1302,577;  205,450; 1809,690;68,38918
1071,58; 1291,808;  209,065; 1805,537;67,82098
1072,12; 1279,808;  209,296; 1764,767;68,82233
1072,66; 1291,654;  209,604; 1749,306;70,27659
1073,21; 1288,962;  224,604; 1761,921;69,23474
1073,75; 1257,654;  223,219; 1719,383;69,13914
1074,29; 1253,962;  234,296; 1678,921;70,58340
1074,83; 1244,500;  232,219; 1696,460;69,13351
1075,37; 1232,192;  217,065; 1653,998;70,64541
1075,91; 1197,962;  230,219; 1650,306;68,14671
1076,45; 1186,654;  213,835; 1621,383;69,11446
1076,99; 1177,654;  237,758; 1612,613;68,36325
1077,53; 1156,885;  203,912; 1554,383;70,56597
1078,07; 1162,115;  226,450; 1560,690;70,12720
1078,61; 1141,500;  223,219; 1544,767;69,48523
1079,15; 1128,577;  205,988; 1512,613;70,60851
1079,69; 1106,346;  221,296; 1515,613;68,37968
1080,23; 1115,808;  240,296; 1496,075;69,71861
1080,77; 1126,423;  237,988; 1468,075;72,22538
1081,31; 1081,423;  209,604; 1437,460;71,00339
1081,85; 1104,885;  227,296; 1437,537;72,51357
1082,39; 1062,038;  212,450; 1417,537;70,50020
1082,93; 1063,269;  225,065; 1404,152;71,08926
1083,47; 1040,038;  202,604; 1359,306;72,39848
1084,01; 1031,346;  234,527; 1387,306;69,12160
1084,55; 1003,115;  215,835; 1337,383;70,19590
1085,09; 1024,269;  242,142; 1348,613;70,68661
1085,63;  992,500;  219,604; 1311,921;70,75748
1086,17;  973,423;  215,142; 1312,152;69,12253
1086,71;  969,885;  219,296; 1285,844;70,37549
1087,24; 1000,885;  244,142; 1292,383;72,19168
1087,78;  979,269;  216,373; 1268,075;72,53920
1088,32;  941,731;  211,142; 1223,767;72,14798
1088,86;  963,962;  231,296; 1248,075;72,05750
1089,40;  941,269;  224,450; 1219,383;72,04701
1089,94;  908,731;  203,835; 1199,229;70,81578
1090,48;  912,962;  232,065; 1192,229;70,91461
1091,02;  904,808;  226,835; 1177,383;71,32444
1091,56;  892,115;  232,219; 1157,921;71,28603
1092,10;  866,346;  207,681; 1132,921;71,18857
1092,63;  891,885;  238,296; 1142,767;72,26195
1093,17;  870,500;  230,142; 1128,998;71,24143
1093,71;  855,423;  219,450; 1104,921;71,82313
1094,25;  848,269;  238,450; 1115,075;69,56444
1094,79;  837,885;  223,604; 1085,537;71,26784
1095,33;  827,192;  219,142; 1071,075;71,37301
1095,87;  813,500;  219,758; 1063,998;70,32858
1096,40;  795,115;  207,988; 1035,306;70,96756
1096,94;  802,885;  212,296; 1032,306;72,02214
1097,48;  812,423;  219,835; 1031,306;73,02644
1098,02;  781,269;  226,065; 1014,537;70,41524
1098,56;  760,731;  192,527;  979,921;72,16256
1099,10;  747,500;  193,604;  972,075;71,15179
1099,63;  767,577;  199,065;  959,998;74,71246
1100,17;  766,192;  218,142;  971,229;72,77384
1100,71;  770,654;  230,527;  977,460;72,31266

