
Integration time [ms]: 120,000
Averaging Nr. [scans]: 13
Smoothing Nr. [pixels]: 0
Data measured with spectrometer [name]: 2009305U1
Wave   ;Sample   ;Dark     ;Reference;Reflectance
[nm]   ;[counts] ;[counts] ;[counts] ;[%]

 175,72;  206,217;  196,668;  197,919;763,34849
 176,32;  220,816;  224,824;  212,280; 0,00000
 176,92;  243,850;  241,130;  242,571;188,81393
 177,52;  250,206;  242,515;  254,327;65,11342
 178,12;  223,082;  234,286;  223,116; 0,00000
 178,72;  259,047;  259,440;  254,402; 0,00000
 179,32;  251,421;  246,671;  235,386; 0,00000
 179,92;  244,319;  234,900;  248,482;69,34867
 180,52;  232,830;  240,436;  237,089; 0,00000
 181,12;  251,907;  253,977;  245,596; 0,00000
 181,73;  267,546;  269,515;  273,796;-45,99599
 182,33;  340,512;  335,668;  334,695; 0,00000
 182,93;  258,166;  254,130;  265,674;34,95901
 183,53;  228,533;  236,441;  221,261; 0,00000
 184,13;  232,786;  237,671;  221,796; 0,00000
 184,73;  269,167;  262,518;  271,534;73,74497
 185,33;  265,671;  229,840;  336,352;33,64042
 185,93;  266,576;  230,227;  351,774;29,90531
 186,53;  277,233;  244,918;  379,899;23,94054
 187,13;  304,492;  274,916;  403,937;22,92291
 187,73;  267,948;  235,688;  356,935;26,60663
 188,33;  263,327;  241,766;  349,541;20,00516
 188,93;  288,660;  249,615;  369,880;32,46540
 189,53;  286,571;  249,772;  385,703;27,07173
 190,13;  320,845;  275,006;  414,463;32,86910
 190,73;  252,624;  214,465;  357,542;26,66993
 191,34;  295,966;  255,616;  380,255;32,37350
 191,94;  273,921;  233,998;  358,715;32,01132
 192,54;  285,391;  238,761;  386,808;31,49663
 193,14;  293,355;  254,609;  383,084;30,15862
 193,74;  272,574;  248,378;  396,443;16,34108
 194,34;  291,402;  252,224;  387,868;28,88324
 194,94;  252,468;  212,609;  342,507;30,68507
 195,54;  210,773;  192,610;  327,986;13,41712
 196,14;  249,660;  222,454;  364,863;19,10375
 196,74;  246,880;  216,764;  341,279;24,18672
 197,34;  232,505;  194,760;  337,313;26,47727
 197,94;  263,630;  225,608;  364,072;27,45940
 198,54;  270,111;  230,300;  376,969;27,14323
 199,14;  239,268;  205,914;  371,989;20,08351
 199,74;  241,231;  202,991;  371,028;22,75733
 200,34;  230,132;  185,529;  381,448;22,76585
 200,94;  273,005;  230,838;  425,835;21,62443
 201,54;  255,507;  210,991;  424,829;20,81741
 202,14;  278,886;  228,221;  464,972;21,40008
 202,74;  259,812;  209,452;  467,115;19,54473
 203,34;  245,216;  188,758;  473,666;19,81625
 203,94;  227,551;  173,913;  479,547;17,54967
 204,54;  291,803;  230,608;  560,734;18,53667
 205,14;  270,411;  194,529;  577,711;19,80318
 205,74;  314,827;  234,297;  662,667;18,79927
 206,34;  280,912;  194,990;  656,194;18,62990
 206,94;  294,740;  206,682;  723,812;17,02814
 207,54;  287,492;  180,990;  761,512;18,34592
 208,14;  310,151;  194,759;  845,961;17,71989
 208,74;  327,376;  208,529;  911,260;16,91218
 209,34;  331,410;  205,914;  978,815;16,23705
 209,94;  362,472;  213,375; 1077,076;17,26259
 210,54;  363,872;  203,989; 1184,084;16,31294
 211,14;  382,160;  215,606; 1280,692;15,63762
 211,73;  381,718;  202,914; 1388,013;15,08769
 212,33;  401,887;  218,530; 1506,797;14,23285
 212,93;  401,372;  198,914; 1587,260;14,58266
 213,53;  389,878;  178,298; 1618,606;14,68993
 214,13;  410,805;  200,450; 1689,169;14,12994
 214,73;  398,193;  178,451; 1740,510;14,06745
 215,33;  392,011;  160,837; 1762,383;14,43442
 215,93;  425,572;  204,605; 1872,417;13,24891
 216,53;  411,588;  159,606; 1926,444;14,26173
 217,13;  461,210;  214,605; 2158,920;12,68339
 217,73;  470,961;  190,528; 2304,263;13,26718
 218,33;  455,300;  152,219; 2518,725;12,80713
 218,93;  531,344;  182,832; 2769,091;13,47550
 219,53;  540,264;  193,450; 3043,686;12,16792
 220,13;  566,809;  158,449; 3363,047;12,74293
 220,73;  648,400;  180,221; 3703,613;13,28772
 221,32;  709,069;  184,529; 4093,106;13,42021
 221,92;  768,523;  183,065; 4469,423;13,65864
 222,52;  803,457;  183,066; 4860,098;13,26463
 223,12;  859,272;  181,835; 5272,367;13,30778
 223,72;  940,235;  191,912; 5711,636;13,55726
 224,32; 1017,532;  191,681; 6080,154;14,02487
 224,92; 1068,896;  176,296; 6396,211;14,35067
 225,52; 1148,627;  194,375; 6776,081;14,49855
 226,12; 1213,467;  184,066; 7115,680;14,85080
 226,72; 1273,776;  163,836; 7436,883;15,26100
 227,31; 1311,832;  150,836; 7843,941;15,09139
 227,91; 1439,875;  191,529; 8225,304;15,53872
 228,51; 1554,131;  176,068; 8674,641;16,21523
 229,11; 1622,741;  180,451; 9046,663;16,26726
 229,71; 1701,080;  178,683; 9391,280;16,52516
 230,31; 1813,671;  167,758; 9800,650;17,08639
 230,91; 1899,393;  165,146;10128,599;17,40609
 231,51; 2026,556;  167,066;10384,244;18,19964
 232,10; 2145,474;  162,988;10757,667;18,71210
 232,70; 2231,940;  186,608;11009,483;18,89823
 233,30; 2360,526;  196,066;11238,918;19,60055
 233,90; 2467,045;  171,374;11352,438;20,53177
 234,50; 2579,699;  174,451;11517,427;21,20474
 235,10; 2674,588;  156,450;11505,442;22,18821
 235,70; 2767,901;  193,760;11579,833;22,60780
 236,29; 2842,439;  192,068;11503,674;23,43054
 236,89; 2877,777;  152,992;11438,703;24,14367
 237,49; 2960,303;  180,913;11287,940;25,02371
 238,09; 2940,604;  180,451;10997,578;25,51650
 238,69; 2993,700;  202,146;10858,055;26,19724
 239,29; 2961,400;  166,682;10503,772;27,03583
 239,89; 2962,566;  180,915;10194,569;27,77858
 240,48; 2890,353;  154,451; 9754,405;28,49911
 241,08; 2874,335;  170,529; 9405,870;29,27674
 241,68; 2848,465;  194,836; 9140,318;29,66446
 242,28; 2740,415;  174,220; 8763,467;29,87683
 242,88; 2742,923;  208,065; 8530,515;30,45807
 243,48; 2683,108;  199,374; 8222,440;30,95742
 244,07; 2597,008;  185,452; 8005,746;30,83716
 244,67; 2590,694;  194,220; 7827,115;31,39666
 245,27; 2552,487;  201,683; 7655,244;31,53934
 245,87; 2501,719;  198,988; 7542,632;31,35679
 246,47; 2481,123;  191,299; 7517,879;31,25366
 247,06; 2463,390;  176,221; 7552,186;31,00841
 247,66; 2453,900;  173,067; 7597,404;30,72104
 248,26; 2461,240;  204,375; 7721,867;30,02150
 248,86; 2486,974;  196,068; 7946,032;29,56021
 249,46; 2451,284;  150,220; 8117,436;28,88166
 250,05; 2507,810;  205,605; 8529,406;27,65809
 250,65; 2517,976;  158,684; 8867,977;27,08937
 251,25; 2596,418;  180,529; 9300,687;26,48955
 251,85; 2652,536;  183,915; 9897,809;25,41330
 252,44; 2723,433;  143,760;10426,548;25,08729
 253,04; 2824,784;  193,837;11157,152;23,99774
 253,64; 2837,147;  144,299;11872,353;22,96074
 254,24; 3005,615;  199,990;12750,291;22,35504
 254,84; 3064,130;  178,374;13710,898;21,32460
 255,43; 3146,140;  177,606;14641,288;20,52405
 256,03; 3220,808;  173,068;15619,314;19,73126
 256,63; 3326,372;  187,607;16570,915;19,15831
 257,23; 3355,694;  165,530;17440,270;18,46722
 257,82; 3427,246;  185,685;18410,923;17,78611
 258,42; 3411,111;  140,301;19238,014;17,12671
 259,02; 3472,503;  195,529;20100,066;16,46345
 259,62; 3446,422;  164,301;20780,805;15,91987
 260,21; 3417,981;  185,760;21389,750;15,24346
 260,81; 3352,693;  179,297;21840,834;14,64991
 261,41; 3293,524;  165,070;22271,751;14,15162
 262,01; 3316,928;  205,071;22747,222;13,80461
 262,60; 3213,771;  153,146;23059,270;13,36160
 263,20; 3186,360;  175,530;23358,004;12,98753
 263,80; 3148,415;  188,609;23556,520;12,66611
 264,40; 3026,516;  157,224;23717,182;12,17868
 264,99; 2984,062;  188,609;23856,252;11,81129
 265,59; 2907,197;  163,226;24016,091;11,50374
 266,19; 2869,379;  174,224;24242,712;11,19786
 266,78; 2892,211;  208,533;24397,709;11,09454
 267,38; 2830,887;  179,149;24300,377;10,99338
 267,98; 2773,446;  173,764;24345,555;10,75503
 268,58; 2781,020;  178,072;24350,973;10,76804
 269,17; 2720,932;  172,919;24355,377;10,53662
 269,77; 2745,718;  194,454;24203,591;10,62622
 270,37; 2685,473;  161,455;24082,628;10,55140
 270,96; 2725,543;  221,993;24011,182;10,52390
 271,56; 2700,197;  169,607;23734,204;10,73895
 272,16; 2654,874;  176,301;23539,069;10,60907
 272,75; 2720,196;  176,916;23407,117;10,94816
 273,35; 2717,291;  184,069;23453,806;10,88633
 273,95; 2736,160;  184,839;23409,924;10,98520
 274,54; 2758,067;  164,144;23390,628;11,16795
 275,14; 2855,593;  201,916;23686,758;11,29953
 275,74; 2879,827;  154,454;23785,213;11,53316
 276,33; 2987,072;  203,223;24173,832;11,61359
 276,93; 3082,064;  186,451;24621,375;11,85030
 277,53; 3189,633;  189,606;25047,943;12,06849
 278,12; 3293,175;  166,145;25551,471;12,31826
 278,72; 3468,270;  213,529;26164,319;12,54197
 279,32; 3603,676;  179,453;26731,464;12,89629
 279,91; 3776,140;  159,760;27416,178;13,26799
 280,51; 3881,397;  171,452;27950,740;13,35507
 281,11; 4108,581;  179,991;28722,006;13,76424
 281,70; 4208,188;  161,530;29076,084;13,99523
 282,30; 4456,121;  172,992;29653,281;14,52879
 282,90; 4629,013;  175,453;30050,521;14,90728
 283,49; 4826,716;  201,377;30707,229;15,16214
 284,09; 4998,394;  206,761;31099,989;15,51030
 284,69; 5220,990;  199,299;31383,821;16,10315
 285,28; 5434,815;  196,684;31825,797;16,56111
 285,88; 5653,228;  220,762;32019,926;17,08367
 286,47; 5825,357;  181,223;32128,176;17,66721
 287,07; 6064,020;  214,837;32257,888;18,25414
 287,67; 6270,800;  200,143;32393,594;18,85681
 288,26; 6513,651;  177,683;32269,677;19,74314
 288,86; 6741,963;  180,684;32334,209;20,40610
 289,46; 7043,452;  193,376;32530,562;21,18328
 290,05; 7349,223;  170,375;32505,111;22,20166
 290,65; 7768,733;  184,223;32648,485;23,36264
 291,24; 8063,393;  193,068;32961,560;24,01797
 291,84; 8467,602;  197,530;33029,454;25,18912
 292,44; 8770,809;  183,220;33101,900;26,08728
 293,03; 9226,152;  239,145;33291,127;27,19053
 293,63; 9510,762;  183,300;33470,733;28,02097
 294,22; 9833,976;  192,991;33683,054;28,78760
 294,82;10187,356;  174,532;33575,594;29,97756
 295,41;10327,573;  161,376;33298,468;30,67921
 296,01;10637,988;  224,685;33327,004;31,45793
 296,61;10777,650;  193,683;32993,397;32,26847
 297,20;10851,274;  195,301;32730,397;32,75224
 297,80;11008,133;  193,682;32568,733;33,40366
 298,39;11075,228;  170,992;32250,732;33,99104
 298,99;11239,179;  197,839;32006,740;34,71148
 299,58;11338,269;  196,528;31893,076;35,15127
 300,18;11398,007;  210,606;31673,312;35,55766
 300,78;11448,929;  177,375;31300,769;36,21570
 301,37;11520,675;  187,532;31326,148;36,39578
 301,97;11721,278;  195,068;31357,466;36,98756
 302,56;11718,784;  183,530;31272,571;37,10392
 303,16;11785,545;  169,761;31119,621;37,53097
 303,75;11972,066;  177,067;31117,546;38,12158
 304,35;12126,913;  173,066;31521,511;38,13218
 304,94;12214,042;  183,299;31356,572;38,59313
 305,54;12275,222;  206,529;31336,491;38,76874
 306,13;12281,235;  163,912;31367,636;38,83294
 306,73;12294,933;  175,143;31149,833;39,12804
 307,33;12319,006;  194,374;31011,498;39,34381
 307,92;12407,634;  186,914;31149,531;39,46928
 308,52;12627,223;  169,608;31623,266;39,60625
 309,11;12872,307;  181,070;32031,332;39,84657
 309,71;13007,322;  162,840;32261,962;40,01506
 310,30;13227,466;  169,145;32596,483;40,26948
 310,90;13395,081;  201,606;32942,868;40,29617
 311,49;13439,739;  185,299;33078,879;40,29491
 312,09;13509,104;  150,529;33147,793;40,48389
 312,68;13739,648;  223,760;33564,913;40,53815
 313,28;13760,327;  162,837;33776,608;40,45214
 313,87;13829,077;  155,683;33948,023;40,46300
 314,47;13983,515;  167,916;34121,906;40,68918
 315,06;14029,839;  166,914;34277,617;40,64098
 315,66;14107,027;  174,606;34487,947;40,60351
 316,25;13917,888;  146,223;34415,457;40,18667
 316,85;13996,463;  148,452;34577,725;40,22162
 317,44;14033,178;  178,455;34696,120;40,13807
 318,04;13959,649;  156,300;34691,771;39,96861
 318,63;13914,404;  148,835;34867,727;39,64864
 319,22;13951,066;  184,069;35016,168;39,52388
 319,82;13901,061;  173,838;34976,663;39,44284
 320,41;13808,466;  188,146;34860,446;39,28300
 321,01;13708,798;  191,144;35028,765;38,80189
 321,60;13737,902;  176,299;35146,306;38,78067
 322,20;13655,167;  155,606;35103,713;38,62745
 322,79;13620,618;  210,529;35170,511;38,35840
 323,39;13482,519;  169,374;35258,974;37,94043
 323,98;13392,992;  159,606;34983,952;38,00038
 324,58;13334,079;  164,454;34968,930;37,83888
 325,17;13149,661;  178,607;34806,918;37,45795
 325,76;13011,477;  190,606;34590,812;37,26975
 326,36;12814,844;  157,836;34290,160;37,08217
 326,95;12603,532;  191,914;33891,046;36,83067
 327,55;12315,385;  156,453;33609,990;36,34573
 328,14;12126,420;  168,374;33306,357;36,08562
 328,74;11956,281;  204,146;32801,533;36,05239
 329,33;11701,475;  185,067;32458,102;35,68430
 329,92;11383,302;  160,301;31882,668;35,37883
 330,52;11086,906;  172,451;31214,683;35,16002
 331,11;10863,220;  176,376;30849,970;34,84053
 331,71;10570,294;  169,607;30282,948;34,53847
 332,30;10331,503;  186,683;29783,956;34,27620
 332,89;10059,364;  225,837;29357,728;33,75520
 333,49; 9800,311;  185,914;28709,171;33,70722
 334,08; 9546,221;  176,299;28312,711;33,30176
 334,68; 9306,328;  182,915;27909,086;32,90542
 335,27; 9131,996;  184,528;27528,220;32,72224
 335,86; 8993,220;  223,838;27324,046;32,35909
 336,46; 8807,760;  190,759;27025,094;32,11185
 337,05; 8657,661;  172,607;26773,720;31,89736
 337,65; 8489,569;  161,915;26639,826;31,45133
 338,24; 8465,730;  224,298;26590,654;31,25738
 338,83; 8312,638;  208,068;26462,711;30,86909
 339,43; 8230,574;  177,069;26457,101;30,64496
 340,02; 8117,873;  178,531;26386,871;30,29319
 340,61; 8057,752;  173,837;26369,338;30,09645
 341,21; 8072,127;  203,607;26349,533;30,09463
 341,80; 7913,739;  179,915;26375,384;29,52352
 342,40; 7879,121;  171,682;26432,125;29,35000
 342,99; 7820,748;  182,067;26467,113;29,06094
 343,58; 7814,399;  175,990;26717,718;28,77887
 344,18; 7727,762;  190,836;26808,342;28,31567
 344,77; 7778,996;  162,992;27092,035;28,28175
 345,36; 7778,840;  157,453;27385,200;27,99125
 345,96; 7821,957;  203,606;27672,891;27,73407
 346,55; 7777,437;  164,143;27940,079;27,40968
 347,14; 7822,151;  155,297;28302,500;27,23842
 347,74; 7850,826;  140,142;28698,886;26,99938
 348,33; 7951,382;  175,526;29329,262;26,67190
 348,92; 8025,933;  185,218;29983,524;26,31262
 349,52; 8038,429;  147,526;30445,585;26,04425
 350,11; 8097,787;  173,454;30582,180;26,05941
 350,70; 8005,337;  173,452;30809,809;25,56402
 351,29; 7849,883;  148,764;30507,921;25,36671
 351,89; 7800,682;  174,685;30478,746;25,16493
 352,48; 7702,460;  155,299;30497,665;24,87334
 353,07; 7627,596;  182,066;30396,277;24,64247
 353,67; 7524,998;  191,756;30353,888;24,31274
 354,26; 7418,469;  170,990;30103,932;24,21239
 354,85; 7251,262;  185,067;29973,792;23,72104
 355,45; 7171,125;  155,684;29816,742;23,65203
 356,04; 7080,574;  174,759;29768,055;23,33574
 356,63; 6981,449;  201,145;29409,997;23,21318
 357,22; 6827,212;  175,917;29375,176;22,77899
 357,82; 6729,141;  193,224;29208,614;22,52569
 358,41; 6659,473;  201,760;29108,120;22,34011
 359,00; 6513,123;  158,300;28913,918;22,09941
 359,60; 6451,489;  180,221;28724,683;21,97017
 360,19; 6328,978;  176,605;28638,178;21,61642
 360,78; 6276,011;  190,222;28497,576;21,49897
 361,37; 6145,820;  174,761;28242,538;21,27372
 361,97; 6067,197;  186,530;28190,006;20,99978
 362,56; 5984,352;  169,531;27892,787;20,97452
 363,15; 5915,534;  213,453;27606,375;20,81589
 363,74; 5763,104;  174,685;27373,531;20,54653
 364,34; 5612,534;  195,992;26912,293;20,27429
 364,93; 5490,199;  163,069;26430,374;20,28046
 365,52; 5328,681;  149,376;26172,508;19,90270
 366,11; 5258,749;  171,146;25882,043;19,78773
 366,71; 5134,605;  163,377;25437,168;19,66950
 367,30; 5026,204;  170,607;25110,181;19,46945
 367,89; 4967,750;  198,990;24925,860;19,28574
 368,48; 4886,032;  198,224;24640,300;19,17926
 369,07; 4738,644;  179,760;24120,963;19,04200
 369,67; 4664,831;  203,454;23868,702;18,85202
 370,26; 4567,187;  171,452;23599,578;18,76264
 370,85; 4500,210;  179,530;23323,075;18,66905
 371,44; 4423,828;  176,145;23107,871;18,52317
 372,03; 4336,621;  152,223;22932,418;18,36858
 372,63; 4260,352;  152,684;22571,978;18,32202
 373,22; 4234,379;  166,376;22343,589;18,34317
 373,81; 4157,969;  148,376;22009,643;18,34108
 374,40; 4092,584;  165,913;21699,790;18,23485
 374,99; 4005,791;  169,761;21518,751;17,96821
 375,59; 3930,451;  162,528;21175,243;17,93163
 376,18; 3924,575;  193,761;21119,644;17,82871
 376,77; 3869,950;  186,299;20977,832;17,71707
 377,36; 3856,256;  195,838;20847,778;17,72433
 377,95; 3815,532;  181,146;20525,705;17,86417
 378,55; 3749,875;  157,913;20341,534;17,79642
 379,14; 3751,477;  185,299;20317,114;17,71414
 379,73; 3750,229;  175,684;20230,320;17,82403
 380,32; 3777,438;  185,991;20308,823;17,84762
 380,91; 3746,067;  175,685;20112,135;17,90882
 381,50; 3747,316;  189,915;20145,055;17,82699
 382,10; 3699,899;  166,530;19978,130;17,83485
 382,69; 3697,600;  153,376;19923,509;17,92716
 383,28; 3707,345;  190,761;19875,842;17,86421
 383,87; 3707,709;  170,377;19769,746;18,04819
 384,46; 3713,079;  162,070;19724,738;18,15197
 385,05; 3713,152;  193,223;19732,931;18,01423
 385,64; 3750,056;  178,069;19695,581;18,30145
 386,24; 3725,998;  149,609;19626,893;18,36185
 386,83; 3795,343;  192,455;19630,827;18,53492
 387,42; 3845,830;  188,761;19800,427;18,64742
 388,01; 3920,952;  187,379;19979,741;18,86371
 388,60; 3968,965;  175,378;20220,112;18,92560
 389,19; 3998,262;  156,457;20416,341;18,96262
 389,78; 4097,629;  165,765;20729,299;19,12056
 390,37; 4264,664;  222,994;21142,177;19,32040
 390,96; 4299,619;  180,763;21286,326;19,51550
 391,56; 4343,436;  176,227;21344,508;19,68610
 392,15; 4475,606;  160,072;21679,720;20,05392
 392,74; 4482,996;  151,460;21795,507;20,01260
 393,33; 4626,299;  166,227;22126,116;20,31008
 393,92; 4753,410;  173,461;22513,333;20,50123
 394,51; 4843,459;  149,304;22716,088;20,80117
 395,10; 4970,620;  192,848;22911,234;21,03042
 395,69; 5009,011;  176,924;23003,980;21,16824
 396,28; 5083,019;  185,464;23176,013;21,30247
 396,87; 5150,493;  192,620;23343,392;21,41558
 397,46; 5216,826;  181,314;23335,340;21,74789
 398,06; 5369,844;  189,701;23615,542;22,11295
 398,65; 5411,765;  177,244;23677,260;22,27454
 399,24; 5542,066;  188,014;23858,432;22,61917
 399,83; 5538,798;  164,329;23835,982;22,70424
 400,42; 5703,273;  201,796;23985,677;23,13111
 401,01; 5752,561;  182,573;24029,218;23,35753
 401,60; 5830,883;  177,275;24210,515;23,52412
 402,19; 5883,100;  196,513;24101,561;23,78823
 402,78; 5965,043;  200,602;24087,601;24,13213
 403,37; 5975,765;  187,228;23877,105;24,43464
 403,96; 6023,444;  182,241;23721,090;24,81516
 404,55; 6078,650;  167,487;23720,600;25,09716
 405,14; 6031,310;  167,808;23513,307;25,11620
 405,73; 6190,314;  183,285;23436,720;25,83287
 406,32; 6204,640;  190,910;23384,544;25,92836
 406,91; 6193,939;  180,307;23126,231;26,20785
 407,50; 6240,778;  178,159;22981,523;26,58651
 408,09; 6226,317;  155,241;22707,575;26,91995
 408,68; 6259,100;  181,013;22565,971;27,15255
 409,27; 6316,596;  175,086;22354,826;27,68973
 409,86; 6379,009;  170,231;22237,205;28,13606
 410,45; 6358,733;  200,684;22171,617;28,02816
 411,04; 6443,066;  197,445;22092,777;28,52490
 411,63; 6450,478;  175,204;21749,606;29,08667
 412,22; 6445,356;  201,425;21608,780;29,16722
 412,81; 6485,155;  192,883;21395,680;29,67661
 413,40; 6431,795;  204,187;21034,618;29,89669
 413,99; 6428,326;  234,803;20717,708;30,23752
 414,58; 6399,256;  160,726;20274,844;31,01568
 415,17; 6371,503;  175,114;20101,949;31,09570
 415,76; 6382,641;  169,195;19974,707;31,37231
 416,35; 6375,069;  159,116;19776,073;31,68663
 416,94; 6487,290;  199,502;19821,526;32,04454
 417,53; 6610,608;  172,960;20056,994;32,37597
 418,12; 6656,077;  166,036;20023,822;32,68260
 418,71; 6872,015;  190,494;20445,675;32,98672
 419,30; 6990,781;  177,189;20578,386;33,39800
 419,89; 7152,358;  176,573;20770,792;33,87254
 420,48; 7292,835;  195,110;21032,068;34,06315
 421,07; 7384,920;  185,340;21040,253;34,52223
 421,66; 7458,634;  165,876;21069,935;34,88680
 422,25; 7486,747;  172,718;21036,735;35,05571
 422,84; 7563,663;  208,487;21049,362;35,29207
 423,43; 7529,145;  171,489;20839,926;35,59851
 424,02; 7495,923;  206,026;20496,880;35,92701
 424,60; 7381,884;  165,714;20092,893;36,21270
 425,19; 7376,091;  185,793;19869,157;36,52982
 425,78; 7402,607;  196,485;19774,962;36,80634
 426,37; 7412,663;  189,715;19661,859;37,09375
 426,96; 7413,165;  189,638;19529,359;37,35073
 427,55; 7407,982;  179,020;19339,603;37,72830
 428,14; 7418,986;  167,788;19155,101;38,18970
 428,73; 7364,976;  186,021;19002,055;38,15339
 429,32; 7437,599;  191,715;18977,775;38,57054
 429,91; 7483,734;  212,482;18966,112;38,77250
 430,50; 7496,962;  195,711;18786,512;39,27346
 431,08; 7493,478;  200,864;18610,124;39,61384
 431,67; 7507,594;  233,863;18580,766;39,64556
 432,26; 7467,158;  230,939;18330,206;39,98073
 432,85; 7440,961;  244,016;18032,499;40,45846
 433,44; 7353,678;  259,014;17649,895;40,79531
 434,03; 7252,568;  264,704;17299,958;41,02002
 434,62; 7127,292;  220,476;16897,307;41,41564
 435,21; 7091,821;  235,708;16746,958;41,52389
 435,79; 7101,628;  230,782;16568,544;42,05500
 436,38; 7080,447;  224,164;16412,732;42,35262
 436,97; 7078,516;  220,472;16329,431;42,57286
 437,56; 7009,985;  235,930;16162,416;42,53327
 438,15; 7006,025;  218,700;16037,367;42,90706
 438,74; 7103,970;  235,776;16092,672;43,31361
 439,33; 7130,277;  219,777;16171,359;43,32172
 439,91; 7149,308;  187,314;16238,238;43,37442
 440,50; 7232,953;  236,006;16217,333;43,78202
 441,09; 7283,519;  220,312;16301,833;43,92127
 441,68; 7306,484;  214,310;16343,764;43,97033
 442,27; 7337,498;  196,464;16282,263;44,39340
 442,86; 7344,369;  183,537;16344,663;44,30899
 443,44; 7428,275;  185,307;16399,787;44,66975
 444,03; 7499,163;  234,768;16429,527;44,85646
 444,62; 7468,461;  186,844;16264,941;45,28904
 445,21; 7367,158;  202,230;16176,369;44,85330
 445,80; 7344,838;  225,535;15999,528;45,13317
 446,39; 7325,744;  250,920;15821,042;45,43846
 446,97; 7220,011;  183,225;15554,035;45,78019
 447,56; 7124,638;  181,761;15307,592;45,90080
 448,15; 7074,037;  185,994;15168,718;45,97324
 448,74; 6981,101;  195,686;14965,263;45,94184
 449,33; 6944,211;  191,608;14784,807;46,27226
 449,91; 6856,773;  191,298;14588,544;46,29688
 450,50; 6806,762;  181,375;14406,952;46,57377
 451,09; 6759,857;  191,837;14299,949;46,55492
 451,68; 6759,427;  209,682;14214,719;46,76707
 452,26; 6672,771;  197,604;14109,488;46,54415
 452,85; 6661,895;  182,989;14003,849;46,87773
 453,44; 6705,112;  201,832;14047,530;46,96968
 454,03; 6663,545;  183,680;13933,596;47,12657
 454,61; 6689,597;  175,370;13940,884;47,32280
 455,20; 6817,961;  205,139;14121,979;47,51669
 455,79; 6803,343;  204,679;14106,344;47,46672
 456,38; 6859,617;  204,752;14172,857;47,64329
 456,97; 6889,709;  183,445;14221,795;47,77103
 457,55; 6916,707;  187,213;14341,041;47,54540
 458,14; 6933,231;  207,599;14274,847;47,81057
 458,73; 6903,269;  197,751;14154,010;48,04667
 459,31; 6957,543;  215,519;14203,915;48,19727
 459,90; 7040,035;  226,750;14306,406;48,39099
 460,49; 7095,815;  273,366;14411,806;48,25461
 461,08; 7088,862;  191,133;14403,434;48,53351
 461,66; 7138,980;  192,365;14554,358;48,36804
 462,25; 7156,464;  188,517;14600,243;48,34915
 462,84; 7233,809;  218,133;14695,403;48,45994
 463,43; 7147,357;  161,130;14551,405;48,54825
 464,01; 7211,569;  195,821;14623,012;48,62865
 464,60; 7195,985;  229,977;14589,624;48,51100
 465,19; 7071,056;  165,359;14358,804;48,65413
 465,77; 7055,015;  190,281;14302,727;48,64312
 466,36; 7050,829;  206,669;14272,145;48,65928
 466,95; 6870,421;  182,899;13880,028;48,82426
 467,53; 6765,281;  179,819;13600,061;49,07111
 468,12; 6657,925;  212,434;13372,184;48,97883
 468,71; 6536,638;  196,898;13136,177;48,99609
 469,29; 6372,307;  176,972;12847,700;48,89486
 469,88; 6290,053;  179,894;12587,461;49,24542
 470,47; 6356,000;  239,969;12708,011;49,05366
 471,06; 6286,804;  196,585;12693,693;48,73303
 471,64; 6356,522;  203,278;12803,602;48,83402
 472,23; 6329,986;  165,274;12796,077;48,80697
 472,81; 6390,591;  172,430;12890,420;48,89264
 473,40; 6454,529;  179,197;13041,307;48,78929
 473,99; 6598,549;  265,197;13223,941;48,87319
 474,57; 6644,186;  172,889;13406,317;48,90114
 475,16; 6687,711;  187,660;13512,513;48,78141
 475,75; 6795,645;  200,888;13632,333;49,09939
 476,33; 6773,581;  219,733;13698,089;48,62498
 476,92; 6800,433;  211,812;13770,265;48,59420
 477,51; 6861,694;  201,272;13807,479;48,95135
 478,09; 6864,812;  193,810;13841,364;48,88057
 478,68; 6861,376;  204,964;13846,695;48,79448
 479,27; 6882,132;  216,888;13833,967;48,94768
 479,85; 6854,736;  204,195;13767,446;49,03353
 480,44; 6907,221;  163,425;13890,035;49,12937
 481,02; 7535,010;  199,193;15348,965;48,42196
 481,61; 8528,389;  219,270;17381,884;48,41407
 482,20; 9083,215;  201,346;18466,821;48,62654
 482,78; 9443,762;  225,040;19260,365;48,42955
 483,37; 9755,689;  221,575;19787,966;48,72699
 483,95; 9858,347;  238,421;20101,597;48,43096
 484,54; 9972,058;  253,270;20269,915;48,55353
 485,13; 9860,214;  215,035;20216,120;48,22328
 485,71; 9804,189;  190,959;20019,097;48,48277
 486,30; 9626,460;  226,420;19680,289;48,31965
 486,88; 9514,477;  268,420;19317,698;48,53757
 487,47; 9140,340;  232,958;18612,877;48,46258
 488,05; 8688,374;  227,419;17775,668;48,21538
 488,64; 8134,484;  227,263;16521,135;48,52880
 489,23; 7258,581;  242,418;14695,116;48,54569
 489,81; 6219,618;  230,033;12503,314;48,80182
 490,40; 5871,733;  203,648;11907,484;48,42929
 490,98; 5744,906;  173,955;11627,382;48,64004
 491,57; 5719,805;  215,187;11548,864;48,56868
 492,15; 5635,730;  189,647;11515,648;48,08478
 492,74; 5582,834;  199,957;11363,542;48,21818
 493,32; 5560,764;  218,340;11287,171;48,26547
 493,91; 5506,784;  195,570;11139,766;48,52996
 494,50; 5481,079;  207,721;11189,107;48,02087
 495,08; 5431,551;  183,798;11094,897;48,09555
 495,67; 5403,992;  208,339;11096,644;47,71774
 496,25; 5312,419;  170,184;10988,928;47,53080
 496,84; 5311,013;  167,724;10969,404;47,61564
 497,42; 5281,691;  162,107;10888,278;47,72984
 498,01; 5288,697;  198,262;10888,488;47,61766
 498,59; 5200,253;  171,183;10805,786;47,28968
 499,18; 5167,968;  163,647;10772,169;47,17265
 499,76; 5171,778;  200,338;10714,168;47,28477
 500,35; 5033,206;  190,951;10529,303;46,83778
 500,93; 5057,810;  178,260;10438,289;47,55883
 501,52; 5001,972;  177,337;10374,623;47,31293
 502,10; 4989,924;  191,489;10378,023;47,10567
 502,69; 4908,711;  182,180;10226,592;47,05632
 503,27; 4791,498;  170,567;10017,943;46,92551
 503,86; 4782,273;  175,719; 9986,836;46,95240
 504,44; 4740,634;  162,410; 9862,597;47,19728
 505,03; 4583,491;  149,257; 9629,414;46,77385
 505,61; 4529,228;  163,718; 9546,523;46,52670
 506,19; 4482,169;  182,257; 9366,059;46,82061
 506,78; 4350,345;  152,716; 9184,790;46,47470
 507,36; 4273,174;  167,795; 9072,185;46,10512
 507,95; 4192,302;  168,408; 8850,302;46,34811
 508,53; 4150,900;  164,332; 8761,887;46,36862
 509,12; 4068,812;  177,870; 8629,949;46,03533
 509,70; 3997,705;  180,715; 8488,348;45,94558
 510,29; 3949,302;  188,407; 8328,108;46,20434
 510,87; 3829,879;  164,409; 8144,099;45,93500
 511,46; 3740,953;  159,485; 7966,028;45,87777
 512,04; 3670,928;  180,638; 7824,201;45,66313
 512,62; 3625,686;  172,716; 7724,681;45,72280
 513,21; 3533,644;  158,868; 7536,098;45,74585
 513,79; 3474,028;  166,942; 7407,618;45,67371
 514,38; 3391,119;  144,405; 7251,704;45,68140
 514,96; 3374,377;  194,866; 7217,206;45,27708
 515,54; 3278,484;  155,481; 7062,844;45,21266
 516,13; 3228,026;  179,096; 6917,948;45,24405
 516,71; 3191,553;  174,403; 6831,734;45,32071
 517,30; 3118,830;  155,325; 6691,551;45,33970
 517,88; 3101,046;  185,787; 6621,965;45,29488
 518,46; 3048,041;  153,401; 6497,999;45,62370
 519,05; 2988,074;  160,478; 6477,664;44,76039
 519,63; 2977,499;  181,324; 6415,620;44,85150
 520,22; 2950,610;  182,092; 6337,987;44,97345
 520,80; 2917,188;  174,476; 6226,822;45,31652
 521,38; 2924,334;  195,631; 6241,450;45,13372
 521,97; 2895,606;  160,552; 6210,102;45,21087
 522,55; 2859,268;  182,475; 6213,881;44,38091
 523,13; 2827,251;  165,167; 6207,817;44,05492
 523,72; 2803,180;  162,709; 6145,874;44,13168
 524,30; 2902,598;  183,705; 6308,377;44,39247
 524,89; 2851,492;  154,244; 6317,937;43,76025
 525,47; 2907,707;  171,550; 6418,422;43,80044
 526,05; 2923,105;  147,089; 6489,573;43,76860
 526,64; 2999,618;  186,934; 6620,203;43,72092
 527,22; 3053,118;  175,397; 6752,643;43,75268
 527,80; 3100,343;  215,242; 6874,935;43,32183
 528,39; 3106,346;  171,472; 6963,659;43,20956
 528,97; 3212,391;  179,626; 7137,153;43,58969
 529,55; 3268,887;  181,090; 7292,452;43,42062
 530,14; 3347,039;  202,626; 7473,664;43,24573
 530,72; 3359,893;  171,780; 7625,729;42,77079
 531,30; 3405,540;  148,856; 7738,499;42,90959
 531,89; 3478,520;  177,010; 7827,403;43,15478
 532,47; 3511,259;  206,625; 7946,187;42,69795
 533,05; 3548,686;  203,319; 7993,435;42,94374
 533,63; 3557,842;  191,240; 8016,483;43,02233
 534,22; 3526,795;  166,163; 8045,473;42,65135
 534,80; 3581,912;  196,931; 8129,191;42,67360
 535,38; 3629,380;  268,010; 8276,247;41,97390
 535,97; 3578,397;  173,240; 8124,860;42,82344
 536,55; 3592,500;  215,546; 8278,382;41,88295
 537,13; 3596,957;  207,087; 8215,154;42,33069
 537,71; 3616,764;  246,164; 8231,165;42,21163
 538,30; 3612,545;  248,086; 8351,459;41,51924
 538,88; 3681,501;  273,084; 8422,315;41,82502
 539,46; 3742,112;  308,700; 8568,663;41,56692
 540,05; 3796,782;  308,623; 8699,627;41,57023
 540,63; 3898,623;  343,546; 8864,809;41,72007
 541,21; 3933,575;  351,007; 8970,782;41,56219
 541,79; 3988,708;  381,007; 9119,533;41,28501
 542,38; 4026,897;  400,161; 9275,331;40,86384
 542,96; 4078,339;  394,236; 9398,667;40,91434
 543,54; 4166,930;  420,776; 9606,688;40,78151
 544,12; 4209,357;  391,622; 9719,703;40,92734
 544,70; 4222,846;  380,082; 9848,243;40,58617
 545,29; 4304,640;  399,008;10022,801;40,58308
 545,87; 4302,477;  374,776;10086,994;40,44083
 546,45; 4248,651;  348,854;10109,053;39,95613
 547,03; 4268,394;  339,084;10206,710;39,82022
 547,62; 4291,871;  315,007;10346,147;39,64519
 548,20; 4383,926;  330,006;10512,803;39,81146
 548,78; 4394,440;  295,542;10627,019;39,67389
 549,36; 4429,155;  275,542;10914,598;39,04118
 549,94; 4517,027;  264,314;11046,201;39,44312
 550,53; 4571,370;  269,081;11255,266;39,16090
 551,11; 4621,846;  234,849;11460,197;39,08117
 551,69; 4740,535;  240,004;11797,137;38,94159
 552,27; 4826,806;  212,543;12027,242;39,05527
 552,85; 4940,113;  222,695;12402,005;38,73305
 553,44; 5012,792;  225,388;12707,128;38,35526
 554,02; 5170,501;  232,926;13119,768;38,31486
 554,60; 5254,952;  193,772;13422,753;38,25828
 555,18; 5377,289;  223,542;13805,579;37,94532
 555,76; 5532,588;  206,619;14182,816;38,10743
 556,34; 5653,425;  211,002;14557,042;37,93676
 556,93; 5810,698;  205,311;14950,136;38,01596
 557,51; 5892,255;  192,156;15311,022;37,70190
 558,09; 6030,822;  212,850;15734,992;37,48176
 558,67; 6152,920;  210,693;16082,476;37,43894
 559,25; 6219,929;  223,848;16371,596;37,13262
 559,83; 6319,104;  205,308;16683,960;37,10131
 560,41; 6421,136;  205,771;17055,006;36,88811
 561,00; 6514,017;  208,539;17343,264;36,79941
 561,58; 6650,573;  198,464;17668,680;36,93205
 562,16; 6700,261;  185,157;18011,648;36,54732
 562,74; 6832,532;  167,234;18288,528;36,78158
 563,32; 6933,448;  174,923;18759,153;36,36699
 563,90; 7044,622;  207,309;19120,524;36,15099
 564,48; 7163,770;  204,772;19511,356;36,04469
 565,06; 7366,670;  188,232;20160,583;35,94188
 565,65; 7603,631;  204,153;20836,746;35,86305
 566,23; 7861,740;  250,770;21605,331;35,64096
 566,81; 8051,350;  195,001;22249,173;35,62296
 567,39; 8343,055;  205,077;23136,467;35,48838
 567,97; 8527,143;  222,924;23837,757;35,16527
 568,55; 8843,443;  234,770;24603,461;35,32678
 569,13; 9026,109;  195,539;25332,542;35,12976
 569,71; 9329,220;  195,311;26288,841;35,00450
 570,29; 9694,186;  230,004;27237,665;35,04258
 570,87; 9931,869;  228,157;28016,084;34,92060
 571,45;10139,300;  222,924;28595,630;34,95041
 572,03;10183,129;  180,307;29118,291;34,56641
 572,61;10405,854;  171,539;29768,913;34,57845
 573,20;10615,183;  212,155;30457,944;34,39496
 573,78;10864,996;  194,693;31102,278;34,52325
 574,36;10950,389;  197,001;31598,733;34,24457
 574,94;11079,973;  251,538;31941,039;34,17042
 575,52;11071,352;  186,690;32172,417;34,02975
 576,10;11343,851;  249,537;32753,885;34,13178
 576,68;11453,791;  222,307;33359,301;33,89409
 577,26;11672,049;  242,920;34034,218;33,82270
 577,84;11809,906;  240,847;34439,972;33,82852
 578,42;11895,702;  277,153;34750,082;33,70340
 579,00;11831,083;  227,846;34942,556;33,42455
 579,58;11904,177;  257,538;35231,125;33,30124
 580,16;11836,900;  239,076;35261,609;33,11532
 580,74;11846,350;  233,229;35397,512;33,02533
 581,32;11895,478;  234,076;35482,642;33,08334
 581,90;11794,387;  240,307;35369,754;32,89002
 582,48;11811,064;  242,230;35585,042;32,73320
 583,06;11792,787;  244,307;35773,307;32,50438
 583,64;11814,952;  240,923;35789,173;32,55865
 584,22;11671,785;  251,459;35758,020;32,16399
 584,80;11570,148;  261,537;35487,370;32,10317
 585,38;11412,180;  260,617;35102,456;32,00624
 585,96;11299,896;  224,154;35305,083;31,57198
 586,54;11342,383;  251,921;35185,484;31,74730
 587,12;11270,568;  221,768;35412,288;31,39709
 587,70;11397,116;  257,846;35489,986;31,61678
 588,28;11289,758;  242,306;35598,019;31,24658
 588,86;11297,134;  243,460;35696,487;31,17837
 589,44;11238,980;  219,843;35803,711;30,96667
 590,02;11245,328;  234,843;36051,052;30,74163
 590,59;11262,947;  220,075;36245,321;30,65315
 591,17;11286,441;  223,764;36479,320;30,51305
 591,75;11322,800;  213,227;36521,830;30,59763
 592,33;11308,645;  238,535;36839,517;30,24539
 592,91;11343,502;  193,918;37044,756;30,25598
 593,49;11349,032;  206,764;37432,306;29,93178
 594,07;11443,289;  212,841;37568,143;30,06387
 594,65;11409,556;  224,459;37618,762;29,91123
 595,23;11480,949;  217,612;38120,562;29,71625
 595,81;11459,263;  221,612;38259,539;29,54328
 596,39;11440,154;  209,996;38308,269;29,47682
 596,97;11427,404;  206,149;38540,276;29,27223
 597,55;11358,947;  211,074;38368,431;29,21553
 598,12;11305,731;  184,302;38453,822;29,06080
 598,70;11304,530;  195,149;38552,494;28,96285
 599,28;11347,868;  214,995;38744,330;28,89454
 599,86;11310,659;  204,841;38706,937;28,84471
 600,44;11255,936;  172,610;38933,337;28,59422
 601,02;11276,723;  227,608;38927,712;28,55061
 601,60;11162,620;  209,688;38862,685;28,33657
 602,18;11157,994;  178,610;38870,938;28,37613
 602,75;11110,505;  189,920;39007,867;28,13283
 603,33;11073,734;  201,687;38987,272;28,03115
 603,91;10985,197;  188,840;39040,469;27,78869
 604,49;10973,749;  208,226;39087,397;27,68969
 605,07;10893,836;  215,996;39057,561;27,49076
 605,65;10928,150;  225,533;39172,729;27,47981
 606,23;10966,339;  264,306;39339,727;27,38815
 606,80;10943,562;  285,074;39292,079;27,32455
 607,38;10873,363;  300,686;39398,846;27,04137
 607,96;10873,972;  337,612;39460,608;26,93137
 608,54;10843,284;  389,225;39519,710;26,71589
 609,12;10844,362;  377,689;39488,530;26,76156
 609,70;10757,193;  406,226;39536,322;26,45270
 610,27;10742,866;  399,458;39596,436;26,38828
 610,85;10707,552;  415,995;39673,996;26,21518
 611,43;10656,750;  418,226;39607,677;26,12572
 612,01;10562,094;  389,150;39405,678;26,07342
 612,59;10472,490;  400,072;39457,428;25,78879
 613,16;10414,113;  365,767;39440,885;25,71546
 613,74;10303,534;  354,149;39277,032;25,56179
 614,32;10186,750;  334,533;39289,863;25,29106
 614,90;10203,248;  313,842;39167,606;25,45289
 615,48;10030,803;  264,151;38815,633;25,33405
 616,05; 9896,351;  257,844;38842,752;24,97999
 616,63; 9780,822;  267,460;38596,795;24,82006
 617,21; 9732,164;  266,458;38494,004;24,76148
 617,79; 9637,349;  245,073;38478,384;24,56569
 618,36; 9553,969;  268,996;38341,157;24,38783
 618,94; 9373,976;  209,920;38066,448;24,20733
 619,52; 9285,882;  227,536;37750,342;24,14091
 620,10; 9209,105;  235,304;37721,155;23,93917
 620,67; 9129,853;  234,229;37593,632;23,81094
 621,25; 9005,302;  252,303;37527,175;23,48230
 621,83; 8967,833;  224,689;37484,189;23,46554
 622,41; 8922,654;  272,305;37410,324;23,29243
 622,98; 8836,002;  257,460;37138,325;23,26014
 623,56; 8806,614;  249,537;37196,221;23,16061
 624,14; 8640,436;  239,226;37025,315;22,83801
 624,72; 8673,638;  232,920;36893,535;23,02394
 625,29; 8598,491;  218,691;36946,057;22,81623
 625,87; 8529,754;  265,996;36963,556;22,51855
 626,45; 8463,078;  211,153;36814,243;22,54434
 627,02; 8424,886;  228,458;36763,334;22,43453
 627,60; 8351,193;  216,072;36601,251;22,35834
 628,18; 8350,669;  203,535;36778,453;22,27519
 628,76; 8272,298;  204,075;36703,843;22,10486
 629,33; 8241,759;  236,844;36620,875;22,00118
 629,91; 8193,412;  220,766;36669,155;21,87380
 630,49; 8176,454;  236,152;36885,051;21,66587
 631,06; 8194,451;  224,460;36968,332;21,69067
 631,64; 8102,452;  236,691;36931,222;21,43578
 632,22; 7989,565;  191,076;36867,998;21,26266
 632,79; 8077,057;  222,922;37220,911;21,22855
 633,37; 8027,847;  206,150;37185,197;21,15170
 633,95; 7983,623;  217,537;37305,676;20,93954
 634,52; 7939,587;  204,151;37411,449;20,79010
 635,10; 7913,998;  202,997;37377,906;20,74249
 635,68; 7885,652;  217,153;37630,353;20,49677
 636,25; 7828,410;  192,692;37673,295;20,37245
 636,83; 7826,991;  186,767;37842,843;20,28948
 637,41; 7765,578;  194,538;37809,837;20,12756
 637,98; 7799,840;  220,230;38059,492;20,03107
 638,56; 7723,813;  217,539;38136,337;19,79565
 639,13; 7713,449;  203,768;38190,123;19,76942
 639,71; 7732,733;  245,152;38394,802;19,62687
 640,29; 7595,894;  171,152;38119,221;19,56553
 640,86; 7589,799;  196,844;38359,500;19,37222
 641,44; 7581,704;  195,613;38410,933;19,32757
 642,02; 7579,071;  222,152;38363,981;19,28832
 642,59; 7525,592;  195,075;38474,337;19,15010
 643,17; 7489,343;  195,921;38457,694;19,06190
 643,74; 7441,941;  186,228;38548,281;18,91378
 644,32; 7412,539;  217,151;38467,021;18,81153
 644,89; 7379,752;  207,382;38420,839;18,76922
 645,47; 7341,503;  237,074;38521,349;18,55704
 646,05; 7277,639;  206,536;38420,705;18,50388
 646,62; 7217,160;  201,844;38402,907;18,36419
 647,20; 7210,835;  207,690;38607,956;18,23723
 647,77; 7145,586;  185,767;38427,004;18,19978
 648,35; 7102,491;  180,074;38225,745;18,19502
 648,92; 7099,320;  217,305;38309,794;18,06659
 649,50; 6987,533;  175,459;38234,996;17,89847
 650,08; 6896,054;  171,382;38187,660;17,68893
 650,65; 6907,882;  185,228;38396,554;17,59335
 651,23; 7027,634;  165,689;39107,910;17,62083
 651,80; 7127,923;  179,535;40033,113;17,43479
 652,38; 7182,906;  194,766;40427,469;17,36930
 652,95; 7179,734;  163,458;40771,671;17,27797
 653,53; 7212,639;  190,766;41022,181;17,19723
 654,10; 7220,929;  222,151;41124,076;17,11112
 654,68; 7136,373;  190,689;41047,509;17,00006
 655,25; 7106,586;  178,535;41136,634;16,91497
 655,83; 7051,722;  178,612;41312,836;16,70898
 656,40; 7042,859;  214,689;41245,731;16,64147
 656,98; 6955,610;  187,920;41228,395;16,49028
 657,55; 6921,746;  198,227;41059,136;16,45465
 658,13; 6787,882;  190,843;40647,338;16,30650
 658,70; 6730,095;  203,842;40417,156;16,22909
 659,28; 6500,462;  180,150;39642,127;16,01621
 659,85; 6357,214;  196,612;38796,945;15,95997
 660,43; 6346,504;  213,073;38870,763;15,86600
 661,00; 6331,794;  191,304;38975,734;15,83236
 661,58; 6272,237;  183,765;39279,783;15,57313
 662,15; 6268,220;  174,458;39463,600;15,51004
 662,73; 6336,048;  233,611;39757,803;15,43975
 663,30; 6284,492;  186,534;40068,005;15,29020
 663,88; 6280,243;  197,765;40163,822;15,21911
 664,45; 6301,764;  183,227;40366,179;15,22670
 665,03; 6277,746;  179,842;40832,381;15,00006
 665,60; 6399,190;  262,534;41160,429;15,00482
 666,17; 6336,019;  190,765;41403,401;14,91109
 666,75; 6339,693;  188,457;41655,988;14,83386
 667,32; 6357,445;  215,072;41977,806;14,70778
 667,90; 6337,273;  188,072;42194,085;14,63886
 668,47; 6373,409;  208,149;42570,672;14,55357
 669,05; 6346,699;  177,842;42819,951;14,46659
 669,62; 6351,451;  163,995;42916,692;14,47267
 670,19; 6326,971;  172,688;43051,971;14,35258
 670,77; 6331,569;  197,226;43265,865;14,24318
 671,34; 6256,628;  176,072;43150,683;14,14918
 671,92; 6263,380;  169,918;43589,347;14,03395
 672,49; 6221,131;  196,072;43523,934;13,90574
 673,06; 6199,960;  154,918;43520,828;13,93962
 673,64; 6181,250;  172,995;43528,338;13,85816
 674,21; 6104,232;  161,764;43487,695;13,71573
 674,79; 6141,291;  193,995;43788,589;13,64228
 675,36; 6106,504;  198,149;43863,792;13,53090
 675,93; 6057,179;  167,995;43710,686;13,52508
 676,51; 6078,545;  182,225;43909,581;13,48428
 677,08; 6015,989;  188,687;43958,937;13,31339
 677,65; 6037,279;  187,918;44171,370;13,29901
 678,23; 6017,492;  193,379;44278,957;13,21093
 678,80; 5952,244;  169,071;44424,159;13,06781
 679,38; 5977,380;  175,379;44556,515;13,07312
 679,95; 5967,131;  186,841;44784,871;12,96087
 680,52; 5980,960;  175,917;45115,997;12,91729
 681,10; 6010,096;  184,917;45545,814;12,84185
 681,67; 5999,232;  197,533;45819,248;12,71697
 682,24; 5978,214;  163,610;45886,604;12,71703
 682,82; 5983,812;  175,456;46435,268;12,55594
 683,39; 6084,256;  214,148;46738,778;12,61720
 683,96; 6019,546;  178,071;47100,980;12,44909
 684,54; 6020,374;  163,686;47315,721;12,42086
 685,11; 6104,203;  216,994;47796,077;12,37352
 685,68; 6087,262;  183,609;48151,202;12,30759
 686,25; 6010,475;  174,763;48245,712;12,13979
 686,83; 6066,072;  177,994;48409,837;12,20787
 687,40; 6070,055;  164,301;48766,578;12,15119
 687,97; 6106,345;  219,763;49137,011;12,03375
 688,55; 6087,635;  163,455;49114,829;12,10217
 689,12; 6029,848;  146,378;49392,031;11,94719
 689,69; 6066,753;  160,686;49510,311;11,96781
 690,26; 6054,658;  172,070;49682,590;11,88149
 690,84; 6042,179;  175,763;49831,100;11,81427
 691,41; 6026,930;  187,301;49880,764;11,75130
 691,98; 6037,144;  189,147;50233,427;11,68564
 692,56; 5990,895;  174,686;50284,168;11,60700
 693,13; 6031,416;  221,916;50345,447;11,59036
 693,70; 6010,090;  192,609;50475,650;11,56947
 694,27; 5911,534;  169,455;50631,467;11,37901
 694,84; 5964,132;  158,916;50728,747;11,47960
 695,42; 5969,883;  216,993;50812,641;11,37033
 695,99; 5918,481;  185,531;51125,920;11,25423
 696,56; 5893,771;  176,762;50773,200;11,29923
 697,13; 5890,292;  182,378;51275,863;11,17151
 697,71; 5881,735;  161,454;51270,989;11,19220
 698,28; 5862,641;  180,916;51717,114;11,02473
 698,85; 5859,854;  145,531;51689,163;11,08638
 699,42; 5811,990;  145,454;51791,519;10,97186
 699,99; 5829,126;  188,070;51950,336;10,89801
 700,57; 5816,416;  182,223;52047,000;10,86323
 701,14; 5806,321;  172,377;52172,203;10,83454
 701,71; 5845,842;  178,377;52392,328;10,85431
 702,28; 5812,055;  171,531;52471,223;10,78500
 702,85; 5810,422;  180,300;52403,502;10,78088
 703,43; 5841,789;  181,531;52774,166;10,76245
 704,00; 5826,771;  195,377;52887,214;10,68741
 704,57; 5797,753;  175,992;52949,724;10,65257
 705,14; 5824,043;  199,531;53182,080;10,61578
 705,71; 5806,179;  203,838;53139,513;10,58330
 706,28; 5772,854;  181,300;53165,946;10,55316
 706,86; 5801,836;  208,300;53405,610;10,51470
 707,43; 5784,126;  226,069;53336,813;10,46503
 708,00; 5760,801;  204,223;53266,322;10,47184
 708,57; 5686,475;  174,069;53150,063;10,40548
 709,14; 5720,304;  200,761;53341,573;10,38664
 709,71; 5684,363;  178,915;53489,083;10,32720
 710,28; 5707,730;  180,530;53723,670;10,32289
 710,86; 5671,558;  200,761;53711,411;10,22375
 711,43; 5718,771;  210,376;53873,382;10,26479
 712,00; 5657,984;  186,761;53907,046;10,18465
 712,57; 5704,890;  201,453;54009,095;10,22798
 713,14; 5698,103;  179,145;54185,989;10,21900
 713,71; 5615,777;  187,222;54008,807;10,08620
 714,28; 5686,683;  194,761;54082,702;10,19137
 714,85; 5618,434;  178,991;53894,596;10,12637
 715,42; 5661,416;  184,376;54027,183;10,17228
 716,00; 5694,706;  250,530;54201,078;10,09105
 716,57; 5647,073;  193,068;54324,126;10,07556
 717,14; 5620,517;  177,376;54273,252;10,06203
 717,71; 5612,576;  172,760;54275,531;10,05460
 718,28; 5672,558;  216,145;54345,887;10,08025
 718,85; 5666,771;  167,145;54372,089;10,14599
 719,42; 5656,292;  204,299;54609,215;10,02114
 719,99; 5596,659;  174,529;54345,725;10,00925
 720,56; 5650,564;  191,991;54672,158;10,01938
 721,13; 5655,162;  176,529;54740,206;10,04081
 721,70; 5603,375;  170,068;54607,101; 9,98090
 722,27; 5662,665;  196,837;54661,380;10,03557
 722,84; 5715,647;  237,991;54881,121;10,02442
 723,41; 5619,707;  167,683;54741,631; 9,99016
 723,98; 5647,843;  182,837;54994,064; 9,97060
 724,55; 5662,979;  214,990;55060,805; 9,93328
 725,12; 5640,269;  154,221;55026,776; 9,99780
 725,69; 5634,020;  180,298;55180,286; 9,91586
 726,27; 5620,233;  187,375;55261,719; 9,86459
 726,84; 5693,985;  198,836;55627,383; 9,91393
 727,41; 5717,044;  208,606;55544,816; 9,95449
 727,98; 5733,795;  207,452;55875,941; 9,92724
 728,55; 5757,162;  216,836;55755,144; 9,97568
 729,12; 5721,375;  167,605;55813,961; 9,98047
 729,69; 5791,588;  210,221;55962,779;10,01096
 730,26; 5782,263;  198,682;56213,443; 9,96805
 730,82; 5759,784;  184,913;56095,030; 9,97113
 731,39; 5722,612;  194,374;56137,617; 9,88187
 731,96; 5761,671;  169,990;56522,127; 9,92275
 732,53; 5840,423;  190,067;56737,329; 9,99227
 733,10; 5852,482;  203,451;56801,224; 9,98101
 733,67; 5865,926;  205,605;57072,887; 9,95356
 734,24; 5786,600;  182,605;56736,474; 9,90913
 734,81; 5845,429;  200,066;56852,754; 9,96486
 735,38; 5806,796;  191,759;56642,571; 9,94678
 735,95; 5792,547;  189,143;56516,774; 9,94788
 736,52; 5823,914;  206,759;56567,668; 9,96640
 737,09; 5778,589;  214,066;56263,563; 9,92787
 737,66; 5840,186;  226,989;56505,457; 9,97397
 738,23; 5805,553;  181,758;56571,890; 9,97301
 738,80; 5897,612;  234,066;56727,016;10,02523
 739,37; 5893,825;  220,451;57013,449; 9,98957
 739,94; 5845,038;  191,220;57087,190; 9,93712
 740,51; 5964,098;  288,989;57217,315; 9,96887
 741,07; 5868,387;  188,758;57010,210; 9,99557
 741,64; 5938,985;  210,681;57304,643;10,03312
 742,21; 5936,814;  198,297;57378,922;10,03577
 742,78; 5866,334;  164,296;57089,278;10,01676
 743,35; 5960,624;  185,450;57470,019;10,08155
 743,92; 5938,530;  221,066;57462,221; 9,98838
 744,49; 6017,127;  212,681;57394,193;10,15091
 745,06; 5958,571;  186,066;57407,318;10,08804
 745,63; 5986,169;  177,065;57428,136;10,14672
 746,19; 6001,843;  182,835;57418,646;10,16673
 746,76; 6005,518;  194,527;57385,156;10,16074
 747,33; 5997,885;  186,911;57375,512;10,16107
 747,90; 6062,021;  204,142;57591,022;10,20770
 748,47; 6067,157;  197,758;57503,916;10,24218
 749,04; 6063,755;  204,219;57567,426;10,21480
 749,61; 6092,352;  221,065;57412,859;10,26596
 750,17; 6104,873;  219,527;57580,831;10,26013
 750,74; 6108,009;  207,603;57433,418;10,31074
 751,31; 6091,761;  187,680;57384,928;10,32232
 751,88; 6101,512;  175,757;57254,515;10,38172
 752,45; 6172,033;  188,526;57389,794;10,46044
 753,02; 6168,015;  213,680;57212,150;10,44648
 753,58; 6147,997;  180,449;57085,352;10,48688
 754,15; 6160,826;  184,834;57280,478;10,46663
 754,72; 6138,270;  183,295;57070,449;10,46805
 755,29; 6138,944;  181,834;56891,421;10,50459
 755,86; 6209,465;  199,065;57059,239;10,57049
 756,42; 6238,524;  211,065;56937,902;10,62541
 756,99; 6188,891;  182,680;56933,489;10,58348
 757,56; 6191,181;  193,372;56864,153;10,58360
 758,13; 6167,855;  162,141;56730,279;10,61678
 758,70; 6252,376;  184,910;56782,635;10,72034
 759,26; 6221,897;  190,295;56940,606;10,62832
 759,83; 6231,187;  201,064;57008,116;10,61510
 760,40; 6239,092;  190,372;56726,626;10,69883
 760,97; 6244,767;  177,218;56920,059;10,69306
 761,53; 6265,672;  164,526;56539,339;10,82247
 762,10; 6213,270;  164,756;56492,925;10,73799
 762,67; 6310,252;  203,295;56444,128;10,85858
 763,24; 6240,696;  157,525;55971,945;10,89892
 763,80; 6312,986;  185,833;56198,609;10,93885
 764,37; 6330,122;  179,448;56055,427;11,00772
 764,94; 6247,258;  168,602;55661,322;10,95397
 765,50; 6310,471;  165,371;55636,601;11,07799
 766,07; 6402,146;  203,141;55684,341;11,17316
 766,64; 6342,820;  167,371;55326,159;11,19577
 767,21; 6357,418;  173,756;55232,054;11,23112
 767,77; 6402,939;  190,602;55148,564;11,30380
 768,34; 6386,690;  196,525;55235,689;11,24684
 768,91; 6401,288;  196,371;54968,815;11,32854
 769,47; 6404,270;  188,833;55026,940;11,33416
 770,04; 6414,714;  191,833;54845,911;11,38594
 770,61; 6380,696;  181,217;54715,498;11,36804
 771,18; 6386,601;  170,832;54589,008;11,42223
 771,74; 6497,276;  190,294;54655,364;11,57987
 772,31; 6404,720;  176,140;54451,028;11,47599
 772,88; 6397,548;  169,448;54240,846;11,51829
 773,44; 6409,300;  166,448;54021,971;11,59185
 774,01; 6424,051;  193,909;54134,943;11,54991
 774,58; 6436,110;  177,140;53742,914;11,68464
 775,14; 6463,477;  172,217;53925,271;11,70401
 775,71; 6451,844;  174,678;53789,319;11,70793
 776,27; 6478,596;  218,293;53678,829;11,71014
 776,84; 6548,501;  245,063;53766,262;11,77746
 777,41; 6494,329;  190,447;53549,849;11,81400
 777,97; 6516,235;  181,986;53314,897;11,92152
 778,54; 6566,217;  194,601;53366,869;11,98297
 779,11; 6544,892;  212,139;53356,456;11,91614
 779,67; 6537,566;  169,601;53295,504;11,98655
 780,24; 6576,395;  193,909;53023,937;12,08117
 780,80; 6578,761;  214,370;53013,678;12,05393
 781,37; 6620,667;  205,216;52987,188;12,15462
 781,94; 6627,726;  191,755;52730,160;12,25003
 782,50; 6679,708;  198,216;52704,439;12,34424
 783,07; 6714,537;  213,139;52829,641;12,35619
 783,63; 6725,980;  181,985;52499,151;12,50831
 784,20; 6769,655;  207,985;52386,507;12,57542
 784,77; 6689,483;  194,600;52324,094;12,45913
 785,33; 6679,389;  168,447;52102,527;12,53694
 785,90; 6733,140;  197,985;52037,730;12,60646
 786,46; 6773,430;  214,677;51925,317;12,68357
 787,03; 6739,182;  183,831;51839,903;12,69038
 787,59; 6795,625;  198,369;51767,260;12,79309
 788,16; 6812,531;  197,369;51654,000;12,85580
 788,73; 6820,821;  200,985;51537,049;12,89510
 789,29; 6806,342;  190,062;51084,559;12,99999
 789,86; 6825,247;  209,138;50995,453;13,02734
 790,42; 6809,229;  204,446;50920,810;13,02298
 790,99; 6802,904;  207,369;50563,320;13,09783
 791,55; 6820,271;  191,369;50593,906;13,15192
 792,12; 6853,407;  216,984;50541,878;13,18716
 792,68; 6834,466;  202,830;50166,311;13,27297
 793,25; 6876,679;  212,984;49944,744;13,39927
 793,81; 6857,661;  253,138;49621,331;13,37809
 794,38; 6799,336;  168,907;49381,379;13,47307
 794,94; 6805,780;  196,446;49312,505;13,45656
 795,51; 6819,531;  214,369;48964,938;13,54889
 796,07; 6783,821;  203,599;48756,525;13,55268
 796,64; 6865,419;  218,984;48868,958;13,66174
 797,20; 6831,401;  209,445;48385,929;13,74520
 797,77; 6790,691;  184,138;47988,362;13,82002
 798,33; 6808,058;  199,368;47845,103;13,87047
 798,90; 6852,578;  223,291;47800,613;13,93371
 799,46; 6834,945;  208,907;47259,662;14,08275
 800,03; 6830,928;  208,214;47214,864;14,08889
 800,59; 6815,602;  222,368;46957,528;14,10765
 801,15; 6899,277;  221,753;46844,884;14,32234
 801,72; 6770,874;  226,137;46459,779;14,15579
 802,28; 6856,780;  238,830;46156,519;14,41264
 802,85; 6809,608;  206,830;46055,722;14,40117
 803,41; 6839,206;  209,906;45829,924;14,53156
 803,98; 6777,111;  211,599;45325,588;14,55316
 804,54; 6768,786;  212,676;45133,252;14,59489
 805,11; 6768,691;  212,522;44999,915;14,63843
 805,67; 6805,750;  238,675;44844,349;14,72251
 806,23; 6753,348;  215,522;44381,705;14,80279
 806,80; 6749,715;  222,829;44288,522;14,81172
 807,36; 6805,543;  232,060;44206,417;14,94845
 807,93; 6816,679;  239,829;43938,081;15,05060
 808,49; 6773,354;  203,598;43598,206;15,13957
 809,05; 6756,721;  191,906;43368,870;15,20444
 809,62; 6795,165;  230,290;43348,765;15,22520
 810,18; 6804,531;  222,983;43249,582;15,29646
 810,74; 6787,437;  190,983;42947,400;15,42799
 811,31; 6842,650;  193,829;42808,679;15,60212
 811,87; 6823,171;  207,521;42600,343;15,60559
 812,44; 6876,461;  240,983;42570,776;15,67567
 813,00; 6855,904;  166,752;42252,363;15,89416
 813,56; 6864,502;  218,829;42345,258;15,77554
 814,13; 6884,792;  222,367;42177,383;15,87992
 814,69; 6895,005;  211,367;41986,508;15,99908
 815,25; 6873,910;  188,752;41599,403;16,14357
 815,82; 6916,585;  233,751;41614,374;16,14967
 816,38; 6944,490;  246,751;41365,884;16,28862
 816,94; 6866,472;  203,059;41060,010;16,30913
 817,51; 6870,532;  186,444;40868,904;16,42990
 818,07; 6880,360;  205,367;40651,953;16,50323
 818,63; 6904,804;  221,751;40447,309;16,61395
 819,20; 6959,940;  217,982;40328,973;16,80826
 819,76; 6863,999;  202,443;39945,175;16,76170
 820,32; 6973,135;  247,520;39857,147;16,97975
 820,89; 6927,194;  234,905;39659,349;16,97498
 821,45; 6898,331;  198,597;39336,397;17,11832
 822,01; 6923,082;  222,751;39097,369;17,23575
 822,57; 6893,680;  229,366;38904,802;17,23139
 823,14; 6834,816;  186,905;38724,389;17,25051
 823,70; 6864,260;  203,828;38463,899;17,40831
 824,26; 6867,011;  201,135;38282,870;17,50413
 824,82; 6908,224;  231,981;38128,227;17,61716
 825,39; 6858,822;  208,751;37809,737;17,68590
 825,95; 6905,112;  231,135;37881,400;17,72624
 826,51; 6829,402;  226,135;37413,680;17,75666
 827,08; 6907,461;  255,058;37546,267;17,83906
 827,64; 6881,674;  234,520;37333,623;17,91729
 828,20; 6857,964;  203,827;37073,825;18,04756
 828,76; 6939,869;  231,981;37046,643;18,22070
 829,32; 6935,313;  237,366;36879,691;18,27926
 829,89; 6909,988;  193,135;36702,663;18,39753
 830,45; 6908,124;  215,058;36642,942;18,37347
 831,01; 6903,568;  217,904;36452,144;18,45123
 831,57; 6893,319;  225,365;36346,731;18,45986
 832,14; 6937,455;  210,904;36376,472;18,59932
 832,70; 6985,437;  200,058;36099,982;18,90082
 833,26; 6957,650;  185,519;36024,953;18,89575
 833,82; 6981,710;  211,673;35978,079;18,92848
 834,38; 7004,153;  201,519;35897,973;19,05689
 834,95; 7030,136;  193,980;35778,560;19,21100
 835,51; 7046,195;  172,596;35642,301;19,37879
 836,07; 7120,639;  216,134;35712,503;19,45130
 836,63; 7140,390;  232,826;35781,552;19,43126
 837,19; 7126,526;  209,057;35477,446;19,61379
 837,75; 7122,662;  174,596;35236,187;19,81675
 838,32; 7191,491;  225,826;35364,389;19,82342
 838,88; 7246,012;  220,442;35382,053;19,98080
 839,44; 7213,071;  209,519;35322,794;19,94560
 840,00; 7229,976;  204,749;35187,689;20,08187
 840,56; 7228,035;  189,057;34877,737;20,29186
 841,12; 7252,248;  196,749;34811,632;20,38285
 841,68; 7211,077;  183,749;34663,603;20,38097
 842,25; 7280,751;  201,749;34793,267;20,46456
 842,81; 7223,503;  196,441;34370,546;20,56253
 843,37; 7265,870;  186,980;34470,826;20,64789
 843,93; 7273,929;  201,749;34398,720;20,68072
 844,49; 7290,142;  216,133;34443,230;20,66786
 845,05; 7267,970;  180,287;34171,202;20,85170
 845,61; 7346,183;  226,595;34274,019;20,91080
 846,17; 7348,319;  202,903;34148,299;21,04974
 846,73; 7308,994;  213,749;34074,962;20,95390
 847,29; 7313,899;  186,595;33753,472;21,23315
 847,86; 7353,651;  193,979;33848,521;21,27401
 848,42; 7344,325;  190,902;33540,800;21,44961
 848,98; 7366,462;  203,902;33503,695;21,50932
 849,54; 7389,982;  206,133;33561,359;21,53740
 850,10; 7415,118;  208,595;33397,868;21,71341
 850,66; 7367,024;  191,287;33204,994;21,73563
 851,22; 7357,775;  192,441;33273,965;21,65963
 851,78; 7427,065;  234,441;33214,706;21,80887
 852,34; 7416,278;  222,133;32956,293;21,97749
 852,90; 7434,645;  211,056;32944,188;22,06813
 853,46; 7404,012;  191,517;32622,390;22,23959
 854,02; 7454,456;  213,286;32732,823;22,26714
 854,58; 7403,053;  196,979;32437,948;22,35068
 855,14; 7440,574;  195,517;32381,305;22,51011
 855,70; 7445,864;  161,825;32202,507;22,73372
 856,26; 7494,308;  211,055;32132,709;22,81602
 856,82; 7448,136;  196,902;31943,450;22,84102
 857,38; 7514,426;  228,517;31904,806;23,00115
 857,94; 7485,255;  202,209;31825,701;23,03049
 858,50; 7472,468;  215,671;31719,903;23,03436
 859,06; 7504,296;  194,978;31564,105;23,30099
 859,62; 7564,432;  211,671;31461,308;23,52911
 860,18; 7499,799;  199,517;31234,971;23,52240
 860,74; 7538,474;  174,209;31134,558;23,78612
 861,30; 7510,379;  185,901;30921,838;23,83034
 861,86; 7630,361;  235,517;30921,040;24,09881
 862,42; 7616,421;  199,824;30755,242;24,27261
 862,98; 7700,249;  231,978;30739,598;24,48002
 863,54; 7663,539;  205,055;30572,570;24,56073
 864,10; 7678,829;  202,286;30565,695;24,62353
 864,66; 7635,119;  190,978;30311,205;24,71476
 865,22; 7672,947;  198,285;30183,946;24,92745
 865,78; 7670,160;  208,439;30096,302;24,96572
 866,34; 7682,989;  198,208;29955,427;25,15282
 866,90; 7725,740;  220,208;29864,322;25,31879
 867,45; 7693,799;  209,208;29665,909;25,40879
 868,01; 7740,397;  213,747;29548,650;25,65766
 868,57; 7679,225;  190,362;29359,237;25,67416
 869,13; 7654,208;  184,131;29243,977;25,70584
 869,69; 7669,421;  195,747;29100,410;25,85629
 870,25; 7645,711;  183,131;28971,536;25,92217
 870,81; 7666,385;  194,593;28962,200;25,97294
 871,37; 7687,214;  214,439;28801,479;26,14043
 871,93; 7708,119;  220,669;28665,758;26,32247
 872,49; 7666,486;  223,362;28491,345;26,33058
 873,04; 7633,084;  198,439;28222,086;26,52990
 873,60; 7631,374;  182,977;28131,365;26,65054
 874,16; 7669,587;  212,592;28031,337;26,80565
 874,72; 7649,894;  202,669;27894,567;26,89315
 875,28; 7695,048;  209,285;27946,260;26,98839
 875,84; 7700,202;  206,592;27892,798;27,06622
 876,40; 7730,663;  196,131;27799,106;27,29609
 876,95; 7773,279;  213,746;27745,952;27,45705
 877,51; 7784,125;  230,746;27755,260;27,44237
 878,07; 7845,740;  249,977;27778,490;27,59235
 878,63; 7840,740;  199,054;27740,875;27,74576
 879,19; 7893,510;  224,977;27715,644;27,89504
 879,75; 8006,817;  196,900;27768,875;28,32556
 880,30; 7983,817;  193,208;27740,798;28,28055
 880,86; 8113,433;  237,669;27948,798;28,42094
 881,42; 8138,510;  190,746;27995,952;28,58372
 881,98; 8212,817;  221,823;28080,260;28,68429
 882,54; 8301,817;  194,746;28214,952;28,93295
 883,09; 8350,587;  217,669;28222,567;29,04105
 883,65; 8373,587;  197,438;28296,183;29,09791
 884,21; 8507,279;  235,362;28611,952;29,15050
 884,77; 8594,202;  204,900;28568,413;29,57780
 885,32; 8624,894;  208,592;28737,260;29,50121
 885,88; 8737,202;  235,515;28818,260;29,74412
 886,44; 8785,048;  213,362;29018,029;29,75798
 887,00; 8821,279;  229,131;29005,260;29,85860
 887,56; 8909,587;  204,285;29124,721;30,10087
 888,11; 8964,279;  208,900;29123,260;30,28038
 888,67; 9056,279;  245,592;29285,106;30,34034
 889,23; 9083,125;  215,977;29233,337;30,55808
 889,79; 9051,433;  194,131;29203,490;30,53257
 890,34; 9051,048;  214,285;29125,337;30,56535
 890,90; 9209,125;  267,285;29395,490;30,69822
 891,46; 9158,894;  199,438;29217,721;30,87521
 892,01; 9265,048;  236,900;29188,952;31,18310
 892,57; 9223,048;  236,285;29105,260;31,12949
 893,13; 9218,048;  203,746;28905,721;31,40656
 893,69; 9226,894;  206,438;28872,106;31,46780
 894,24; 9270,048;  211,362;28718,183;31,77726
 894,80; 9244,510;  217,362;28590,875;31,81540
 895,36; 9200,356;  215,977;28459,029;31,81093
 895,91; 9212,125;  215,438;28251,567;32,08962
 896,47; 9247,894;  237,515;28129,413;32,30465
 897,03; 9207,740;  203,977;27957,490;32,44189
 897,58; 9182,202;  225,900;27905,644;32,35688
 898,14; 9151,433;  223,669;27669,337;32,52886
 898,70; 9128,202;  191,208;27466,490;32,76591
 899,25; 9262,971;  218,362;27531,029;33,11507
 899,81; 9189,279;  236,900;27286,875;33,09570
 900,37; 9109,510;  181,515;27045,490;33,23408
 900,92; 9199,894;  218,900;27003,029;33,53103
 901,48; 9137,510;  198,592;26994,875;33,35880
 902,03; 9073,279;  204,746;26775,567;33,37696
 902,59; 9119,971;  211,131;26706,798;33,62376
 903,15; 9114,740;  237,592;26565,952;33,71706
 903,70; 9047,433;  213,131;26298,029;33,86750
 904,26; 9059,971;  201,515;26190,029;34,08604
 904,82; 9107,740;  214,669;26156,337;34,28103
 905,37; 9075,125;  222,131;26028,567;34,30537
 905,93; 9123,356;  205,362;25822,644;34,81241
 906,48; 9081,125;  215,977;25838,567;34,59895
 907,04; 9177,510;  232,054;25749,260;35,05656
 907,60; 9107,740;  208,592;25580,875;35,07429
 908,15; 9108,971;  199,131;25376,567;35,38820
 908,71; 9107,356;  231,054;25396,029;35,27244
 909,26; 9082,740;  207,823;25226,721;35,47285
 909,82; 9050,510;  224,900;25071,106;35,52096
 910,37; 9094,433;  259,515;25026,337;35,67239
 910,93; 9024,894;  203,054;24826,490;35,82701
 911,48; 9002,279;  201,515;24648,413;35,99951
 912,04; 8962,125;  197,515;24614,875;35,89499
 912,60; 9006,202;  222,592;24608,337;36,01944
 913,15; 8946,125;  223,746;24384,413;36,10156
 913,71; 8922,356;  216,285;24195,337;36,30699
 914,26; 8908,817;  195,977;24064,798;36,50302
 914,82; 8928,663;  212,054;23967,875;36,69252
 915,37; 8864,894;  205,592;23966,721;36,44314
 915,93; 8925,817;  258,208;23832,721;36,76687
 916,48; 8887,817;  205,592;23705,952;36,94507
 917,04; 8833,433;  231,823;23544,337;36,89696
 917,59; 8877,048;  238,515;23475,721;37,17544
 918,15; 8789,202;  184,746;23311,029;37,20639
 918,70; 8798,894;  214,054;23211,875;37,32893
 919,26; 8838,048;  212,977;23183,875;37,54782
 919,81; 8764,817;  199,208;22977,413;37,60441
 920,37; 8743,971;  206,823;22853,952;37,69638
 920,92; 8771,510;  225,900;22825,798;37,81260
 921,48; 8716,356;  190,900;22624,721;38,00269
 922,03; 8772,894;  198,362;22584,490;38,30288
 922,59; 8729,817;  203,669;22434,567;38,35269
 923,14; 8715,817;  203,208;22254,490;38,60369
 923,69; 8797,587;  237,208;22258,490;38,87321
 924,25; 8742,740;  231,823;22196,490;38,74822
 924,80; 8736,048;  211,823;21988,260;39,14426
 925,36; 8739,663;  198,362;21896,567;39,36409
 925,91; 8682,971;  213,054;21771,029;39,28902
 926,47; 8686,740;  200,438;21696,106;39,47913
 927,02; 8684,971;  253,977;21614,337;39,47028
 927,57; 8613,125;  218,823;21509,183;39,42771
 928,13; 8594,971;  207,746;21357,875;39,65567
 928,68; 8593,740;  213,362;21359,875;39,63007
 929,24; 8572,356;  187,131;21070,029;40,15355
 929,79; 8538,279;  203,669;21006,952;40,06392
 930,34; 8540,279;  215,592;20851,490;40,34080
 930,90; 8523,740;  207,131;20847,798;40,29235
 931,45; 8564,048;  214,131;20843,490;40,47589
 932,01; 8570,356;  229,515;20694,183;40,75727
 932,56; 8554,125;  238,438;20547,721;40,94525
 933,11; 8560,663;  244,592;20476,798;41,10314
 933,67; 8523,510;  211,208;20294,183;41,38979
 934,22; 8495,817;  209,208;20273,106;41,30110
 934,77; 8506,125;  233,438;20123,798;41,59144
 935,33; 8442,971;  217,823;20039,875;41,49494
 935,88; 8505,125;  228,054;19944,260;41,98105
 936,43; 8471,971;  210,438;19825,106;42,11916
 936,99; 8506,971;  216,131;19786,183;42,36494
 937,54; 8416,048;  196,977;19597,875;42,36438
 938,09; 8427,894;  221,977;19586,183;42,37673
 938,65; 8437,587;  231,054;19423,183;42,75989
 939,20; 8394,663;  198,362;19304,644;42,89846
 939,75; 8361,817;  197,285;19205,029;42,95372
 940,31; 8362,510;  201,131;19061,413;43,27283
 940,86; 8349,971;  219,669;19111,644;43,03574
 941,41; 8393,817;  273,823;19012,337;43,33318
 941,96; 8311,125;  209,438;18860,106;43,43912
 942,52; 8319,433;  217,746;18744,952;43,72859
 943,07; 8260,433;  195,669;18638,644;43,72810
 943,62; 8240,202;  206,900;18532,029;43,83763
 944,18; 8269,740;  189,900;18484,183;44,16593
 944,73; 8291,279;  206,362;18377,106;44,49415
 945,28; 8191,663;  177,515;18157,106;44,57359
 945,83; 8224,817;  207,515;18180,106;44,60849
 946,39; 8305,971;  207,208;18103,644;45,25350
 946,94; 8273,894;  232,208;18063,413;45,09895
 947,49; 8190,663;  200,900;17941,490;45,03663
 948,04; 8249,125;  234,977;17890,490;45,39176
 948,59; 8237,817;  231,592;17853,260;45,43398
 949,15; 8247,817;  198,131;17732,413;45,90827
 949,70; 8231,510;  195,362;17628,952;46,09577
 950,25; 8209,279;  217,362;17560,413;46,08138
 950,80; 8160,433;  173,823;17422,644;46,30235
 951,36; 8115,048;  173,823;17359,183;46,20925
 951,91; 8139,740;  225,746;17327,875;46,27491
 952,46; 8090,587;  195,285;17151,106;46,56396
 953,01; 8088,510;  218,669;17183,260;46,38980
 953,56; 8049,202;  200,823;17027,106;46,64357
 954,11; 8068,433;  224,438;16970,337;46,84129
 954,67; 8027,587;  206,362;16925,721;46,77945
 955,22; 7979,663;  191,362;16792,875;46,91320
 955,77; 8006,740;  230,823;16717,721;47,16422
 956,32; 7959,971;  255,515;16593,337;47,15718
 956,87; 7890,971;  201,592;16475,644;47,24932
 957,42; 7895,125;  208,285;16469,490;47,27104
 957,98; 7847,202;  204,054;16331,567;47,39198
 958,53; 7891,894;  224,669;16315,106;47,65082
 959,08; 7830,971;  196,669;16148,106;47,85965
 959,63; 7785,663;  208,131;16079,183;47,74436
 960,18; 7827,279;  217,285;16020,183;48,15569
 960,73; 7819,740;  214,285;15973,337;48,26087
 961,28; 7781,740;  190,285;15852,106;48,47109
 961,83; 7811,740;  225,438;15834,106;48,60314
 962,39; 7792,510;  192,515;15666,337;49,11517
 962,94; 7754,740;  217,362;15576,337;49,07475
 963,49; 7739,202;  209,515;15429,106;49,47365
 964,04; 7717,356;  224,054;15424,644;49,29612
 964,59; 7729,356;  187,438;15327,952;49,81282
 965,14; 7699,740;  227,285;15264,183;49,69413
 965,69; 7682,971;  217,054;15197,183;49,83881
 966,24; 7632,279;  199,285;15073,952;49,97083
 966,79; 7569,202;  221,208;14977,644;49,79518
 967,34; 7550,279;  185,438;14850,952;50,21877
 967,89; 7539,971;  187,592;14833,952;50,19936
 968,44; 7527,279;  218,669;14708,644;50,43908
 968,99; 7465,433;  214,362;14658,260;50,20162
 969,55; 7435,894;  215,746;14575,413;50,28075
 970,10; 7449,663;  214,823;14487,721;50,68936
 970,65; 7414,894;  218,592;14401,260;50,74012
 971,20; 7380,433;  198,977;14237,490;51,15539
 971,75; 7281,663;  190,362;14092,644;51,00818
 972,30; 7300,587;  211,669;14052,721;51,21661
 972,85; 7263,663;  188,823;13959,798;51,37501
 973,40; 7218,663;  199,208;13830,721;51,49432
 973,95; 7220,433;  213,208;13790,029;51,61168
 974,50; 7209,048;  227,438;13743,875;51,65274
 975,05; 7177,894;  207,054;13596,644;52,06164
 975,60; 7164,202;  226,054;13553,721;52,05823
 976,15; 7055,894;  203,054;13518,875;51,46390
 976,70; 7033,971;  227,746;13395,875;51,68711
 977,25; 7009,587;  221,746;13325,644;51,80016
 977,80; 6971,433;  198,208;13137,875;52,34466
 978,35; 6871,048;  218,900;13099,337;51,64536
 978,89; 6890,817;  192,977;12973,875;52,40508
 979,44; 6926,510;  208,515;12963,260;52,67055
 979,99; 6827,663;  201,669;12699,490;53,01720
 980,54; 6844,971;  242,977;12649,106;53,21559
 981,09; 6830,048;  221,515;12634,490;53,23891
 981,64; 6768,663;  222,746;12474,644;53,42778
 982,19; 6819,433;  251,669;12398,875;54,06810
 982,74; 6750,202;  227,438;12283,875;54,10192
 983,29; 6666,048;  207,054;12128,952;54,17757
 983,84; 6657,510;  221,054;12035,644;54,47887
 984,39; 6624,125;  266,592;12028,490;54,05193
 984,94; 6562,894;  188,900;11850,106;54,65982
 985,49; 6556,048;  232,669;11772,952;54,79397
 986,03; 6537,048;  234,131;11732,337;54,81653
 986,58; 6498,433;  250,900;11542,798;55,32757
 987,13; 6405,817;  218,746;11436,337;55,15508
 987,68; 6400,971;  237,900;11319,337;55,61618
 988,23; 6355,433;  229,131;11326,337;55,20581
 988,78; 6287,894;  211,592;11094,567;55,83310
 989,33; 6247,663;  234,285;11014,798;55,78008
 989,88; 6260,894;  247,900;10998,183;55,93336
 990,42; 6141,202;  212,823;10821,875;55,88038
 990,97; 6145,356;  206,592;10711,413;56,53369
 991,52; 6085,510;  241,977;10690,260;55,92816
 992,07; 6072,740;  240,592;10568,413;56,47027
 992,62; 5970,587;  222,746;10467,337;56,10610
 993,17; 5930,587;  239,285;10346,567;56,30892
 993,71; 5879,740;  229,977;10217,106;56,57045
 994,26; 5797,356;  208,362;10090,029;56,55922
 994,81; 5808,279;  248,823;10088,567;56,50000
 995,36; 5711,356;  207,977; 9906,567;56,74411
 995,91; 5685,587;  221,823; 9849,644;56,74974
 996,45; 5631,894;  221,592; 9761,029;56,71511
 997,00; 5545,279;  196,746; 9621,875;56,74758
 997,55; 5543,894;  225,900; 9569,875;56,91362
 998,10; 5545,663;  250,131; 9448,567;57,56992
 998,65; 5487,817;  215,054; 9386,490;57,49114
 999,19; 5387,433;  236,208; 9250,106;57,14758
 999,74; 5351,433;  254,362; 9150,337;57,29637
1000,29; 5327,740;  231,285; 9101,337;57,45689
1000,84; 5230,663;  219,746; 8956,490;57,35452
1001,38; 5202,663;  224,054; 8857,413;57,66712
1001,93; 5221,894;  236,438; 8790,413;58,28233
1002,48; 5091,740;  209,208; 8639,260;57,91818
1003,03; 5091,817;  239,054; 8581,644;58,16855
1003,57; 5038,433;  233,285; 8459,106;58,41542
1004,12; 5059,202;  256,362; 8424,029;58,80309
1004,67; 4933,663;  213,669; 8306,798;58,32101
1005,22; 4869,202;  217,438; 8128,567;58,80025
1005,76; 4829,433;  208,285; 8041,413;58,99492
1006,31; 4801,356;  238,054; 8020,952;58,63243
1006,86; 4735,048;  216,592; 7854,721;59,15658
1007,40; 4630,663;  207,362; 7722,183;58,86104
1007,95; 4610,971;  226,823; 7679,875;58,82353
1008,50; 4537,894;  229,208; 7576,260;58,64511
1009,04; 4523,587;  223,515; 7426,952;59,69472
1009,59; 4430,740;  230,362; 7305,260;59,37017
1010,14; 4398,356;  216,515; 7213,798;59,76378
1010,68; 4321,894;  222,592; 7073,029;59,84001
1011,23; 4249,356;  223,054; 6976,337;59,61992
1011,78; 4259,587;  226,362; 6949,567;59,98961
1012,32; 4188,202;  234,208; 6817,106;60,06464
1012,87; 4184,894;  244,592; 6759,875;60,47784
1013,42; 4097,048;  217,054; 6651,798;60,29757
1013,96; 4118,279;  248,054; 6665,644;60,30651
1014,51; 4026,125;  187,438; 6541,644;60,41174
1015,06; 4045,587;  190,823; 6563,413;60,48974
1015,60; 4100,048;  268,977; 6603,875;60,47566
1016,15; 4050,356;  217,131; 6581,029;60,23392
1016,69; 4071,663;  219,362; 6592,183;60,44893
1017,24; 4078,740;  203,515; 6614,952;60,44238
1017,79; 4109,125;  242,362; 6666,260;60,19341
1018,33; 4122,894;  218,669; 6645,952;60,74457
1018,88; 4159,971;  224,515; 6727,644;60,51634
1019,42; 4144,279;  219,669; 6695,029;60,60837
1019,97; 4167,740;  216,131; 6701,798;60,92834
1020,51; 4190,202;  232,438; 6727,798;60,93217
1021,06; 4170,433;  198,900; 6726,721;60,84010
1021,61; 4162,817;  191,669; 6679,337;61,21072
1022,15; 4120,279;  171,131; 6656,260;60,89545
1022,70; 4180,279;  215,977; 6651,106;61,60408
1023,24; 4150,125;  211,131; 6634,260;61,32516
1023,79; 4116,740;  225,977; 6554,644;61,47840
1024,33; 4098,894;  204,977; 6513,875;61,72104
1024,88; 4059,817;  223,362; 6409,490;62,01707
1025,42; 3959,279;  228,515; 6312,798;61,31805
1025,97; 3943,279;  210,746; 6220,798;62,10483
1026,51; 3860,433;  183,746; 6119,721;61,93905
1027,06; 3865,894;  211,592; 6090,644;62,15801
1027,60; 3796,817;  217,669; 5963,106;62,29549
1028,15; 3760,356;  215,977; 5864,260;62,75144
1028,69; 3646,356;  182,823; 5754,875;62,15902
1029,24; 3656,510;  192,054; 5702,260;62,87344
1029,78; 3559,971;  197,669; 5573,337;62,54669
1030,33; 3495,510;  186,669; 5471,413;62,61117
1030,87; 3503,971;  206,669; 5435,260;63,06292
1031,42; 3414,356;  196,208; 5321,952;62,78402
1031,96; 3385,125;  210,977; 5266,721;62,78300
1032,51; 3336,048;  196,515; 5181,029;62,98574
1033,05; 3319,971;  223,823; 5123,183;63,19495
1033,60; 3259,510;  176,285; 5016,413;63,70130
1034,14; 3202,202;  207,438; 4937,798;63,30942
1034,69; 3194,433;  207,977; 4890,952;63,77262
1035,23; 3120,202;  214,669; 4825,644;63,01341
1035,77; 3109,356;  208,823; 4753,567;63,82169
1036,32; 3052,279;  182,515; 4679,183;63,81979
1036,86; 3034,433;  208,823; 4631,029;63,89593
1037,41; 2971,740;  225,900; 4570,106;63,20696
1037,95; 2919,125;  197,285; 4478,875;63,57078
1038,50; 2929,356;  206,208; 4419,413;64,63364
1039,04; 2887,817;  229,823; 4396,106;63,79774
1039,58; 2827,971;  191,977; 4271,952;64,60810
1040,13; 2803,587;  205,900; 4232,644;64,51084
1040,67; 2822,587;  231,515; 4220,952;64,94830
1041,21; 2790,279;  240,362; 4134,490;65,48107
1041,76; 2701,125;  191,054; 4041,798;65,18405
1042,30; 2687,894;  210,131; 4005,567;65,28270
1042,85; 2664,202;  202,285; 3944,952;65,77975
1043,39; 2590,663;  182,977; 3902,567;64,72988
1043,93; 2603,894;  230,592; 3840,952;65,73589
1044,48; 2548,971;  218,131; 3782,029;65,40143
1045,02; 2515,740;  205,592; 3719,337;65,74605
1045,56; 2483,125;  227,592; 3712,721;64,71877
1046,11; 2486,279;  217,054; 3637,952;66,33419
1046,65; 2430,125;  222,285; 3593,260;65,49560
1047,19; 2385,894;  203,131; 3541,952;65,37527
1047,74; 2380,202;  196,438; 3461,106;66,89084
1048,28; 2338,125;  217,900; 3456,183;65,47375
1048,82; 2345,279;  232,746; 3444,875;65,76737
1049,37; 2339,125;  214,131; 3353,260;67,69376
1049,91; 2280,817;  210,592; 3303,337;66,93813
1050,45; 2237,510;  233,823; 3275,260;65,87961
1050,99; 2221,587;  223,592; 3208,875;66,92814
1051,54; 2197,125;  200,054; 3155,490;67,57280
1052,08; 2191,125;  233,823; 3143,798;67,26181
1052,62; 2157,817;  228,746; 3106,183;67,04131
1053,16; 2125,971;  202,515; 3023,413;68,18594
1053,71; 2106,433;  218,208; 2998,490;67,91486
1054,25; 2080,971;  229,669; 2944,260;68,19821
1054,79; 2068,510;  224,208; 2919,337;68,43094
1055,33; 1990,279;  200,208; 2847,183;67,62705
1055,88; 2018,894;  217,208; 2836,875;68,77539
1056,42; 1990,279;  237,054; 2800,260;68,39970
1056,96; 1956,740;  222,438; 2756,413;68,44195
1057,50; 1930,587;  224,977; 2719,875;68,36390
1058,05; 1888,971;  211,515; 2668,337;68,27749
1058,59; 1890,202;  236,669; 2644,798;68,66463
1059,13; 1800,894;  207,208; 2565,798;67,56945
1059,67; 1833,433;  228,592; 2571,875;68,48684
1060,21; 1784,433;  213,438; 2509,644;68,41696
1060,76; 1777,663;  221,131; 2466,567;69,31983
1061,30; 1757,971;  252,285; 2455,183;68,35026
1061,84; 1718,510;  222,362; 2384,798;69,18807
1062,38; 1693,587;  204,592; 2356,798;69,18457
1062,92; 1706,125;  261,438; 2380,798;68,16618
1063,46; 1663,971;  242,054; 2309,490;68,77683
1064,01; 1621,740;  219,977; 2266,490;68,49520
1064,55; 1614,048;  236,362; 2241,875;68,69495
1065,09; 1558,202;  195,515; 2187,413;68,41146
1065,63; 1611,894;  237,438; 2210,337;69,66684
1066,17; 1577,587;  246,746; 2165,106;69,37387
1066,71; 1569,894;  245,977; 2155,260;69,34108
1067,25; 1507,048;  211,977; 2073,567;69,56800
1067,80; 1510,971;  233,977; 2083,337;69,05062
1068,34; 1532,971;  256,823; 2076,721;70,12195
1068,88; 1472,279;  225,285; 2010,721;69,84254
1069,42; 1495,356;  246,669; 2016,644;70,54826
1069,96; 1452,817;  218,900; 1972,798;70,35285
1070,50; 1482,971;  253,900; 1974,490;71,43311
1071,04; 1421,510;  219,592; 1929,106;70,30757
1071,58; 1407,971;  221,054; 1891,952;71,03469
1072,12; 1381,587;  225,054; 1878,337;69,95372
1072,66; 1393,048;  219,438; 1877,798;70,76931
1073,21; 1384,971;  251,208; 1844,644;71,15209
1073,75; 1356,971;  235,977; 1817,567;70,87766
1074,29; 1349,587;  231,592; 1802,798;71,15518
1074,83; 1356,894;  248,362; 1780,183;72,36698
1075,37; 1329,433;  234,900; 1765,567;71,50690
1075,91; 1310,894;  239,669; 1729,644;71,89550
1076,45; 1304,510;  234,438; 1726,875;71,69961
1076,99; 1271,740;  239,131; 1711,875;70,11466
1077,53; 1252,125;  224,669; 1659,798;71,59328
1078,07; 1258,587;  237,438; 1644,413;72,57756
1078,61; 1236,894;  235,054; 1618,721;72,40472
1079,15; 1222,971;  228,054; 1603,183;72,35084
1079,69; 1213,817;  227,669; 1595,106;72,11655
1080,23; 1223,202;  247,592; 1583,106;73,05128
1080,77; 1224,587;  272,669; 1589,413;72,29326
1081,31; 1179,125;  232,362; 1519,106;73,57822
1081,85; 1193,817;  245,592; 1513,413;74,79170
1082,39; 1147,125;  228,592; 1497,413;72,39261
1082,93; 1166,740;  231,977; 1490,106;74,29791
1083,47; 1116,048;  219,362; 1442,952;73,28323
1084,01; 1130,587;  242,823; 1471,644;72,24513
1084,55; 1097,356;  219,823; 1425,567;72,77934
1085,09; 1109,894;  251,362; 1429,721;72,85829
1085,63; 1089,817;  232,131; 1402,721;73,26957
1086,17; 1060,048;  233,669; 1392,798;71,29310
1086,71; 1057,740;  223,592; 1361,029;73,33579
1087,24; 1078,125;  259,977; 1383,490;72,82050
1087,78; 1048,663;  244,515; 1349,875;72,74991
1088,32; 1023,433;  219,285; 1303,106;74,19564
1088,86; 1027,971;  245,592; 1337,952;71,62283
1089,40; 1017,510;  232,362; 1287,183;74,43424
1089,94;  978,202;  205,900; 1253,952;73,68928
1090,48; 1005,894;  235,131; 1276,798;73,99325
1091,02;  993,894;  236,592; 1268,567;73,38375
1091,56;  987,356;  230,977; 1226,183;76,00226
1092,10;  945,356;  213,131; 1219,260;72,77646
1092,63;  970,510;  253,515; 1241,721;72,55516
1093,17;  959,587;  243,746; 1199,337;74,91080
1093,71;  930,279;  233,977; 1161,952;75,03456
1094,25;  948,971;  241,592; 1181,337;75,27355
1094,79;  906,048;  233,746; 1151,260;73,27434
1095,33;  910,663;  223,285; 1132,260;75,62131
1095,87;  891,587;  236,977; 1114,183;74,62441
1096,40;  865,202;  208,438; 1093,413;74,21266
1096,94;  893,971;  231,977; 1091,644;77,00586
1097,48;  875,048;  235,900; 1093,644;74,51500
1098,02;  836,971;  231,823; 1077,952;71,51961
1098,56;  807,202;  200,054; 1020,490;74,00305
1099,10;  817,356;  204,746; 1029,798;74,25104
1099,63;  813,510;  217,746; 1026,567;73,65824
1100,17;  817,817;  236,131; 1015,875;74,59966
1100,71;  835,663;  251,131; 1039,337;74,15991

