
Integration time [ms]: 120,000
Averaging Nr. [scans]: 13
Smoothing Nr. [pixels]: 0
Data measured with spectrometer [name]: 2009305U1
Wave   ;Sample   ;Dark     ;Reference;Reflectance
[nm]   ;[counts] ;[counts] ;[counts] ;[%]

 175,72;  194,113;  180,833;  191,616;123,15756
 176,32;  214,698;  215,990;  205,830; 0,00000
 176,92;  244,156;  229,834;  222,246; 0,00000
 177,52;  241,884;  236,526;  244,165;70,14104
 178,12;  209,701;  208,451;  206,206; 0,00000
 178,72;  262,655;  251,221;  231,626; 0,00000
 179,32;  247,376;  235,374;  241,551;194,32397
 179,92;  238,415;  226,296;  232,982;181,27530
 180,52;  231,106;  224,140;  232,362;84,72459
 181,12;  240,777;  239,758;  227,870; 0,00000
 181,73;  265,440;  252,681;  246,845; 0,00000
 182,33;  320,679;  287,141;  296,554;356,30484
 182,93;  266,366;  238,218;  239,049; 0,00000
 183,53;  223,428;  221,914;  211,552; 0,00000
 184,13;  231,381;  226,067;  208,020; 0,00000
 184,73;  261,532;  239,222;  244,662;410,11647
 185,33;  250,471;  220,544;  327,372;28,01396
 185,93;  262,543;  223,931;  342,281;32,62536
 186,53;  282,491;  224,930;  357,049;43,56772
 187,13;  292,954;  260,620;  391,758;24,65661
 187,73;  263,340;  215,084;  348,757;36,09972
 188,33;  272,412;  233,624;  352,027;32,75920
 188,93;  256,181;  229,088;  364,122;20,06375
 189,53;  276,110;  237,860;  373,029;28,29813
 190,13;  301,923;  264,172;  387,292;30,66166
 190,73;  247,112;  208,323;  350,756;27,23338
 191,34;  274,136;  242,782;  366,317;25,38107
 191,94;  255,817;  223,548;  336,479;28,57458
 192,54;  280,362;  237,926;  378,284;30,23399
 193,14;  283,271;  253,389;  377,053;24,16373
 193,74;  270,178;  240,928;  375,094;21,80136
 194,34;  262,982;  225,620;  368,849;26,08543
 194,94;  236,291;  206,851;  329,783;23,94836
 195,54;  215,152;  193,775;  319,624;16,98598
 196,14;  240,126;  206,773;  347,011;23,78276
 196,74;  228,133;  189,083;  336,366;26,51375
 197,34;  216,905;  191,080;  333,186;18,17298
 197,94;  251,655;  220,389;  354,201;23,36535
 198,54;  261,881;  211,850;  369,501;31,73497
 199,14;  235,125;  200,618;  383,266;18,89264
 199,74;  224,797;  190,002;  374,459;18,86336
 200,34;  218,733;  195,310;  377,963;12,82411
 200,94;  262,575;  224,080;  416,700;19,98509
 201,54;  249,445;  203,618;  418,712;21,30558
 202,14;  261,418;  207,078;  463,501;21,19142
 202,74;  247,256;  204,310;  467,005;16,34822
 203,34;  238,663;  183,924;  482,218;18,35075
 203,94;  204,625;  159,693;  479,774;14,03768
 204,54;  271,666;  226,466;  575,406;12,95344
 205,14;  245,803;  181,233;  597,679;15,50495
 205,74;  275,011;  220,385;  673,909;12,04468
 206,34;  252,962;  196,617;  691,953;11,37522
 206,94;  245,892;  202,463;  765,871; 7,70826
 207,54;  236,575;  183,078;  792,191; 8,78274
 208,14;  263,190;  200,078;  885,032; 9,21399
 208,74;  273,492;  196,079;  947,225;10,30603
 209,34;  269,016;  189,310; 1021,095; 9,58254
 209,94;  276,734;  199,925; 1150,661; 8,07890
 210,54;  270,582;  197,770; 1234,778; 7,02132
 211,14;  287,774;  195,925; 1337,813; 8,04361
 211,73;  298,357;  193,387; 1426,969; 8,50936
 212,33;  304,826;  219,234; 1543,276; 6,46446
 212,93;  300,533;  192,695; 1651,762; 7,39088
 213,53;  282,242;  169,156; 1692,264; 7,42466
 214,13;  306,393;  178,231; 1778,124; 8,01067
 214,73;  307,495;  173,924; 1783,809; 8,29690
 215,33;  275,811;  153,464; 1825,968; 7,31522
 215,93;  322,715;  177,308; 1954,273; 8,18285
 216,53;  283,251;  145,387; 2024,328; 7,33732
 217,13;  346,163;  194,616; 2272,846; 7,29210
 217,73;  339,675;  178,154; 2465,044; 7,06288
 218,33;  312,147;  139,461; 2650,917; 6,87592
 218,93;  355,832;  166,075; 2951,336; 6,81292
 219,53;  375,819;  187,692; 3232,648; 6,17832
 220,13;  380,704;  149,384; 3497,252; 6,90947
 220,73;  423,540;  168,233; 3876,354; 6,88509
 221,32;  437,723;  177,771; 4280,148; 6,33661
 221,92;  468,211;  180,384; 4723,009; 6,33615
 222,52;  481,216;  167,154; 5076,574; 6,39711
 223,12;  505,925;  164,923; 5511,461; 6,37798
 223,72;  557,443;  187,847; 5880,885; 6,49208
 224,32;  564,411;  181,539; 6279,098; 6,27911
 224,92;  594,767;  168,385; 6511,694; 6,72177
 225,52;  617,257;  176,232; 6903,987; 6,55530
 226,12;  619,553;  176,309; 7191,604; 6,31826
 226,72;  609,263;  159,924; 7550,881; 6,07958
 227,31;  635,850;  161,463; 7894,707; 6,13439
 227,91;  683,035;  169,233; 8344,281; 6,28501
 228,51;  716,167;  167,541; 8634,742; 6,47942
 229,11;  744,107;  169,693; 9048,889; 6,46921
 229,71;  771,293;  165,772; 9388,242; 6,56572
 230,31;  804,190;  157,000; 9832,452; 6,68900
 230,91;  832,551;  154,388;10143,991; 6,78869
 231,51;  858,954;  149,924;10451,024; 6,88305
 232,10;  885,098;  155,000;10755,706; 6,88727
 232,70;  937,520;  173,697;10941,003; 7,09391
 233,30;  985,160;  182,539;11275,310; 7,23553
 233,90; 1009,593;  162,462;11420,213; 7,52486
 234,50; 1036,170;  172,385;11531,360; 7,60443
 235,10; 1094,614;  161,923;11564,002; 8,18000
 235,70; 1123,118;  178,156;11628,194; 8,25292
 236,29; 1153,595;  187,002;11580,022; 8,48408
 236,89; 1155,610;  150,542;11558,407; 8,81031
 237,49; 1249,462;  176,847;11356,018; 9,59477
 238,09; 1245,885;  170,540;11148,183; 9,79578
 238,69; 1286,798;  183,927;10861,204;10,32914
 239,29; 1296,678;  166,309;10597,911;10,83600
 239,89; 1323,639;  177,080;10244,042;11,38932
 240,48; 1336,242;  166,463; 9914,241;12,00046
 241,08; 1348,864;  157,079; 9533,159;12,71091
 241,68; 1384,167;  190,078; 9177,310;13,28650
 242,28; 1388,619;  152,539; 8847,471;14,21609
 242,88; 1407,680;  194,231; 8599,394;14,43696
 243,48; 1447,098;  193,155; 8317,517;15,43435
 244,07; 1428,391;  179,617; 8085,646;15,79521
 244,67; 1497,996;  185,386; 7953,264;16,89792
 245,27; 1497,665;  189,233; 7792,584;17,20862
 245,87; 1528,242;  195,000; 7727,506;17,69985
 246,47; 1557,001;  169,233; 7736,450;18,33921
 247,06; 1581,664;  168,232; 7741,863;18,66254
 247,66; 1638,469;  175,155; 7837,628;19,09715
 248,26; 1721,425;  197,849; 8034,828;19,44086
 248,86; 1793,268;  185,695; 8200,066;20,05864
 249,46; 1813,205;  142,770; 8444,600;20,12128
 250,05; 1915,589;  190,925; 8825,778;19,97330
 250,65; 1978,688;  158,387; 9244,927;20,03294
 251,25; 2121,764;  168,463; 9696,052;20,50152
 251,85; 2242,673;  175,080;10334,512;20,35146
 252,44; 2340,464;  135,156;10978,206;20,33845
 253,04; 2486,386;  179,925;11733,816;19,96264
 253,64; 2587,082;  149,618;12492,068;19,74862
 254,24; 2798,840;  194,771;13455,816;19,63699
 254,84; 2952,128;  172,539;14366,600;19,58276
 255,43; 3126,900;  167,925;15334,717;19,50956
 256,03; 3253,637;  169,772;16380,108;19,02407
 256,63; 3429,274;  182,003;17437,003;18,81931
 257,23; 3525,633;  169,234;18247,898;18,56553
 257,82; 3689,870;  170,235;19226,527;18,46967
 258,42; 3736,760;  139,005;20021,528;18,09507
 259,02; 3903,546;  177,541;20909,652;17,97215
 259,62; 3900,334;  166,928;21549,235;17,46026
 260,21; 3964,017;  164,387;22062,100;17,35172
 260,81; 3935,132;  171,693;22628,603;16,75849
 261,41; 3947,306;  165,081;23039,966;16,53440
 262,01; 3942,520;  207,467;23427,257;16,08565
 262,60; 3921,633;  157,619;23733,745;15,96536
 263,20; 3849,671;  163,233;24073,112;15,41805
 263,80; 3815,911;  190,082;24287,093;15,04680
 264,40; 3748,574;  161,697;24379,530;14,81089
 264,99; 3669,586;  176,005;24602,130;14,30264
 265,59; 3587,625;  167,391;24689,627;13,94748
 266,19; 3524,583;  155,928;24774,594;13,68334
 266,78; 3477,873;  198,237;24936,956;13,25710
 267,38; 3413,667;  173,622;25027,997;13,03612
 267,98; 3278,218;  157,698;24913,573;12,60517
 268,58; 3211,792;  181,237;25021,824;12,20001
 269,17; 3136,425;  162,700;25033,970;11,95647
 269,77; 3076,330;  174,081;24744,209;11,81210
 270,37; 2964,054;  153,928;24629,119;11,48153
 270,96; 2935,855;  206,620;24567,710;11,20326
 271,56; 2823,938;  178,080;24221,983;11,00428
 272,16; 2745,688;  157,697;24086,820;10,81524
 272,75; 2688,432;  175,620;24013,793;10,54113
 273,35; 2638,425;  179,696;24014,260;10,31581
 273,95; 2590,181;  176,774;23984,217;10,13720
 274,54; 2524,826;  151,848;23996,152; 9,95197
 275,14; 2554,678;  180,466;24481,905; 9,76984
 275,74; 2497,039;  147,158;24521,350; 9,64085
 276,33; 2551,364;  177,388;24983,295; 9,57020
 276,93; 2562,945;  173,078;25389,984; 9,47724
 277,53; 2585,421;  174,541;25857,446; 9,38710
 278,12; 2586,259;  152,003;26386,795; 9,27873
 278,72; 2674,390;  176,849;27027,203; 9,30171
 279,32; 2702,206;  164,849;27585,038; 9,25361
 279,91; 2735,702;  156,234;28394,975; 9,13450
 280,51; 2844,290;  174,541;28879,168; 9,30076
 281,11; 2895,751;  173,464;29680,956; 9,22575
 281,70; 2951,677;  153,464;30082,645; 9,34945
 282,30; 3036,938;  154,157;30705,214; 9,43595
 282,90; 3081,049;  172,850;31110,454; 9,40021
 283,49; 3208,097;  188,389;31632,068; 9,60355
 284,09; 3313,151;  193,157;32038,009; 9,79748
 284,69; 3395,875;  184,772;32401,162; 9,96730
 285,28; 3471,632;  193,003;32649,816;10,10151
 285,88; 3606,723;  199,158;32944,368;10,40630
 286,47; 3658,531;  172,234;32981,492;10,62595
 287,07; 3791,380;  195,079;33114,922;10,92441
 287,67; 3948,328;  187,770;33219,209;11,38478
 288,26; 4039,602;  167,695;33123,786;11,74868
 288,86; 4203,347;  164,388;33288,692;12,19334
 289,46; 4421,662;  184,157;33296,899;12,79721
 290,05; 4621,861;  165,540;33478,859;13,37699
 290,65; 4841,611;  178,927;33615,335;13,94493
 291,24; 5089,271;  177,849;33841,751;14,58958
 291,84; 5364,274;  191,157;33937,926;15,32922
 292,44; 5633,402;  182,462;34096,058;16,07302
 293,03; 5889,026;  223,156;34201,856;16,67477
 293,63; 6119,406;  174,926;34369,973;17,38404
 294,22; 6369,457;  189,234;34536,312;17,99345
 294,82; 6595,212;  179,697;34492,868;18,69694
 295,41; 6706,831;  165,003;34197,568;19,22226
 296,01; 6939,495;  211,851;34125,673;19,83747
 296,61; 7036,738;  180,464;33816,356;20,38380
 297,20; 7156,372;  191,158;33430,146;20,95495
 297,80; 7280,812;  184,540;33316,027;21,41851
 298,39; 7301,904;  165,388;32876,205;21,81699
 298,99; 7411,422;  184,773;32830,729;22,13643
 299,58; 7476,554;  178,232;32575,610;22,52751
 300,18; 7639,528;  198,694;32461,293;23,06334
 300,78; 7637,620;  168,156;32123,429;23,37475
 301,37; 7733,413;  185,775;32118,559;23,63602
 301,97; 7868,865;  182,233;32203,265;24,00495
 302,56; 7899,067;  179,311;32045,807;24,22530
 303,16; 7974,396;  161,850;32031,081;24,51438
 303,75; 8073,842;  175,617;32111,672;24,73137
 304,35; 8222,854;  180,308;32339,450;25,00858
 304,94; 8340,810;  174,541;32243,218;25,46494
 305,54; 8409,723;  189,387;32332,225;25,57439
 306,13; 8422,058;  144,231;32182,885;25,83700
 306,73; 8468,667;  170,539;31948,375;26,11294
 307,33; 8561,033;  196,616;31974,419;26,32157
 307,92; 8626,670;  170,233;32028,953;26,54355
 308,52; 8821,037;  165,927;32522,647;26,74903
 309,11; 9058,065;  178,005;33043,998;27,01899
 309,71; 9173,919;  150,467;33305,075;27,21628
 310,30; 9296,234;  156,772;33566,903;27,35536
 310,90; 9440,003;  166,695;33867,750;27,51637
 311,49; 9606,847;  170,772;33965,911;27,92140
 312,09; 9713,479;  141,156;34235,313;28,07614
 312,68; 9909,934;  194,310;34546,187;28,28266
 313,28; 9896,977;  155,925;34701,261;28,19788
 313,87;10044,967;  143,079;34852,825;28,52769
 314,47;10153,617;  161,543;35042,348;28,64634
 315,06;10269,587;  158,925;35257,963;28,80609
 315,66;10322,787;  153,309;35396,620;28,85506
 316,25;10301,475;  130,696;35361,073;28,86934
 316,85;10366,781;  141,232;35402,400;28,99946
 317,44;10495,592;  165,005;35637,019;29,12321
 318,04;10487,616;  148,850;35682,935;29,09535
 318,63;10525,297;  138,847;35639,731;29,25688
 319,22;10534,386;  178,081;35952,863;28,94862
 319,82;10592,085;  171,849;35909,604;29,15750
 320,41;10561,053;  166,773;35801,913;29,16862
 321,01;10602,958;  174,925;35946,743;29,15153
 321,60;10670,569;  177,541;36090,787;29,21771
 322,20;10645,923;  165,541;36091,598;29,17209
 322,79;10651,909;  206,387;36256,012;28,97540
 323,39;10637,318;  167,616;36247,448;29,01816
 323,98;10634,108;  153,925;36227,687;29,05209
 324,58;10657,436;  166,465;35941,080;29,32518
 325,17;10631,204;  178,542;35835,844;29,31423
 325,76;10526,420;  188,387;35706,920;29,10602
 326,36;10398,531;  155,310;35312,598;29,13541
 326,95;10327,005;  179,157;34951,299;29,18385
 327,55;10227,231;  155,080;34618,622;29,22552
 328,14;10079,458;  164,232;34226,423;29,10918
 328,74; 9977,318;  191,157;33734,614;29,17457
 329,33; 9875,907;  186,386;33337,309;29,22851
 329,92; 9629,088;  160,466;32814,951;28,99639
 330,52; 9465,831;  167,847;32098,290;29,11949
 331,11; 9338,199;  176,926;31719,990;29,04370
 331,71; 9161,087;  166,541;31060,437;29,11431
 332,30; 9025,964;  195,233;30588,371;29,05501
 332,89; 8817,520;  189,310;30115,855;28,83129
 333,49; 8658,942;  171,311;29579,962;28,86100
 334,08; 8538,447;  173,157;29095,497;28,92328
 334,68; 8352,490;  172,926;28691,257;28,68178
 335,27; 8218,941;  178,001;28326,217;28,56643
 335,86; 8159,968;  199,926;28145,759;28,48383
 336,46; 8051,041;  187,924;27910,632;28,36345
 337,05; 7995,940;  169,465;27721,124;28,40655
 337,65; 7885,966;  165,465;27576,690;28,16547
 338,24; 7933,296;  222,310;27590,311;28,17519
 338,83; 7892,689;  189,079;27497,908;28,20923
 339,43; 7848,421;  171,773;27519,795;28,07021
 340,02; 7812,347;  176,619;27395,254;28,05331
 340,61; 7768,419;  156,849;27340,223;28,00083
 341,21; 7801,779;  207,080;27425,460;27,90283
 341,80; 7755,034;  166,157;27398,400;27,86725
 342,40; 7829,301;  172,847;27471,810;28,04668
 342,99; 7767,135;  169,464;27569,932;27,72826
 343,58; 7827,446;  165,002;27789,616;27,73774
 344,18; 7829,400;  174,386;27918,013;27,59197
 344,77; 7887,997;  159,619;28255,494;27,50716
 345,36; 7949,467;  148,157;28592,837;27,42625
 345,96; 8069,166;  196,233;28843,636;27,48219
 346,55; 8097,572;  166,924;29079,939;27,42934
 347,14; 8168,497;  138,078;29554,186;27,29939
 347,74; 8313,021;  137,922;29885,239;27,48180
 348,33; 8473,030;  165,461;30658,380;27,24426
 348,92; 8630,799;  182,306;31199,510;27,23809
 349,52; 8757,125;  155,153;31645,638;27,31610
 350,11; 8798,966;  158,235;31788,560;27,31787
 350,70; 8768,222;  168,156;31891,770;27,10935
 351,29; 8676,306;  155,160;31538,321;27,15197
 351,89; 8604,820;  169,620;31565,719;26,86703
 352,48; 8624,257;  146,156;31540,779;27,00494
 353,07; 8582,565;  174,770;31503,891;26,83700
 353,67; 8543,383;  183,460;31367,878;26,80801
 354,26; 8393,050;  170,078;31221,850;26,48149
 354,85; 8357,362;  171,848;31093,391;26,47188
 355,45; 8233,206;  154,773;30800,292;26,36089
 356,04; 8240,288;  162,539;30718,211;26,43617
 356,63; 8167,258;  186,541;30530,252;26,30106
 357,22; 8075,473;  179,236;30360,513;26,16270
 357,82; 8021,203;  170,620;30163,886;26,17449
 358,41; 7928,921;  175,618;29998,227;25,99807
 359,00; 7834,589;  159,696;29820,074;25,87591
 359,60; 7795,897;  176,079;29766,725;25,75077
 360,19; 7728,607;  164,232;29545,185;25,74585
 360,78; 7698,707;  169,234;29390,978;25,76668
 361,37; 7555,456;  170,849;29142,709;25,48889
 361,97; 7533,751;  176,695;29019,802;25,50715
 362,56; 7396,741;  149,235;28734,626;25,35388
 363,15; 7332,348;  180,619;28421,467;25,32406
 363,74; 7197,996;  167,389;28015,436;25,24632
 364,34; 7136,902;  197,234;27669,910;25,26025
 364,93; 6972,989;  156,312;27286,056;25,12621
 365,52; 6825,276;  135,541;26853,836;25,03803
 366,11; 6713,834;  167,004;26545,738;24,81859
 366,71; 6596,079;  159,850;26166,171;24,74871
 367,30; 6503,361;  164,541;25778,202;24,74781
 367,89; 6448,060;  205,386;25566,073;24,61556
 368,48; 6352,187;  178,697;25261,668;24,61228
 369,07; 6174,222;  173,541;24861,540;24,30607
 369,67; 6172,135;  176,543;24540,152;24,60880
 370,26; 6038,182;  158,618;24300,695;24,35401
 370,85; 5964,108;  174,388;24023,095;24,27687
 371,44; 5904,512;  161,695;23750,205;24,34582
 372,03; 5827,916;  152,773;23519,343;24,28745
 372,63; 5696,076;  139,157;23167,463;24,13082
 373,22; 5630,681;  166,926;22947,855;23,98390
 373,81; 5570,017;  131,388;22618,585;24,18545
 374,40; 5494,626;  162,924;22349,087;24,03165
 374,99; 5430,123;  160,465;22083,149;24,03747
 375,59; 5341,211;  148,771;21793,460;23,98944
 376,18; 5366,020;  191,772;21778,275;23,96983
 376,77; 5278,375;  173,310;21494,476;23,94365
 377,36; 5260,988;  193,234;21442,950;23,84857
 377,95; 5174,423;  174,004;21108,941;23,88552
 378,55; 5139,497;  161,233;20989,743;23,90120
 379,14; 5128,282;  165,003;20901,210;23,93533
 379,73; 5085,691;  167,388;20872,866;23,75363
 380,32; 5096,227;  199,926;20901,850;23,65143
 380,91; 5054,420;  153,620;20729,814;23,81782
 381,50; 5104,644;  184,235;20694,665;23,98979
 382,10; 5011,534;  163,926;20527,619;23,80515
 382,69; 5004,931;  151,926;20540,681;23,80236
 383,28; 5026,131;  182,542;20435,533;23,91542
 383,87; 4994,102;  155,619;20320,437;23,99468
 384,46; 4973,870;  157,313;20311,243;23,89885
 385,05; 4996,245;  190,158;20307,848;23,88986
 385,64; 4994,295;  169,234;20308,123;23,95892
 386,24; 5006,833;  148,313;20205,088;24,22384
 386,83; 5057,717;  179,851;20378,171;24,14986
 387,42; 5067,332;  184,696;20423,893;24,12465
 388,01; 5130,020;  164,775;20658,595;24,22801
 388,60; 5183,371;  182,159;20940,852;24,09213
 389,19; 5262,412;  148,854;21177,158;24,31750
 389,78; 5358,770;  158,238;21403,433;24,47863
 390,37; 5543,091;  203,390;21849,895;24,66773
 390,96; 5533,964;  173,928;22000,135;24,55780
 391,56; 5593,764;  172,085;22146,082;24,67316
 392,15; 5680,321;  167,468;22456,091;24,73393
 392,74; 5743,200;  137,240;22560,800;25,00031
 393,33; 5878,927;  155,162;22902,223;25,16266
 393,92; 5955,506;  175,241;23335,370;24,95782
 394,51; 6014,981;  150,393;23479,193;25,13883
 395,10; 6177,207;  186,629;23705,428;25,47145
 395,69; 6214,477;  168,013;23840,724;25,54192
 396,28; 6259,539;  169,399;23925,641;25,63596
 396,87; 6317,764;  175,401;24000,568;25,78098
 397,46; 6413,527;  173,710;24137,395;26,03864
 398,06; 6483,868;  179,789;24328,465;26,10528
 398,65; 6509,217;  171,025;24434,208;26,12268
 399,24; 6613,579;  171,487;24543,971;26,43183
 399,83; 6630,274;  158,032;24611,479;26,46760
 400,42; 6724,681;  190,423;24757,000;26,59816
 401,01; 6760,231;  148,661;24859,341;26,75592
 401,60; 6776,282;  170,363;24852,444;26,76403
 402,19; 6849,595;  185,140;24698,737;27,18677
 402,78; 6887,415;  187,998;24760,598;27,26377
 403,37; 6864,216;  180,240;24526,864;27,45340
 403,96; 6840,101;  173,330;24410,096;27,50685
 404,55; 6855,190;  170,729;24387,732;27,60235
 405,14; 6868,834;  162,973;24197,759;27,90065
 405,73; 6856,998;  164,681;24105,196;27,95394
 406,32; 6908,426;  169,230;24021,341;28,25409
 406,91; 6831,469;  168,857;23703,149;28,31023
 407,50; 6853,771;  162,094;23466,882;28,71374
 408,09; 6770,678;  160,406;23228,657;28,65528
 408,68; 6798,108;  174,332;23038,889;28,96962
 409,27; 6799,142;  154,251;22971,934;29,12167
 409,86; 6772,952;  156,473;22793,269;29,22887
 410,45; 6828,094;  180,926;22668,443;29,55937
 411,04; 6803,626;  188,380;22614,601;29,49782
 411,63; 6754,369;  172,831;22332,112;29,70104
 412,22; 6727,044;  177,129;22114,787;29,85695
 412,81; 6689,767;  180,203;21840,396;30,05312
 413,40; 6602,096;  195,198;21520,995;30,04295
 413,99; 6564,166;  215,276;21177,971;30,28661
 414,58; 6516,496;  166,276;20807,054;30,76541
 415,17; 6438,977;  166,818;20572,743;30,73695
 415,76; 6446,629;  163,283;20478,550;30,92918
 416,35; 6401,007;  155,974;20330,508;30,95503
 416,94; 6461,734;  181,359;20393,315;31,07257
 417,53; 6553,369;  163,741;20638,643;31,20713
 418,12; 6643,853;  160,509;20715,187;31,54194
 418,71; 6775,987;  171,275;21038,132;31,65169
 419,30; 6827,639;  169,816;21160,530;31,71794
 419,89; 6922,106;  157,969;21360,650;31,90227
 420,48; 7046,366;  190,583;21640,912;31,96120
 421,07; 7152,867;  171,428;21678,656;32,46090
 421,66; 7190,738;  147,580;21632,933;32,78121
 422,25; 7206,114;  155,345;21600,530;32,87810
 422,84; 7235,701;  192,345;21556,641;32,96789
 423,43; 7166,274;  171,192;21226,851;33,22186
 424,02; 7148,699;  185,961;20948,980;33,53432
 424,60; 7024,908;  162,495;20544,660;33,66871
 425,19; 6984,728;  166,036;20362,319;33,76212
 425,78; 6967,434;  195,343;20305,515;33,67495
 426,37; 6957,784;  193,572;20075,305;34,02224
 426,96; 6931,225;  170,418;20007,190;34,08219
 427,55; 6912,991;  176,800;19844,199;34,25054
 428,14; 6862,055;  152,953;19644,421;34,42071
 428,73; 6819,909;  174,724;19428,392;34,51386
 429,32; 6865,295;  182,419;19439,752;34,70302
 429,91; 6900,877;  204,494;19428,375;34,83367
 430,50; 6916,870;  182,108;19288,044;35,24958
 431,08; 6870,757;  189,414;19119,616;35,29462
 431,67; 6870,362;  221,413;18972,369;35,45926
 432,26; 6835,993;  226,489;18767,380;35,64826
 432,85; 6680,473;  235,720;18337,354;35,60316
 433,44; 6619,456;  248,641;18015,954;35,85694
 434,03; 6518,202;  258,023;17665,545;35,96249
 434,62; 6391,207;  219,872;17254,600;36,22797
 435,21; 6382,661;  230,719;17054,435;36,56708
 435,79; 6287,781;  219,486;16894,183;36,39224
 436,38; 6283,351;  214,330;16869,129;36,44007
 436,97; 6286,723;  217,022;16730,606;36,75581
 437,56; 6238,861;  215,326;16537,765;36,90340
 438,15; 6232,412;  199,865;16553,229;36,88872
 438,74; 6280,365;  228,557;16500,005;37,19280
 439,33; 6248,611;  205,019;16516,141;37,05197
 439,91; 6314,896;  178,171;16540,294;37,50568
 440,50; 6355,998;  217,556;16679,163;37,28945
 441,09; 6419,000;  215,939;16732,487;37,55665
 441,68; 6430,514;  202,860;16791,937;37,54069
 442,27; 6437,597;  183,707;16706,181;37,85081
 442,86; 6433,157;  165,625;16737,164;37,82106
 443,44; 6490,428;  182,549;16820,571;37,91243
 444,03; 6553,068;  218,471;16778,570;38,25217
 444,62; 6498,746;  175,318;16663,983;38,35015
 445,21; 6479,816;  195,087;16511,550;38,51772
 445,80; 6486,668;  197,623;16369,161;38,88959
 446,39; 6427,616;  214,701;16117,433;39,06822
 446,97; 6280,657;  169,006;15928,116;38,78170
 447,56; 6246,513;  173,311;15667,499;39,19665
 448,15; 6164,125;  173,237;15496,721;39,09612
 448,74; 6111,383;  181,544;15294,966;39,23558
 449,33; 6082,301;  177,927;15083,473;39,61193
 449,91; 6000,788;  179,002;14881,045;39,59849
 450,50; 5929,867;  158,695;14716,825;39,64226
 451,09; 5903,783;  187,002;14602,291;39,65776
 451,68; 5897,717;  209,463;14493,319;39,82296
 452,26; 5901,688;  196,538;14438,270;40,05938
 452,85; 5813,140;  175,462;14302,845;39,90603
 453,44; 5863,633;  195,074;14274,614;40,26097
 454,03; 5852,153;  167,615;14319,936;40,16682
 454,61; 5838,835;  156,305;14330,589;40,09042
 455,20; 5952,449;  195,150;14467,867;40,33779
 455,79; 6010,744;  196,537;14506,333;40,63095
 456,38; 6020,962;  186,995;14585,331;40,51834
 456,97; 6105,815;  173,610;14655,639;40,96253
 457,55; 6081,115;  172,378;14676,615;40,73801
 458,14; 6123,070;  197,226;14581,603;41,19639
 458,73; 6064,163;  183,224;14504,052;41,06563
 459,31; 6125,310;  207,145;14618,471;41,06607
 459,90; 6155,479;  212,608;14634,856;41,20627
 460,49; 6260,911;  226,070;14729,009;41,61116
 461,08; 6252,523;  167,375;14880,094;41,35978
 461,66; 6268,553;  181,069;14911,527;41,32583
 462,25; 6338,825;  182,067;15023,389;41,48389
 462,84; 6417,571;  206,914;15031,531;41,89422
 463,43; 6319,145;  151,680;14968,994;41,62337
 464,01; 6436,085;  176,525;15012,934;42,19053
 464,60; 6412,210;  215,450;14863,654;42,30389
 465,19; 6283,442;  156,679;14635,973;42,31396
 465,77; 6304,105;  170,985;14662,924;42,32090
 466,36; 6266,698;  187,526;14464,966;42,57886
 466,95; 6140,865;  183,449;14177,239;42,57185
 467,53; 6011,904;  177,061;13880,292;42,58005
 468,12; 5941,450;  199,522;13572,114;42,93803
 468,71; 5851,056;  177,601;13387,045;42,94999
 469,29; 5758,492;  164,137;13119,869;43,18054
 469,88; 5682,395;  171,752;12892,115;43,32143
 470,47; 5743,223;  211,135;13045,484;43,10377
 471,06; 5704,764;  180,289;13018,938;43,03004
 471,64; 5793,709;  180,289;13112,832;43,40538
 472,23; 5768,178;  148,670;13083,252;43,44561
 472,81; 5857,323;  147,595;13264,087;43,53091
 473,40; 5895,984;  168,747;13393,484;43,30700
 473,99; 6059,551;  227,978;13595,042;43,62643
 474,57; 6067,212;  171,593;13739,723;43,45196
 475,16; 6133,690;  179,287;13899,190;43,39974
 475,75; 6230,974;  191,130;13998,084;43,74494
 476,33; 6249,940;  205,129;14069,340;43,60011
 476,92; 6295,957;  203,439;14039,067;44,03499
 477,51; 6301,532;  173,668;14167,944;43,78836
 478,09; 6358,743;  190,437;14168,906;44,12719
 478,68; 6298,869;  193,744;14079,253;43,96760
 479,27; 6341,885;  202,284;14172,412;43,94806
 479,85; 6399,265;  180,514;14193,540;44,37836
 480,44; 6433,836;  171,359;14386,995;44,05344
 481,02; 7103,797;  180,204;16460,651;42,52704
 481,61; 8010,545;  190,359;18126,170;43,60096
 482,20; 8580,868;  181,743;19256,508;44,03265
 482,78; 8935,409;  208,744;20068,778;43,94084
 483,37; 9155,049;  202,202;20420,090;44,28181
 483,95; 9308,723;  221,433;20644,424;44,49539
 484,54; 9424,267;  241,666;20814,503;44,63459
 485,13; 9366,917;  195,123;20708,683;44,71088
 485,71; 9239,714;  185,816;20396,567;44,79743
 486,30; 9170,155;  211,585;20055,299;45,14563
 486,88; 9027,593;  229,816;19647,489;45,30809
 487,47; 8663,338;  228,046;18841,371;45,31856
 488,05; 8258,845;  217,046;17866,413;45,56424
 488,64; 7658,071;  211,506;16452,920;45,84924
 489,23; 6818,918;  218,814;14178,641;47,27927
 489,81; 5859,614;  211,583;12509,620;45,92628
 490,40; 5580,944;  176,891;12011,337;45,66376
 490,98; 5427,477;  159,659;11786,098;45,30895
 491,57; 5445,231;  198,968;11779,856;45,30104
 492,15; 5416,644;  169,274;11700,218;45,50686
 492,74; 5349,212;  177,815;11616,598;45,20933
 493,32; 5294,278;  185,659;11558,731;44,91855
 493,91; 5275,719;  173,966;11417,202;45,37619
 494,50; 5242,553;  186,656;11443,921;44,91230
 495,08; 5184,123;  171,348;11335,784;44,89949
 495,67; 5203,056;  190,428;11353,996;44,90166
 496,25; 5151,757;  144,503;11266,705;45,02035
 496,84; 5118,948;  155,274;11200,754;44,93851
 497,42; 5136,798;  150,964;11159,685;45,28985
 498,01; 5104,474;  178,043;11107,462;45,07496
 498,59; 5026,230;  143,195;11042,122;44,80290
 499,18; 5039,590;  146,427;10949,994;45,29211
 499,76; 5026,905;  170,119;10892,639;45,29520
 500,35; 4937,052;  177,963;10695,135;45,25066
 500,93; 4891,488;  154,580;10690,155;44,96108
 501,52; 4857,467;  169,426;10611,496;44,89571
 502,10; 4851,701;  175,116;10565,730;45,00778
 502,69; 4777,507;  157,499;10374,247;45,21994
 503,27; 4716,402;  141,886;10230,836;45,34184
 503,86; 4655,357;  156,577;10161,634;44,96507
 504,44; 4607,414;  149,422;10033,726;45,10173
 505,03; 4484,659;  138,114; 9755,005;45,19698
 505,61; 4456,384;  141,422; 9634,720;45,45272
 506,19; 4388,685;  165,191; 9559,648;44,95729
 506,78; 4255,803;  136,882; 9326,586;44,82105
 507,36; 4258,047;  153,037; 9181,464;45,46761
 507,95; 4183,755;  154,342; 9044,351;45,32518
 508,53; 4107,026;  159,882; 8894,912;45,18753
 509,12; 4034,363;  162,804; 8759,452;45,03568
 509,70; 3980,843;  175,342; 8573,710;45,31238
 510,29; 3909,398;  174,572; 8453,880;45,11036
 510,87; 3810,921;  155,113; 8298,893;44,89080
 511,46; 3717,099;  151,958; 8056,217;45,10404
 512,04; 3674,215;  150,727; 7948,110;45,18808
 512,62; 3598,232;  155,958; 7819,102;44,91987
 513,21; 3522,554;  131,880; 7634,103;45,19559
 513,79; 3460,327;  157,415; 7541,165;44,73218
 514,38; 3381,197;  135,032; 7341,147;45,04737
 514,96; 3372,067;  164,416; 7280,721;45,07466
 515,54; 3301,306;  145,262; 7143,300;45,09899
 516,13; 3260,172;  164,646; 7037,794;45,03796
 516,71; 3176,398;  149,491; 6905,306;44,80447
 517,30; 3125,460;  139,183; 6809,382;44,77044
 517,88; 3112,640;  165,644; 6729,717;44,89584
 518,46; 3051,108;  146,721; 6642,535;44,71168
 519,05; 3018,521;  154,258; 6582,069;44,56047
 519,63; 3010,517;  165,105; 6522,167;44,75986
 520,22; 2961,667;  170,872; 6421,353;44,64929
 520,80; 2917,014;  160,411; 6373,193;44,36988
 521,38; 2942,392;  168,874; 6366,322;44,75259
 521,97; 2911,504;  159,025; 6335,342;44,56505
 522,55; 2889,231;  161,948; 6286,428;44,53084
 523,13; 2870,821;  135,640; 6300,844;44,36481
 523,72; 2853,980;  147,259; 6314,639;43,88770
 524,30; 2963,365;  175,101; 6478,656;44,23320
 524,89; 2938,159;  136,794; 6473,336;44,20968
 525,47; 2970,025;  167,947; 6617,018;43,44933
 526,05; 2997,443;  137,639; 6693,561;43,62170
 526,64; 3058,037;  162,254; 6792,435;43,67577
 527,22; 3132,800;  170,331; 6939,623;43,76335
 527,80; 3194,712;  196,561; 7056,626;43,70441
 528,39; 3207,023;  154,638; 7201,600;43,31492
 528,97; 3284,364;  166,407; 7361,468;43,33468
 529,55; 3376,080;  173,255; 7550,171;43,41685
 530,14; 3493,546;  183,022; 7742,464;43,79323
 530,72; 3507,190;  164,407; 7830,430;43,60517
 531,30; 3524,970;  142,791; 7983,688;43,13510
 531,89; 3583,480;  158,329; 8036,361;43,47724
 532,47; 3685,729;  188,252; 8191,542;43,70049
 533,05; 3675,117;  176,946; 8219,818;43,49405
 533,63; 3708,728;  190,790; 8273,921;43,52197
 534,22; 3680,848;  149,329; 8294,528;43,35706
 534,80; 3714,760;  181,250; 8392,742;43,03128
 535,38; 3794,359;  224,791; 8408,826;43,61624
 535,97; 3716,737;  159,867; 8413,985;43,09207
 536,55; 3785,122;  207,019; 8434,476;43,48977
 537,13; 3733,261;  207,176; 8392,648;43,07736
 537,71; 3812,760;  229,330; 8451,808;43,58090
 538,30; 3804,342;  235,174; 8517,449;43,09405
 538,88; 3861,321;  256,249; 8658,051;42,90831
 539,46; 3952,795;  294,558; 8809,905;42,96051
 540,05; 4006,946;  304,404; 8927,736;42,93633
 540,63; 4079,276;  320,942; 9087,458;42,87147
 541,21; 4147,191;  336,864; 9212,683;42,92930
 541,79; 4205,855;  359,326; 9337,510;42,84306
 542,38; 4270,907;  367,788; 9511,281;42,68739
 542,96; 4337,412;  377,479; 9667,596;42,62523
 543,54; 4410,551;  380,480; 9861,277;42,50772
 544,12; 4438,686;  363,403;10010,379;42,24415
 544,70; 4478,275;  348,863;10138,328;42,18220
 545,29; 4569,439;  364,634;10263,291;42,47854
 545,87; 4554,163;  349,710;10356,279;42,01692
 546,45; 4521,856;  314,173;10320,154;42,05168
 547,03; 4583,432;  297,403;10435,983;42,27445
 547,62; 4624,621;  287,864;10596,820;42,06785
 548,20; 4721,772;  298,787;10833,420;41,98519
 548,78; 4741,054;  274,246;10991,398;41,67906
 549,36; 4811,579;  266,707;11206,971;41,54261
 549,94; 4859,084;  236,402;11339,499;41,63416
 550,53; 4946,065;  240,092;11576,626;41,51156
 551,11; 5031,451;  229,553;11805,051;41,48329
 551,69; 5156,696;  223,707;12176,354;41,27110
 552,27; 5228,169;  190,785;12412,818;41,21560
 552,85; 5376,702;  200,014;12870,551;40,85610
 553,44; 5525,702;  200,092;13101,574;41,27905
 554,02; 5678,677;  221,707;13586,841;40,82989
 554,60; 5743,168;  165,707;13859,381;40,73020
 555,18; 5938,704;  207,784;14266,566;40,76398
 555,76; 6037,999;  187,092;14642,428;40,47576
 556,34; 6195,843;  186,090;15067,696;40,38376
 556,93; 6377,923;  188,246;15441,895;40,57834
 557,51; 6473,082;  176,321;15828,063;40,23042
 558,09; 6637,573;  189,092;16156,443;40,38542
 558,67; 6787,640;  196,936;16604,384;40,16898
 559,25; 6938,901;  206,398;16854,876;40,43915
 559,83; 7056,880;  187,550;17212,348;40,34897
 560,41; 7130,946;  169,398;17632,267;39,86486
 561,00; 7286,976;  182,166;17919,404;40,05590
 561,58; 7347,189;  186,706;18213,247;39,72189
 562,16; 7458,570;  167,937;18481,273;39,81051
 562,74; 7580,412;  159,938;18928,602;39,53651
 563,32; 7707,131;  152,320;19307,616;39,43980
 563,90; 7898,193;  181,166;19791,817;39,35120
 564,48; 8062,896;  182,245;20199,377;39,36953
 565,06; 8274,553;  169,013;20936,411;39,03012
 565,65; 8464,799;  182,472;21615,168;38,64342
 566,23; 8820,019;  229,320;22408,626;38,73295
 566,81; 9018,075;  170,013;23130,222;38,53651
 567,39; 9350,965;  176,627;24057,401;38,41725
 567,97; 9593,892;  197,090;24709,274;38,33523
 568,55; 9938,556;  201,704;25549,461;38,41307
 569,13;10183,412;  176,397;26252,607;38,37603
 569,71;10490,360;  184,937;27262,541;38,05884
 570,29;10960,852;  205,400;28159,961;38,47477
 570,87;11147,668;  204,245;28987,854;38,01963
 571,45;11368,142;  199,166;29560,076;38,04029
 572,03;11509,930;  167,011;30076,156;37,92458
 572,61;11794,485;  170,781;30832,912;37,90899
 573,20;12041,503;  192,167;31483,833;37,86739
 573,78;12224,222;  175,320;32207,665;37,61480
 574,36;12362,619;  173,166;32575,341;37,61924
 574,94;12483,279;  212,703;32972,142;37,45661
 575,52;12553,775;  175,163;33226,257;37,45296
 576,10;12754,213;  218,549;33856,630;37,26629
 576,68;12958,656;  203,857;34493,781;37,19693
 577,26;13108,547;  230,009;35127,385;36,90403
 577,84;13276,727;  218,858;35554,353;36,95397
 578,42;13375,745;  240,087;35765,582;36,97530
 579,00;13361,160;  213,396;36002,328;36,73695
 579,58;13445,504;  232,242;36167,383;36,76975
 580,16;13407,436;  230,318;36226,731;36,60675
 580,74;13450,712;  215,472;36476,329;36,50008
 581,32;13437,201;  205,703;36392,906;36,56403
 581,90;13382,904;  226,087;36497,797;36,27294
 582,48;13370,220;  238,780;36623,702;36,09033
 583,06;13355,373;  218,780;36816,413;35,89465
 583,64;13368,789;  226,934;36868,737;35,86574
 584,22;13239,503;  226,086;36525,946;35,84977
 584,80;13065,215;  231,164;36331,102;35,55145
 585,38;12933,176;  230,090;35971,570;35,54158
 585,96;12876,928;  220,242;36159,708;35,21668
 586,54;12879,664;  228,932;36204,710;35,16458
 587,12;12853,509;  207,625;36436,420;34,90561
 587,70;12881,973;  238,396;36577,691;34,79313
 588,28;12934,298;  232,472;36593,150;34,93286
 588,86;12920,747;  219,087;36790,858;34,73078
 589,44;12820,664;  201,008;36863,744;34,42093
 590,02;12941,814;  226,855;37071,919;34,50926
 590,59;12960,439;  193,394;37348,392;34,36158
 591,17;13012,043;  195,314;37413,015;34,43719
 591,75;13053,471;  204,623;37593,343;34,36557
 592,33;13098,410;  206,316;37898,171;34,20393
 592,91;13135,529;  167,314;38143,671;34,14813
 593,49;13240,577;  179,160;38498,628;34,08559
 594,07;13226,814;  198,237;38688,233;33,84926
 594,65;13233,444;  205,625;38699,222;33,84412
 595,23;13291,561;  198,855;39164,274;33,60083
 595,81;13325,368;  186,008;39188,108;33,68885
 596,39;13262,693;  189,162;39349,379;33,38472
 596,97;13292,731;  187,314;39512,652;33,32563
 597,55;13228,405;  182,086;39395,672;33,26990
 598,12;13115,231;  172,544;39432,001;32,96706
 598,70;13109,075;  185,391;39673,801;32,72779
 599,28;13133,656;  191,776;39846,485;32,63643
 599,86;13093,856;  182,930;39830,396;32,56432
 600,44;13022,259;  149,545;39902,192;32,38203
 601,02;13095,707;  209,389;39937,468;32,43630
 601,60;12968,081;  181,930;39913,584;32,18127
 602,18;12880,753;  168,775;40000,037;31,91457
 602,75;12859,323;  177,162;40066,048;31,79372
 603,33;12817,453;  188,006;40115,735;31,63077
 603,91;12768,850;  166,466;39974,359;31,65800
 604,49;12752,812;  198,083;40192,861;31,39092
 605,07;12715,183;  203,546;40256,996;31,23735
 605,65;12696,173;  204,006;40297,744;31,15740
 606,23;12713,818;  246,087;40352,946;31,08628
 606,80;12681,756;  255,624;40392,106;30,95970
 607,38;12623,668;  276,159;40455,037;30,73134
 607,96;12635,301;  313,393;40470,095;30,68456
 608,54;12613,298;  358,852;40486,186;30,53890
 609,12;12618,645;  349,393;40572,866;30,50272
 609,70;12563,127;  387,084;40549,164;30,31726
 610,27;12521,122;  375,624;40643,765;30,16156
 610,85;12489,215;  380,007;40698,297;30,03403
 611,43;12361,599;  393,160;40770,061;29,64180
 612,01;12288,438;  361,546;40349,800;29,82599
 612,59;12233,728;  346,699;40489,577;29,61180
 613,16;12163,378;  336,624;40379,657;29,53511
 613,74;12067,804;  315,776;40256,803;29,42345
 614,32;12010,181;  293,929;40221,264;29,34394
 614,90;11892,345;  286,469;40046,819;29,18957
 615,48;11725,189;  244,086;39871,874;28,97235
 616,05;11616,988;  230,548;39810,135;28,76847
 616,63;11563,787;  238,471;39640,472;28,74300
 617,21;11486,107;  237,547;39510,333;28,64213
 617,79;11425,596;  215,700;39420,649;28,59306
 618,36;11354,463;  240,007;39329,284;28,43351
 618,94;11194,661;  184,470;39001,386;28,36441
 619,52;11066,855;  210,240;38711,716;28,19792
 620,10;10956,639;  211,547;38655,568;27,94997
 620,67;10917,984;  211,317;38580,925;27,90403
 621,25;10840,220;  222,315;38471,613;27,75974
 621,83;10763,675;  207,086;38377,511;27,65646
 622,41;10765,841;  237,701;38321,490;27,64467
 622,98;10608,255;  223,702;38143,847;27,38532
 623,56;10542,543;  222,472;38077,199;27,26231
 624,14;10449,330;  211,776;37918,765;27,15028
 624,72;10340,695;  216,701;37825,241;26,91940
 625,29;10314,201;  184,087;37979,113;26,80277
 625,87;10286,778;  237,623;37965,438;26,63593
 626,45;10198,501;  198,703;37699,521;26,66555
 627,02;10101,578;  198,777;37698,604;26,40759
 627,60;10051,418;  182,468;37551,720;26,40928
 628,18;10017,491;  173,085;37677,327;26,24878
 628,76; 9969,069;  192,933;37711,291;26,05694
 629,33; 9960,189;  206,317;37777,417;25,96110
 629,91; 9909,178;  205,624;37746,953;25,84766
 630,49; 9947,917;  219,932;37850,201;25,85149
 631,06; 9942,667;  207,240;38016,399;25,74886
 631,64; 9872,316;  206,164;37960,581;25,60270
 632,22; 9786,523;  172,242;37879,877;25,49691
 632,79; 9849,489;  197,857;38132,868;25,44254
 633,37; 9833,061;  180,238;38224,244;25,37278
 633,95; 9783,171;  190,087;38292,799;25,17691
 634,52; 9744,855;  182,163;38410,539;25,01464
 635,10; 9703,383;  188,239;38333,008;24,94482
 635,68; 9747,307;  190,318;38685,771;24,82628
 636,25; 9666,632;  185,242;38558,918;24,70806
 636,83; 9591,531;  162,087;38821,214;24,39125
 637,41; 9632,649;  170,703;38873,940;24,44743
 637,98; 9687,864;  189,011;39191,976;24,35418
 638,56; 9687,197;  199,243;39219,335;24,31556
 639,13; 9579,358;  187,548;39248,951;24,04371
 639,71; 9601,430;  204,086;39399,871;23,97539
 640,29; 9496,825;  161,163;39137,443;23,95216
 640,86; 9456,061;  172,394;39385,340;23,67501
 641,44; 9497,836;  181,856;39386,543;23,76242
 642,02; 9414,458;  197,394;39343,670;23,54519
 642,59; 9385,002;  167,625;39505,412;23,43136
 643,17; 9352,546;  188,702;39544,770;23,28445
 643,74; 9314,167;  173,548;39483,204;23,25286
 644,32; 9321,788;  209,317;39369,870;23,26952
 644,89; 9264,486;  200,317;39445,612;23,09619
 645,47; 9291,800;  215,855;39453,431;23,13075
 646,05; 9207,344;  185,778;39419,404;22,99447
 646,62; 9134,658;  195,701;39422,454;22,78791
 647,20; 9168,663;  203,393;39539,658;22,79136
 647,77; 9047,131;  160,470;39415,400;22,63833
 648,35; 8973,983;  170,547;39341,296;22,47451
 648,92; 8955,142;  202,778;39266,423;22,40540
 649,50; 8893,456;  157,701;39255,088;22,34358
 650,08; 8860,846;  158,086;39188,522;22,29737
 650,65; 8858,083;  172,393;39492,803;22,08952
 651,23; 8979,781;  158,393;40438,007;21,90038
 651,80; 9148,940;  168,085;41246,287;21,86282
 652,38; 9232,177;  177,547;41552,183;21,88449
 652,95; 9191,644;  156,547;41818,233;21,68683
 653,53; 9272,342;  181,931;42160,129;21,65508
 654,10; 9267,579;  204,085;42210,025;21,57670
 654,68; 9191,277;  173,931;42091,306;21,51219
 655,25; 9216,667;  164,777;42250,664;21,50814
 655,83; 9148,981;  172,085;42337,560;21,28968
 656,40; 9105,448;  183,854;42216,840;21,22522
 656,98; 9049,531;  162,162;42157,429;21,16279
 657,55; 9040,613;  179,316;42035,479;21,17083
 658,13; 8893,465;  170,623;41570,990;21,06948
 658,70; 8787,779;  190,623;41156,425;20,98618
 659,28; 8550,477;  173,700;40244,013;20,90519
 659,85; 8338,637;  162,931;39632,140;20,71414
 660,43; 8352,258;  184,238;39777,420;20,62986
 661,00; 8346,033;  184,085;39913,778;20,54370
 661,58; 8351,269;  163,546;40384,751;20,35673
 662,15; 8375,813;  158,623;40553,185;20,34232
 662,73; 8447,819;  198,931;40895,620;20,26919
 663,30; 8390,748;  167,469;41059,824;20,10958
 663,88; 8425,446;  178,084;41275,412;20,06788
 664,45; 8441,452;  158,469;41527,462;20,02220
 665,03; 8485,381;  171,315;41884,127;19,93168
 665,60; 8611,694;  215,546;42366,331;19,91932
 666,17; 8569,469;  173,853;42482,689;19,84365
 666,75; 8564,629;  162,238;42730,046;19,73884
 667,32; 8666,942;  188,469;43209,096;19,70793
 667,90; 8679,256;  171,007;43396,223;19,68353
 668,47; 8687,954;  192,776;43665,350;19,54147
 669,05; 8745,729;  168,853;43900,707;19,61242
 669,62; 8716,965;  145,391;44058,834;19,51925
 670,19; 8732,125;  147,391;44146,884;19,51098
 670,77; 8768,285;  177,699;44334,626;19,45467
 671,34; 8723,829;  164,776;44208,061;19,43328
 671,92; 8786,912;  153,622;44513,572;19,46190
 672,49; 8749,225;  186,622;44563,699;19,29510
 673,06; 8678,000;  133,007;44574,133;19,22767
 673,64; 8633,467;  148,699;44603,799;19,08615
 674,21; 8658,627;  151,391;44492,925;19,18571
 674,79; 8633,479;  175,006;44728,360;18,98504
 675,36; 8632,254;  179,622;44854,256;18,92043
 675,93; 8626,952;  152,237;44791,152;18,98504
 676,51; 8622,573;  173,314;44932,740;18,87705
 677,08; 8614,502;  171,545;45057,867;18,80964
 677,65; 8613,431;  176,006;45183,532;18,74670
 678,23; 8632,514;  174,391;45427,813;18,69057
 678,80; 8593,135;  158,314;45481,478;18,61040
 679,38; 8602,141;  146,621;45753,221;18,54012
 679,95; 8673,146;  169,698;46064,501;18,52813
 680,52; 8681,152;  158,237;46233,859;18,49767
 681,10; 8749,850;  175,006;46712,524;18,42566
 681,67; 8746,010;  171,929;47003,266;18,30843
 682,24; 8784,554;  153,929;47051,470;18,40315
 682,82; 8838,637;  154,621;47649,751;18,28401
 683,39; 8910,335;  186,236;47938,416;18,26953
 683,96; 8910,879;  167,390;48190,158;18,20697
 684,54; 8890,116;  145,159;48490,823;18,08840
 685,11; 8977,737;  185,236;48923,027;18,04042
 685,68; 9057,819;  178,698;49334,616;18,06318
 686,25; 9079,825;  163,082;49378,896;18,11764
 686,83; 9114,139;  164,928;49576,792;18,11146
 687,40; 9136,452;  157,851;49904,381;18,04870
 687,97; 9265,535;  184,005;50339,661;18,10669
 688,55; 9181,464;  155,005;50317,711;17,99436
 689,12; 9212,931;  138,159;50671,223;17,95809
 689,69; 9231,091;  157,005;50741,965;17,93831
 690,26; 9241,558;  167,467;50761,015;17,93527
 690,84; 9288,025;  165,543;50993,065;17,94792
 691,41; 9305,108;  162,928;50996,345;17,98459
 691,98; 9333,268;  170,313;51390,395;17,88938
 692,56; 9338,196;  149,466;51393,368;17,93136
 693,13; 9345,510;  217,774;51514,264;17,79407
 693,70; 9383,746;  176,697;51682,237;17,87584
 694,27; 9332,214;  156,235;51824,748;17,75932
 694,84; 9358,373;  148,774;51866,183;17,80754
 695,42; 9416,918;  191,005;52025,771;17,79870
 695,99; 9421,770;  164,312;52182,283;17,79665
 696,56; 9318,621;  142,851;52189,025;17,63006
 697,13; 9432,166;  175,466;52437,690;17,71203
 697,71; 9423,402;  139,774;52574,586;17,70509
 698,28; 9453,485;  168,850;52856,252;17,62212
 698,85; 9448,952;  125,927;52979,225;17,63944
 699,42; 9490,650;  135,389;53144,121;17,64853
 699,99; 9494,348;  165,004;53157,940;17,60488
 700,57; 9523,816;  152,620;53151,067;17,68202
 701,14; 9535,514;  154,543;53299,039;17,65182
 701,71; 9561,981;  172,773;53573,705;17,58248
 702,28; 9595,910;  160,389;53516,985;17,68389
 702,85; 9596,685;  154,004;53632,728;17,65689
 703,43; 9655,768;  169,388;53956,316;17,63696
 704,00; 9672,620;  178,081;54075,597;17,61591
 704,57; 9579,779;  163,773;54007,493;17,48766
 705,14; 9652,170;  185,311;54290,081;17,49727
 705,71; 9664,483;  191,619;54301,823;17,50661
 706,28; 9638,489;  161,773;54212,488;17,53301
 706,86; 9649,956;  198,927;54428,000;17,42798
 707,43; 9659,193;  192,696;54364,204;17,47505
 708,00; 9635,583;  170,311;54359,792;17,46699
 708,57; 9575,127;  161,926;54388,073;17,35916
 709,14; 9641,133;  187,926;54498,123;17,40595
 709,71; 9686,831;  161,234;54503,480;17,52890
 710,28; 9640,529;  172,388;54749,376;17,34823
 710,86; 9661,997;  167,388;54870,426;17,35664
 711,43; 9738,618;  186,157;54905,014;17,45735
 712,00; 9678,239;  175,157;55067,757;17,31214
 712,57; 9804,706;  171,542;55039,730;17,55692
 713,14; 9754,174;  169,157;55233,395;17,40697
 713,71; 9708,102;  186,080;55021,522;17,36472
 714,28; 9766,339;  178,080;55154,033;17,44082
 714,85; 9676,883;  168,541;54862,006;17,38479
 715,42; 9735,427;  175,926;55168,364;17,38330
 716,00; 9827,972;  212,464;55267,567;17,46524
 716,57; 9762,977;  176,310;55393,848;17,36163
 717,14; 9672,676;  151,772;55317,821;17,25863
 717,71; 9739,451;  152,695;55364,486;17,36360
 718,28; 9711,149;  188,310;55433,998;17,23725
 718,85; 9722,077;  155,849;55409,048;17,31344
 719,42; 9743,391;  179,772;55618,867;17,25068
 719,99; 9761,474;  159,233;55382,070;17,38817
 720,56; 9784,249;  168,233;55675,582;17,32386
 721,13; 9849,793;  167,464;55834,939;17,39315
 721,70; 9813,722;  148,771;55569,528;17,43922
 722,27; 9790,651;  191,387;55622,808;17,31737
 722,84; 9934,272;  206,002;55856,551;17,48099
 723,41; 9875,201;  165,617;55827,062;17,44400
 723,98; 9882,360;  181,694;56103,650;17,34679
 724,55; 9966,058;  193,694;56178,931;17,45525
 725,12; 9916,218;  136,156;56101,673;17,47516
 725,69; 9966,378;  165,925;56320,877;17,45252
 726,27; 9992,614;  166,771;56348,850;17,48928
 726,84; 9989,697;  173,309;56705,515;17,36424
 727,41;10025,010;  177,386;56697,027;17,42337
 727,98;10064,631;  185,540;56803,538;17,44868
 728,55;10103,022;  200,079;56900,203;17,46547
 729,12;10100,181;  149,155;56890,946;17,53738
 729,69;10167,264;  190,155;57159,149;17,51323
 730,26;10123,885;  195,925;57297,968;17,38635
 730,82;10130,814;  178,001;57198,249;17,45487
 731,39;10222,589;  169,309;57235,453;17,61689
 731,96;10251,826;  147,078;57559,810;17,60019
 732,53;10353,678;  176,924;57736,860;17,68027
 733,10;10354,837;  179,155;57807,910;17,65730
 733,67;10387,305;  179,847;58134,191;17,61293
 734,24;10341,080;  163,232;57692,779;17,69151
 734,81;10387,316;  187,770;57885,906;17,67743
 735,38;10363,937;  174,232;57605,648;17,74239
 735,95;10390,405;  171,770;57500,621;17,82459
 736,52;10473,333;  188,309;57487,286;17,94975
 737,09;10336,108;  180,462;57151,413;17,82601
 737,66;10460,960;  209,462;57385,309;17,92977
 738,23;10395,581;  170,539;57478,513;17,84227
 738,80;10563,280;  195,385;57603,794;18,05989
 739,37;10555,824;  195,001;57975,074;17,93148
 739,94;10587,522;  179,154;57954,894;18,01512
 740,51;10672,528;  233,077;58117,866;18,03488
 741,07;10621,456;  172,154;58007,378;18,06737
 741,64;10706,308;  194,539;58245,351;18,10788
 742,21;10705,699;  176,770;58247,016;18,13137
 742,78;10679,397;  152,154;57962,681;18,20991
 743,35;10743,557;  172,385;58345,424;18,17194
 743,92;10862,485;  188,846;58511,166;18,30112
 744,49;10803,183;  176,231;58240,831;18,30195
 745,06;10736,805;  166,308;58361,727;18,16380
 745,63;10783,657;  155,077;58231,854;18,30091
 746,19;10774,201;  163,231;58226,058;18,27498
 746,76;10782,207;  182,615;58308,338;18,23563
 747,33;10807,520;  167,231;58268,234;18,31343
 747,90;10850,372;  199,923;58472,746;18,27687
 748,47;10875,455;  184,538;58392,950;18,36662
 749,04;10858,230;  186,077;58353,846;18,34719
 749,61;10881,235;  203,154;58270,665;18,38908
 750,17;10911,549;  196,000;58454,330;18,39316
 750,74;10886,247;  187,461;58245,303;18,42780
 751,31;10864,637;  167,077;58148,737;18,44990
 751,88;10874,566;  154,307;58051,480;18,51603
 752,45;10992,803;  177,692;58298,376;18,60802
 753,02;10956,347;  178,923;58136,503;18,59537
 753,58;10965,276;  163,153;57966,860;18,68759
 754,15;11006,359;  164,922;58106,525;18,71097
 754,72;10943,441;  162,769;57831,037;18,69429
 755,29;10977,985;  154,307;57717,779;18,80303
 755,86;11019,222;  184,768;57872,983;18,78105
 756,42;11015,920;  190,845;57729,802;18,81347
 756,99;11038,695;  161,461;57722,390;18,89691
 757,56;11028,239;  161,922;57657,748;18,89932
 758,13;11020,091;  153,922;57618,875;18,90921
 758,70;11090,020;  166,691;57587,694;19,02323
 759,26;11137,103;  162,922;57710,897;19,06962
 759,83;11155,493;  177,537;57855,563;19,03317
 760,40;11218,653;  169,922;57579,074;19,24559
 760,97;11158,428;  164,999;57723,739;19,09950
 761,53;11126,434;  155,922;57343,789;19,18329
 762,10;11167,439;  151,076;57292,532;19,27911
 762,67;11207,061;  185,152;57251,505;19,31420
 763,24;11101,066;  139,999;56834,324;19,33362
 763,80;11191,303;  175,768;56922,450;19,41177
 764,37;11222,847;  173,691;56863,654;19,49050
 764,94;11056,776;  151,460;56497,550;19,35417
 765,50;11063,243;  150,306;56357,600;19,41552
 766,07;11130,480;  183,306;56502,265;19,43781
 766,64;11093,101;  152,306;56097,161;19,55639
 767,21;11028,107;  159,229;55951,519;19,48097
 767,77;11040,882;  174,690;55901,877;19,49891
 768,34;11055,426;  178,460;55864,157;19,53278
 768,91;11082,509;  175,306;55639,361;19,66535
 769,47;11108,514;  170,690;55669,488;19,70822
 770,04;11097,366;  172,690;55514,076;19,74052
 770,61;11037,064;  158,306;55308,203;19,72580
 771,18;11044,916;  157,229;55100,407;19,81627
 771,74;11135,153;  166,229;55379,457;19,86648
 772,31;11131,620;  170,075;55027,583;19,98185
 772,88;11098,934;  153,228;54794,864;20,03180
 773,44;11056,786;  156,998;54736,452;19,97050
 774,01;11173,253;  174,382;54817,810;20,12844
 774,58;11082,874;  152,690;54404,091;20,14728
 775,14;11155,418;  148,459;54570,064;20,22535
 775,71;11155,655;  157,613;54452,190;20,25624
 776,27;11236,968;  192,074;54324,163;20,40360
 776,84;11266,820;  205,459;54352,059;20,42854
 777,41;11280,826;  164,690;54165,263;20,58522
 777,97;11136,678;  159,766;53852,236;20,44404
 778,54;11226,607;  173,766;53878,286;20,58084
 779,11;11259,843;  188,843;53938,182;20,59746
 779,67;11316,772;  154,612;53826,770;20,79693
 780,24;11296,086;  170,766;53552,128;20,84121
 780,80;11380,245;  190,766;53612,563;20,94553
 781,37;11407,790;  180,228;53636,305;21,00334
 781,94;11365,411;  177,381;53266,047;21,07423
 782,50;11451,186;  181,304;53166,943;21,26969
 783,07;11476,191;  199,612;53355,377;21,21422
 783,63;11409,351;  166,997;52979,735;21,28720
 784,20;11440,049;  196,920;52943,862;21,31523
 784,77;11457,670;  181,766;52760,296;21,44583
 785,33;11397,676;  160,458;52636,731;21,41390
 785,90;11465,067;  185,073;52458,935;21,57865
 786,46;11447,611;  202,612;52370,446;21,55543
 787,03;11476,770;  169,150;52270,804;21,70300
 787,59;11478,007;  165,919;52061,469;21,79780
 788,16;11442,167;  199,073;51929,442;21,73403
 788,73;11436,095;  189,842;52016,799;21,69962
 789,29;11358,409;  177,919;51517,157;21,77767
 789,86;11408,722;  185,073;51382,207;21,92242
 790,42;11411,343;  196,611;51263,641;21,96081
 790,99;11338,888;  204,919;50884,384;21,96939
 791,55;11373,432;  171,381;50893,510;22,08514
 792,12;11418,284;  188,688;50885,099;22,15067
 792,68;11359,443;  181,611;50502,841;22,21296
 793,25;11414,449;  198,534;50282,891;22,39405
 793,81;11418,994;  223,150;50029,248;22,47886
 794,38;11274,615;  155,073;49790,991;22,40221
 794,94;11338,159;  167,765;49634,194;22,58177
 795,51;11290,934;  199,996;49369,167;22,55669
 796,07;11261,478;  187,149;49146,679;22,61935
 796,64;11379,099;  197,611;49200,806;22,81788
 797,20;11276,874;  196,149;48710,317;22,84018
 797,77;11259,034;  177,457;48424,059;22,96862
 798,33;11289,040;  181,534;48243,648;23,11073
 798,90;11288,045;  215,149;48115,313;23,11661
 799,46;11235,897;  193,918;47604,747;23,28999
 800,03;11248,442;  191,303;47530,259;23,35738
 800,59;11267,217;  211,226;47354,386;23,45195
 801,15;11216,069;  197,457;47155,820;23,46464
 801,72;11199,228;  201,995;46745,793;23,62771
 802,28;11180,388;  226,610;46471,458;23,68648
 802,85;11162,240;  185,380;46208,431;23,85079
 803,41;11146,322;  200,380;46081,404;23,85723
 803,98;11072,636;  191,995;45668,993;23,92559
 804,54;11063,719;  191,918;45317,273;24,09244
 805,11;11047,263;  203,456;45132,862;24,13521
 805,67;11055,653;  209,149;45126,065;24,14793
 806,23;10982,813;  202,456;44598,500;24,28225
 806,80;10988,742;  216,995;44522,627;24,31237
 807,36;10934,901;  226,764;44448,061;24,21489
 807,93;10943,215;  210,994;44300,188;24,34207
 808,49;10918,836;  193,456;43891,161;24,54449
 809,05;10871,457;  180,917;43676,519;24,57844
 809,62;10914,694;  205,840;43616,722;24,66859
 810,18;10961,930;  211,840;43495,388;24,83643
 810,74;10921,782;  180,994;43319,130;24,89859
 811,31;10870,788;  190,686;43000,333;24,94788
 811,87;10866,409;  189,071;42825,999;25,04247
 812,44;10957,338;  217,763;42907,895;25,15704
 813,00;10890,421;  160,840;42582,329;25,29280
 813,56;10934,580;  209,532;42636,764;25,27869
 814,13;10937,586;  189,609;42528,737;25,38545
 814,69;10929,438;  207,378;42280,094;25,48459
 815,25;10844,828;  182,994;41868,221;25,57701
 815,82;10911,373;  213,301;41759,194;25,75001
 816,38;10913,224;  226,917;41568,475;25,84883
 816,94;10832,692;  191,148;41306,679;25,88205
 817,51;10770,851;  195,378;41018,805;25,90540
 818,07;10779,934;  191,763;40841,778;26,04715
 818,63;10763,017;  214,070;40634,367;26,09814
 819,20;10729,023;  211,993;40504,109;26,10195
 819,76;10698,413;  182,840;40159,390;26,30435
 820,32;10781,803;  230,070;39991,362;26,53770
 820,89;10675,271;  228,916;39864,489;26,35601
 821,45;10638,584;  188,455;39470,539;26,60279
 822,01;10671,590;  219,762;39298,435;26,74561
 822,57;10617,288;  209,147;39110,562;26,75517
 823,14;10588,448;  177,301;38865,381;26,91048
 823,70;10561,376;  185,608;38578,200;27,02544
 824,26;10539,690;  183,839;38519,942;27,01331
 824,82;10514,542;  216,608;38241,146;27,08234
 825,39;10489,163;  188,608;37952,965;27,27586
 825,95;10505,938;  226,608;38006,015;27,20882
 826,51;10444,867;  205,531;37656,065;27,34096
 827,08;10529,103;  234,993;37662,192;27,50436
 827,64;10419,340;  210,070;37422,934;27,43479
 828,20;10418,653;  194,146;37206,061;27,62491
 828,76;10463,813;  211,531;37131,957;27,76859
 829,32;10445,819;  215,993;37032,007;27,78635
 829,89;10407,055;  187,608;36886,826;27,84650
 830,45;10461,907;  198,839;36792,030;28,04639
 831,01;10414,375;  192,146;36541,926;28,12184
 831,57;10436,303;  203,838;36494,745;28,19567
 832,14;10460,694;  197,531;36434,872;28,32206
 832,70;10422,623;  193,377;36176,383;28,42799
 833,26;10405,090;  182,608;36109,125;28,45386
 833,82;10422,019;  203,608;36114,637;28,45480
 834,38;10473,717;  193,992;36034,379;28,68196
 834,95;10450,646;  188,684;35960,429;28,68734
 835,51;10418,728;  163,300;35743,171;28,82368
 836,07;10533,196;  205,377;35826,990;28,99313
 836,63;10510,509;  219,607;35769,502;28,94777
 837,19;10488,438;  200,223;35734,936;28,95258
 837,75;10459,444;  178,530;35326,217;29,25061
 838,32;10517,527;  221,838;35391,036;29,27473
 838,88;10588,763;  213,992;35429,547;29,46076
 839,44;10552,000;  195,607;35383,828;29,43142
 840,00;10544,621;  193,145;35300,416;29,48528
 840,56;10490,165;  177,376;34929,159;29,67557
 841,12;10548,248;  184,376;34969,208;29,79423
 841,68;10499,330;  176,991;34795,104;29,81774
 842,25;10608,105;  183,607;34791,231;30,12197
 842,81;10522,342;  184,222;34528,358;30,10156
 843,37;10569,809;  179,530;34535,100;30,24336
 843,93;10534,738;  189,299;34427,381;30,21618
 844,49;10586,667;  196,683;34570,739;30,22624
 845,05;10560,827;  174,299;34285,865;30,44870
 845,61;10700,371;  197,837;34300,377;30,79693
 846,17;10611,761;  203,453;34175,888;30,63751
 846,73;10711,459;  201,376;34118,400;30,98764
 847,29;10659,696;  167,914;33944,911;31,06191
 847,86;10648,317;  183,683;33806,576;31,12354
 848,42;10630,092;  174,298;33646,780;31,23698
 848,98;10711,482;  192,606;33604,445;31,48248
 849,54;10731,411;  178,606;33553,418;31,61907
 850,10;10711,109;  185,760;33496,237;31,59771
 850,66;10683,038;  174,991;33290,518;31,73148
 851,22;10717,198;  178,375;33204,645;31,91042
 851,78;10782,896;  224,298;33336,233;31,88759
 852,34;10742,748;  190,375;33132,283;32,03328
 852,90;10780,677;  181,683;32996,487;32,29943
 853,46;10743,759;  175,837;32732,844;32,45975
 854,02;10770,458;  189,836;32811,048;32,43479
 854,58;10714,233;  189,144;32430,252;32,64493
 855,14;10696,008;  173,990;32404,071;32,64657
 855,70;10714,475;  158,682;32230,736;32,91274
 856,26;10726,711;  211,067;32123,171;32,95190
 856,82;10722,179;  174,913;31991,836;33,14986
 857,38;10745,108;  205,067;31852,194;33,30489
 857,94;10723,652;  190,375;31728,244;33,39882
 858,50;10682,119;  196,605;31605,909;33,38346
 859,06;10702,356;  188,759;31444,190;33,63766
 859,62;10697,284;  201,913;31434,162;33,60428
 860,18;10668,598;  186,221;31209,059;33,78923
 860,74;10685,219;  159,374;31106,108;34,01278
 861,30;10661,533;  167,913;30862,466;34,18724
 861,86;10706,615;  200,143;30874,516;34,25163
 862,42;10661,083;  191,605;30763,720;34,24519
 862,98;10738,011;  215,759;30695,693;34,52190
 863,54;10730,325;  193,605;30469,589;34,80224
 864,10;10699,792;  202,066;30485,715;34,66467
 864,66;10640,875;  180,143;30348,996;34,67395
 865,22;10667,958;  193,143;30149,200;34,96727
 865,78;10614,040;  200,758;30062,557;34,87158
 866,34;10640,969;  180,989;29998,992;35,07941
 866,90;10619,206;  198,528;29844,119;35,15085
 867,45;10561,058;  202,143;29692,169;35,12684
 868,01;10536,448;  189,451;29580,757;35,20428
 868,57;10542,992;  201,604;29330,576;35,50207
 869,13;10577,383;  185,374;29273,088;35,72646
 869,69;10490,081;  186,066;29054,753;35,69270
 870,25;10456,471;  177,758;29026,033;35,63025
 870,81;10554,631;  195,220;28923,930;36,05944
 871,37;10491,713;  188,604;28855,364;35,94096
 871,93;10520,335;  197,066;28634,645;36,30150
 872,49;10491,571;  199,296;28421,848;36,46826
 873,04;10482,962;  186,296;28266,898;36,66825
 873,60;10466,275;  175,835;28135,871;36,80410
 874,16;10455,665;  196,065;28037,767;36,84976
 874,72;10463,358;  186,065;27980,383;36,97624
 875,28;10441,512;  199,219;27898,306;36,97700
 875,84;10457,665;  192,988;27795,690;37,18722
 876,40;10499,896;  194,296;27772,921;37,36807
 876,95;10558,973;  200,681;27822,229;37,50077
 877,51;10562,358;  217,065;27694,537;37,65009
 878,07;10582,665;  224,527;27733,767;37,65331
 878,63;10570,204;  188,681;27701,537;37,73335
 879,19;10699,204;  207,065;27796,152;38,03003
 879,75;10706,512;  197,988;27824,075;38,03841
 880,30;10716,819;  193,527;27801,613;38,11670
 880,86;10780,973;  224,296;27964,767;38,05515
 881,42;10827,358;  184,450;27976,460;38,29485
 881,98;10894,512;  204,604;28067,844;38,36563
 882,54;10952,973;  194,758;28094,075;38,56086
 883,09;11046,435;  202,912;28297,767;38,59612
 883,65;11053,435;  186,373;28301,690;38,65175
 884,21;11228,896;  226,219;28517,075;38,89128
 884,77;11258,127;  183,604;28544,998;39,04788
 885,32;11327,665;  193,527;28728,152;39,01975
 885,88;11477,742;  231,527;28857,075;39,28734
 886,44;11529,588;  216,142;29003,306;39,30032
 887,00;11599,512;  214,219;28954,998;39,61372
 887,56;11670,896;  196,142;29076,998;39,73135
 888,11;11697,127;  203,373;29161,690;39,69068
 888,67;11809,819;  228,373;29329,075;39,79782
 889,23;11853,050;  210,835;29251,229;40,08973
 889,79;11802,281;  177,296;29067,229;40,23888
 890,34;11801,588;  191,758;29042,460;40,24107
 890,90;12019,127;  240,912;29223,383;40,63910
 891,46;11907,819;  190,450;29129,537;40,48977
 892,01;11981,127;  209,912;29186,537;40,62314
 892,57;11926,973;  225,296;28998,613;40,66850
 893,13;11890,435;  187,373;28803,767;40,89635
 893,69;11940,742;  198,142;28879,998;40,94087
 894,24;11833,896;  212,450;28583,844;40,96184
 894,80;11874,050;  222,450;28485,537;41,22550
 895,36;11877,435;  201,988;28314,306;41,53143
 895,91;11745,435;  204,373;28161,460;41,28135
 896,47;11809,358;  217,758;27993,690;41,73253
 897,03;11736,819;  205,604;27816,075;41,76392
 897,58;11694,742;  218,681;27736,383;41,70429
 898,14;11614,742;  219,142;27556,998;41,68432
 898,70;11554,742;  180,373;27407,921;41,77522
 899,25;11640,819;  199,296;27361,537;42,12290
 899,81;11641,819;  221,065;27093,998;42,49910
 900,37;11509,742;  185,065;27018,152;42,20415
 900,92;11593,742;  205,835;27040,460;42,43736
 901,48;11496,819;  206,219;26798,306;42,45850
 902,03;11468,435;  197,758;26693,306;42,53800
 902,59;11463,973;  199,219;26603,460;42,66267
 903,15;11451,819;  219,296;26526,690;42,69721
 903,70;11335,742;  209,758;26234,690;42,75125
 904,26;11333,127;  193,835;26082,460;43,02775
 904,82;11383,896;  205,142;26039,921;43,27017
 905,37;11276,973;  208,296;25973,998;42,95896
 905,93;11269,358;  197,912;25707,844;43,40053
 906,48;11367,588;  212,835;25742,998;43,69245
 907,04;11318,435;  216,604;25678,613;43,60155
 907,60;11231,665;  191,373;25428,844;43,74564
 908,15;11222,204;  184,835;25272,306;43,99554
 908,71;11243,050;  231,604;25234,690;44,04035
 909,26;11136,512;  192,065;25031,844;44,06016
 909,82;11142,588;  224,604;24928,075;44,19616
 910,37;11196,973;  237,988;24893,998;44,44752
 910,93;11125,358;  189,681;24636,075;44,73329
 911,48;11051,973;  195,373;24517,844;44,63609
 912,04;11001,127;  197,142;24376,460;44,68275
 912,60;11064,588;  214,373;24419,075;44,82689
 913,15;10995,281;  198,373;24258,383;44,87491
 913,71;10910,896;  199,450;23993,460;45,01741
 914,26;10963,358;  182,681;23998,306;45,26724
 914,82;10961,665;  205,065;23865,537;45,46232
 915,37;10886,588;  199,065;23749,690;45,38106
 915,93;10896,127;  223,065;23686,690;45,48769
 916,48;10841,665;  194,450;23544,921;45,59743
 917,04;10862,435;  213,373;23499,767;45,73083
 917,59;10857,127;  229,450;23373,229;45,92023
 918,15;10698,127;  174,835;23148,844;45,80521
 918,70;10706,204;  194,604;23104,690;45,88197
 919,26;10678,742;  202,912;22966,690;46,01974
 919,81;10579,435;  188,988;22808,460;45,93585
 920,37;10576,512;  197,373;22743,998;46,03411
 920,92;10609,127;  208,681;22622,460;46,40202
 921,48;10508,435;  183,604;22437,075;46,39650
 922,03;10532,435;  192,219;22414,767;46,53029
 922,59;10471,665;  193,912;22213,383;46,67575
 923,14;10450,435;  188,065;22091,075;46,85369
 923,69;10500,512;  212,758;22098,613;47,00640
 924,25;10420,665;  210,065;22011,767;46,83396
 924,80;10366,512;  206,219;21805,690;47,03954
 925,36;10353,665;  201,912;21681,998;47,26123
 925,91;10302,127;  198,450;21559,383;47,29979
 926,47;10251,896;  184,296;21506,537;47,21643
 927,02;10256,588;  220,373;21434,613;47,30886
 927,57;10234,204;  198,835;21321,690;47,50953
 928,13;10204,204;  192,373;21151,229;47,76898
 928,68;10220,665;  196,912;21097,767;47,95858
 929,24;10157,896;  178,142;20889,229;48,18556
 929,79;10146,435;  193,296;20788,152;48,32827
 930,34;10101,742;  210,527;20717,690;48,23298
 930,90;10104,896;  193,681;20614,229;48,53550
 931,45;10095,050;  205,604;20613,383;48,45920
 932,01;10108,281;  219,527;20495,229;48,77145
 932,56;10025,281;  221,681;20289,844;48,85151
 933,11;10041,973;  220,373;20363,998;48,75786
 933,67; 9955,204;  194,450;20132,844;48,95456
 934,22; 9975,358;  202,988;20048,383;49,24250
 934,77; 9959,819;  229,373;19866,844;49,55040
 935,33; 9868,512;  219,527;19809,613;49,25443
 935,88; 9872,588;  219,296;19730,844;49,47476
 936,43; 9791,358;  201,219;19653,537;49,30075
 936,99; 9758,588;  206,296;19452,844;49,63120
 937,54; 9686,742;  198,835;19326,383;49,60337
 938,09; 9691,512;  212,681;19282,921;49,70483
 938,65; 9681,896;  208,835;19163,229;49,97818
 939,20; 9656,204;  183,681;19059,613;50,18307
 939,75; 9597,973;  187,142;18936,383;50,19313
 940,31; 9577,742;  182,065;18821,229;50,40825
 940,86; 9593,973;  214,988;18885,537;50,23412
 941,41; 9528,358;  238,065;18738,690;50,21610
 941,96; 9524,742;  195,527;18626,998;50,61569
 942,52; 9477,281;  203,604;18543,998;50,56422
 943,07; 9411,050;  187,219;18418,921;50,59226
 943,62; 9361,588;  193,065;18278,075;50,69681
 944,18; 9360,588;  183,758;18282,690;50,70371
 944,73; 9381,512;  196,142;18154,306;51,14871
 945,28; 9242,050;  172,296;17965,460;50,97325
 945,83; 9327,281;  203,681;17993,383;51,28585
 946,39; 9280,435;  188,835;17922,921;51,26624
 946,94; 9342,204;  218,065;17828,613;51,81064
 947,49; 9275,512;  195,835;17714,998;51,82711
 948,04; 9306,358;  211,373;17702,229;51,99851
 948,59; 9277,281;  214,142;17577,998;52,19543
 949,15; 9288,435;  182,142;17494,537;52,59984
 949,70; 9219,742;  196,450;17355,613;52,58585
 950,25; 9194,973;  218,835;17256,998;52,68255
 950,80; 9223,050;  176,373;17171,383;53,23137
 951,36; 9132,588;  168,219;17084,229;52,99340
 951,91; 9165,742;  213,373;17105,383;52,99766
 952,46; 9038,819;  168,296;16940,383;52,88861
 953,01; 9085,973;  213,450;16969,537;52,95105
 953,56; 9004,896;  186,296;16782,229;53,13712
 954,11; 9045,204;  206,219;16699,075;53,59281
 954,67; 9023,665;  199,681;16670,383;53,57382
 955,22; 8912,281;  179,296;16465,537;53,62186
 955,77; 8941,050;  217,219;16507,460;53,55250
 956,32; 8942,281;  228,912;16374,152;53,96866
 956,87; 8886,358;  193,219;16234,537;54,19217
 957,42; 8874,050;  196,604;16147,921;54,39956
 957,98; 8827,050;  190,219;16069,690;54,38991
 958,53; 8832,819;  215,296;15981,306;54,65887
 959,08; 8828,512;  189,450;15866,767;55,10548
 959,63; 8784,588;  192,912;15839,690;54,91020
 960,18; 8748,588;  211,604;15817,998;54,70184
 960,73; 8737,127;  206,219;15708,998;55,02825
 961,28; 8712,358;  173,527;15596,383;55,36478
 961,83; 8726,819;  212,450;15509,767;55,65923
 962,39; 8659,896;  185,142;15445,383;55,53486
 962,94; 8623,896;  203,450;15362,460;55,54747
 963,49; 8543,819;  201,604;15218,998;55,55035
 964,04; 8582,512;  216,373;15167,998;55,95471
 964,59; 8494,896;  170,988;15042,306;55,97290
 965,14; 8493,281;  203,219;14919,690;56,33186
 965,69; 8466,742;  204,604;14921,383;56,14094
 966,24; 8377,358;  200,681;14837,690;55,86303
 966,79; 8375,742;  203,142;14689,690;56,41510
 967,34; 8310,204;  177,296;14545,690;56,60276
 967,89; 8305,127;  200,219;14586,460;56,33791
 968,44; 8253,588;  197,219;14457,844;56,49380
 968,99; 8270,435;  196,835;14406,152;56,81906
 969,55; 8203,665;  205,219;14294,229;56,77082
 970,10; 8240,358;  199,296;14181,921;57,50752
 970,65; 8099,281;  209,604;14121,613;56,71127
 971,20; 8043,896;  188,527;13963,075;57,02814
 971,75; 8015,588;  183,604;13836,690;57,36421
 972,30; 7975,973;  200,604;13804,306;57,15627
 972,85; 7945,281;  183,219;13695,998;57,44238
 973,40; 7880,588;  187,065;13563,998;57,51336
 973,95; 7882,742;  199,450;13507,537;57,73401
 974,50; 7847,742;  208,912;13482,460;57,54928
 975,05; 7775,435;  213,912;13362,460;57,50843
 975,60; 7762,127;  220,219;13291,921;57,69645
 976,15; 7711,896;  192,758;13173,460;57,92552
 976,70; 7674,742;  209,681;13126,537;57,79318
 977,25; 7645,358;  209,758;13021,229;58,03861
 977,80; 7577,358;  200,065;12905,152;58,06566
 978,35; 7500,204;  216,296;12706,383;58,31751
 978,89; 7508,665;  184,681;12649,152;58,75889
 979,44; 7468,588;  197,912;12630,229;58,48207
 979,99; 7394,435;  182,142;12482,075;58,63684
 980,54; 7396,973;  231,604;12378,998;58,98688
 981,09; 7350,742;  211,527;12387,921;58,63161
 981,64; 7283,973;  206,065;12196,767;59,02830
 982,19; 7250,512;  236,527;12149,537;58,87668
 982,74; 7233,665;  223,527;12002,613;59,51343
 983,29; 7184,281;  186,988;11853,537;59,97740
 983,84; 7145,742;  221,219;11753,460;60,04491
 984,39; 7136,588;  228,373;11671,075;60,37224
 984,94; 7024,358;  183,142;11576,844;60,04383
 985,49; 7048,896;  225,604;11529,844;60,36047
 986,03; 6948,665;  225,604;11450,229;59,89564
 986,58; 6940,665;  239,988;11250,229;60,85859
 987,13; 6855,358;  214,065;11175,306;60,58888
 987,68; 6840,819;  211,988;11077,998;61,00520
 988,23; 6825,281;  219,835;10988,613;61,33886
 988,78; 6743,050;  203,296;10897,075;61,15475
 989,33; 6722,819;  207,219;10798,613;61,51787
 989,88; 6684,281;  232,681;10727,921;61,47167
 990,42; 6581,819;  205,835;10547,921;61,65085
 990,97; 6557,204;  206,604;10462,921;61,91891
 991,52; 6518,050;  232,604;10373,613;61,98048
 992,07; 6423,973;  224,450;10284,998;61,62212
 992,62; 6429,435;  226,450;10176,229;62,34294
 993,17; 6359,281;  219,450;10067,152;62,34785
 993,71; 6277,588;  214,219; 9945,690;62,30681
 994,26; 6187,435;  205,373; 9821,229;62,21039
 994,81; 6185,281;  225,988; 9769,537;62,44315
 995,36; 6070,512;  202,758; 9625,921;62,26947
 995,91; 6083,742;  213,142; 9565,998;62,76799
 996,45; 6036,358;  221,604; 9503,152;62,64853
 997,00; 5958,281;  195,988; 9308,306;63,23630
 997,55; 5958,281;  209,450; 9277,075;63,39952
 998,10; 5883,973;  237,835; 9150,152;63,35208
 998,65; 5812,665;  207,912; 9094,998;63,06627
 999,19; 5785,435;  218,912; 8972,613;63,59050
 999,74; 5711,127;  245,912; 8893,844;63,19678
1000,29; 5692,512;  226,450; 8783,998;63,87416
1000,84; 5615,588;  212,296; 8668,152;63,90001
1001,38; 5580,973;  206,758; 8534,998;64,53002
1001,93; 5571,819;  231,912; 8482,152;64,72427
1002,48; 5449,588;  199,450; 8377,690;64,19643
1003,03; 5442,742;  223,373; 8314,537;64,50703
1003,57; 5391,512;  232,065; 8237,306;64,45086
1004,12; 5377,588;  239,527; 8084,075;65,49850
1004,67; 5294,127;  211,835; 8030,613;65,00110
1005,22; 5230,050;  206,681; 7867,152;65,57520
1005,76; 5145,204;  204,065; 7782,613;65,19901
1006,31; 5130,050;  223,527; 7702,460;65,60459
1006,86; 5034,204;  206,527; 7560,460;65,64755
1007,40; 4989,435;  192,835; 7457,998;66,02191
1007,95; 4950,512;  210,527; 7384,075;66,07587
1008,50; 4890,665;  213,142; 7259,690;66,38035
1009,04; 4812,281;  217,219; 7187,383;65,92473
1009,59; 4765,819;  220,450; 7033,460;66,71603
1010,14; 4720,281;  211,450; 6958,613;66,82557
1010,68; 4615,819;  210,219; 6848,767;66,36391
1011,23; 4552,127;  186,065; 6678,844;67,24488
1011,78; 4559,819;  230,835; 6639,306;67,55097
1012,32; 4519,588;  207,450; 6522,613;68,28229
1012,87; 4486,973;  243,681; 6540,537;67,38748
1013,42; 4390,358;  205,912; 6421,537;67,32141
1013,96; 4427,819;  235,604; 6421,460;67,77098
1014,51; 4344,973;  184,988; 6325,460;67,74699
1015,06; 4317,973;  174,604; 6329,613;67,31702
1015,60; 4379,435;  241,065; 6356,767;67,66794
1016,15; 4373,588;  211,604; 6353,229;67,76683
1016,69; 4400,358;  212,912; 6377,998;67,92194
1017,24; 4418,896;  183,373; 6358,690;68,58794
1017,79; 4501,665;  231,450; 6466,921;68,48264
1018,33; 4470,127;  194,758; 6378,383;69,14018
1018,88; 4524,973;  222,912; 6469,075;68,87526
1019,42; 4546,127;  213,527; 6478,383;69,15722
1019,97; 4569,281;  203,142; 6472,767;69,63955
1020,51; 4582,973;  206,604; 6476,075;69,80444
1021,06; 4570,127;  206,835; 6485,767;69,49099
1021,61; 4574,435;  180,835; 6463,306;69,93426
1022,15; 4527,665;  170,450; 6391,767;70,03686
1022,70; 4604,050;  205,450; 6440,229;70,54941
1023,24; 4512,512;  202,988; 6332,690;70,30559
1023,79; 4530,204;  209,681; 6297,383;70,97133
1024,33; 4491,050;  198,142; 6239,460;71,05913
1024,88; 4460,127;  204,988; 6135,767;71,74671
1025,42; 4387,512;  204,296; 6033,844;71,75883
1025,97; 4326,896;  210,296; 5962,613;71,56420
1026,51; 4222,204;  171,296; 5839,613;71,46579
1027,06; 4208,742;  200,219; 5779,690;71,84414
1027,60; 4169,665;  211,912; 5684,613;72,31810
1028,15; 4113,127;  214,142; 5623,998;72,07188
1028,69; 4009,204;  174,912; 5497,998;72,03137
1029,24; 4033,512;  201,988; 5459,383;72,87875
1029,78; 3935,819;  197,065; 5329,613;72,84401
1030,33; 3863,512;  183,988; 5216,767;73,11116
1030,87; 3826,281;  193,988; 5188,767;72,72178
1031,42; 3762,050;  185,604; 5083,229;73,02409
1031,96; 3758,896;  209,142; 5011,229;73,92107
1032,51; 3669,281;  186,604; 4911,383;73,71090
1033,05; 3683,588;  202,681; 4911,152;73,92862
1033,60; 3576,742;  177,065; 4727,383;74,71296
1034,14; 3562,588;  201,219; 4712,537;74,50971
1034,69; 3524,281;  197,681; 4653,152;74,66326
1035,23; 3453,358;  194,296; 4593,306;74,08626
1035,77; 3456,435;  193,373; 4508,306;75,62254
1036,32; 3361,358;  180,065; 4440,383;74,67266
1036,86; 3354,588;  193,373; 4380,229;75,50333
1037,41; 3301,819;  205,527; 4313,613;75,37067
1037,95; 3270,665;  175,835; 4243,998;76,07440
1038,50; 3216,588;  193,681; 4209,613;75,27287
1039,04; 3228,665;  202,835; 4177,152;76,13460
1039,58; 3136,358;  183,604; 4077,460;75,83110
1040,13; 3103,435;  190,835; 4016,460;76,13397
1040,67; 3127,742;  219,912; 4009,306;76,73603
1041,21; 3083,896;  215,604; 3914,537;77,54378
1041,76; 3003,050;  177,373; 3831,844;77,32109
1042,30; 2984,050;  199,835; 3784,229;77,67604
1042,85; 2912,358;  198,450; 3713,613;77,20573
1043,39; 2901,358;  184,527; 3681,075;77,70037
1043,93; 2866,819;  213,296; 3622,537;77,83326
1044,48; 2847,204;  210,450; 3578,998;78,27568
1045,02; 2790,358;  192,296; 3519,075;78,09541
1045,56; 2776,819;  214,373; 3495,767;78,09016
1046,11; 2733,358;  203,835; 3438,767;78,19399
1046,65; 2675,358;  203,450; 3395,613;77,43675
1047,19; 2633,281;  197,373; 3338,152;77,55744
1047,74; 2615,742;  179,219; 3270,767;78,81239
1048,28; 2588,358;  199,450; 3236,844;78,64991
1048,82; 2580,204;  216,604; 3207,460;79,02755
1049,37; 2534,358;  199,373; 3158,921;78,89666
1049,91; 2513,050;  188,065; 3091,998;80,06331
1050,45; 2493,127;  215,988; 3099,152;78,98055
1050,99; 2444,281;  205,450; 3019,306;79,56452
1051,54; 2420,204;  190,835; 2965,998;80,33290
1052,08; 2403,819;  216,835; 2957,383;79,80099
1052,62; 2373,896;  222,758; 2899,921;80,35141
1053,16; 2324,819;  196,296; 2822,844;81,03880
1053,71; 2315,665;  213,912; 2812,075;80,89383
1054,25; 2273,896;  212,681; 2788,383;80,02539
1054,79; 2250,973;  209,142; 2740,229;80,67013
1055,33; 2215,742;  190,527; 2662,075;81,94117
1055,88; 2198,973;  213,142; 2666,075;80,95741
1056,42; 2181,973;  232,296; 2621,613;81,59975
1056,96; 2171,973;  214,988; 2586,844;82,50858
1057,50; 2110,050;  207,527; 2526,075;82,05666
1058,05; 2091,896;  212,296; 2490,152;82,51620
1058,59; 2091,050;  228,219; 2451,075;83,80349
1059,13; 2009,896;  190,065; 2393,383;82,59504
1059,67; 2017,358;  219,681; 2382,075;83,13363
1060,21; 1987,204;  211,219; 2329,613;83,83636
1060,76; 1976,973;  218,758; 2326,767;83,40642
1061,30; 1948,973;  225,527; 2294,229;83,31051
1061,84; 1895,050;  209,681; 2231,537;83,35754
1062,38; 1841,435;  201,988; 2182,229;82,79026
1062,92; 1893,050;  232,681; 2193,229;84,68903
1063,46; 1834,742;  229,988; 2154,690;83,37675
1064,01; 1819,050;  212,988; 2121,075;84,17132
1064,55; 1809,358;  215,604; 2085,306;85,24107
1065,09; 1741,127;  182,527; 2059,537;83,03634
1065,63; 1796,819;  240,296; 2079,075;84,64983
1066,17; 1751,435;  231,912; 2047,921;83,67374
1066,71; 1736,358;  231,450; 2014,690;84,39175
1067,25; 1673,973;  206,142; 1967,767;83,32254
1067,80; 1692,665;  224,912; 1983,152;83,47857
1068,34; 1695,973;  240,219; 1968,690;84,22205
1068,88; 1630,742;  209,373; 1898,229;84,16167
1069,42; 1656,512;  240,373; 1907,921;84,92340
1069,96; 1586,127;  201,681; 1855,537;83,71021
1070,50; 1618,512;  235,527; 1860,767;85,09416
1071,04; 1557,435;  205,450; 1809,690;84,27569
1071,58; 1556,127;  209,065; 1805,537;84,37744
1072,12; 1532,204;  209,296; 1764,767;85,04868
1072,66; 1528,512;  209,604; 1749,306;85,65994
1073,21; 1532,896;  224,604; 1761,921;85,10229
1073,75; 1487,588;  223,219; 1719,383;84,50743
1074,29; 1489,435;  234,296; 1678,921;86,88334
1074,83; 1477,819;  232,219; 1696,460;85,06800
1075,37; 1448,973;  217,065; 1653,998;85,73176
1075,91; 1460,435;  230,219; 1650,306;86,62961
1076,45; 1427,127;  213,835; 1621,383;86,19900
1076,99; 1415,358;  237,758; 1612,613;85,65262
1077,53; 1392,127;  203,912; 1554,383;87,98525
1078,07; 1382,281;  226,450; 1560,690;86,62838
1078,61; 1373,742;  223,219; 1544,767;87,05874
1079,15; 1347,512;  205,988; 1512,613;87,36425
1079,69; 1342,819;  221,296; 1515,613;86,64978
1080,23; 1340,281;  240,296; 1496,075;87,59382
1080,77; 1342,358;  237,988; 1468,075;89,77980
1081,31; 1292,973;  209,604; 1437,460;88,23261
1081,85; 1308,665;  227,296; 1437,537;89,35161
1082,39; 1274,127;  212,450; 1417,537;88,09964
1082,93; 1286,512;  225,065; 1404,152;90,02275
1083,47; 1244,204;  202,604; 1359,306;90,04913
1084,01; 1255,281;  234,527; 1387,306;88,54724
1084,55; 1220,973;  215,835; 1337,383;89,62063
1085,09; 1220,665;  242,142; 1348,613;88,43638
1085,63; 1205,281;  219,604; 1311,921;90,23723
1086,17; 1192,973;  215,142; 1312,152;89,13603
1086,71; 1178,358;  219,296; 1285,844;89,92202
1087,24; 1198,665;  244,142; 1292,383;91,05956
1087,78; 1189,973;  216,373; 1268,075;92,57376
1088,32; 1125,050;  211,142; 1223,767;90,25135
1088,86; 1143,973;  231,296; 1248,075;89,76160
1089,40; 1125,127;  224,450; 1219,383;90,52642
1089,94; 1088,127;  203,835; 1199,229;88,83840
1090,48; 1096,588;  232,065; 1192,229;90,03916
1091,02; 1099,896;  226,835; 1177,383;91,84823
1091,56; 1088,588;  232,219; 1157,921;92,51026
1092,10; 1037,358;  207,681; 1132,921;89,67150
1092,63; 1054,435;  238,296; 1142,767;90,23377
1093,17; 1051,742;  230,142; 1128,998;91,40510
1093,71; 1031,512;  219,450; 1104,921;91,70954
1094,25; 1050,742;  238,450; 1115,075;92,66132
1094,79; 1013,588;  223,604; 1085,537;91,65270
1095,33; 1012,050;  219,142; 1071,075;93,07164
1095,87; 1003,665;  219,758; 1063,998;92,85361
1096,40;  963,127;  207,988; 1035,306;91,27555
1096,94;  976,512;  212,296; 1032,306;93,19591
1097,48;  970,204;  219,835; 1031,306;92,47023
1098,02;  949,435;  226,065; 1014,537;91,74327
1098,56;  918,819;  192,527;  979,921;92,23998
1099,10;  922,665;  193,604;  972,075;93,65299
1099,63;  885,665;  199,065;  959,998;90,23137
1100,17;  904,588;  218,142;  971,229;91,15103
1100,71;  907,973;  230,527;  977,460;90,69708

