
Integration time [ms]: 120,000
Averaging Nr. [scans]: 13
Smoothing Nr. [pixels]: 0
Data measured with spectrometer [name]: 2009305U1
Wave   ;Sample   ;Dark     ;Reference;Reflectance
[nm]   ;[counts] ;[counts] ;[counts] ;[%]

 175,72;  199,052;  196,668;  197,919;190,55264
 176,32;  224,111;  224,824;  212,280; 0,00000
 176,92;  239,228;  241,130;  242,571;-132,02738
 177,52;  251,239;  242,515;  254,327;73,85728
 178,12;  235,462;  234,286;  223,116; 0,00000
 178,72;  257,202;  259,440;  254,402; 0,00000
 179,32;  253,093;  246,671;  235,386; 0,00000
 179,92;  252,079;  234,900;  248,482;126,48196
 180,52;  247,831;  240,436;  237,089; 0,00000
 181,12;  250,591;  253,977;  245,596; 0,00000
 181,73;  275,500;  269,515;  273,796;139,80884
 182,33;  340,417;  335,668;  334,695; 0,00000
 182,93;  254,860;  254,130;  265,674; 6,32338
 183,53;  241,586;  236,441;  221,261; 0,00000
 184,13;  230,840;  237,671;  221,796; 0,00000
 184,73;  269,403;  262,518;  271,534;76,37307
 185,33;  259,766;  229,840;  336,352;28,09613
 185,93;  266,464;  230,227;  351,774;29,81362
 186,53;  288,817;  244,918;  379,899;32,52260
 187,13;  312,329;  274,916;  403,937;28,99701
 187,73;  274,291;  235,688;  356,935;31,83833
 188,33;  274,943;  241,766;  349,541;30,78393
 188,93;  278,589;  249,615;  369,880;24,09135
 189,53;  282,791;  249,772;  385,703;24,29136
 190,13;  317,383;  275,006;  414,463;30,38648
 190,73;  262,871;  214,465;  357,542;33,83184
 191,34;  293,538;  255,616;  380,255;30,42544
 191,94;  271,588;  233,998;  358,715;30,14068
 192,54;  296,109;  238,761;  386,808;38,73668
 193,14;  300,953;  254,609;  383,084;36,07246
 193,74;  291,101;  248,378;  396,443;28,85415
 194,34;  283,847;  252,224;  387,868;23,31384
 194,94;  257,727;  212,609;  342,507;34,73379
 195,54;  228,099;  192,610;  327,986;26,21531
 196,14;  258,937;  222,454;  364,863;25,61851
 196,74;  241,127;  216,764;  341,279;19,56666
 197,34;  234,294;  194,760;  337,313;27,73250
 197,94;  265,128;  225,608;  364,072;28,54171
 198,54;  272,765;  230,300;  376,969;28,95311
 199,14;  260,867;  205,914;  371,989;33,08919
 199,74;  245,861;  202,991;  371,028;25,51277
 200,34;  237,439;  185,529;  381,448;26,49592
 200,94;  273,916;  230,838;  425,835;22,09184
 201,54;  260,589;  210,991;  424,829;23,19435
 202,14;  298,341;  228,221;  464,972;29,61791
 202,74;  266,126;  209,452;  467,115;21,99540
 203,34;  257,313;  188,758;  473,666;24,06221
 203,94;  234,930;  173,913;  479,547;19,96416
 204,54;  313,894;  230,608;  560,734;25,22850
 205,14;  277,464;  194,529;  577,711;21,64384
 205,74;  318,478;  234,297;  662,667;19,65150
 206,34;  297,637;  194,990;  656,194;22,25626
 206,94;  324,602;  206,682;  723,812;22,80279
 207,54;  294,670;  180,990;  761,512;19,58247
 208,14;  316,307;  194,759;  845,961;18,66524
 208,74;  329,114;  208,529;  911,260;17,15941
 209,34;  340,425;  205,914;  978,815;17,40344
 209,94;  366,418;  213,375; 1077,076;17,71941
 210,54;  372,360;  203,989; 1184,084;17,17897
 211,14;  398,121;  215,606; 1280,692;17,13616
 211,73;  408,439;  202,914; 1388,013;17,34241
 212,33;  446,229;  218,530; 1506,797;17,67485
 212,93;  440,740;  198,914; 1587,260;17,41826
 213,53;  420,570;  178,298; 1618,606;16,82082
 214,13;  460,004;  200,450; 1689,169;17,43474
 214,73;  463,034;  178,451; 1740,510;18,21841
 215,33;  445,110;  160,837; 1762,383;17,74993
 215,93;  486,991;  204,605; 1872,417;16,93155
 216,53;  478,656;  159,606; 1926,444;18,05765
 217,13;  565,875;  214,605; 2158,920;18,06652
 217,73;  588,827;  190,528; 2304,263;18,84338
 218,33;  596,931;  152,219; 2518,725;18,79193
 218,93;  678,027;  182,832; 2769,091;19,14715
 219,53;  752,233;  193,450; 3043,686;19,60482
 220,13;  801,287;  158,449; 3363,047;20,05987
 220,73;  894,484;  180,221; 3703,613;20,27202
 221,32;  966,883;  184,529; 4093,106;20,01633
 221,92; 1084,439;  183,065; 4469,423;21,02891
 222,52; 1132,716;  183,066; 4860,098;20,30454
 223,12; 1241,623;  181,835; 5272,367;20,81880
 223,72; 1327,541;  191,912; 5711,636;20,57401
 224,32; 1430,099;  191,681; 6080,154;21,03122
 224,92; 1472,217;  176,296; 6396,211;20,83502
 225,52; 1592,212;  194,375; 6776,081;21,23823
 226,12; 1637,401;  184,066; 7115,680;20,96675
 226,72; 1679,671;  163,836; 7436,883;20,84181
 227,31; 1768,712;  150,836; 7843,941;21,03021
 227,91; 1863,837;  191,529; 8225,304;20,81597
 228,51; 1965,274;  176,068; 8674,641;21,05302
 229,11; 2058,782;  180,451; 9046,663;21,18526
 229,71; 2136,786;  178,683; 9391,280;21,25463
 230,31; 2222,502;  167,758; 9800,650;21,33050
 230,91; 2283,034;  165,146;10128,599;21,25657
 231,51; 2367,099;  167,066;10384,244;21,53268
 232,10; 2440,274;  162,988;10757,667;21,49462
 232,70; 2509,617;  186,608;11009,483;21,46388
 233,30; 2598,930;  196,066;11238,918;21,75945
 233,90; 2627,510;  171,374;11352,438;21,96693
 234,50; 2660,234;  174,451;11517,427;21,91474
 235,10; 2684,986;  156,450;11505,442;22,27983
 235,70; 2714,286;  193,760;11579,833;22,13692
 236,29; 2699,491;  192,068;11503,674;22,16682
 236,89; 2672,533;  152,992;11438,703;22,32506
 237,49; 2679,306;  180,913;11287,940;22,49381
 238,09; 2588,867;  180,451;10997,578;22,26484
 238,69; 2578,855;  202,146;10858,055;22,30414
 239,29; 2496,509;  166,682;10503,772;22,53852
 239,89; 2406,184;  180,915;10194,569;22,22235
 240,48; 2280,601;  154,451; 9754,405;22,14750
 241,08; 2214,259;  170,529; 9405,870;22,12945
 241,68; 2127,567;  194,836; 9140,318;21,60567
 242,28; 1998,887;  174,220; 8763,467;21,24362
 242,88; 1931,153;  208,065; 8530,515;20,70409
 243,48; 1880,465;  199,374; 8222,440;20,95322
 244,07; 1758,724;  185,452; 8005,746;20,11781
 244,67; 1720,374;  194,220; 7827,115;19,99442
 245,27; 1665,362;  201,683; 7655,244;19,63731
 245,87; 1633,487;  198,988; 7542,632;19,53388
 246,47; 1575,782;  191,299; 7517,879;18,89673
 247,06; 1545,030;  176,221; 7552,186;18,55770
 247,66; 1524,964;  173,067; 7597,404;18,20900
 248,26; 1557,122;  204,375; 7721,867;17,99466
 248,86; 1549,772;  196,068; 7946,032;17,46723
 249,46; 1529,181;  150,220; 8117,436;17,30794
 250,05; 1587,458;  205,605; 8529,406;16,60122
 250,65; 1604,312;  158,684; 8867,977;16,59869
 251,25; 1678,518;  180,529; 9300,687;16,42504
 251,85; 1720,823;  183,915; 9897,809;15,82175
 252,44; 1790,232;  143,760;10426,548;16,01192
 253,04; 1937,330;  193,837;11157,152;15,90298
 253,64; 1980,628;  144,299;11872,353;15,65758
 254,24; 2155,540;  199,990;12750,291;15,58170
 254,84; 2269,719;  178,374;13710,898;15,45422
 255,43; 2424,931;  177,606;14641,288;15,53771
 256,03; 2605,151;  173,068;15619,314;15,74546
 256,63; 2768,651;  187,607;16570,915;15,75411
 257,23; 2890,582;  165,530;17440,270;15,77478
 257,82; 3099,923;  185,685;18410,923;15,99012
 258,42; 3205,549;  140,301;19238,014;16,05034
 259,02; 3426,702;  195,529;20100,066;16,23335
 259,62; 3589,935;  164,301;20780,805;16,61598
 260,21; 3695,096;  185,760;21389,750;16,55036
 260,81; 3801,719;  179,297;21840,834;16,72283
 261,41; 3939,908;  165,070;22271,751;17,07556
 262,01; 4089,432;  205,071;22747,222;17,23155
 262,60; 4193,505;  153,146;23059,270;17,63877
 263,20; 4344,196;  175,530;23358,004;17,98197
 263,80; 4437,727;  188,609;23556,520;18,18356
 264,40; 4520,482;  157,224;23717,182;18,51980
 264,99; 4617,974;  188,609;23856,252;18,71485
 265,59; 4676,966;  163,226;24016,091;18,92326
 266,19; 4816,568;  174,224;24242,712;19,28806
 266,78; 4945,728;  208,533;24397,709;19,58395
 267,38; 5005,964;  179,149;24300,377;20,01065
 267,98; 5028,333;  173,764;24345,555;20,08362
 268,58; 5111,775;  178,072;24350,973;20,41006
 269,17; 5170,629;  172,919;24355,377;20,66668
 269,77; 5234,351;  194,454;24203,591;20,99158
 270,37; 5239,654;  161,455;24082,628;21,22889
 270,96; 5296,443;  221,993;24011,182;21,33091
 271,56; 5289,077;  169,607;23734,204;21,72526
 272,16; 5301,096;  176,301;23539,069;21,93574
 272,75; 5328,796;  176,916;23407,117;22,17751
 273,35; 5372,368;  184,069;23453,806;22,29634
 273,95; 5411,098;  184,839;23409,924;22,50265
 274,54; 5465,907;  164,144;23390,628;22,82637
 275,14; 5605,032;  201,916;23686,758;23,00682
 275,74; 5644,996;  154,454;23785,213;23,23472
 276,33; 5783,528;  203,223;24173,832;23,27978
 276,93; 5927,520;  186,451;24621,375;23,49534
 277,53; 6056,332;  189,606;25047,943;23,60064
 278,12; 6243,040;  166,145;25551,471;23,93861
 278,72; 6468,253;  213,529;26164,319;24,10225
 279,32; 6606,097;  179,453;26731,464;24,20398
 279,91; 6821,022;  159,760;27416,178;24,43924
 280,51; 7046,534;  171,452;27950,740;24,74895
 281,11; 7233,909;  179,991;28722,006;24,71416
 281,70; 7432,008;  161,530;29076,084;25,14470
 282,30; 7646,769;  172,992;29653,281;25,35178
 282,90; 7845,716;  175,453;30050,521;25,67446
 283,49; 8073,978;  201,377;30707,229;25,80686
 284,09; 8295,444;  206,761;31099,989;26,18271
 284,69; 8527,972;  199,299;31383,821;26,70772
 285,28; 8639,757;  196,684;31825,797;26,69399
 285,88; 8909,196;  220,762;32019,926;27,32284
 286,47; 8945,721;  181,223;32128,176;27,43454
 287,07; 9138,872;  214,837;32257,888;27,85014
 287,67; 9341,157;  200,143;32393,594;28,39402
 288,26; 9435,841;  177,683;32269,677;28,84881
 288,86; 9667,036;  180,684;32334,209;29,50330
 289,46; 9904,550;  193,376;32530,562;30,03098
 290,05;10114,677;  170,375;32505,111;30,75424
 290,65;10318,973;  184,223;32648,485;31,21818
 291,24;10688,815;  193,068;32961,560;32,03000
 291,84;10842,497;  197,530;33029,454;32,42261
 292,44;11120,751;  183,220;33101,900;33,22591
 293,03;11431,643;  239,145;33291,127;33,86332
 293,63;11628,295;  183,300;33470,733;34,38233
 294,22;11813,004;  192,991;33683,054;34,69690
 294,82;11963,146;  174,532;33575,594;35,29413
 295,41;11967,700;  161,376;33298,468;35,62873
 296,01;12080,679;  224,685;33327,004;35,81620
 296,61;12067,879;  193,683;32993,397;36,20213
 297,20;11985,143;  195,301;32730,397;36,23730
 297,80;11991,273;  193,682;32568,733;36,44038
 298,39;11890,823;  170,992;32250,732;36,53344
 298,99;11890,633;  197,839;32006,740;36,75950
 299,58;11814,456;  196,528;31893,076;36,65361
 300,18;11706,762;  210,606;31673,312;36,53899
 300,78;11544,121;  177,375;31300,769;36,52155
 301,37;11561,485;  187,532;31326,148;36,52684
 301,97;11551,052;  195,068;31357,466;36,44130
 302,56;11459,140;  183,530;31272,571;36,26876
 303,16;11421,969;  169,761;31119,621;36,35625
 303,75;11477,112;  177,067;31117,546;36,52188
 304,35;11443,072;  173,066;31521,511;35,95077
 304,94;11411,793;  183,299;31356,572;36,01962
 305,54;11342,114;  206,529;31336,491;35,77128
 306,13;11247,617;  163,912;31367,636;35,52046
 306,73;11124,236;  175,143;31149,833;35,34852
 307,33;11052,978;  194,374;31011,498;35,23562
 307,92;11004,833;  186,914;31149,531;34,93864
 308,52;11083,962;  169,608;31623,266;34,69979
 309,11;11200,967;  181,070;32031,332;34,59908
 309,71;11164,373;  162,840;32261,962;34,27363
 310,30;11169,287;  169,145;32596,483;33,92243
 310,90;11242,210;  201,606;32942,868;33,72076
 311,49;11218,859;  185,299;33078,879;33,54320
 312,09;11138,643;  150,529;33147,793;33,30008
 312,68;11230,647;  223,760;33564,913;33,01292
 313,28;11131,294;  162,837;33776,608;32,63084
 313,87;11091,605;  155,683;33948,023;32,36213
 314,47;11117,468;  167,916;34121,906;32,24820
 315,06;11081,384;  166,914;34277,617;31,99720
 315,66;11017,490;  174,606;34487,947;31,59962
 316,25;10833,012;  146,223;34415,457;31,18479
 316,85;10757,656;  148,452;34577,725;30,81449
 317,44;10683,761;  178,455;34696,120;30,43458
 318,04;10502,982;  156,300;34691,771;29,95958
 318,63;10463,254;  148,835;34867,727;29,70837
 319,22;10420,345;  184,069;35016,168;29,38748
 319,82;10248,804;  173,838;34976,663;28,94870
 320,41;10111,276;  188,146;34860,446;28,61976
 321,01;10012,760;  191,144;35028,765;28,19256
 321,60; 9931,006;  176,299;35146,306;27,89449
 322,20; 9791,112;  155,606;35103,713;27,57089
 322,79; 9652,555;  210,529;35170,511;27,00810
 323,39; 9515,709;  169,374;35258,974;26,63563
 323,98; 9409,883;  159,606;34983,952;26,56267
 324,58; 9268,288;  164,454;34968,930;26,15708
 325,17; 9102,386;  178,607;34806,918;25,77018
 325,76; 8934,190;  190,606;34590,812;25,41724
 326,36; 8692,168;  157,836;34290,160;25,00366
 326,95; 8601,013;  191,914;33891,046;24,95346
 327,55; 8333,696;  156,453;33609,990;24,44358
 328,14; 8143,275;  168,374;33306,357;24,06574
 328,74; 7941,376;  204,146;32801,533;23,73574
 329,33; 7750,368;  185,067;32458,102;23,44155
 329,92; 7516,708;  160,301;31882,668;23,18997
 330,52; 7259,223;  172,451;31214,683;22,82945
 331,11; 7064,177;  176,376;30849,970;22,45515
 331,71; 6857,945;  169,607;30282,948;22,21055
 332,30; 6711,485;  186,683;29783,956;22,04528
 332,89; 6491,786;  225,837;29357,728;21,50890
 333,49; 6290,954;  185,914;28709,171;21,40373
 334,08; 6100,986;  176,299;28312,711;21,05701
 334,68; 5924,117;  182,915;27909,086;20,70680
 335,27; 5814,960;  184,528;27528,220;20,59134
 335,86; 5680,254;  223,838;27324,046;20,13422
 336,46; 5591,701;  190,759;27025,094;20,12698
 337,05; 5449,988;  172,607;26773,720;19,83895
 337,65; 5353,058;  161,915;26639,826;19,60556
 338,24; 5353,829;  224,298;26590,654;19,45483
 338,83; 5219,013;  208,068;26462,711;19,08594
 339,43; 5147,599;  177,069;26457,101;18,91371
 340,02; 5078,698;  178,531;26386,871;18,69697
 340,61; 5011,443;  173,837;26369,338;18,46731
 341,21; 4989,837;  203,607;26349,533;18,30583
 341,80; 4949,104;  179,915;26375,384;18,20616
 342,40; 4886,254;  171,682;26432,125;17,95313
 342,99; 4915,479;  182,067;26467,113;18,00800
 343,58; 4878,752;  175,990;26717,718;17,71837
 344,18; 4895,139;  190,836;26808,342;17,67372
 344,77; 4875,644;  162,992;27092,035;17,50026
 345,36; 4869,859;  157,453;27385,200;17,30737
 345,96; 4900,404;  203,606;27672,891;17,09836
 346,55; 4902,295;  164,143;27940,079;17,05848
 347,14; 4905,231;  155,297;28302,500;16,87533
 347,74; 4962,373;  140,142;28698,886;16,88531
 348,33; 5070,459;  175,526;29329,262;16,79007
 348,92; 5089,336;  185,218;29983,524;16,45771
 349,52; 5176,584;  147,526;30445,585;16,59862
 350,11; 5185,565;  173,454;30582,180;16,48248
 350,70; 5187,312;  173,452;30809,809;16,36572
 351,29; 5103,154;  148,764;30507,921;16,31926
 351,89; 5108,642;  174,685;30478,746;16,28150
 352,48; 5081,566;  155,299;30497,665;16,23561
 353,07; 5069,683;  182,066;30396,277;16,17655
 353,67; 5038,433;  191,756;30353,888;16,06875
 354,26; 4998,787;  170,990;30103,932;16,12871
 354,85; 4937,864;  185,067;29973,792;15,95502
 355,45; 4916,066;  155,684;29816,742;16,04927
 356,04; 4897,224;  174,759;29768,055;15,95789
 356,63; 4874,907;  201,145;29409,997;16,00118
 357,22; 4847,446;  175,917;29375,176;15,99879
 357,82; 4785,962;  193,224;29208,614;15,82863
 358,41; 4809,970;  201,760;29108,120;15,94185
 359,00; 4772,309;  158,300;28913,918;16,04559
 359,60; 4757,427;  180,221;28724,683;16,03535
 360,19; 4725,451;  176,605;28638,178;15,98241
 360,78; 4734,329;  190,222;28497,576;16,05274
 361,37; 4692,016;  174,761;28242,538;16,09410
 361,97; 4714,140;  186,530;28190,006;16,16803
 362,56; 4674,937;  169,531;27892,787;16,25136
 363,15; 4698,476;  213,453;27606,375;16,37293
 363,74; 4621,019;  174,685;27373,531;16,34751
 364,34; 4578,066;  195,992;26912,293;16,40225
 364,93; 4501,438;  163,069;26430,374;16,51623
 365,52; 4441,947;  149,376;26172,508;16,49521
 366,11; 4424,712;  171,146;25882,043;16,54383
 366,71; 4381,730;  163,377;25437,168;16,69062
 367,30; 4345,285;  170,607;25110,181;16,73917
 367,89; 4391,005;  198,990;24925,860;16,95328
 368,48; 4323,547;  198,224;24640,300;16,87796
 369,07; 4279,697;  179,760;24120,963;17,12502
 369,67; 4261,484;  203,454;23868,702;17,14764
 370,26; 4218,609;  171,452;23599,578;17,27478
 370,85; 4211,929;  179,530;23323,075;17,42343
 371,44; 4213,879;  176,145;23107,871;17,60763
 372,03; 4137,853;  152,223;22932,418;17,49603
 372,63; 4122,487;  152,684;22571,978;17,70708
 373,22; 4110,192;  166,376;22343,589;17,78319
 373,81; 4091,065;  148,376;22009,643;18,03504
 374,40; 4101,755;  165,913;21699,790;18,27744
 374,99; 4090,387;  169,761;21518,751;18,36446
 375,59; 4058,291;  162,528;21175,243;18,54003
 376,18; 4094,778;  193,761;21119,644;18,64207
 376,77; 4061,324;  186,299;20977,832;18,63752
 377,36; 4118,721;  195,838;20847,778;18,99523
 377,95; 4125,027;  181,146;20525,705;19,38543
 378,55; 4099,990;  157,913;20341,534;19,53107
 379,14; 4135,780;  185,299;20317,114;19,62307
 379,73; 4163,555;  175,684;20230,320;19,88503
 380,32; 4190,620;  185,991;20308,823;19,90092
 380,91; 4158,667;  175,685;20112,135;19,97839
 381,50; 4253,009;  189,915;20145,055;20,36114
 382,10; 4220,466;  166,530;19978,130;20,46244
 382,69; 4266,957;  153,376;19923,509;20,80705
 383,28; 4308,177;  190,761;19875,842;20,91643
 383,87; 4318,680;  170,377;19769,746;21,16549
 384,46; 4333,123;  162,070;19724,738;21,32149
 385,05; 4442,068;  193,223;19732,931;21,74467
 385,64; 4422,866;  178,069;19695,581;21,74866
 386,24; 4445,056;  149,609;19626,893;22,05363
 386,83; 4564,409;  192,455;19630,827;22,49136
 387,42; 4608,240;  188,761;19800,427;22,53495
 388,01; 4717,599;  187,379;19979,741;22,88873
 388,60; 4808,616;  175,378;20220,112;23,11449
 389,19; 4883,513;  156,457;20416,341;23,33210
 389,78; 5018,849;  165,765;20729,299;23,60044
 390,37; 5233,929;  222,994;21142,177;23,95378
 390,96; 5297,085;  180,763;21286,326;24,24158
 391,56; 5347,446;  176,227;21344,508;24,42909
 392,15; 5455,812;  160,072;21679,720;24,60886
 392,74; 5535,601;  151,460;21795,507;24,87585
 393,33; 5716,147;  166,227;22126,116;25,27299
 393,92; 5851,835;  173,461;22513,333;25,41811
 394,51; 5980,407;  149,304;22716,088;25,83932
 395,10; 6094,981;  192,848;22911,234;25,97955
 395,69; 6200,112;  176,924;23003,980;26,38618
 396,28; 6255,362;  185,464;23176,013;26,40171
 396,87; 6389,512;  192,620;23343,392;26,76754
 397,46; 6431,924;  181,314;23335,340;26,99578
 398,06; 6590,975;  189,701;23615,542;27,32570
 398,65; 6614,788;  177,244;23677,260;27,39378
 399,24; 6776,170;  188,014;23858,432;27,83287
 399,83; 6807,264;  164,329;23835,982;28,06283
 400,42; 6919,702;  201,796;23985,677;28,24562
 401,01; 7025,343;  182,573;24029,218;28,69490
 401,60; 7098,056;  177,275;24210,515;28,79671
 402,19; 7171,624;  196,513;24101,561;29,17840
 402,78; 7219,727;  200,602;24087,601;29,38471
 403,37; 7237,450;  187,228;23877,105;29,76048
 403,96; 7253,076;  182,241;23721,090;30,03900
 404,55; 7301,264;  167,487;23720,600;30,28804
 405,14; 7289,125;  167,808;23513,307;30,50403
 405,73; 7310,623;  183,285;23436,720;30,65069
 406,32; 7408,198;  190,910;23384,544;31,11753
 406,91; 7349,249;  180,307;23126,231;31,24277
 407,50; 7384,959;  178,159;22981,523;31,60411
 408,09; 7332,491;  155,241;22707,575;31,82486
 408,68; 7349,694;  181,013;22565,971;32,02455
 409,27; 7388,795;  175,086;22354,826;32,52387
 409,86; 7442,848;  170,231;22237,205;32,95702
 410,45; 7478,007;  200,684;22171,617;33,12250
 411,04; 7484,790;  197,445;22092,777;33,28264
 411,63; 7445,892;  175,204;21749,606;33,70053
 412,22; 7452,048;  201,425;21608,780;33,86978
 412,81; 7387,943;  192,883;21395,680;33,93448
 413,40; 7350,629;  204,187;21034,618;34,30770
 413,99; 7320,755;  234,803;20717,708;34,59447
 414,58; 7201,450;  160,726;20274,844;35,00389
 415,17; 7191,169;  175,114;20101,949;35,20908
 415,76; 7166,948;  169,195;19974,707;35,33235
 416,35; 7151,352;  159,116;19776,073;35,64383
 416,94; 7218,784;  199,502;19821,526;35,77247
 417,53; 7331,451;  172,960;20056,994;36,00120
 418,12; 7428,300;  166,036;20023,822;36,57137
 418,71; 7633,649;  190,494;20445,675;36,74692
 419,30; 7697,844;  177,189;20578,386;36,86379
 419,89; 7817,785;  176,573;20770,792;37,10368
 420,48; 7949,585;  195,110;21032,068;37,21500
 421,07; 7988,165;  185,340;21040,253;37,41480
 421,66; 8050,263;  165,876;21069,935;37,71701
 422,25; 8110,365;  172,718;21036,735;38,04467
 422,84; 8163,976;  208,487;21049,362;38,17253
 423,43; 8091,322;  171,489;20839,926;38,31849
 424,02; 8047,825;  206,026;20496,880;38,64696
 424,60; 7899,710;  165,714;20092,893;38,81129
 425,19; 7877,009;  185,793;19869,157;39,07470
 425,78; 7884,817;  196,485;19774,962;39,26931
 426,37; 7856,933;  189,715;19661,859;39,37532
 426,96; 7851,851;  189,638;19529,359;39,61905
 427,55; 7812,461;  179,020;19339,603;39,83929
 428,14; 7734,461;  167,788;19155,101;39,85121
 428,73; 7698,651;  186,021;19002,055;39,92675
 429,32; 7717,106;  191,715;18977,775;40,05838
 429,91; 7757,825;  212,482;18966,112;40,23404
 430,50; 7750,681;  195,711;18786,512;40,63821
 431,08; 7742,963;  200,864;18610,124;40,96905
 431,67; 7713,929;  233,863;18580,766;40,77019
 432,26; 7685,966;  230,939;18330,206;41,18966
 432,85; 7580,984;  244,016;18032,499;41,24561
 433,44; 7457,468;  259,014;17649,895;41,39212
 434,03; 7364,897;  264,704;17299,958;41,67941
 434,62; 7174,582;  220,476;16897,307;41,69921
 435,21; 7159,567;  235,708;16746,958;41,93419
 435,79; 7054,800;  230,782;16568,544;41,76838
 436,38; 7127,103;  224,164;16412,732;42,64083
 436,97; 7103,535;  220,472;16329,431;42,72817
 437,56; 7046,431;  235,930;16162,416;42,76211
 438,15; 6980,145;  218,700;16037,367;42,74345
 438,74; 7051,168;  235,776;16092,672;42,98062
 439,33; 7081,297;  219,777;16171,359;43,01467
 439,91; 7089,849;  187,314;16238,238;43,00397
 440,50; 7129,478;  236,006;16217,333;43,13455
 441,09; 7240,528;  220,312;16301,833;43,65393
 441,68; 7192,046;  214,310;16343,764;43,26083
 442,27; 7249,772;  196,464;16282,263;43,84804
 442,86; 7221,304;  183,537;16344,663;43,54751
 443,44; 7314,207;  185,307;16399,787;43,96626
 444,03; 7321,868;  234,768;16429,527;43,76169
 444,62; 7287,465;  186,844;16264,941;44,16332
 445,21; 7220,238;  202,230;16176,369;43,93356
 445,80; 7252,472;  225,535;15999,528;44,54761
 446,39; 7198,400;  250,920;15821,042;44,62059
 446,97; 7051,722;  183,225;15554,035;44,68533
 447,56; 6983,648;  181,761;15307,592;44,96868
 448,15; 6955,863;  185,994;15168,718;45,18450
 448,74; 6838,228;  195,686;14965,263;44,97449
 449,33; 6773,435;  191,608;14784,807;45,10202
 449,91; 6724,213;  191,298;14588,544;45,37614
 450,50; 6637,708;  181,375;14406,952;45,38539
 451,09; 6660,050;  191,837;14299,949;45,84747
 451,68; 6611,924;  209,682;14214,719;45,71385
 452,26; 6559,556;  197,604;14109,488;45,73034
 452,85; 6512,901;  182,989;14003,849;45,79969
 453,44; 6564,082;  201,832;14047,530;45,95109
 454,03; 6565,147;  183,680;13933,596;46,41095
 454,61; 6549,914;  175,370;13940,884;46,30807
 455,20; 6671,889;  205,139;14121,979;46,46709
 455,79; 6664,480;  204,679;14106,344;46,46782
 456,38; 6706,266;  204,752;14172,857;46,54542
 456,97; 6756,518;  183,445;14221,795;46,82226
 457,55; 6776,605;  187,213;14341,041;46,55554
 458,14; 6810,984;  207,599;14274,847;46,94156
 458,73; 6796,052;  197,751;14154,010;47,27843
 459,31; 6817,379;  215,519;14203,915;47,19526
 459,90; 6878,036;  226,750;14306,406;47,24040
 460,49; 6937,914;  273,366;14411,806;47,13779
 461,08; 6960,140;  191,133;14403,434;47,62780
 461,66; 7044,354;  192,365;14554,358;47,70918
 462,25; 7079,414;  188,517;14600,243;47,81451
 462,84; 7135,433;  218,133;14695,403;47,78042
 463,43; 7100,998;  161,130;14551,405;48,22610
 464,01; 7149,552;  195,821;14623,012;48,19878
 464,60; 7147,377;  229,977;14589,624;48,17250
 465,19; 7028,602;  165,359;14358,804;48,35502
 465,77; 7044,311;  190,281;14302,727;48,56727
 466,36; 7007,401;  206,669;14272,145;48,35053
 466,95; 6881,902;  182,899;13880,028;48,90808
 467,53; 6716,673;  179,819;13600,061;48,70891
 468,12; 6615,802;  212,434;13372,184;48,65874
 468,71; 6533,162;  196,898;13136,177;48,96922
 469,29; 6384,185;  176,972;12847,700;48,98861
 469,88; 6298,595;  179,894;12587,461;49,31427
 470,47; 6392,080;  239,969;12708,011;49,34303
 471,06; 6335,661;  196,585;12693,693;49,12398
 471,64; 6398,239;  203,278;12803,602;49,16509
 472,23; 6427,030;  165,274;12796,077;49,57528
 472,81; 6460,476;  172,430;12890,420;49,44214
 473,40; 6556,788;  179,197;13041,307;49,58433
 473,99; 6716,670;  265,197;13223,941;49,78471
 474,57; 6703,976;  172,889;13406,317;49,35295
 475,16; 6772,458;  187,660;13512,513;49,41742
 475,75; 6874,678;  200,888;13632,333;49,68780
 476,33; 6939,080;  219,733;13698,089;49,85287
 476,92; 6978,279;  211,812;13770,265;49,90589
 477,51; 7062,638;  201,272;13807,479;50,42820
 478,09; 7091,171;  193,810;13841,364;50,53917
 478,68; 7012,760;  204,964;13846,695;49,90419
 479,27; 7090,396;  216,888;13833,967;50,47711
 479,85; 7043,119;  204,195;13767,446;50,42246
 480,44; 7150,284;  163,425;13890,035;50,90011
 481,02; 7814,677;  199,193;15348,965;50,26797
 481,61; 8857,047;  219,270;17381,884;50,32903
 482,20; 9448,766;  201,346;18466,821;50,62786
 482,78; 9902,132;  225,040;19260,365;50,83755
 483,37;10221,655;  221,575;19787,966;51,10845
 483,95;10374,637;  238,421;20101,597;51,03019
 484,54;10433,830;  253,270;20269,915;50,86047
 485,13;10420,863;  215,035;20216,120;51,02637
 485,71;10305,813;  190,959;20019,097;51,01263
 486,30;10175,654;  226,420;19680,289;51,14270
 486,88;10057,495;  268,420;19317,698;51,38817
 487,47; 9719,643;  232,958;18612,877;51,61440
 488,05; 9227,826;  227,419;17775,668;51,28949
 488,64; 8580,879;  227,263;16521,135;51,26845
 489,23; 7701,827;  242,418;14695,116;51,61257
 489,81; 6525,703;  230,033;12503,314;51,29574
 490,40; 6222,773;  203,648;11907,484;51,42865
 490,98; 6110,334;  173,955;11627,382;51,83059
 491,57; 6040,374;  215,187;11548,864;51,39715
 492,15; 6036,219;  189,647;11515,648;51,62080
 492,74; 5950,787;  199,957;11363,542;51,51419
 493,32; 5932,776;  218,340;11287,171;51,62637
 493,91; 5857,900;  195,570;11139,766;51,73820
 494,50; 5841,710;  207,721;11189,107;51,30490
 495,08; 5790,690;  183,798;11094,897;51,38705
 495,67; 5791,606;  208,339;11096,644;51,27765
 496,25; 5698,138;  170,184;10988,928;51,09609
 496,84; 5704,835;  167,724;10969,404;51,26157
 497,42; 5693,774;  162,107;10888,278;51,57168
 498,01; 5657,959;  198,262;10888,488;51,07186
 498,59; 5618,990;  171,183;10805,786;51,22718
 499,18; 5591,606;  163,647;10772,169;51,16603
 499,76; 5596,843;  200,338;10714,168;51,32769
 500,35; 5460,708;  190,951;10529,303;50,97290
 500,93; 5444,269;  178,260;10438,289;51,32548
 501,52; 5412,593;  177,337;10374,623;51,33970
 502,10; 5392,707;  191,489;10378,023;51,05975
 502,69; 5279,958;  182,180;10226,592;50,75238
 503,27; 5215,599;  170,567;10017,943;51,23225
 503,86; 5142,420;  175,719; 9986,836;50,62319
 504,44; 5092,753;  162,410; 9862,597;50,82730
 505,03; 4961,617;  149,257; 9629,414;50,76245
 505,61; 4929,345;  163,718; 9546,523;50,79106
 506,19; 4837,610;  182,257; 9366,059;50,69091
 506,78; 4705,516;  152,716; 9184,790;50,40703
 507,36; 4636,408;  167,795; 9072,185;50,18438
 507,95; 4551,352;  168,408; 8850,302;50,48374
 508,53; 4560,409;  164,332; 8761,887;51,13171
 509,12; 4440,685;  177,870; 8629,949;50,43511
 509,70; 4394,349;  180,715; 8488,348;50,72002
 510,29; 4330,902;  188,407; 8328,108;50,89247
 510,87; 4177,296;  164,409; 8144,099;50,28876
 511,46; 4126,717;  159,485; 7966,028;50,81932
 512,04; 4008,165;  180,638; 7824,201;50,07516
 512,62; 3940,481;  172,716; 7724,681;49,89118
 513,21; 3854,099;  158,868; 7536,098;50,08968
 513,79; 3818,838;  166,942; 7407,618;50,43584
 514,38; 3720,680;  144,405; 7251,704;50,31834
 514,96; 3685,322;  194,866; 7217,206;49,70502
 515,54; 3578,900;  155,481; 7062,844;49,56188
 516,13; 3538,773;  179,096; 6917,948;49,85533
 516,71; 3483,266;  174,403; 6831,734;49,70254
 517,30; 3389,762;  155,325; 6691,551;49,48478
 517,88; 3363,370;  185,787; 6621,965;49,37066
 518,46; 3296,752;  153,401; 6497,999;49,54373
 519,05; 3240,588;  160,478; 6477,664;48,75763
 519,63; 3233,557;  181,324; 6415,620;48,95874
 520,22; 3193,828;  182,092; 6337,987;48,92443
 520,80; 3157,783;  174,476; 6226,822;49,29175
 521,38; 3168,140;  195,631; 6241,450;49,16636
 521,97; 3094,466;  160,552; 6210,102;48,49804
 522,55; 3089,720;  182,475; 6213,881;48,20177
 523,13; 3081,505;  165,167; 6207,817;48,26257
 523,72; 3048,514;  162,709; 6145,874;48,23207
 524,30; 3157,601;  183,705; 6308,377;48,55600
 524,89; 3101,729;  154,244; 6317,937;47,82010
 525,47; 3192,488;  171,550; 6418,422;48,35921
 526,05; 3190,610;  147,089; 6489,573;47,98626
 526,64; 3254,956;  186,934; 6620,203;47,68993
 527,22; 3292,091;  175,397; 6752,643;47,38601
 527,80; 3330,279;  215,242; 6874,935;46,77449
 528,39; 3387,947;  171,472; 6963,659;47,35551
 528,97; 3463,444;  179,626; 7137,153;47,19806
 529,55; 3555,310;  181,090; 7292,452;47,44830
 530,14; 3628,434;  202,626; 7473,664;47,11580
 530,72; 3660,669;  171,780; 7625,729;46,80592
 531,30; 3720,697;  148,856; 7738,499;47,06204
 531,89; 3761,200;  177,010; 7827,403;46,84975
 532,47; 3815,556;  206,625; 7946,187;46,62965
 533,05; 3813,900;  203,319; 7993,435;46,34823
 533,63; 3826,039;  191,240; 8016,483;46,44966
 534,22; 3817,323;  166,163; 8045,473;46,33858
 534,80; 3870,290;  196,931; 8129,191;46,30911
 535,38; 3932,937;  268,010; 8276,247;45,76447
 535,97; 3870,279;  173,240; 8124,860;46,49416
 536,55; 3884,494;  215,546; 8278,382;45,50444
 537,13; 3867,944;  207,087; 8215,154;45,71461
 537,71; 3840,834;  246,164; 8231,165;45,01778
 538,30; 3869,621;  248,086; 8351,459;44,69170
 538,88; 3900,853;  273,084; 8422,315;44,51670
 539,46; 4008,775;  308,700; 8568,663;44,79530
 540,05; 4036,148;  308,623; 8699,627;44,42287
 540,63; 4122,811;  343,546; 8864,809;44,35100
 541,21; 4121,196;  351,007; 8970,782;43,73884
 541,79; 4193,468;  381,007; 9119,533;43,62820
 542,38; 4232,500;  400,161; 9275,331;43,18045
 542,96; 4296,603;  394,236; 9398,667;43,33830
 543,54; 4368,490;  420,776; 9606,688;42,97574
 544,12; 4425,010;  391,622; 9719,703;43,23921
 544,70; 4443,741;  380,082; 9848,243;42,91920
 545,29; 4513,820;  399,008;10022,801;42,75666
 545,87; 4490,314;  374,776;10086,994;42,37486
 546,45; 4477,723;  348,854;10109,053;42,30313
 547,03; 4461,722;  339,084;10206,710;41,77943
 547,62; 4537,062;  315,007;10346,147;42,08949
 548,20; 4624,743;  330,006;10512,803;42,17639
 548,78; 4610,304;  295,542;10627,019;41,76327
 549,36; 4669,034;  275,542;10914,598;41,29588
 549,94; 4754,358;  264,314;11046,201;41,64432
 550,53; 4834,885;  269,081;11255,266;41,55951
 551,11; 4887,596;  234,849;11460,197;41,44858
 551,69; 5009,121;  240,004;11797,137;41,26558
 552,27; 5035,527;  212,543;12027,242;40,82189
 552,85; 5195,063;  222,695;12402,005;40,82635
 553,44; 5299,801;  225,388;12707,128;40,65469
 554,02; 5451,719;  232,926;13119,768;40,49707
 554,60; 5520,226;  193,772;13422,753;40,26352
 555,18; 5659,613;  223,542;13805,579;40,02398
 555,76; 5785,352;  206,619;14182,816;39,91596
 556,34; 5916,064;  211,002;14557,042;39,76750
 556,93; 6050,485;  205,311;14950,136;39,64220
 557,51; 6162,556;  192,156;15311,022;39,48973
 558,09; 6290,046;  212,850;15734,992;39,15179
 558,67; 6441,746;  210,693;16082,476;39,25868
 559,25; 6501,123;  223,848;16371,596;38,87400
 559,83; 6535,939;  205,308;16683,960;38,41717
 560,41; 6704,266;  205,771;17055,006;38,56848
 561,00; 6780,089;  208,539;17343,264;38,35223
 561,58; 6810,856;  198,464;17668,680;37,84951
 562,16; 6922,342;  185,157;18011,648;37,79311
 562,74; 7024,696;  167,234;18288,528;37,84201
 563,32; 7118,483;  174,923;18759,153;37,36265
 563,90; 7248,302;  207,309;19120,524;37,22790
 564,48; 7373,160;  204,772;19511,356;37,12924
 565,06; 7547,134;  188,232;20160,583;36,84545
 565,65; 7791,047;  204,153;20836,746;36,77140
 566,23; 8023,604;  250,770;21605,331;36,39894
 566,81; 8205,513;  195,001;22249,173;36,32198
 567,39; 8562,299;  205,077;23136,467;36,44446
 567,97; 8741,652;  222,924;23837,757;36,07363
 568,55; 9006,186;  234,770;24603,461;35,99461
 569,13; 9215,327;  195,539;25332,542;35,88251
 569,71; 9469,347;  195,311;26288,841;35,54152
 570,29; 9792,626;  230,004;27237,665;35,40707
 570,87;10055,633;  228,157;28016,084;35,36599
 571,45;10200,449;  222,924;28595,630;35,16593
 572,03;10254,451;  180,307;29118,291;34,81287
 572,61;10467,327;  171,539;29768,913;34,78615
 573,20;10672,776;  212,155;30457,944;34,58538
 573,78;10800,424;  194,693;31102,278;34,31433
 574,36;10899,531;  197,001;31598,733;34,08261
 574,94;10974,373;  251,538;31941,039;33,83718
 575,52;10967,842;  186,690;32172,417;33,70613
 576,10;11086,631;  249,537;32753,885;33,34044
 576,68;11235,628;  222,307;33359,301;33,23573
 577,26;11381,895;  242,920;34034,218;32,96403
 577,84;11499,379;  240,847;34439,972;32,92053
 578,42;11500,096;  277,153;34750,082;32,55581
 579,00;11514,134;  227,846;34942,556;32,51154
 579,58;11423,308;  257,538;35231,125;31,92629
 580,16;11413,964;  239,076;35261,609;31,90771
 580,74;11388,291;  233,229;35397,512;31,72271
 581,32;11290,933;  234,076;35482,642;31,36825
 581,90;11243,028;  240,307;35369,754;31,32051
 582,48;11247,981;  242,230;35585,042;31,14000
 583,06;11157,049;  244,307;35773,307;30,71503
 583,64;11155,183;  240,923;35789,173;30,70267
 584,22;11030,700;  251,459;35758,020;30,35845
 584,80;10912,588;  261,537;35487,370;30,23648
 585,38;10655,672;  260,617;35102,456;29,83498
 585,96;10621,925;  224,154;35305,083;29,63938
 586,54;10544,281;  251,921;35185,484;29,46267
 587,12;10532,887;  221,768;35412,288;29,30084
 587,70;10511,176;  257,846;35489,986;29,10221
 588,28;10396,046;  242,306;35598,019;28,71881
 588,86;10380,554;  243,460;35696,487;28,59303
 589,44;10337,783;  219,843;35803,711;28,43406
 590,02;10347,906;  234,843;36051,052;28,23599
 590,59;10298,345;  220,075;36245,321;27,97558
 591,17;10331,857;  223,764;36479,320;27,88012
 591,75;10295,935;  213,227;36521,830;27,76947
 592,33;10315,833;  238,535;36839,517;27,53286
 592,91;10266,631;  193,918;37044,756;27,33374
 593,49;10305,549;  206,764;37432,306;27,12865
 594,07;10284,306;  212,841;37568,143;26,96127
 594,65;10228,123;  224,459;37618,762;26,75184
 595,23;10302,088;  217,612;38120,562;26,60604
 595,81;10323,219;  221,612;38259,539;26,55667
 596,39;10222,972;  209,996;38308,269;26,28197
 596,97;10237,595;  206,149;38540,276;26,16845
 597,55;10177,023;  211,074;38368,431;26,11803
 598,12;10082,757;  184,302;38453,822;25,86512
 598,70;10044,299;  195,149;38552,494;25,67735
 599,28;10024,352;  214,995;38744,330;25,45945
 599,86; 9960,735;  204,841;38706,937;25,33860
 600,44; 9907,553;  172,610;38933,337;25,11548
 601,02; 9938,585;  227,608;38927,712;25,09290
 601,60; 9764,255;  209,688;38862,685;24,71883
 602,18; 9664,081;  178,610;38870,938;24,51512
 602,75; 9576,968;  189,920;39007,867;24,18224
 603,33; 9579,850;  201,687;38987,272;24,17951
 603,91; 9458,194;  188,840;39040,469;23,85834
 604,49; 9425,318;  208,226;39087,397;23,70702
 605,07; 9338,633;  215,996;39057,561;23,48679
 605,65; 9312,236;  225,533;39172,729;23,33083
 606,23; 9214,336;  264,306;39339,727;22,90450
 606,80; 9236,702;  285,074;39292,079;22,94877
 607,38; 9153,368;  300,686;39398,846;22,64219
 607,96; 9094,612;  337,612;39460,608;22,38326
 608,54; 9085,893;  389,225;39519,710;22,22479
 609,12; 9038,602;  377,689;39488,530;22,14453
 609,70; 8983,207;  406,226;39536,322;21,91914
 610,27; 8896,829;  399,458;39596,436;21,67864
 610,85; 8803,105;  415,995;39673,996;21,36408
 611,43; 8833,435;  418,226;39607,677;21,47315
 612,01; 8640,044;  389,150;39405,678;21,14718
 612,59; 8623,651;  400,072;39457,428;21,05513
 613,16; 8537,658;  365,767;39440,885;20,91329
 613,74; 8460,211;  354,149;39277,032;20,82596
 614,32; 8347,959;  334,533;39289,863;20,57081
 614,90; 8262,608;  313,842;39167,606;20,45816
 615,48; 8135,349;  264,151;38815,633;20,41737
 616,05; 8058,803;  257,844;38842,752;20,21764
 616,63; 7947,565;  267,460;38596,795;20,03715
 617,21; 7884,811;  266,458;38494,004;19,92896
 617,79; 7782,351;  245,073;38478,384;19,71390
 618,36; 7707,905;  268,996;38341,157;19,53897
 618,94; 7553,653;  209,920;38066,448;19,39886
 619,52; 7474,556;  227,536;37750,342;19,31364
 620,10; 7410,845;  235,304;37721,155;19,14200
 620,67; 7327,234;  234,229;37593,632;18,98586
 621,25; 7250,007;  252,303;37527,175;18,77325
 621,83; 7145,902;  224,689;37484,189;18,57570
 622,41; 7181,031;  272,305;37410,324;18,60284
 622,98; 7046,475;  257,460;37138,325;18,40796
 623,56; 6968,295;  249,537;37196,221;18,18501
 624,14; 6928,150;  239,226;37025,315;18,18330
 624,72; 6869,369;  232,920;36893,535;18,10239
 625,29; 6767,425;  218,691;36946,057;17,83067
 625,87; 6752,233;  265,996;36963,556;17,67485
 626,45; 6586,066;  211,153;36814,243;17,41632
 627,02; 6553,389;  228,458;36763,334;17,31204
 627,60; 6507,540;  216,072;36601,251;17,29130
 628,18; 6457,448;  203,535;36778,453;17,09891
 628,76; 6392,649;  204,075;36703,843;16,95511
 629,33; 6401,635;  236,844;36620,875;16,94367
 629,91; 6345,383;  220,766;36669,155;16,80353
 630,49; 6327,329;  236,152;36885,051;16,62036
 631,06; 6314,148;  224,460;36968,332;16,57335
 631,64; 6261,239;  236,691;36931,222;16,41811
 632,22; 6201,489;  191,076;36867,998;16,38745
 632,79; 6231,004;  222,922;37220,911;16,23894
 633,37; 6195,844;  206,150;37185,197;16,19753
 633,95; 6151,094;  217,537;37305,676;15,99853
 634,52; 6113,895;  204,151;37411,449;15,88329
 635,10; 6094,984;  202,997;37377,906;15,84937
 635,68; 6065,199;  217,153;37630,353;15,63097
 636,25; 6058,438;  192,692;37673,295;15,65008
 636,83; 6018,495;  186,767;37842,843;15,48682
 637,41; 5971,586;  194,538;37809,837;15,35824
 637,98; 6006,217;  220,230;38059,492;15,29096
 638,56; 5958,948;  217,539;38136,337;15,14133
 639,13; 5924,007;  203,768;38190,123;15,05867
 639,71; 5999,622;  245,152;38394,802;15,08394
 640,29; 5823,096;  171,152;38119,221;14,89389
 640,86; 5834,124;  196,844;38359,500;14,77172
 641,44; 5807,074;  195,613;38410,933;14,68380
 642,02; 5812,947;  222,152;38363,981;14,65791
 642,59; 5768,590;  195,075;38474,337;14,56014
 643,17; 5739,155;  195,921;38457,694;14,48766
 643,74; 5745,798;  186,228;38548,281;14,49237
 644,32; 5714,133;  217,151;38467,021;14,37124
 644,89; 5698,852;  207,382;38420,839;14,37051
 645,47; 5654,110;  237,074;38521,349;14,14951
 646,05; 5610,984;  206,536;38420,705;14,14252
 646,62; 5554,780;  201,844;38402,907;14,01253
 647,20; 5556,577;  207,690;38607,956;13,92930
 647,77; 5447,373;  185,767;38427,004;13,75899
 648,35; 5490,785;  180,074;38225,745;13,95878
 648,92; 5435,504;  217,305;38309,794;13,69876
 649,50; 5372,685;  175,459;38234,996;13,65552
 650,08; 5342,713;  171,382;38187,660;13,60294
 650,65; 5350,817;  185,228;38396,554;13,51848
 651,23; 5390,767;  165,689;39107,910;13,41751
 651,80; 5490,640;  179,535;40033,113;13,32654
 652,38; 5518,591;  194,766;40427,469;13,23258
 652,95; 5551,156;  163,458;40771,671;13,26751
 653,53; 5553,183;  190,766;41022,181;13,13307
 654,10; 5560,211;  222,151;41124,076;13,05088
 654,68; 5538,315;  190,689;41047,509;13,08870
 655,25; 5504,880;  178,535;41136,634;13,00438
 655,83; 5463,984;  178,612;41312,836;12,84909
 656,40; 5483,473;  214,689;41245,731;12,84097
 656,98; 5475,500;  187,920;41228,395;12,88382
 657,55; 5389,758;  198,227;41059,136;12,70537
 658,13; 5333,862;  190,843;40647,338;12,71247
 658,70; 5268,505;  203,842;40417,156;12,59449
 659,28; 5149,532;  180,150;39642,127;12,59284
 659,85; 5026,175;  196,612;38796,945;12,51171
 660,43; 5027,279;  213,073;38870,763;12,45342
 661,00; 5017,768;  191,304;38975,734;12,44433
 661,58; 4986,641;  183,765;39279,783;12,28482
 662,15; 4988,053;  174,458;39463,600;12,25172
 662,73; 5081,849;  233,611;39757,803;12,26651
 663,30; 5035,030;  186,534;40068,005;12,15726
 663,88; 5033,596;  197,765;40163,822;12,09984
 664,45; 5081,700;  183,227;40366,179;12,19043
 665,03; 5099,496;  179,842;40832,381;12,10172
 665,60; 5221,754;  262,534;41160,429;12,12586
 666,17; 5151,859;  190,765;41403,401;12,03780
 666,75; 5172,886;  188,457;41655,988;12,02008
 667,32; 5231,144;  215,072;41977,806;12,01088
 667,90; 5251,325;  188,072;42194,085;12,05364
 668,47; 5291,967;  208,149;42570,672;12,00074
 669,05; 5315,456;  177,842;42819,951;12,04822
 669,62; 5256,252;  163,995;42916,692;11,91096
 670,19; 5279,818;  172,688;43051,971;11,91048
 670,77; 5288,845;  197,226;43265,865;11,82210
 671,34; 5279,411;  176,072;43150,683;11,87524
 671,92; 5305,207;  169,918;43589,347;11,82717
 672,49; 5282,773;  196,072;43523,934;11,74002
 673,06; 5248,569;  154,918;43520,828;11,74575
 673,64; 5264,904;  172,995;43528,338;11,74459
 674,21; 5239,855;  161,764;43487,695;11,72067
 674,79; 5355,805;  193,995;43788,589;11,84048
 675,36; 5328,601;  198,149;43863,792;11,74940
 675,93; 5314,859;  167,995;43710,686;11,82027
 676,51; 5345,656;  182,225;43909,581;11,80824
 677,08; 5338,068;  188,687;43958,937;11,76457
 677,65; 5318,325;  187,918;44171,370;11,66440
 678,23; 5382,276;  193,379;44278,957;11,77005
 678,80; 5382,995;  169,071;44424,159;11,78152
 679,38; 5373,869;  175,379;44556,515;11,71329
 679,95; 5416,280;  186,841;44784,871;11,72572
 680,52; 5414,308;  175,917;45115,997;11,65639
 681,10; 5465,719;  184,917;45545,814;11,64175
 681,67; 5498,439;  197,533;45819,248;11,61926
 682,24; 5488,235;  163,610;45886,604;11,64540
 682,82; 5570,647;  175,456;46435,268;11,66280
 683,39; 5648,905;  214,148;46738,778;11,68146
 683,96; 5642,009;  178,071;47100,980;11,64450
 684,54; 5649,575;  163,686;47315,721;11,63447
 685,11; 5747,294;  216,994;47796,077;11,62339
 685,68; 5739,552;  183,609;48151,202;11,58270
 686,25; 5747,887;  174,763;48245,712;11,59354
 686,83; 5763,068;  177,994;48409,837;11,57964
 687,40; 5822,711;  164,301;48766,578;11,64227
 687,97; 5898,353;  219,763;49137,011;11,60856
 688,55; 5846,534;  163,455;49114,829;11,60964
 689,12; 5874,408;  146,378;49392,031;11,63154
 689,69; 5904,743;  160,686;49510,311;11,63951
 690,26; 5924,231;  172,070;49682,590;11,61806
 690,84; 5958,259;  175,763;49831,100;11,64527
 691,41; 5962,517;  187,301;49880,764;11,62168
 691,98; 5996,005;  189,147;50233,427;11,60344
 692,56; 6003,956;  174,686;50284,168;11,63307
 693,13; 6106,598;  221,916;50345,447;11,74036
 693,70; 6074,625;  192,609;50475,650;11,69781
 694,27; 6046,576;  169,455;50631,467;11,64662
 694,84; 6087,987;  158,916;50728,747;11,72452
 695,42; 6186,630;  216,993;50812,641;11,79872
 695,99; 6164,273;  185,531;51125,920;11,73674
 696,56; 6158,607;  176,762;50773,200;11,82266
 697,13; 6263,096;  182,378;51275,863;11,90116
 697,71; 6263,277;  161,454;51270,989;11,93872
 698,28; 6292,843;  180,916;51717,114;11,85948
 698,85; 6279,409;  145,531;51689,163;11,90036
 699,42; 6338,667;  145,454;51791,519;11,99164
 699,99; 6386,771;  188,070;51950,336;11,97533
 700,57; 6433,875;  182,223;52047,000;12,05375
 701,14; 6428,517;  172,377;52172,203;12,03108
 701,71; 6484,391;  178,377;52392,328;12,07726
 702,28; 6493,341;  171,531;52471,223;12,08766
 702,85; 6535,522;  180,300;52403,502;12,16935
 703,43; 6640,857;  181,531;52774,166;12,28181
 704,00; 6661,961;  195,377;52887,214;12,27246
 704,57; 6634,065;  175,992;52949,724;12,23729
 705,14; 6762,246;  199,531;53182,080;12,38656
 705,71; 6813,196;  203,838;53139,513;12,48564
 706,28; 6738,916;  181,300;53165,946;12,37645
 706,86; 6835,789;  208,300;53405,610;12,45832
 707,43; 6835,124;  226,069;53336,813;12,44391
 708,00; 6855,228;  204,223;53266,322;12,53438
 708,57; 6867,025;  174,069;53150,063;12,63394
 709,14; 6888,206;  200,761;53341,573;12,58439
 709,71; 6916,156;  178,915;53489,083;12,63782
 710,28; 7010,029;  180,530;53723,670;12,75513
 710,86; 7003,518;  200,761;53711,411;12,71290
 711,43; 7088,468;  210,376;53873,382;12,81719
 712,00; 7098,572;  186,761;53907,046;12,86630
 712,57; 7163,677;  201,453;54009,095;12,93910
 713,14; 7244,011;  179,145;54185,989;13,08143
 713,71; 7198,731;  187,222;54008,807;13,02732
 714,28; 7267,374;  194,761;54082,702;13,12467
 714,85; 7246,401;  178,991;53894,596;13,15709
 715,42; 7309,889;  184,376;54027,183;13,23392
 716,00; 7408,378;  250,530;54201,078;13,26743
 716,57; 7441,559;  193,068;54324,126;13,39063
 717,14; 7453,586;  177,376;54273,252;13,45058
 717,71; 7505,767;  172,760;54275,531;13,55385
 718,28; 7555,410;  216,145;54345,887;13,55866
 718,85; 7569,283;  167,145;54372,089;13,65584
 719,42; 7632,541;  204,299;54609,215;13,65362
 719,99; 7617,492;  174,529;54345,725;13,73970
 720,56; 7716,596;  191,991;54672,158;13,81164
 721,13; 7734,854;  176,529;54740,206;13,85230
 721,70; 7781,112;  170,068;54607,101;13,98137
 722,27; 7859,985;  196,837;54661,380;14,06998
 722,84; 7949,705;  237,991;54881,121;14,11287
 723,41; 7932,578;  167,683;54741,631;14,22821
 723,98; 7994,605;  182,837;54994,064;14,25213
 724,55; 8055,248;  214,990;55060,805;14,29509
 725,12; 8055,736;  154,221;55026,776;14,39976
 725,69; 8153,994;  180,298;55180,286;14,49763
 726,27; 8233,022;  187,375;55261,719;14,60870
 726,84; 8368,818;  198,836;55627,383;14,73966
 727,41; 8395,614;  208,606;55544,816;14,79503
 727,98; 8458,180;  207,452;55875,941;14,82118
 728,55; 8570,592;  216,836;55755,144;15,04143
 729,12; 8561,157;  167,605;55813,961;15,08374
 729,69; 8724,723;  210,221;55962,779;15,27195
 730,26; 8753,289;  198,682;56213,443;15,27206
 730,82; 8789,701;  184,913;56095,030;15,39039
 731,39; 8794,112;  194,374;56137,617;15,37226
 731,96; 8937,140;  169,990;56522,127;15,55779
 732,53; 9009,475;  190,067;56737,329;15,59652
 733,10; 9082,502;  203,451;56801,224;15,68799
 733,67; 9163,914;  205,605;57072,887;15,75301
 734,24; 9148,710;  182,605;56736,474;15,85410
 734,81; 9182,891;  200,066;56852,754;15,85595
 735,38; 9238,764;  191,759;56642,571;16,02635
 735,95; 9191,638;  189,143;56516,774;15,98238
 736,52; 9270,280;  206,759;56567,668;16,08122
 737,09; 9258,692;  214,066;56263,563;16,13685
 737,66; 9351,335;  226,989;56505,457;16,21285
 738,23; 9426,746;  181,758;56571,890;16,39469
 738,80; 9595,851;  234,066;56727,016;16,57160
 739,37; 9600,647;  220,451;57013,449;16,51647
 739,94; 9681,905;  191,220;57087,190;16,68077
 740,51; 9742,624;  288,989;57217,315;16,60621
 741,07; 9805,652;  188,758;57010,210;16,92476
 741,64; 9939,987;  210,681;57304,643;17,04087
 742,21; 9933,860;  198,297;57378,922;17,02598
 742,78; 9916,887;  164,296;57089,278;17,13236
 743,35;10016,376;  185,450;57470,019;17,16156
 743,92;10119,326;  221,066;57462,221;17,29221
 744,49;10207,738;  212,681;57394,193;17,47953
 745,06;10220,380;  186,066;57407,318;17,53599
 745,63;10314,331;  177,065;57428,136;17,70668
 746,19;10390,358;  182,835;57418,646;17,83416
 746,76;10381,385;  194,527;57385,156;17,81211
 747,33;10439,258;  186,911;57375,512;17,92726
 747,90;10551,978;  204,142;57591,022;18,03171
 748,47;10582,928;  197,758;57503,916;18,12226
 749,04;10661,340;  204,219;57567,426;18,22967
 749,61;10723,367;  221,065;57412,859;18,36330
 750,17;10793,087;  219,527;57580,831;18,43326
 750,74;10835,191;  207,603;57433,418;18,57132
 751,31;10893,372;  187,680;57384,928;18,71714
 751,88;10897,014;  175,757;57254,515;18,78327
 752,45;11013,888;  188,526;57389,794;18,92504
 753,02;11072,838;  213,680;57212,150;19,05167
 753,58;11060,865;  180,449;57085,352;19,12035
 754,15;11196,816;  184,834;57280,478;19,28690
 754,72;11236,843;  183,295;57070,449;19,43066
 755,29;11254,024;  181,834;56891,421;19,52437
 755,86;11296,974;  199,065;57059,239;19,51790
 756,42;11395,540;  211,065;56937,902;19,71637
 756,99;11352,413;  182,680;56933,489;19,68207
 757,56;11470,748;  193,372;56864,153;19,89981
 758,13;11506,775;  162,141;56730,279;20,05481
 758,70;11636,033;  184,910;56782,635;20,23248
 759,26;11670,983;  190,295;56940,606;20,23018
 759,83;11821,472;  201,064;57008,116;20,45592
 760,40;11803,192;  190,372;56726,626;20,54048
 760,97;11879,988;  177,218;56920,059;20,62422
 761,53;11802,938;  164,526;56539,339;20,64470
 762,10;11942,812;  164,756;56492,925;20,90971
 762,67;11978,762;  203,295;56444,128;20,93758
 763,24;11927,635;  157,525;55971,945;21,08794
 763,80;11960,201;  185,833;56198,609;21,02086
 764,37;12010,228;  179,448;56055,427;21,17328
 764,94;11993,563;  168,602;55661,322;21,30903
 765,50;12082,436;  165,371;55636,601;21,48333
 766,07;12179,848;  203,141;55684,341;21,58697
 766,64;12147,952;  167,371;55326,159;21,72017
 767,21;12137,749;  173,756;55232,054;21,72968
 767,77;12255,930;  190,602;55148,564;21,95374
 768,34;12290,880;  196,525;55235,689;21,97409
 768,91;12363,984;  196,371;54968,815;22,21484
 769,47;12432,550;  188,833;55026,940;22,32702
 770,04;12451,731;  191,833;54845,911;22,43181
 770,61;12455,450;  181,217;54715,498;22,50737
 771,18;12460,247;  170,832;54589,008;22,58329
 771,74;12601,735;  190,294;54655,364;22,78789
 772,31;12610,609;  176,140;54451,028;22,91017
 772,88;12612,098;  169,448;54240,846;23,01152
 773,44;12656,663;  166,448;54021,971;23,19208
 774,01;12702,921;  193,909;54134,943;23,19016
 774,58;12696,718;  177,140;53742,914;23,37235
 775,14;12849,976;  172,217;53925,271;23,58519
 775,71;12875,387;  174,678;53789,319;23,68888
 776,27;12936,184;  218,293;53678,829;23,78931
 776,84;13046,519;  245,063;53766,262;23,91848
 777,41;13036,777;  190,447;53549,849;24,07510
 777,97;13025,958;  181,986;53314,897;24,17329
 778,54;13052,985;  194,601;53366,869;24,18250
 779,11;13229,243;  212,139;53356,456;24,49388
 779,67;13203,501;  169,601;53295,504;24,53398
 780,24;13290,836;  193,909;53023,937;24,79069
 780,80;13318,401;  214,370;53013,678;24,81857
 781,37;13423,352;  205,216;52987,188;25,04290
 781,94;13420,148;  191,755;52730,160;25,17852
 782,50;13488,483;  198,216;52704,439;25,31179
 783,07;13529,818;  213,139;52829,641;25,30894
 783,63;13605,845;  181,985;52499,151;25,65861
 784,20;13639,180;  207,985;52386,507;25,74085
 784,77;13652,746;  194,600;52324,094;25,81676
 785,33;13658,157;  168,447;52102,527;25,97468
 785,90;13728,569;  197,985;52037,730;26,10079
 786,46;13783,442;  214,677;51925,317;26,23979
 787,03;13756,162;  183,831;51839,903;26,27442
 787,59;13807,112;  198,369;51767,260;26,38944
 788,16;13960,832;  197,369;51654,000;26,74769
 788,73;13990,397;  200,985;51537,049;26,86106
 789,29;13967,271;  190,062;51084,559;27,07014
 789,86;14016,067;  209,138;50995,453;27,18632
 790,42;14067,787;  204,446;50920,810;27,33504
 790,99;14099,660;  207,369;50563,320;27,58818
 791,55;14113,764;  191,369;50593,906;27,62241
 792,12;14137,407;  216,984;50541,878;27,66111
 792,68;14170,434;  202,830;50166,311;27,95563
 793,25;14143,076;  212,984;49944,744;28,01046
 793,81;14286,027;  253,138;49621,331;28,42496
 794,38;14160,054;  168,907;49381,379;28,43008
 794,94;14230,312;  196,446;49312,505;28,57287
 795,51;14262,493;  214,369;48964,938;28,81633
 796,07;14261,212;  203,599;48756,525;28,95317
 796,64;14362,317;  218,984;48868,958;29,07161
 797,20;14308,036;  209,445;48385,929;29,26447
 797,77;14359,986;  184,138;47988,362;29,65397
 798,33;14352,860;  199,368;47845,103;29,70568
 798,90;14363,502;  223,291;47800,613;29,72049
 799,46;14308,299;  208,907;47259,662;29,96635
 800,03;14418,634;  208,214;47214,864;30,23066
 800,59;14387,430;  222,368;46957,528;30,30922
 801,15;14405,611;  221,753;46844,884;30,42236
 801,72;14338,407;  226,137;46459,779;30,52381
 802,28;14358,050;  238,830;46156,519;30,74898
 802,85;14275,077;  206,830;46055,722;30,68394
 803,41;14348,335;  209,906;45829,924;30,99172
 803,98;14190,516;  211,599;45325,588;30,98577
 804,54;14180,390;  212,676;45133,252;31,09425
 805,11;14173,032;  212,522;44999,915;31,17062
 805,67;14213,982;  238,675;44844,349;31,33078
 806,23;14085,702;  215,522;44381,705;31,40453
 806,80;14172,498;  222,829;44288,522;31,65653
 807,36;14170,218;  232,060;44206,417;31,69610
 807,93;14160,322;  239,829;43938,081;31,85595
 808,49;14117,426;  203,598;43598,206;32,06349
 809,05;14106,069;  191,906;43368,870;32,22589
 809,62;14158,480;  230,290;43348,765;32,30214
 810,18;14187,354;  222,983;43249,582;32,45521
 810,74;14105,535;  190,983;42947,400;32,54377
 811,31;14095,947;  193,829;42808,679;32,62271
 811,87;14178,435;  207,521;42600,343;32,95585
 812,44;14195,078;  240,983;42570,776;32,96519
 813,00;14099,951;  166,752;42252,363;33,10680
 813,56;14225,286;  218,829;42345,258;33,24862
 814,13;14206,006;  222,367;42177,383;33,33008
 814,69;14266,341;  211,367;41986,508;33,64435
 815,25;14189,291;  188,752;41599,403;33,80903
 815,82;14232,626;  233,751;41614,374;33,82954
 816,38;14280,961;  246,751;41365,884;34,13061
 816,94;14160,065;  203,059;41060,010;34,16066
 817,51;14216,169;  186,444;40868,904;34,48593
 818,07;14136,581;  205,367;40651,953;34,44349
 818,63;14126,839;  221,751;40447,309;34,56779
 819,20;14238,789;  217,982;40328,973;34,95503
 819,76;14122,585;  202,443;39945,175;35,02563
 820,32;14231,382;  247,520;39857,147;35,30420
 820,89;14219,178;  234,905;39659,349;35,47107
 821,45;14145,898;  198,597;39336,397;35,63639
 822,01;14170,925;  222,751;39097,369;35,87990
 822,57;14122,337;  229,366;38904,802;35,92195
 823,14;14060,287;  186,905;38724,389;35,99971
 823,70;14105,776;  203,828;38463,899;36,33539
 824,26;14082,572;  201,135;38282,870;36,45169
 824,82;14154,830;  231,981;38128,227;36,73939
 825,39;14023,396;  208,751;37809,737;36,74011
 825,95;14094,192;  231,135;37881,400;36,82061
 826,51;14016,065;  226,135;37413,680;37,08212
 827,08;14123,323;  255,058;37546,267;37,18910
 827,64;14043,658;  234,520;37333,623;37,22230
 828,20;13994,070;  203,827;37073,825;37,40234
 828,76;14088,636;  231,981;37046,643;37,63896
 829,32;14131,817;  237,366;36879,691;37,91913
 829,89;14053,152;  193,135;36702,663;37,96274
 830,45;14117,179;  215,058;36642,942;38,16341
 831,01;14123,514;  217,904;36452,144;38,37699
 831,57;14062,695;  225,365;36346,731;38,30788
 832,14;14169,107;  210,904;36376,472;38,59528
 832,70;14101,442;  200,058;36099,982;38,72260
 833,26;14140,315;  185,519;36024,953;38,93699
 833,82;14194,881;  211,673;35978,079;39,09593
 834,38;14292,446;  201,519;35897,973;39,47430
 834,95;14227,704;  193,980;35778,560;39,43765
 835,51;14252,578;  172,596;35642,301;39,69580
 836,07;14387,605;  216,134;35712,503;39,92372
 836,63;14436,632;  232,826;35781,552;39,95588
 837,19;14487,044;  209,057;35477,446;40,48381
 837,75;14356,840;  174,596;35236,187;40,44952
 838,32;14528,329;  225,826;35364,389;40,70315
 838,88;14625,587;  220,442;35382,053;40,96839
 839,44;14558,383;  209,519;35322,794;40,86450
 840,00;14583,718;  204,749;35187,689;41,10280
 840,56;14519,130;  189,057;34877,737;41,31052
 841,12;14612,849;  196,749;34811,632;41,64712
 841,68;14581,800;  183,749;34663,603;41,75786
 842,25;14609,904;  201,749;34793,267;41,65228
 842,81;14582,085;  196,441;34370,546;42,09516
 843,37;14611,958;  186,980;34470,826;42,07515
 843,93;14663,447;  201,749;34398,720;42,28941
 844,49;14756,551;  216,133;34443,230;42,48218
 845,05;14707,271;  180,287;34171,202;42,73784
 845,61;14798,759;  226,595;34274,019;42,79961
 846,17;14775,325;  202,903;34148,299;42,92901
 846,73;14825,583;  213,749;34074,962;43,15213
 847,29;14803,610;  186,595;33753,472;43,54595
 847,86;14841,560;  193,979;33848,521;43,52334
 848,42;14791,126;  190,902;33540,800;43,77892
 848,98;14828,692;  203,902;33503,695;43,91856
 849,54;14851,103;  206,133;33561,359;43,90608
 850,10;14845,977;  208,595;33397,868;44,10275
 850,66;14863,466;  191,287;33204,994;44,44269
 851,22;14896,570;  192,441;33273,965;44,44816
 851,78;14950,597;  234,441;33214,706;44,62110
 852,34;14903,470;  222,133;32956,293;44,85020
 852,90;14908,959;  211,056;32944,188;44,90222
 853,46;14847,986;  191,517;32622,390;45,19295
 854,02;14908,783;  213,286;32732,823;45,18975
 854,58;14842,656;  196,979;32437,948;45,42567
 855,14;14844,606;  195,517;32381,305;45,51415
 855,70;14815,018;  161,825;32202,507;45,73309
 856,26;14902,661;  211,055;32132,709;46,02395
 856,82;14842,457;  196,902;31943,450;46,13275
 857,38;14863,715;  228,517;31904,806;46,20238
 857,94;14875,973;  202,209;31825,701;46,40147
 858,50;14871,077;  215,671;31719,903;46,51885
 859,06;14827,489;  194,978;31564,105;46,64622
 859,62;14937,055;  211,671;31461,308;47,12178
 860,18;14930,236;  199,517;31234,971;47,46416
 860,74;14926,109;  174,209;31134,558;47,64772
 861,30;14882,675;  185,901;30921,838;47,81625
 861,86;15008,163;  235,517;30921,040;48,14207
 862,42;14940,190;  199,824;30755,242;48,24142
 862,98;14936,064;  231,978;30739,598;48,19808
 863,54;14902,553;  205,055;30572,570;48,39875
 864,10;14974,426;  202,286;30565,695;48,65112
 864,66;14878,068;  190,978;30311,205;48,76155
 865,22;14893,173;  198,285;30183,946;49,00638
 865,78;14918,892;  208,439;30096,302;49,21882
 866,34;14853,381;  198,208;29955,427;49,24913
 866,90;14936,485;  220,208;29864,322;49,64317
 867,45;14872,589;  209,208;29665,909;49,77944
 868,01;14812,155;  213,747;29548,650;49,76464
 868,57;14761,105;  190,362;29359,237;49,95305
 869,13;14799,363;  184,131;29243,977;50,29356
 869,69;14772,159;  195,747;29100,410;50,42928
 870,25;14754,571;  183,131;28971,536;50,61566
 870,81;14830,906;  194,593;28962,200;50,87776
 871,37;14801,549;  214,439;28801,479;51,02700
 871,93;14769,422;  220,669;28665,758;51,14680
 872,49;14766,988;  223,362;28491,345;51,44911
 873,04;14710,246;  198,439;28222,086;51,78415
 873,60;14685,042;  182,977;28131,365;51,88874
 874,16;14703,454;  212,592;28031,337;52,09028
 874,72;14730,838;  202,669;27894,567;52,46361
 875,28;14742,454;  209,285;27946,260;52,39637
 875,84;14716,992;  206,592;27892,798;52,41022
 876,40;14714,838;  196,131;27799,106;52,59834
 876,95;14741,223;  213,746;27745,952;52,76539
 877,51;14816,454;  230,746;27755,260;52,99170
 878,07;14874,915;  249,977;27778,490;53,12651
 878,63;14817,762;  199,054;27740,875;53,07822
 879,19;14836,838;  224,977;27715,644;53,15208
 879,75;14911,069;  196,900;27768,875;53,36640
 880,30;14945,992;  193,208;27740,798;53,55381
 880,86;15138,454;  237,669;27948,798;53,77184
 881,42;15113,223;  190,746;27995,952;53,66792
 881,98;15202,915;  221,823;28080,260;53,77578
 882,54;15235,915;  194,746;28214,952;53,67972
 883,09;15423,223;  217,669;28222,567;54,29605
 883,65;15500,608;  197,438;28296,183;54,46211
 884,21;15667,915;  235,362;28611,952;54,38481
 884,77;15701,454;  204,900;28568,413;54,63552
 885,32;15886,992;  208,592;28737,260;54,95665
 885,88;15984,992;  235,515;28818,260;55,10135
 886,44;16125,685;  213,362;29018,029;55,24217
 887,00;16114,992;  229,131;29005,260;55,20500
 887,56;16293,146;  204,285;29124,721;55,63146
 888,11;16234,608;  208,900;29123,260;55,42474
 888,67;16453,069;  245,592;29285,106;55,81181
 889,23;16497,838;  215,977;29233,337;56,11076
 889,79;16408,223;  194,131;29203,490;55,89262
 890,34;16496,685;  214,285;29125,337;56,31895
 890,90;16613,454;  267,285;29395,490;56,11801
 891,46;16611,454;  199,438;29217,721;56,55750
 892,01;16615,223;  236,900;29188,952;56,57051
 892,57;16622,838;  236,285;29105,260;56,76181
 893,13;16607,300;  203,746;28905,721;57,15131
 893,69;16550,608;  206,438;28872,106;57,01653
 894,24;16515,069;  211,362;28718,183;57,19230
 894,80;16466,223;  217,362;28590,875;57,26771
 895,36;16450,915;  215,977;28459,029;57,48295
 895,91;16429,223;  215,438;28251,567;57,83175
 896,47;16435,223;  237,515;28129,413;58,07316
 897,03;16343,762;  203,977;27957,490;58,15402
 897,58;16227,608;  225,900;27905,644;57,81017
 898,14;16229,223;  223,669;27669,337;58,31723
 898,70;16152,992;  191,208;27466,490;58,52106
 899,25;16241,992;  218,362;27531,029;58,66740
 899,81;16147,069;  236,900;27286,875;58,81769
 900,37;16025,992;  181,515;27045,490;58,98039
 900,92;16064,531;  218,900;27003,029;59,16052
 901,48;16022,992;  198,592;26994,875;59,05446
 902,03;15933,300;  204,746;26775,567;59,19484
 902,59;15914,992;  211,131;26706,798;59,26955
 903,15;15882,531;  237,592;26565,952;59,42238
 903,70;15750,146;  213,131;26298,029;59,56326
 904,26;15727,915;  201,515;26190,029;59,74332
 904,82;15785,531;  214,669;26156,337;60,02259
 905,37;15733,838;  222,131;26028,567;60,10790
 905,93;15658,608;  205,362;25822,644;60,32352
 906,48;15632,069;  215,977;25838,567;60,16602
 907,04;15660,300;  232,054;25749,260;60,46213
 907,60;15553,377;  208,592;25580,875;60,47853
 908,15;15558,454;  199,131;25376,567;61,00432
 908,71;15543,915;  231,054;25396,029;60,84990
 909,26;15433,454;  207,823;25226,721;60,85652
 909,82;15474,838;  224,900;25071,106;61,37733
 910,37;15423,838;  259,515;25026,337;61,22838
 910,93;15327,838;  203,054;24826,490;61,42435
 911,48;15269,762;  201,515;24648,413;61,63664
 912,04;15226,300;  197,515;24614,875;61,54959
 912,60;15309,915;  222,592;24608,337;61,86944
 913,15;15249,915;  223,746;24384,413;62,19269
 913,71;15097,454;  216,285;24195,337;62,05904
 914,26;15125,915;  195,977;24064,798;62,54996
 914,82;15088,762;  212,054;23967,875;62,62342
 915,37;15029,992;  205,592;23966,721;62,38929
 915,93;15014,838;  258,208;23832,721;62,59570
 916,48;14946,146;  205,592;23705,952;62,72480
 917,04;14892,838;  231,823;23544,337;62,88904
 917,59;14878,915;  238,515;23475,721;63,00413
 918,15;14792,069;  184,746;23311,029;63,16330
 918,70;14818,377;  214,054;23211,875;63,50307
 919,26;14860,915;  212,977;23183,875;63,76737
 919,81;14780,915;  199,208;22977,413;64,01605
 920,37;14758,838;  206,823;22853,952;64,25545
 920,92;14797,300;  225,900;22825,798;64,47551
 921,48;14649,300;  190,900;22624,721;64,44912
 922,03;14665,454;  198,362;22584,490;64,62525
 922,59;14633,454;  203,669;22434,567;64,90869
 923,14;14586,069;  203,208;22254,490;65,22460
 923,69;14590,300;  237,208;22258,490;65,17828
 924,25;14628,454;  231,823;22196,490;65,54450
 924,80;14446,377;  211,823;21988,260;65,36677
 925,36;14370,762;  198,362;21896,567;65,31600
 925,91;14357,300;  213,054;21771,029;65,61027
 926,47;14329,685;  200,438;21696,106;65,73067
 927,02;14363,915;  253,977;21614,337;66,05665
 927,57;14274,377;  218,823;21509,183;66,01840
 928,13;14247,992;  207,746;21357,875;66,38374
 928,68;14239,685;  213,362;21359,875;66,32925
 929,24;14133,146;  187,131;21070,029;66,78199
 929,79;14110,223;  203,669;21006,952;66,84788
 930,34;13986,685;  215,592;20851,490;66,73367
 930,90;13996,608;  207,131;20847,798;66,80732
 931,45;14024,915;  214,131;20843,490;66,94723
 932,01;13922,685;  229,515;20694,183;66,91127
 932,56;13887,838;  238,438;20547,721;67,20769
 933,11;13969,762;  244,592;20476,798;67,83822
 933,67;13860,377;  211,208;20294,183;67,96388
 934,22;13830,762;  209,208;20273,106;67,89086
 934,77;13777,377;  233,438;20123,798;68,09298
 935,33;13769,069;  217,823;20039,875;68,36450
 935,88;13702,069;  228,054;19944,260;68,33980
 936,43;13651,146;  210,438;19825,106;68,52376
 936,99;13639,069;  216,131;19786,183;68,58918
 937,54;13498,146;  196,977;19597,875;68,55955
 938,09;13553,454;  221,977;19586,183;68,84598
 938,65;13501,608;  231,054;19423,183;69,14581
 939,20;13411,762;  198,362;19304,644;69,15736
 939,75;13338,608;  197,285;19205,029;69,13668
 940,31;13351,838;  201,131;19061,413;69,72699
 940,86;13378,992;  219,669;19111,644;69,65562
 941,41;13277,377;  273,823;19012,337;69,39480
 941,96;13227,146;  209,438;18860,106;69,79754
 942,52;13212,838;  217,746;18744,952;70,14059
 943,07;13115,608;  195,669;18638,644;70,05344
 943,62;13101,762;  206,900;18532,029;70,36710
 944,18;13128,300;  189,900;18484,183;70,72373
 944,73;13095,377;  206,362;18377,106;70,93279
 945,28;13023,300;  177,515;18157,106;71,44648
 945,83;13021,838;  207,515;18180,106;71,29926
 946,39;12990,146;  207,208;18103,644;71,42728
 946,94;12975,146;  232,208;18063,413;71,46426
 947,49;12906,992;  200,900;17941,490;71,62159
 948,04;12962,531;  234,977;17890,490;72,08827
 948,59;12931,915;  231,592;17853,260;72,07220
 949,15;12929,531;  198,131;17732,413;72,60862
 949,70;12844,377;  195,362;17628,952;72,55542
 950,25;12801,531;  217,362;17560,413;72,56029
 950,80;12796,377;  173,823;17422,644;73,17923
 951,36;12696,531;  173,823;17359,183;72,86846
 951,91;12800,223;  225,746;17327,875;73,52580
 952,46;12602,069;  195,285;17151,106;73,17124
 953,01;12737,377;  218,669;17183,260;73,79316
 953,56;12603,838;  200,823;17027,106;73,71215
 954,11;12628,685;  224,438;16970,337;74,07334
 954,67;12570,454;  206,362;16925,721;73,95075
 955,22;12521,146;  191,362;16792,875;74,26904
 955,77;12586,608;  230,823;16717,721;74,94305
 956,32;12543,608;  255,515;16593,337;75,21255
 956,87;12426,069;  201,592;16475,644;75,11637
 957,42;12446,146;  208,285;16469,490;75,25802
 957,98;12461,992;  204,054;16331,567;76,00638
 958,53;12419,223;  224,669;16315,106;75,78759
 959,08;12398,146;  196,669;16148,106;76,49140
 959,63;12301,915;  208,131;16079,183;76,20027
 960,18;12326,069;  217,285;16020,183;76,62382
 960,73;12340,146;  214,285;15973,337;76,94537
 961,28;12265,146;  190,285;15852,106;77,09743
 961,83;12295,223;  225,438;15834,106;77,32745
 962,39;12219,608;  192,515;15666,337;77,72542
 962,94;12121,300;  217,362;15576,337;77,50477
 963,49;12043,069;  209,515;15429,106;77,75212
 964,04;12007,915;  224,054;15424,644;77,52239
 964,59;11997,992;  187,438;15327,952;78,00630
 965,14;11936,223;  227,285;15264,183;77,86804
 965,69;11798,531;  217,054;15197,183;77,31227
 966,24;11745,838;  199,285;15073,952;77,62563
 966,79;11672,146;  221,208;14977,644;77,59962
 967,34;11580,685;  185,438;14850,952;77,70097
 967,89;11576,992;  187,592;14833,952;77,76267
 968,44;11542,223;  218,669;14708,644;78,14750
 968,99;11482,762;  214,362;14658,260;78,01495
 969,55;11456,608;  215,746;14575,413;78,28079
 970,10;11433,146;  214,823;14487,721;78,59878
 970,65;11329,762;  218,592;14401,260;78,34330
 971,20;11282,762;  198,977;14237,490;78,95269
 971,75;11225,146;  190,362;14092,644;79,37390
 972,30;11206,992;  211,669;14052,721;79,43994
 972,85;11171,531;  188,823;13959,798;79,75258
 973,40;11159,685;  199,208;13830,721;80,40543
 973,95;11115,915;  213,208;13790,029;80,30383
 974,50;11136,069;  227,438;13743,875;80,70641
 975,05;11031,531;  207,054;13596,644;80,84248
 975,60;11024,762;  226,054;13553,721;81,02474
 976,15;11005,685;  203,054;13518,875;81,12628
 976,70;10991,608;  227,746;13395,875;81,74177
 977,25;10972,838;  221,746;13325,644;82,04499
 977,80;10897,223;  198,208;13137,875;82,68385
 978,35;10781,377;  218,900;13099,337;82,00403
 978,89;10742,838;  192,977;12973,875;82,54398
 979,44;10773,069;  208,515;12963,260;82,82843
 979,99;10607,915;  201,669;12699,490;83,26448
 980,54;10560,377;  242,977;12649,106;83,16373
 981,09;10543,762;  221,515;12634,490;83,15691
 981,64;10441,454;  222,746;12474,644;83,40510
 982,19;10410,608;  251,669;12398,875;83,63190
 982,74;10272,223;  227,438;12283,875;83,31471
 983,29;10196,915;  207,054;12128,952;83,79422
 983,84;10109,685;  221,054;12035,644;83,69846
 984,39;10075,069;  266,592;12028,490;83,39196
 984,94; 9983,223;  188,900;11850,106;83,99065
 985,49; 9911,300;  232,669;11772,952;83,86823
 986,03; 9899,377;  234,131;11732,337;84,05873
 986,58; 9858,838;  250,900;11542,798;85,08701
 987,13; 9741,377;  218,746;11436,337;84,89016
 987,68; 9620,069;  237,900;11319,337;84,66564
 988,23; 9622,531;  229,131;11326,337;84,64653
 988,78; 9517,608;  211,592;11094,567;85,50985
 989,33; 9425,608;  234,285;11014,798;85,25868
 989,88; 9477,838;  247,900;10998,183;85,85763
 990,42; 9311,608;  212,823;10821,875;85,76435
 990,97; 9228,762;  206,592;10711,413;85,88599
 991,52; 9172,454;  241,977;10690,260;85,47316
 992,07; 9149,300;  240,592;10568,413;86,25931
 992,62; 9038,762;  222,746;10467,337;86,05532
 993,17; 9004,992;  239,285;10346,567;86,72665
 993,71; 8903,223;  229,977;10217,106;86,84424
 994,26; 8813,146;  208,362;10090,029;87,07827
 994,81; 8794,608;  248,823;10088,567;86,84966
 995,36; 8629,915;  207,977; 9906,567;86,83673
 995,91; 8630,300;  221,823; 9849,644;87,33520
 996,45; 8537,762;  221,592; 9761,029;87,17673
 997,00; 8411,838;  196,746; 9621,875;87,16159
 997,55; 8446,685;  225,900; 9569,875;87,97952
 998,10; 8321,223;  250,131; 9448,567;87,74418
 998,65; 8270,223;  215,054; 9386,490;87,82887
 999,19; 8207,146;  236,208; 9250,106;88,42943
 999,74; 8148,838;  254,362; 9150,337;88,74212
1000,29; 8135,223;  231,285; 9101,337;89,10814
1000,84; 7986,685;  219,746; 8956,490;88,89969
1001,38; 7893,377;  224,054; 8857,413;88,83359
1001,93; 7901,300;  236,438; 8790,413;89,60584
1002,48; 7788,762;  209,208; 8639,260;89,91112
1003,03; 7801,454;  239,054; 8581,644;90,64810
1003,57; 7686,762;  233,285; 8459,106;90,61073
1004,12; 7640,608;  256,362; 8424,029;90,40826
1004,67; 7622,146;  213,669; 8306,798;91,54033
1005,22; 7469,762;  217,438; 8128,567;91,67242
1005,76; 7376,838;  208,285; 8041,413;91,51584
1006,31; 7341,300;  238,054; 8020,952;91,26737
1006,86; 7302,992;  216,592; 7854,721;92,77665
1007,40; 7197,762;  207,362; 7722,183;93,02151
1007,95; 7132,685;  226,823; 7679,875;92,65817
1008,50; 7040,992;  229,208; 7576,260;92,71453
1009,04; 7000,685;  223,515; 7426,952;94,08245
1009,59; 6886,531;  230,362; 7305,260;94,08149
1010,14; 6789,300;  216,515; 7213,798;93,93339
1010,68; 6720,531;  222,592; 7073,029;94,85437
1011,23; 6570,608;  223,054; 6976,337;93,99212
1011,78; 6533,608;  226,362; 6949,567;93,81308
1012,32; 6460,223;  234,208; 6817,106;94,57864
1012,87; 6472,762;  244,592; 6759,875;95,59323
1013,42; 6306,685;  217,054; 6651,798;94,63672
1013,96; 6352,377;  248,054; 6665,644;95,11861
1014,51; 6277,146;  187,438; 6541,644;95,83743
1015,06; 6294,069;  190,823; 6563,413;95,77339
1015,60; 6348,685;  268,977; 6603,875;95,97167
1016,15; 6351,838;  217,131; 6581,029;96,39858
1016,69; 6344,685;  219,362; 6592,183;96,11635
1017,24; 6336,377;  203,515; 6614,952;95,65503
1017,79; 6389,915;  242,362; 6666,260;95,69818
1018,33; 6422,531;  218,669; 6645,952;96,52386
1018,88; 6484,300;  224,515; 6727,644;96,25804
1019,42; 6488,146;  219,669; 6695,029;96,80508
1019,97; 6501,069;  216,131; 6701,798;96,90504
1020,51; 6579,531;  232,438; 6727,798;97,71733
1021,06; 6557,069;  198,900; 6726,721;97,40109
1021,61; 6577,223;  191,669; 6679,337;98,42604
1022,15; 6514,608;  171,131; 6656,260;97,81574
1022,70; 6541,992;  215,977; 6651,106;98,30441
1023,24; 6474,223;  211,131; 6634,260;97,50843
1023,79; 6471,531;  225,977; 6554,644;98,68671
1024,33; 6441,069;  204,977; 6513,875;98,84598
1024,88; 6329,685;  223,362; 6409,490;98,70992
1025,42; 6269,377;  228,515; 6312,798;99,28634
1025,97; 6193,223;  210,746; 6220,798;99,54119
1026,51; 6080,069;  183,746; 6119,721;99,33201
1027,06; 6089,992;  211,592; 6090,644;99,98891
1027,60; 5976,454;  217,669; 5963,106;100,23232
1028,15; 5899,915;  215,977; 5864,260;100,63127
1028,69; 5772,146;  182,823; 5754,875;100,30996
1029,24; 5717,377;  192,054; 5702,260;100,27435
1029,78; 5651,300;  197,669; 5573,337;101,45030
1030,33; 5557,531;  186,669; 5471,413;101,62955
1030,87; 5507,454;  206,669; 5435,260;101,38076
1031,42; 5387,454;  196,208; 5321,952;101,27790
1031,96; 5344,069;  210,977; 5266,721;101,52990
1032,51; 5301,992;  196,515; 5181,029;102,42679
1033,05; 5243,531;  223,823; 5123,183;102,45640
1033,60; 5131,531;  176,285; 5016,413;102,37839
1034,14; 5092,454;  207,438; 4937,798;103,26943
1034,69; 5050,300;  207,977; 4890,952;103,40271
1035,23; 4951,762;  214,669; 4825,644;102,73515
1035,77; 4896,762;  208,823; 4753,567;103,15077
1036,32; 4848,146;  182,515; 4679,183;103,75753
1036,86; 4832,838;  208,823; 4631,029;104,56355
1037,41; 4758,762;  225,900; 4570,106;104,34270
1037,95; 4673,531;  197,285; 4478,875;104,54634
1038,50; 4645,608;  206,208; 4419,413;105,36870
1039,04; 4612,608;  229,823; 4396,106;105,19653
1039,58; 4529,992;  191,977; 4271,952;106,32456
1040,13; 4507,223;  205,900; 4232,644;106,81888
1040,67; 4511,377;  231,515; 4220,952;107,27985
1041,21; 4418,915;  240,362; 4134,490;107,30394
1041,76; 4326,146;  191,054; 4041,798;107,38424
1042,30; 4328,915;  210,131; 4005,567;108,51939
1042,85; 4210,838;  202,285; 3944,952;107,10420
1043,39; 4156,762;  182,977; 3902,567;106,83393
1043,93; 4110,992;  230,592; 3840,952;107,47960
1044,48; 4029,762;  218,131; 3782,029;106,95117
1045,02; 4004,531;  205,592; 3719,337;108,11653
1045,56; 3973,762;  227,592; 3712,721;107,49012
1046,11; 3919,531;  217,054; 3637,952;108,23114
1046,65; 3866,762;  222,285; 3593,260;108,11344
1047,19; 3778,377;  203,131; 3541,952;107,08109
1047,74; 3724,146;  196,438; 3461,106;108,05719
1048,28; 3698,762;  217,900; 3456,183;107,49097
1048,82; 3682,300;  232,746; 3444,875;107,39152
1049,37; 3606,300;  214,131; 3353,260;108,06085
1049,91; 3557,069;  210,592; 3303,337;108,20413
1050,45; 3532,300;  233,823; 3275,260;108,45128
1050,99; 3489,223;  223,592; 3208,875;109,39101
1051,54; 3427,838;  200,054; 3155,490;109,21516
1052,08; 3377,454;  233,823; 3143,798;108,02948
1052,62; 3338,454;  228,746; 3106,183;108,07216
1053,16; 3309,377;  202,515; 3023,413;110,13732
1053,71; 3272,762;  218,208; 2998,490;109,86487
1054,25; 3198,762;  229,669; 2944,260;109,37533
1054,79; 3214,838;  224,208; 2919,337;110,96430
1055,33; 3157,377;  200,208; 2847,183;111,71882
1055,88; 3124,069;  217,208; 2836,875;110,96300
1056,42; 3071,223;  237,054; 2800,260;110,57127
1056,96; 3037,146;  222,438; 2756,413;111,07875
1057,50; 2997,992;  224,977; 2719,875;111,14744
1058,05; 2943,915;  211,515; 2668,337;111,21689
1058,59; 2942,377;  236,669; 2644,798;112,35726
1059,13; 2881,838;  207,208; 2565,798;113,39955
1059,67; 2871,377;  228,592; 2571,875;112,78130
1060,21; 2798,146;  213,438; 2509,644;112,56429
1060,76; 2787,146;  221,131; 2466,567;114,27691
1061,30; 2761,069;  252,285; 2455,183;113,88564
1061,84; 2732,454;  222,362; 2384,798;116,07704
1062,38; 2631,223;  204,592; 2356,798;112,75087
1062,92; 2667,838;  261,438; 2380,798;113,54373
1063,46; 2621,685;  242,054; 2309,490;115,10055
1064,01; 2560,838;  219,977; 2266,490;114,38290
1064,55; 2555,685;  236,362; 2241,875;115,64735
1065,09; 2469,223;  195,515; 2187,413;114,14779
1065,63; 2496,223;  237,438; 2210,337;114,49069
1066,17; 2483,685;  246,746; 2165,106;116,60684
1066,71; 2468,992;  245,977; 2155,260;116,43197
1067,25; 2384,762;  211,977; 2073,567;116,71658
1067,80; 2379,915;  233,977; 2083,337;116,03684
1068,34; 2376,838;  256,823; 2076,721;116,49089
1068,88; 2284,685;  225,285; 2010,721;115,34434
1069,42; 2330,992;  246,669; 2016,644;117,76003
1069,96; 2264,069;  218,900; 1972,798;116,60707
1070,50; 2245,685;  253,900; 1974,490;115,76170
1071,04; 2183,069;  219,592; 1929,106;114,85589
1071,58; 2167,915;  221,054; 1891,952;116,51588
1072,12; 2184,377;  225,054; 1878,337;118,51107
1072,66; 2152,223;  219,438; 1877,798;116,54798
1073,21; 2114,454;  251,208; 1844,644;116,93256
1073,75; 2088,454;  235,977; 1817,567;117,12748
1074,29; 2062,992;  231,592; 1802,798;116,56016
1074,83; 2052,454;  248,362; 1780,183;117,77434
1075,37; 2032,915;  234,900; 1765,567;117,46611
1075,91; 2022,377;  239,669; 1729,644;119,64682
1076,45; 1973,069;  234,438; 1726,875;116,49613
1076,99; 1950,454;  239,131; 1711,875;116,19961
1077,53; 1899,838;  224,669; 1659,798;116,72605
1078,07; 1924,146;  237,438; 1644,413;119,88185
1078,61; 1857,915;  235,054; 1618,721;117,28698
1079,15; 1861,454;  228,054; 1603,183;118,78160
1079,69; 1836,223;  227,669; 1595,106;117,63280
1080,23; 1832,300;  247,592; 1583,106;118,65906
1080,77; 1842,223;  272,669; 1589,413;119,19960
1081,31; 1772,146;  232,362; 1519,106;119,66517
1081,85; 1772,608;  245,592; 1513,413;120,44407
1082,39; 1755,608;  228,592; 1497,413;120,34914
1082,93; 1743,300;  231,977; 1490,106;120,12467
1083,47; 1691,992;  219,362; 1442,952;120,35325
1084,01; 1716,069;  242,823; 1471,644;119,89101
1084,55; 1670,685;  219,823; 1425,567;120,32913
1085,09; 1688,377;  251,362; 1429,721;121,95050
1085,63; 1638,069;  232,131; 1402,721;120,10508
1086,17; 1630,608;  233,669; 1392,798;120,51624
1086,71; 1586,300;  223,592; 1361,029;119,80516
1087,24; 1611,685;  259,977; 1383,490;120,31077
1087,78; 1582,300;  244,515; 1349,875;121,02709
1088,32; 1516,762;  219,285; 1303,106;119,71319
1088,86; 1554,300;  245,592; 1337,952;119,80557
1089,40; 1519,146;  232,362; 1287,183;121,99079
1089,94; 1480,146;  205,900; 1253,952;121,58235
1090,48; 1477,762;  235,131; 1276,798;119,29248
1091,02; 1468,531;  236,592; 1268,567;119,37677
1091,56; 1440,992;  230,977; 1226,183;121,58444
1092,10; 1418,685;  213,131; 1219,260;119,82102
1092,63; 1433,992;  253,515; 1241,721;119,45659
1093,17; 1415,762;  243,746; 1199,337;122,64830
1093,71; 1383,838;  233,977; 1161,952;123,91083
1094,25; 1393,838;  241,592; 1181,337;122,61274
1094,79; 1347,454;  233,746; 1151,260;121,38325
1095,33; 1345,069;  223,285; 1132,260;123,41204
1095,87; 1317,069;  236,977; 1114,183;123,12873
1096,40; 1305,069;  208,438; 1093,413;123,91658
1096,94; 1294,685;  231,977; 1091,644;123,61848
1097,48; 1290,146;  235,900; 1093,644;122,90915
1098,02; 1247,608;  231,823; 1077,952;120,05082
1098,56; 1210,531;  200,054; 1020,490;123,16333
1099,10; 1218,069;  204,746; 1029,798;122,81931
1099,63; 1186,300;  217,746; 1026,567;119,74883
1100,17; 1197,685;  236,131; 1015,875;123,31657
1100,71; 1211,685;  251,131; 1039,337;121,86587

