
Integration time [ms]: 120,000
Averaging Nr. [scans]: 13
Smoothing Nr. [pixels]: 0
Data measured with spectrometer [name]: 2009305U1
Wave   ;Sample   ;Dark     ;Reference;Reflectance
[nm]   ;[counts] ;[counts] ;[counts] ;[%]

 175,72;  197,009;  196,668;  197,919;27,26556
 176,32;  225,134;  224,824;  212,280; 0,00000
 176,92;  251,182;  241,130;  242,571;697,77751
 177,52;  245,766;  242,515;  254,327;27,52331
 178,12;  224,139;  234,286;  223,116; 0,00000
 178,72;  255,765;  259,440;  254,402; 0,00000
 179,32;  234,042;  246,671;  235,386; 0,00000
 179,92;  253,726;  234,900;  248,482;138,60411
 180,52;  238,502;  240,436;  237,089; 0,00000
 181,12;  245,092;  253,977;  245,596; 0,00000
 181,73;  266,608;  269,515;  273,796;-67,91956
 182,33;  335,736;  335,668;  334,695; 0,00000
 182,93;  268,939;  254,130;  265,674;128,28150
 183,53;  233,219;  236,441;  221,261; 0,00000
 184,13;  242,260;  237,671;  221,796; 0,00000
 184,73;  260,083;  262,518;  271,534;-27,01083
 185,33;  256,890;  229,840;  336,352;25,39618
 185,93;  253,832;  230,227;  351,774;19,42031
 186,53;  279,655;  244,918;  379,899;25,73436
 187,13;  300,483;  274,916;  403,937;19,81622
 187,73;  265,174;  235,688;  356,935;24,31931
 188,33;  265,678;  241,766;  349,541;22,18718
 188,93;  262,198;  249,615;  369,880;10,46216
 189,53;  265,669;  249,772;  385,703;11,69498
 190,13;  298,746;  275,006;  414,463;17,02299
 190,73;  254,556;  214,465;  357,542;28,02002
 191,34;  280,510;  255,616;  380,255;19,97233
 191,94;  258,129;  233,998;  358,715;19,34838
 192,54;  281,549;  238,761;  386,808;28,90202
 193,14;  290,872;  254,609;  383,084;28,22576
 193,74;  284,615;  248,378;  396,443;24,47354
 194,34;  280,749;  252,224;  387,868;21,02977
 194,94;  249,814;  212,609;  342,507;28,64170
 195,54;  222,650;  192,610;  327,986;22,19065
 196,14;  239,444;  222,454;  364,863;11,93042
 196,74;  233,850;  216,764;  341,279;13,72203
 197,34;  226,720;  194,760;  337,313;22,41962
 197,94;  252,186;  225,608;  364,072;19,19437
 198,54;  254,968;  230,300;  376,969;16,81872
 199,14;  248,575;  205,914;  371,989;25,68793
 199,74;  221,479;  202,991;  371,028;11,00269
 200,34;  234,192;  185,529;  381,448;24,83845
 200,94;  256,228;  230,838;  425,835;13,02089
 201,54;  247,193;  210,991;  424,829;16,92984
 202,14;  261,585;  228,221;  464,972;14,09243
 202,74;  245,705;  209,452;  467,115;14,06969
 203,34;  228,931;  188,758;  473,666;14,10019
 203,94;  216,413;  173,913;  479,547;13,90545
 204,54;  279,816;  230,608;  560,734;14,90584
 205,14;  249,099;  194,529;  577,711;14,24129
 205,74;  298,200;  234,297;  662,667;14,91767
 206,34;  264,820;  194,990;  656,194;15,14083
 206,94;  269,972;  206,682;  723,812;12,23866
 207,54;  247,891;  180,990;  761,512;11,52438
 208,14;  275,052;  194,759;  845,961;12,32989
 208,74;  285,248;  208,529;  911,260;10,91719
 209,34;  292,932;  205,914;  978,815;11,25862
 209,94;  303,955;  213,375; 1077,076;10,48743
 210,54;  318,914;  203,989; 1184,084;11,72585
 211,14;  327,378;  215,606; 1280,692;10,49416
 211,73;  325,870;  202,914; 1388,013;10,37519
 212,33;  347,555;  218,530; 1506,797;10,01538
 212,93;  346,209;  198,914; 1587,260;10,60937
 213,53;  329,844;  178,298; 1618,606;10,52175
 214,13;  364,757;  200,450; 1689,169;11,03678
 214,73;  359,738;  178,451; 1740,510;11,60565
 215,33;  335,340;  160,837; 1762,383;10,89591
 215,93;  377,901;  204,605; 1872,417;10,39064
 216,53;  357,155;  159,606; 1926,444;11,18094
 217,13;  418,496;  214,605; 2158,920;10,48652
 217,73;  434,017;  190,528; 2304,263;11,51938
 218,33;  424,133;  152,219; 2518,725;11,49011
 218,93;  500,490;  182,832; 2769,091;12,28253
 219,53;  538,806;  193,450; 3043,686;12,11677
 220,13;  559,626;  158,449; 3363,047;12,51878
 220,73;  626,071;  180,221; 3703,613;12,65399
 221,32;  663,940;  184,529; 4093,106;12,26561
 221,92;  738,976;  183,065; 4469,423;12,96932
 222,52;  782,099;  183,066; 4860,098;12,80798
 223,12;  850,811;  181,835; 5272,367;13,14158
 223,72;  900,715;  191,912; 5711,636;12,84128
 224,32;  964,072;  191,681; 6080,154;13,11700
 224,92;  989,504;  176,296; 6396,211;13,07426
 225,52; 1058,876;  194,375; 6776,081;13,13491
 226,12; 1091,731;  184,066; 7115,680;13,09457
 226,72; 1144,206;  163,836; 7436,883;13,47950
 227,31; 1199,177;  150,836; 7843,941;13,62703
 227,91; 1259,188;  191,529; 8225,304;13,28963
 228,51; 1310,902;  176,068; 8674,641;13,35323
 229,11; 1382,739;  180,451; 9046,663;13,56034
 229,71; 1440,122;  178,683; 9391,280;13,69254
 230,31; 1492,786;  167,758; 9800,650;13,75525
 230,91; 1522,192;  165,146;10128,599;13,62024
 231,51; 1585,988;  167,066;10384,244;13,88761
 232,10; 1646,700;  162,988;10757,667;14,00432
 232,70; 1717,518;  186,608;11009,483;14,14513
 233,30; 1767,112;  196,066;11238,918;14,22681
 233,90; 1785,544;  171,374;11352,438;14,43665
 234,50; 1821,281;  174,451;11517,427;14,51850
 235,10; 1815,658;  156,450;11505,442;14,61987
 235,70; 1863,192;  193,760;11579,833;14,66206
 236,29; 1891,194;  192,068;11503,674;15,02109
 236,89; 1829,409;  152,992;11438,703;14,85434
 237,49; 1849,409;  180,913;11287,940;15,02199
 238,09; 1811,820;  180,451;10997,578;15,08135
 238,69; 1859,810;  202,146;10858,055;15,55628
 239,29; 1776,530;  166,682;10503,772;15,57351
 239,89; 1739,438;  180,915;10194,569;15,56398
 240,48; 1655,099;  154,451; 9754,405;15,63182
 241,08; 1605,712;  170,529; 9405,870;15,54013
 241,68; 1575,489;  194,836; 9140,318;15,43408
 242,28; 1486,799;  174,220; 8763,467;15,28165
 242,88; 1464,353;  208,065; 8530,515;15,09517
 243,48; 1429,120;  199,374; 8222,440;15,32763
 244,07; 1366,928;  185,452; 8005,746;15,10782
 244,67; 1341,321;  194,220; 7827,115;15,02839
 245,27; 1320,870;  201,683; 7655,244;15,01547
 245,87; 1304,448;  198,988; 7542,632;15,05329
 246,47; 1275,822;  191,299; 7517,879;14,80259
 247,06; 1240,747;  176,221; 7552,186;14,43236
 247,66; 1248,023;  173,067; 7597,404;14,47881
 248,26; 1300,097;  204,375; 7721,867;14,57563
 248,86; 1294,707;  196,068; 7946,032;14,17606
 249,46; 1256,468;  150,220; 8117,436;13,88501
 250,05; 1321,444;  205,605; 8529,406;13,40540
 250,65; 1344,119;  158,684; 8867,977;13,61116
 251,25; 1393,534;  180,529; 9300,687;13,30027
 251,85; 1462,856;  183,915; 9897,809;13,16610
 252,44; 1533,372;  143,760;10426,548;13,51397
 253,04; 1645,302;  193,837;11157,152;13,23929
 253,64; 1681,815;  144,299;11872,353;13,10973
 254,24; 1837,002;  199,990;12750,291;13,04361
 254,84; 1911,084;  178,374;13710,898;12,80404
 255,43; 2062,272;  177,606;14641,288;13,03033
 256,03; 2171,451;  173,068;15619,314;12,93766
 256,63; 2325,380;  187,607;16570,915;13,04848
 257,23; 2420,972;  165,530;17440,270;13,05630
 257,82; 2536,568;  185,685;18410,923;12,89905
 258,42; 2628,445;  140,301;19238,014;13,02849
 259,02; 2810,306;  195,529;20100,066;13,13659
 259,62; 2894,011;  164,301;20780,805;13,24041
 260,21; 3002,848;  185,760;21389,750;13,28565
 260,81; 3087,692;  179,297;21840,834;13,42654
 261,41; 3146,538;  165,070;22271,751;13,48673
 262,01; 3273,033;  205,071;22747,222;13,60989
 262,60; 3310,741;  153,146;23059,270;13,78494
 263,20; 3415,029;  175,530;23358,004;13,97391
 263,80; 3505,268;  188,609;23556,520;14,19322
 264,40; 3496,630;  157,224;23717,182;14,17407
 264,99; 3597,479;  188,609;23856,252;14,40308
 265,59; 3613,328;  163,226;24016,091;14,46410
 266,19; 3684,942;  174,224;24242,712;14,58636
 266,78; 3781,904;  208,533;24397,709;14,77260
 267,38; 3782,377;  179,149;24300,377;14,93800
 267,98; 3792,789;  173,764;24345,555;14,97210
 268,58; 3823,579;  178,072;24350,973;15,08097
 269,17; 3867,723;  172,919;24355,377;15,27886
 269,77; 3856,042;  194,454;24203,591;15,25081
 270,37; 3842,022;  161,455;24082,628;15,38623
 270,96; 3861,092;  221,993;24011,182;15,29728
 271,56; 3849,890;  169,607;23734,204;15,61785
 272,16; 3801,533;  176,301;23539,069;15,51714
 272,75; 3853,740;  176,916;23407,117;15,82778
 273,35; 3861,973;  184,069;23453,806;15,80552
 273,95; 3835,798;  184,839;23409,924;15,71990
 274,54; 3871,680;  164,144;23390,628;15,96254
 275,14; 3987,535;  201,916;23686,758;16,11942
 275,74; 3963,346;  154,454;23785,213;16,11836
 276,33; 4082,076;  203,223;24173,832;16,18170
 276,93; 4143,729;  186,451;24621,375;16,19517
 277,53; 4271,560;  189,606;25047,943;16,42086
 278,12; 4370,141;  166,145;25551,471;16,56073
 278,72; 4524,987;  213,529;26164,319;16,61397
 279,32; 4620,568;  179,453;26731,464;16,72610
 279,91; 4809,595;  159,760;27416,178;17,05960
 280,51; 4919,200;  171,452;27950,740;17,09096
 281,11; 5045,566;  179,991;28722,006;17,04706
 281,70; 5131,181;  161,530;29076,084;17,18737
 282,30; 5336,967;  172,992;29653,281;17,51670
 282,90; 5491,693;  175,453;30050,521;17,79490
 283,49; 5647,646;  201,377;30707,229;17,85319
 284,09; 5803,959;  206,761;31099,989;18,11788
 284,69; 5961,082;  199,299;31383,821;18,47642
 285,28; 6094,594;  196,684;31825,797;18,64709
 285,88; 6250,797;  220,762;32019,926;18,96287
 286,47; 6350,019;  181,223;32128,176;19,30950
 287,07; 6476,433;  214,837;32257,888;19,54120
 287,67; 6640,043;  200,143;32393,594;20,00376
 288,26; 6798,193;  177,683;32269,677;20,62978
 288,86; 6986,387;  180,684;32334,209;21,16627
 289,46; 7192,403;  193,376;32530,562;21,64390
 290,05; 7427,938;  170,375;32505,111;22,44510
 290,65; 7641,865;  184,223;32648,485;22,97185
 291,24; 7897,713;  193,068;32961,560;23,51236
 291,84; 8164,457;  197,530;33029,454;24,26579
 292,44; 8412,506;  183,220;33101,900;24,99883
 293,03; 8728,160;  239,145;33291,127;25,68383
 293,63; 8882,048;  183,300;33470,733;26,13223
 294,22; 9128,812;  192,991;33683,054;26,68201
 294,82; 9263,885;  174,532;33575,594;27,21277
 295,41; 9341,412;  161,376;33298,468;27,70320
 296,01; 9491,258;  224,685;33327,004;27,99373
 296,61; 9494,564;  193,683;32993,397;28,35659
 297,20; 9498,677;  195,301;32730,397;28,59489
 297,80; 9515,896;  193,682;32568,733;28,79444
 298,39; 9493,933;  170,992;32250,732;29,06177
 298,99; 9533,967;  197,839;32006,740;29,35068
 299,58; 9529,109;  196,528;31893,076;29,44353
 300,18; 9456,914;  210,606;31673,312;29,38815
 300,78; 9395,070;  177,375;31300,769;29,61661
 301,37; 9372,916;  187,532;31326,148;29,49837
 301,97; 9438,451;  195,068;31357,466;29,66198
 302,56; 9417,091;  183,530;31272,571;29,70037
 303,16; 9420,950;  169,761;31119,621;29,89089
 303,75; 9361,143;  177,067;31117,546;29,68304
 304,35; 9480,816;  173,066;31521,511;29,69126
 304,94; 9435,476;  183,299;31356,572;29,67984
 305,54; 9473,017;  206,529;31336,491;29,76710
 306,13; 9373,946;  163,912;31367,636;29,51582
 306,73; 9287,078;  175,143;31149,833;29,41735
 307,33; 9328,822;  194,374;31011,498;29,64082
 307,92; 9262,035;  186,914;31149,531;29,30993
 308,52; 9330,666;  169,608;31623,266;29,12557
 309,11; 9488,209;  181,070;32031,332;29,22155
 309,71; 9478,201;  162,840;32261,962;29,02061
 310,30; 9510,674;  169,145;32596,483;28,80757
 310,90; 9634,520;  201,606;32942,868;28,81048
 311,49; 9651,745;  185,299;33078,879;28,77901
 312,09; 9615,943;  150,529;33147,793;28,68545
 312,68; 9739,305;  223,760;33564,913;28,53994
 313,28; 9675,420;  162,837;33776,608;28,29966
 313,87; 9657,558;  155,683;33948,023;28,11843
 314,47; 9693,153;  167,916;34121,906;28,05337
 315,06; 9652,800;  166,914;34277,617;27,80912
 315,66; 9607,328;  174,606;34487,947;27,48996
 316,25; 9565,109;  146,223;34415,457;27,48496
 316,85; 9457,323;  148,452;34577,725;27,03767
 317,44; 9472,815;  178,455;34696,120;26,92639
 318,04; 9393,875;  156,300;34691,771;26,74808
 318,63; 9319,092;  148,835;34867,727;26,41287
 319,22; 9303,254;  184,069;35016,168;26,18041
 319,82; 9229,045;  173,838;34976,663;26,01860
 320,41; 9126,615;  188,146;34860,446;25,77986
 321,01; 9083,188;  191,144;35028,765;25,52426
 321,60; 9026,224;  176,299;35146,306;25,30719
 322,20; 8877,829;  155,606;35103,713;24,95764
 322,79; 8850,199;  210,529;35170,511;24,71303
 323,39; 8774,200;  169,374;35258,974;24,52244
 323,98; 8702,632;  159,606;34983,952;24,53176
 324,58; 8579,065;  164,454;34968,930;24,17681
 325,17; 8432,917;  178,607;34806,918;23,83688
 325,76; 8370,241;  190,606;34590,812;23,77786
 326,36; 8191,683;  157,836;34290,160;23,53736
 326,95; 8028,738;  191,914;33891,046;23,25527
 327,55; 7878,112;  156,453;33609,990;23,08174
 328,14; 7734,623;  168,374;33306,357;22,83256
 328,74; 7546,802;  204,146;32801,533;22,52529
 329,33; 7408,365;  185,067;32458,102;22,38184
 329,92; 7182,234;  160,301;31882,668;22,13559
 330,52; 6992,844;  172,451;31214,683;21,97134
 331,11; 6848,392;  176,376;30849,970;21,75166
 331,71; 6676,365;  169,607;30282,948;21,60756
 332,30; 6493,784;  186,683;29783,956;21,30973
 332,89; 6357,975;  225,837;29357,728;21,04957
 333,49; 6158,214;  185,914;28709,171;20,93835
 334,08; 6022,406;  176,299;28312,711;20,77772
 334,68; 5840,141;  182,915;27909,086;20,40392
 335,27; 5793,346;  184,528;27528,220;20,51229
 335,86; 5644,546;  223,838;27324,046;20,00246
 336,46; 5557,831;  190,759;27025,094;20,00077
 337,05; 5445,978;  172,607;26773,720;19,82388
 337,65; 5320,925;  161,915;26639,826;19,48420
 338,24; 5339,820;  224,298;26590,654;19,40170
 338,83; 5257,906;  208,068;26462,711;19,23408
 339,43; 5140,672;  177,069;26457,101;18,88735
 340,02; 5146,363;  178,531;26386,871;18,95516
 340,61; 5100,631;  173,837;26369,338;18,80779
 341,21; 5094,571;  203,607;26349,533;18,70641
 341,80; 5044,838;  179,915;26375,384;18,57162
 342,40; 4986,623;  171,682;26432,125;18,33534
 342,99; 4979,590;  182,067;26467,113;18,25191
 343,58; 4950,057;  175,990;26717,718;17,98702
 344,18; 4958,015;  190,836;26808,342;17,90994
 344,77; 4910,858;  162,992;27092,035;17,63102
 345,36; 4994,815;  157,453;27385,200;17,76630
 345,96; 5039,779;  203,606;27672,891;17,60575
 346,55; 5028,762;  164,143;27940,079;17,51379
 347,14; 5023,821;  155,297;28302,500;17,29665
 347,74; 5051,476;  140,142;28698,886;17,19730
 348,33; 5170,864;  175,526;29329,262;17,13447
 348,92; 5259,119;  185,218;29983,524;17,02748
 349,52; 5267,126;  147,526;30445,585;16,89745
 350,11; 5283,132;  173,454;30582,180;16,80333
 350,70; 5279,126;  173,452;30809,809;16,66541
 351,29; 5235,413;  148,764;30507,921;16,75491
 351,89; 5234,733;  174,685;30478,746;16,69759
 352,48; 5195,468;  155,299;30497,665;16,61099
 353,07; 5194,355;  182,066;30396,277;16,58918
 353,67; 5171,322;  191,756;30353,888;16,50933
 354,26; 5099,220;  170,990;30103,932;16,46424
 354,85; 5057,828;  185,067;29973,792;16,35774
 355,45; 5015,544;  155,684;29816,742;16,38465
 356,04; 4978,313;  174,759;29768,055;16,23190
 356,63; 4947,147;  201,145;29409,997;16,24851
 357,22; 4914,748;  175,917;29375,176;16,22929
 357,82; 4901,952;  193,224;29208,614;16,22838
 358,41; 4885,125;  201,760;29108,120;16,20185
 359,00; 4848,456;  158,300;28913,918;16,31040
 359,60; 4832,190;  180,221;28724,683;16,29727
 360,19; 4826,020;  176,605;28638,178;16,33577
 360,78; 4812,665;  190,222;28497,576;16,32948
 361,37; 4721,031;  174,761;28242,538;16,19747
 361,97; 4732,259;  186,530;28190,006;16,23273
 362,56; 4690,906;  169,531;27892,787;16,30896
 363,15; 4721,150;  213,453;27606,375;16,45570
 363,74; 4645,610;  174,685;27373,531;16,43792
 364,34; 4595,614;  195,992;26912,293;16,46793
 364,93; 4526,458;  163,069;26430,374;16,61148
 365,52; 4487,777;  149,376;26172,508;16,67132
 366,11; 4456,547;  171,146;25882,043;16,66765
 366,71; 4407,792;  163,377;25437,168;16,79374
 367,30; 4393,402;  170,607;25110,181;16,93211
 367,89; 4400,064;  198,990;24925,860;16,98991
 368,48; 4324,572;  198,224;24640,300;16,88215
 369,07; 4268,588;  179,760;24120,963;17,07862
 369,67; 4234,986;  203,454;23868,702;17,03566
 370,26; 4197,550;  171,452;23599,578;17,18489
 370,85; 4211,608;  179,530;23323,075;17,42204
 371,44; 4167,018;  176,145;23107,871;17,40328
 372,03; 4167,859;  152,223;22932,418;17,62775
 372,63; 4107,734;  152,684;22571,978;17,64128
 373,22; 4140,198;  166,376;22343,589;17,91849
 373,81; 4068,594;  148,376;22009,643;17,93225
 374,40; 4063,406;  165,913;21699,790;18,09936
 374,99; 4046,386;  169,761;21518,751;18,15835
 375,59; 3995,218;  162,528;21175,243;18,23986
 376,18; 4037,901;  193,761;21119,644;18,37026
 376,77; 4012,961;  186,299;20977,832;18,40491
 377,36; 4040,334;  195,838;20847,778;18,61567
 377,95; 4011,908;  181,146;20525,705;18,82942
 378,55; 4003,188;  157,913;20341,534;19,05146
 379,14; 4053,089;  185,299;20317,114;19,21232
 379,73; 4061,024;  175,684;20230,320;19,37377
 380,32; 4099,812;  185,991;20308,823;19,44965
 380,91; 4080,116;  175,685;20112,135;19,58438
 381,50; 4127,963;  189,915;20145,055;19,73450
 382,10; 4100,350;  166,530;19978,130;19,85615
 382,69; 4121,891;  153,376;19923,509;20,07329
 383,28; 4159,532;  190,761;19875,842;20,16131
 383,87; 4164,349;  170,377;19769,746;20,37806
 384,46; 4182,083;  162,070;19724,738;20,54941
 385,05; 4256,872;  193,223;19732,931;20,79688
 385,64; 4258,009;  178,069;19695,581;20,90399
 386,24; 4281,813;  149,609;19626,893;21,21550
 386,83; 4333,384;  192,455;19630,827;21,30286
 387,42; 4388,586;  188,761;19800,427;21,41493
 388,01; 4475,503;  187,379;19979,741;21,66555
 388,60; 4557,050;  175,378;20220,112;21,85947
 389,19; 4605,779;  156,457;20416,341;21,96124
 389,78; 4703,454;  165,765;20729,299;22,06668
 390,37; 4904,593;  222,994;21142,177;22,37946
 390,96; 4939,558;  180,763;21286,326;22,54759
 391,56; 4984,118;  176,227;21344,508;22,71271
 392,15; 5062,013;  160,072;21679,720;22,77891
 392,74; 5175,348;  151,460;21795,507;23,21141
 393,33; 5291,660;  166,227;22126,116;23,33998
 393,92; 5384,703;  173,461;22513,333;23,32709
 394,51; 5475,482;  149,304;22716,088;23,60185
 395,10; 5581,250;  192,848;22911,234;23,71825
 395,69; 5663,455;  176,924;23003,980;24,03521
 396,28; 5762,860;  185,464;23176,013;24,25952
 396,87; 5779,168;  192,620;23343,392;24,13115
 397,46; 5855,962;  181,314;23335,340;24,50825
 398,06; 5963,243;  189,701;23615,542;24,64604
 398,65; 6014,995;  177,244;23677,260;24,84148
 399,24; 6111,716;  188,014;23858,432;25,02576
 399,83; 6120,358;  164,329;23835,982;25,16102
 400,42; 6253,043;  201,796;23985,677;25,44264
 401,01; 6295,997;  182,573;24029,218;25,63641
 401,60; 6376,147;  177,275;24210,515;25,79291
 402,19; 6384,540;  196,513;24101,561;25,88586
 402,78; 6412,547;  200,602;24087,601;26,00555
 403,37; 6465,169;  187,228;23877,105;26,50052
 403,96; 6440,357;  182,241;23721,090;26,58633
 404,55; 6430,088;  167,487;23720,600;26,58927
 405,14; 6475,260;  167,808;23513,307;27,01785
 405,73; 6490,501;  183,285;23436,720;27,12380
 406,32; 6460,387;  190,910;23384,544;27,03102
 406,91; 6409,224;  180,307;23126,231;27,14607
 407,50; 6435,727;  178,159;22981,523;27,44142
 408,09; 6432,581;  155,241;22707,575;27,83455
 408,68; 6406,764;  181,013;22565,971;27,81221
 409,27; 6399,995;  175,086;22354,826;28,06574
 409,86; 6427,929;  170,231;22237,205;28,35776
 410,45; 6508,231;  200,684;22171,617;28,70860
 411,04; 6482,158;  197,445;22092,777;28,70344
 411,63; 6440,523;  175,204;21749,606;29,04052
 412,22; 6393,560;  201,425;21608,780;28,92527
 412,81; 6396,306;  192,883;21395,680;29,25757
 413,40; 6349,149;  204,187;21034,618;29,49993
 413,99; 6289,641;  234,803;20717,708;29,56044
 414,58; 6167,151;  160,726;20274,844;29,86174
 415,17; 6147,287;  175,114;20101,949;29,97050
 415,76; 6122,058;  169,195;19974,707;30,05660
 416,35; 6085,954;  159,116;19776,073;30,21283
 416,94; 6164,880;  199,502;19821,526;30,40144
 417,53; 6244,995;  172,960;20056,994;30,53724
 418,12; 6320,813;  166,036;20023,822;30,99428
 418,71; 6505,967;  190,494;20445,675;31,17954
 419,30; 6522,762;  177,189;20578,386;31,10392
 419,89; 6600,867;  176,573;20770,792;31,19465
 420,48; 6763,424;  195,110;21032,068;31,52242
 421,07; 6836,639;  185,340;21040,253;31,89320
 421,66; 6844,185;  165,876;21069,935;31,94743
 422,25; 6871,058;  172,718;21036,735;32,10475
 422,84; 6918,438;  208,487;21049,362;32,19611
 423,43; 6859,654;  171,489;20839,926;32,35932
 424,02; 6827,562;  206,026;20496,880;32,63310
 424,60; 6700,444;  165,714;20092,893;32,79305
 425,19; 6669,811;  185,793;19869,157;32,94161
 425,78; 6661,370;  196,485;19774,962;33,02036
 426,37; 6714,076;  189,715;19661,859;33,50613
 426,96; 6600,365;  189,638;19529,359;33,14798
 427,55; 6621,899;  179,020;19339,603;33,62570
 428,14; 6562,074;  167,788;19155,101;33,67663
 428,73; 6540,942;  186,021;19002,055;33,77397
 429,32; 6599,503;  191,715;18977,775;34,10927
 429,91; 6613,298;  212,482;18966,112;34,13108
 430,50; 6606,022;  195,711;18786,512;34,48109
 431,08; 6544,717;  200,864;18610,124;34,46012
 431,67; 6606,898;  233,863;18580,766;34,73630
 432,26; 6526,178;  230,939;18330,206;34,78174
 432,85; 6458,955;  244,016;18032,499;34,93800
 433,44; 6353,451;  259,014;17649,895;35,04387
 434,03; 6319,422;  264,704;17299,958;35,54228
 434,62; 6164,822;  220,476;16897,307;35,64434
 435,21; 6139,841;  235,708;16746,958;35,75824
 435,79; 6102,436;  230,782;16568,544;35,93916
 436,38; 6068,536;  224,164;16412,732;36,10184
 436,97; 6106,610;  220,472;16329,431;36,53953
 437,56; 6029,467;  235,930;16162,416;36,37674
 438,15; 5986,990;  218,700;16037,367;36,46508
 438,74; 6054,646;  235,776;16092,672;36,69615
 439,33; 6077,417;  219,777;16171,359;36,72138
 439,91; 6086,364;  187,314;16238,238;36,75209
 440,50; 6149,240;  236,006;16217,333;37,00090
 441,09; 6229,838;  220,312;16301,833;37,36914
 441,68; 6243,951;  214,310;16343,764;37,38280
 442,27; 6224,393;  196,464;16282,263;37,47360
 442,86; 6214,697;  183,537;16344,663;37,31894
 443,44; 6274,788;  185,307;16399,787;37,55582
 444,03; 6374,073;  234,768;16429,527;37,90921
 444,62; 6298,904;  186,844;16264,941;38,01482
 445,21; 6263,036;  202,230;16176,369;37,94136
 445,80; 6291,651;  225,535;15999,528;38,45644
 446,39; 6222,894;  250,920;15821,042;38,35534
 446,97; 6138,015;  183,225;15554,035;38,74090
 447,56; 6043,315;  181,761;15307,592;38,75195
 448,15; 6032,097;  185,994;15168,718;39,01896
 448,74; 5972,209;  195,686;14965,263;39,11095
 449,33; 5906,400;  191,608;14784,807;39,16065
 449,91; 5824,803;  191,298;14588,544;39,12905
 450,50; 5755,560;  181,375;14406,952;39,18424
 451,09; 5752,407;  191,837;14299,949;39,41400
 451,68; 5739,524;  209,682;14214,719;39,48466
 452,26; 5700,371;  197,604;14109,488;39,55444
 452,85; 5691,343;  182,989;14003,849;39,85536
 453,44; 5718,467;  201,832;14047,530;39,84368
 454,03; 5665,163;  183,680;13933,596;39,86558
 454,61; 5709,368;  175,370;13940,884;40,20190
 455,20; 5829,859;  205,139;14121,979;40,41665
 455,79; 5811,945;  204,679;14106,344;40,33521
 456,38; 5877,191;  204,752;14172,857;40,60994
 456,97; 5856,337;  183,445;14221,795;40,40997
 457,55; 5933,138;  187,213;14341,041;40,59626
 458,14; 5912,657;  207,599;14274,847;40,55561
 458,73; 5870,270;  197,751;14154,010;40,64498
 459,31; 5934,473;  215,519;14203,915;40,88356
 459,90; 5967,073;  226,750;14306,406;40,77033
 460,49; 6062,180;  273,366;14411,806;40,94379
 461,08; 6045,406;  191,133;14403,434;41,19159
 461,66; 6085,790;  192,365;14554,358;41,03487
 462,25; 6141,964;  188,517;14600,243;41,30975
 462,84; 6163,307;  218,133;14695,403;41,06557
 463,43; 6101,808;  161,130;14551,405;41,28259
 464,01; 6149,852;  195,821;14623,012;41,26951
 464,60; 6240,314;  229,977;14589,624;41,85574
 465,19; 6078,610;  165,359;14358,804;41,66184
 465,77; 6068,996;  190,281;14302,727;41,65624
 466,36; 6065,207;  206,669;14272,145;41,65190
 466,95; 5923,382;  182,899;13880,028;41,91012
 467,53; 5789,368;  179,819;13600,061;41,79917
 468,12; 5678,000;  212,434;13372,184;41,53245
 468,71; 5610,078;  196,898;13136,177;41,83525
 469,29; 5489,511;  176,972;12847,700;41,92765
 469,88; 5405,670;  179,894;12587,461;42,11765
 470,47; 5464,166;  239,969;12708,011;41,90069
 471,06; 5446,248;  196,585;12693,693;42,00702
 471,64; 5462,716;  203,278;12803,602;41,74050
 472,23; 5485,751;  165,274;12796,077;42,12303
 472,81; 5522,924;  172,430;12890,420;42,07028
 473,40; 5607,636;  179,197;13041,307;42,20489
 473,99; 5717,896;  265,197;13223,941;42,07737
 474,57; 5720,862;  172,889;13406,317;41,92392
 475,16; 5788,686;  187,660;13512,513;42,03443
 475,75; 5830,816;  200,888;13632,333;41,91603
 476,33; 5909,517;  219,733;13698,089;42,21423
 476,92; 5895,773;  211,812;13770,265;41,92189
 477,51; 5911,013;  201,272;13807,479;41,96424
 478,09; 5935,456;  193,810;13841,364;42,07088
 478,68; 5903,291;  204,964;13846,695;41,77129
 479,27; 5968,653;  216,888;13833,967;42,23935
 479,85; 5921,377;  204,195;13767,446;42,15200
 480,44; 5992,044;  163,425;13890,035;42,46219
 481,02; 6511,426;  199,193;15348,965;41,66553
 481,61; 7364,697;  219,270;17381,884;41,63368
 482,20; 7861,191;  201,346;18466,821;41,93619
 482,78; 8222,533;  225,040;19260,365;42,01396
 483,37; 8453,043;  221,575;19787,966;42,06943
 483,95; 8539,959;  238,421;20101,597;41,79361
 484,54; 8645,643;  253,270;20269,915;41,92697
 485,13; 8573,737;  215,035;20216,120;41,79124
 485,71; 8524,979;  190,959;20019,097;42,03128
 486,30; 8347,729;  226,420;19680,289;41,74650
 486,88; 8242,025;  268,420;19317,698;41,85778
 487,47; 7947,628;  232,958;18612,877;41,97337
 488,05; 7578,234;  227,419;17775,668;41,88916
 488,64; 7018,655;  227,263;16521,135;41,68065
 489,23; 6284,471;  242,418;14695,116;41,80571
 489,81; 5371,027;  230,033;12503,314;41,88769
 490,40; 5088,134;  203,648;11907,484;41,73406
 490,98; 4987,147;  173,955;11627,382;42,02404
 491,57; 4946,405;  215,187;11548,864;41,74477
 492,15; 4922,476;  189,647;11515,648;41,78729
 492,74; 4875,066;  199,957;11363,542;41,87821
 493,32; 4857,945;  218,340;11287,171;41,91594
 493,91; 4767,187;  195,570;11139,766;41,77207
 494,50; 4766,711;  207,721;11189,107;41,51562
 495,08; 4703,893;  183,798;11094,897;41,42658
 495,67; 4734,363;  208,339;11096,644;41,56776
 496,25; 4632,107;  170,184;10988,928;41,24253
 496,84; 4648,021;  167,724;10969,404;41,47778
 497,42; 4637,471;  162,107;10888,278;41,72378
 498,01; 4639,018;  198,262;10888,488;41,54034
 498,59; 4544,679;  171,183;10805,786;41,12514
 499,18; 4558,217;  163,647;10772,169;41,42490
 499,76; 4545,872;  200,338;10714,168;41,33160
 500,35; 4451,460;  190,951;10529,303;41,21072
 500,93; 4390,465;  178,260;10438,289;41,05452
 501,52; 4444,299;  177,337;10374,623;41,84409
 502,10; 4351,139;  191,489;10378,023;40,83479
 502,69; 4296,971;  182,180;10226,592;40,96597
 503,27; 4221,947;  170,567;10017,943;41,14172
 503,86; 4218,580;  175,719; 9986,836;41,20694
 504,44; 4161,277;  162,410; 9862,597;41,22463
 505,03; 4055,368;  149,257; 9629,414;41,20303
 505,61; 3976,544;  163,718; 9546,523;40,63631
 506,19; 3917,853;  182,257; 9366,059;40,67593
 506,78; 3863,874;  152,716; 9184,790;41,08865
 507,36; 3804,598;  167,795; 9072,185;40,84281
 507,95; 3753,927;  168,408; 8850,302;41,29881
 508,53; 3658,402;  164,332; 8761,887;40,64028
 509,12; 3586,295;  177,870; 8629,949;40,32648
 509,70; 3590,404;  180,715; 8488,348;41,04284
 510,29; 3521,678;  188,407; 8328,108;40,95078
 510,87; 3386,835;  164,409; 8144,099;40,38285
 511,46; 3342,102;  159,485; 7966,028;40,76858
 512,04; 3271,170;  180,638; 7824,201;40,43313
 512,62; 3217,544;  172,716; 7724,681;40,31836
 513,21; 3118,376;  158,868; 7536,098;40,11679
 513,79; 3114,773;  166,942; 7407,618;40,71209
 514,38; 2996,074;  144,405; 7251,704;40,12311
 514,96; 2983,016;  194,866; 7217,206;39,70399
 515,54; 2921,813;  155,481; 7062,844;40,04902
 516,13; 2885,146;  179,096; 6917,948;40,15594
 516,71; 2813,715;  174,403; 6831,734;39,64520
 517,30; 2767,269;  155,325; 6691,551;39,96104
 517,88; 2748,831;  185,787; 6621,965;39,82246
 518,46; 2670,392;  153,401; 6497,999;39,67140
 519,05; 2655,291;  160,478; 6477,664;39,49248
 519,63; 2620,966;  181,324; 6415,620;39,13261
 520,22; 2606,323;  182,092; 6337,987;39,38064
 520,80; 2562,213;  174,476; 6226,822;39,45143
 521,38; 2592,398;  195,631; 6241,450;39,64337
 521,97; 2531,266;  160,552; 6210,102;39,18827
 522,55; 2536,915;  182,475; 6213,881;39,03633
 523,13; 2498,602;  165,167; 6207,817;38,61608
 523,72; 2512,339;  162,709; 6145,874;39,27068
 524,30; 2563,476;  183,705; 6308,377;38,85549
 524,89; 2537,157;  154,244; 6317,937;38,66047
 525,47; 2599,454;  171,550; 6418,422;38,86592
 526,05; 2599,494;  147,089; 6489,573;38,66632
 526,64; 2663,180;  186,934; 6620,203;38,49125
 527,22; 2718,613;  175,397; 6752,643;38,66688
 527,80; 2743,544;  215,242; 6874,935;37,96425
 528,39; 2775,645;  171,472; 6963,659;38,34071
 528,97; 2822,513;  179,626; 7137,153;37,98600
 529,55; 2899,477;  181,090; 7292,452;38,22597
 530,14; 2965,027;  202,626; 7473,664;37,99184
 530,72; 2976,878;  171,780; 7625,729;37,63237
 531,30; 3028,841;  148,856; 7738,499;37,94625
 531,89; 3061,581;  177,010; 7827,403;37,70487
 532,47; 3134,228;  206,625; 7946,187;37,82646
 533,05; 3087,410;  203,319; 7993,435;37,02243
 533,63; 3114,618;  191,240; 8016,483;37,35831
 534,22; 3109,277;  166,163; 8045,473;37,35244
 534,80; 3141,535;  196,931; 8129,191;37,12187
 535,38; 3238,467;  268,010; 8276,247;37,09252
 535,97; 3131,007;  173,240; 8124,860;37,19703
 536,55; 3169,824;  215,546; 8278,382;36,64068
 537,13; 3135,744;  207,087; 8215,154;36,57133
 537,71; 3142,238;  246,164; 8231,165;36,26892
 538,30; 3199,862;  248,086; 8351,459;36,42651
 538,88; 3200,666;  273,084; 8422,315;35,92464
 539,46; 3285,491;  308,700; 8568,663;36,03879
 540,05; 3340,279;  308,623; 8699,627;36,12984
 540,63; 3364,226;  343,546; 8864,809;35,44874
 541,21; 3435,933;  351,007; 8970,782;35,78894
 541,79; 3456,365;  381,007; 9119,533;35,19311
 542,38; 3514,158;  400,161; 9275,331;35,08661
 542,96; 3558,491;  394,236; 9398,667;35,14109
 543,54; 3647,826;  420,776; 9606,688;35,13043
 544,12; 3646,665;  391,622; 9719,703;34,89509
 544,70; 3644,357;  380,082; 9848,243;34,47634
 545,29; 3729,615;  399,008;10022,801;34,60805
 545,87; 3735,904;  374,776;10086,994;34,60721
 546,45; 3716,720;  348,854;10109,053;34,50612
 547,03; 3725,238;  339,084;10206,710;34,31579
 547,62; 3751,828;  315,007;10346,147;34,26152
 548,20; 3776,846;  330,006;10512,803;33,84964
 548,78; 3849,048;  295,542;10627,019;34,39495
 549,36; 3901,489;  275,542;10914,598;34,08148
 549,94; 3897,378;  264,314;11046,201;33,69599
 550,53; 3949,271;  269,081;11255,266;33,49834
 551,11; 3992,460;  234,849;11460,197;33,47434
 551,69; 4114,527;  240,004;11797,137;33,52495
 552,27; 4157,282;  212,543;12027,242;33,38840
 552,85; 4290,479;  222,695;12402,005;33,39913
 553,44; 4392,070;  225,388;12707,128;33,38222
 554,02; 4500,674;  232,926;13119,768;33,11709
 554,60; 4525,105;  193,772;13422,753;32,74125
 555,18; 4653,460;  223,542;13805,579;32,61601
 555,76; 4761,842;  206,619;14182,816;32,59272
 556,34; 4883,115;  211,002;14557,042;32,56727
 556,93; 4971,682;  205,311;14950,136;32,32572
 557,51; 5054,741;  192,156;15311,022;32,16237
 558,09; 5211,254;  212,850;15734,992;32,20177
 558,67; 5286,245;  210,693;16082,476;31,97846
 559,25; 5335,954;  223,848;16371,596;31,65833
 559,83; 5413,658;  205,308;16683,960;31,60665
 560,41; 5517,671;  205,771;17055,006;31,52606
 561,00; 5593,505;  208,539;17343,264;31,42721
 561,58; 5663,911;  198,464;17668,680;31,28437
 562,16; 5736,580;  185,157;18011,648;31,14143
 562,74; 5824,410;  167,234;18288,528;31,21839
 563,32; 5916,292;  174,923;18759,153;30,89377
 563,90; 6055,029;  207,309;19120,524;30,91870
 564,48; 6121,458;  204,772;19511,356;30,64595
 565,06; 6315,922;  188,232;20160,583;30,68087
 565,65; 6435,227;  204,153;20836,746;30,20015
 566,23; 6727,548;  250,770;21605,331;30,32972
 566,81; 6860,665;  195,001;22249,173;30,22405
 567,39; 7101,674;  205,077;23136,467;30,07492
 567,97; 7280,335;  222,924;23837,757;29,88550
 568,55; 7486,022;  234,770;24603,461;29,75643
 569,13; 7649,558;  195,539;25332,542;29,65357
 569,71; 7899,984;  195,311;26288,841;29,52714
 570,29; 8214,610;  230,004;27237,665;29,56423
 570,87; 8376,285;  228,157;28016,084;29,32255
 571,45; 8513,899;  222,924;28595,630;29,22166
 572,03; 8577,262;  180,307;29118,291;29,01707
 572,61; 8740,950;  171,539;29768,913;28,95328
 573,20; 8884,472;  212,155;30457,944;28,67281
 573,78; 9061,768;  194,693;31102,278;28,68899
 574,36; 9176,386;  197,001;31598,733;28,59519
 574,94; 9241,158;  251,538;31941,039;28,36782
 575,52; 9237,008;  186,690;32172,417;28,29486
 576,10; 9349,505;  249,537;32753,885;27,99615
 576,68; 9487,218;  222,307;33359,301;27,95942
 577,26; 9594,801;  242,920;34034,218;27,67541
 577,84; 9676,267;  240,847;34439,972;27,58965
 578,42; 9729,405;  277,153;34750,082;27,41935
 579,00; 9689,244;  227,846;34942,556;27,25472
 579,58; 9696,845;  257,538;35231,125;26,98982
 580,16; 9661,565;  239,076;35261,609;26,90408
 580,74; 9678,383;  233,229;35397,512;26,86008
 581,32; 9706,625;  234,076;35482,642;26,87357
 581,90; 9677,416;  240,307;35369,754;26,86381
 582,48; 9663,118;  242,230;35585,042;26,65574
 583,06; 9619,562;  244,307;35773,307;26,38761
 583,64; 9646,052;  240,923;35789,173;26,45736
 584,22; 9574,669;  251,459;35758,020;26,25771
 584,80; 9457,569;  261,537;35487,370;26,10593
 585,38; 9311,293;  260,617;35102,456;25,97646
 585,96; 9292,712;  224,154;35305,083;25,85039
 586,54; 9263,898;  251,921;35185,484;25,79747
 587,12; 9258,495;  221,768;35412,288;25,67944
 587,70; 9278,914;  257,846;35489,986;25,60466
 588,28; 9238,976;  242,306;35598,019;25,44616
 588,86; 9189,281;  243,460;35696,487;25,23288
 589,44; 9221,401;  219,843;35803,711;25,29674
 590,02; 9203,153;  234,843;36051,052;25,03981
 590,59; 9207,518;  220,075;36245,321;24,94762
 591,17; 9263,368;  223,764;36479,320;24,93302
 591,75; 9256,073;  213,227;36521,830;24,90552
 592,33; 9290,691;  238,535;36839,517;24,73200
 592,91; 9289,149;  193,918;37044,756;24,68120
 593,49; 9295,298;  206,764;37432,306;24,41478
 594,07; 9332,995;  212,841;37568,143;24,41462
 594,65; 9335,221;  224,459;37618,762;24,36404
 595,23; 9408,360;  217,612;38120,562;24,24811
 595,81; 9367,872;  221,612;38259,539;24,04511
 596,39; 9380,738;  209,996;38308,269;24,07128
 596,97; 9314,274;  206,149;38540,276;23,75983
 597,55; 9300,117;  211,074;38368,431;23,81990
 598,12; 9189,964;  184,302;38453,822;23,53220
 598,70; 9204,626;  195,149;38552,494;23,48827
 599,28; 9214,362;  214,995;38744,330;23,35718
 599,86; 9188,097;  204,841;38706,937;23,33186
 600,44; 9134,282;  172,610;38933,337;23,12050
 601,02; 9196,943;  227,608;38927,712;23,17651
 601,60; 9073,530;  209,688;38862,685;22,93184
 602,18; 9049,021;  178,610;38870,938;22,92550
 602,75; 8983,054;  189,920;39007,867;22,65224
 603,33; 8958,391;  201,687;38987,272;22,57721
 603,91; 8936,602;  188,840;39040,469;22,51582
 604,49; 8884,444;  208,226;39087,397;22,31585
 605,07; 8843,784;  215,996;39057,561;22,21277
 605,65; 8799,048;  225,533;39172,729;22,01318
 606,23; 8810,969;  264,306;39339,727;21,87222
 606,80; 8764,563;  285,074;39292,079;21,73838
 607,38; 8728,951;  300,686;39398,846;21,55668
 607,96; 8697,491;  337,612;39460,608;21,36820
 608,54; 8722,404;  389,225;39519,710;21,29587
 609,12; 8675,530;  377,689;39488,530;21,21622
 609,70; 8579,135;  406,226;39536,322;20,88650
 610,27; 8551,769;  399,458;39596,436;20,79831
 610,85; 8537,760;  415,995;39673,996;20,68818
 611,43; 8529,074;  418,226;39607,677;20,69651
 612,01; 8412,649;  389,150;39405,678;20,56436
 612,59; 8434,121;  400,072;39457,428;20,56987
 613,16; 8287,851;  365,767;39440,885;20,27399
 613,74; 8270,665;  354,149;39277,032;20,33898
 614,32; 8197,212;  334,533;39289,863;20,18383
 614,90; 8172,339;  313,842;39167,606;20,22583
 615,48; 8013,363;  264,151;38815,633;20,10094
 616,05; 7992,148;  257,844;38842,752;20,04490
 616,63; 7931,242;  267,460;38596,795;19,99456
 617,21; 7840,447;  266,458;38494,004;19,81291
 617,79; 7806,565;  245,073;38478,384;19,77723
 618,36; 7786,140;  268,996;38341,157;19,74446
 618,94; 7631,686;  209,920;38066,448;19,60498
 619,52; 7587,392;  227,536;37750,342;19,61435
 620,10; 7461,833;  235,304;37721,155;19,27802
 620,67; 7440,670;  234,229;37593,632;19,28950
 621,25; 7386,669;  252,303;37527,175;19,13988
 621,83; 7361,854;  224,689;37484,189;19,15529
 622,41; 7345,632;  272,305;37410,324;19,04605
 622,98; 7272,170;  257,460;37138,325;19,01992
 623,56; 7165,221;  249,537;37196,221;18,71801
 624,14; 7126,254;  239,226;37025,315;18,72183
 624,72; 7057,335;  232,920;36893,535;18,61511
 625,29; 7030,034;  218,691;36946,057;18,54569
 625,87; 7025,440;  265,996;36963,556;18,41933
 626,45; 6933,249;  211,153;36814,243;18,36483
 627,02; 6856,090;  228,458;36763,334;18,14056
 627,60; 6796,825;  216,072;36601,251;18,08636
 628,18; 6771,222;  203,535;36778,453;17,95681
 628,76; 6761,449;  204,075;36703,843;17,96552
 629,33; 6679,587;  236,844;36620,875;17,70761
 629,91; 6707,679;  220,766;36669,155;17,79753
 630,49; 6624,307;  236,152;36885,051;17,43069
 631,06; 6652,205;  224,460;36968,332;17,49338
 631,64; 6676,990;  236,691;36931,222;17,55111
 632,22; 6566,101;  191,076;36867,998;17,38157
 632,79; 6606,529;  222,922;37220,911;17,25393
 633,37; 6559,428;  206,150;37185,197;17,18075
 633,95; 6566,224;  217,537;37305,676;17,11784
 634,52; 6561,570;  204,151;37411,449;17,08648
 635,10; 6567,418;  202,997;37377,906;17,12021
 635,68; 6554,193;  217,153;37630,353;16,93798
 636,25; 6482,952;  192,692;37673,295;16,78271
 636,83; 6514,911;  186,767;37842,843;16,80511
 637,41; 6501,605;  194,538;37809,837;16,76729
 637,98; 6465,739;  220,230;38059,492;16,50537
 638,56; 6463,354;  217,539;38136,337;16,47155
 639,13; 6472,424;  203,768;38190,123;16,50239
 639,71; 6448,200;  245,152;38394,802;16,25978
 640,29; 6344,903;  171,152;38119,221;16,26895
 640,86; 6364,525;  196,844;38359,500;16,16156
 641,44; 6331,456;  195,613;38410,933;16,05598
 642,02; 6335,463;  222,152;38363,981;16,02784
 642,59; 6324,547;  195,075;38474,337;16,01251
 643,17; 6252,554;  195,921;38457,694;15,82946
 643,74; 6274,792;  186,228;38548,281;15,87132
 644,32; 6269,261;  217,151;38467,021;15,82256
 644,89; 6203,730;  207,382;38420,839;15,69172
 645,47; 6174,276;  237,074;38521,349;15,50820
 646,05; 6173,899;  206,536;38420,705;15,61558
 646,62; 6116,290;  201,844;38402,907;15,48241
 647,20; 6111,836;  207,690;38607,956;15,37528
 647,77; 6041,459;  185,767;38427,004;15,31251
 648,35; 5964,312;  180,074;38225,745;15,20341
 648,92; 5974,243;  217,305;38309,794;15,11305
 649,50; 5912,558;  175,459;38234,996;15,07401
 650,08; 5897,257;  171,382;38187,660;15,06164
 650,65; 5911,495;  185,228;38396,554;14,98579
 651,23; 5922,195;  165,689;39107,910;14,78217
 651,80; 6057,202;  179,535;40033,113;14,74815
 652,38; 6136,286;  194,766;40427,469;14,76789
 652,95; 6142,909;  163,458;40771,671;14,72473
 653,53; 6159,609;  190,766;41022,181;14,61826
 654,10; 6199,847;  222,151;41124,076;14,61471
 654,68; 6134,546;  190,689;41047,509;14,54802
 655,25; 6104,400;  178,535;41136,634;14,46811
 655,83; 6081,099;  178,612;41312,836;14,34933
 656,40; 6082,338;  214,689;41245,731;14,30051
 656,98; 6044,268;  187,920;41228,395;14,26969
 657,55; 6005,737;  198,227;41059,136;14,21287
 658,13; 5957,359;  190,843;40647,338;14,25362
 658,70; 5909,674;  203,842;40417,156;14,18891
 659,28; 5754,912;  180,150;39642,127;14,12692
 659,85; 5587,381;  196,612;38796,945;13,96560
 660,43; 5611,004;  213,073;38870,763;13,96341
 661,00; 5562,473;  191,304;38975,734;13,84878
 661,58; 5590,788;  183,765;39279,783;13,83011
 662,15; 5619,257;  174,458;39463,600;13,85828
 662,73; 5681,033;  233,611;39757,803;13,78250
 663,30; 5659,425;  186,534;40068,005;13,72289
 663,88; 5655,432;  197,765;40163,822;13,65576
 664,45; 5619,363;  183,227;40366,179;13,52846
 665,03; 5673,216;  179,842;40832,381;13,51299
 665,60; 5749,839;  262,534;41160,429;13,41708
 666,17; 5667,154;  190,765;41403,401;13,28813
 666,75; 5713,161;  188,457;41655,988;13,32296
 667,32; 5773,015;  215,072;41977,806;13,30838
 667,90; 5763,791;  188,072;42194,085;13,27362
 668,47; 5831,106;  208,149;42570,672;13,27342
 669,05; 5849,729;  177,842;42819,951;13,30114
 669,62; 5757,428;  163,995;42916,692;13,08323
 670,19; 5774,590;  172,688;43051,971;13,06436
 670,77; 5839,520;  197,226;43265,865;13,10070
 671,34; 5805,373;  176,072;43150,683;13,09913
 671,92; 5792,304;  169,918;43589,347;12,94901
 672,49; 5789,849;  196,072;43523,934;12,91035
 673,06; 5795,703;  154,918;43520,828;13,00742
 673,64; 5793,864;  172,995;43528,338;12,96465
 674,21; 5765,179;  161,764;43487,695;12,93317
 674,79; 5829,340;  193,995;43788,589;12,92671
 675,36; 5810,809;  198,149;43863,792;12,85372
 675,93; 5749,278;  167,995;43710,686;12,81796
 676,51; 5769,362;  182,225;43909,581;12,77721
 677,08; 5801,139;  188,687;43958,937;12,82253
 677,65; 5823,146;  187,918;44171,370;12,81216
 678,23; 5819,999;  193,379;44278,957;12,76295
 678,80; 5853,622;  169,071;44424,159;12,84497
 679,38; 5817,552;  175,379;44556,515;12,71300
 679,95; 5896,560;  186,841;44784,871;12,80263
 680,52; 5919,490;  175,917;45115,997;12,78051
 681,10; 5940,882;  184,917;45545,814;12,68927
 681,67; 6023,889;  197,533;45819,248;12,77102
 682,24; 5997,666;  163,610;45886,604;12,75957
 682,82; 6023,442;  175,456;46435,268;12,64161
 683,39; 6128,450;  214,148;46738,778;12,71220
 683,96; 6124,226;  178,071;47100,980;12,67218
 684,54; 6127,310;  163,686;47315,721;12,64765
 685,11; 6187,702;  216,994;47796,077;12,54902
 685,68; 6254,402;  183,609;48151,202;12,65603
 686,25; 6231,101;  174,763;48245,712;12,59875
 686,83; 6227,109;  177,994;48409,837;12,54175
 687,40; 6263,039;  164,301;48766,578;12,54826
 687,97; 6337,508;  219,763;49137,011;12,50631
 688,55; 6326,284;  163,455;49114,829;12,58970
 689,12; 6342,753;  146,378;49392,031;12,58258
 689,69; 6334,991;  160,686;49510,311;12,51135
 690,26; 6348,153;  172,070;49682,590;12,47428
 690,84; 6387,468;  175,763;49831,100;12,50964
 691,41; 6454,321;  187,301;49880,764;12,61136
 691,98; 6471,713;  189,147;50233,427;12,55401
 692,56; 6449,028;  174,686;50284,168;12,52127
 693,13; 6562,266;  221,916;50345,447;12,64945
 693,70; 6559,504;  192,609;50475,650;12,66211
 694,27; 6504,050;  169,455;50631,467;12,55320
 694,84; 6560,519;  158,916;50728,747;12,65894
 695,42; 6620,372;  216,993;50812,641;12,65599
 695,99; 6614,764;  185,531;51125,920;12,62109
 696,56; 6623,310;  176,762;50773,200;12,74111
 697,13; 6690,702;  182,378;51275,863;12,73807
 697,71; 6657,247;  161,454;51270,989;12,70955
 698,28; 6755,332;  180,916;51717,114;12,75689
 698,85; 6702,570;  145,531;51689,163;12,72134
 699,42; 6758,269;  145,454;51791,519;12,80410
 699,99; 6834,661;  188,070;51950,336;12,84061
 700,57; 6829,592;  182,223;52047,000;12,81673
 701,14; 6873,522;  172,377;52172,203;12,88686
 701,71; 6890,145;  178,377;52392,328;12,85436
 702,28; 6922,613;  171,531;52471,223;12,90846
 702,85; 6927,236;  180,300;52403,502;12,91942
 703,43; 6983,859;  181,531;52774,166;12,93399
 704,00; 7070,097;  195,377;52887,214;13,04703
 704,57; 7034,412;  175,992;52949,724;12,99590
 705,14; 7083,265;  199,531;53182,080;12,99246
 705,71; 7082,965;  203,838;53139,513;12,99526
 706,28; 7112,741;  181,300;53165,946;13,08198
 706,86; 7167,595;  208,300;53405,610;13,08204
 707,43; 7158,602;  226,069;53336,813;13,05298
 708,00; 7182,686;  204,223;53266,322;13,15150
 708,57; 7182,155;  174,069;53150,063;13,22880
 709,14; 7211,239;  200,761;53341,573;13,19227
 709,71; 7251,785;  178,915;53489,083;13,26739
 710,28; 7267,562;  180,530;53723,670;13,23611
 710,86; 7320,877;  200,761;53711,411;13,30598
 711,43; 7376,345;  210,376;53873,382;13,35365
 712,00; 7400,814;  186,761;53907,046;13,42892
 712,57; 7439,360;  201,453;54009,095;13,45145
 713,14; 7474,983;  179,145;54185,989;13,50910
 713,71; 7455,913;  187,222;54008,807;13,50516
 714,28; 7498,536;  194,761;54082,702;13,55364
 714,85; 7486,466;  178,991;53894,596;13,60401
 715,42; 7553,243;  184,376;54027,183;13,68589
 716,00; 7644,865;  250,530;54201,078;13,70577
 716,57; 7654,411;  193,068;54324,126;13,78385
 717,14; 7647,880;  177,376;54273,252;13,80975
 717,71; 7715,733;  172,760;54275,531;13,94194
 718,28; 7756,818;  216,145;54345,887;13,93074
 718,85; 7731,902;  167,145;54372,089;13,95584
 719,42; 7798,755;  204,299;54609,215;13,95914
 719,99; 7775,224;  174,529;54345,725;14,03088
 720,56; 7909,308;  191,991;54672,158;14,16537
 721,13; 7926,623;  176,529;54740,206;14,20376
 721,70; 7942,938;  170,068;54607,101;14,27864
 722,27; 7947,176;  196,837;54661,380;14,23006
 722,84; 8068,953;  237,991;54881,121;14,33110
 723,41; 8030,345;  167,683;54741,631;14,40735
 723,98; 8077,506;  182,837;54994,064;14,40338
 724,55; 8146,436;  214,990;55060,805;14,46135
 725,12; 8138,059;  154,221;55026,776;14,54978
 725,69; 8232,297;  180,298;55180,286;14,64000
 726,27; 8234,074;  187,375;55261,719;14,61061
 726,84; 8306,696;  198,836;55627,383;14,62759
 727,41; 8359,396;  208,606;55544,816;14,72958
 727,98; 8413,019;  207,452;55875,941;14,74006
 728,55; 8464,410;  216,836;55755,144;14,85024
 729,12; 8468,418;  167,605;55813,961;14,91708
 729,69; 8523,194;  210,221;55962,779;14,91048
 730,26; 8584,125;  198,682;56213,443;14,97006
 730,82; 8596,670;  184,913;56095,030;15,04514
 731,39; 8680,832;  194,374;56137,617;15,16976
 731,96; 8746,377;  169,990;56522,127;15,21928
 732,53; 8785,538;  190,067;56737,329;15,20051
 733,10; 8801,853;  203,451;56801,224;15,19212
 733,67; 8873,168;  205,605;57072,887;15,24174
 734,24; 8831,099;  182,605;56736,474;15,29249
 734,81; 8950,875;  200,066;56852,754;15,44641
 735,38; 8913,729;  191,759;56642,571;15,45057
 735,95; 8970,736;  189,143;56516,774;15,59020
 736,52; 8962,974;  206,759;56567,668;15,53597
 737,09; 8959,135;  214,066;56263,563;15,60240
 737,66; 9014,066;  226,989;56505,457;15,61357
 738,23; 9079,534;  181,758;56571,890;15,77896
 738,80; 9166,619;  234,066;56727,016;15,81180
 739,37; 9245,087;  220,451;57013,449;15,89040
 739,94; 9273,941;  191,220;57087,190;15,96373
 740,51; 9362,179;  288,989;57217,315;15,93792
 741,07; 9360,263;  188,758;57010,210;16,14092
 741,64; 9402,117;  210,681;57304,643;16,09879
 742,21; 9443,509;  198,297;57378,922;16,16843
 742,78; 9487,131;  164,296;57089,278;16,37740
 743,35; 9527,908;  185,450;57470,019;16,30886
 743,92; 9625,838;  221,066;57462,221;16,43009
 744,49; 9639,615;  212,681;57394,193;16,48598
 745,06; 9670,468;  186,066;57407,318;16,57497
 745,63; 9725,475;  177,065;57428,136;16,67813
 746,19; 9767,483;  182,835;57418,646;16,74589
 746,76; 9795,721;  194,527;57385,156;16,78805
 747,33; 9863,113;  186,911;57375,512;16,91981
 747,90; 9925,812;  204,142;57591,022;16,94058
 748,47; 9939,743;  197,758;57503,916;16,99989
 749,04; 9996,904;  204,219;57567,426;17,07137
 749,61;10045,065;  221,065;57412,859;17,17729
 750,17;10073,380;  219,527;57580,831;17,17857
 750,74;10111,156;  207,603;57433,418;17,30609
 751,31;10041,087;  187,680;57384,928;17,22706
 751,88;10066,556;  175,757;57254,515;17,32834
 752,45;10197,563;  188,526;57389,794;17,49793
 753,02;10164,493;  213,680;57212,150;17,45804
 753,58;10232,501;  180,449;57085,352;17,66465
 754,15;10286,969;  184,834;57280,478;17,69336
 754,72;10267,592;  183,295;57070,449;17,72684
 755,29;10265,061;  181,834;56891,421;17,78046
 755,86;10376,991;  199,065;57059,239;17,89992
 756,42;10371,768;  211,065;56937,902;17,91163
 756,99;10400,160;  182,680;56933,489;18,00411
 757,56;10431,552;  193,372;56864,153;18,06606
 758,13;10441,482;  162,141;56730,279;18,17161
 758,70;10534,412;  184,910;56782,635;18,28607
 759,26;10581,112;  190,295;56940,606;18,30971
 759,83;10682,965;  201,064;57008,116;18,45176
 760,40;10652,204;  190,372;56726,626;18,50464
 760,97;10707,980;  177,218;56920,059;18,55875
 761,53;10697,680;  164,526;56539,339;18,68415
 762,10;10749,379;  164,756;56492,925;18,79099
 762,67;10767,694;  203,295;56444,128;18,78422
 763,24;10693,625;  157,525;55971,945;18,87702
 763,80;10819,324;  185,833;56198,609;18,98405
 764,37;10829,639;  179,448;56055,427;19,06041
 764,94;10800,954;  168,602;55661,322;19,15990
 765,50;10872,346;  165,371;55636,601;19,30185
 766,07;10977,738;  203,141;55684,341;19,42027
 766,64;10927,438;  167,371;55326,159;19,50744
 767,21;10923,983;  173,756;55232,054;19,52517
 767,77;10981,683;  190,602;55148,564;19,63516
 768,34;11008,306;  196,525;55235,689;19,64380
 768,91;11019,159;  196,371;54968,815;19,75955
 769,47;11033,705;  188,833;55026,940;19,77616
 770,04;11067,404;  191,833;54845,911;19,89892
 770,61;11092,489;  181,217;54715,498;20,00810
 771,18;11115,881;  170,832;54589,008;20,11285
 771,74;11118,503;  190,294;54655,364;20,06462
 772,31;11210,357;  176,140;54451,028;20,33024
 772,88;11162,133;  169,448;54240,846;20,32995
 773,44;11136,064;  166,448;54021,971;20,36860
 774,01;11200,609;  193,909;54134,943;20,40506
 774,58;11148,847;  177,140;53742,914;20,48268
 775,14;11237,932;  172,217;53925,271;20,58621
 775,71;11275,631;  174,678;53789,319;20,70508
 776,27;11364,946;  218,293;53678,829;20,85025
 776,84;11417,030;  245,063;53766,262;20,87391
 777,41;11336,499;  190,447;53549,849;20,88864
 777,97;11357,814;  181,986;53314,897;21,03372
 778,54;11423,437;  194,601;53366,869;21,11784
 779,11;11465,290;  212,139;53356,456;21,17470
 779,67;11466,528;  169,601;53295,504;21,26444
 780,24;11548,920;  193,909;53023,937;21,49348
 780,80;11554,543;  214,370;53013,678;21,47788
 781,37;11607,858;  205,216;52987,188;21,60329
 781,94;11572,942;  191,755;52730,160;21,66261
 782,50;11657,950;  198,216;52704,439;21,82548
 783,07;11708,111;  213,139;52829,641;21,84670
 783,63;11716,272;  181,985;52499,151;22,04685
 784,20;11753,433;  207,985;52386,507;22,12682
 784,77;11738,748;  194,600;52324,094;22,14514
 785,33;11765,986;  168,447;52102,527;22,33127
 785,90;11816,763;  197,985;52037,730;22,41288
 786,46;11806,308;  214,677;51925,317;22,41634
 787,03;11864,239;  183,831;51839,903;22,61188
 787,59;11843,169;  198,369;51767,260;22,58106
 788,16;11916,253;  197,369;51654,000;22,77429
 788,73;11949,722;  200,985;51537,049;22,88593
 789,29;11908,191;  190,062;51084,559;23,02435
 789,86;11989,429;  209,138;50995,453;23,19580
 790,42;11977,359;  204,446;50920,810;23,21324
 790,99;11920,674;  207,369;50563,320;23,26102
 791,55;12015,297;  191,369;50593,906;23,45899
 792,12;12001,920;  216,984;50541,878;23,41771
 792,68;11986,465;  202,830;50166,311;23,58450
 793,25;12058,934;  212,984;49944,744;23,81969
 793,81;12049,711;  253,138;49621,331;23,89509
 794,38;11951,872;  168,907;49381,379;23,94305
 794,94;11907,341;  196,446;49312,505;23,84331
 795,51;12038,117;  214,369;48964,938;24,25356
 796,07;11909,432;  203,599;48756,525;24,10943
 796,64;11951,824;  218,984;48868,958;24,11685
 797,20;11860,293;  209,445;48385,929;24,18368
 797,77;11785,762;  184,138;47988,362;24,26904
 798,33;11801,615;  199,368;47845,103;24,35107
 798,90;11793,930;  223,291;47800,613;24,31965
 799,46;11788,861;  208,907;47259,662;24,61162
 800,03;11824,022;  208,214;47214,864;24,71099
 800,59;11810,568;  222,368;46957,528;24,79546
 801,15;11736,036;  221,753;46844,884;24,69650
 801,72;11688,121;  226,137;46459,779;24,79144
 802,28;11677,897;  238,830;46156,519;24,91211
 802,85;11643,212;  206,830;46055,722;24,94364
 803,41;11645,066;  209,906;45829,924;25,06610
 803,98;11618,227;  211,599;45325,588;25,28402
 804,54;11576,388;  212,676;45133,252;25,29734
 805,11;11534,626;  212,522;44999,915;25,27967
 805,67;11605,633;  238,675;44844,349;25,48321
 806,23;11522,640;  215,522;44381,705;25,60130
 806,80;11537,417;  222,829;44288,522;25,67664
 807,36;11608,347;  232,060;44206,417;25,87028
 807,93;11591,509;  239,829;43938,081;25,97742
 808,49;11501,362;  203,598;43598,206;26,03495
 809,05;11505,292;  191,906;43368,870;26,20237
 809,62;11532,300;  230,290;43348,765;26,21152
 810,18;11541,615;  222,983;43249,582;26,30613
 810,74;11523,314;  190,983;42947,400;26,50440
 811,31;11500,783;  193,829;42808,679;26,53290
 811,87;11600,329;  207,521;42600,343;26,87438
 812,44;11618,798;  240,983;42570,776;26,87898
 813,00;11512,959;  166,752;42252,363;26,95982
 813,56;11590,197;  218,829;42345,258;26,99343
 814,13;11609,820;  222,367;42177,383;27,14205
 814,69;11572,519;  211,367;41986,508;27,19596
 815,25;11554,603;  188,752;41599,403;27,44669
 815,82;11546,611;  233,751;41614,374;27,33854
 816,38;11595,464;  246,751;41365,884;27,59959
 816,94;11556,856;  203,059;41060,010;27,78914
 817,51;11521,325;  186,444;40868,904;27,86184
 818,07;11478,640;  205,367;40651,953;27,87200
 818,63;11472,955;  221,751;40447,309;27,97029
 819,20;11494,962;  217,982;40328,973;28,11444
 819,76;11430,200;  202,443;39945,175;28,25109
 820,32;11448,746;  247,520;39857,147;28,27905
 820,89;11400,676;  234,905;39659,349;28,32195
 821,45;11409,761;  198,597;39336,397;28,64536
 822,01;11346,460;  222,751;39097,369;28,61432
 822,57;11368,467;  229,366;38904,802;28,80149
 823,14;11282,629;  186,905;38724,389;28,79203
 823,70;11302,559;  203,828;38463,899;29,00865
 824,26;11288,259;  201,135;38282,870;29,11402
 824,82;11247,112;  231,981;38128,227;29,06655
 825,39;11210,965;  208,751;37809,737;29,26044
 825,95;11260,127;  231,135;37881,400;29,29326
 826,51;11176,749;  226,135;37413,680;29,44699
 827,08;11229,987;  255,058;37546,267;29,43034
 827,64;11198,456;  234,520;37333,623;29,55310
 828,20;11173,387;  203,827;37073,825;29,75199
 828,76;11212,086;  231,981;37046,643;29,82536
 829,32;11223,632;  237,366;36879,691;29,98245
 829,89;11154,024;  193,135;36702,663;30,02200
 830,45;11262,570;  215,058;36642,942;30,32707
 831,01;11237,423;  217,904;36452,144;30,41189
 831,57;11208,892;  225,365;36346,731;30,40728
 832,14;11254,284;  210,904;36376,472;30,53562
 832,70;11239,983;  200,058;36099,982;30,75195
 833,26;11227,991;  185,519;36024,953;30,81095
 833,82;11266,383;  211,673;35978,079;30,90808
 834,38;11330,313;  201,519;35897,973;31,17619
 834,95;11286,012;  193,980;35778,560;31,17089
 835,51;11241,020;  172,596;35642,301;31,20529
 836,07;11335,719;  216,134;35712,503;31,32598
 836,63;11455,188;  232,826;35781,552;31,56896
 837,19;11425,503;  209,057;35477,446;31,80311
 837,75;11321,357;  174,596;35236,187;31,79194
 838,32;11389,364;  225,826;35364,389;31,77005
 838,88;11486,140;  220,442;35382,053;32,03977
 839,44;11497,917;  209,519;35322,794;32,14852
 840,00;11513,463;  204,749;35187,689;32,32637
 840,56;11435,547;  189,057;34877,737;32,42121
 841,12;11496,939;  196,749;34811,632;32,64547
 841,68;11450,254;  183,749;34663,603;32,67562
 842,25;11549,338;  201,749;34793,267;32,80454
 842,81;11488,961;  196,441;34370,546;33,04408
 843,37;11547,891;  186,980;34470,826;33,13780
 843,93;11546,129;  201,749;34398,720;33,17364
 844,49;11629,213;  216,133;34443,230;33,34516
 845,05;11575,221;  180,287;34171,202;33,52347
 845,61;11690,459;  226,595;34274,019;33,67028
 846,17;11664,466;  202,903;34148,299;33,76471
 846,73;11691,550;  213,749;34074,962;33,89660
 847,29;11606,250;  186,595;33753,472;34,02061
 847,86;11621,565;  193,979;33848,521;33,95555
 848,42;11634,880;  190,902;33540,800;34,31488
 848,98;11644,579;  203,902;33503,695;34,35660
 849,54;11706,894;  206,133;33561,359;34,47964
 850,10;11691,517;  208,595;33397,868;34,59829
 850,66;11605,524;  191,287;33204,994;34,57424
 851,22;11628,532;  192,441;33273,965;34,56942
 851,78;11703,308;  234,441;33214,706;34,77494
 852,34;11596,008;  222,133;32956,293;34,74619
 852,90;11659,246;  211,056;32944,188;34,97432
 853,46;11567,561;  191,517;32622,390;35,07782
 854,02;11664,953;  213,286;32732,823;35,21473
 854,58;11573,268;  196,979;32437,948;35,28520
 855,14;11601,275;  195,517;32381,305;35,43725
 855,70;11601,590;  161,825;32202,507;35,70388
 856,26;11594,982;  211,055;32132,709;35,66208
 856,82;11573,451;  196,902;31943,450;35,83555
 857,38;11610,766;  228,517;31904,806;35,93302
 857,94;11498,773;  202,209;31825,701;35,72206
 858,50;11572,857;  215,671;31719,903;36,04972
 859,06;11469,557;  194,978;31564,105;35,94164
 859,62;11530,026;  211,671;31461,308;36,21916
 860,18;11530,956;  199,517;31234,971;36,51127
 860,74;11471,579;  174,209;31134,558;36,48980
 861,30;11436,201;  185,901;30921,838;36,60308
 861,86;11527,286;  235,517;30921,040;36,79836
 862,42;11450,831;  199,824;30755,242;36,82164
 862,98;11523,531;  231,978;30739,598;37,01224
 863,54;11476,000;  205,055;30572,570;37,11514
 864,10;11479,776;  202,286;30565,695;37,14171
 864,66;11442,245;  190,978;30311,205;37,35452
 865,22;11433,176;  198,285;30183,946;37,46754
 865,78;11418,491;  208,439;30096,302;37,50704
 866,34;11427,113;  198,208;29955,427;37,73506
 866,90;11431,813;  220,208;29864,322;37,82068
 867,45;11309,436;  209,208;29665,909;37,68320
 868,01;11309,212;  213,747;29548,650;37,82343
 868,57;11285,296;  190,362;29359,237;38,03690
 869,13;11242,457;  184,131;29243,977;38,05363
 869,69;11252,157;  195,747;29100,410;38,25130
 870,25;11240,395;  183,131;28971,536;38,40874
 870,81;11253,941;  194,593;28962,200;38,44375
 871,37;11208,487;  214,439;28801,479;38,45815
 871,93;11260,417;  220,669;28665,758;38,81073
 872,49;11151,040;  223,362;28491,345;38,65744
 873,04;11123,047;  198,439;28222,086;38,98354
 873,60;11100,516;  182,977;28131,365;39,06321
 874,16;11095,215;  212,592;28031,337;39,11975
 874,72;11072,138;  202,669;27894,567;39,25144
 875,28;11107,600;  209,285;27946,260;39,29165
 875,84;11151,908;  206,592;27892,798;39,53346
 876,40;11164,600;  196,131;27799,106;39,73655
 876,95;11134,523;  213,746;27745,952;39,66546
 877,51;11216,215;  230,746;27755,260;39,91158
 878,07;11230,831;  249,977;27778,490;39,88902
 878,63;11284,062;  199,054;27740,875;40,24791
 879,19;11313,369;  224,977;27715,644;40,33512
 879,75;11327,985;  196,900;27768,875;40,37101
 880,30;11394,831;  193,208;27740,798;40,66281
 880,86;11561,600;  237,669;27948,798;40,86420
 881,42;11524,215;  190,746;27995,952;40,76024
 881,98;11598,292;  221,823;28080,260;40,83671
 882,54;11697,831;  194,746;28214,952;41,05282
 883,09;11745,908;  217,669;28222,567;41,16508
 883,65;11848,908;  197,438;28296,183;41,46616
 884,21;11984,600;  235,362;28611,952;41,40469
 884,77;11978,138;  204,900;28568,413;41,50839
 885,32;12105,446;  208,592;28737,260;41,70140
 885,88;12156,062;  235,515;28818,260;41,70539
 886,44;12208,908;  213,362;29018,029;41,64445
 887,00;12280,523;  229,131;29005,260;41,87982
 887,56;12360,138;  204,285;29124,721;42,03206
 888,11;12372,138;  208,900;29123,260;42,06643
 888,67;12482,062;  245,592;29285,106;42,13731
 889,23;12559,754;  215,977;29233,337;42,53928
 889,79;12477,600;  194,131;29203,490;42,34312
 890,34;12474,446;  214,285;29125,337;42,40649
 890,90;12618,062;  267,285;29395,490;42,40143
 891,46;12512,600;  199,438;29217,721;42,43243
 892,01;12620,754;  236,900;29188,952;42,77367
 892,57;12618,985;  236,285;29105,260;42,89276
 893,13;12511,523;  203,746;28905,721;42,88129
 893,69;12588,600;  206,438;28872,106;43,19509
 894,24;12579,523;  211,362;28718,183;43,38667
 894,80;12558,908;  217,362;28590,875;43,49671
 895,36;12507,908;  215,977;28459,029;43,52196
 895,91;12506,369;  215,438;28251,567;43,83961
 896,47;12493,292;  237,515;28129,413;43,94028
 897,03;12416,754;  203,977;27957,490;44,00444
 897,58;12468,292;  225,900;27905,644;44,22870
 898,14;12391,062;  223,669;27669,337;44,33265
 898,70;12351,138;  191,208;27466,490;44,58224
 899,25;12420,831;  218,362;27531,029;44,67696
 899,81;12435,062;  236,900;27286,875;45,09491
 900,37;12332,985;  181,515;27045,490;45,23333
 900,92;12476,831;  218,900;27003,029;45,76565
 901,48;12399,369;  198,592;26994,875;45,53160
 902,03;12320,292;  204,746;26775,567;45,59718
 902,59;12352,754;  211,131;26706,798;45,82494
 903,15;12339,908;  237,592;26565,952;45,96684
 903,70;12164,600;  213,131;26298,029;45,81758
 904,26;12129,292;  201,515;26190,029;45,89634
 904,82;12266,831;  214,669;26156,337;46,45870
 905,37;12134,985;  222,131;26028,567;46,16234
 905,93;12056,831;  205,362;25822,644;46,26357
 906,48;12116,600;  215,977;25838,567;46,44582
 907,04;12084,985;  232,054;25749,260;46,45074
 907,60;11945,831;  208,592;25580,875;46,26008
 908,15;11977,369;  199,131;25376,567;46,78093
 908,71;11996,600;  231,054;25396,029;46,75366
 909,26;11973,215;  207,823;25226,721;47,02602
 909,82;11967,985;  224,900;25071,106;47,26309
 910,37;11994,754;  259,515;25026,337;47,38290
 910,93;11871,369;  203,054;24826,490;47,38703
 911,48;11829,369;  201,515;24648,413;47,56372
 912,04;11793,292;  197,515;24614,875;47,48989
 912,60;11850,677;  222,592;24608,337;47,68394
 913,15;11770,215;  223,746;24384,413;47,79036
 913,71;11720,677;  216,285;24195,337;47,97684
 914,26;11689,985;  195,977;24064,798;48,15490
 914,82;11696,600;  212,054;23967,875;48,34413
 915,37;11677,369;  205,592;23966,721;48,27960
 915,93;11650,831;  258,208;23832,721;48,32602
 916,48;11623,062;  205,592;23705,952;48,58423
 917,04;11565,292;  231,823;23544,337;48,61539
 917,59;11577,677;  238,515;23475,721;48,79744
 918,15;11542,369;  184,746;23311,029;49,11132
 918,70;11498,908;  214,054;23211,875;49,06923
 919,26;11488,369;  212,977;23183,875;49,08555
 919,81;11418,908;  199,208;22977,413;49,25629
 920,37;11390,369;  206,823;22853,952;49,38174
 920,92;11385,677;  225,900;22825,798;49,37977
 921,48;11307,908;  190,900;22624,721;49,55468
 922,03;11311,908;  198,362;22584,490;49,64479
 922,59;11329,754;  203,669;22434,567;50,04784
 923,14;11234,831;  203,208;22254,490;50,02713
 923,69;11316,215;  237,208;22258,490;50,31046
 924,25;11270,292;  231,823;22196,490;50,25557
 924,80;11166,446;  211,823;21988,260;50,30494
 925,36;11142,138;  198,362;21896,567;50,43632
 925,91;11104,985;  213,054;21771,029;50,52390
 926,47;11090,446;  200,438;21696,106;50,66141
 927,02;11141,831;  253,977;21614,337;50,97224
 927,57;11072,292;  218,823;21509,183;50,97833
 928,13;11059,369;  207,746;21357,875;51,30760
 928,68;11015,600;  213,362;21359,875;51,08283
 929,24;10949,062;  187,131;21070,029;51,53466
 929,79;10914,292;  203,669;21006,952;51,48525
 930,34;10903,215;  215,592;20851,490;51,79141
 930,90;10935,831;  207,131;20847,798;51,97846
 931,45;10947,369;  214,131;20843,490;52,02895
 932,01;10903,215;  229,515;20694,183;52,15672
 932,56;10846,292;  238,438;20547,721;52,23155
 933,11;10874,754;  244,592;20476,798;52,54079
 933,67;10826,908;  211,208;20294,183;52,85920
 934,22;10763,600;  209,208;20273,106;52,60390
 934,77;10788,754;  233,438;20123,798;53,06749
 935,33;10709,754;  217,823;20039,875;52,93060
 935,88;10722,523;  228,054;19944,260;53,22763
 936,43;10728,446;  210,438;19825,106;53,62318
 936,99;10655,062;  216,131;19786,183;53,34135
 937,54;10626,908;  196,977;19597,875;53,76004
 938,09;10609,062;  221,977;19586,183;53,64064
 938,65;10580,215;  231,054;19423,183;53,92399
 939,20;10567,754;  198,362;19304,644;54,27216
 939,75;10535,831;  197,285;19205,029;54,39123
 940,31;10500,369;  201,131;19061,413;54,60808
 940,86;10530,754;  219,669;19111,644;54,57918
 941,41;10590,062;  273,823;19012,337;55,05367
 941,96;10450,523;  209,438;18860,106;54,91002
 942,52;10450,138;  217,746;18744,952;55,22901
 943,07;10322,062;  195,669;18638,644;54,90650
 943,62;10374,985;  206,900;18532,029;55,48711
 944,18;10375,138;  189,900;18484,183;55,67443
 944,73;10343,754;  206,362;18377,106;55,78964
 945,28;10249,754;  177,515;18157,106;56,02040
 945,83;10282,369;  207,515;18180,106;56,05677
 946,39;10266,754;  207,208;18103,644;56,20977
 946,94;10278,369;  232,208;18063,413;56,34034
 947,49;10214,754;  200,900;17941,490;56,44600
 948,04;10211,600;  234,977;17890,490;56,50713
 948,59;10130,369;  231,592;17853,260;56,17390
 949,15;10139,677;  198,131;17732,413;56,69776
 949,70;10081,677;  195,362;17628,952;56,70843
 950,25;10076,523;  217,362;17560,413;56,84790
 950,80;10006,754;  173,823;17422,644;57,00639
 951,36; 9952,908;  173,823;17359,183;56,90358
 951,91; 9992,062;  225,746;17327,875;57,10585
 952,46; 9842,985;  195,285;17151,106;56,89904
 953,01; 9902,138;  218,669;17183,260;57,08048
 953,56; 9826,138;  200,823;17027,106;57,20405
 954,11; 9844,369;  224,438;16970,337;57,44649
 954,67; 9845,292;  206,362;16925,721;57,65132
 955,22; 9789,600;  191,362;16792,875;57,81544
 955,77; 9832,523;  230,823;16717,721;58,23837
 956,32; 9777,369;  255,515;16593,337;58,28105
 956,87; 9666,677;  201,592;16475,644;58,16059
 957,42; 9699,754;  208,285;16469,490;58,36879
 957,98; 9652,215;  204,054;16331,567;58,58412
 958,53; 9700,138;  224,669;16315,106;58,88883
 959,08; 9620,523;  196,669;16148,106;59,07840
 959,63; 9567,831;  208,131;16079,183;58,97341
 960,18; 9593,062;  217,285;16020,183;59,32948
 960,73; 9525,292;  214,285;15973,337;59,08355
 961,28; 9526,985;  190,285;15852,106;59,61440
 961,83; 9500,600;  225,438;15834,106;59,42315
 962,39; 9429,446;  192,515;15666,337;59,69392
 962,94; 9394,985;  217,362;15576,337;59,75414
 963,49; 9312,831;  209,515;15429,106;59,81314
 964,04; 9331,600;  224,054;15424,644;59,91574
 964,59; 9287,831;  187,438;15327,952;60,10623
 965,14; 9267,600;  227,285;15264,183;60,12088
 965,69; 9232,600;  217,054;15197,183;60,18337
 966,24; 9115,446;  199,285;15073,952;59,94192
 966,79; 9139,677;  221,208;14977,644;60,43782
 967,34; 9100,138;  185,438;14850,952;60,78682
 967,89; 9061,908;  187,592;14833,952;60,59059
 968,44; 9062,600;  218,669;14708,644;61,03482
 968,99; 9026,215;  214,362;14658,260;61,00745
 969,55; 8966,369;  215,746;14575,413;60,93890
 970,10; 8952,292;  214,823;14487,721;61,21720
 970,65; 8879,831;  218,592;14401,260;61,06918
 971,20; 8828,369;  198,977;14237,490;61,46942
 971,75; 8778,908;  190,362;14092,644;61,77796
 972,30; 8806,831;  211,669;14052,721;62,09905
 972,85; 8711,292;  188,823;13959,798;61,88719
 973,40; 8647,677;  199,208;13830,721;61,97749
 973,95; 8620,062;  213,208;13790,029;61,92063
 974,50; 8643,600;  227,438;13743,875;62,26613
 975,05; 8573,446;  207,054;13596,644;62,48430
 975,60; 8557,062;  226,054;13553,721;62,50912
 976,15; 8494,215;  203,054;13518,875;62,26549
 976,70; 8438,600;  227,746;13395,875;62,35399
 977,25; 8474,523;  221,746;13325,644;62,97956
 977,80; 8338,138;  198,208;13137,875;62,90680
 978,35; 8260,292;  218,900;13099,337;62,43105
 978,89; 8278,446;  192,977;12973,875;63,26214
 979,44; 8235,446;  208,515;12963,260;62,93290
 979,99; 8186,523;  201,669;12699,490;63,88997
 980,54; 8203,754;  242,977;12649,106;64,16810
 981,09; 8104,446;  221,515;12634,490;63,50557
 981,64; 8030,523;  222,746;12474,644;63,72708
 982,19; 8036,062;  251,669;12398,875;64,08381
 982,74; 7959,985;  227,438;12283,875;64,13625
 983,29; 7914,985;  207,054;12128,952;64,65355
 983,84; 7850,369;  221,054;12035,644;64,57537
 984,39; 7887,523;  266,592;12028,490;64,79338
 984,94; 7745,908;  188,900;11850,106;64,80469
 985,49; 7770,369;  232,669;11772,952;65,31642
 986,03; 7695,446;  234,131;11732,337;64,89113
 986,58; 7637,600;  250,900;11542,798;65,41593
 987,13; 7577,215;  218,746;11436,337;65,59759
 987,68; 7503,062;  237,900;11319,337;65,56155
 988,23; 7445,292;  229,131;11326,337;65,02683
 988,78; 7386,908;  211,592;11094,567;65,93156
 989,33; 7396,600;  234,285;11014,798;66,43761
 989,88; 7305,369;  247,900;10998,183;65,64915
 990,42; 7252,831;  212,823;10821,875;66,35850
 990,97; 7165,985;  206,592;10711,413;66,24951
 991,52; 7142,292;  241,977;10690,260;66,04258
 992,07; 7126,138;  240,592;10568,413;66,66988
 992,62; 7013,062;  222,746;10467,337;66,28196
 993,17; 6971,831;  239,285;10346,567;66,61084
 993,71; 6877,446;  229,977;10217,106;66,56036
 994,26; 6744,369;  208,362;10090,029;66,14276
 994,81; 6808,369;  248,823;10088,567;66,66379
 995,36; 6653,446;  207,977; 9906,567;66,45779
 995,91; 6596,831;  221,823; 9849,644;66,21444
 996,45; 6548,831;  221,592; 9761,029;66,32717
 997,00; 6471,754;  196,746; 9621,875;66,57742
 997,55; 6472,677;  225,900; 9569,875;66,85353
 998,10; 6423,523;  250,131; 9448,567;67,11350
 998,65; 6376,062;  215,054; 9386,490;67,17604
 999,19; 6289,523;  236,208; 9250,106;67,15536
 999,74; 6191,677;  254,362; 9150,337;66,74159
1000,29; 6199,138;  231,285; 9101,337;67,28093
1000,84; 6099,446;  219,746; 8956,490;67,29852
1001,38; 6017,908;  224,054; 8857,413;67,11007
1001,93; 5973,523;  236,438; 8790,413;67,06922
1002,48; 5908,600;  209,208; 8639,260;67,60803
1003,03; 5912,677;  239,054; 8581,644;68,00793
1003,57; 5836,369;  233,285; 8459,106;68,11581
1004,12; 5794,138;  256,362; 8424,029;67,80121
1004,67; 5707,446;  213,669; 8306,798;67,88199
1005,22; 5610,369;  217,438; 8128,567;68,16892
1005,76; 5519,985;  208,285; 8041,413;67,81071
1006,31; 5519,215;  238,054; 8020,952;67,85598
1006,86; 5437,369;  216,592; 7854,721;68,35152
1007,40; 5343,446;  207,362; 7722,183;68,34607
1007,95; 5284,062;  226,823; 7679,875;67,85460
1008,50; 5199,138;  229,208; 7576,260;67,64524
1009,04; 5164,215;  223,515; 7426,952;68,58810
1009,59; 5093,600;  230,362; 7305,260;68,73934
1010,14; 5006,600;  216,515; 7213,798;68,45635
1010,68; 4968,523;  222,592; 7073,029;69,27925
1011,23; 4919,523;  223,054; 6976,337;69,54350
1011,78; 4884,369;  226,362; 6949,567;69,28254
1012,32; 4756,677;  234,208; 6817,106;68,70028
1012,87; 4817,062;  244,592; 6759,875;70,18067
1013,42; 4718,292;  217,054; 6651,798;69,95210
1013,96; 4704,908;  248,054; 6665,644;69,44747
1014,51; 4636,292;  187,438; 6541,644;70,01432
1015,06; 4654,523;  190,823; 6563,413;70,04530
1015,60; 4720,138;  268,977; 6603,875;70,26414
1016,15; 4695,600;  217,131; 6581,029;70,37305
1016,69; 4715,908;  219,362; 6592,183;70,55817
1017,24; 4741,908;  203,515; 6614,952;70,78589
1017,79; 4773,292;  242,362; 6666,260;70,53242
1018,33; 4760,754;  218,669; 6645,952;70,66882
1018,88; 4825,523;  224,515; 6727,644;70,75068
1019,42; 4829,215;  219,669; 6695,029;71,18595
1019,97; 4866,908;  216,131; 6701,798;71,70853
1020,51; 4891,985;  232,438; 6727,798;71,73654
1021,06; 4921,908;  198,900; 6726,721;72,35198
1021,61; 4856,831;  191,669; 6679,337;71,90815
1022,15; 4847,831;  171,131; 6656,260;72,11422
1022,70; 4852,523;  215,977; 6651,106;72,05056
1023,24; 4816,138;  211,131; 6634,260;71,69415
1023,79; 4777,831;  225,977; 6554,644;71,92437
1024,33; 4757,600;  204,977; 6513,875;72,16194
1024,88; 4682,215;  223,362; 6409,490;72,07826
1025,42; 4643,677;  228,515; 6312,798;72,56667
1025,97; 4587,523;  210,746; 6220,798;72,82428
1026,51; 4467,292;  183,746; 6119,721;72,16247
1027,06; 4467,831;  211,592; 6090,644;72,39668
1027,60; 4406,831;  217,669; 5963,106;72,91285
1028,15; 4355,062;  215,977; 5864,260;73,28041
1028,69; 4229,908;  182,823; 5754,875;72,63185
1029,24; 4228,446;  192,054; 5702,260;73,25302
1029,78; 4142,985;  197,669; 5573,337;73,39210
1030,33; 4040,754;  186,669; 5471,413;72,92850
1030,87; 4037,831;  206,669; 5435,260;73,27332
1031,42; 3945,523;  196,208; 5321,952;73,14675
1031,96; 3925,138;  210,977; 5266,721;73,46419
1032,51; 3858,831;  196,515; 5181,029;73,47388
1033,05; 3841,062;  223,823; 5123,183;73,83084
1033,60; 3717,369;  176,285; 5016,413;73,16096
1034,14; 3681,600;  207,438; 4937,798;73,44392
1034,69; 3657,446;  207,977; 4890,952;73,65978
1035,23; 3631,062;  214,669; 4825,644;74,09262
1035,77; 3568,062;  208,823; 4753,567;73,91480
1036,32; 3518,215;  182,515; 4679,183;74,18161
1036,86; 3507,677;  208,823; 4631,029;74,59748
1037,41; 3435,292;  225,900; 4570,106;73,87754
1037,95; 3367,369;  197,285; 4478,875;74,03989
1038,50; 3334,831;  206,208; 4419,413;74,25754
1039,04; 3319,754;  229,823; 4396,106;74,16517
1039,58; 3256,908;  191,977; 4271,952;75,12131
1040,13; 3198,754;  205,900; 4232,644;74,32441
1040,67; 3211,523;  231,515; 4220,952;74,69746
1041,21; 3152,446;  240,362; 4134,490;74,78141
1041,76; 3073,985;  191,054; 4041,798;74,86685
1042,30; 3049,523;  210,131; 4005,567;74,81069
1042,85; 2992,062;  202,285; 3944,952;74,53981
1043,39; 2964,754;  182,977; 3902,567;74,78718
1043,93; 2960,446;  230,592; 3840,952;75,61169
1044,48; 2900,754;  218,131; 3782,029;75,27216
1045,02; 2864,369;  205,592; 3719,337;75,66791
1045,56; 2831,369;  227,592; 3712,721;74,71107
1046,11; 2790,215;  217,054; 3637,952;75,21889
1046,65; 2754,908;  222,285; 3593,260;75,13028
1047,19; 2713,292;  203,131; 3541,952;75,18107
1047,74; 2683,754;  196,438; 3461,106;76,18894
1048,28; 2643,754;  217,900; 3456,183;74,91174
1048,82; 2640,677;  232,746; 3444,875;74,96370
1049,37; 2604,831;  214,131; 3353,260;76,15807
1049,91; 2576,754;  210,592; 3303,337;76,50686
1050,45; 2514,446;  233,823; 3275,260;74,98506
1050,99; 2489,138;  223,592; 3208,875;75,89051
1051,54; 2438,831;  200,054; 3155,490;75,75114
1052,08; 2444,138;  233,823; 3143,798;75,95651
1052,62; 2424,138;  228,746; 3106,183;76,29681
1053,16; 2379,600;  202,515; 3023,413;77,17700
1053,71; 2370,523;  218,208; 2998,490;77,41354
1054,25; 2325,446;  229,669; 2944,260;77,20417
1054,79; 2309,985;  224,208; 2919,337;77,39062
1055,33; 2227,446;  200,208; 2847,183;76,58699
1055,88; 2245,138;  217,208; 2836,875;77,41177
1056,42; 2222,292;  237,054; 2800,260;77,45139
1056,96; 2158,600;  222,438; 2756,413;76,40808
1057,50; 2148,677;  224,977; 2719,875;77,10535
1058,05; 2108,908;  211,515; 2668,337;77,22957
1058,59; 2101,369;  236,669; 2644,798;77,43356
1059,13; 2053,523;  207,208; 2565,798;78,28046
1059,67; 2056,677;  228,592; 2571,875;78,01383
1060,21; 2004,292;  213,438; 2509,644;77,99187
1060,76; 1988,985;  221,131; 2466,567;78,73096
1061,30; 1954,215;  252,285; 2455,183;77,25872
1061,84; 1941,677;  222,362; 2384,798;79,50825
1062,38; 1882,600;  204,592; 2356,798;77,96688
1062,92; 1898,215;  261,438; 2380,798;77,22979
1063,46; 1861,523;  242,054; 2309,490;78,33223
1064,01; 1836,677;  219,977; 2266,490;78,99777
1064,55; 1804,600;  236,362; 2241,875;78,19636
1065,09; 1745,600;  195,515; 2187,413;77,81947
1065,63; 1812,446;  237,438; 2210,337;79,83219
1066,17; 1786,600;  246,746; 2165,106;80,26930
1066,71; 1752,908;  245,977; 2155,260;78,92654
1067,25; 1710,369;  211,977; 2073,567;80,48990
1067,80; 1684,677;  233,977; 2083,337;78,44337
1068,34; 1711,446;  256,823; 2076,721;79,92882
1068,88; 1656,446;  225,285; 2010,721;80,15751
1069,42; 1657,754;  246,669; 2016,644;79,72342
1069,96; 1638,062;  218,900; 1972,798;80,91471
1070,50; 1631,600;  253,900; 1974,490;80,07135
1071,04; 1562,908;  219,592; 1929,106;78,57881
1071,58; 1573,215;  221,054; 1891,952;80,92424
1072,12; 1531,600;  225,054; 1878,337;79,02739
1072,66; 1536,754;  219,438; 1877,798;79,43484
1073,21; 1549,600;  251,208; 1844,644;81,48378
1073,75; 1517,754;  235,977; 1817,567;81,04355
1074,29; 1497,985;  231,592; 1802,798;80,60003
1074,83; 1497,292;  248,362; 1780,183;81,53241
1075,37; 1461,754;  234,900; 1765,567;80,15157
1075,91; 1456,908;  239,669; 1729,644;81,69523
1076,45; 1422,138;  234,438; 1726,875;79,58127
1076,99; 1402,908;  239,131; 1711,875;79,02098
1077,53; 1388,292;  224,669; 1659,798;81,08144
1078,07; 1379,754;  237,438; 1644,413;81,18946
1078,61; 1363,523;  235,054; 1618,721;81,55640
1079,15; 1329,215;  228,054; 1603,183;80,07697
1079,69; 1346,600;  227,669; 1595,106;81,82689
1080,23; 1328,908;  247,592; 1583,106;80,96627
1080,77; 1328,446;  272,669; 1589,413;80,18087
1081,31; 1280,062;  232,362; 1519,106;81,42255
1081,85; 1284,215;  245,592; 1513,413;81,92189
1082,39; 1269,523;  228,592; 1497,413;82,03920
1082,93; 1247,677;  231,977; 1490,106;80,73100
1083,47; 1238,292;  219,362; 1442,952;83,27385
1084,01; 1236,369;  242,823; 1471,644;80,85360
1084,55; 1190,831;  219,823; 1425,567;80,53181
1085,09; 1219,985;  251,362; 1429,721;82,20097
1085,63; 1183,446;  232,131; 1402,721;81,26800
1086,17; 1179,908;  233,669; 1392,798;81,63359
1086,71; 1163,600;  223,592; 1361,029;82,64265
1087,24; 1168,369;  259,977; 1383,490;80,85282
1087,78; 1131,908;  244,515; 1349,875;80,28087
1088,32; 1104,754;  219,285; 1303,106;81,69883
1088,86; 1133,985;  245,592; 1337,952;81,32782
1089,40; 1109,754;  232,362; 1287,183;83,17925
1089,94; 1067,677;  205,900; 1253,952;82,22655
1090,48; 1083,292;  235,131; 1276,798;81,42346
1091,02; 1076,215;  236,592; 1268,567;81,36080
1091,56; 1072,600;  230,977; 1226,183;84,56774
1092,10; 1029,908;  213,131; 1219,260;81,18015
1092,63; 1084,062;  253,515; 1241,721;84,04587
1093,17; 1053,831;  243,746; 1199,337;84,77321
1093,71; 1025,062;  233,977; 1161,952;85,24848
1094,25; 1030,062;  241,592; 1181,337;83,90253
1094,79;  992,600;  233,746; 1151,260;82,70765
1095,33;  987,677;  223,285; 1132,260;84,09388
1095,87;  992,446;  236,977; 1114,183;86,12224
1096,40;  950,600;  208,438; 1093,413;83,86243
1096,94;  968,215;  231,977; 1091,644;85,64225
1097,48;  962,523;  235,900; 1093,644;84,71326
1098,02;  936,369;  231,823; 1077,952;83,26701
1098,56;  912,908;  200,054; 1020,490;86,88714
1099,10;  897,446;  204,746; 1029,798;83,95835
1099,63;  885,908;  217,746; 1026,567;82,60931
1100,17;  899,831;  236,131; 1015,875;85,11765
1100,71;  900,908;  251,131; 1039,337;82,43747

