
Integration time [ms]: 120,000
Averaging Nr. [scans]: 13
Smoothing Nr. [pixels]: 0
Data measured with spectrometer [name]: 2009305U1
Wave   ;Sample   ;Dark     ;Reference;Reflectance
[nm]   ;[counts] ;[counts] ;[counts] ;[%]

 175,72;  209,120;  202,886;  214,253;54,84197
 176,32;  238,586;  236,502;  224,563; 0,00000
 176,92;  252,523;  261,810;  259,279; 0,00000
 177,52;  257,123;  256,040;  268,411; 8,75316
 178,12;  232,034;  228,579;  233,833;65,76426
 178,72;  259,180;  258,810;  256,007; 0,00000
 179,32;  249,650;  260,733;  253,210; 0,00000
 179,92;  264,451;  251,194;  250,799; 0,00000
 180,52;  250,508;  248,194;  249,355;199,33272
 181,12;  255,783;  252,963;  254,248;219,55110
 181,73;  278,025;  279,733;  279,385; 0,00000
 182,33;  356,721;  348,886;  358,111;84,93017
 182,93;  263,841;  273,348;  275,613;-419,67652
 183,53;  240,246;  241,425;  236,281; 0,00000
 184,13;  240,834;  249,502;  235,332; 0,00000
 184,73;  277,402;  275,272;  271,335; 0,00000
 185,33;  256,555;  236,428;  336,101;20,19300
 185,93;  265,004;  234,583;  359,342;24,38373
 186,53;  287,100;  252,198;  384,040;26,47235
 187,13;  300,471;  282,736;  409,296;14,01296
 187,73;  271,066;  254,890;  367,277;14,39288
 188,33;  269,534;  248,737;  369,705;17,19276
 188,93;  275,839;  255,430;  366,881;18,31200
 189,53;  276,099;  251,969;  374,863;19,63521
 190,13;  320,191;  287,585;  411,451;26,32357
 190,73;  255,467;  233,430;  364,758;16,77991
 191,34;  298,486;  259,584;  390,135;29,79866
 191,94;  263,273;  241,583;  374,569;16,30967
 192,54;  284,794;  259,889;  412,605;16,30787
 193,14;  288,357;  261,198;  394,187;20,42207
 193,74;  278,936;  260,890;  382,181;14,87827
 194,34;  287,533;  260,505;  382,000;22,24612
 194,94;  258,306;  222,505;  351,466;27,76065
 195,54;  223,452;  209,121;  329,710;11,88448
 196,14;  258,453;  234,043;  365,416;18,58067
 196,74;  245,583;  222,736;  356,742;17,04935
 197,34;  234,804;  205,659;  339,451;21,78415
 197,94;  265,470;  232,351;  378,492;22,66243
 198,54;  283,594;  243,428;  386,908;27,99426
 199,14;  250,376;  223,966;  379,479;16,98270
 199,74;  239,735;  205,351;  372,661;20,55129
 200,34;  235,246;  202,428;  400,858;16,53911
 200,94;  272,524;  238,736;  424,673;18,17199
 201,54;  248,212;  213,428;  425,103;16,43284
 202,14;  286,615;  244,043;  464,005;19,35410
 202,74;  256,749;  219,351;  461,776;15,42657
 203,34;  240,263;  193,735;  478,391;16,34526
 203,94;  238,254;  181,966;  496,607;17,88971
 204,54;  284,995;  242,813;  571,497;12,83367
 205,14;  255,979;  206,274;  583,049;13,19228
 205,74;  313,315;  248,274;  675,642;15,21895
 206,34;  269,935;  206,197;  683,700;13,34830
 206,94;  293,066;  217,274;  760,936;13,94095
 207,54;  275,641;  184,428;  772,738;15,50432
 208,14;  296,293;  217,735;  847,890;12,46649
 208,74;  302,531;  207,735;  933,625;13,05923
 209,34;  313,786;  205,043; 1021,039;13,32639
 209,94;  330,902;  228,043; 1123,399;11,48803
 210,54;  339,714;  209,735; 1225,007;12,80241
 211,14;  355,646;  215,351; 1308,727;12,83136
 211,73;  361,226;  223,120; 1428,637;11,45614
 212,33;  376,319;  230,889; 1519,106;11,28923
 212,93;  381,506;  212,505; 1626,646;11,95080
 213,53;  367,274;  188,966; 1698,269;11,81395
 214,13;  385,964;  201,043; 1758,559;11,87281
 214,73;  388,538;  185,428; 1791,774;12,64423
 215,33;  367,209;  188,658; 1829,553;10,88132
 215,93;  409,110;  204,120; 1943,802;11,78320
 216,53;  402,314;  174,428; 2018,775;12,35594
 217,13;  465,368;  215,427; 2222,682;12,45187
 217,73;  494,135;  204,351; 2416,551;13,09939
 218,33;  466,988;  151,427; 2607,742;12,84690
 218,93;  548,051;  195,196; 2888,264;13,10236
 219,53;  603,731;  206,120; 3172,770;13,40270
 220,13;  614,087;  173,427; 3452,633;13,43801
 220,73;  708,619;  194,274; 3805,609;14,24253
 221,32;  782,993;  200,428; 4215,010;14,51122
 221,92;  819,690;  196,581; 4630,656;14,05275
 222,52;  877,199;  174,274; 5017,128;14,51468
 223,12;  971,506;  190,889; 5440,521;14,86993
 223,72; 1035,634;  204,581; 5856,549;14,70377
 224,32; 1115,351;  198,427; 6211,109;15,24982
 224,92; 1171,864;  192,120; 6488,018;15,56162
 225,52; 1256,886;  215,428; 6819,349;15,77030
 226,12; 1313,535;  202,658; 7124,839;16,04808
 226,72; 1338,267;  171,351; 7400,541;16,14173
 227,31; 1403,087;  160,274; 7750,450;16,37398
 227,91; 1499,233;  201,812; 8154,932;16,31336
 228,51; 1584,087;  182,120; 8521,044;16,81232
 229,11; 1643,434;  187,043; 8878,963;16,75569
 229,71; 1704,583;  175,120; 9158,296;17,02586
 230,31; 1822,297;  181,658; 9533,880;17,54277
 230,91; 1867,950;  174,813; 9847,932;17,50353
 231,51; 1948,033;  168,043;10155,152;17,82287
 232,10; 1998,859;  170,043;10488,064;17,72449
 232,70; 2068,764;  196,351;10637,077;17,93374
 233,30; 2159,111;  203,504;10982,179;18,14329
 233,90; 2208,624;  175,351;11123,242;18,57228
 234,50; 2259,789;  184,581;11182,491;18,86911
 235,10; 2310,094;  182,043;11331,633;19,08637
 235,70; 2343,169;  199,812;11398,781;19,13888
 236,29; 2345,032;  200,582;11347,754;19,23761
 236,89; 2331,449;  176,274;11296,000;19,38155
 237,49; 2370,599;  192,889;11256,101;19,68425
 238,09; 2324,551;  180,581;11083,700;19,66382
 238,69; 2299,120;  216,967;10925,828;19,44327
 239,29; 2237,988;  182,197;10627,175;19,68210
 239,89; 2220,244;  199,197;10325,321;19,95874
 240,48; 2103,064;  175,889;10003,455;19,60989
 241,08; 2040,578;  182,351; 9657,845;19,61088
 241,68; 1989,743;  216,735; 9405,264;19,29588
 242,28; 1931,586;  164,889; 9092,140;19,78993
 242,88; 1894,630;  217,120; 8844,048;19,44505
 243,48; 1817,317;  210,428; 8539,688;19,29211
 244,07; 1739,285;  198,197; 8305,456;19,00874
 244,67; 1685,319;  212,428; 8180,638;18,48459
 245,27; 1636,226;  207,582; 8020,637;18,28535
 245,87; 1611,298;  202,735; 7940,984;18,20260
 246,47; 1540,098;  195,120; 7905,266;17,44425
 247,06; 1523,590;  188,658; 7917,206;17,27274
 247,66; 1475,345;  182,658; 8001,876;16,53217
 248,26; 1529,263;  213,889; 8155,823;16,56239
 248,86; 1514,200;  196,274; 8323,092;16,21699
 249,46; 1474,674;  170,581; 8488,355;15,67839
 250,05; 1535,192;  208,505; 8889,937;15,28190
 250,65; 1520,971;  166,582; 9173,342;15,03747
 251,25; 1578,643;  189,658; 9635,681;14,70444
 251,85; 1644,667;  187,120;10180,646;14,58491
 252,44; 1662,121;  158,197;10737,534;14,21567
 253,04; 1782,158;  200,120;11459,686;14,05061
 253,64; 1779,241;  153,043;12098,464;13,61357
 254,24; 1921,757;  200,581;12955,909;13,49378
 254,84; 2013,982;  183,504;13809,432;13,43378
 255,43; 2098,543;  180,043;14792,636;13,12909
 256,03; 2222,087;  188,120;15635,471;13,16709
 256,63; 2333,731;  193,505;16648,755;13,00634
 257,23; 2411,769;  179,736;17466,164;12,91206
 257,82; 2549,454;  190,659;18317,750;13,01254
 258,42; 2595,573;  171,428;19093,814;12,81099
 259,02; 2754,325;  210,505;20034,920;12,83175
 259,62; 2794,344;  169,274;20667,680;12,80621
 260,21; 2898,364;  180,889;21124,964;12,97491
 260,81; 2943,818;  197,581;21563,090;12,85360
 261,41; 3011,071;  167,505;21953,623;13,05219
 262,01; 3153,744;  208,813;22371,429;13,28783
 262,60; 3162,846;  165,582;22700,703;13,30041
 263,20; 3213,547;  182,274;22984,717;13,29363
 263,80; 3294,834;  213,044;23145,817;13,43837
 264,40; 3342,614;  172,736;23239,186;13,74238
 264,99; 3395,911;  199,659;23434,194;13,75647
 265,59; 3457,074;  188,813;23637,145;13,93814
 266,19; 3504,885;  168,428;23854,922;14,08590
 266,78; 3608,441;  223,736;23827,111;14,33992
 267,38; 3613,764;  186,352;23809,664;14,50860
 267,98; 3637,774;  176,275;23888,705;14,59782
 268,58; 3693,816;  192,352;23919,496;14,75721
 269,17; 3713,219;  175,352;23946,242;14,88319
 269,77; 3754,143;  192,120;23651,977;15,18348
 270,37; 3756,309;  163,967;23594,736;15,33173
 270,96; 3845,903;  229,890;23477,474;15,55436
 271,56; 3803,244;  192,966;23174,664;15,70936
 272,16; 3785,546;  177,044;23038,738;15,78405
 272,75; 3826,815;  193,813;22949,456;15,96528
 273,35; 3844,838;  182,351;22947,835;16,08789
 273,95; 3867,712;  186,120;22897,791;16,21013
 274,54; 3921,975;  168,966;22845,018;16,55054
 275,14; 4041,235;  209,736;23211,307;16,65756
 275,74; 4024,353;  167,967;23262,106;16,69855
 276,33; 4187,721;  212,120;23670,379;16,94755
 276,93; 4296,665;  195,274;24000,998;17,22859
 277,53; 4410,160;  188,966;24480,551;17,37718
 278,12; 4477,986;  170,120;24882,707;17,43187
 278,72; 4716,609;  220,659;25607,498;17,70977
 279,32; 4831,443;  185,966;26004,984;17,99246
 279,91; 4991,983;  164,812;26785,849;18,13292
 280,51; 5184,403;  183,043;27319,255;18,43057
 281,11; 5334,727;  190,120;27968,527;18,52017
 281,70; 5480,446;  170,736;28412,107;18,80118
 282,30; 5661,706;  178,505;28968,664;19,04540
 282,90; 5827,590;  191,813;29335,835;19,33768
 283,49; 6022,812;  204,813;29850,094;19,62538
 284,09; 6154,165;  220,197;30314,267;19,71806
 284,69; 6330,277;  211,120;30676,434;20,08565
 285,28; 6473,267;  199,966;31044,701;20,33832
 285,88; 6678,661;  241,428;31267,217;20,74801
 286,47; 6753,462;  192,428;31271,345;21,11088
 287,07; 6902,854;  222,120;31492,417;21,36447
 287,67; 7085,548;  205,428;31487,842;21,99357
 288,26; 7228,777;  177,659;31433,606;22,55929
 288,86; 7384,511;  186,889;31461,481;23,01428
 289,46; 7595,086;  197,428;31623,521;23,53986
 290,05; 7748,515;  187,966;31607,345;24,06333
 290,65; 8036,412;  194,659;31866,156;24,75965
 291,24; 8274,032;  196,274;31915,746;25,46624
 291,84; 8530,500;  207,659;32091,063;26,10399
 292,44; 8696,137;  196,966;32171,186;26,58132
 293,03; 8975,866;  263,735;32350,547;27,15175
 293,63; 9177,411;  186,351;32543,282;27,78712
 294,22; 9363,586;  213,197;32649,881;28,21000
 294,82; 9501,704;  189,121;32769,966;28,58300
 295,41; 9564,215;  181,889;32461,722;29,06560
 296,01; 9678,150;  219,505;32380,643;29,41017
 296,61; 9699,507;  201,735;32124,057;29,75276
 297,20; 9633,085;  194,736;31846,388;29,81945
 297,80; 9671,500;  202,658;31633,357;30,12610
 298,39; 9567,667;  184,659;31252,493;30,20168
 298,99; 9582,775;  212,274;31083,950;30,35307
 299,58; 9551,421;  203,120;30912,072;30,44162
 300,18; 9544,630;  222,428;30839,754;30,44747
 300,78; 9402,261;  190,735;30427,035;30,46512
 301,37; 9417,772;  210,121;30360,455;30,53913
 301,97; 9417,368;  204,428;30473,968;30,43634
 302,56; 9374,937;  192,890;30297,075;30,50090
 303,16; 9328,003;  179,197;30194,819;30,48015
 303,75; 9284,145;  186,812;30292,221;30,21827
 304,35; 9374,903;  189,581;30519,139;30,28505
 304,94; 9376,842;  189,351;30455,364;30,35580
 305,54; 9342,300;  205,966;30414,317;30,24440
 306,13; 9245,710;  160,504;30389,472;30,05464
 306,73; 9178,560;  174,504;30209,665;29,97838
 307,33; 9109,805;  198,043;30187,156;29,71666
 307,92; 9055,968;  198,582;30198,638;29,52457
 308,52; 9125,119;  174,274;30562,024;29,45544
 309,11; 9220,432;  188,582;30980,083;29,33228
 309,71; 9263,603;  169,505;31409,706;29,11024
 310,30; 9272,930;  176,505;31509,075;29,03185
 310,90; 9359,238;  213,889;31888,998;28,87235
 311,49; 9322,559;  194,582;32070,343;28,63611
 312,09; 9294,886;  162,120;32165,614;28,53678
 312,68; 9410,044;  242,274;32598,653;28,33373
 313,28; 9347,737;  162,505;32749,253;28,18702
 313,87; 9285,751;  153,659;32846,403;27,93309
 314,47; 9306,174;  186,967;33115,126;27,69425
 315,06; 9307,186;  170,428;33197,019;27,66485
 315,66; 9247,271;  169,351;33394,153;27,32272
 316,25; 9093,144;  160,736;33337,011;26,92408
 316,85; 9033,565;  160,351;33403,688;26,69171
 317,44; 9087,637;  175,274;33484,692;26,75629
 318,04; 8957,693;  157,351;33544,541;26,35844
 318,63; 8885,188;  168,197;33588,018;26,08330
 319,22; 8843,810;  182,120;33732,082;25,81729
 319,82; 8796,883;  178,659;33856,351;25,59031
 320,41; 8694,155;  204,043;33677,799;25,36349
 321,01; 8585,926;  199,274;33829,393;24,93792
 321,60; 8539,357;  185,274;33806,977;24,84729
 322,20; 8391,904;  172,812;33782,649;24,45442
 322,79; 8377,583;  210,735;33976,603;24,18670
 323,39; 8279,468;  172,966;34015,257;23,95376
 323,98; 8168,300;  168,043;33951,241;23,68117
 324,58; 8084,363;  172,736;33805,455;23,52360
 325,17; 7977,246;  185,582;33734,222;23,22498
 325,76; 7883,290;  205,582;33616,207;22,97984
 326,36; 7667,580;  173,120;33254,411;22,65468
 326,95; 7552,857;  199,505;32984,694;22,42888
 327,55; 7374,422;  174,043;32616,539;22,19428
 328,14; 7235,743;  180,812;32335,871;21,94035
 328,74; 7091,733;  205,351;31792,817;21,80099
 329,33; 6925,118;  198,043;31487,061;21,49980
 329,92; 6716,829;  164,505;31012,632;21,24059
 330,52; 6536,486;  194,043;30355,557;21,02827
 331,11; 6376,216;  183,966;30015,561;20,75735
 331,71; 6236,445;  189,505;29379,388;20,71588
 332,30; 6044,842;  202,197;28964,056;20,31386
 332,89; 5954,901;  227,428;28481,791;20,27111
 333,49; 5738,331;  199,351;27864,817;20,02128
 334,08; 5579,871;  191,889;27511,186;19,72225
 334,68; 5450,217;  193,505;27072,400;19,55702
 335,27; 5341,716;  201,812;26754,803;19,35715
 335,86; 5249,985;  239,889;26513,330;19,06905
 336,46; 5137,574;  194,428;26268,199;18,95831
 337,05; 5044,344;  183,813;26067,162;18,77860
 337,65; 4942,999;  173,813;26075,676;18,41252
 338,24; 4968,416;  232,120;25997,027;18,38274
 338,83; 4858,108;  211,505;25833,685;18,13508
 339,43; 4776,848;  175,120;25884,022;17,89936
 340,02; 4765,183;  195,890;25775,602;17,86296
 340,61; 4714,865;  176,274;25788,589;17,72035
 341,21; 4721,348;  209,813;25862,432;17,58704
 341,80; 4695,999;  185,351;25820,403;17,59563
 342,40; 4631,409;  189,966;25815,138;17,33234
 342,99; 4633,286;  184,889;25916,022;17,28799
 343,58; 4591,888;  188,351;26076,522;17,00984
 344,18; 4579,361;  197,889;26284,422;16,79592
 344,77; 4591,452;  182,197;26547,850;16,72348
 345,36; 4613,626;  170,120;26860,156;16,64856
 345,96; 4675,605;  209,889;27115,306;16,59783
 346,55; 4648,096;  181,504;27346,653;16,44236
 347,14; 4681,293;  178,581;27617,274;16,41008
 347,74; 4719,973;  157,581;28018,754;16,37545
 348,33; 4790,782;  186,120;28696,644;16,15075
 348,92; 4894,417;  196,889;29244,677;16,17173
 349,52; 4915,805;  157,350;29666,997;16,12508
 350,11; 4956,902;  185,043;29898,258;16,05972
 350,70; 4899,596;  182,812;30043,991;15,79571
 351,29; 4897,492;  177,659;29821,173;15,92198
 351,89; 4876,574;  188,736;29913,883;15,77061
 352,48; 4878,250;  162,197;29795,470;15,91472
 353,07; 4814,177;  191,889;29824,384;15,59871
 353,67; 4813,365;  198,581;29731,006;15,62616
 354,26; 4757,306;  184,043;29434,935;15,63461
 354,85; 4759,834;  188,812;29332,440;15,68447
 355,45; 4701,423;  171,813;29224,412;15,59107
 356,04; 4688,650;  179,812;29136,514;15,57097
 356,63; 4652,946;  216,043;28939,013;15,44723
 357,22; 4602,117;  186,505;28850,138;15,40493
 357,82; 4593,935;  186,198;28602,308;15,51140
 358,41; 4614,880;  209,736;28457,074;15,59490
 359,00; 4554,246;  176,274;28327,452;15,55165
 359,60; 4568,634;  189,274;28233,366;15,61598
 360,19; 4533,483;  179,966;28068,903;15,61019
 360,78; 4503,666;  199,351;27988,969;15,48893
 361,37; 4486,101;  181,659;27727,305;15,62658
 361,97; 4480,804;  187,351;27642,220;15,63822
 362,56; 4428,376;  181,582;27310,954;15,65386
 363,15; 4429,089;  232,889;27156,483;15,58559
 363,74; 4373,854;  186,351;26775,123;15,74914
 364,34; 4324,105;  210,120;26303,456;15,76642
 364,93; 4276,262;  181,813;25956,887;15,88531
 365,52; 4194,524;  153,505;25583,023;15,89106
 366,11; 4184,412;  178,043;25307,498;15,94292
 366,71; 4121,118;  183,813;24973,774;15,88266
 367,30; 4062,908;  191,813;24528,603;15,90635
 367,89; 4126,155;  222,428;24395,366;16,14916
 368,48; 4050,033;  199,351;24142,025;16,08292
 369,07; 3987,827;  192,043;23618,453;16,20301
 369,67; 3978,878;  207,659;23342,537;16,30101
 370,26; 3922,929;  178,659;23107,740;16,32979
 370,85; 3915,665;  187,428;22796,515;16,48999
 371,44; 3900,343;  190,889;22626,101;16,53407
 372,03; 3868,118;  172,659;22354,886;16,65955
 372,63; 3832,074;  161,197;22096,153;16,73528
 373,22; 3826,456;  177,582;21745,260;16,91825
 373,81; 3755,421;  162,582;21484,393;16,85054
 374,40; 3762,910;  169,735;21237,763;17,05511
 374,99; 3722,948;  174,428;21021,717;17,02150
 375,59; 3710,282;  169,120;20697,787;17,24984
 376,18; 3739,371;  191,966;20598,819;17,38340
 376,77; 3742,111;  198,659;20408,493;17,53331
 377,36; 3771,396;  208,505;20319,456;17,71617
 377,95; 3728,758;  203,505;20092,600;17,72455
 378,55; 3745,079;  170,197;19882,163;18,13560
 379,14; 3713,845;  189,120;19870,180;17,90922
 379,73; 3749,629;  191,351;19660,041;18,27693
 380,32; 3779,278;  199,505;19781,111;18,28131
 380,91; 3789,250;  173,582;19652,911;18,56156
 381,50; 3788,120;  194,428;19493,751;18,62082
 382,10; 3803,201;  164,659;19444,188;18,87257
 382,69; 3817,499;  160,120;19410,351;18,99914
 383,28; 3826,119;  203,120;19366,878;18,90547
 383,87; 3829,324;  175,505;19281,403;19,12404
 384,46; 3856,434;  165,813;19211,102;19,37813
 385,05; 3932,415;  207,659;19192,321;19,61982
 385,64; 3905,182;  189,274;19153,267;19,59454
 386,24; 3920,563;  165,274;19094,815;19,83824
 386,83; 3984,474;  201,428;19194,181;19,91837
 387,42; 4047,053;  198,043;19286,631;20,16393
 388,01; 4101,327;  188,352;19384,455;20,38422
 388,60; 4199,600;  181,428;19675,890;20,61186
 389,19; 4241,016;  163,890;19851,507;20,70909
 389,78; 4352,168;  172,506;20053,837;21,02305
 390,37; 4514,451;  235,198;20545,717;21,06915
 390,96; 4549,704;  185,813;20697,881;21,27475
 391,56; 4602,750;  181,814;20839,801;21,40061
 392,15; 4704,140;  172,429;21159,881;21,59248
 392,74; 4719,788;  151,968;21210,378;21,69119
 393,33; 4859,097;  182,352;21574,769;21,86170
 393,92; 4973,243;  195,045;21936,229;21,97763
 394,51; 5055,316;  165,198;22105,604;22,28818
 395,10; 5159,222;  206,353;22334,791;22,38237
 395,69; 5232,348;  197,122;22467,115;22,60991
 396,28; 5317,178;  191,276;22616,925;22,85732
 396,87; 5363,720;  200,354;22620,824;23,02970
 397,46; 5405,436;  196,277;22812,755;23,03258
 398,06; 5492,872;  207,585;23021,439;23,16701
 398,65; 5528,211;  186,971;23034,531;23,37773
 399,24; 5641,256;  204,048;23153,410;23,69220
 399,83; 5645,406;  181,434;23194,845;23,74256
 400,42; 5786,833;  216,897;23340,592;24,08757
 401,01; 5790,869;  192,744;23410,225;24,11168
 401,60; 5875,589;  206,900;23408,472;24,43235
 402,19; 5875,167;  219,055;23452,836;24,34435
 402,78; 5970,325;  218,596;23456,829;24,75115
 403,37; 5927,133;  204,675;23295,193;24,78272
 403,96; 5955,108;  206,986;23138,574;25,06639
 404,55; 5994,849;  217,604;23104,145;25,24298
 405,14; 5988,068;  202,607;22971,214;25,40982
 405,73; 6021,111;  213,840;22778,482;25,73615
 406,32; 6079,504;  212,996;22757,039;26,02243
 406,91; 6014,856;  217,076;22488,069;26,03288
 407,50; 6052,104;  215,077;22286,033;26,44664
 408,09; 6029,044;  191,539;22091,556;26,65525
 408,68; 6023,450;  207,925;21913,293;26,79303
 409,27; 6036,666;  193,770;21733,089;27,12665
 409,86; 6046,307;  206,306;21625,582;27,26516
 410,45; 6112,368;  233,151;21523,443;27,61454
 411,04; 6123,478;  223,996;21489,152;27,74248
 411,63; 6079,931;  218,147;21239,526;27,88487
 412,22; 6020,788;  215,145;21033,757;27,88679
 412,81; 6039,419;  229,222;20785,249;28,26518
 413,40; 5948,877;  237,144;20533,190;28,14210
 413,99; 5946,399;  278,067;20126,196;28,55852
 414,58; 5861,354;  196,990;19770,317;28,93920
 415,17; 5826,855;  210,914;19589,046;28,98082
 415,76; 5805,970;  206,145;19412,475;29,15614
 416,35; 5798,496;  202,068;19219,997;29,42711
 416,94; 5888,939;  237,761;19264,907;29,70061
 417,53; 6006,276;  201,606;19490,625;30,09313
 418,12; 6051,693;  208,221;19585,976;30,15557
 418,71; 6206,901;  233,759;19823,904;30,49055
 419,30; 6258,960;  216,452;20003,289;30,53802
 419,89; 6348,224;  209,529;20200,787;30,70690
 420,48; 6503,581;  235,221;20350,440;31,16228
 421,07; 6550,499;  227,913;20547,339;31,11597
 421,66; 6584,190;  197,605;20523,452;31,42100
 422,25; 6639,100;  208,681;20441,884;31,78152
 422,84; 6670,787;  244,296;20467,133;31,77838
 423,43; 6632,632;  217,835;20204,469;32,09543
 424,02; 6607,319;  236,219;19962,138;32,29811
 424,60; 6450,698;  217,065;19606,941;32,14891
 425,19; 6429,675;  218,296;19336,560;32,48924
 425,78; 6462,802;  232,604;19274,681;32,71806
 426,37; 6458,496;  238,373;19108,498;32,96281
 426,96; 6442,470;  203,834;19034,526;33,13015
 427,55; 6413,350;  219,757;18843,583;33,25629
 428,14; 6377,688;  210,372;18597,684;33,54115
 428,73; 6354,741;  212,680;18535,934;33,52058
 429,32; 6346,895;  232,603;18493,947;33,48216
 429,91; 6423,920;  242,834;18528,494;33,80291
 430,50; 6387,693;  228,372;18356,212;33,97714
 431,08; 6405,056;  234,295;18080,146;34,57813
 431,67; 6397,919;  279,987;18101,671;34,32859
 432,26; 6384,898;  287,602;17955,940;34,50973
 432,85; 6254,208;  294,064;17598,413;34,44304
 433,44; 6226,748;  316,986;17209,777;34,98393
 434,03; 6138,026;  324,832;16901,479;35,06858
 434,62; 5983,093;  279,909;16528,690;35,09915
 435,21; 5960,899;  308,371;16289,582;35,36984
 435,79; 5903,673;  283,140;16073,929;35,59375
 436,38; 5914,324;  282,370;16032,005;35,75927
 436,97; 5898,027;  277,678;15945,304;35,87237
 437,56; 5864,516;  273,831;15686,080;36,27430
 438,15; 5844,292;  261,677;15673,361;36,22326
 438,74; 5898,264;  277,600;15653,412;36,55523
 439,33; 5926,433;  258,216;15678,154;36,75902
 439,91; 5948,846;  232,754;15758,901;36,81591
 440,50; 6012,075;  284,215;15791,105;36,93752
 441,09; 6061,524;  264,753;15927,054;37,01098
 441,68; 6093,010;  251,599;15847,027;37,45592
 442,27; 6092,080;  250,215;15855,998;37,43397
 442,86; 6106,306;  213,829;15895,016;37,57673
 443,44; 6135,953;  230,137;15949,850;37,56949
 444,03; 6232,126;  293,060;16007,625;37,79338
 444,62; 6160,421;  228,522;15839,041;37,99937
 445,21; 6124,809;  247,060;15662,234;38,12963
 445,80; 6103,729;  275,752;15579,797;38,08128
 446,39; 6073,283;  300,829;15382,504;38,27462
 446,97; 5981,418;  227,828;15161,275;38,52821
 447,56; 5912,635;  226,905;14913,420;38,71395
 448,15; 5848,047;  234,290;14828,971;38,46440
 448,74; 5777,725;  249,213;14518,444;38,74428
 449,33; 5773,561;  250,597;14418,740;38,98157
 449,91; 5665,353;  229,597;14204,505;38,89654
 450,50; 5586,663;  232,059;14000,971;38,88909
 451,09; 5605,610;  238,828;13895,427;39,29809
 451,68; 5578,617;  267,443;13811,310;39,21460
 452,26; 5555,033;  260,520;13742,481;39,27109
 452,85; 5521,511;  236,289;13641,557;39,42646
 453,44; 5544,644;  248,750;13616,667;39,61645
 454,03; 5535,772;  230,827;13558,093;39,80520
 454,61; 5549,732;  221,442;13543,266;39,99670
 455,20; 5624,250;  262,596;13727,143;39,82053
 455,79; 5648,237;  265,827;13714,342;40,02234
 456,38; 5709,790;  262,519;13841,772;40,11466
 456,97; 5680,576;  243,288;13823,702;40,03772
 457,55; 5729,810;  241,134;13864,112;40,28984
 458,14; 5710,437;  265,673;13856,102;40,06323
 458,73; 5714,591;  258,057;13794,557;40,30978
 459,31; 5732,731;  272,133;13801,002;40,36256
 459,90; 5796,918;  292,287;13894,709;40,46802
 460,49; 5909,678;  326,364;13979,122;40,89514
 461,08; 5830,866;  239,441;14041,256;40,51224
 461,66; 5874,450;  249,518;14148,009;40,47153
 462,25; 5941,104;  249,671;14169,362;40,88763
 462,84; 5997,570;  266,210;14233,855;41,03311
 463,43; 5951,615;  220,671;14197,392;41,00349
 464,01; 5930,480;  252,825;14211,433;40,67494
 464,60; 5996,415;  294,902;14133,045;41,20143
 465,19; 5865,746;  226,901;13917,146;41,18878
 465,77; 5869,470;  245,901;13931,470;41,09123
 466,36; 5855,628;  263,748;13781,592;41,36665
 466,95; 5714,216;  249,517;13545,097;41,10162
 467,53; 5609,385;  262,209;13231,631;41,22910
 468,12; 5512,498;  287,516;12985,825;41,14707
 468,71; 5442,937;  256,517;12769,913;41,44694
 469,29; 5349,650;  244,747;12563,421;41,44036
 469,88; 5241,414;  243,285;12255,789;41,60771
 470,47; 5307,645;  308,824;12429,383;41,24250
 471,06; 5285,016;  245,747;12327,576;41,70949
 471,64; 5357,892;  258,439;12426,475;41,90859
 472,23; 5337,085;  238,515;12484,723;41,63387
 472,81; 5364,892;  235,669;12537,077;41,69622
 473,40; 5440,803;  244,438;12699,088;41,72229
 473,99; 5577,367;  337,131;12877,102;41,78826
 474,57; 5564,432;  254,746;13007,664;41,63507
 475,16; 5676,274;  259,900;13135,527;42,06687
 475,75; 5687,358;  277,361;13270,843;41,63624
 476,33; 5770,400;  273,438;13301,278;42,19396
 476,92; 5782,339;  284,515;13382,495;41,97459
 477,51; 5784,174;  273,746;13473,078;41,74778
 478,09; 5797,071;  274,361;13432,183;41,97283
 478,68; 5771,644;  266,592;13402,743;41,90765
 479,27; 5822,178;  285,746;13431,990;42,11418
 479,85; 5811,516;  260,592;13449,749;42,08703
 480,44; 5838,973;  258,591;13565,837;41,93491
 481,02; 6370,734;  276,822;14805,194;41,94491
 481,61; 7233,417;  287,591;16767,418;42,14745
 482,20; 7715,721;  272,207;17955,114;42,09440
 482,78; 8024,437;  308,668;18742,703;41,85610
 483,37; 8254,747;  304,745;19311,268;41,82775
 483,95; 8415,282;  325,591;19524,179;42,13691
 484,54; 8493,329;  324,668;19721,819;42,11268
 485,13; 8410,067;  299,667;19674,419;41,86066
 485,71; 8314,417;  267,283;19359,168;42,14950
 486,30; 8214,237;  311,514;19163,734;41,91932
 486,88; 8051,606;  350,129;18790,873;41,76337
 487,47; 7785,513;  319,360;18111,474;41,96328
 488,05; 7428,521;  314,975;17285,299;41,91756
 488,64; 6910,281;  298,052;16075,825;41,90851
 489,23; 6100,378;  315,129;14276,871;41,43644
 489,81; 5239,388;  318,436;12269,871;41,17457
 490,40; 4927,898;  283,282;11577,264;41,12470
 490,98; 4858,945;  255,051;11339,911;41,53317
 491,57; 4830,351;  291,129;11214,719;41,55431
 492,15; 4783,687;  261,051;11135,031;41,59136
 492,74; 4775,174;  270,052;11148,520;41,41321
 493,32; 4741,382;  290,436;10980,505;41,63627
 493,91; 4654,413;  275,820;10887,486;41,26207
 494,50; 4634,524;  273,128;10879,117;41,12202
 495,08; 4582,730;  260,205;10835,710;40,87299
 495,67; 4614,940;  291,359;10817,349;41,07530
 496,25; 4536,174;  222,974;10657,382;41,33632
 496,84; 4524,005;  249,359;10687,065;40,95389
 497,42; 4504,363;  241,974;10616,052;41,08692
 498,01; 4514,247;  259,513;10542,979;41,37451
 498,59; 4449,913;  221,359;10499,036;41,14309
 499,18; 4428,028;  244,051;10458,382;40,96182
 499,76; 4380,315;  256,589;10363,917;40,79936
 500,35; 4343,686;  255,589;10202,439;41,09942
 500,93; 4279,530;  245,282;10220,783;40,44156
 501,52; 4263,618;  244,051;10134,040;40,64279
 502,10; 4256,167;  259,743;10034,794;40,88392
 502,69; 4177,827;  239,896; 9925,268;40,65854
 503,27; 4089,741;  222,743; 9663,925;40,95884
 503,86; 4058,971;  245,127; 9678,542;40,42909
 504,44; 3966,734;  218,819; 9571,680;40,07239
 505,03; 3851,670;  208,358; 9369,418;39,76955
 505,61; 3833,762;  219,127; 9253,244;40,01094
 506,19; 3789,171;  242,666; 9039,700;40,31478
 506,78; 3679,440;  224,588; 8895,900;39,84232
 507,36; 3637,235;  230,742; 8739,459;40,03533
 507,95; 3562,639;  229,127; 8601,409;39,81606
 508,53; 3502,671;  227,358; 8497,550;39,60383
 509,12; 3455,603;  239,357; 8385,061;39,48395
 509,70; 3427,164;  250,511; 8219,490;39,86273
 510,29; 3366,029;  258,126; 8094,530;39,65981
 510,87; 3243,492;  227,742; 7879,152;39,41430
 511,46; 3190,066;  218,434; 7755,661;39,42606
 512,04; 3134,944;  224,665; 7594,866;39,48710
 512,62; 3042,040;  243,050; 7412,305;39,04158
 513,21; 2970,324;  212,357; 7288,646;38,97476
 513,79; 2938,778;  222,741; 7188,436;38,99162
 514,38; 2850,503;  198,818; 7033,647;38,79665
 514,96; 2843,632;  251,511; 6942,352;38,74134
 515,54; 2778,385;  213,510; 6836,429;38,72725
 516,13; 2757,986;  222,664; 6752,168;38,82870
 516,71; 2713,478;  225,203; 6620,696;38,90669
 517,30; 2636,214;  213,356; 6522,758;38,40075
 517,88; 2619,715;  240,048; 6434,733;38,41465
 518,46; 2545,634;  222,279; 6292,771;38,27293
 519,05; 2525,449;  225,048; 6254,049;38,15559
 519,63; 2550,824;  231,433; 6195,050;38,89235
 520,22; 2497,530;  244,663; 6145,151;38,18102
 520,80; 2439,387;  231,971; 6080,477;37,74325
 521,38; 2462,140;  260,587; 6102,253;37,68708
 521,97; 2396,279;  229,971; 6046,601;37,24336
 522,55; 2386,395;  241,048; 6010,541;37,18432
 523,13; 2366,185;  219,817; 6021,370;36,99644
 523,72; 2359,288;  226,510; 5992,977;36,98588
 524,30; 2425,680;  235,432; 6131,945;37,14480
 524,89; 2395,829;  218,048; 6108,543;36,97111
 525,47; 2434,280;  243,740; 6228,118;36,60431
 526,05; 2412,663;  206,355; 6263,749;36,42339
 526,64; 2474,096;  238,201; 6358,619;36,53173
 527,22; 2501,524;  250,047; 6505,122;35,99440
 527,80; 2539,789;  266,816; 6599,458;35,89296
 528,39; 2564,758;  226,586; 6700,301;36,11794
 528,97; 2613,774;  224,124; 6868,512;35,96493
 529,55; 2669,211;  248,432; 6996,615;35,87304
 530,14; 2745,512;  252,739; 7200,328;35,87967
 530,72; 2741,902;  229,509; 7309,155;35,48755
 531,30; 2751,754;  208,585; 7461,193;35,06558
 531,89; 2784,498;  231,201; 7525,255;35,00518
 532,47; 2869,059;  267,355; 7669,762;35,14673
 533,05; 2858,122;  251,740; 7672,660;35,12209
 533,63; 2847,249;  261,355; 7705,221;34,73860
 534,22; 2839,519;  239,431; 7765,742;34,54663
 534,80; 2863,382;  251,277; 7789,344;34,65218
 535,38; 2941,112;  334,893; 7959,271;34,18271
 535,97; 2832,597;  251,508; 7886,881;33,80436
 536,55; 2868,483;  280,354; 7904,562;33,94620
 537,13; 2851,755;  288,047; 7905,877;33,65404
 537,71; 2896,589;  322,047; 7940,628;33,79294
 538,30; 2887,169;  334,893; 7993,909;33,32381
 538,88; 2927,220;  352,277; 8073,924;33,34707
 539,46; 2981,574;  410,585; 8243,361;32,82347
 540,05; 3012,993;  405,200; 8356,739;32,79607
 540,63; 3088,620;  441,046; 8556,673;32,62316
 541,21; 3132,718;  479,739; 8696,818;32,28616
 541,79; 3175,231;  478,508; 8803,419;32,39341
 542,38; 3201,058;  501,893; 8941,490;31,98215
 542,96; 3241,929;  520,892; 9065,114;31,84651
 543,54; 3283,642;  539,200; 9251,537;31,50064
 544,12; 3310,870;  493,816; 9436,371;31,50167
 544,70; 3319,390;  494,431; 9440,660;31,57709
 545,29; 3344,352;  504,893; 9648,795;31,05304
 545,87; 3328,077;  486,816; 9679,265;30,90864
 546,45; 3300,020;  465,200; 9709,311;30,66622
 547,03; 3333,721;  452,662; 9797,249;30,83131
 547,62; 3339,742;  418,585; 9934,378;30,69800
 548,20; 3407,853;  435,200;10100,372;30,75634
 548,78; 3422,490;  396,507;10219,879;30,80391
 549,36; 3416,517;  366,430;10373,605;30,47900
 549,94; 3428,304;  335,892;10554,876;30,26144
 550,53; 3511,071;  355,277;10762,159;30,32411
 551,11; 3498,807;  322,661;10924,151;29,95943
 551,69; 3547,569;  334,046;11276,010;29,36879
 552,27; 3644,421;  286,507;11465,523;30,03765
 552,85; 3718,525;  305,046;11817,508;29,65030
 553,44; 3752,197;  298,430;12110,552;29,23917
 554,02; 3871,951;  314,046;12431,922;29,36080
 554,60; 3900,036;  263,122;12768,432;29,08296
 555,18; 3981,645;  306,969;13114,437;28,69167
 555,76; 4066,502;  288,199;13433,121;28,74344
 556,34; 4147,402;  299,891;13810,378;28,47796
 556,93; 4215,850;  281,738;14192,200;28,28168
 557,51; 4287,248;  253,661;14467,113;28,37866
 558,09; 4382,504;  280,892;14830,679;28,19019
 558,67; 4495,678;  278,968;15220,656;28,22111
 559,25; 4542,630;  289,199;15470,982;28,01668
 559,83; 4559,507;  271,430;15684,502;27,82104
 560,41; 4658,558;  258,968;16098,894;27,77532
 561,00; 4727,088;  272,122;16391,747;27,63691
 561,58; 4767,199;  271,815;16682,131;27,39365
 562,16; 4792,307;  259,661;16993,673;27,08643
 562,74; 4876,220;  242,353;17349,904;27,08667
 563,32; 4943,610;  248,737;17697,474;26,90666
 563,90; 5072,460;  274,507;18129,547;26,87170
 564,48; 5122,483;  277,199;18495,332;26,59594
 565,06; 5241,307;  261,661;19084,344;26,45556
 565,65; 5377,153;  272,506;19659,953;26,32965
 566,23; 5570,588;  320,507;20376,806;26,17672
 566,81; 5737,887;  266,584;21113,723;26,24486
 567,39; 5880,698;  284,353;21934,158;25,84940
 567,97; 6028,898;  286,814;22473,937;25,88025
 568,55; 6253,739;  308,737;23278,264;25,88212
 569,13; 6346,588;  284,891;24018,772;25,54027
 569,71; 6564,948;  260,276;24926,337;25,56011
 570,29; 6802,632;  306,661;25849,126;25,43204
 570,87; 6924,680;  304,969;26426,877;25,34161
 571,45; 7059,499;  295,814;27080,061;25,25247
 572,03; 7101,696;  266,430;27550,446;25,05227
 572,61; 7239,136;  254,660;28285,190;24,91739
 573,20; 7374,427;  266,122;28927,400;24,80107
 573,78; 7466,315;  257,968;29476,135;24,67077
 574,36; 7556,766;  284,814;30004,297;24,46863
 574,94; 7647,079;  332,045;30271,657;24,43263
 575,52; 7604,465;  269,737;30613,817;24,17186
 576,10; 7718,777;  330,429;31103,233;24,00934
 576,68; 7844,119;  308,199;31576,386;24,10092
 577,26; 7985,743;  327,583;32303,583;23,94971
 577,84; 8017,624;  332,276;32728,658;23,72286
 578,42; 8099,396;  376,737;32927,349;23,72508
 579,00; 8045,713;  317,122;33151,719;23,53795
 579,58; 8055,373;  367,506;33271,577;23,36449
 580,16; 7993,894;  328,429;33317,731;23,23622
 580,74; 8015,996;  331,199;33552,907;23,13186
 581,32; 7987,269;  324,583;33524,886;23,08017
 581,90; 7926,985;  351,122;33594,888;22,78882
 582,48; 7879,830;  340,352;33723,007;22,58502
 583,06; 7862,616;  347,737;33760,973;22,49073
 583,64; 7854,822;  327,737;33886,412;22,42963
 584,22; 7756,527;  344,275;33797,948;22,15677
 584,80; 7595,396;  355,737;33566,622;21,79905
 585,38; 7486,210;  354,276;33161,122;21,73916
 585,96; 7431,519;  330,891;33270,794;21,55631
 586,54; 7380,196;  342,121;33252,646;21,38548
 587,12; 7351,059;  324,583;33408,996;21,23802
 587,70; 7382,928;  357,583;33443,200;21,23383
 588,28; 7315,238;  335,737;33477,737;21,05938
 588,86; 7295,095;  344,198;33657,805;20,86504
 589,44; 7213,276;  324,275;33671,790;20,65821
 590,02; 7259,958;  321,660;33925,022;20,64763
 590,59; 7182,286;  313,045;34083,572;20,34094
 591,17; 7242,457;  315,121;34274,314;20,39900
 591,75; 7183,823;  303,506;34374,881;20,19383
 592,33; 7204,993;  327,967;34620,470;20,05402
 592,91; 7137,780;  283,198;34771,483;19,87510
 593,49; 7231,775;  283,429;35189,194;19,90601
 594,07; 7224,942;  308,429;35345,736;19,74042
 594,65; 7230,259;  319,583;35391,958;19,70404
 595,23; 7209,715;  308,506;35716,319;19,49064
 595,81; 7203,841;  315,275;35977,566;19,31610
 596,39; 7208,917;  288,890;35999,112;19,37828
 596,97; 7200,832;  279,121;36227,315;19,25468
 597,55; 7163,769;  293,044;36122,513;19,17618
 598,12; 7087,669;  274,198;36072,980;19,03269
 598,70; 7026,201;  284,429;36219,292;18,76109
 599,28; 7011,240;  296,813;36361,352;18,61781
 599,86; 7007,535;  286,429;36401,068;18,61048
 600,44; 6955,173;  259,121;36511,113;18,47085
 601,02; 6977,609;  309,428;36583,477;18,38278
 601,60; 6909,348;  288,967;36581,955;18,24149
 602,18; 6857,286;  260,967;36646,587;18,12892
 602,75; 6785,047;  258,044;36623,544;17,94834
 603,33; 6776,188;  296,352;36645,520;17,82664
 603,91; 6711,408;  264,044;36615,284;17,73630
 604,49; 6714,841;  286,890;36678,160;17,66344
 605,07; 6669,233;  299,044;36855,161;17,42578
 605,65; 6666,749;  298,352;36857,453;17,41946
 606,23; 6663,851;  352,198;36919,186;17,26052
 606,80; 6628,790;  371,967;36917,299;17,12072
 607,38; 6594,192;  397,736;36983,195;16,93694
 607,96; 6583,188;  448,737;37046,533;16,76181
 608,54; 6547,646;  494,352;37144,670;16,51635
 609,12; 6569,598;  495,890;37068,744;16,60715
 609,70; 6566,587;  516,121;37209,858;16,48910
 610,27; 6506,343;  525,737;37198,868;16,30787
 610,85; 6494,306;  547,275;37267,095;16,19570
 611,43; 6436,342;  532,352;37325,555;16,04642
 612,01; 6339,824;  495,429;37049,020;15,98857
 612,59; 6333,267;  507,582;37110,812;15,91576
 613,16; 6257,476;  476,198;37032,424;15,81475
 613,74; 6192,303;  458,582;36940,426;15,71664
 614,32; 6129,979;  432,352;36958,187;15,59890
 614,90; 6091,039;  404,429;36767,355;15,63848
 615,48; 6001,782;  353,506;36608,174;15,57944
 616,05; 5991,195;  345,198;36442,961;15,64085
 616,63; 5912,762;  355,660;36314,979;15,45386
 617,21; 5885,792;  355,891;36290,669;15,38872
 617,79; 5831,891;  334,660;36184,525;15,33404
 618,36; 5793,823;  348,275;36073,224;15,24298
 618,94; 5677,383;  294,968;35842,409;15,14150
 619,52; 5628,184;  312,275;35522,166;15,09777
 620,10; 5576,200;  293,506;35553,048;14,98231
 620,67; 5565,493;  312,814;35336,347;14,99757
 621,25; 5520,489;  323,890;35166,448;14,91452
 621,83; 5449,627;  307,968;35156,147;14,75446
 622,41; 5468,961;  354,121;35207,230;14,67542
 622,98; 5422,621;  314,429;34947,136;14,74962
 623,56; 5337,482;  323,506;34908,705;14,49746
 624,14; 5296,063;  301,583;34790,615;14,48136
 624,72; 5261,037;  301,660;34705,503;14,41518
 625,29; 5208,751;  291,968;34756,457;14,26623
 625,87; 5230,686;  337,352;34837,231;14,18363
 626,45; 5149,945;  287,583;34537,878;14,19655
 627,02; 5096,775;  297,967;34593,361;13,99257
 627,60; 5106,109;  284,505;34423,962;14,12326
 628,18; 5090,982;  267,044;34534,974;14,07712
 628,76; 5063,108;  274,814;34532,158;13,97742
 629,33; 5042,591;  299,506;34593,022;13,83085
 629,91; 5005,508;  298,352;34596,202;13,72435
 630,49; 5043,747;  291,583;34616,041;13,84483
 631,06; 5009,607;  293,814;34768,072;13,67917
 631,64; 4976,662;  299,045;34820,439;13,54991
 632,22; 4913,205;  260,506;34666,778;13,52282
 632,79; 4957,320;  295,199;34991,453;13,43696
 633,37; 4909,209;  284,275;35015,678;13,31629
 633,95; 4896,010;  281,276;35039,175;13,27679
 634,52; 4921,050;  268,891;35190,506;13,32172
 635,10; 4883,740;  268,198;35175,229;13,22238
 635,68; 4903,218;  268,506;35361,208;13,20705
 636,25; 4853,314;  256,276;35344,339;13,10143
 636,83; 4908,415;  247,122;35544,697;13,20571
 637,41; 4875,373;  265,814;35562,766;13,05937
 637,98; 4890,374;  295,660;35762,758;12,95486
 638,56; 4880,932;  275,276;35837,239;12,95107
 639,13; 4822,891;  259,275;35831,727;12,82907
 639,71; 4889,671;  322,429;36043,761;12,78575
 640,29; 4806,833;  236,506;35850,715;12,83288
 640,86; 4781,677;  263,583;36069,057;12,61844
 641,44; 4800,213;  257,121;36085,707;12,68007
 642,02; 4818,133;  278,045;36048,048;12,69245
 642,59; 4797,823;  258,968;36266,775;12,60520
 643,17; 4762,666;  259,968;36193,270;12,53071
 643,74; 4738,894;  252,121;36194,381;12,48328
 644,32; 4755,892;  274,814;36117,261;12,50215
 644,89; 4699,197;  283,045;36183,449;12,30112
 645,47; 4730,579;  296,891;36196,868;12,35011
 646,05; 4695,037;  276,275;36075,132;12,34331
 646,62; 4680,496;  265,506;36104,320;12,31902
 647,20; 4643,109;  273,968;36276,047;12,13580
 647,77; 4609,414;  246,506;36035,696;12,19057
 648,35; 4580,104;  238,891;36043,038;12,12489
 648,92; 4637,486;  276,121;36050,379;12,19135
 649,50; 4547,944;  240,891;35983,798;12,05009
 650,08; 4515,942;  230,198;35946,140;11,99953
 650,65; 4546,785;  244,275;36039,712;12,01972
 651,23; 4620,859;  220,121;36745,823;12,04833
 651,80; 4753,318;  237,583;37683,165;12,05946
 652,38; 4786,008;  243,814;38092,660;12,00088
 652,95; 4820,313;  231,352;38508,002;11,98893
 653,53; 4843,079;  252,583;38739,728;11,92735
 654,10; 4902,769;  280,198;38903,685;11,96829
 654,68; 4819,074;  238,275;38753,873;11,89336
 655,25; 4843,533;  235,198;38879,907;11,92488
 655,83; 4831,915;  236,352;38977,403;11,86226
 656,40; 4881,220;  265,890;38915,821;11,94137
 656,98; 4784,602;  250,275;38815,932;11,75742
 657,55; 4797,445;  247,967;38672,659;11,83999
 658,13; 4745,443;  247,814;38286,923;11,82370
 658,70; 4717,286;  269,429;38035,342;11,77744
 659,28; 4617,976;  252,429;37316,914;11,77825
 659,85; 4505,896;  252,429;36447,487;11,75151
 660,43; 4478,740;  267,737;36491,752;11,62489
 661,00; 4526,352;  245,660;36550,939;11,79083
 661,58; 4546,734;  248,275;36974,358;11,70410
 662,15; 4551,732;  231,429;37100,700;11,71790
 662,73; 4622,806;  304,044;37354,734;11,65636
 663,30; 4617,726;  244,736;37524,922;11,73006
 663,88; 4657,416;  248,429;37750,802;11,75655
 664,45; 4649,490;  235,506;37858,682;11,73209
 665,03; 4676,026;  252,736;38361,639;11,60697
 665,60; 4803,715;  331,506;38779,135;11,63195
 666,17; 4747,790;  250,506;38898,553;11,63651
 666,75; 4785,787;  239,275;39253,895;11,65335
 667,32; 4879,246;  263,044;39464,698;11,77553
 667,90; 4853,782;  246,890;39756,347;11,66022
 668,47; 4919,471;  265,198;39945,535;11,72942
 669,05; 4944,546;  240,813;40359,877;11,72443
 669,62; 4908,620;  213,198;40359,911;11,69566
 670,19; 4955,771;  229,736;40585,253;11,71100
 670,77; 5013,614;  251,121;40779,671;11,75096
 671,34; 4975,381;  249,736;40614,244;11,70743
 671,92; 4998,994;  228,890;40997,816;11,70034
 672,49; 5045,453;  260,582;40982,850;11,75001
 673,06; 5022,681;  217,813;41101,115;11,75264
 673,64; 5038,447;  232,582;41085,918;11,76370
 674,21; 5035,598;  217,967;41002,568;11,81238
 674,79; 5068,903;  246,736;41187,525;11,77839
 675,36; 5101,824;  259,582;41342,174;11,78660
 675,93; 5075,975;  232,429;41124,900;11,84459
 676,51; 5107,511;  252,967;41300,550;11,82662
 677,08; 5126,585;  256,813;41486,814;11,81123
 677,65; 5177,351;  249,659;41574,925;11,92416
 678,23; 5218,041;  245,967;41732,806;11,98470
 678,80; 5193,192;  230,659;41832,301;11,92870
 679,38; 5219,343;  241,582;41962,950;11,93096
 679,95; 5277,495;  247,044;42179,446;11,99657
 680,52; 5324,338;  234,659;42490,095;12,04503
 681,10; 5373,797;  256,352;42735,129;12,04706
 681,67; 5428,871;  249,121;43149,548;12,07389
 682,24; 5394,022;  230,428;43186,197;12,02072
 682,82; 5525,097;  238,352;43766,462;12,14559
 683,39; 5594,402;  288,275;44063,112;12,12141
 683,96; 5629,860;  240,505;44259,915;12,24313
 684,54; 5601,935;  220,505;44663,795;12,10853
 685,11; 5724,470;  268,813;45022,521;12,19040
 685,68; 5743,852;  240,967;45434,324;12,17631
 686,25; 5776,388;  223,659;45448,743;12,27799
 686,83; 5816,078;  231,198;45624,777;12,30324
 687,40; 5856,383;  218,275;45970,350;12,32318
 687,97; 5928,072;  280,967;46409,537;12,24210
 688,55; 5941,608;  218,736;46411,725;12,38905
 689,12; 5992,836;  205,274;46692,990;12,44966
 689,69; 6024,603;  227,659;46772,870;12,45444
 690,26; 6078,985;  245,044;46844,366;12,51937
 690,84; 6051,598;  249,274;47133,323;12,37590
 691,41; 6124,826;  251,967;47222,664;12,50324
 691,98; 6200,131;  244,967;47439,622;12,61830
 692,56; 6235,051;  233,044;47516,809;12,69359
 693,13; 6297,125;  287,659;47545,766;12,71627
 693,70; 6277,123;  256,274;47684,877;12,69455
 694,27; 6311,505;  243,890;47890,604;12,73459
 694,84; 6328,656;  238,044;47984,253;12,75622
 695,42; 6427,576;  276,582;48083,133;12,86642
 695,99; 6395,266;  238,351;48293,629;12,81215
 696,56; 6404,109;  243,121;48149,124;12,86058
 697,13; 6474,414;  241,197;48488,697;12,91925
 697,71; 6492,796;  225,582;48519,500;12,97723
 698,28; 6516,947;  244,120;48871,380;12,89982
 698,85; 6538,868;  196,659;48863,106;13,03199
 699,42; 6593,788;  214,505;49072,371;13,05682
 699,99; 6662,016;  242,044;49106,405;13,13835
 700,57; 6655,552;  243,428;49142,055;13,11310
 701,14; 6675,934;  231,505;49239,550;13,14974
 701,71; 6735,854;  250,967;49401,815;13,19385
 702,28; 6769,236;  242,351;49536,310;13,24074
 702,85; 6793,695;  245,967;49647,575;13,25408
 703,43; 6852,692;  257,197;49848,763;13,29963
 704,00; 6922,536;  280,582;50070,028;13,34008
 704,57; 6891,225;  247,274;50047,293;13,34126
 705,14; 6989,761;  289,582;50348,250;13,38465
 705,71; 7014,220;  280,582;50303,822;13,46102
 706,28; 6958,217;  253,274;50223,010;13,41801
 706,86; 7069,599;  276,966;50540,890;13,51393
 707,43; 7107,827;  298,351;50541,540;13,55303
 708,00; 7080,825;  284,582;50501,266;13,53383
 708,57; 7079,130;  263,043;50353,838;13,60746
 709,14; 7176,127;  285,966;50567,488;13,70317
 709,71; 7215,124;  264,582;50621,368;13,80259
 710,28; 7237,737;  258,428;50908,556;13,77945
 710,86; 7245,273;  260,351;50935,205;13,78380
 711,43; 7348,655;  282,197;50873,316;13,96778
 712,00; 7313,114;  266,582;51054,350;13,87447
 712,57; 7381,419;  278,659;51204,769;13,94719
 713,14; 7421,416;  255,813;51192,956;14,06754
 713,71; 7440,490;  265,120;51185,606;14,09132
 714,28; 7476,257;  257,197;51191,640;14,17324
 714,85; 7441,254;  239,505;50995,212;14,18904
 715,42; 7515,559;  249,351;51154,477;14,27402
 716,00; 7548,710;  309,120;51281,819;14,20288
 716,57; 7585,246;  250,659;51370,237;14,34790
 717,14; 7568,013;  238,197;51300,656;14,35461
 717,71; 7640,702;  230,659;51458,690;14,46482
 718,28; 7665,700;  268,889;51516,032;14,43361
 718,85; 7628,774;  227,351;51475,758;14,44225
 719,42; 7730,617;  260,889;51744,023;14,50908
 719,99; 7680,153;  224,197;51414,134;14,56528
 720,56; 7765,073;  265,428;51757,552;14,56465
 721,13; 7800,378;  251,735;51795,432;14,64513
 721,70; 7793,991;  232,812;51767,620;14,67198
 722,27; 7856,527;  265,659;51710,962;14,75522
 722,84; 7899,524;  306,889;51891,996;14,71866
 723,41; 7888,445;  236,197;51914,799;14,80738
 723,98; 7969,519;  241,428;52137,295;14,89154
 724,55; 8032,670;  275,351;52288,021;14,91429
 725,12; 7988,744;  207,812;52124,978;14,98720
 725,69; 8023,126;  238,197;52401,166;14,92425
 726,27; 8082,893;  230,812;52349,815;15,06568
 726,84; 8179,044;  249,120;52729,234;15,11034
 727,41; 8232,118;  268,428;52672,729;15,19664
 727,98; 8273,885;  266,043;52998,533;15,18578
 728,55; 8351,959;  287,428;52891,797;15,33054
 729,12; 8312,341;  243,581;53017,524;15,28929
 729,69; 8390,108;  254,658;53168,481;15,37490
 730,26; 8429,413;  274,274;53258,976;15,39150
 730,82; 8397,948;  261,274;53209,857;15,36712
 731,39; 8484,330;  261,581;53284,198;15,50800
 731,96; 8590,328;  237,735;53591,617;15,65508
 732,53; 8659,556;  247,274;53811,420;15,70506
 733,10; 8654,707;  268,504;53949,377;15,62233
 733,67; 8686,243;  266,504;54133,257;15,63068
 734,24; 8690,394;  250,120;53825,907;15,75390
 734,81; 8788,391;  280,197;53907,941;15,86528
 735,38; 8764,927;  261,889;53674,436;15,91955
 735,95; 8760,616;  266,735;53612,393;15,92235
 736,52; 8797,691;  266,504;53784,735;15,94071
 737,09; 8841,611;  269,504;53470,384;16,11272
 737,66; 8881,762;  307,889;53595,111;16,08992
 738,23; 8911,452;  265,043;53768,299;16,16053
 738,80; 9028,603;  318,197;53982,333;16,23134
 739,37; 8993,831;  279,274;54149,367;16,17699
 739,94; 9082,136;  261,581;54157,554;16,36589
 740,51; 9182,518;  367,658;54254,204;16,35818
 741,07; 9139,285;  261,350;54232,007;16,44956
 741,64; 9144,974;  286,504;54400,810;16,36992
 742,21; 9240,125;  251,504;54471,152;16,57816
 742,78; 9210,507;  234,812;54224,647;16,62479
 743,35; 9248,735;  254,427;54522,528;16,57384
 743,92; 9355,117;  286,581;54626,946;16,68840
 744,49; 9378,499;  289,581;54517,211;16,76068
 745,06; 9351,266;  251,812;54451,630;16,78872
 745,63; 9382,571;  249,504;54530,587;16,82551
 746,19; 9397,568;  251,197;54526,851;16,85170
 746,76; 9431,181;  267,273;54505,039;16,89581
 747,33; 9406,255;  251,966;54474,919;16,88268
 747,90; 9524,560;  281,658;54680,415;16,99102
 748,47; 9511,557;  267,658;54590,757;17,01652
 749,04; 9531,170;  273,966;54630,714;17,03046
 749,61; 9590,629;  298,043;54583,517;17,11800
 750,17; 9617,165;  276,658;54671,782;17,17159
 750,74; 9655,085;  280,966;54532,585;17,27897
 751,31; 9640,236;  246,350;54392,927;17,34899
 751,88; 9609,541;  240,581;54357,653;17,31239
 752,45; 9691,616;  263,581;54516,610;17,37790
 753,02; 9680,921;  274,812;54288,567;17,41428
 753,58; 9713,456;  246,043;54164,678;17,55870
 754,15; 9738,915;  246,889;54373,251;17,53679
 754,72; 9708,220;  246,581;54159,054;17,55000
 755,29; 9702,371;  236,043;53881,165;17,64621
 755,86; 9848,984;  264,966;54187,891;17,77355
 756,42; 9858,443;  272,735;54064,848;17,81991
 756,99; 9819,517;  224,273;53975,420;17,85124
 757,56; 9872,284;  239,966;53913,455;17,94614
 758,13; 9867,897;  201,042;53854,412;18,01724
 758,70; 9952,048;  232,966;53871,292;18,11966
 759,26; 9993,737;  221,273;53980,710;18,17814
 759,83; 9971,119;  229,042;54191,898;18,05330
 760,40;10026,501;  218,581;53906,778;18,26830
 760,97;10072,422;  211,119;54007,966;18,33063
 761,53;10027,188;  198,119;53582,769;18,41179
 762,10;10018,262;  209,581;53551,419;18,38835
 762,67;10046,183;  230,042;53514,530;18,42214
 763,24;10027,642;  184,658;53247,179;18,54979
 763,80;10109,562;  214,427;53340,675;18,62570
 764,37;10113,790;  230,504;53361,093;18,60188
 764,94;10022,172;  208,119;52822,589;18,65276
 765,50;10090,400;  211,965;52946,777;18,73228
 766,07;10137,859;  254,042;52927,195;18,76443
 766,64;10066,549;  224,350;52552,614;18,80857
 767,21;10128,623;  218,965;52491,648;18,95762
 767,77;10179,389;  248,581;52366,682;19,05443
 768,34;10189,233;  242,812;52319,100;19,09971
 768,91;10157,769;  262,735;52172,519;19,06198
 769,47;10252,304;  241,581;52192,476;19,26959
 770,04;10251,917;  247,581;52132,818;19,28166
 770,61;10133,222;  231,658;51836,467;19,18729
 771,18;10177,143;  222,658;51851,347;19,28092
 771,74;10246,755;  246,658;51982,997;19,32896
 772,31;10264,906;  250,119;51604,877;19,50119
 772,88;10275,596;  222,658;51556,680;19,58338
 773,44;10226,824;  222,273;51181,022;19,63265
 774,01;10289,668;  249,196;51415,979;19,62303
 774,58;10295,742;  233,273;50939,090;19,84480
 775,14;10269,355;  227,658;51202,201;19,69943
 775,71;10342,890;  248,042;51110,619;19,84730
 776,27;10405,042;  278,504;51012,346;19,96012
 776,84;10463,577;  313,965;51026,226;20,01412
 777,41;10452,575;  246,504;50938,414;20,13353
 777,97;10374,957;  242,888;50616,140;20,11398
 778,54;10408,262;  243,504;50645,482;20,16738
 779,11;10440,797;  258,657;50606,285;20,22367
 779,67;10486,256;  230,350;50565,857;20,37509
 780,24;10477,946;  239,888;50341,968;20,43440
 780,80;10541,482;  261,657;50384,002;20,50946
 781,37;10585,864;  254,657;50403,267;20,60118
 781,94;10535,399;  253,119;50158,455;20,60357
 782,50;10608,166;  253,965;50067,104;20,78608
 783,07;10677,471;  271,350;50151,600;20,86221
 783,63;10661,084;  233,196;49872,172;21,00746
 784,20;10618,081;  263,657;49880,052;20,86896
 784,77;10637,771;  255,196;49742,240;20,98039
 785,33;10617,076;  234,273;49513,582;21,06929
 785,90;10669,381;  243,273;49440,231;21,19259
 786,46;10709,993;  265,965;49383,727;21,26324
 787,03;10654,221;  234,888;49132,992;21,30826
 787,59;10768,526;  239,350;49034,026;21,57854
 788,16;10740,062;  256,196;48985,906;21,51432
 788,73;10716,829;  250,888;48871,863;21,52557
 789,29;10684,134;  253,042;48540,282;21,60217
 789,86;10746,131;  273,811;48516,469;21,70759
 790,42;10711,051;  242,042;48302,273;21,78310
 790,99;10688,510;  260,427;48008,922;21,83961
 791,55;10709,969;  237,965;47900,725;21,97104
 792,12;10782,813;  276,657;47962,375;22,03208
 792,68;10790,502;  254,503;47577,101;22,26420
 793,25;10822,038;  257,734;47439,366;22,39071
 793,81;10800,881;  312,888;47116,861;22,40834
 794,38;10734,186;  225,350;46937,588;22,49697
 794,94;10751,953;  251,196;46873,237;22,52316
 795,51;10717,873;  260,503;46507,963;22,61177
 796,07;10693,102;  259,119;46349,459;22,63811
 796,64;10747,099;  274,426;46439,262;22,68539
 797,20;10753,096;  255,349;45954,296;22,97153
 797,77;10704,093;  219,657;45690,868;23,05731
 798,33;10703,629;  253,888;45435,595;23,12826
 798,90;10696,934;  275,965;45412,090;23,08787
 799,46;10612,393;  249,042;44974,894;23,17083
 800,03;10645,544;  261,273;44955,543;23,23401
 800,59;10649,003;  267,734;44679,269;23,37516
 801,15;10671,308;  266,119;44432,534;23,55905
 801,72;10628,690;  263,965;44141,568;23,62190
 802,28;10637,687;  291,888;43863,833;23,74418
 802,85;10604,839;  250,196;43600,405;23,88603
 803,41;10585,990;  259,042;43474,132;23,89663
 803,98;10548,910;  235,657;42993,704;24,12003
 804,54;10528,907;  247,042;42791,046;24,16760
 805,11;10559,520;  265,426;42648,464;24,28824
 805,67;10569,056;  273,734;42621,344;24,31146
 806,23;10522,361;  260,195;42224,840;24,45431
 806,80;10474,051;  267,119;42102,182;24,39803
 807,36;10482,356;  278,965;41985,985;24,46444
 807,93;10511,814;  295,426;41694,557;24,67778
 808,49;10434,735;  244,349;41342,053;24,79551
 809,05;10402,732;  235,811;41225,856;24,80339
 809,62;10469,960;  266,042;41166,275;24,94831
 810,18;10477,496;  271,272;41068,693;25,01684
 810,74;10397,263;  224,042;40746,189;25,10534
 811,31;10453,721;  238,118;40570,069;25,32881
 811,87;10466,719;  258,272;40436,872;25,40767
 812,44;10472,408;  289,811;40546,599;25,29411
 813,00;10409,406;  226,349;40155,940;25,50253
 813,56;10498,941;  260,272;40242,051;25,60834
 814,13;10486,477;  250,811;40061,777;25,71067
 814,69;10498,398;  250,426;39945,965;25,81643
 815,25;10442,241;  221,118;39573,230;25,97351
 815,82;10510,546;  264,272;39530,956;26,09406
 816,38;10511,928;  280,657;39299,606;26,22129
 816,94;10428,387;  244,811;38886,178;26,35408
 817,51;10399,000;  227,272;38760,135;26,39754
 818,07;10379,382;  245,118;38539,862;26,46385
 818,63;10426,917;  253,272;38295,049;26,74335
 819,20;10443,607;  253,349;38296,314;26,78618
 819,76;10367,835;  236,272;37903,656;26,89744
 820,32;10334,832;  281,349;37784,228;26,80723
 820,89;10323,830;  267,657;37660,032;26,89365
 821,45;10270,827;  241,580;37324,604;27,04539
 822,01;10258,363;  254,580;37095,177;27,15424
 822,57;10241,206;  250,426;36942,826;27,22847
 823,14;10219,511;  227,580;36796,168;27,32381
 823,70;10190,816;  240,964;36530,817;27,41772
 824,26;10220,814;  250,811;36390,697;27,58726
 824,82;10231,888;  260,503;36265,347;27,69457
 825,39;10096,962;  241,272;36022,457;27,54434
 825,95;10140,652;  254,426;35859,568;27,76629
 826,51;10059,188;  260,810;35522,910;27,78728
 827,08;10186,031;  296,964;35612,790;28,00180
 827,64;10104,413;  261,118;35487,747;27,94277
 828,20;10134,641;  239,580;35122,166;28,36677
 828,76;10169,100;  268,964;35188,892;28,35096
 829,32;10151,943;  276,272;34981,542;28,45583
 829,89;10159,402;  229,272;34848,191;28,68411
 830,45;10157,400;  251,503;34805,840;28,66759
 831,01;10180,089;  255,657;34690,874;28,82059
 831,57;10181,163;  257,118;34537,831;28,94935
 832,14;10218,776;  241,887;34546,942;29,08285
 832,70;10136,620;  234,503;34260,438;29,10167
 833,26;10169,001;  212,887;34083,087;29,39491
 833,82;10208,768;  241,580;34121,660;29,41902
 834,38;10314,150;  233,349;34183,001;29,69339
 834,95;10267,455;  231,041;33988,959;29,73055
 835,51;10236,837;  211,349;33844,300;29,80853
 836,07;10324,988;  246,041;33888,180;29,95929
 836,63;10337,293;  258,656;33850,522;30,00321
 837,19;10335,983;  249,503;33726,556;30,12953
 837,75;10303,826;  209,195;33442,667;30,37489
 838,32;10389,747;  258,041;33587,701;30,39847
 838,88;10461,282;  259,041;33486,197;30,70453
 839,44;10404,203;  246,887;33432,615;30,60748
 840,00;10475,585;  246,349;33356,726;30,89435
 840,56;10371,351;  225,041;33103,299;30,86024
 841,12;10442,272;  222,887;33079,640;31,10284
 841,68;10400,192;  219,733;32875,597;31,17498
 842,25;10405,805;  236,118;32940,862;31,09545
 842,81;10382,033;  217,733;32632,511;31,35699
 843,37;10410,569;  209,349;32700,392;31,39702
 843,93;10423,335;  234,579;32576,503;31,50325
 844,49;10505,640;  247,887;32638,537;31,66887
 845,05;10452,253;  210,964;32443,263;31,77337
 845,61;10493,943;  248,349;32504,758;31,76297
 846,17;10478,171;  225,964;32370,639;31,89395
 846,73;10437,168;  238,195;32263,057;31,84705
 847,29;10436,627;  223,656;32047,553;32,09214
 847,86;10480,009;  226,041;32067,202;32,20350
 848,42;10397,621;  215,733;31826,159;32,21054
 848,98;10450,388;  240,810;31801,424;32,34911
 849,54;10499,308;  222,425;31832,996;32,51091
 850,10;10491,383;  232,502;31676,723;32,62565
 850,66;10447,841;  220,733;31480,757;32,71625
 851,22;10477,993;  224,118;31414,098;32,87554
 851,78;10561,913;  261,964;31578,363;32,88995
 852,34;10470,680;  240,887;31278,320;32,95953
 852,90;10454,985;  223,964;31231,739;32,99502
 853,46;10396,443;  224,887;30953,927;33,10080
 854,02;10466,133;  240,118;31026,961;33,21554
 854,58;10408,361;  231,810;30759,610;33,33536
 855,14;10397,897;  216,964;30743,029;33,35161
 855,70;10391,971;  193,733;30599,063;33,54096
 856,26;10405,968;  237,810;30437,712;33,66951
 856,82;10396,581;  215,502;30324,054;33,81458
 857,38;10418,425;  258,656;30237,626;33,88965
 857,94;10405,422;  243,579;30083,737;34,05425
 858,50;10427,881;  244,502;30073,694;34,13897
 859,06;10359,878;  228,733;29930,113;34,11002
 859,62;10407,260;  241,271;29801,531;34,39073
 860,18;10352,950;  234,502;29588,796;34,47008
 860,74;10330,562;  205,656;29468,676;34,59966
 861,30;10327,791;  205,887;29284,633;34,80860
 861,86;10383,557;  274,041;29379,437;34,73417
 862,42;10362,708;  236,271;29162,471;35,00784
 862,98;10423,398;  256,348;29163,658;35,17121
 863,54;10304,703;  227,502;28876,616;35,17456
 864,10;10426,623;  234,194;29001,265;35,43089
 864,66;10302,698;  216,579;28799,914;35,28671
 865,22;10304,926;  233,194;28585,025;35,52409
 865,78;10292,384;  239,964;28516,752;35,55008
 866,34;10290,920;  221,656;28415,478;35,71444
 866,90;10260,610;  240,425;28320,973;35,68372
 867,45;10212,761;  235,117;28097,546;35,81039
 868,01;10245,528;  235,271;27947,888;36,12166
 868,57;10161,063;  235,502;27802,614;36,00508
 869,13;10110,522;  215,271;27682,725;36,02537
 869,69;10147,596;  222,579;27569,297;36,29327
 870,25;10110,517;  206,348;27467,793;36,33031
 870,81;10130,899;  223,579;27456,596;36,37981
 871,37;10092,665;  235,425;27348,322;36,35628
 871,93;10087,586;  249,040;27184,664;36,52615
 872,49;10005,352;  256,271;27013,160;36,43578
 873,04; 9942,427;  228,271;26833,040;36,51284
 873,60; 9905,270;  214,579;26649,381;36,65884
 874,16; 9915,729;  239,348;26672,877;36,60647
 874,72; 9866,498;  233,656;26534,338;36,62583
 875,28; 9928,729;  234,579;26443,877;36,98745
 875,84; 9927,498;  234,348;26347,569;37,11970
 876,40; 9895,190;  231,117;26285,031;37,09260
 876,95; 9866,883;  239,117;26397,723;36,80535
 877,51;10016,113;  258,425;26291,569;37,48179
 878,07;10010,421;  264,810;26318,031;37,40655
 878,63; 9991,190;  233,040;26292,262;37,44605
 879,19;10034,652;  243,656;26245,262;37,65535
 879,75;10137,652;  229,117;26307,185;37,99566
 880,30;10158,037;  228,502;26332,646;38,03815
 880,86;10207,729;  272,271;26449,569;37,95448
 881,42;10187,960;  226,425;26546,800;37,84724
 881,98;10227,960;  244,194;26562,262;37,93502
 882,54;10274,267;  219,271;26599,877;38,11511
 883,09;10401,652;  242,425;26769,646;38,29737
 883,65;10480,498;  219,579;26777,877;38,63545
 884,21;10597,421;  256,194;27130,338;38,48021
 884,77;10653,575;  218,656;27104,800;38,81151
 885,32;10748,113;  229,887;27285,415;38,87644
 885,88;10839,421;  263,348;27356,031;39,03664
 886,44;10915,498;  237,348;27508,108;39,15604
 887,00;10885,113;  250,117;27509,954;39,01343
 887,56;10974,729;  226,425;27624,338;39,23037
 888,11;10974,344;  235,733;27709,415;39,08690
 888,67;11113,883;  262,502;27831,877;39,36027
 889,23;11140,113;  248,348;27862,108;39,44325
 889,79;11145,190;  219,271;27716,108;39,73519
 890,34;11111,806;  245,348;27647,262;39,65584
 890,90;11283,190;  300,656;27796,338;39,94276
 891,46;11141,113;  225,963;27674,569;39,76577
 892,01;11246,575;  253,963;27663,262;40,10541
 892,57;11224,498;  269,117;27668,338;39,98428
 893,13;11175,806;  228,887;27430,723;40,24331
 893,69;11174,267;  218,194;27336,492;40,40103
 894,24;11172,344;  234,271;27304,492;40,40629
 894,80;11132,498;  237,733;27165,954;40,45854
 895,36;11104,883;  248,579;26965,415;40,63469
 895,91;11024,498;  238,117;26828,185;40,56545
 896,47;11035,113;  246,579;26687,031;40,80314
 897,03;11009,421;  232,040;26525,569;40,98872
 897,58;10983,113;  243,194;26447,646;40,98509
 898,14;10975,498;  248,348;26272,569;41,21987
 898,70;10870,037;  209,425;26179,877;41,04900
 899,25;10961,883;  232,194;26114,954;41,45496
 899,81;10926,652;  250,425;25893,338;41,63422
 900,37;10814,190;  214,656;25744,646;41,51797
 900,92;10771,652;  242,963;25775,262;41,23674
 901,48;10817,344;  232,194;25568,185;41,77910
 902,03;10793,113;  228,425;25457,415;41,87519
 902,59;10775,883;  225,579;25299,031;42,07759
 903,15;10750,113;  256,579;25161,108;42,13505
 903,70;10607,421;  237,117;24939,800;41,98048
 904,26;10577,344;  228,117;24813,646;42,09479
 904,82;10648,806;  241,656;24794,262;42,38715
 905,37;10589,113;  243,194;24693,954;42,31328
 905,93;10552,883;  225,887;24486,569;42,56680
 906,48;10569,960;  246,963;24453,954;42,64469
 907,04;10491,575;  252,194;24380,108;42,43790
 907,60;10471,806;  234,348;24218,262;42,68468
 908,15;10435,037;  232,425;24148,569;42,65993
 908,71;10451,037;  255,733;24069,338;42,81294
 909,26;10369,267;  225,733;23896,108;42,85329
 909,82;10370,575;  254,733;23816,338;42,93359
 910,37;10347,729;  271,271;23729,954;42,95406
 910,93;10270,729;  227,810;23522,415;43,11264
 911,48;10238,883;  229,425;23429,415;43,14423
 912,04;10164,344;  229,425;23388,415;42,89876
 912,60;10228,421;  247,963;23303,954;43,28792
 913,15;10130,806;  238,887;23178,262;43,12201
 913,71;10124,652;  231,733;22948,954;43,54810
 914,26;10035,498;  209,887;22946,262;43,21538
 914,82;10071,267;  235,040;22802,338;43,58620
 915,37;10049,190;  220,348;22777,646;43,57278
 915,93;10047,960;  275,117;22773,569;43,43784
 916,48; 9969,113;  227,887;22531,185;43,67617
 917,04; 9910,190;  241,656;22381,415;43,67046
 917,59; 9909,498;  271,117;22314,569;43,72446
 918,15; 9847,652;  208,502;22112,108;44,00714
 918,70; 9806,652;  226,963;22023,031;43,95145
 919,26; 9841,960;  235,271;22030,262;44,07751
 919,81; 9745,960;  209,810;21829,646;44,10834
 920,37; 9717,960;  225,733;21741,031;44,11850
 920,92; 9745,575;  246,425;21623,185;44,43681
 921,48; 9655,883;  215,348;21512,108;44,32850
 922,03; 9663,960;  229,040;21410,338;44,54363
 922,59; 9627,267;  231,040;21317,338;44,56082
 923,14; 9580,037;  222,194;21176,262;44,65883
 923,69; 9581,960;  240,194;21132,877;44,71310
 924,25; 9613,806;  253,194;21044,415;45,02194
 924,80; 9530,267;  226,579;20868,262;45,07234
 925,36; 9507,113;  211,117;20797,262;45,15657
 925,91; 9462,113;  224,425;20721,262;45,06885
 926,47; 9473,960;  202,040;20647,646;45,34920
 927,02; 9520,883;  276,579;20512,646;45,68231
 927,57; 9442,498;  228,733;20392,800;45,69398
 928,13; 9428,729;  218,117;20377,415;45,68915
 928,68; 9377,037;  224,194;20252,646;45,69920
 929,24; 9314,652;  202,502;20031,723;45,95314
 929,79; 9296,729;  217,810;19900,800;46,12571
 930,34; 9218,498;  226,425;19804,877;45,92842
 930,90; 9200,575;  217,271;19774,800;45,93271
 931,45; 9199,960;  244,887;19713,338;45,99787
 932,01; 9158,421;  231,117;19565,954;46,17212
 932,56; 9116,037;  251,348;19435,800;46,20767
 933,11; 9150,652;  251,579;19512,569;46,20257
 933,67; 9030,190;  213,502;19313,800;46,15995
 934,22; 9022,575;  234,810;19217,723;46,29303
 934,77; 8984,267;  255,656;19087,492;46,35029
 935,33; 8963,190;  239,425;19034,415;46,41538
 935,88; 8892,575;  240,963;18921,108;46,31448
 936,43; 8808,960;  230,271;18932,108;45,87083
 936,99; 8802,344;  230,502;18751,185;46,28254
 937,54; 8724,037;  206,887;18640,338;46,20486
 938,09; 8756,883;  236,887;18619,262;46,34872
 938,65; 8691,806;  236,656;18427,492;46,48027
 939,20; 8662,344;  198,963;18364,569;46,59014
 939,75; 8602,037;  214,733;18285,185;46,41447
 940,31; 8591,652;  211,887;18130,646;46,76532
 940,86; 8657,960;  226,502;18268,877;46,73142
 941,41; 8629,960;  304,656;18127,185;46,71225
 941,96; 8567,652;  219,040;17919,954;47,16486
 942,52; 8549,575;  222,194;17816,492;47,33000
 943,07; 8476,806;  211,656;17773,031;47,06437
 943,62; 8495,806;  221,194;17692,492;47,36117
 944,18; 8473,267;  200,502;17581,338;47,59705
 944,73; 8481,267;  230,502;17509,415;47,75049
 945,28; 8376,806;  201,271;17347,800;47,68041
 945,83; 8401,883;  223,733;17334,569;47,79515
 946,39; 8416,652;  221,579;17267,262;48,07712
 946,94; 8372,498;  246,194;17123,185;48,15020
 947,49; 8346,190;  214,502;17098,723;48,16147
 948,04; 8353,960;  254,425;17040,723;48,25087
 948,59; 8351,729;  245,348;16976,415;48,45107
 949,15; 8249,421;  201,040;16849,031;48,34446
 949,70; 8176,344;  215,887;16771,954;48,08182
 950,25; 8204,652;  232,579;16707,415;48,38939
 950,80; 8145,113;  192,887;16579,646;48,52837
 951,36; 8137,498;  195,887;16531,262;48,61603
 951,91; 8153,575;  237,502;16589,569;48,41023
 952,46; 8006,883;  206,887;16310,492;48,43633
 953,01; 8022,037;  243,040;16344,108;48,31354
 953,56; 8002,806;  200,656;16269,031;48,55594
 954,11; 7988,113;  235,579;16165,723;48,66582
 954,67; 7924,960;  221,194;16106,800;48,49526
 955,22; 7849,267;  200,348;15992,262;48,43567
 955,77; 7896,883;  248,733;15869,108;48,96265
 956,32; 7885,652;  271,656;15821,108;48,96633
 956,87; 7789,960;  216,194;15694,492;48,93151
 957,42; 7779,113;  209,579;15672,954;48,95137
 957,98; 7747,190;  213,348;15545,646;49,13707
 958,53; 7791,806;  251,656;15550,108;49,28701
 959,08; 7690,421;  213,502;15369,954;49,33159
 959,63; 7673,806;  212,271;15321,185;49,38498
 960,18; 7669,575;  238,656;15256,800;49,47961
 960,73; 7681,652;  227,271;15170,108;49,88598
 961,28; 7601,806;  208,963;15061,338;49,77549
 961,83; 7538,037;  239,117;15030,723;49,34501
 962,39; 7548,113;  199,348;14948,031;49,82659
 962,94; 7565,960;  235,040;14895,031;50,00630
 963,49; 7492,190;  222,733;14785,877;49,91681
 964,04; 7464,883;  234,117;14735,646;49,86209
 964,59; 7438,806;  203,348;14598,338;50,26372
 965,14; 7426,960;  239,733;14495,877;50,41494
 965,69; 7415,190;  226,656;14423,108;50,63614
 966,24; 7367,498;  221,579;14324,569;50,66953
 966,79; 7383,652;  233,502;14256,800;50,98765
 967,34; 7337,344;  203,194;14163,338;51,10370
 967,89; 7328,421;  216,963;14142,108;51,06919
 968,44; 7280,498;  227,040;14020,262;51,13713
 968,99; 7298,190;  238,887;13980,492;51,37175
 969,55; 7243,421;  234,194;13892,723;51,31758
 970,10; 7176,575;  233,348;13798,185;51,18548
 970,65; 7167,190;  240,040;13688,492;51,50890
 971,20; 7147,883;  216,348;13657,108;51,57100
 971,75; 7052,113;  202,117;13495,031;51,53119
 972,30; 7058,037;  220,040;13411,723;51,83566
 972,85; 7010,729;  209,271;13331,338;51,83221
 973,40; 6950,729;  213,887;13211,185;51,83264
 973,95; 6945,344;  231,194;13158,954;51,93591
 974,50; 6897,190;  246,502;13112,185;51,69324
 975,05; 6845,344;  224,040;12960,723;51,98609
 975,60; 6872,883;  243,271;12940,185;52,21436
 976,15; 6803,344;  216,271;12856,492;52,11201
 976,70; 6805,883;  224,733;12813,569;52,27767
 977,25; 6751,960;  232,963;12737,338;52,13372
 977,80; 6678,267;  216,040;12609,108;52,14389
 978,35; 6678,498;  244,194;12436,646;52,77285
 978,89; 6644,960;  205,579;12416,723;52,73364
 979,44; 6669,652;  224,656;12397,262;52,94673
 979,99; 6568,421;  215,348;12183,800;53,08183
 980,54; 6575,883;  242,271;12102,185;53,40352
 981,09; 6496,806;  246,579;12018,492;53,09440
 981,64; 6442,498;  227,963;11855,492;53,44674
 982,19; 6467,113;  257,810;11853,108;53,55019
 982,74; 6404,806;  238,502;11709,338;53,75636
 983,29; 6328,883;  219,810;11567,569;53,83506
 983,84; 6281,806;  235,810;11517,877;53,58944
 984,39; 6333,113;  297,040;11455,031;54,09642
 984,94; 6188,190;  208,117;11331,262;53,76243
 985,49; 6221,344;  251,425;11260,108;54,22919
 986,03; 6139,267;  250,963;11164,723;53,95303
 986,58; 6078,113;  272,117;11078,338;53,72827
 987,13; 6056,113;  233,194;10914,569;54,51470
 987,68; 5992,421;  238,963;10783,492;54,56344
 988,23; 6020,113;  253,579;10731,646;55,03433
 988,78; 5921,267;  222,810;10619,108;54,81237
 989,33; 5899,806;  251,502;10543,569;54,88017
 989,88; 5888,421;  264,963;10469,646;55,10664
 990,42; 5757,190;  235,425;10364,415;54,51447
 990,97; 5716,498;  228,579;10242,415;54,80336
 991,52; 5739,037;  253,656;10198,415;55,15851
 992,07; 5689,267;  272,656;10096,338;55,13830
 992,62; 5637,190;  241,271; 9974,338;55,43904
 993,17; 5554,806;  257,733; 9848,569;55,23056
 993,71; 5527,883;  250,271; 9817,954;55,16081
 994,26; 5463,037;  230,733; 9626,262;55,68930
 994,81; 5471,498;  258,810; 9635,262;55,59340
 995,36; 5432,652;  228,887; 9457,569;56,38687
 995,91; 5380,498;  237,810; 9411,492;56,05915
 996,45; 5347,806;  240,502; 9291,338;56,42908
 997,00; 5266,806;  216,271; 9174,877;56,37635
 997,55; 5243,652;  238,810; 9163,108;56,08108
 998,10; 5205,037;  257,579; 9031,031;56,39123
 998,65; 5166,652;  228,579; 8961,031;56,54853
 999,19; 5160,883;  255,425; 8856,569;57,03262
 999,74; 5056,960;  267,194; 8783,338;56,24336
1000,29; 5045,037;  249,579; 8710,338;56,67881
1000,84; 4965,575;  238,963; 8544,338;56,91027
1001,38; 4956,267;  240,502; 8451,569;57,43182
1001,93; 4927,960;  249,194; 8414,262;57,30223
1002,48; 4821,883;  218,579; 8240,185;57,38631
1003,03; 4840,498;  250,117; 8217,877;57,61194
1003,57; 4775,498;  239,425; 8132,415;57,46964
1004,12; 4741,729;  271,656; 8023,415;57,66527
1004,67; 4669,267;  232,502; 7896,338;57,89222
1005,22; 4611,113;  219,733; 7790,723;58,00273
1005,76; 4535,960;  218,963; 7644,338;58,13843
1006,31; 4538,267;  246,502; 7624,185;58,17227
1006,86; 4472,344;  233,502; 7478,646;58,50598
1007,40; 4385,190;  216,579; 7400,800;58,02454
1007,95; 4402,960;  235,502; 7289,185;59,08201
1008,50; 4292,883;  244,425; 7210,492;58,11683
1009,04; 4247,806;  231,656; 7102,031;58,45605
1009,59; 4180,190;  243,733; 6969,262;58,53008
1010,14; 4146,729;  221,810; 6848,877;59,22558
1010,68; 4085,806;  233,656; 6776,415;58,87653
1011,23; 4031,344;  229,656; 6692,031;58,82804
1011,78; 4008,652;  249,579; 6658,415;58,65453
1012,32; 3946,037;  255,887; 6525,723;58,85560
1012,87; 3922,190;  259,502; 6550,492;58,22117
1013,42; 3859,267;  222,963; 6384,338;59,01773
1013,96; 3866,267;  265,733; 6379,723;58,89009
1014,51; 3793,960;  194,194; 6280,877;59,14166
1015,06; 3809,883;  204,348; 6287,954;59,26641
1015,60; 3870,421;  271,425; 6351,492;59,19336
1016,15; 3799,806;  229,348; 6284,108;58,96944
1016,69; 3863,498;  236,348; 6322,877;59,59308
1017,24; 3878,190;  214,733; 6312,262;60,08102
1017,79; 3964,190;  264,040; 6395,800;60,34402
1018,33; 3890,344;  224,271; 6389,492;59,46377
1018,88; 3967,960;  246,963; 6421,569;60,26289
1019,42; 3966,883;  231,887; 6428,877;60,27113
1019,97; 3963,883;  223,117; 6424,492;60,32155
1020,51; 4004,190;  257,810; 6518,415;59,84055
1021,06; 3950,575;  227,040; 6444,415;59,88918
1021,61; 3990,267;  202,040; 6436,646;60,76129
1022,15; 3976,421;  193,040; 6387,723;61,07465
1022,70; 3991,037;  231,348; 6428,954;60,66356
1023,24; 3962,960;  218,040; 6360,723;60,96553
1023,79; 3947,575;  225,733; 6285,185;61,42209
1024,33; 3944,806;  238,502; 6243,723;61,71802
1024,88; 3879,113;  237,810; 6147,646;61,61429
1025,42; 3825,037;  227,810; 6068,800;61,58591
1025,97; 3816,806;  222,425; 5988,262;62,33928
1026,51; 3718,960;  185,733; 5866,185;62,19975
1027,06; 3723,498;  216,887; 5799,877;62,80884
1027,60; 3664,113;  230,887; 5729,877;62,43377
1028,15; 3620,729;  239,579; 5657,954;62,40155
1028,69; 3520,806;  197,810; 5499,492;62,67814
1029,24; 3515,267;  205,579; 5504,108;62,46429
1029,78; 3464,498;  220,810; 5407,954;62,53322
1030,33; 3378,190;  204,810; 5274,415;62,59620
1030,87; 3373,883;  217,271; 5212,646;63,19068
1031,42; 3321,575;  210,579; 5106,108;63,54770
1031,96; 3327,652;  233,117; 5087,108;63,75238
1032,51; 3250,190;  210,810; 4997,877;63,49150
1033,05; 3257,960;  221,425; 4939,492;64,35971
1033,60; 3183,883;  193,502; 4842,108;64,32855
1034,14; 3159,729;  217,194; 4740,338;65,05507
1034,69; 3125,960;  217,810; 4734,800;64,38247
1035,23; 3081,883;  223,963; 4670,338;64,27526
1035,77; 3042,190;  206,348; 4589,723;64,69541
1036,32; 3001,883;  202,348; 4498,723;65,16039
1036,86; 3003,960;  223,887; 4455,338;65,70022
1037,41; 2936,806;  235,579; 4392,646;64,97915
1037,95; 2892,421;  202,194; 4299,262;65,66226
1038,50; 2879,652;  213,425; 4267,262;65,77046
1039,04; 2844,421;  234,425; 4237,492;65,19991
1039,58; 2807,883;  195,963; 4155,415;65,96669
1040,13; 2758,344;  223,194; 4076,954;65,78381
1040,67; 2772,498;  252,271; 4112,800;65,28191
1041,21; 2718,652;  254,502; 4004,954;65,70275
1041,76; 2641,883;  203,502; 3916,723;65,66753
1042,30; 2633,806;  213,579; 3875,800;66,08631
1042,85; 2605,652;  214,579; 3803,877;66,61673
1043,39; 2546,575;  204,656; 3776,262;65,57049
1043,93; 2513,113;  242,887; 3720,185;65,28710
1044,48; 2514,421;  232,887; 3651,646;66,73574
1045,02; 2449,883;  228,810; 3589,954;66,08086
1045,56; 2478,190;  236,040; 3571,723;67,21712
1046,11; 2406,883;  223,425; 3528,877;66,05625
1046,65; 2381,652;  226,963; 3464,800;66,54717
1047,19; 2338,883;  219,656; 3415,108;66,32010
1047,74; 2295,037;  205,271; 3355,185;66,34358
1048,28; 2301,113;  237,887; 3336,031;66,59557
1048,82; 2263,575;  243,117; 3300,800;66,07807
1049,37; 2241,960;  236,579; 3249,646;66,55612
1049,91; 2223,267;  228,425; 3218,492;66,71563
1050,45; 2199,652;  236,425; 3167,569;66,97818
1050,99; 2146,806;  230,963; 3094,031;66,91573
1051,54; 2135,113;  212,656; 3051,338;67,72359
1052,08; 2115,729;  250,810; 3051,031;66,59900
1052,62; 2106,037;  245,040; 2967,262;68,36315
1053,16; 2056,883;  220,502; 2939,031;67,55053
1053,71; 2050,421;  231,348; 2928,800;67,43672
1054,25; 2012,652;  250,348; 2871,723;67,22822
1054,79; 1984,037;  236,194; 2834,723;67,26276
1055,33; 1939,421;  205,425; 2745,338;68,26989
1055,88; 1950,498;  227,733; 2742,031;68,51874
1056,42; 1944,421;  248,271; 2701,108;69,15055
1056,96; 1892,498;  240,579; 2691,954;67,38746
1057,50; 1891,960;  231,117; 2631,646;69,18652
1058,05; 1834,575;  230,194; 2593,492;67,88736
1058,59; 1858,960;  261,040; 2549,723;69,81829
1059,13; 1805,421;  220,963; 2494,877;69,67977
1059,67; 1780,267;  243,040; 2494,877;68,26548
1060,21; 1751,421;  227,502; 2447,338;68,65007
1060,76; 1732,190;  240,963; 2425,646;68,25828
1061,30; 1738,575;  260,040; 2402,108;69,02372
1061,84; 1708,575;  229,425; 2340,569;70,06390
1062,38; 1675,575;  224,963; 2288,569;70,29499
1062,92; 1701,267;  266,348; 2291,569;70,85247
1063,46; 1637,344;  242,502; 2226,338;70,31034
1064,01; 1620,190;  221,579; 2198,954;70,73072
1064,55; 1599,960;  237,271; 2185,185;69,95631
1065,09; 1558,806;  209,502; 2115,800;70,78137
1065,63; 1582,498;  256,656; 2158,185;69,72507
1066,17; 1579,652;  264,810; 2132,108;70,41416
1066,71; 1567,113;  244,733; 2082,262;71,96517
1067,25; 1516,037;  235,733; 2033,262;71,22577
1067,80; 1509,037;  249,810; 2043,492;70,20344
1068,34; 1510,498;  265,271; 2001,723;71,71099
1068,88; 1462,113;  232,502; 1952,262;71,49904
1069,42; 1480,806;  263,810; 1965,877;71,50106
1069,96; 1441,190;  228,194; 1935,415;71,05091
1070,50; 1457,344;  274,117; 1929,108;71,49449
1071,04; 1382,652;  226,117; 1859,031;70,82645
1071,58; 1395,498;  233,271; 1835,646;72,53152
1072,12; 1373,652;  241,040; 1829,108;71,32012
1072,66; 1370,575;  227,656; 1794,877;72,92648
1073,21; 1382,883;  263,579; 1804,108;72,65712
1073,75; 1361,883;  238,656; 1770,108;73,34392
1074,29; 1325,806;  239,040; 1763,492;71,28892
1074,83; 1328,498;  255,656; 1743,415;72,11127
1075,37; 1303,037;  259,656; 1720,185;71,43856
1075,91; 1287,806;  253,040; 1706,492;71,19364
1076,45; 1284,037;  243,194; 1687,877;72,04643
1076,99; 1260,037;  248,502; 1652,185;72,06291
1077,53; 1241,960;  221,502; 1613,492;73,30925
1078,07; 1250,883;  246,887; 1641,646;71,98345
1078,61; 1231,344;  244,887; 1574,723;74,17887
1079,15; 1199,960;  236,271; 1582,569;71,58062
1079,69; 1203,190;  237,271; 1560,108;73,01879
1080,23; 1212,883;  266,810; 1560,646;73,12153
1080,77; 1238,960;  285,502; 1570,800;74,18183
1081,31; 1160,652;  228,579; 1496,492;73,51236
1081,85; 1186,652;  243,810; 1501,954;74,93913
1082,39; 1147,037;  232,194; 1446,031;75,36783
1082,93; 1147,037;  250,887; 1446,800;74,93435
1083,47; 1117,190;  234,117; 1421,415;74,37670
1084,01; 1138,729;  253,810; 1440,415;74,57567
1084,55; 1083,729;  233,963; 1397,185;73,05278
1085,09; 1106,729;  255,040; 1391,646;74,93262
1085,63; 1100,037;  245,579; 1357,108;76,87229
1086,17; 1082,729;  233,502; 1338,415;76,85913
1086,71; 1049,113;  231,425; 1309,723;75,83139
1087,24; 1080,344;  266,502; 1353,877;74,84468
1087,78; 1048,575;  255,963; 1318,492;74,59671
1088,32; 1018,113;  226,271; 1264,415;76,27479
1088,86; 1022,498;  255,733; 1294,415;73,82095
1089,40; 1015,344;  243,348; 1259,723;75,95584
1089,94;  969,421;  225,348; 1232,954;73,84565
1090,48;  999,729;  257,733; 1234,185;75,98901
1091,02;  986,883;  253,963; 1229,800;75,10676
1091,56;  974,267;  252,656; 1207,338;75,58653
1092,10;  947,498;  228,348; 1182,646;75,35905
1092,63;  974,806;  257,963; 1209,723;75,31758
1093,17;  946,806;  256,502; 1174,185;75,22250
1093,71;  925,729;  238,194; 1144,338;75,87474
1094,25;  937,113;  257,425; 1153,492;75,85239
1094,79;  898,652;  248,425; 1127,800;73,94194
1095,33;  897,267;  256,271; 1120,031;74,21002
1095,87;  890,729;  251,425; 1102,492;75,11789
1096,40;  860,806;  223,963; 1088,492;73,66351
1096,94;  865,344;  242,117; 1075,877;74,74899
1097,48;  859,575;  252,040; 1080,031;73,37460
1098,02;  845,113;  245,040; 1037,646;75,70890
1098,56;  823,267;  212,348; 1026,800;75,00986
1099,10;  814,883;  227,348; 1004,877;75,56435
1099,63;  819,190;  233,040;  997,723;76,65271
1100,17;  818,960;  248,963; 1012,646;74,63783
1100,71;  818,267;  262,733; 1020,338;73,32766

