
Integration time [ms]: 120,000
Averaging Nr. [scans]: 13
Smoothing Nr. [pixels]: 0
Data measured with spectrometer [name]: 2009305U1
Wave   ;Sample   ;Dark     ;Reference;Reflectance
[nm]   ;[counts] ;[counts] ;[counts] ;[%]

 175,72;  210,693;  201,625;  211,937;87,93783
 176,32;  245,080;  242,552;  224,928; 0,00000
 176,92;  246,278;  261,011;  256,800; 0,00000
 177,52;  260,172;  255,626;  266,520;41,73215
 178,12;  237,803;  235,705;  231,420; 0,00000
 178,72;  262,402;  263,398;  258,116; 0,00000
 179,32;  253,832;  254,167;  248,575; 0,00000
 179,92;  261,693;  248,473;  258,234;135,42842
 180,52;  254,762;  240,855;  243,616;503,54620
 181,12;  256,105;  263,473;  256,668; 0,00000
 181,73;  277,832;  281,473;  274,094; 0,00000
 182,33;  351,256;  342,394;  347,927;160,17907
 182,93;  276,259;  278,088;  269,187; 0,00000
 183,53;  243,758;  242,014;  240,884; 0,00000
 184,13;  235,274;  238,014;  233,058; 0,00000
 184,73;  270,385;  272,938;  276,196;-78,33643
 185,33;  273,425;  241,032;  355,393;28,32498
 185,93;  275,511;  239,573;  366,328;28,35197
 186,53;  291,123;  253,495;  377,866;30,25512
 187,13;  305,614;  268,800;  409,261;26,20891
 187,73;  274,997;  246,957;  371,626;22,49112
 188,33;  278,701;  252,651;  375,679;21,17453
 188,93;  288,533;  254,655;  376,673;27,76531
 189,53;  283,901;  252,658;  389,176;22,88561
 190,13;  318,780;  284,662;  416,188;25,93955
 190,73;  262,377;  228,044;  369,412;24,28617
 191,34;  293,911;  271,810;  398,161;17,49182
 191,94;  263,101;  241,344;  360,252;18,29743
 192,54;  288,208;  251,798;  399,369;24,67288
 193,14;  304,339;  266,954;  390,860;30,17147
 193,74;  294,531;  261,339;  382,423;27,41226
 194,34;  289,330;  247,185;  389,098;29,69837
 194,94;  253,425;  231,647;  363,527;16,51393
 195,54;  241,823;  201,417;  341,686;28,80628
 196,14;  268,212;  226,492;  374,707;28,14832
 196,74;  259,601;  228,417;  356,372;24,37054
 197,34;  236,876;  208,259;  352,408;19,85200
 197,94;  263,483;  237,185;  388,684;17,35892
 198,54;  274,657;  237,646;  396,970;23,22999
 199,14;  250,748;  211,105;  385,764;22,69758
 199,74;  247,892;  199,336;  380,328;26,82806
 200,34;  245,438;  199,181;  393,196;23,84204
 200,94;  281,691;  241,721;  438,656;20,29570
 201,54;  268,744;  211,336;  438,262;25,29787
 202,14;  293,043;  241,565;  474,144;22,13331
 202,74;  272,708;  228,028;  478,759;17,81988
 203,34;  266,525;  198,334;  500,536;22,56463
 203,94;  235,224;  169,565;  485,731;20,76722
 204,54;  307,153;  253,492;  584,521;16,21024
 205,14;  282,347;  201,797;  585,873;20,97234
 205,74;  328,698;  245,026;  674,101;19,50056
 206,34;  289,344;  216,719;  694,382;15,20409
 206,94;  310,961;  214,335;  759,104;17,73707
 207,54;  295,159;  196,027;  786,351;16,79282
 208,14;  328,458;  204,719;  856,790;18,97627
 208,74;  331,778;  207,336;  933,381;17,13973
 209,34;  340,368;  199,951; 1020,391;17,11481
 209,94;  368,986;  213,874; 1130,911;16,91447
 210,54;  381,857;  214,565; 1234,343;16,40475
 211,14;  413,698;  220,566; 1337,630;17,28922
 211,73;  421,074;  209,875; 1440,732;17,15871
 212,33;  458,777;  223,029; 1532,015;18,00999
 212,93;  471,490;  210,644; 1638,561;18,26761
 213,53;  459,383;  175,259; 1719,714;18,39643
 214,13;  482,210;  197,256; 1782,495;17,97543
 214,73;  484,966;  191,873; 1810,298;18,10975
 215,33;  475,678;  177,797; 1827,142;18,06058
 215,93;  522,146;  203,565; 1975,423;17,98006
 216,53;  511,801;  163,951; 2050,466;18,43873
 217,13;  615,907;  214,488; 2207,478;20,14157
 217,73;  649,742;  195,026; 2433,396;20,31458
 218,33;  656,030;  163,179; 2597,658;20,24462
 218,93;  740,343;  190,407; 2901,170;20,28710
 219,53;  829,482;  186,486; 3196,683;21,36057
 220,13;  874,253;  165,948; 3493,357;21,28698
 220,73;  946,735;  189,643; 3861,038;20,62138
 221,32; 1045,316;  199,567; 4210,381;21,08674
 221,92; 1128,881;  198,409; 4654,468;20,88105
 222,52; 1192,003;  185,949; 5030,581;20,76636
 223,12; 1272,742;  186,564; 5464,349;20,58019
 223,72; 1391,656;  199,564; 5842,758;21,12441
 224,32; 1453,583;  196,180; 6221,616;20,86825
 224,92; 1508,857;  186,949; 6516,141;20,88589
 225,52; 1575,643;  195,720; 6808,282;20,86822
 226,12; 1625,439;  203,488; 7132,869;20,52060
 226,72; 1653,418;  168,796; 7454,813;20,37632
 227,31; 1698,462;  160,873; 7793,724;20,14436
 227,91; 1765,522;  194,951; 8215,650;19,58148
 228,51; 1808,180;  183,029; 8530,858;19,46794
 229,11; 1867,926;  190,027; 8894,860;19,27549
 229,71; 1913,697;  177,490; 9228,216;19,18307
 230,31; 1940,705;  174,410; 9595,354;18,74860
 230,91; 1993,552;  172,568; 9977,642;18,57185
 231,51; 2029,939;  168,180;10256,461;18,45467
 232,10; 2039,679;  174,563;10538,286;17,99658
 232,70; 2066,023;  196,261;10745,098;17,72481
 233,30; 2102,329;  214,949;11067,424;17,39124
 233,90; 2061,450;  183,411;11203,643;17,04174
 234,50; 2063,460;  186,180;11330,262;16,84554
 235,10; 2064,164;  179,872;11458,449;16,70683
 235,70; 2041,285;  196,335;11606,350;16,16956
 236,29; 1993,935;  204,567;11551,671;15,76938
 236,89; 1919,726;  167,337;11466,467;15,50906
 237,49; 1938,268;  192,719;11403,901;15,56972
 238,09; 1842,267;  183,335;11172,766;15,09570
 238,69; 1805,279;  216,799;11063,578;14,64471
 239,29; 1699,008;  180,258;10766,640;14,34626
 239,89; 1648,683;  191,568;10487,249;14,15268
 240,48; 1556,848;  182,412;10179,061;13,74897
 241,08; 1511,543;  180,566; 9826,476;13,79836
 241,68; 1450,187;  201,642; 9520,169;13,39852
 242,28; 1386,068;  176,565; 9228,086;13,36243
 242,88; 1386,123;  216,256; 8918,135;13,44384
 243,48; 1337,817;  216,027; 8653,722;13,29498
 244,07; 1314,796;  200,720; 8451,561;13,50258
 244,67; 1337,746;  195,796; 8297,840;14,09459
 245,27; 1302,459;  200,182; 8148,425;13,86818
 245,87; 1314,788;  210,025; 8051,856;14,08806
 246,47; 1306,646;  201,413; 8056,053;14,07108
 247,06; 1341,299;  189,489; 8071,596;14,61298
 247,66; 1374,424;  180,411; 8145,777;14,99006
 248,26; 1463,734;  213,874; 8303,364;15,45041
 248,86; 1519,165;  209,721; 8470,411;15,85151
 249,46; 1573,026;  151,642; 8652,435;16,72060
 250,05; 1706,484;  201,181; 9049,165;17,01295
 250,65; 1795,200;  172,567; 9372,684;17,63709
 251,25; 1992,118;  185,874; 9801,239;18,78498
 251,85; 2121,479;  181,183;10335,423;19,10823
 252,44; 2287,052;  154,028;10965,522;19,72923
 253,04; 2533,197;  204,720;11621,653;20,39494
 253,64; 2724,848;  149,183;12352,359;21,10652
 254,24; 3029,724;  204,335;13208,601;21,72663
 254,84; 3317,256;  176,565;14117,743;22,52817
 255,43; 3606,818;  178,797;14990,002;23,14478
 256,03; 3911,280;  184,029;15843,204;23,80235
 256,63; 4229,539;  190,722;16837,609;24,26170
 257,23; 4509,767;  176,337;17625,319;24,83486
 257,82; 4855,602;  197,723;18610,055;25,29761
 258,42; 5090,132;  142,492;19366,158;25,73723
 259,02; 5451,344;  193,182;20161,737;26,33221
 259,62; 5652,629;  175,954;20774,200;26,58807
 260,21; 5915,453;  192,874;21366,336;27,02713
 260,81; 6089,382;  184,565;21762,742;27,36476
 261,41; 6275,762;  178,338;22185,250;27,70686
 262,01; 6520,173;  208,724;22556,289;28,24222
 262,60; 6636,074;  171,568;22859,396;28,49328
 263,20; 6825,067;  183,029;23182,124;28,87956
 263,80; 6967,551;  210,109;23271,372;29,30213
 264,40; 7036,431;  170,878;23394,568;29,56272
 264,99; 7175,734;  201,570;23573,605;29,83978
 265,59; 7254,114;  175,187;23712,276;30,07562
 266,19; 7346,079;  174,262;23811,936;30,34062
 266,78; 7432,096;  211,417;23996,952;30,35744
 267,38; 7471,001;  188,802;24014,387;30,56462
 267,98; 7499,231;  181,571;23990,156;30,73538
 268,58; 7543,891;  201,495;23960,221;30,90400
 269,17; 7581,943;  184,188;23944,433;31,13501
 269,77; 7532,892;  208,953;23744,933;31,11805
 270,37; 7486,881;  175,724;23636,304;31,16358
 270,96; 7485,893;  222,800;23544,318;31,14331
 271,56; 7360,121;  179,183;23304,211;31,05266
 272,16; 7313,732;  195,031;23089,373;31,09371
 272,75; 7296,421;  194,261;23015,853;31,12035
 273,35; 7256,650;  190,107;22999,285;30,98114
 273,95; 7245,565;  196,800;22954,186;30,97353
 274,54; 7258,400;  173,489;23015,249;31,01736
 275,14; 7400,459;  200,799;23332,136;31,12514
 275,74; 7390,474;  166,261;23298,430;31,23016
 276,33; 7494,457;  214,876;23814,799;30,84578
 276,93; 7601,210;  192,027;24071,053;31,02800
 277,53; 7750,848;  191,643;24586,850;30,98643
 278,12; 7912,129;  173,645;25086,772;31,06187
 278,72; 8128,476;  221,259;25609,960;31,14463
 279,32; 8299,951;  189,105;26237,455;31,13765
 279,91; 8530,525;  173,413;26924,959;31,23973
 280,51; 8700,581;  181,028;27433,855;31,26117
 281,11; 8942,337;  184,721;28096,870;31,37564
 281,70; 9050,531;  167,798;28543,384;31,30414
 282,30; 9307,813;  167,722;29192,981;31,49013
 282,90; 9425,301;  188,029;29484,000;31,53086
 283,49; 9686,178;  198,722;29991,541;31,84477
 284,09; 9897,902;  212,798;30344,091;32,14301
 284,69;10024,526;  216,413;30763,142;32,10855
 285,28;10235,065;  197,491;31063,681;32,51964
 285,88;10402,989;  246,108;31361,931;32,64217
 286,47;10471,157;  191,722;31407,514;32,93024
 287,07;10589,653;  213,182;31517,507;33,14708
 287,67;10715,278;  209,104;31609,876;33,45833
 288,26;10899,322;  183,490;31567,239;34,14452
 288,86;11024,875;  175,798;31630,302;34,49133
 289,46;11259,813;  202,182;31734,855;35,06721
 290,05;11370,282;  171,104;31747,906;35,46647
 290,65;11638,581;  197,876;31907,567;36,07952
 291,24;11811,041;  196,182;32214,749;36,27539
 291,84;12038,231;  209,260;32241,839;36,92794
 292,44;12297,546;  198,873;32361,746;37,61689
 293,03;12476,871;  258,721;32576,320;37,80649
 293,63;12588,575;  194,106;32601,603;38,24568
 294,22;12809,893;  206,259;32933,376;38,51129
 294,82;12876,010;  189,493;32756,266;38,95540
 295,41;12840,300;  173,644;32583,923;39,08222
 296,01;12827,875;  215,800;32469,908;39,10223
 296,61;12801,265;  204,644;32197,910;39,37273
 297,20;12621,939;  194,492;31824,951;39,28949
 297,80;12606,229;  210,258;31674,281;39,39729
 298,39;12344,479;  175,260;31345,038;39,04172
 298,99;12264,004;  217,184;31211,562;38,86776
 299,58;12106,602;  207,488;31076,507;38,54711
 300,18;12009,279;  223,874;30829,463;38,50736
 300,78;11812,083;  183,643;30493,014;38,36582
 301,37;11701,580;  207,340;30532,037;37,90389
 301,97;11599,779;  204,182;30396,843;37,74294
 302,56;11497,742;  190,491;30464,714;37,34943
 303,16;11376,223;  176,722;30339,250;37,13051
 303,75;11242,742;  186,566;30384,185;36,61274
 304,35;11219,043;  186,026;30632,586;36,23732
 304,94;11156,973;  182,029;30642,002;36,03071
 305,54;11044,701;  213,490;30586,227;35,66097
 306,13;10860,656;  167,795;30523,681;35,22500
 306,73;10694,727;  180,565;30296,381;34,91243
 307,33;10582,803;  204,181;30257,121;34,53447
 307,92;10466,904;  201,567;30307,948;34,09688
 308,52;10496,533;  177,722;30731,231;33,77292
 309,11;10462,409;  182,493;31208,127;33,13362
 309,71;10444,805;  179,801;31504,564;32,76962
 310,30;10438,984;  180,259;31716,006;32,53046
 310,90;10438,676;  216,336;32055,622;32,10606
 311,49;10378,877;  199,875;32132,899;31,87610
 312,09;10267,774;  162,874;32382,245;31,36281
 312,68;10309,845;  232,490;32719,175;31,01996
 313,28;10179,135;  174,490;32826,178;30,64051
 313,87;10034,312;  156,490;32925,648;30,14365
 314,47;10008,033;  182,954;33276,765;29,68857
 315,06; 9907,603;  170,951;33338,941;29,35557
 315,66; 9869,389;  174,566;33490,629;29,09955
 316,25; 9692,022;  152,799;33441,896;28,65570
 316,85; 9507,165;  161,335;33487,161;28,04381
 317,44; 9411,192;  183,877;33685,959;27,54251
 318,04; 9368,950;  169,337;33701,320;27,43534
 318,63; 9178,128;  154,488;33746,810;26,86221
 319,22; 9125,882;  194,414;33957,343;26,45347
 319,82; 8993,042;  188,106;33972,105;26,06244
 320,41; 8854,648;  200,414;33907,823;25,67458
 321,01; 8763,291;  199,028;33965,266;25,36339
 321,60; 8653,390;  187,952;34046,880;25,00208
 322,20; 8456,098;  183,567;33984,030;24,47461
 322,79; 8399,005;  212,874;34153,985;24,11863
 323,39; 8308,621;  182,411;34231,640;23,86606
 323,98; 8143,009;  173,413;34185,150;23,43190
 324,58; 8011,012;  190,415;34106,199;23,05887
 325,17; 7892,233;  178,337;33887,254;22,88384
 325,76; 7766,057;  201,259;33740,688;22,55494
 326,36; 7571,010;  172,335;33408,670;22,26080
 326,95; 7416,848;  188,106;33162,282;21,92244
 327,55; 7215,941;  167,414;32744,529;21,63644
 328,14; 7093,832;  175,258;32485,478;21,41296
 328,74; 6951,906;  205,030;32049,227;21,18714
 329,33; 6779,602;  193,720;31666,709;20,92551
 329,92; 6581,142;  179,492;31173,748;20,65431
 330,52; 6381,922;  193,488;30464,695;20,44330
 331,11; 6225,868;  192,260;30112,078;20,16593
 331,71; 6098,217;  182,721;29473,036;20,19608
 332,30; 5910,973;  204,875;29077,002;19,76335
 332,89; 5783,264;  230,951;28554,063;19,60347
 333,49; 5605,788;  202,721;28099,635;19,36797
 334,08; 5428,924;  184,491;27680,869;19,07318
 334,68; 5369,744;  182,798;27209,926;19,19163
 335,27; 5307,786;  210,565;26901,000;19,09756
 335,86; 5216,483;  226,952;26635,386;18,89370
 336,46; 5094,980;  188,488;26398,851;18,71967
 337,05; 5013,604;  187,414;26249,373;18,51814
 337,65; 4935,838;  161,414;26065,971;18,43083
 338,24; 4972,651;  225,336;26063,016;18,37361
 338,83; 4927,367;  210,490;26019,054;18,27640
 339,43; 4879,063;  183,491;25992,363;18,19363
 340,02; 4875,718;  177,338;25922,724;18,24941
 340,61; 4829,741;  190,336;25986,588;17,98480
 341,21; 4853,906;  216,337;25937,381;18,03025
 341,80; 4785,199;  191,722;25863,933;17,89280
 342,40; 4865,100;  194,181;26002,425;18,09855
 342,99; 4850,264;  186,720;26086,832;18,00588
 343,58; 4908,525;  178,643;26240,555;18,14864
 344,18; 4934,589;  204,720;26330,906;18,10394
 344,77; 4979,898;  184,953;26642,743;18,12300
 345,36; 5010,079;  155,875;26957,359;18,11170
 345,96; 5120,559;  214,105;27280,414;18,12753
 346,55; 5162,739;  174,641;27510,645;18,24735
 347,14; 5263,304;  164,258;27726,098;18,50038
 347,74; 5384,593;  156,332;28292,956;18,58169
 348,33; 5516,779;  180,640;28884,786;18,59013
 348,92; 5665,475;  204,178;29392,364;18,71064
 349,52; 5744,079;  159,409;29828,254;18,82335
 350,11; 5902,449;  181,645;30087,700;19,12925
 350,70; 5921,690;  176,644;30171,069;19,15371
 351,29; 5954,678;  171,032;29908,786;19,44883
 351,89; 5995,008;  198,646;29917,544;19,50396
 352,48; 6033,563;  156,259;29906,473;19,75550
 353,07; 6121,041;  188,027;29856,422;19,99776
 353,67; 6117,710;  199,562;29879,529;19,93987
 354,26; 6146,167;  190,104;29593,373;20,25647
 354,85; 6172,600;  197,643;29409,680;20,45375
 355,45; 6171,947;  172,183;29296,569;20,60048
 356,04; 6245,335;  178,411;29180,773;20,91873
 356,63; 6314,658;  213,106;28983,903;21,20745
 357,22; 6310,369;  187,032;28839,631;21,37097
 357,82; 6376,448;  201,339;28639,921;21,71384
 358,41; 6448,923;  213,413;28538,868;22,01380
 359,00; 6458,079;  180,799;28362,100;22,27463
 359,60; 6513,403;  198,951;28289,894;22,47860
 360,19; 6553,005;  192,565;28037,072;22,84271
 360,78; 6619,573;  195,952;27968,573;23,12933
 361,37; 6645,179;  196,952;27727,522;23,42206
 361,97; 6729,184;  199,952;27726,023;23,72017
 362,56; 6736,750;  177,261;27419,630;24,07826
 363,15; 6746,269;  234,414;27088,171;24,24932
 363,74; 6768,732;  202,800;26681,219;24,79730
 364,34; 6801,226;  203,337;26374,491;25,21054
 364,93; 6715,653;  177,953;25986,343;25,33168
 365,52; 6763,022;  163,183;25654,155;25,89089
 366,11; 6730,250;  190,722;25281,914;26,06304
 366,71; 6758,651;  177,722;24903,497;26,61567
 367,30; 6751,046;  185,875;24600,577;26,89023
 367,89; 6800,824;  230,874;24399,148;27,18419
 368,48; 6789,174;  189,877;24064,577;27,64138
 369,07; 6755,383;  184,797;23611,608;28,04729
 369,67; 6766,244;  205,646;23323,690;28,37869
 370,26; 6767,055;  182,567;23069,119;28,77012
 370,85; 6762,928;  180,029;22808,726;29,09093
 371,44; 6850,391;  191,106;22619,755;29,69098
 372,03; 6840,782;  173,953;22373,459;30,03143
 372,63; 6817,932;  163,183;22085,275;30,35636
 373,22; 6820,737;  179,028;21810,346;30,70413
 373,81; 6836,835;  163,183;21486,912;31,29683
 374,40; 6841,772;  178,950;21312,907;31,52662
 374,99; 6882,185;  176,645;20995,793;32,20852
 375,59; 6892,477;  175,181;20782,787;32,59620
 376,18; 6936,874;  207,337;20617,503;32,97150
 376,77; 6902,130;  199,798;20442,446;33,10996
 377,36; 7008,801;  209,337;20378,438;33,71228
 377,95; 6979,170;  197,722;20070,624;34,12410
 378,55; 6983,138;  169,489;19943,804;34,45706
 379,14; 7055,015;  191,106;19866,931;34,88499
 379,73; 7109,689;  198,260;19773,597;35,30682
 380,32; 7170,893;  194,875;19770,376;35,63647
 380,91; 7208,819;  176,954;19643,608;36,12262
 381,50; 7273,510;  201,261;19577,348;36,49988
 382,10; 7316,200;  178,336;19496,914;36,94818
 382,69; 7398,119;  165,106;19484,413;37,43930
 383,28; 7443,888;  198,568;19402,999;37,72733
 383,87; 7464,855;  177,876;19266,602;38,17425
 384,46; 7485,676;  172,108;19110,169;38,61835
 385,05; 7628,877;  207,107;19181,610;39,11444
 385,64; 7664,096;  184,414;19227,298;39,27809
 386,24; 7687,003;  166,570;19073,504;39,77606
 386,83; 7823,069;  206,955;19176,346;40,14950
 387,42; 7927,461;  197,337;19273,887;40,52160
 388,01; 8109,236;  197,648;19449,629;41,09493
 388,60; 8289,379;  192,185;19744,020;41,41399
 389,19; 8421,397;  175,496;19847,565;41,91680
 389,78; 8586,231;  180,265;20167,945;42,05574
 390,37; 8866,794;  244,340;20618,685;42,32015
 390,96; 8990,809;  194,262;20715,037;42,86654
 391,56; 9126,158;  187,881;20911,360;43,13116
 392,15; 9303,393;  173,803;21111,813;43,60295
 392,74; 9379,311;  160,422;21274,167;43,66297
 393,33; 9635,883;  182,651;21565,497;44,20942
 393,92; 9878,584;  193,884;21880,558;44,65738
 394,51;10006,688;  173,958;22151,107;44,74070
 395,10;10206,760;  210,272;22440,191;44,96862
 395,69;10307,839;  198,195;22501,095;45,32883
 396,28;10432,883;  188,273;22620,718;45,66872
 396,87;10531,802;  207,584;22629,437;46,04534
 397,46;10636,495;  210,124;22791,812;46,17179
 398,06;10790,493;  214,588;22998,359;46,41859
 398,65;10970,898;  203,978;23009,386;47,21213
 399,24;11058,392;  198,825;23201,264;47,21050
 399,83;11149,151;  185,449;23186,452;47,66619
 400,42;11253,001;  232,841;23349,808;47,67130
 401,01;11380,331;  210,234;23460,287;48,04332
 401,60;11445,517;  218,861;23404,212;48,42133
 402,19;11500,534;  246,409;23423,853;48,55637
 402,78;11616,854;  245,346;23463,866;48,97602
 403,37;11573,792;  221,359;23302,044;49,18586
 403,96;11571,110;  217,990;23202,480;49,39470
 404,55;11577,956;  232,085;23098,623;49,61779
 405,14;11593,296;  214,716;22964,298;50,01666
 405,73;11648,724;  229,427;22789,678;50,61689
 406,32;11661,729;  236,516;22804,833;50,62501
 406,91;11578,957;  230,300;22562,139;50,81828
 407,50;11617,850;  227,769;22335,176;51,52156
 408,09;11452,717;  208,620;22042,847;51,49757
 408,68;11554,707;  214,240;21937,160;52,20508
 409,27;11472,136;  206,389;21739,994;52,31705
 409,86;11483,361;  207,531;21587,290;52,74067
 410,45;11555,111;  244,599;21554,774;53,07564
 411,04;11525,460;  250,820;21465,012;53,14669
 411,63;11421,195;  232,115;21225,701;53,29761
 412,22;11325,113;  235,334;21067,258;53,23454
 412,81;11212,191;  252,561;20779,460;53,39155
 413,40;11141,240;  247,325;20419,489;54,00469
 413,99;11030,000;  289,096;20208,379;53,92214
 414,58;10806,890;  215,710;19775,040;54,14899
 415,17;10723,258;  212,791;19569,332;54,29930
 415,76;10714,981;  221,104;19469,083;54,51937
 416,35;10630,755;  220,948;19205,672;54,83255
 416,94;10746,941;  245,564;19261,213;55,22492
 417,53;10879,888;  217,945;19482,039;55,34620
 418,12;10956,163;  221,636;19450,854;55,82404
 418,71;11166,244;  238,478;19886,423;55,61786
 419,30;11247,201;  229,944;19964,291;55,82783
 419,89;11459,582;  203,404;20170,569;56,37344
 420,48;11581,405;  250,478;20433,339;56,14133
 421,07;11699,659;  236,093;20489,482;56,60073
 421,66;11726,343;  207,167;20537,729;56,65941
 422,25;11723,346;  225,548;20505,144;56,69639
 422,84;11733,854;  243,854;20454,325;56,85172
 423,43;11637,412;  229,318;20180,265;57,18072
 424,02;11510,666;  252,163;19962,947;57,11850
 424,60;11345,579;  225,542;19548,357;57,54874
 425,19;11210,720;  237,699;19322,640;57,49570
 425,78;11208,420;  250,699;19238,509;57,70924
 426,37;11137,400;  248,466;19120,953;57,69740
 426,96;11160,698;  240,081;18973,671;58,29431
 427,55;11073,207;  228,847;18797,968;58,39997
 428,14;10954,600;  223,308;18666,125;58,18684
 428,73;10878,989;  236,002;18406,636;58,57246
 429,32;10870,991;  247,697;18530,655;58,10490
 429,91;10926,685;  262,618;18423,108;58,72125
 430,50;10892,447;  254,078;18260,865;59,07977
 431,08;10771,713;  264,384;18172,840;58,67245
 431,67;10797,675;  316,921;18154,566;58,75638
 432,26;10695,255;  341,073;17883,736;59,02286
 432,85;10528,398;  360,381;17599,857;58,98101
 433,44;10277,041;  362,148;17232,146;58,77234
 434,03;10144,318;  376,607;16878,414;59,19177
 434,62; 9871,677;  331,456;16493,279;59,02936
 435,21; 9822,877;  352,304;16299,546;59,38690
 435,79; 9706,796;  346,839;16163,400;59,17820
 436,38; 9690,264;  340,605;16053,894;59,50161
 436,97; 9623,808;  324,759;15976,934;59,41058
 437,56; 9539,950;  323,832;15783,026;59,61577
 438,15; 9510,855;  299,756;15647,615;60,01553
 438,74; 9494,141;  305,448;15679,405;59,76791
 439,33; 9534,407;  294,756;15696,880;59,98946
 439,91; 9539,758;  238,523;15739,877;60,00273
 440,50; 9645,367;  288,754;15854,067;60,11195
 441,09; 9669,396;  295,598;15908,155;60,04012
 441,68; 9727,268;  284,518;15869,953;60,58701
 442,27; 9710,950;  256,058;15850,920;60,62825
 442,86; 9672,229;  234,822;15860,564;60,39654
 443,44; 9724,553;  250,977;15901,397;60,53241
 444,03; 9733,935;  305,591;15950,780;60,26354
 444,62; 9676,072;  243,053;15845,351;60,45917
 445,21; 9613,374;  256,515;15682,820;60,65522
 445,80; 9622,532;  299,973;15591,177;60,96680
 446,39; 9376,513;  313,359;15338,536;60,31979
 446,97; 9243,027;  242,586;15108,844;60,54275
 447,56; 9142,310;  246,738;14951,892;60,49288
 448,15; 9103,943;  258,586;14730,697;61,12002
 448,74; 8955,506;  272,970;14513,149;60,97210
 449,33; 8874,298;  256,200;14400,013;60,93193
 449,91; 8737,619;  254,274;14215,653;60,76295
 450,50; 8558,560;  252,197;13953,390;60,62511
 451,09; 8587,097;  270,043;13913,515;60,95995
 451,68; 8555,693;  284,042;13758,700;61,38672
 452,26; 8488,654;  280,579;13742,858;60,97091
 452,85; 8402,310;  256,118;13576,066;61,15784
 453,44; 8426,166;  270,499;13600,214;61,18411
 454,03; 8404,466;  242,502;13588,490;61,15669
 454,61; 8327,508;  251,807;13577,871;60,60080
 455,20; 8525,349;  280,344;13716,042;61,36641
 455,79; 8500,642;  265,039;13729,940;61,16349
 456,38; 8531,584;  280,880;13811,294;60,97894
 456,97; 8609,441;  261,189;13841,962;61,47111
 457,55; 8610,357;  266,033;13841,488;61,46625
 458,14; 8659,038;  286,728;13819,935;61,86494
 458,73; 8531,852;  275,879;13772,760;61,16949
 459,31; 8593,627;  301,031;13764,502;61,59329
 459,90; 8598,110;  299,878;13922,453;60,91530
 460,49; 8721,218;  325,033;14007,917;61,36269
 461,08; 8727,189;  263,183;14055,367;61,36813
 461,66; 8735,690;  278,492;14130,517;61,05387
 462,25; 8839,892;  268,798;14179,169;61,61657
 462,84; 8825,993;  292,722;14235,794;61,20080
 463,43; 8758,744;  229,334;14141,633;61,30841
 464,01; 8755,641;  271,948;14203,825;60,89411
 464,60; 8738,600;  312,488;14163,195;60,83525
 465,19; 8605,466;  243,101;13892,183;61,26687
 465,77; 8625,658;  272,331;13942,341;61,10695
 466,36; 8567,145;  304,718;13790,909;61,26583
 466,95; 8327,922;  267,257;13535,700;60,75065
 467,53; 8157,485;  269,945;13174,710;61,12115
 468,12; 8009,500;  293,021;12981,340;60,81561
 468,71; 7825,534;  263,716;12751,314;60,55462
 469,29; 7699,003;  250,560;12513,375;60,74008
 469,88; 7569,612;  264,328;12244,901;60,97608
 470,47; 7624,947;  323,249;12408,575;60,41788
 471,06; 7610,516;  272,249;12291,298;61,05531
 471,64; 7682,852;  284,480;12420,703;60,96107
 472,23; 7635,650;  250,322;12423,493;60,66889
 472,81; 7726,311;  249,247;12565,529;60,70878
 473,40; 7802,322;  264,014;12685,851;60,68594
 473,99; 7961,894;  344,860;12864,248;60,84190
 474,57; 7976,599;  266,860;12972,051;60,68181
 475,16; 8059,631;  283,708;13090,793;60,71579
 475,75; 8135,438;  278,551;13220,423;60,70904
 476,33; 8166,273;  308,780;13317,890;60,39993
 476,92; 8140,233;  296,937;13401,000;59,85393
 477,51; 8208,836;  282,012;13417,284;60,34762
 478,09; 8212,672;  294,627;13476,925;60,06574
 478,68; 8179,113;  296,165;13381,282;60,24362
 479,27; 8171,452;  309,859;13462,178;59,77343
 479,85; 8151,176;  285,473;13402,065;59,96758
 480,44; 8210,868;  284,780;13583,248;59,60151
 481,02; 8994,719;  300,240;14923,038;59,45838
 481,61;10171,697;  318,394;16810,924;59,74403
 482,20;10822,880;  309,624;18008,108;59,40201
 482,78;11323,673;  339,549;18830,752;59,40189
 483,37;11621,373;  322,853;19308,793;59,50993
 483,95;11736,462;  368,237;19501,288;59,41668
 484,54;11850,662;  377,010;19667,652;59,47782
 485,13;11757,950;  349,312;19580,625;59,32324
 485,71;11595,509;  325,082;19411,191;59,05042
 486,30;11376,038;  374,543;19180,985;58,49854
 486,88;11170,133;  401,543;18813,781;58,48605
 487,47;10722,152;  372,773;18116,653;58,32647
 488,05;10205,322;  369,465;17252,726;58,25804
 488,64; 9465,499;  355,463;16000,514;58,22951
 489,23; 8328,427;  376,926;14088,804;57,98988
 489,81; 7137,403;  363,310;12191,459;57,27095
 490,40; 6757,588;  323,233;11574,749;57,18656
 490,98; 6600,223;  316,386;11323,805;57,08729
 491,57; 6540,873;  336,541;11243,481;56,88426
 492,15; 6509,230;  315,155;11102,442;57,42014
 492,74; 6418,650;  315,695;11096,551;56,60919
 493,32; 6377,219;  330,386;11033,101;56,49812
 493,91; 6295,280;  310,923;10928,836;56,36096
 494,50; 6241,228;  314,997;10879,941;56,09335
 495,08; 6159,762;  299,228;10796,623;55,82847
 495,67; 6141,707;  316,616;10782,409;55,65838
 496,25; 6050,286;  271,614;10664,473;55,60233
 496,84; 6030,259;  275,769;10640,520;55,51980
 497,42; 5985,241;  269,075;10635,485;55,14123
 498,01; 5952,494;  292,384;10571,714;55,06302
 498,59; 5871,045;  255,074;10454,219;55,06315
 499,18; 5862,736;  251,307;10448,641;55,02839
 499,76; 5794,985;  275,691;10414,696;54,43625
 500,35; 5687,220;  274,535;10174,362;54,67455
 500,93; 5631,364;  260,690;10096,839;54,60139
 501,52; 5582,499;  258,921;10071,610;54,25198
 502,10; 5594,242;  261,610;10022,706;54,63148
 502,69; 5478,533;  254,071; 9903,104;54,14493
 503,27; 5387,566;  226,920; 9671,126;54,64351
 503,86; 5311,735;  264,917; 9631,334;53,88206
 504,44; 5210,037;  228,839; 9575,322;53,29489
 505,03; 5036,284;  219,686; 9304,059;53,02070
 505,61; 5010,443;  238,609; 9198,532;53,25754
 506,19; 4962,826;  257,916; 9051,348;53,50481
 506,78; 4793,643;  226,760; 8879,001;52,78266
 507,36; 4726,631;  233,840; 8742,420;52,80307
 507,95; 4660,911;  236,913; 8560,438;53,15053
 508,53; 4550,773;  237,760; 8474,810;52,36114
 509,12; 4469,512;  239,144; 8311,500;52,40561
 509,70; 4392,657;  252,451; 8191,737;52,14834
 510,29; 4292,862;  262,681; 8074,930;51,58798
 510,87; 4176,586;  226,837; 7897,643;51,49066
 511,46; 4042,186;  231,837; 7727,734;50,83247
 512,04; 3986,662;  248,605; 7563,932;51,09898
 512,62; 3929,407;  244,606; 7440,605;51,20625
 513,21; 3799,508;  221,835; 7287,037;50,63794
 513,79; 3724,032;  232,062; 7126,580;50,64850
 514,38; 3639,078;  212,679; 7036,799;50,21012
 514,96; 3595,666;  252,217; 6951,981;49,90397
 515,54; 3504,702;  215,447; 6827,543;49,74602
 516,13; 3450,318;  261,447; 6739,495;49,22580
 516,71; 3346,812;  235,369; 6624,382;48,69990
 517,30; 3257,328;  220,368; 6482,662;48,49596
 517,88; 3251,100;  244,522; 6407,721;48,78275
 518,46; 3141,952;  229,906; 6291,483;48,04107
 519,05; 3133,297;  233,751; 6273,381;48,00866
 519,63; 3099,629;  243,290; 6202,112;47,93463
 520,22; 3078,520;  248,980; 6145,446;47,98704
 520,80; 3010,607;  249,826; 6067,758;47,45297
 521,38; 2980,829;  270,289; 6050,956;46,88974
 521,97; 2941,260;  216,594; 5980,656;47,26989
 522,55; 2922,671;  250,671; 5993,214;46,52991
 523,13; 2897,296;  227,901; 5946,372;46,68022
 523,72; 2876,109;  234,675; 5970,080;46,05488
 524,30; 2950,985;  250,823; 6096,419;46,19139
 524,89; 2903,578;  230,594; 6081,660;45,68371
 525,47; 2964,903;  242,284; 6166,638;45,95638
 526,05; 2963,613;  205,130; 6246,558;45,65945
 526,64; 3012,277;  252,130; 6326,461;45,43953
 527,22; 3030,896;  253,977; 6478,799;44,61042
 527,80; 3128,538;  270,437; 6598,693;45,16411
 528,39; 3109,196;  244,052; 6697,479;44,39725
 528,97; 3184,047;  244,514; 6804,567;44,80960
 529,55; 3215,022;  252,132; 6986,692;43,99530
 530,14; 3337,161;  264,667; 7211,235;44,23039
 530,72; 3323,884;  245,283; 7294,054;43,67571
 531,30; 3364,711;  222,897; 7398,547;43,78437
 531,89; 3407,139;  236,359; 7530,534;43,47002
 532,47; 3439,207;  274,205; 7596,233;43,22576
 533,05; 3423,548;  271,284; 7623,668;42,87403
 533,63; 3452,583;  268,281; 7659,134;43,08436
 534,22; 3413,633;  246,589; 7737,422;42,27894
 534,80; 3438,749;  276,741; 7834,609;41,83730
 535,38; 3495,925;  350,436; 7889,377;41,72323
 535,97; 3395,539;  270,589; 7836,502;41,30301
 536,55; 3415,853;  324,126; 7925,043;40,67572
 537,13; 3397,202;  329,436; 7845,087;40,81836
 537,71; 3380,883;  385,513; 7941,083;39,64453
 538,30; 3384,642;  393,358; 8050,319;39,06620
 538,88; 3421,553;  454,202; 8098,094;38,81990
 539,46; 3477,699;  528,664; 8356,014;37,67603
 540,05; 3508,210;  544,356; 8437,869;37,54797
 540,63; 3566,097;  584,587; 8654,644;36,94534
 541,21; 3595,846;  650,278; 8801,953;36,13451
 541,79; 3643,735;  685,509; 8913,633;35,95262
 542,38; 3705,276;  730,971; 9058,326;35,71728
 542,96; 3700,817;  740,661; 9251,779;34,77986
 543,54; 3778,390;  764,970; 9454,148;34,68015
 544,12; 3778,940;  719,278; 9588,258;34,49847
 544,70; 3782,249;  709,277; 9675,931;34,27111
 545,29; 3844,283;  712,510; 9758,627;34,62008
 545,87; 3783,966;  686,124; 9745,325;34,19553
 546,45; 3790,587;  630,587; 9764,154;34,59765
 547,03; 3805,118;  600,586; 9853,498;34,63269
 547,62; 3790,157;  543,509;10010,041;34,29607
 548,20; 3870,592;  540,046;10136,358;34,70652
 548,78; 3871,753;  503,428;10251,111;34,55514
 549,36; 3899,592;  451,274;10419,858;34,59185
 549,94; 3906,410;  404,739;10532,896;34,57362
 550,53; 3942,035;  409,890;10702,447;34,31746
 551,11; 3949,137;  370,504;10907,572;33,96232
 551,69; 4083,534;  382,967;11144,577;34,38675
 552,27; 4111,825;  340,429;11435,013;33,99312
 552,85; 4181,223;  342,273;11769,624;33,59440
 553,44; 4285,066;  334,121;12052,738;33,71512
 554,02; 4350,777;  341,505;12353,841;33,37629
 554,60; 4407,284;  290,889;12637,609;33,34000
 555,18; 4483,020;  317,044;13014,461;32,80963
 555,76; 4556,640;  293,966;13382,963;32,56685
 556,34; 4642,616;  301,811;13711,781;32,36999
 556,93; 4709,572;  288,351;14065,909;32,09002
 557,51; 4811,332;  273,580;14426,127;32,06315
 558,09; 4890,752;  289,736;14736,236;31,84866
 558,67; 4966,576;  295,656;15056,372;31,64427
 559,25; 5007,628;  294,733;15353,045;31,29763
 559,83; 5056,305;  278,116;15625,857;31,13285
 560,41; 5134,705;  277,426;16029,247;30,83630
 561,00; 5214,610;  287,656;16273,846;30,82006
 561,58; 5244,999;  283,965;16510,646;30,57331
 562,16; 5277,571;  269,350;16782,860;30,32802
 562,74; 5318,135;  261,351;17198,283;29,85655
 563,32; 5402,545;  253,578;17595,370;29,69109
 563,90; 5506,209;  282,348;17863,109;29,71351
 564,48; 5561,025;  285,811;18271,021;29,33084
 565,06; 5669,522;  278,271;18899,073;28,95284
 565,65; 5783,952;  278,884;19520,975;28,60951
 566,23; 5989,429;  320,425;20202,442;28,51323
 566,81; 6114,407;  265,118;20935,866;28,29742
 567,39; 6275,935;  288,655;21778,410;27,86109
 567,97; 6395,441;  298,041;22361,062;27,63629
 568,55; 6606,258;  316,501;23218,474;27,46382
 569,13; 6685,915;  273,425;23830,480;27,22110
 569,71; 6886,120;  280,581;24720,835;27,02729
 570,29; 7112,411;  316,736;25611,608;26,86582
 570,87; 7228,667;  316,428;26311,704;26,59037
 571,45; 7317,673;  299,656;26979,399;26,30467
 572,03; 7383,822;  269,500;27333,137;26,28738
 572,61; 7492,635;  264,271;28060,788;26,00457
 573,20; 7594,697;  299,810;28716,792;25,67087
 573,78; 7715,101;  295,886;29281,569;25,59614
 574,36; 7754,481;  301,732;29703,605;25,34787
 574,94; 7788,940;  351,192;30072,787;25,02473
 575,52; 7751,205;  302,037;30364,887;24,77865
 576,10; 7849,460;  356,422;30843,973;24,57737
 576,68; 7936,003;  342,885;31432,695;24,42317
 577,26; 8023,402;  370,805;32014,057;24,18398
 577,84; 8045,006;  374,886;32594,187;23,80598
 578,42; 8074,377;  421,500;32809,442;23,62879
 579,00; 8023,502;  379,117;32923,152;23,48936
 579,58; 7990,255;  401,500;33176,857;23,15384
 580,16; 7967,599;  388,422;33149,188;23,13492
 580,74; 7946,603;  383,345;33399,122;22,90801
 581,32; 7905,624;  388,654;33368,457;22,79265
 581,90; 7842,746;  412,346;33372,580;22,54353
 582,48; 7808,385;  413,653;33553,925;22,31343
 583,06; 7746,372;  419,192;33749,017;21,98385
 583,64; 7754,753;  401,346;33733,236;22,06118
 584,22; 7571,484;  412,959;33578,991;21,58390
 584,80; 7522,324;  426,961;33423,172;21,50357
 585,38; 7331,696;  433,118;32844,378;21,28451
 585,96; 7288,339;  402,039;32973,822;21,14192
 586,54; 7232,563;  433,344;33013,252;20,86936
 587,12; 7183,166;  392,883;33166,651;20,71865
 587,70; 7168,343;  413,578;33217,833;20,59113
 588,28; 7089,406;  404,499;33248,318;20,35362
 588,86; 7071,642;  393,345;33423,051;20,21906
 589,44; 7040,271;  390,189;33442,892;20,11963
 590,02; 7044,758;  387,728;33681,238;19,99498
 590,59; 6994,248;  368,498;33743,336;19,85253
 591,17; 7018,208;  368,033;34014,734;19,76472
 591,75; 6966,649;  357,727;34011,467;19,63800
 592,33; 7008,760;  366,342;34340,403;19,55144
 592,91; 6951,036;  313,572;34543,016;19,39109
 593,49; 6971,929;  329,186;34838,505;19,24913
 594,07; 6917,153;  335,494;35018,742;18,97648
 594,65; 6910,309;  353,960;35050,243;18,89640
 595,23; 6906,025;  344,036;35456,848;18,68830
 595,81; 6874,104;  327,343;35505,983;18,61004
 596,39; 6831,766;  323,958;35614,597;18,44061
 596,97; 6800,541;  337,187;35796,157;18,22770
 597,55; 6775,542;  305,651;35821,532;18,21689
 598,12; 6694,084;  291,494;35725,563;18,06903
 598,70; 6675,512;  303,264;35887,492;17,90751
 599,28; 6682,178;  316,110;36076,857;17,80183
 599,86; 6619,037;  298,110;36125,583;17,64268
 600,44; 6548,336;  280,033;36160,975;17,46973
 601,02; 6570,271;  321,492;36261,479;17,38670
 601,60; 6450,348;  314,957;36180,844;17,10648
 602,18; 6397,653;  282,648;36191,103;17,02943
 602,75; 6348,330;  280,343;36282,511;16,85451
 603,33; 6380,903;  305,341;36284,178;16,88649
 603,91; 6272,281;  293,262;36284,733;16,61232
 604,49; 6235,362;  313,571;36397,504;16,41116
 605,07; 6233,120;  324,957;36387,365;16,38316
 605,65; 6200,688;  328,648;36571,684;16,20184
 606,23; 6167,264;  411,652;36572,736;15,91659
 606,80; 6129,605;  467,958;36690,652;15,63011
 607,38; 6120,411;  519,339;36726,358;15,46957
 607,96; 6114,136;  591,035;36764,890;15,26821
 608,54; 6079,193;  658,648;36856,902;14,97460
 609,12; 6020,270;  665,420;36960,940;14,75347
 609,70; 6013,595;  727,956;37011,379;14,56764
 610,27; 5959,296;  725,882;36988,777;14,43187
 610,85; 5914,504;  749,880;37159,163;14,18491
 611,43; 5907,188;  754,725;37071,832;14,18742
 612,01; 5824,477;  703,727;36863,931;14,16129
 612,59; 5779,040;  703,110;36879,258;14,03115
 613,16; 5720,902;  661,113;36827,235;13,99041
 613,74; 5655,646;  621,110;36640,466;13,97731
 614,32; 5601,327;  569,802;36580,414;13,97234
 614,90; 5596,519;  511,111;36526,380;14,12015
 615,48; 5494,712;  448,113;36085,423;14,16100
 616,05; 5441,841;  419,344;36145,943;14,05814
 616,63; 5435,431;  416,960;36027,923;14,09249
 617,21; 5367,125;  402,036;35864,578;14,00094
 617,79; 5310,372;  384,727;35732,392;13,93485
 618,36; 5291,240;  397,880;35725,814;13,85125
 618,94; 5172,305;  330,728;35451,107;13,78566
 619,52; 5102,244;  360,883;35248,094;13,59054
 620,10; 5091,508;  346,881;35136,164;13,63818
 620,67; 5036,174;  356,652;35085,827;13,47432
 621,25; 5016,254;  371,496;34888,030;13,45662
 621,83; 4979,091;  353,343;34831,383;13,41650
 622,41; 4979,847;  388,651;34828,089;13,33121
 622,98; 4904,270;  363,576;34629,930;13,25117
 623,56; 4865,500;  358,345;34641,440;13,14687
 624,14; 4807,493;  345,572;34460,466;13,07910
 624,72; 4798,255;  341,267;34397,665;13,08708
 625,29; 4747,473;  316,345;34523,112;12,95395
 625,87; 4754,098;  363,035;34418,558;12,89383
 626,45; 4701,613;  321,576;34226,174;12,91871
 627,02; 4644,162;  331,804;34147,294;12,75261
 627,60; 4623,252;  310,648;34135,674;12,74974
 628,18; 4599,193;  291,343;34164,709;12,71752
 628,76; 4564,966;  304,037;34193,788;12,57291
 629,33; 4584,721;  337,267;34181,677;12,54994
 629,91; 4558,354;  320,574;34233,933;12,49590
 630,49; 4597,680;  326,190;34228,642;12,59935
 631,06; 4590,372;  314,345;34461,997;12,52217
 631,64; 4569,309;  317,653;34370,724;12,48538
 632,22; 4502,025;  283,269;34300,579;12,40179
 632,79; 4549,614;  307,654;34553,636;12,38674
 633,37; 4534,193;  282,111;34716,277;12,34844
 633,95; 4548,341;  281,884;34657,169;12,41141
 634,52; 4533,786;  268,344;34904,288;12,31508
 635,10; 4538,052;  274,035;34761,128;12,36410
 635,68; 4558,888;  286,423;35032,547;12,29624
 636,25; 4497,172;  265,962;34945,682;12,20082
 636,83; 4502,351;  252,652;35185,326;12,16540
 637,41; 4527,462;  272,654;35268,127;12,15817
 637,98; 4555,261;  292,039;35432,898;12,13181
 638,56; 4539,645;  270,886;35473,840;12,12614
 639,13; 4540,350;  263,268;35621,220;12,09652
 639,71; 4613,379;  309,191;35786,067;12,13238
 640,29; 4513,006;  232,575;35563,483;12,11526
 640,86; 4530,411;  252,421;35690,743;12,07165
 641,44; 4559,431;  261,652;35701,927;12,12682
 642,02; 4544,683;  294,344;35647,418;12,02254
 642,59; 4517,165;  261,575;35761,140;11,98772
 643,17; 4537,955;  265,113;35807,093;12,02196
 643,74; 4474,360;  244,190;35887,353;11,86811
 644,32; 4582,304;  291,113;35787,998;12,08892
 644,89; 4535,863;  278,652;35761,027;11,99810
 645,47; 4563,806;  297,652;35871,826;11,99228
 646,05; 4543,827;  274,190;35712,471;12,04809
 646,62; 4525,001;  279,113;35676,578;11,99489
 647,20; 4540,176;  287,344;35922,453;11,93439
 647,77; 4493,427;  251,497;35687,560;11,97066
 648,35; 4479,679;  242,421;35620,359;11,97712
 648,92; 4503,853;  272,728;35657,081;11,95762
 649,50; 4479,643;  236,036;35543,033;12,01917
 650,08; 4477,048;  242,574;35563,371;11,98861
 650,65; 4514,607;  249,189;35750,246;12,01490
 651,23; 4572,858;  229,189;36475,430;11,98378
 651,80; 4689,571;  236,651;37384,767;11,98693
 652,38; 4742,592;  261,035;37810,489;11,93508
 652,95; 4771,459;  236,805;38142,211;11,96308
 653,53; 4813,941;  255,958;38369,625;11,95892
 654,10; 4884,038;  285,112;38505,732;12,03258
 654,68; 4846,444;  242,881;38391,530;12,06743
 655,25; 4853,310;  229,958;38472,098;12,08968
 655,83; 4874,562;  235,958;38600,513;12,09086
 656,40; 4908,582;  276,189;38551,850;12,10271
 656,98; 4877,064;  248,497;38455,803;12,11435
 657,55; 4883,623;  250,650;38292,063;12,17876
 658,13; 4859,875;  246,112;37999,477;12,22080
 658,70; 4797,280;  268,958;37559,737;12,14328
 659,28; 4732,685;  235,727;36783,382;12,30437
 659,85; 4638,783;  254,342;36035,027;12,25365
 660,43; 4687,496;  277,958;36030,057;12,33365
 661,00; 4681,285;  240,727;36215,933;12,34339
 661,58; 4732,383;  242,034;36567,655;12,36138
 662,15; 4756,865;  230,111;36774,915;12,38686
 662,73; 4880,116;  301,111;37023,791;12,46915
 663,30; 4833,599;  253,111;37152,820;12,41334
 663,88; 4894,465;  250,265;37338,465;12,52204
 664,45; 4922,947;  239,034;37564,033;12,54900
 665,03; 4926,660;  243,419;37844,063;12,45522
 665,60; 5093,527;  310,573;38273,015;12,59917
 666,17; 5066,471;  242,419;38408,584;12,63960
 666,75; 5101,491;  243,342;38750,767;12,61614
 667,32; 5202,358;  264,111;39052,027;12,73141
 667,90; 5203,302;  255,572;39303,595;12,67088
 668,47; 5293,938;  260,880;39598,779;12,79442
 669,05; 5293,497;  239,649;39886,270;12,74723
 669,62; 5302,441;  223,187;39949,761;12,78553
 670,19; 5384,769;  235,495;40137,252;12,90488
 670,77; 5408,789;  243,495;40239,897;12,91440
 671,34; 5412,733;  231,572;40281,542;12,93674
 671,92; 5479,061;  235,726;40545,649;13,00756
 672,49; 5521,313;  255,033;40422,755;13,11072
 673,06; 5515,026;  208,110;40549,785;13,15492
 673,64; 5508,892;  233,649;40533,968;13,08983
 674,21; 5532,605;  223,879;40409,844;13,21040
 674,79; 5627,549;  251,418;40653,258;13,30665
 675,36; 5632,800;  253,187;40782,365;13,27343
 675,93; 5640,667;  224,494;40695,779;13,38275
 676,51; 5694,841;  247,571;40935,808;13,38783
 677,08; 5732,477;  243,494;40976,761;13,47543
 677,65; 5771,267;  242,802;41061,867;13,54383
 678,23; 5828,903;  245,263;41205,589;13,63182
 678,80; 5847,924;  235,110;41314,157;13,66345
 679,38; 5911,021;  236,725;41546,110;13,73610
 679,95; 5972,350;  251,263;41724,524;13,79464
 680,52; 6026,293;  234,725;42019,092;13,86061
 681,10; 6095,391;  253,417;42325,430;13,88565
 681,67; 6146,950;  242,802;42639,152;13,92608
 682,24; 6187,201;  217,955;42678,258;14,05842
 682,82; 6295,299;  228,340;43234,980;14,10703
 683,39; 6372,781;  274,186;43572,702;14,08500
 683,96; 6413,417;  246,263;43731,731;14,18210
 684,54; 6446,591;  227,647;44190,453;14,14592
 685,11; 6553,689;  263,878;44424,867;14,24291
 685,68; 6653,863;  234,263;44951,897;14,35586
 686,25; 6638,269;  231,493;44886,080;14,34741
 686,83; 6727,212;  242,724;45057,418;14,46956
 687,40; 6768,540;  222,570;45337,909;14,50941
 687,97; 6869,253;  266,955;45837,092;14,48821
 688,55; 6883,812;  220,955;45829,506;14,60879
 689,12; 6937,141;  203,108;46015,613;14,69911
 689,69; 6959,931;  218,493;46219,104;14,65510
 690,26; 7040,490;  228,801;46253,211;14,80017
 690,84; 7111,433;  223,878;46523,625;14,87601
 691,41; 7182,146;  246,262;46526,270;14,98678
 691,98; 7215,013;  243,493;46847,222;14,95915
 692,56; 7220,495;  229,877;46851,098;14,99450
 693,13; 7359,516;  276,877;46934,897;15,17989
 693,70; 7371,459;  251,339;47118,311;15,19219
 694,27; 7373,634;  227,723;47175,110;15,22110
 694,84; 7423,424;  241,108;47299,447;15,26258
 695,42; 7540,060;  272,031;47291,938;15,45734
 695,99; 7569,926;  237,415;47514,199;15,50975
 696,56; 7575,024;  227,569;47488,536;15,54656
 697,13; 7714,044;  247,646;47876,335;15,67626
 697,71; 7749,142;  225,261;47794,518;15,81669
 698,28; 7813,855;  233,569;48232,163;15,79272
 698,85; 7833,952;  203,107;48211,116;15,89494
 699,42; 7938,511;  214,415;48290,607;16,06636
 699,99; 7955,917;  248,953;48387,406;16,00999
 700,57; 8039,706;  240,723;48522,820;16,15295
 701,14; 8021,727;  230,876;48664,311;16,08569
 701,71; 8140,594;  254,107;48923,572;16,20418
 702,28; 8139,845;  236,953;48961,832;16,21942
 702,85; 8223,020;  246,030;48944,861;16,38025
 703,43; 8286,579;  258,492;49104,814;16,43540
 704,00; 8332,292;  269,030;49315,613;16,44001
 704,57; 8357,312;  255,645;49350,258;16,50215
 705,14; 8477,025;  281,261;49627,826;16,60858
 705,71; 8491,584;  282,645;49651,086;16,62791
 706,28; 8464,297;  265,107;49545,039;16,63799
 706,86; 8613,087;  295,107;49763,915;16,81460
 707,43; 8646,569;  299,953;49682,252;16,90204
 708,00; 8647,974;  290,260;49721,743;16,90767
 708,57; 8669,918;  260,491;49728,850;16,99961
 709,14; 8766,092;  285,722;49725,418;17,15296
 709,71; 8847,344;  270,106;49794,216;17,31932
 710,28; 8893,749;  268,491;49989,631;17,34727
 710,86; 8917,000;  274,952;50242,737;17,29524
 711,43; 9038,482;  276,721;50189,074;17,55429
 712,00; 8999,426;  255,337;50279,873;17,47960
 712,57; 9148,524;  271,568;50316,364;17,73802
 713,14; 9161,390;  254,106;50489,855;17,73097
 713,71; 9182,334;  258,644;50420,270;17,78987
 714,28; 9257,124;  252,875;50446,068;17,93918
 714,85; 9218,221;  231,490;50287,021;17,95352
 715,42; 9332,242;  241,183;50502,512;18,08758
 716,00; 9409,493;  305,644;50594,696;18,10304
 716,57; 9451,283;  235,336;50716,879;18,25607
 717,14; 9457,534;  237,952;50675,063;18,27936
 717,71; 9495,170;  219,721;50647,554;18,39351
 718,28; 9592,883;  265,336;50841,045;18,44274
 718,85; 9611,596;  221,644;50863,074;18,54204
 719,42; 9694,001;  258,644;50937,258;18,61803
 719,99; 9677,176;  230,874;50775,980;18,68886
 720,56; 9774,120;  262,413;51089,932;18,71369
 721,13; 9883,063;  243,413;51058,885;18,96991
 721,70; 9854,468;  234,413;51143,684;18,89647
 722,27; 9952,258;  252,490;51067,867;19,08825
 722,84;10063,740;  293,566;51268,589;19,16659
 723,41;10033,992;  229,874;51182,157;19,24176
 723,98;10098,320;  237,566;51412,725;19,26863
 724,55;10210,494;  268,412;51538,678;19,39152
 725,12;10186,746;  202,028;51448,631;19,48367
 725,69;10282,690;  240,489;51625,122;19,54320
 726,27;10311,402;  245,181;51676,536;19,57215
 726,84;10435,654;  248,412;52006,258;19,68251
 727,41;10495,521;  247,104;52031,980;19,79037
 727,98;10563,156;  260,258;52252,702;19,81615
 728,55;10646,639;  274,181;52214,116;19,97010
 729,12;10671,275;  224,335;52299,607;20,06123
 729,69;10726,680;  262,796;52527,944;20,02077
 730,26;10872,393;  262,258;52650,666;20,25283
 730,82;10892,413;  237,719;52555,003;20,36553
 731,39;10942,511;  247,873;52581,418;20,43553
 731,96;11065,685;  232,027;52889,678;20,57376
 732,53;11202,937;  249,104;53117,477;20,71907
 733,10;11220,650;  266,027;53226,429;20,68455
 733,67;11344,670;  263,104;53400,690;20,85448
 734,24;11277,614;  245,257;52908,565;20,94885
 734,81;11379,634;  269,642;53140,903;21,01329
 735,38;11417,501;  250,334;52939,394;21,19447
 735,95;11391,676;  236,565;52799,346;21,22245
 736,52;11452,312;  257,257;52922,607;21,25696
 737,09;11474,024;  259,796;52732,713;21,37146
 737,66;11577,968;  294,180;52873,666;21,46044
 738,23;11640,143;  234,334;52905,849;21,65460
 738,80;11780,317;  299,103;53173,879;21,71397
 739,37;11883,645;  287,795;53290,986;21,87765
 739,94;11900,897;  260,949;53361,861;21,92043
 740,51;12006,379;  348,795;53436,968;21,95891
 741,07;11990,322;  254,872;53364,459;22,09667
 741,64;12095,958;  285,718;53624,488;22,14194
 742,21;12093,825;  250,410;53638,980;22,18343
 742,78;12122,461;  229,333;53507,471;22,32272
 743,35;12257,174;  245,410;53765,808;22,44334
 743,92;12311,810;  286,333;53888,761;22,43457
 744,49;12433,369;  271,487;53758,252;22,73811
 745,06;12407,928;  244,026;53612,127;22,79246
 745,63;12468,410;  218,795;53775,080;22,87241
 746,19;12502,123;  241,410;53687,494;22,94034
 746,76;12542,221;  252,795;53783,524;22,95770
 747,33;12601,087;  249,948;53691,630;23,11143
 747,90;12729,031;  263,410;54007,814;23,19427
 748,47;12765,590;  249,487;53841,843;23,35427
 749,04;12838,765;  260,102;53843,950;23,47473
 749,61;12844,401;  280,871;53809,056;23,47087
 750,17;12929,960;  254,102;53820,932;23,66363
 750,74;12964,826;  262,486;53782,885;23,73364
 751,31;12874,462;  235,333;53691,991;23,64370
 751,88;12944,560;  220,409;53624,406;23,82621
 752,45;13066,350;  256,332;53736,435;23,95287
 753,02;13055,909;  260,794;53549,003;24,01116
 753,58;13041,391;  240,948;53408,571;24,07564
 754,15;13154,488;  243,871;53670,909;24,16495
 754,72;13115,740;  239,486;53414,246;24,21497
 755,29;13126,683;  224,486;53226,275;24,34295
 755,86;13234,935;  257,871;53478,228;24,38365
 756,42;13287,802;  258,870;53184,488;24,61744
 756,99;13318,361;  220,024;53271,441;24,68989
 757,56;13375,381;  237,563;53223,548;24,79489
 758,13;13357,786;  204,486;53189,039;24,82478
 758,70;13518,038;  235,024;53195,299;25,08109
 759,26;13497,674;  230,024;53252,021;25,02292
 759,83;13637,541;  224,562;53358,358;25,24378
 760,40;13662,638;  222,485;53172,080;25,38292
 760,97;13636,582;  205,947;53202,187;25,34262
 761,53;13606,525;  206,331;52920,601;25,42043
 762,10;13657,084;  205,639;52818,246;25,56696
 762,67;13736,182;  232,639;52917,275;25,63089
 763,24;13625,972;  185,947;52369,228;25,75542
 763,80;13804,839;  222,639;52600,565;25,93115
 764,37;13818,859;  220,793;52591,056;25,96524
 764,94;13771,418;  202,485;52081,086;26,15516
 765,50;13750,362;  205,793;52176,192;26,06208
 766,07;13960,306;  248,716;52227,145;26,37938
 766,64;13916,172;  221,408;51820,021;26,54095
 767,21;13955,654;  220,100;51739,204;26,66109
 767,77;13978,290;  241,100;51631,157;26,73122
 768,34;14019,388;  243,715;51666,417;26,78909
 768,91;14020,947;  249,715;51455,755;26,89376
 769,47;14174,198;  245,715;51476,938;27,18749
 770,04;14134,450;  250,484;51394,583;27,14676
 770,61;14150,240;  231,792;51183,613;27,31688
 771,18;14180,952;  219,484;51009,181;27,48878
 771,74;14266,435;  240,023;51212,672;27,51753
 772,31;14282,301;  236,407;50905,317;27,72093
 772,88;14236,322;  211,638;50678,731;27,78976
 773,44;14219,650;  221,330;50409,607;27,89161
 774,01;14265,825;  242,099;50594,559;27,85112
 774,58;14263,691;  222,561;50220,127;28,08363
 775,14;14371,866;  212,715;50321,926;28,25658
 775,71;14376,886;  217,945;50299,263;28,27190
 776,27;14429,138;  279,791;50169,370;28,36133
 776,84;14510,774;  297,253;50283,861;28,43466
 777,41;14485,640;  237,022;50161,583;28,54030
 777,97;14364,892;  219,791;49815,766;28,52066
 778,54;14425,836;  241,176;49909,257;28,55890
 779,11;14481,087;  251,714;49953,287;28,62962
 779,67;14518,031;  216,483;49859,009;28,80906
 780,24;14539,436;  240,406;49639,654;28,94584
 780,80;14572,764;  250,176;49599,684;29,02276
 781,37;14550,631;  236,560;49598,098;28,99843
 781,94;14579,190;  236,022;49311,897;29,22652
 782,50;14671,364;  247,560;49340,849;29,38040
 783,07;14701,693;  266,252;49428,033;29,36314
 783,63;14705,405;  228,560;49233,754;29,54145
 784,20;14736,272;  258,944;49055,861;29,66853
 784,77;14766,754;  242,790;48950,044;29,81889
 785,33;14711,237;  218,637;48648,612;29,92485
 785,90;14797,949;  235,790;48691,181;30,05271
 786,46;14823,893;  257,098;48531,749;30,17483
 787,03;14823,529;  228,329;48281,086;30,37328
 787,59;14836,165;  226,636;48257,192;30,41716
 788,16;14795,570;  251,713;48230,760;30,31293
 788,73;14824,052;  247,713;48097,405;30,46276
 789,29;14769,765;  239,482;47772,204;30,56901
 789,86;14838,324;  259,559;47716,388;30,72006
 790,42;14802,499;  243,098;47497,802;30,81048
 790,99;14743,750;  249,944;47204,601;30,86767
 791,55;14745,155;  230,867;47173,938;30,91892
 792,12;14861,561;  259,020;47227,891;31,08983
 792,68;14866,735;  241,713;46874,228;31,36228
 793,25;14781,833;  249,559;46662,334;31,31093
 793,81;14818,392;  305,020;46360,979;31,51247
 794,38;14651,181;  215,174;46105,470;31,45765
 794,94;14690,894;  232,636;46097,577;31,52355
 795,51;14738,684;  250,328;45749,222;31,84332
 796,07;14648,551;  249,328;45582,636;31,76301
 796,64;14706,879;  259,866;45708,820;31,78734
 797,20;14640,669;  245,020;45204,541;32,01913
 797,77;14552,305;  225,789;44912,109;32,06018
 798,33;14582,556;  244,251;44710,831;32,24513
 798,90;14621,500;  265,251;44622,092;32,36536
 799,46;14583,982;  241,404;44230,814;32,60462
 800,03;14559,387;  255,020;44061,382;32,65363
 800,59;14552,639;  261,558;44029,104;32,65223
 801,15;14473,429;  247,404;43748,056;32,70301
 801,72;14515,834;  243,327;43437,624;33,04257
 802,28;14596,931;  273,712;43158,808;33,39906
 802,85;14445,490;  250,481;42935,068;33,25559
 803,41;14456,665;  249,096;42845,636;33,35381
 803,98;14350,685;  235,635;42346,589;33,51872
 804,54;14268,706;  242,865;42141,541;33,47562
 805,11;14275,957;  255,942;41977,956;33,60340
 805,67;14296,824;  262,557;41868,062;33,73175
 806,23;14175,998;  251,404;41457,476;33,79258
 806,80;14205,865;  282,711;41370,967;33,88597
 807,36;14177,501;  283,250;41398,459;33,79346
 807,93;14223,445;  282,711;41105,873;34,14908
 808,49;14107,850;  242,480;40757,210;34,22303
 809,05;14089,794;  233,096;40553,086;34,36682
 809,62;14068,661;  269,480;40429,885;34,36016
 810,18;14125,450;  272,480;40416,606;34,50809
 810,74;14046,856;  230,557;40118,944;34,63740
 811,31;14047,030;  239,634;39835,512;34,87079
 811,87;14103,974;  257,172;39828,157;34,99231
 812,44;14120,302;  284,172;39843,032;34,97606
 813,00;14034,861;  216,941;39520,677;35,15676
 813,56;14172,497;  263,095;39573,630;35,38340
 814,13;14224,825;  250,480;39484,429;35,61799
 814,69;14184,154;  255,249;39371,535;35,60896
 815,25;14117,559;  232,633;38833,565;35,97044
 815,82;14136,579;  262,556;38820,056;35,98268
 816,38;14107,292;  289,941;38698,855;35,97433
 816,94;14011,928;  236,095;38394,115;36,10207
 817,51;14003,333;  237,018;38245,453;36,21911
 818,07;13946,431;  229,248;37901,482;36,41192
 818,63;13957,836;  239,479;37720,204;36,60110
 819,20;13945,011;  246,633;37663,849;36,60983
 819,76;13842,339;  232,710;37320,571;36,69564
 820,32;13775,052;  274,864;37205,908;36,55512
 820,89;13721,688;  256,864;36971,553;36,67422
 821,45;13605,478;  232,940;36706,352;36,66380
 822,01;13620,037;  259,402;36444,305;36,92323
 822,57;13541,134;  267,709;36393,796;36,74194
 823,14;13541,155;  231,786;36122,210;37,08334
 823,70;13493,637;  231,709;35792,547;37,29363
 824,26;13467,888;  228,709;35697,961;37,32579
 824,82;13447,217;  271,171;35547,683;37,35076
 825,39;13374,776;  234,248;35238,713;37,53958
 825,95;13358,181;  255,324;35304,819;37,38387
 826,51;13315,048;  258,171;34908,541;37,68178
 827,08;13403,914;  283,863;34972,417;37,82242
 827,64;13391,320;  268,632;34870,062;37,92528
 828,20;13199,956;  230,401;34565,092;37,77391
 828,76;13304,207;  263,786;34537,813;38,04753
 829,32;13250,766;  278,401;34378,535;38,04198
 829,89;13227,248;  224,324;34339,642;38,11462
 830,45;13224,192;  249,478;34210,671;38,20453
 831,01;13232,905;  239,401;34096,239;38,37778
 831,57;13219,848;  245,170;33953,423;38,49110
 832,14;13235,100;  236,862;34052,837;38,43816
 832,70;13175,889;  231,093;33772,020;38,59403
 833,26;13139,602;  206,862;33634,435;38,68884
 833,82;13203,700;  238,401;33516,157;38,96086
 834,38;13257,644;  227,016;33494,109;39,16972
 834,95;13170,203;  224,862;33368,677;39,05809
 835,51;13143,300;  202,708;33233,322;39,17757
 836,07;13204,859;  234,631;33340,275;39,17830
 836,63;13271,187;  260,093;33349,074;39,32153
 837,19;13233,208;  250,169;33122,180;39,49572
 837,75;13138,844;  218,092;32915,441;39,51621
 838,32;13222,557;  259,554;33075,624;39,50200
 838,88;13269,731;  253,477;32989,884;39,76079
 839,44;13284,367;  251,938;32906,529;39,90994
 840,00;13297,080;  240,554;32894,482;39,98455
 840,56;13225,101;  223,631;32564,819;40,20097
 841,12;13186,737;  227,323;32663,003;39,95419
 841,68;13172,296;  215,323;32403,263;40,25412
 842,25;13273,778;  231,784;32316,985;40,64800
 842,81;13167,952;  219,707;32089,553;40,62852
 843,37;13231,435;  209,630;32164,198;40,75100
 843,93;13248,148;  228,553;32018,689;40,95482
 844,49;13359,630;  250,784;32072,257;41,19497
 845,05;13305,650;  205,553;31911,056;41,31806
 845,61;13363,132;  248,476;31973,624;41,33836
 846,17;13312,076;  220,168;31762,192;41,50624
 846,73;13346,712;  236,861;31652,914;41,72978
 847,29;13322,579;  215,399;31605,020;41,75641
 847,86;13320,446;  219,553;31439,127;41,96371
 848,42;13306,928;  211,476;31339,003;42,07033
 848,98;13315,871;  238,168;31266,878;42,14711
 849,54;13335,046;  218,860;31266,677;42,24511
 850,10;13344,913;  240,860;31207,553;42,31660
 850,66;13295,010;  213,476;31088,429;42,36941
 851,22;13416,261;  213,476;31041,381;42,82738
 851,78;13460,436;  258,014;31071,949;42,84562
 852,34;13336,149;  234,552;30880,133;42,75199
 852,90;13351,092;  224,629;30745,239;43,00852
 853,46;13284,344;  218,937;30529,961;43,10447
 854,02;13293,903;  231,552;30515,298;43,13321
 854,58;13244,231;  222,168;30250,943;43,36528
 855,14;13183,329;  210,398;30227,435;43,21856
 855,70;13233,811;  194,014;30092,695;43,61329
 856,26;13239,754;  246,475;30004,032;43,66380
 856,82;13209,160;  223,090;29962,216;43,66661
 857,38;13205,334;  247,013;29757,707;43,91059
 857,94;13269,278;  231,013;29657,582;44,30780
 858,50;13123,606;  235,552;29474,843;44,07786
 859,06;13053,704;  223,936;29393,180;43,98389
 859,62;13091,878;  235,398;29293,748;44,24367
 860,18;13079,052;  230,167;29184,009;44,37714
 860,74;13052,381;  193,244;29066,653;44,53626
 861,30;13024,017;  211,090;28869,145;44,70969
 861,86;13201,268;  257,321;28889,405;45,20784
 862,42;13067,827;  231,551;28706,665;45,07893
 862,98;13114,617;  248,859;28710,080;45,20452
 863,54;13010,638;  231,551;28431,032;45,31674
 864,10;13047,043;  237,474;28539,139;45,26083
 864,66;12988,756;  200,936;28267,476;45,56251
 865,22;12966,392;  221,628;28170,044;45,60102
 865,78;13006,335;  240,474;28038,458;45,92369
 866,34;13001,048;  219,782;28023,411;45,96978
 866,90;12973,915;  228,474;27878,210;46,09607
 867,45;12926,320;  241,935;27686,393;46,21838
 868,01;12908,725;  234,012;27534,730;46,42630
 868,57;12807,823;  221,551;27373,145;46,35556
 869,13;12792,997;  214,704;27247,251;46,53018
 869,69;12793,710;  221,935;27104,511;46,76551
 870,25;12781,500;  206,858;26997,772;46,93622
 870,81;12762,982;  221,243;26988,648;46,85452
 871,37;12800,849;  232,012;26889,139;47,15001
 871,93;12727,793;  241,012;26720,707;47,15606
 872,49;12639,506;  248,781;26498,121;47,20395
 873,04;12591,911;  217,781;26431,766;47,20431
 873,60;12648,393;  205,396;26254,257;47,76791
 874,16;12634,260;  231,165;26145,440;47,86202
 874,72;12612,875;  227,704;26100,825;47,86887
 875,28;12562,183;  233,781;26066,979;47,72310
 875,84;12643,413;  228,550;25993,671;48,18477
 876,40;12689,875;  227,012;25988,979;48,37699
 876,95;12667,260;  236,858;25908,210;48,42130
 877,51;12712,106;  258,858;25912,902;48,54302
 878,07;12733,490;  264,858;25860,594;48,71371
 878,63;12777,721;  223,781;25892,902;48,90678
 879,19;12735,875;  247,627;25905,133;48,67288
 879,75;12834,029;  234,242;25911,671;49,06950
 880,30;12906,490;  228,396;25854,133;49,47407
 880,86;13008,413;  266,319;26069,902;49,38110
 881,42;12988,260;  218,473;26046,287;49,44200
 881,98;13115,644;  244,858;26133,363;49,71622
 882,54;13169,567;  226,550;26170,979;49,88746
 883,09;13331,106;  237,935;26301,133;50,23624
 883,65;13353,337;  222,088;26398,979;50,16351
 884,21;13599,260;  254,473;26593,902;50,66468
 884,77;13606,260;  208,473;26574,902;50,81381
 885,32;13765,875;  215,012;26775,287;51,01929
 885,88;13897,875;  266,858;26870,517;51,23738
 886,44;13962,029;  225,473;27015,979;51,27397
 887,00;14040,798;  254,242;26957,363;51,62901
 887,56;14078,490;  228,550;27121,440;51,50038
 888,11;14226,413;  233,242;27042,902;52,19451
 888,67;14403,644;  268,858;27249,748;52,38814
 889,23;14378,798;  246,165;27262,979;52,31051
 889,79;14299,490;  218,935;27097,133;52,38653
 890,34;14313,183;  236,627;27066,748;52,46549
 890,90;14494,952;  296,319;27205,363;52,76528
 891,46;14464,875;  230,935;27062,902;53,04844
 892,01;14431,183;  245,242;27052,979;52,91734
 892,57;14423,413;  270,781;27045,748;52,85770
 893,13;14318,260;  229,935;26900,671;52,82316
 893,69;14394,260;  223,012;26849,594;53,22218
 894,24;14351,644;  239,396;26748,056;53,23637
 894,80;14252,721;  251,781;26558,825;53,22126
 895,36;14168,106;  238,704;26481,517;53,07892
 895,91;14205,875;  242,627;26272,440;53,64329
 896,47;14245,260;  241,935;26237,133;53,86889
 897,03;14089,798;  230,088;26050,902;53,67650
 897,58;14140,721;  238,319;25910,056;54,15451
 898,14;14046,337;  250,550;25784,517;54,02915
 898,70;14020,721;  206,396;25590,517;54,42113
 899,25;14030,644;  237,550;25618,440;54,34441
 899,81;13922,183;  244,781;25371,133;54,43449
 900,37;13876,721;  211,473;25252,517;54,57140
 900,92;13889,490;  232,935;25261,979;54,56283
 901,48;13857,721;  227,012;25017,287;54,98410
 902,03;13877,413;  228,935;24954,594;55,19966
 902,59;13793,875;  226,396;24869,210;55,05653
 903,15;13849,875;  251,858;24651,979;55,72930
 903,70;13718,644;  242,627;24483,056;55,59315
 904,26;13664,183;  229,242;24367,056;55,65931
 904,82;13736,490;  231,550;24313,056;56,08013
 905,37;13636,644;  235,012;24265,210;55,76996
 905,93;13622,490;  227,935;24071,594;56,17659
 906,48;13649,337;  238,165;23998,210;56,44422
 907,04;13612,183;  259,550;23899,594;56,48311
 907,60;13521,106;  237,242;23765,210;56,45989
 908,15;13482,721;  226,012;23713,671;56,44117
 908,71;13440,875;  261,396;23694,979;56,24184
 909,26;13400,183;  217,088;23476,825;56,67775
 909,82;13342,721;  256,012;23332,287;56,71067
 910,37;13402,490;  275,550;23361,594;56,86093
 910,93;13266,337;  232,165;23077,363;57,05431
 911,48;13200,875;  216,473;22973,671;57,05624
 912,04;13204,183;  218,396;22902,825;57,24538
 912,60;13213,260;  235,550;22890,979;57,28300
 913,15;13106,721;  236,319;22679,594;57,34636
 913,71;13024,337;  221,781;22559,440;57,31377
 914,26;12984,106;  209,012;22501,517;57,30668
 914,82;13020,721;  244,858;22415,748;57,62449
 915,37;12982,952;  226,858;22301,210;57,78695
 915,93;12939,875;  268,781;22212,363;57,74396
 916,48;12921,721;  210,704;22139,594;57,96471
 917,04;12977,875;  246,473;21957,287;58,64083
 917,59;12974,337;  258,858;21958,056;58,59884
 918,15;12846,644;  203,781;21745,056;58,69134
 918,70;12875,029;  224,627;21682,902;58,95349
 919,26;12817,875;  244,550;21593,825;58,89345
 919,81;12778,490;  219,473;21430,440;59,21002
 920,37;12802,029;  227,858;21291,671;59,69561
 920,92;12801,952;  241,858;21223,902;59,86116
 921,48;12720,029;  218,012;21042,440;60,03534
 922,03;12701,567;  221,704;20979,133;60,12240
 922,59;12635,644;  225,704;20882,825;60,07585
 923,14;12620,490;  219,704;20732,902;60,45272
 923,69;12616,029;  239,550;20645,287;60,65196
 924,25;12679,875;  244,858;20659,902;60,91105
 924,80;12580,183;  234,627;20426,133;61,14232
 925,36;12599,721;  225,550;20359,671;61,45871
 925,91;12490,952;  231,858;20302,671;61,07921
 926,47;12447,029;  212,704;20174,287;61,28935
 927,02;12509,413;  277,319;20149,594;61,55357
 927,57;12416,798;  225,242;19922,287;61,89536
 928,13;12349,029;  217,935;19933,056;61,53193
 928,68;12366,567;  223,704;19834,517;61,91922
 929,24;12222,644;  208,550;19673,210;61,72260
 929,79;12159,413;  215,781;19607,440;61,59160
 930,34;12135,721;  224,319;19485,671;61,84094
 930,90;12197,337;  222,012;19445,825;62,29422
 931,45;12140,029;  235,704;19407,517;62,09285
 932,01;12127,721;  235,550;19300,363;62,37759
 932,56;12091,490;  247,704;19136,056;62,70418
 933,11;12064,721;  251,627;19143,979;62,52845
 933,67;12009,413;  223,012;18905,440;63,08817
 934,22;11924,337;  241,242;18826,440;62,86236
 934,77;11940,183;  251,858;18770,517;63,11647
 935,33;11815,260;  240,012;18690,979;62,73518
 935,88;11776,798;  238,473;18628,979;62,74066
 936,43;11748,106;  227,473;18482,671;63,10878
 936,99;11668,183;  235,858;18417,287;62,87913
 937,54;11586,029;  218,627;18238,287;63,08333
 938,09;11636,952;  243,935;18262,825;63,22818
 938,65;11490,106;  231,935;18104,056;62,99292
 939,20;11517,567;  217,473;17990,748;63,57913
 939,75;11450,952;  217,396;17863,671;63,65964
 940,31;11375,875;  210,319;17801,902;63,47101
 940,86;11342,413;  235,473;17776,671;63,31917
 941,41;11402,952;  288,088;17676,363;63,92160
 941,96;11266,875;  214,319;17560,594;63,71717
 942,52;11249,183;  226,781;17488,133;63,85596
 943,07;11170,875;  209,627;17355,902;63,92787
 943,62;11137,413;  226,088;17279,363;63,98375
 944,18;11105,106;  203,550;17192,902;64,16699
 944,73;11142,029;  228,935;17171,671;64,41164
 945,28;11017,029;  194,704;16973,902;64,49846
 945,83;11131,567;  227,935;16964,056;65,15030
 946,39;11168,413;  214,012;16867,363;65,77896
 946,94;11096,721;  239,627;16808,594;65,52668
 947,49;11085,413;  224,242;16738,979;65,76654
 948,04;11058,337;  248,165;16722,440;65,61849
 948,59;11056,106;  241,165;16624,517;66,01177
 949,15;11031,106;  209,396;16515,748;66,36499
 949,70;10903,721;  227,858;16417,979;65,94060
 950,25;10869,798;  234,627;16367,133;65,92386
 950,80;10787,183;  195,627;16246,363;65,98797
 951,36;10826,798;  194,550;16162,056;66,58678
 951,91;10827,875;  239,627;16190,748;66,37933
 952,46;10685,644;  206,550;16004,363;66,33256
 953,01;10749,183;  230,012;16067,363;66,42001
 953,56;10628,490;  201,935;15839,517;66,67626
 954,11;10674,721;  225,088;15861,979;66,82680
 954,67;10622,337;  224,858;15766,133;66,90235
 955,22;10583,490;  206,165;15624,056;67,30704
 955,77;10593,490;  238,704;15584,979;67,47427
 956,32;10563,183;  270,781;15534,825;67,42906
 956,87;10496,567;  214,242;15340,287;67,97762
 957,42;10437,337;  221,088;15266,748;67,90163
 957,98;10364,952;  214,088;15169,056;67,87620
 958,53;10367,490;  244,319;15200,671;67,68476
 959,08;10270,798;  204,165;15064,902;67,73980
 959,63;10278,952;  210,935;14956,517;68,27819
 960,18;10258,721;  239,242;14920,363;68,24737
 960,73;10185,413;  236,319;14811,671;68,25972
 961,28;10141,721;  203,473;14762,671;68,26096
 961,83;10185,106;  238,319;14727,594;68,64930
 962,39; 9994,337;  206,704;14604,671;67,97927
 962,94; 9986,106;  236,396;14539,902;68,16308
 963,49; 9917,106;  221,935;14471,671;68,03755
 964,04; 9929,183;  233,935;14397,056;68,45418
 964,59; 9784,490;  199,550;14269,594;68,12303
 965,14; 9846,721;  234,088;14254,440;68,56199
 965,69; 9804,183;  223,550;14103,902;69,02298
 966,24; 9796,029;  208,242;14028,902;69,37286
 966,79; 9736,106;  248,704;13949,594;69,24661
 967,34; 9601,183;  197,012;13817,056;69,04655
 967,89; 9600,490;  215,319;13801,825;69,07715
 968,44; 9536,413;  225,165;13715,363;69,02232
 968,99; 9503,875;  234,396;13675,979;68,96122
 969,55; 9481,567;  231,012;13621,517;69,08295
 970,10; 9372,413;  230,704;13482,287;68,98579
 970,65; 9383,721;  233,781;13449,517;69,23519
 971,20; 9295,952;  213,088;13262,825;69,60189
 971,75; 9173,260;  203,319;13181,671;69,11463
 972,30; 9237,875;  224,319;13149,748;69,73506
 972,85; 9089,260;  210,627;13040,979;69,20023
 973,40; 9038,952;  205,473;12896,210;69,60572
 973,95; 9048,260;  229,704;12894,363;69,63121
 974,50; 9027,260;  239,935;12837,517;69,75406
 975,05; 8919,490;  228,627;12762,056;69,34147
 975,60; 8902,798;  245,781;12681,363;69,61489
 976,15; 8853,029;  224,935;12563,056;69,93037
 976,70; 8835,490;  231,627;12477,748;70,25787
 977,25; 8769,644;  229,704;12451,902;69,87238
 977,80; 8737,952;  221,319;12288,133;70,57897
 978,35; 8611,567;  237,473;12182,748;70,10382
 978,89; 8625,260;  213,858;12077,210;70,90241
 979,44; 8597,337;  228,550;12054,440;70,76665
 979,99; 8433,260;  205,704;11932,979;70,15744
 980,54; 8451,721;  251,550;11826,902;70,84166
 981,09; 8387,183;  247,858;11796,825;70,47665
 981,64; 8323,413;  248,319;11650,825;70,81859
 982,19; 8335,413;  264,473;11606,363;71,16045
 982,74; 8278,029;  244,473;11431,440;71,81174
 983,29; 8169,952;  202,858;11261,825;72,04194
 983,84; 8127,337;  237,858;11213,748;71,88008
 984,39; 8134,183;  273,165;11161,671;72,19556
 984,94; 7963,490;  204,627;11014,671;71,77458
 985,49; 7995,260;  255,858;10982,287;72,15264
 986,03; 7949,183;  251,396;10928,210;72,09816
 986,58; 7831,721;  275,781;10798,748;71,80428
 987,13; 7754,875;  237,473;10653,440;72,17190
 987,68; 7738,721;  252,704;10558,902;72,63607
 988,23; 7705,952;  248,704;10511,748;72,66117
 988,78; 7614,337;  222,858;10372,056;72,82821
 989,33; 7552,413;  250,858;10283,671;72,77675
 989,88; 7505,721;  260,396;10235,287;72,63564
 990,42; 7413,952;  222,165;10085,056;72,91764
 990,97; 7369,490;  230,012;10025,056;72,88868
 991,52; 7324,183;  259,088; 9991,902;72,59046
 992,07; 7289,567;  258,396; 9838,902;73,39040
 992,62; 7243,875;  243,396; 9749,594;73,64121
 993,17; 7208,490;  241,165; 9634,748;74,17111
 993,71; 7160,337;  238,165; 9592,056;74,00312
 994,26; 7038,029;  219,704; 9417,363;74,13109
 994,81; 7036,106;  252,781; 9395,594;74,19297
 995,36; 6943,798;  220,704; 9266,902;74,31956
 995,91; 6906,875;  237,550; 9228,363;74,17933
 996,45; 6881,875;  231,935; 9077,825;75,17548
 997,00; 6755,721;  215,627; 8945,363;74,91743
 997,55; 6713,952;  232,473; 8941,517;74,42239
 998,10; 6677,337;  259,627; 8871,363;74,52283
 998,65; 6619,490;  234,088; 8774,440;74,76743
 999,19; 6542,567;  250,396; 8650,594;74,90503
 999,74; 6511,721;  267,627; 8519,671;75,66724
1000,29; 6465,952;  241,242; 8433,056;75,98696
1000,84; 6339,490;  237,550; 8336,825;75,33934
1001,38; 6335,413;  243,858; 8279,287;75,80872
1001,93; 6314,260;  257,858; 8192,979;76,32400
1002,48; 6191,183;  223,319; 8066,902;76,08594
1003,03; 6163,260;  243,935; 8076,517;75,57309
1003,57; 6100,644;  253,473; 7938,056;76,08964
1004,12; 6068,106;  269,473; 7842,056;76,57404
1004,67; 5976,106;  234,627; 7742,748;76,47025
1005,22; 5911,721;  227,935; 7622,594;76,86340
1005,76; 5826,952;  228,088; 7538,902;76,58332
1006,31; 5839,260;  256,935; 7470,133;77,39043
1006,86; 5765,183;  224,242; 7364,133;77,60540
1007,40; 5616,567;  215,781; 7194,902;77,38491
1007,95; 5631,490;  245,088; 7157,979;77,91823
1008,50; 5511,798;  246,704; 7034,902;77,56247
1009,04; 5467,490;  241,396; 6970,363;77,66562
1009,59; 5371,721;  246,012; 6835,363;77,78777
1010,14; 5305,490;  225,396; 6756,056;77,78838
1010,68; 5234,413;  233,704; 6632,671;78,14870
1011,23; 5148,029;  239,165; 6571,902;77,51567
1011,78; 5104,875;  255,396; 6515,902;77,46145
1012,32; 5028,644;  242,396; 6367,902;78,13637
1012,87; 5012,183;  264,550; 6390,594;77,49916
1013,42; 4909,106;  228,858; 6235,056;77,92364
1013,96; 4936,029;  259,088; 6239,825;78,20007
1014,51; 4853,721;  201,012; 6179,363;77,82596
1015,06; 4838,183;  204,858; 6163,902;77,75282
1015,60; 4915,952;  268,550; 6183,902;78,56510
1016,15; 4845,875;  218,935; 6120,748;78,39862
1016,69; 4934,260;  227,935; 6171,517;79,18330
1017,24; 4909,413;  213,242; 6187,363;78,60857
1017,79; 4997,798;  265,242; 6200,594;79,73505
1018,33; 4982,875;  218,012; 6229,440;79,26341
1018,88; 5068,260;  249,396; 6306,979;79,55093
1019,42; 5110,413;  241,242; 6308,979;80,24691
1019,97; 5061,029;  223,550; 6250,825;80,25980
1020,51; 5102,490;  247,704; 6346,056;79,60817
1021,06; 5093,721;  216,088; 6302,440;80,14050
1021,61; 5065,337;  204,319; 6278,517;80,02731
1022,15; 5071,567;  191,319; 6222,440;80,91776
1022,70; 5092,337;  230,627; 6223,287;81,12775
1023,24; 5031,413;  219,165; 6167,363;80,90262
1023,79; 5057,106;  238,012; 6132,517;81,75570
1024,33; 5005,337;  234,088; 6114,056;81,14413
1024,88; 4932,490;  240,473; 6047,517;80,79872
1025,42; 4833,337;  238,088; 5916,133;80,93012
1025,97; 4779,721;  223,627; 5865,056;80,76135
1026,51; 4660,952;  196,473; 5691,287;81,24896
1027,06; 4667,413;  229,242; 5669,210;81,58452
1027,60; 4594,260;  234,858; 5587,825;81,43898
1028,15; 4550,798;  238,858; 5497,440;81,99815
1028,69; 4439,490;  205,550; 5368,440;82,00717
1029,24; 4440,260;  217,781; 5355,979;82,17820
1029,78; 4341,952;  208,627; 5243,133;82,09992
1030,33; 4273,413;  205,012; 5137,056;82,48916
1030,87; 4243,029;  214,935; 5072,287;82,92778
1031,42; 4158,952;  204,012; 5001,210;82,44272
1031,96; 4138,183;  232,319; 4935,594;83,04561
1032,51; 4108,721;  213,088; 4836,056;84,26693
1033,05; 4067,798;  228,858; 4802,902;83,92880
1033,60; 3944,490;  193,242; 4686,825;83,48012
1034,14; 3934,490;  209,165; 4629,825;84,27079
1034,69; 3909,106;  215,165; 4618,594;83,88782
1035,23; 3822,721;  219,165; 4502,440;84,13085
1035,77; 3760,798;  204,550; 4474,902;83,27763
1036,32; 3751,644;  191,473; 4362,979;85,34499
1036,86; 3673,413;  221,935; 4344,671;83,71815
1037,41; 3648,106;  228,242; 4289,210;84,21303
1037,95; 3573,644;  198,319; 4221,210;83,90298
1038,50; 3542,029;  204,935; 4156,440;84,45120
1039,04; 3525,029;  233,781; 4082,056;85,52528
1039,58; 3466,875;  203,704; 4017,133;85,57053
1040,13; 3443,567;  215,781; 3981,287;85,71987
1040,67; 3400,106;  251,858; 3947,748;85,18240
1041,21; 3346,183;  236,935; 3880,671;85,33131
1041,76; 3265,798;  199,319; 3814,979;84,81105
1042,30; 3249,798;  217,935; 3784,825;85,00019
1042,85; 3186,337;  217,473; 3720,825;84,74351
1043,39; 3167,029;  203,704; 3678,440;85,28201
1043,93; 3111,413;  241,473; 3651,056;84,17278
1044,48; 3080,029;  235,396; 3561,517;85,52403
1045,02; 3021,952;  220,088; 3490,979;85,66057
1045,56; 3004,490;  240,781; 3470,210;85,57890
1046,11; 2949,644;  233,319; 3417,056;85,31877
1046,65; 2911,798;  232,781; 3385,748;84,96813
1047,19; 2882,567;  215,012; 3315,056;86,04896
1047,74; 2852,952;  202,319; 3249,594;86,98370
1048,28; 2809,798;  225,858; 3227,671;86,07931
1048,82; 2768,413;  241,858; 3184,902;85,84838
1049,37; 2745,337;  235,088; 3159,133;85,84850
1049,91; 2703,106;  224,858; 3093,210;86,39972
1050,45; 2675,721;  238,550; 3095,363;85,31083
1050,99; 2649,875;  235,704; 2996,594;87,44176
1051,54; 2583,721;  219,396; 2960,902;86,24184
1052,08; 2610,644;  235,627; 2951,825;87,43903
1052,62; 2568,644;  232,088; 2915,133;87,08600
1053,16; 2495,490;  217,704; 2826,363;87,31636
1053,71; 2497,337;  230,012; 2812,825;87,78509
1054,25; 2457,721;  235,012; 2777,748;87,41407
1054,79; 2420,337;  245,473; 2732,056;87,46395
1055,33; 2376,029;  212,858; 2662,440;88,30774
1055,88; 2347,490;  228,935; 2631,517;88,17827
1056,42; 2328,490;  237,935; 2659,671;86,32466
1056,96; 2334,183;  233,165; 2586,440;89,28057
1057,50; 2263,106;  227,627; 2557,210;87,37526
1058,05; 2242,567;  236,550; 2508,210;88,30625
1058,59; 2227,567;  254,858; 2494,056;88,09893
1059,13; 2167,798;  219,627; 2408,133;89,01832
1059,67; 2149,952;  244,396; 2414,133;87,82429
1060,21; 2114,029;  233,550; 2383,056;87,48424
1060,76; 2106,798;  240,550; 2361,287;88,00000
1061,30; 2053,029;  255,550; 2324,517;86,87807
1061,84; 2020,567;  225,012; 2254,517;88,47256
1062,38; 1983,798;  223,012; 2208,363;88,68889
1062,92; 1997,337;  262,781; 2234,748;87,96068
1063,46; 1927,260;  246,396; 2200,210;86,02988
1064,01; 1911,413;  223,242; 2139,748;88,08589
1064,55; 1890,337;  243,165; 2121,825;87,67800
1065,09; 1860,260;  201,242; 2073,056;88,63155
1065,63; 1863,798;  269,165; 2086,440;87,74856
1066,17; 1844,490;  269,088; 2065,748;87,68505
1066,71; 1836,413;  250,088; 2025,287;89,36045
1067,25; 1788,260;  238,550; 1971,056;89,44903
1067,80; 1790,106;  261,473; 2004,594;87,69515
1068,34; 1783,106;  266,165; 1961,056;89,50080
1068,88; 1687,721;  233,396; 1915,287;86,46967
1069,42; 1717,798;  261,473; 1918,363;87,89507
1069,96; 1667,644;  225,242; 1869,517;87,72267
1070,50; 1713,567;  271,858; 1868,902;90,27362
1071,04; 1640,567;  227,088; 1824,517;88,48462
1071,58; 1637,567;  232,319; 1797,363;89,78967
1072,12; 1594,952;  238,550; 1786,748;87,61165
1072,66; 1609,183;  236,627; 1782,133;88,80949
1073,21; 1593,567;  255,319; 1765,210;88,63213
1073,75; 1574,106;  245,012; 1738,287;89,00532
1074,29; 1525,337;  242,781; 1717,287;86,98208
1074,83; 1541,721;  259,858; 1697,517;89,16321
1075,37; 1526,413;  252,319; 1665,287;90,17153
1075,91; 1506,567;  253,935; 1651,133;89,65319
1076,45; 1472,567;  253,627; 1642,517;87,76361
1076,99; 1473,337;  247,935; 1613,979;89,70441
1077,53; 1452,413;  227,165; 1572,902;91,04665
1078,07; 1429,106;  249,319; 1582,902;88,46745
1078,61; 1418,952;  241,165; 1543,363;90,44604
1079,15; 1379,260;  235,242; 1528,671;88,44841
1079,69; 1373,183;  248,550; 1539,517;87,11551
1080,23; 1380,413;  260,242; 1527,671;88,38138
1080,77; 1393,798;  287,319; 1499,979;91,24398
1081,31; 1319,721;  230,935; 1456,902;88,81041
1081,85; 1332,413;  264,473; 1459,287;89,38135
1082,39; 1294,798;  234,781; 1418,440;89,55423
1082,93; 1295,567;  245,012; 1424,825;89,04423
1083,47; 1265,029;  224,319; 1384,671;89,68914
1084,01; 1285,260;  251,935; 1387,287;91,01363
1084,55; 1267,567;  234,319; 1370,287;90,95755
1085,09; 1255,875;  257,627; 1364,517;90,18491
1085,63; 1248,875;  247,088; 1320,671;93,31247
1086,17; 1225,260;  239,858; 1326,287;90,70101
1086,71; 1199,721;  238,088; 1315,287;89,27167
1087,24; 1214,798;  265,627; 1317,825;90,20841
1087,78; 1192,952;  250,550; 1308,671;89,06371
1088,32; 1149,644;  221,781; 1264,594;88,97694
1088,86; 1182,029;  265,165; 1275,825;90,71931
1089,40; 1145,875;  244,319; 1238,594;90,67469
1089,94; 1104,260;  225,396; 1207,056;89,52833
1090,48; 1125,029;  257,088; 1205,133;91,55062
1091,02; 1113,798;  256,088; 1223,517;88,65868
1091,56; 1093,183;  242,935; 1186,517;90,10849
1092,10; 1069,798;  226,012; 1145,748;91,74220
1092,63; 1089,644;  266,704; 1180,440;90,06320
1093,17; 1060,106;  254,242; 1145,133;90,45596
1093,71; 1050,183;  239,781; 1127,979;91,24113
1094,25; 1052,413;  260,858; 1133,133;90,74613
1094,79; 1016,337;  241,165; 1110,902;89,12712
1095,33; 1012,490;  243,396; 1100,671;89,71383
1095,87; 1005,567;  241,627; 1069,825;92,24127
1096,40;  981,413;  230,242; 1040,748;92,67931
1096,94;  985,029;  252,088; 1048,979;91,97506
1097,48;  989,644;  244,704; 1052,825;92,18177
1098,02;  969,260;  242,012; 1039,594;91,18153
1098,56;  921,106;  214,473;  995,440;90,48173
1099,10;  919,490;  219,012;  972,748;92,93418
1099,63;  921,413;  216,550;  980,902;92,21714
1100,17;  933,798;  247,396;  999,825;91,22483
1100,71;  932,337;  264,473;  999,133;90,90788

