
Integration time [ms]: 120,000
Averaging Nr. [scans]: 13
Smoothing Nr. [pixels]: 0
Data measured with spectrometer [name]: 2009305U1
Wave   ;Sample   ;Dark     ;Reference;Reflectance
[nm]   ;[counts] ;[counts] ;[counts] ;[%]

 175,72;  200,479;  198,566;  203,486;38,88476
 176,32;  235,524;  219,407;  208,673; 0,00000
 176,92;  256,498;  225,488;  238,333;241,40901
 177,52;  263,422;  249,642;  262,106;110,55847
 178,12;  232,568;  222,099;  228,158;172,79177
 178,72;  264,390;  259,021;  245,677; 0,00000
 179,32;  258,821;  244,330;  240,398; 0,00000
 179,92;  248,044;  240,255;  252,059;65,98708
 180,52;  243,298;  231,723;  249,371;65,58646
 181,12;  255,111;  239,332;  250,633;139,62603
 181,73;  280,771;  258,641;  266,350;287,05492
 182,33;  345,799;  284,028;  295,841;522,91661
 182,93;  273,609;  254,488;  255,469; 0,00000
 183,53;  241,377;  227,174;  226,551; 0,00000
 184,13;  245,818;  237,636;  225,468; 0,00000
 184,73;  278,057;  249,327;  254,503;555,08485
 185,33;  266,514;  226,295;  344,225;34,10403
 185,93;  270,320;  240,752;  352,455;26,46973
 186,53;  285,301;  255,370;  364,379;27,45796
 187,13;  310,287;  264,836;  412,009;30,88329
 187,73;  279,024;  232,522;  362,733;35,71280
 188,33;  284,690;  233,135;  381,478;34,75392
 188,93;  290,018;  240,205;  374,876;36,98840
 189,53;  287,766;  250,277;  378,185;29,30953
 190,13;  322,651;  273,960;  414,815;34,56801
 190,73;  265,156;  215,428;  353,059;36,13191
 191,34;  303,003;  259,511;  384,128;34,90068
 191,94;  264,180;  225,133;  350,519;31,14172
 192,54;  291,711;  248,608;  384,313;31,76225
 193,14;  306,364;  260,220;  390,699;35,36502
 193,74;  293,011;  241,065;  380,441;37,26992
 194,34;  287,376;  239,375;  385,056;32,94989
 194,94;  246,935;  207,681;  342,061;29,21106
 195,54;  242,009;  204,833;  332,974;29,01139
 196,14;  267,213;  217,529;  369,402;32,71421
 196,74;  251,765;  215,678;  347,155;27,44720
 197,34;  228,559;  195,224;  346,549;22,02843
 197,94;  274,123;  229,220;  373,581;31,10446
 198,54;  274,356;  229,683;  379,896;29,73968
 199,14;  257,232;  212,610;  390,008;25,15332
 199,74;  244,737;  198,457;  379,646;25,54280
 200,34;  235,046;  197,842;  390,264;19,33471
 200,94;  275,492;  225,377;  428,974;24,61446
 201,54;  251,747;  216,302;  441,608;15,73191
 202,14;  274,312;  216,227;  462,095;23,62426
 202,74;  263,693;  208,610;  486,930;19,79118
 203,34;  247,260;  196,768;  509,732;16,13365
 203,94;  233,686;  176,997;  522,669;16,39971
 204,54;  297,464;  236,374;  596,561;16,96057
 205,14;  266,067;  198,764;  609,579;16,38273
 205,74;  312,864;  233,383;  705,303;16,84216
 206,34;  287,641;  202,304;  730,183;16,16606
 206,94;  298,135;  217,842;  803,772;13,70345
 207,54;  281,059;  188,535;  818,775;14,68072
 208,14;  313,741;  203,382;  928,042;15,22912
 208,74;  316,253;  204,302; 1008,479;13,92118
 209,34;  319,155;  201,918; 1088,856;13,21819
 209,94;  340,748;  218,995; 1208,459;12,30498
 210,54;  344,259;  213,382; 1299,034;12,05509
 211,14;  360,276;  215,149; 1412,876;12,11686
 211,73;  361,790;  200,840; 1527,244;12,13433
 212,33;  389,217;  217,762; 1648,567;11,98310
 212,93;  386,627;  204,841; 1725,665;11,95312
 213,53;  369,144;  182,687; 1796,194;11,55598
 214,13;  389,527;  191,000; 1874,334;11,79366
 214,73;  373,081;  191,766; 1898,095;10,62604
 215,33;  356,979;  169,995; 1920,998;10,67869
 215,93;  403,677;  197,460; 2050,324;11,12967
 216,53;  385,374;  149,610; 2130,499;11,90192
 217,13;  463,599;  210,844; 2382,397;11,63939
 217,73;  466,996;  177,537; 2579,907;12,04891
 218,33;  450,583;  153,616; 2783,249;11,29309
 218,93;  512,887;  174,774; 3072,845;11,66683
 219,53;  573,473;  189,847; 3389,579;11,98932
 220,13;  581,903;  163,924; 3728,452;11,72606
 220,73;  676,375;  178,149; 4076,196;12,78143
 221,32;  714,253;  187,918; 4495,556;12,21866
 221,92;  787,298;  189,924; 4912,802;12,64851
 222,52;  821,887;  173,460; 5400,007;12,40641
 223,12;  907,481;  183,845; 5767,690;12,95945
 223,72;  990,294;  197,307; 6192,789;13,22641
 224,32; 1057,525;  197,307; 6643,021;13,34559
 224,92; 1096,811;  179,461; 6989,549;13,47046
 225,52; 1199,871;  194,611; 7395,180;13,96084
 226,12; 1256,006;  188,998; 7768,946;14,07672
 226,72; 1303,687;  170,536; 8113,362;14,26634
 227,31; 1371,972;  153,766; 8520,120;14,56077
 227,91; 1471,332;  188,073; 8949,331;14,64698
 228,51; 1565,943;  180,301; 9448,317;14,95079
 229,11; 1653,411;  176,843; 9856,570;15,25424
 229,71; 1707,791;  171,764;10194,401;15,32558
 230,31; 1825,703;  170,308;10676,345;15,75661
 230,91; 1901,072;  168,915;10982,606;16,01819
 231,51; 2011,513;  160,691;11344,280;16,54945
 232,10; 2105,989;  168,308;11709,875;16,78872
 232,70; 2200,992;  187,451;11933,902;17,14169
 233,30; 2309,699;  192,844;12198,872;17,63160
 233,90; 2389,292;  179,152;12314,399;18,21257
 234,50; 2466,579;  178,614;12487,313;18,58819
 235,10; 2540,811;  173,922;12540,626;19,13920
 235,70; 2621,969;  185,380;12576,880;19,66339
 236,29; 2668,231;  187,687;12620,006;19,95239
 236,89; 2678,161;  167,146;12451,267;20,44114
 237,49; 2747,841;  187,921;12428,441;20,91349
 238,09; 2733,334;  173,381;12143,413;21,38635
 238,69; 2750,719;  196,452;11868,347;21,88391
 239,29; 2725,652;  172,073;11594,147;22,35652
 239,89; 2706,106;  193,146;11243,509;22,74097
 240,48; 2644,235;  167,997;10851,171;23,17886
 241,08; 2556,344;  180,073;10506,454;23,01165
 241,68; 2560,664;  194,920;10155,041;23,75216
 242,28; 2446,808;  174,075; 9827,002;23,54450
 242,88; 2442,186;  192,692; 9558,279;24,01872
 243,48; 2364,258;  204,997; 9258,649;23,84961
 244,07; 2307,695;  193,073; 9013,704;23,97359
 244,67; 2265,829;  196,843; 8945,702;23,64864
 245,27; 2210,636;  196,840; 8755,090;23,53047
 245,87; 2187,581;  195,846; 8680,706;23,47399
 246,47; 2130,428;  175,763; 8629,563;23,12173
 247,06; 2089,179;  184,765; 8722,642;22,30547
 247,66; 2058,565;  174,920; 8733,030;22,01006
 248,26; 2086,406;  226,533; 8884,631;21,48132
 248,86; 2105,054;  199,840; 9152,915;21,28000
 249,46; 2026,545;  160,844; 9355,950;20,29015
 250,05; 2134,993;  191,612; 9730,434;20,37338
 250,65; 2102,262;  162,455;10109,593;19,50116
 251,25; 2120,574;  178,996;10645,299;18,55075
 251,85; 2172,381;  181,531;11169,454;18,11853
 252,44; 2237,616;  152,072;11848,468;17,83066
 253,04; 2351,375;  193,072;12621,735;17,36553
 253,64; 2344,954;  162,070;13290,437;16,62723
 254,24; 2455,487;  200,996;14255,643;16,04089
 254,84; 2537,392;  173,537;15113,027;15,82286
 255,43; 2604,792;  189,533;16061,326;15,21730
 256,03; 2682,778;  184,378;17049,273;14,81421
 256,63; 2765,062;  190,454;18002,256;14,45451
 257,23; 2799,853;  181,069;18779,960;14,08032
 257,82; 2888,476;  194,991;19749,378;13,77433
 258,42; 2897,606;  143,759;20487,823;13,53637
 259,02; 3036,166;  181,303;21265,976;13,53999
 259,62; 3025,122;  176,681;21929,039;13,09486
 260,21; 3060,012;  178,149;22406,204;12,96498
 260,81; 3071,610;  179,767;22744,363;12,81584
 261,41; 3113,355;  167,913;23163,508;12,80872
 262,01; 3124,131;  205,296;23575,771;12,48941
 262,60; 3111,623;  171,223;23768,730;12,46064
 263,20; 3153,197;  175,609;24034,870;12,47980
 263,80; 3171,307;  193,757;24165,397;12,42114
 264,40; 3170,967;  163,758;24242,806;12,48890
 264,99; 3188,944;  192,757;24378,175;12,38840
 265,59; 3203,115;  177,370;24531,325;12,42404
 266,19; 3230,197;  157,219;24711,881;12,51485
 266,78; 3300,887;  210,448;24707,026;12,61580
 267,38; 3308,907;  181,601;24643,801;12,78424
 267,98; 3301,052;  168,987;24696,378;12,76966
 268,58; 3386,500;  176,755;24544,482;13,17212
 269,17; 3386,859;  179,907;24685,766;13,08647
 269,77; 3429,456;  194,838;24352,681;13,38952
 270,37; 3416,196;  161,603;24261,186;13,50477
 270,96; 3491,542;  218,221;24182,565;13,65913
 271,56; 3459,578;  175,684;23785,399;13,90908
 272,16; 3486,234;  178,759;23744,946;14,03483
 272,75; 3524,333;  187,606;23620,727;14,23936
 273,35; 3596,916;  180,145;23609,061;14,58357
 273,95; 3616,223;  177,452;23611,519;14,67424
 274,54; 3654,784;  176,381;23618,060;14,83854
 275,14; 3795,994;  191,222;23949,369;15,17278
 275,74; 3828,036;  161,528;24022,463;15,36615
 276,33; 3978,885;  196,530;24536,164;15,53990
 276,93; 4082,038;  183,612;24931,690;15,75244
 277,53; 4236,275;  180,456;25401,951;16,08080
 278,12; 4373,118;  171,993;25947,094;16,29916
 278,72; 4579,132;  194,148;26541,686;16,64286
 279,32; 4709,758;  173,379;27074,882;16,86292
 279,91; 4896,581;  163,917;27830,945;17,10579
 280,51; 5073,968;  180,918;28378,567;17,35269
 281,11; 5336,328;  191,532;29066,703;17,81737
 281,70; 5447,921;  161,147;29490,844;18,02533
 282,30; 5685,117;  162,838;30132,629;18,42615
 282,90; 5858,084;  176,223;30448,420;18,76924
 283,49; 6125,268;  189,529;31026,545;19,24875
 284,09; 6357,349;  202,993;31411,326;19,72023
 284,69; 6589,834;  203,532;31632,959;20,31950
 285,28; 6727,920;  196,916;31964,227;20,55888
 285,88; 6968,124;  200,528;32207,045;21,14443
 286,47; 7129,886;  181,300;32298,629;21,63501
 287,07; 7355,021;  206,917;32288,091;22,28131
 287,67; 7594,335;  196,382;32424,264;22,95513
 288,26; 7783,801;  178,840;32317,211;23,66318
 288,86; 8022,844;  180,608;32422,612;24,32304
 289,46; 8357,823;  190,840;32469,913;25,30117
 290,05; 8647,684;  173,227;32694,430;26,05825
 290,65; 8983,171;  182,223;32802,000;26,98041
 291,24; 9321,329;  193,225;32986,708;27,83512
 291,84; 9681,293;  197,377;33070,333;28,85021
 292,44;10025,512;  187,921;33221,662;29,78043
 293,03;10357,549;  235,225;33281,741;30,63053
 293,63;10615,908;  177,146;33394,717;31,42542
 294,22;10922,108;  197,455;33624,593;32,08367
 294,82;11220,275;  181,143;33627,807;33,00518
 295,41;11240,229;  169,532;33204,229;33,51233
 296,01;11499,024;  216,297;33178,647;34,22913
 296,61;11565,044;  195,379;32899,872;34,76484
 297,20;11628,090;  199,451;32447,989;35,43925
 297,80;11648,080;  203,996;32307,093;35,64791
 298,39;11649,304;  170,223;31917,377;36,15783
 298,99;11771,872;  191,452;31719,499;36,73053
 299,58;11710,477;  189,382;31671,372;36,59583
 300,18;11751,783;  215,304;31391,058;37,00465
 300,78;11676,814;  186,995;31025,184;37,25841
 301,37;11686,383;  191,603;31139,854;37,14194
 301,97;11825,647;  196,686;31085,363;37,64797
 302,56;11840,764;  179,300;31033,221;37,79573
 303,16;11843,346;  169,837;30942,470;37,93471
 303,75;11844,815;  192,303;31001,494;37,82154
 304,35;11959,579;  173,845;31192,777;37,99529
 304,94;12004,647;  186,225;31189,287;38,12018
 305,54;11982,484;  190,687;31112,710;38,13398
 306,13;11947,371;  163,922;31005,789;38,20602
 306,73;11770,248;  168,305;30789,068;37,88914
 307,33;11863,840;  193,613;30807,131;38,12116
 307,92;11844,802;  190,148;30903,906;37,94604
 308,52;12039,016;  169,991;31362,304;38,05112
 309,11;12188,716;  176,451;31756,953;38,03697
 309,71;12238,681;  164,450;31904,815;38,04062
 310,30;12317,626;  169,533;32260,817;37,85481
 310,90;12456,472;  192,071;32547,047;37,90576
 311,49;12479,889;  180,455;32650,024;37,87988
 312,09;12495,190;  159,765;32853,300;37,73047
 312,68;12635,913;  205,918;33216,194;37,65493
 313,28;12609,110;  169,917;33305,444;37,54035
 313,87;12630,076;  145,148;33458,233;37,47755
 314,47;12690,486;  173,221;33724,033;37,30838
 315,06;12619,626;  161,148;33804,434;37,03110
 315,66;12711,036;  172,227;34136,223;36,91794
 316,25;12582,929;  145,376;33983,109;36,75646
 316,85;12555,629;  153,688;34066,597;36,56997
 317,44;12502,749;  166,913;34155,625;36,29392
 318,04;12444,875;  152,454;34213,124;36,08978
 318,63;12355,413;  152,459;34291,420;35,74495
 319,22;12373,654;  176,145;34435,703;35,60323
 319,82;12305,546;  171,377;34446,193;35,40258
 320,41;12146,138;  178,069;34370,331;35,00227
 321,01;12068,870;  188,765;34472,177;34,65263
 321,60;12042,470;  178,993;34421,579;34,64539
 322,20;11953,110;  166,918;34366,599;34,46287
 322,79;11924,637;  204,994;34507,016;34,16604
 323,39;11796,018;  173,152;34526,149;33,83363
 323,98;11589,792;  160,302;34479,325;33,30366
 324,58;11520,642;  167,453;34280,041;33,28153
 325,17;11407,709;  175,376;34017,692;33,19020
 325,76;11236,164;  204,378;33861,892;32,77659
 326,36;11023,837;  146,149;33402,353;32,70875
 326,95;10846,800;  195,608;33158,745;32,31243
 327,55;10646,865;  157,223;32723,775;32,20986
 328,14;10451,839;  172,381;32355,358;31,94067
 328,74;10232,490;  199,915;31895,044;31,65336
 329,33;10058,156;  191,149;31501,011;31,51405
 329,92; 9775,178;  163,682;30953,339;31,21664
 330,52; 9532,872;  177,074;30271,107;31,08855
 331,11; 9297,481;  177,454;29881,392;30,70309
 331,71; 9065,735;  180,224;29328,791;30,48352
 332,30; 8828,109;  192,225;28872,133;30,11127
 332,89; 8644,650;  199,918;28421,757;29,92268
 333,49; 8383,811;  181,685;27911,250;29,57899
 334,08; 8175,315;  187,147;27490,885;29,25669
 334,68; 7974,810;  178,147;27113,863;28,94545
 335,27; 7826,752;  188,920;26741,703;28,76471
 335,86; 7658,865;  217,685;26456,315;28,35964
 336,46; 7502,599;  193,151;26267,396;28,03321
 337,05; 7332,920;  175,608;25985,381;27,73102
 337,65; 7239,898;  161,454;25945,830;27,45245
 338,24; 7161,220;  227,533;25837,039;27,07466
 338,83; 7091,979;  194,610;25730,996;27,00996
 339,43; 7025,621;  173,838;25713,725;26,82778
 340,02; 6893,214;  173,991;25646,481;26,37835
 340,61; 6859,538;  166,610;25652,467;26,26134
 341,21; 6793,182;  208,607;25652,660;25,87864
 341,80; 6727,909;  176,839;25500,258;25,86961
 342,40; 6664,016;  189,535;25617,832;25,46171
 342,99; 6622,958;  176,303;25801,988;25,15700
 343,58; 6596,464;  183,688;25899,165;24,93742
 344,18; 6576,607;  176,842;26055,200;24,73018
 344,77; 6558,412;  173,530;26327,041;24,41310
 345,36; 6554,031;  156,608;26630,822;24,16473
 345,96; 6597,101;  196,380;26930,253;23,94236
 346,55; 6581,095;  167,075;27206,227;23,72123
 347,14; 6567,587;  158,535;27447,042;23,48627
 347,74; 6619,056;  147,693;27911,065;23,30899
 348,33; 6705,363;  173,770;28553,678;23,01485
 348,92; 6797,916;  177,387;29147,963;22,85260
 349,52; 6782,453;  161,694;29604,805;22,48661
 350,11; 6814,499;  165,529;29679,007;22,52859
 350,70; 6793,582;  169,071;29774,027;22,37636
 351,29; 6617,096;  171,679;29529,091;21,95499
 351,89; 6574,628;  178,912;29546,986;21,77778
 352,48; 6486,626;  158,764;29500,433;21,56613
 353,07; 6464,511;  178,536;29413,506;21,50156
 353,67; 6394,301;  191,156;29345,503;21,27691
 354,26; 6265,829;  180,997;29166,009;20,99303
 354,85; 6216,124;  184,304;28948,268;20,97006
 355,45; 6074,974;  162,069;28706,290;20,71489
 356,04; 6054,193;  180,228;28671,925;20,61641
 356,63; 6007,031;  201,378;28500,515;20,51530
 357,22; 5908,625;  177,372;28328,592;20,35881
 357,82; 5805,209;  177,450;28094,235;20,15905
 358,41; 5766,383;  177,301;27936,001;20,13452
 359,00; 5664,094;  163,453;27779,461;19,91830
 359,60; 5662,055;  188,379;27770,380;19,84510
 360,19; 5572,919;  171,383;27472,443;19,78508
 360,78; 5516,799;  192,608;27334,973;19,61580
 361,37; 5433,382;  169,839;27129,149;19,52403
 361,97; 5351,328;  179,686;27121,395;19,19567
 362,56; 5319,059;  164,837;26800,094;19,35113
 363,15; 5276,469;  194,762;26540,500;19,28854
 363,74; 5177,541;  186,375;26197,561;19,18854
 364,34; 5073,808;  211,453;25831,548;18,97868
 364,93; 5019,817;  172,683;25451,510;19,17468
 365,52; 4920,558;  157,762;25110,931;19,08694
 366,11; 4873,720;  173,992;24784,121;19,09672
 366,71; 4808,347;  167,992;24400,780;19,14908
 367,30; 4706,932;  178,147;24109,118;18,92437
 367,89; 4708,915;  205,227;23947,817;18,96882
 368,48; 4643,014;  184,836;23571,837;19,06263
 369,07; 4536,275;  185,302;23165,873;18,93327
 369,67; 4506,443;  200,067;22951,938;18,92757
 370,26; 4446,209;  173,225;22723,302;18,94887
 370,85; 4435,008;  179,608;22457,040;19,10184
 371,44; 4376,185;  178,455;22204,977;19,05762
 372,03; 4336,665;  159,992;22012,285;19,11320
 372,63; 4281,163;  158,378;21679,734;19,15671
 373,22; 4292,769;  178,148;21352,926;19,43171
 373,81; 4219,074;  145,685;21098,073;19,44117
 374,40; 4212,850;  172,150;20852,402;19,53893
 374,99; 4188,414;  168,839;20697,279;19,58052
 375,59; 4129,168;  163,535;20366,291;19,62917
 376,18; 4151,744;  195,146;20267,060;19,71211
 376,77; 4112,394;  186,147;20074,890;19,74105
 377,36; 4150,591;  201,147;20011,754;19,93601
 377,95; 4149,127;  188,299;19804,594;20,19152
 378,55; 4132,947;  175,765;19619,869;20,35158
 379,14; 4127,118;  177,377;19552,633;20,38549
 379,73; 4153,138;  183,838;19444,639;20,60818
 380,32; 4213,185;  191,532;19524,209;20,80236
 380,91; 4168,212;  159,606;19376,399;20,85991
 381,50; 4215,565;  191,376;19283,270;21,07800
 382,10; 4184,416;  170,763;19182,901;21,11100
 382,69; 4230,239;  163,685;19178,501;21,38624
 383,28; 4285,071;  189,837;19083,910;21,67470
 383,87; 4270,357;  169,145;19021,514;21,75436
 384,46; 4297,616;  171,066;18934,093;21,99299
 385,05; 4331,862;  197,299;19004,150;21,98435
 385,64; 4382,105;  173,145;18894,351;22,48231
 386,24; 4418,989;  161,450;18841,894;22,79142
 386,83; 4453,626;  189,296;18974,211;22,70082
 387,42; 4541,654;  201,530;19118,858;22,94259
 388,01; 4597,369;  193,678;19304,187;23,04329
 388,60; 4690,672;  184,681;19534,238;23,28730
 389,19; 4763,781;  166,291;19748,225;23,47823
 389,78; 4888,794;  170,292;19985,503;23,81252
 390,37; 5111,679;  219,680;20387,425;24,25655
 390,96; 5159,220;  181,219;20597,047;24,38305
 391,56; 5200,219;  179,367;20685,516;24,48462
 392,15; 5305,872;  176,138;20922,122;24,72639
 392,74; 5363,300;  151,286;21074,921;24,90970
 393,33; 5524,064;  166,751;21366,590;25,27054
 393,92; 5678,472;  183,669;21782,382;25,44042
 394,51; 5767,680;  167,597;21961,359;25,69581
 395,10; 5931,428;  199,894;22129,832;26,13566
 395,69; 5995,474;  175,202;22219,013;26,40320
 396,28; 6060,424;  184,353;22308,666;26,55934
 396,87; 6135,667;  197,809;22419,415;26,72110
 397,46; 6252,309;  186,806;22514,758;27,16552
 398,06; 6375,444;  197,648;22831,381;27,29464
 398,65; 6447,766;  184,945;22806,531;27,68516
 399,24; 6533,675;  191,943;22924,937;27,89660
 399,83; 6570,350;  185,851;22983,584;28,00497
 400,42; 6716,918;  205,453;23115,032;28,42246
 401,01; 6770,208;  184,053;23204,831;28,60961
 401,60; 6871,290;  190,878;23218,114;29,01092
 402,19; 6893,764;  210,092;23119,961;29,17377
 402,78; 6941,793;  221,912;23097,963;29,37518
 403,37; 6973,352;  199,195;23029,929;29,67122
 403,96; 6966,068;  196,628;22861,068;29,86811
 404,55; 7058,317;  195,519;22828,880;30,32160
 405,14; 6988,768;  192,721;22595,424;30,33584
 405,73; 7093,420;  195,840;22495,851;30,93083
 406,32; 7129,806;  194,817;22419,585;31,20387
 406,91; 7078,394;  196,945;22119,517;31,38979
 407,50; 7092,940;  196,931;21945,108;31,70845
 408,09; 7065,516;  177,614;21674,887;32,04082
 408,68; 7111,613;  201,992;21586,902;32,31073
 409,27; 7102,267;  178,770;21385,657;32,64740
 409,86; 7123,590;  189,636;21335,382;32,79125
 410,45; 7158,161;  203,500;21245,099;33,05196
 411,04; 7177,590;  212,133;21118,401;33,31755
 411,63; 7138,105;  197,079;20844,197;33,61741
 412,22; 7094,529;  205,100;20669,705;33,66509
 412,81; 7065,268;  218,031;20356,495;34,00079
 413,40; 7027,252;  222,964;20009,573;34,38835
 413,99; 6990,192;  236,730;19781,489;34,55383
 414,58; 6897,822;  190,424;19386,698;34,94114
 415,17; 6871,081;  194,031;19239,594;35,05830
 415,76; 6860,703;  189,100;19141,942;35,20107
 416,35; 6827,854;  186,489;18948,538;35,39787
 416,94; 6925,893;  217,178;19066,084;35,59207
 417,53; 7028,599;  189,493;19216,895;35,94346
 418,12; 7124,844;  193,726;19310,719;36,25632
 418,71; 7276,714;  201,271;19685,420;36,31384
 419,30; 7361,966;  210,573;19751,515;36,59697
 419,89; 7463,618;  195,959;19918,195;36,85008
 420,48; 7636,077;  218,041;20195,948;37,13120
 421,07; 7674,926;  204,042;20301,419;37,17343
 421,66; 7741,220;  182,278;20188,973;37,78207
 422,25; 7733,851;  183,978;20183,328;37,75059
 422,84; 7771,074;  219,980;20075,064;38,03103
 423,43; 7699,781;  191,899;19850,977;38,19041
 424,02; 7703,861;  220,055;19648,294;38,52025
 424,60; 7522,341;  189,526;19149,045;38,67617
 425,19; 7474,859;  208,598;19005,048;38,65763
 425,78; 7545,245;  225,676;18932,512;39,12778
 426,37; 7499,230;  228,141;18826,907;39,09447
 426,96; 7486,274;  219,449;18632,160;39,46635
 427,55; 7444,416;  202,839;18552,182;39,46505
 428,14; 7406,761;  188,457;18317,021;39,81730
 428,73; 7382,852;  200,837;18197,543;39,90739
 429,32; 7413,833;  221,140;18214,475;39,97421
 429,91; 7436,083;  234,221;18241,929;39,99322
 430,50; 7408,286;  225,147;17983,199;40,45004
 431,08; 7370,006;  237,843;17866,611;40,45752
 431,67; 7407,472;  266,999;17788,473;40,75269
 432,26; 7393,301;  271,694;17518,554;41,29219
 432,85; 7274,992;  291,770;17238,088;41,20790
 433,44; 7156,032;  294,312;16882,011;41,36631
 434,03; 7063,228;  312,702;16561,789;41,54403
 434,62; 6888,736;  268,774;16155,211;41,67052
 435,21; 6875,179;  289,924;15970,299;41,99680
 435,79; 6816,818;  276,085;15838,998;42,02769
 436,38; 6818,860;  278,705;15778,620;42,19478
 436,97; 6803,576;  258,245;15668,482;42,47392
 437,56; 6754,458;  271,714;15456,614;42,69204
 438,15; 6715,257;  243,019;15404,042;42,68998
 438,74; 6760,467;  260,866;15454,420;42,77867
 439,33; 6798,575;  236,942;15477,239;43,05450
 439,91; 6841,911;  208,715;15498,654;43,38275
 440,50; 6879,417;  253,792;15561,140;43,28395
 441,09; 6959,172;  247,104;15636,692;43,61435
 441,68; 6929,180;  245,878;15663,026;43,34980
 442,27; 6976,188;  227,107;15614,905;43,85995
 442,86; 6952,326;  201,501;15649,367;43,70070
 443,44; 7021,147;  225,114;15688,653;43,94876
 444,03; 7054,052;  251,655;15704,424;44,02057
 444,62; 7034,810;  212,039;15537,764;44,51842
 445,21; 6961,533;  218,577;15382,505;44,46709
 445,80; 6982,598;  243,197;15280,370;44,81827
 446,39; 6883,465;  252,735;15024,222;44,88871
 446,97; 6771,607;  210,741;14844,400;44,83408
 447,56; 6680,429;  218,745;14652,447;44,76803
 448,15; 6639,860;  217,510;14459,410;45,09476
 448,74; 6573,795;  226,818;14271,073;45,19269
 449,33; 6532,735;  219,975;14125,673;45,39693
 449,91; 6477,601;  219,903;13926,517;45,65459
 450,50; 6390,775;  210,287;13746,445;45,65911
 451,09; 6343,590;  229,749;13687,701;45,42921
 451,68; 6331,561;  250,828;13540,735;45,75451
 452,26; 6272,081;  229,292;13465,661;45,65292
 452,85; 6257,068;  226,060;13378,685;45,85402
 453,44; 6249,509;  236,220;13417,517;45,61986
 454,03; 6275,688;  214,370;13422,702;45,89011
 454,61; 6282,938;  210,144;13347,618;46,22498
 455,20; 6379,635;  233,377;13549,632;46,15606
 455,79; 6348,067;  231,373;13524,751;46,01309
 456,38; 6385,301;  235,304;13579,829;46,08629
 456,97; 6441,497;  225,995;13693,383;46,15224
 457,55; 6466,315;  223,229;13631,961;46,55986
 458,14; 6490,517;  251,379;13629,235;46,63780
 458,73; 6447,514;  234,998;13586,062;46,53199
 459,31; 6486,511;  263,541;13615,043;46,60876
 459,90; 6513,672;  264,077;13720,843;46,44202
 460,49; 6573,164;  265,153;13742,890;46,80319
 461,08; 6583,767;  215,466;13864,450;46,65769
 461,66; 6648,401;  229,541;13954,064;46,76927
 462,25; 6700,221;  234,699;13939,264;47,17788
 462,84; 6711,197;  252,313;14009,629;46,94872
 463,43; 6687,856;  189,703;13965,104;47,17215
 464,01; 6678,157;  227,090;13974,687;46,92505
 464,60; 6676,645;  252,240;13895,182;47,08958
 465,19; 6537,621;  212,014;13650,694;47,07015
 465,77; 6590,218;  229,017;13623,542;47,49105
 466,36; 6544,714;  244,088;13591,148;47,20609
 466,95; 6397,330;  232,550;13192,920;47,56639
 467,53; 6284,212;  222,173;12958,667;47,59582
 468,12; 6176,345;  251,097;12659,506;47,75188
 468,71; 6061,687;  233,246;12480,730;47,58889
 469,29; 5973,214;  216,636;12253,520;47,82449
 469,88; 5846,042;  221,330;12056,674;47,52470
 470,47; 5942,774;  273,180;12203,521;47,52248
 471,06; 5869,741;  232,488;12142,006;47,33402
 471,64; 5944,333;  241,102;12293,373;47,32080
 472,23; 5942,984;  204,418;12243,506;47,66613
 472,81; 5973,428;  215,722;12423,056;47,16596
 473,40; 6015,303;  218,572;12514,243;47,14449
 473,99; 6199,326;  271,725;12684,177;47,75527
 474,57; 6173,567;  226,033;12827,220;47,19820
 475,16; 6240,430;  241,184;12961,753;47,16177
 475,75; 6308,232;  249,267;13017,028;47,45519
 476,33; 6367,149;  250,577;13126,310;47,50465
 476,92; 6398,546;  254,803;13178,522;47,53851
 477,51; 6389,279;  236,807;13257,983;47,24974
 478,09; 6407,400;  245,038;13206,005;47,54554
 478,68; 6368,710;  243,116;13189,013;47,31688
 479,27; 6411,265;  259,036;13226,776;47,44257
 479,85; 6428,676;  230,654;13187,495;47,83591
 480,44; 6473,613;  229,886;13453,625;47,21605
 481,02; 7152,365;  232,812;15345,322;45,78692
 481,61; 7983,847;  260,195;16962,095;46,24415
 482,20; 8563,420;  250,427;17957,465;46,94740
 482,78; 8889,821;  273,270;18708,918;46,73853
 483,37; 9093,692;  269,278;19143,082;46,75482
 483,95; 9258,924;  291,048;19265,626;47,26259
 484,54; 9303,340;  298,041;19505,993;46,88318
 485,13; 9214,787;  274,590;19302,766;46,98400
 485,71; 9129,785;  249,358;19025,605;47,29607
 486,30; 9051,060;  280,665;18804,628;47,34621
 486,88; 8852,578;  299,589;18295,314;47,52789
 487,47; 8492,019;  307,052;17548,463;47,47273
 488,05; 8098,121;  284,438;16623,482;47,82216
 488,64; 7555,984;  288,441;15295,006;48,42909
 489,23; 6650,211;  296,670;13258,685;49,01661
 489,81; 5768,905;  288,824;11752,229;47,80500
 490,40; 5491,818;  245,979;11271,574;47,57874
 490,98; 5411,667;  237,672;11066,274;47,78082
 491,57; 5350,222;  275,670;11056,116;47,07182
 492,15; 5333,052;  243,596;10929,662;47,62703
 492,74; 5264,133;  245,592;10834,144;47,39591
 493,32; 5242,358;  257,980;10783,041;47,35724
 493,91; 5171,561;  245,290;10671,770;47,24769
 494,50; 5141,098;  255,988;10681,835;46,85577
 495,08; 5088,636;  236,680;10601,141;46,81340
 495,67; 5128,900;  253,213;10572,899;47,24647
 496,25; 5016,928;  203,062;10468,236;46,89513
 496,84; 5023,372;  217,366;10475,480;46,85078
 497,42; 4969,864;  211,678;10406,132;46,67426
 498,01; 4970,703;  246,675;10321,341;46,89018
 498,59; 4893,601;  202,140;10304,772;46,43801
 499,18; 4879,605;  222,906;10264,178;46,37559
 499,76; 4875,829;  229,754;10185,764;46,66604
 500,35; 4765,595;  224,297;10004,590;46,43315
 500,93; 4735,051;  204,217;10013,571;46,18891
 501,52; 4693,239;  226,371; 9913,014;46,11368
 502,10; 4695,336;  230,530; 9803,395;46,64023
 502,69; 4578,438;  215,609; 9705,648;45,97272
 503,27; 4486,912;  200,296; 9525,781;45,96668
 503,86; 4473,041;  210,223; 9502,522;45,87474
 504,44; 4409,023;  197,917; 9364,522;45,93964
 505,03; 4316,495;  180,379; 9142,489;46,15114
 505,61; 4279,428;  191,609; 9011,836;46,34596
 506,19; 4191,857;  218,610; 8847,477;46,04599
 506,78; 4138,217;  190,460; 8694,754;46,42075
 507,36; 4059,242;  198,225; 8523,245;46,37847
 507,95; 3981,099;  204,385; 8413,050;46,00887
 508,53; 3914,304;  203,306; 8275,413;45,97311
 509,12; 3839,351;  209,692; 8158,134;45,66503
 509,70; 3790,133;  219,924; 8005,876;45,85449
 510,29; 3694,741;  216,618; 7883,229;45,36715
 510,87; 3606,744;  193,460; 7742,017;45,21770
 511,46; 3549,317;  191,230; 7554,231;45,60759
 512,04; 3467,618;  207,540; 7451,968;45,00117
 512,62; 3411,053;  204,768; 7282,253;45,30261
 513,21; 3313,862;  182,464; 7128,944;45,07892
 513,79; 3281,368;  196,240; 7025,497;45,17517
 514,38; 3200,057;  179,084; 6843,639;45,32895
 514,96; 3164,451;  220,083; 6790,219;44,81442
 515,54; 3095,542;  192,931; 6688,501;44,68601
 516,13; 3048,257;  208,239; 6597,207;44,45190
 516,71; 2972,668;  203,242; 6453,541;44,30870
 517,30; 2925,815;  186,629; 6338,818;44,52377
 517,88; 2905,332;  214,551; 6281,806;44,34922
 518,46; 2841,378;  192,937; 6196,297;44,11597
 519,05; 2813,568;  205,324; 6110,285;44,17038
 519,63; 2782,643;  215,323; 6109,587;43,55625
 520,22; 2756,463;  217,865; 6020,093;43,75213
 520,80; 2699,750;  204,712; 5935,854;43,53475
 521,38; 2707,459;  215,939; 5914,232;43,72396
 521,97; 2672,248;  195,021; 5894,919;43,46089
 522,55; 2679,907;  210,175; 5889,326;43,48770
 523,13; 2640,646;  184,715; 5879,818;43,12356
 523,72; 2627,509;  196,091; 5911,977;42,53791
 524,30; 2705,759;  213,332; 6033,036;42,82738
 524,89; 2666,457;  182,637; 6055,141;42,29576
 525,47; 2726,442;  209,640; 6163,305;42,27315
 526,05; 2701,706;  186,487; 6218,824;41,69560
 526,64; 2782,115;  201,642; 6312,918;42,22478
 527,22; 2783,694;  205,256; 6437,623;41,37174
 527,80; 2866,983;  236,719; 6572,312;41,51567
 528,39; 2872,513;  198,566; 6642,739;41,49403
 528,97; 2906,291;  208,104; 6801,547;40,92228
 529,55; 2994,360;  220,407; 6957,521;41,17420
 530,14; 3065,635;  235,106; 7192,151;40,68580
 530,72; 3058,412;  207,873; 7244,031;40,51273
 531,30; 3104,076;  192,029; 7386,142;40,47819
 531,89; 3141,669;  207,337; 7443,054;40,55344
 532,47; 3184,528;  227,107; 7555,488;40,35572
 533,05; 3173,323;  229,103; 7586,675;40,01619
 533,63; 3207,903;  238,338; 7661,601;40,00349
 534,22; 3160,782;  206,646; 7650,272;39,68678
 534,80; 3196,787;  229,956; 7756,442;39,41854
 535,38; 3284,780;  257,183; 7765,727;40,32202
 535,97; 3170,748;  221,722; 7771,137;39,06297
 536,55; 3213,007;  262,034; 7825,477;39,01627
 537,13; 3204,713;  277,337; 7838,921;38,71379
 537,71; 3238,657;  302,259; 7900,468;38,64592
 538,30; 3214,267;  325,262; 7929,212;37,99348
 538,88; 3267,945;  330,728; 8040,610;38,09679
 539,46; 3341,138;  394,726; 8214,848;37,67732
 540,05; 3339,647;  407,804; 8356,725;36,88353
 540,63; 3424,108;  449,958; 8595,188;36,51402
 541,21; 3479,826;  471,729; 8734,824;36,40400
 541,79; 3534,881;  505,344; 8748,505;36,75212
 542,38; 3552,745;  510,804; 8920,734;36,17083
 542,96; 3598,072;  545,039; 9082,034;35,76238
 543,54; 3669,397;  560,113; 9293,953;35,60042
 544,12; 3657,244;  513,499; 9353,266;35,56367
 544,70; 3683,050;  489,808; 9488,717;35,48477
 545,29; 3738,723;  510,804; 9593,954;35,53744
 545,87; 3759,188;  476,652; 9620,812;35,89763
 546,45; 3688,030;  453,650; 9631,030;35,24296
 547,03; 3751,220;  423,266; 9718,862;35,80140
 547,62; 3768,596;  398,114; 9908,979;35,43822
 548,20; 3800,489;  402,115;10032,472;35,28814
 548,78; 3835,631;  376,967;10148,493;35,39533
 549,36; 3877,399;  340,736;10351,490;35,32864
 549,94; 3848,245;  316,499;10480,654;34,74707
 550,53; 3921,265;  316,581;10703,572;34,70384
 551,11; 3963,699;  283,122;10923,378;34,59105
 551,69; 4057,541;  304,659;11212,214;34,40627
 552,27; 4094,571;  267,580;11428,796;34,28830
 552,85; 4178,885;  274,430;11835,740;33,77174
 553,44; 4267,717;  268,966;12104,378;33,78633
 554,02; 4356,697;  278,582;12438,065;33,53855
 554,60; 4408,128;  234,045;12691,094;33,50779
 555,18; 4498,300;  275,197;13120,094;32,87767
 555,76; 4581,400;  239,813;13420,340;32,93940
 556,34; 4718,384;  254,817;13760,810;33,04879
 556,93; 4821,718;  237,197;14199,150;32,83581
 557,51; 4863,373;  227,432;14489,844;32,50461
 558,09; 4978,069;  245,197;14817,633;32,47825
 558,67; 5078,498;  243,357;15189,183;32,35111
 559,25; 5134,770;  247,433;15482,584;32,07935
 559,83; 5157,665;  238,358;15719,312;31,77651
 560,41; 5284,526;  233,508;16087,916;31,85876
 561,00; 5357,443;  241,742;16431,733;31,59792
 561,58; 5423,800;  233,893;16715,398;31,48928
 562,16; 5491,885;  216,045;16926,433;31,57222
 562,74; 5533,422;  212,736;17302,582;31,13361
 563,32; 5628,236;  204,743;17709,367;30,98320
 563,90; 5735,201;  227,357;18080,919;30,85011
 564,48; 5832,052;  237,431;18492,637;30,64672
 565,06; 5976,079;  229,049;19107,280;30,44263
 565,65; 6155,615;  240,130;19810,877;30,22616
 566,23; 6317,630;  269,126;20494,327;29,90578
 566,81; 6464,649;  233,048;21195,100;29,72801
 567,39; 6748,567;  236,897;22007,612;29,91022
 567,97; 6879,617;  247,818;22584,509;29,69016
 568,55; 7121,763;  250,512;23297,783;29,81373
 569,13; 7255,465;  225,588;24045,052;29,51316
 569,71; 7466,380;  233,737;24966,026;29,24372
 570,29; 7746,201;  273,351;25910,622;29,14838
 570,87; 7909,621;  261,198;26477,221;29,17461
 571,45; 7992,486;  261,587;27165,677;28,73503
 572,03; 8109,359;  220,821;27571,550;28,84215
 572,61; 8271,631;  225,666;28244,947;28,71582
 573,20; 8427,923;  250,817;28890,965;28,55120
 573,78; 8513,247;  235,897;29425,795;28,35690
 574,36; 8647,224;  240,665;29911,703;28,33254
 574,94; 8690,382;  280,591;30121,872;28,18174
 575,52; 8628,993;  241,517;30511,695;27,70871
 576,10; 8826,200;  291,054;31086,291;27,71580
 576,68; 8878,634;  282,744;31625,802;27,42518
 577,26; 9041,831;  303,057;32195,967;27,40037
 577,84; 9116,906;  306,973;32611,430;27,27157
 578,42; 9175,230;  320,053;32823,877;27,24349
 579,00; 9084,258;  281,743;32923,685;26,96689
 579,58; 9083,745;  313,745;33195,785;26,67110
 580,16; 9028,836;  298,669;33200,298;26,53415
 580,74; 9021,605;  291,208;33374,530;26,38912
 581,32; 8953,757;  300,130;33410,523;26,13568
 581,90; 8914,627;  305,515;33463,770;25,96371
 582,48; 8890,847;  312,285;33582,034;25,78487
 583,06; 8931,515;  315,053;33676,708;25,82744
 583,64; 8836,284;  316,283;33703,784;25,51853
 584,22; 8716,379;  320,364;33508,775;25,29803
 584,80; 8580,143;  325,669;33213,834;25,09861
 585,38; 8479,977;  323,432;32860,721;25,06830
 585,96; 8392,633;  310,820;33022,875;24,70592
 586,54; 8373,026;  318,364;33149,442;24,53365
 587,12; 8340,156;  286,439;33255,962;24,42776
 587,70; 8327,095;  325,513;33363,338;24,21946
 588,28; 8296,496;  309,516;33454,632;24,09701
 588,86; 8253,751;  300,594;33503,109;23,95348
 589,44; 8222,142;  290,674;33579,515;23,82621
 590,02; 8241,448;  302,520;33847,971;23,66618
 590,59; 8190,202;  282,594;34058,991;23,41164
 591,17; 8185,918;  279,216;34230,921;23,28808
 591,75; 8191,562;  274,906;34303,040;23,26503
 592,33; 8185,824;  283,444;34606,935;23,02324
 592,91; 8155,938;  244,985;34776,080;22,90965
 593,49; 8235,546;  253,371;35071,047;22,92564
 594,07; 8228,260;  263,525;35338,518;22,70773
 594,65; 8154,137;  271,518;35305,345;22,50002
 595,23; 8199,678;  263,442;35704,816;22,39257
 595,81; 8154,570;  257,136;35816,843;22,20894
 596,39; 8112,472;  250,828;35926,065;22,03670
 596,97; 8122,455;  255,831;36111,377;21,93977
 597,55; 8038,183;  240,826;35993,988;21,80886
 598,12; 7988,899;  236,603;36068,843;21,63498
 598,70; 7868,379;  232,216;36139,073;21,26659
 599,28; 7922,950;  254,601;36338,205;21,25162
 599,86; 7882,807;  237,831;36291,325;21,20454
 600,44; 7771,589;  216,140;36436,836;20,85948
 601,02; 7787,641;  261,221;36439,421;20,80374
 601,60; 7720,694;  247,599;36397,721;20,67239
 602,18; 7592,536;  216,449;36499,237;20,32944
 602,75; 7555,800;  235,828;36593,380;20,13329
 603,33; 7550,434;  254,832;36540,755;20,10588
 603,91; 7476,968;  237,066;36474,192;19,97924
 604,49; 7494,995;  252,755;36542,613;19,95665
 605,07; 7415,287;  258,753;36635,556;19,67335
 605,65; 7418,974;  282,756;36690,684;19,60073
 606,23; 7413,421;  328,517;36932,868;19,35536
 606,80; 7388,163;  373,674;36857,292;19,22641
 607,38; 7325,802;  396,142;36917,222;18,97441
 607,96; 7317,569;  440,135;37008,149;18,80724
 608,54; 7292,568;  498,910;36939,365;18,64318
 609,12; 7238,042;  479,520;37112,963;18,44905
 609,70; 7166,334;  541,985;37063,280;18,13832
 610,27; 7126,909;  529,135;37074,355;18,05373
 610,85; 7158,532;  540,293;37183,224;18,06144
 611,43; 7052,368;  553,985;37109,798;17,77661
 612,01; 6978,913;  521,060;36852,520;17,77482
 612,59; 6909,477;  503,293;36913,082;17,59468
 613,16; 6877,863;  475,364;36907,017;17,57400
 613,74; 6770,929;  436,986;36680,503;17,47607
 614,32; 6741,502;  405,217;36699,026;17,45831
 614,90; 6702,266;  388,830;36572,010;17,44854
 615,48; 6569,578;  326,673;36291,955;17,35814
 616,05; 6539,466;  318,364;36316,894;17,28155
 616,63; 6469,124;  335,594;36081,449;17,15872
 617,21; 6409,975;  335,289;35943,619;17,05973
 617,79; 6330,439;  304,598;35937,010;16,91112
 618,36; 6268,188;  316,676;35841,852;16,75294
 618,94; 6131,535;  260,596;35553,473;16,63491
 619,52; 6087,663;  279,132;35302,297;16,58483
 620,10; 6047,482;  279,597;35257,952;16,48987
 620,67; 5948,311;  288,286;35267,658;16,18104
 621,25; 5908,837;  297,445;35054,908;16,14442
 621,83; 5847,392;  276,981;35003,594;16,04076
 622,41; 5839,743;  312,673;34994,769;15,93638
 622,98; 5775,992;  295,517;34788,382;15,88872
 623,56; 5713,969;  289,132;34648,830;15,78837
 624,14; 5651,707;  278,215;34632,925;15,64121
 624,72; 5594,502;  280,904;34474,956;15,53954
 625,29; 5512,694;  250,901;34648,732;15,29688
 625,87; 5541,922;  295,905;34525,560;15,32594
 626,45; 5444,331;  254,439;34365,277;15,21479
 627,02; 5439,450;  260,136;34267,210;15,23011
 627,60; 5356,534;  250,448;34253,692;15,01647
 628,18; 5308,504;  239,135;34411,194;14,83483
 628,76; 5321,685;  247,363;34361,230;14,87466
 629,33; 5292,050;  266,672;34281,303;14,77416
 629,91; 5269,713;  254,828;34312,491;14,72469
 630,49; 5247,181;  273,056;34532,981;14,51878
 631,06; 5243,619;  273,440;34614,352;14,47305
 631,64; 5166,870;  265,054;34578,663;14,28534
 632,22; 5093,614;  221,514;34463,337;14,22851
 632,79; 5158,186;  254,668;34729,084;14,22364
 633,37; 5100,210;  228,368;34782,246;14,09926
 633,95; 5104,253;  246,054;34913,123;14,01387
 634,52; 5055,293;  228,365;35002,582;13,88077
 635,10; 5056,899;  236,135;35039,621;13,85138
 635,68; 5048,471;  240,438;35272,150;13,72480
 636,25; 5033,753;  236,666;35177,819;13,72905
 636,83; 4980,608;  216,209;35381,999;13,54839
 637,41; 5001,525;  223,283;35414,674;13,57787
 637,98; 4999,393;  244,283;35637,684;13,43502
 638,56; 4986,356;  244,666;35753,387;13,35360
 639,13; 4961,431;  241,439;35737,832;13,29710
 639,71; 4995,905;  247,902;35908,957;13,31425
 640,29; 4866,528;  205,210;35762,911;13,10917
 640,86; 4890,746;  214,440;35942,860;13,08848
 641,44; 4828,195;  223,902;35880,809;12,91277
 642,02; 4797,182;  249,979;35828,604;12,78072
 642,59; 4829,554;  222,518;36029,629;12,86626
 643,17; 4773,695;  232,825;35919,039;12,72444
 643,74; 4741,452;  222,826;35934,604;12,65304
 644,32; 4734,516;  253,210;35927,321;12,56179
 644,89; 4687,041;  234,364;35959,886;12,46357
 645,47; 4696,182;  255,595;35941,834;12,44342
 646,05; 4606,093;  230,134;35848,783;12,28558
 646,62; 4583,849;  232,442;35882,039;12,20605
 647,20; 4604,452;  242,672;36112,911;12,15988
 647,77; 4505,439;  215,365;35928,706;12,01253
 648,35; 4503,349;  213,827;35818,501;12,04764
 648,92; 4460,952;  239,750;35843,065;11,85621
 649,50; 4416,708;  212,134;35661,168;11,86090
 650,08; 4404,465;  212,288;35680,655;11,81948
 650,65; 4383,760;  218,596;35981,911;11,64647
 651,23; 4440,824;  214,366;36897,552;11,52151
 651,80; 4541,119;  214,981;37642,501;11,55871
 652,38; 4609,337;  213,366;37967,834;11,64358
 652,95; 4592,709;  199,981;38213,552;11,55568
 653,53; 4608,388;  215,828;38490,578;11,47639
 654,10; 4662,760;  239,135;38697,911;11,50225
 654,68; 4561,901;  214,059;38573,168;11,33458
 655,25; 4548,273;  208,136;38645,732;11,29139
 655,83; 4530,568;  204,059;38553,757;11,28173
 656,40; 4547,709;  236,597;38588,398;11,24096
 656,98; 4487,081;  191,674;38522,962;11,20601
 657,55; 4472,760;  217,290;38404,526;11,14370
 658,13; 4396,363;  199,290;37955,321;11,11630
 658,70; 4365,427;  222,675;37674,424;11,06157
 659,28; 4237,645;  216,290;36633,065;11,04259
 659,85; 4124,248;  209,136;36135,014;10,89775
 660,43; 4175,081;  223,137;36336,116;10,94328
 661,00; 4104,837;  218,367;36416,296;10,73672
 661,58; 4103,440;  206,829;36804,860;10,64705
 662,15; 4148,581;  199,598;36927,116;10,75211
 662,73; 4221,722;  253,445;37190,603;10,74332
 663,30; 4150,709;  211,522;37452,321;10,57761
 663,88; 4175,466;  216,906;37644,732;10,57651
 664,45; 4193,915;  198,137;37898,142;10,59888
 665,03; 4199,056;  203,599;38142,783;10,53121
 665,60; 4298,812;  250,753;38596,501;10,55674
 666,17; 4228,569;  229,676;38695,449;10,39598
 666,75; 4227,710;  214,138;39011,552;10,34495
 667,32; 4297,235;  230,138;39367,347;10,39189
 667,90; 4261,684;  219,138;39536,373;10,28187
 668,47; 4317,056;  228,677;39874,244;10,31232
 669,05; 4312,505;  211,061;39996,501;10,30891
 669,62; 4285,877;  192,677;40150,449;10,24381
 670,19; 4276,095;  197,754;40308,244;10,16777
 670,77; 4291,697;  225,369;40470,347;10,10394
 671,34; 4309,146;  203,216;40401,296;10,21424
 671,92; 4296,364;  200,908;40641,090;10,12719
 672,49; 4300,043;  228,370;40657,116;10,07123
 673,06; 4264,800;  185,139;40744,603;10,05847
 673,64; 4273,479;  200,293;40715,783;10,05341
 674,21; 4247,851;  203,447;40643,116;10,00108
 674,79; 4219,454;  214,986;40860,219; 9,85225
 675,36; 4271,980;  218,370;40951,475; 9,95163
 675,93; 4223,659;  192,601;40879,655; 9,90747
 676,51; 4271,954;  219,217;41050,988; 9,92545
 677,08; 4271,326;  209,832;41056,244; 9,94333
 677,65; 4269,544;  213,063;41272,347; 9,87957
 678,23; 4298,454;  222,678;41479,142; 9,87912
 678,80; 4264,134;  198,063;41606,321; 9,81947
 679,38; 4292,813;  198,140;41665,578; 9,87443
 679,95; 4320,954;  205,910;41906,680; 9,86803
 680,52; 4292,941;  205,217;42264,706; 9,71891
 681,10; 4338,621;  208,602;42664,270; 9,72784
 681,67; 4413,377;  215,295;42842,988; 9,84825
 682,24; 4318,980;  192,525;42907,860; 9,66036
 682,82; 4396,198;  200,372;43501,731; 9,68983
 683,39; 4458,262;  220,526;43827,680; 9,71798
 683,96; 4495,480;  204,910;44027,398; 9,79079
 684,54; 4484,083;  198,603;44335,962; 9,70942
 685,11; 4543,762;  213,064;44627,372; 9,75068
 685,68; 4593,903;  217,372;45138,936; 9,74261
 686,25; 4568,044;  200,526;45056,270; 9,73681
 686,83; 4589,416;  198,988;45233,834; 9,74896
 687,40; 4633,403;  188,680;45592,321; 9,78935
 687,97; 4723,621;  220,911;45945,270; 9,84751
 688,55; 4647,301;  192,450;45935,757; 9,73880
 689,12; 4659,442;  172,142;46284,090; 9,73132
 689,69; 4647,429;  198,912;46247,885; 9,66041
 690,26; 4678,647;  208,681;46431,295; 9,67052
 690,84; 4699,481;  206,142;46576,398; 9,69013
 691,41; 4706,622;  211,527;46637,039; 9,68238
 691,98; 4776,994;  201,450;46955,988; 9,78631
 692,56; 4741,673;  191,297;46925,936; 9,73662
 693,13; 4820,660;  245,989;46981,808; 9,78836
 693,70; 4765,109;  216,374;47265,911; 9,66797
 694,27; 4754,404;  201,605;47251,783; 9,67648
 694,84; 4782,699;  197,989;47445,808; 9,70354
 695,42; 4854,148;  234,143;47548,680; 9,76445
 695,99; 4841,673;  209,605;47752,629; 9,74290
 696,56; 4807,507;  191,990;47522,039; 9,75177
 697,13; 4860,186;  216,759;47883,449; 9,74145
 697,71; 4870,635;  174,144;47968,859; 9,82638
 698,28; 4884,238;  209,144;48263,270; 9,72881
 698,85; 4841,379;  176,452;48328,295; 9,68795
 699,42; 4886,058;  183,836;48525,782; 9,72700
 699,99; 4932,738;  213,221;48554,193; 9,76297
 700,57; 4949,340;  212,760;48558,526; 9,79730
 701,14; 4909,712;  201,529;48630,013; 9,72193
 701,71; 4955,315;  219,068;48850,885; 9,73899
 702,28; 4968,840;  207,606;48955,218; 9,76711
 702,85; 4985,212;  212,453;48956,398; 9,79149
 703,43; 5001,815;  220,837;49281,116; 9,74511
 704,00; 5047,494;  237,453;49439,295; 9,77614
 704,57; 5033,020;  222,222;49498,013; 9,76301
 705,14; 5124,469;  249,222;49716,347; 9,85553
 705,71; 5102,687;  244,838;49741,526; 9,81449
 706,28; 5037,136;  221,607;49605,705; 9,75117
 706,86; 5136,123;  251,146;49934,808; 9,83216
 707,43; 5154,572;  247,915;49806,141; 9,90079
 708,00; 5167,174;  226,761;49852,090; 9,95543
 708,57; 5131,469;  215,454;49729,808; 9,92847
 709,14; 5171,379;  240,531;49911,603; 9,92700
 709,71; 5141,290;  229,762;49930,552; 9,88219
 710,28; 5221,662;  222,300;50118,577;10,01951
 710,86; 5234,880;  228,454;50245,064;10,00953
 711,43; 5261,251;  239,608;50219,244;10,04738
 712,00; 5263,700;  226,377;50416,808;10,03642
 712,57; 5289,918;  230,608;50404,141;10,08362
 713,14; 5302,828;  210,993;50588,936;10,10727
 713,71; 5309,662;  226,993;50438,577;10,12250
 714,28; 5309,418;  222,378;50538,064;10,11025
 714,85; 5304,405;  199,840;50280,013;10,19279
 715,42; 5360,623;  226,378;50523,654;10,20780
 716,00; 5423,995;  243,532;50616,064;10,28430
 716,57; 5387,598;  210,686;50737,705;10,24583
 717,14; 5380,354;  207,532;50656,577;10,25356
 717,71; 5384,188;  195,994;50707,218;10,27137
 718,28; 5470,790;  230,994;50710,475;10,38005
 718,85; 5417,624;  201,763;50882,500;10,29160
 719,42; 5500,303;  228,763;50995,526;10,38384
 719,99; 5481,214;  203,764;50804,705;10,42955
 720,56; 5527,739;  210,148;50936,731;10,48285
 721,13; 5563,265;  209,456;51194,834;10,50067
 721,70; 5548,329;  203,764;51025,859;10,51622
 722,27; 5609,701;  224,149;51067,731;10,59239
 722,84; 5688,919;  250,764;51268,449;10,65935
 723,41; 5643,060;  198,918;51284,475;10,65691
 723,98; 5680,047;  211,764;51411,500;10,68029
 724,55; 5719,573;  226,918;51542,372;10,70370
 725,12; 5712,022;  175,765;51439,475;10,79956
 725,69; 5795,855;  195,457;51638,654;10,88657
 726,27; 5766,304;  218,073;51742,372;10,76818
 726,84; 5883,445;  204,150;51964,167;10,97236
 727,41; 5884,663;  212,457;51888,654;10,97644
 727,98; 5922,727;  228,996;52293,526;10,93591
 728,55; 5958,714;  240,304;52202,090;11,00503
 729,12; 5938,932;  188,304;52239,116;11,04810
 729,69; 6007,689;  229,535;52379,218;11,07994
 730,26; 6088,368;  237,458;52591,090;11,17575
 730,82; 6065,278;  219,612;52422,346;11,19801
 731,39; 6094,035;  213,381;52453,141;11,25705
 731,96; 6132,022;  203,920;52856,398;11,25892
 732,53; 6211,932;  226,689;53030,731;11,33482
 733,10; 6230,920;  226,766;53117,295;11,35204
 733,67; 6287,215;  227,997;53310,936;11,41462
 734,24; 6242,509;  202,074;53044,577;11,43102
 734,81; 6321,574;  234,536;53106,218;11,51285
 735,38; 6312,715;  222,151;52852,013;11,57245
 735,95; 6261,240;  211,536;52603,269;11,54706
 736,52; 6324,458;  229,075;52873,295;11,57845
 737,09; 6335,753;  223,613;52528,936;11,68550
 737,66; 6402,587;  259,998;52727,962;11,70731
 738,23; 6407,651;  212,536;52716,833;11,79925
 738,80; 6449,561;  243,537;52981,321;11,76770
 739,37; 6484,318;  244,921;53152,423;11,79303
 739,94; 6554,228;  216,614;53225,987;11,95565
 740,51; 6647,907;  285,614;53235,551;12,01568
 741,07; 6612,048;  213,460;53193,192;12,07743
 741,64; 6658,805;  250,845;53421,680;12,05164
 742,21; 6696,177;  213,691;53418,397;12,18405
 742,78; 6702,472;  199,076;53317,654;12,24317
 743,35; 6749,382;  212,307;53527,372;12,26122
 743,92; 6834,677;  239,922;53673,705;12,34192
 744,49; 6848,818;  228,538;53473,038;12,43374
 745,06; 6805,882;  221,153;53502,679;12,35837
 745,63; 6821,562;  207,769;53506,859;12,40883
 746,19; 6878,549;  204,461;53486,731;12,52591
 746,76; 6908,305;  227,461;53512,295;12,53798
 747,33; 6950,754;  209,846;53499,628;12,64953
 747,90; 7005,203;  250,692;53724,808;12,63136
 748,47; 6991,113;  227,538;53562,064;12,68142
 749,04; 7066,408;  223,231;53529,167;12,83755
 749,61; 7050,011;  252,308;53569,577;12,74953
 750,17; 7105,613;  245,923;53672,526;12,83946
 750,74; 7143,216;  235,385;53563,628;12,95342
 751,31; 7122,049;  216,462;53425,961;12,97811
 751,88; 7168,652;  193,924;53346,602;13,12206
 752,45; 7263,716;  223,385;53511,705;13,21177
 753,02; 7260,780;  219,847;53247,961;13,27774
 753,58; 7256,998;  212,770;53233,987;13,28568
 754,15; 7299,908;  221,232;53361,782;13,32067
 754,72; 7293,049;  203,386;53129,808;13,39532
 755,29; 7312,652;  203,232;52960,295;13,47577
 755,86; 7344,255;  218,463;53042,705;13,48962
 756,42; 7412,242;  231,694;52985,500;13,61143
 756,99; 7380,460;  193,079;52925,218;13,62998
 757,56; 7401,909;  199,694;52876,936;13,67235
 758,13; 7442,357;  170,848;52870,423;13,79804
 758,70; 7519,268;  200,925;52910,141;13,88437
 759,26; 7553,255;  188,694;53011,859;13,94191
 759,83; 7567,781;  199,233;53054,654;13,94095
 760,40; 7608,691;  196,772;52818,372;14,08532
 760,97; 7627,370;  191,079;52962,936;14,09140
 761,53; 7566,896;  172,849;52580,500;14,10872
 762,10; 7621,499;  177,233;52356,295;14,26677
 762,67; 7677,101;  213,541;52537,628;14,26410
 763,24; 7653,627;  160,234;52032,808;14,44577
 763,80; 7691,230;  194,080;52238,525;14,40528
 764,37; 7665,217;  203,003;52183,397;14,35582
 764,94; 7645,358;  180,234;51684,884;14,49408
 765,50; 7719,191;  187,773;51726,602;14,61310
 766,07; 7770,255;  224,003;51775,013;14,63842
 766,64; 7731,704;  189,004;51473,346;14,70761
 767,21; 7745,999;  189,311;51294,602;14,78651
 767,77; 7792,371;  215,158;51205,013;14,86024
 768,34; 7838,666;  215,312;51156,192;14,96510
 768,91; 7793,576;  212,696;50949,372;14,94162
 769,47; 7861,025;  210,543;51145,936;15,01997
 770,04; 7870,781;  211,158;50914,423;15,10677
 770,61; 7872,384;  195,697;50671,679;15,20859
 771,18; 7858,987;  192,389;50442,705;15,25681
 771,74; 7901,435;  216,620;50729,730;15,21351
 772,31; 7936,653;  204,620;50426,064;15,39588
 772,88; 7902,102;  186,389;50187,859;15,43097
 773,44; 7880,397;  196,005;50019,115;15,42335
 774,01; 7961,923;  210,467;50119,679;15,53111
 774,58; 7985,371;  199,621;49828,474;15,68795
 775,14; 8026,820;  181,621;49953,961;15,76217
 775,71; 8107,577;  201,313;49833,218;15,92980
 776,27; 8085,256;  234,467;49778,320;15,84614
 776,84; 8156,628;  237,698;49654,269;16,02485
 777,41; 8139,692;  210,544;49612,833;16,05016
 777,97; 8126,910;  204,852;49278,474;16,14321
 778,54; 8164,051;  213,852;49405,807;16,16158
 779,11; 8222,192;  225,929;49390,756;16,26419
 779,67; 8233,179;  189,006;49313,012;16,37524
 780,24; 8282,244;  208,468;49079,577;16,52055
 780,80; 8324,385;  224,083;49116,833;16,56749
 781,37; 8358,449;  219,622;49091,320;16,65346
 781,94; 8306,667;  211,930;48932,192;16,61472
 782,50; 8386,654;  224,237;48807,448;16,80090
 783,07; 8404,949;  244,622;48741,474;16,82651
 783,63; 8437,398;  205,007;48523,269;17,03785
 784,20; 8488,616;  226,776;48534,679;17,10246
 784,77; 8471,218;  221,315;48376,012;17,13208
 785,33; 8474,898;  199,007;48104,423;17,27548
 785,90; 8455,731;  209,623;48097,371;17,21966
 786,46; 8547,642;  240,854;48043,243;17,37735
 787,03; 8507,244;  197,315;47845,269;17,44026
 787,59; 8554,001;  205,700;47659,294;17,59256
 788,16; 8540,680;  221,239;47735,935;17,50920
 788,73; 8557,283;  222,931;47517,730;17,62213
 789,29; 8539,116;  214,470;47254,448;17,69696
 789,86; 8583,642;  220,547;47044,782;17,86061
 790,42; 8600,321;  225,085;47015,730;17,89938
 790,99; 8597,539;  233,778;46699,987;17,99966
 791,55; 8626,680;  213,470;46680,166;18,10589
 792,12; 8695,283;  228,239;46658,423;18,23608
 792,68; 8620,347;  226,547;46393,910;18,18124
 793,25; 8617,488;  218,086;46124,166;18,29693
 793,81; 8670,168;  254,547;45748,192;18,49845
 794,38; 8593,847;  197,394;45582,602;18,50042
 794,94; 8635,758;  212,701;45458,089;18,61639
 795,51; 8636,822;  225,240;45255,115;18,68000
 796,07; 8589,117;  215,471;44947,987;18,71937
 796,64; 8654,565;  225,240;45052,705;18,80393
 797,20; 8592,014;  223,240;44607,038;18,85547
 797,77; 8535,463;  205,164;44308,217;18,88826
 798,33; 8604,989;  212,010;44102,012;19,12276
 798,90; 8552,822;  249,779;44106,192;18,93233
 799,46; 8542,963;  230,856;43659,602;19,13964
 800,03; 8611,258;  226,779;43527,089;19,36355
 800,59; 8580,707;  235,703;43317,192;19,37028
 801,15; 8572,848;  228,318;43088,448;19,46921
 801,72; 8554,604;  226,549;42737,551;19,59035
 802,28; 8532,053;  248,318;42515,499;19,59850
 802,85; 8534,963;  225,934;42323,679;19,73747
 803,41; 8477,643;  220,165;42166,551;19,68579
 803,98; 8458,322;  213,011;41693,269;19,87768
 804,54; 8477,386;  223,703;41487,140;20,00241
 805,11; 8491,912;  233,319;41345,397;20,08800
 805,67; 8517,053;  249,934;41288,961;20,14453
 806,23; 8474,425;  228,858;40705,140;20,37136
 806,80; 8539,258;  248,319;40766,320;20,46236
 807,36; 8535,938;  249,935;40684,576;20,49234
 807,93; 8556,541;  249,396;40466,602;20,65570
 808,49; 8510,451;  213,704;40178,704;20,76003
 809,05; 8494,053;  203,397;39916,961;20,87613
 809,62; 8537,887;  230,089;39845,140;20,97132
 810,18; 8580,797;  237,012;39721,704;21,13170
 810,74; 8506,631;  202,858;39411,653;21,17834
 811,31; 8543,233;  217,551;39334,371;21,28415
 811,87; 8565,836;  219,166;39072,704;21,48239
 812,44; 8593,746;  253,013;39130,807;21,45372
 813,00; 8520,810;  195,090;38864,833;21,53032
 813,56; 8614,413;  232,628;38881,704;21,68689
 814,13; 8619,785;  221,859;38738,038;21,80363
 814,69; 8567,080;  229,782;38666,602;21,69091
 815,25; 8571,144;  206,013;38191,781;22,02175
 815,82; 8636,900;  240,936;38140,422;22,15324
 816,38; 8587,580;  254,475;38017,756;22,06669
 816,94; 8482,105;  212,321;37665,089;22,08057
 817,51; 8492,016;  213,398;37457,192;22,22818
 818,07; 8559,926;  216,091;37184,448;22,57021
 818,63; 8492,759;  232,629;37068,704;22,42402
 819,20; 8467,131;  228,014;36976,499;22,42029
 819,76; 8492,426;  211,168;36605,448;22,75428
 820,32; 8489,259;  258,476;36546,781;22,68164
 820,89; 8498,247;  253,322;36374,730;22,82559
 821,45; 8452,465;  219,861;36082,217;22,95612
 822,01; 8470,067;  241,399;35794,012;23,14504
 822,57; 8481,285;  239,092;35651,807;23,27467
 823,14; 8458,503;  203,246;35501,448;23,38719
 823,70; 8407,490;  211,861;35213,474;23,41501
 824,26; 8376,324;  217,323;35068,730;23,41082
 824,82; 8456,773;  235,323;34948,525;23,68393
 825,39; 8419,760;  221,323;34589,166;23,85496
 825,95; 8381,593;  248,785;34705,653;23,60287
 826,51; 8436,657;  234,169;34314,448;24,06814
 827,08; 8482,798;  273,400;34366,012;24,07970
 827,64; 8425,170;  244,554;34154,730;24,12437
 828,20; 8383,773;  216,247;33988,063;24,18444
 828,76; 8444,914;  242,939;33968,935;24,31944
 829,32; 8489,593;  235,170;33638,884;24,71110
 829,89; 8421,196;  205,632;33617,986;24,58840
 830,45; 8413,106;  224,016;33626,781;24,51620
 831,01; 8390,094;  217,324;33354,268;24,66362
 831,57; 8406,927;  226,093;33305,294;24,73105
 832,14; 8452,837;  216,555;33249,704;24,93338
 832,70; 8439,824;  221,171;33008,730;25,06638
 833,26; 8408,966;  198,940;32956,217;25,06321
 833,82; 8471,645;  226,478;32905,320;25,23090
 834,38; 8471,248;  219,017;32890,653;25,25809
 834,95; 8447,543;  213,094;32684,140;25,35936
 835,51; 8464,145;  187,786;32653,012;25,49300
 836,07; 8536,055;  227,479;32678,576;25,60338
 836,63; 8568,350;  246,479;32728,909;25,61961
 837,19; 8584,415;  226,941;32581,166;25,83117
 837,75; 8542,171;  194,479;32266,807;26,02771
 838,32; 8642,004;  241,710;32399,525;26,12209
 838,88; 8635,915;  241,556;32369,704;26,12774
 839,44; 8671,133;  223,095;32338,884;26,30494
 840,00; 8673,428;  218,634;32270,602;26,37839
 840,56; 8634,415;  202,480;31940,166;26,56758
 841,12; 8682,402;  205,018;32017,730;26,64779
 841,68; 8661,235;  198,865;31845,525;26,74017
 842,25; 8677,838;  206,249;31785,704;26,82627
 842,81; 8647,594;  199,634;31575,114;26,92536
 843,37; 8707,812;  201,327;31589,679;27,10077
 843,93; 8737,107;  213,173;31364,781;27,36274
 844,49; 8810,095;  224,173;31529,268;27,42659
 845,05; 8736,928;  196,711;31316,294;27,44322
 845,61; 8800,992;  222,789;31425,320;27,49201
 846,17; 8741,518;  220,019;31247,191;27,46463
 846,73; 8842,967;  222,866;31122,986;27,89666
 847,29; 8822,031;  197,943;30937,089;28,05572
 847,86; 8843,864;  200,327;30937,730;28,12058
 848,42; 8834,851;  189,943;30798,986;28,24299
 848,98; 8834,300;  222,097;30715,935;28,24244
 849,54; 8931,826;  207,712;30736,960;28,57625
 850,10; 8885,582;  218,482;30613,755;28,51463
 850,66; 8837,800;  192,251;30411,781;28,60914
 851,22; 8917,710;  201,636;30333,807;28,92614
 851,78; 8943,698;  241,021;30447,140;28,81097
 852,34; 8944,685;  221,944;30167,012;29,12914
 852,90; 8964,595;  216,252;30150,960;29,22475
 853,46; 8897,582;  205,405;29833,294;29,33782
 854,02; 8999,262;  218,175;29953,473;29,53085
 854,58; 8928,480;  202,944;29552,960;29,72924
 855,14; 8911,236;  198,713;29645,525;29,58732
 855,70; 8865,147;  183,021;29501,935;29,61271
 856,26; 8932,519;  225,791;29355,268;29,88975
 856,82; 8901,506;  194,022;29189,371;30,03062
 857,38; 8918,801;  227,791;29143,935;30,05591
 857,94; 8910,865;  219,099;29065,345;30,13136
 858,50; 8878,467;  216,868;28963,755;30,13056
 859,06; 8867,762;  209,330;28775,550;30,31004
 859,62; 8866,365;  212,022;28668,268;30,41281
 860,18; 8816,506;  207,330;28472,063;30,45907
 860,74; 8787,647;  181,945;28436,089;30,45819
 861,30; 8772,404;  184,715;28172,883;30,68328
 861,86; 8860,160;  218,099;28135,832;30,95545
 862,42; 8842,686;  208,330;28034,704;31,02939
 862,98; 8875,981;  239,792;28063,268;31,03922
 863,54; 8772,583;  215,715;27839,601;30,97634
 864,10; 8856,724;  220,331;27927,165;31,17062
 864,66; 8819,404;  193,485;27719,422;31,33742
 865,22; 8823,929;  215,485;27459,294;31,59780
 865,78; 8806,840;  217,869;27440,396;31,55097
 866,34; 8860,212;  207,870;27400,499;31,81870
 866,90; 8831,122;  213,870;27252,448;31,87021
 867,45; 8768,494;  232,177;27129,550;31,73662
 868,01; 8790,481;  209,101;26938,191;32,10502
 868,57; 8802,853;  211,255;26672,755;32,46830
 869,13; 8756,378;  209,255;26623,935;32,35748
 869,69; 8739,673;  204,409;26609,730;32,32403
 870,25; 8726,738;  198,178;26493,140;32,43420
 870,81; 8762,186;  209,101;26439,396;32,60766
 871,37; 8752,712;  216,563;26233,191;32,81036
 871,93; 8762,699;  219,332;26148,140;32,94932
 872,49; 8734,533;  214,871;25890,242;33,18223
 873,04; 8655,212;  203,025;25747,653;33,08793
 873,60; 8711,276;  193,871;25677,678;33,42281
 874,16; 8683,263;  207,179;25578,627;33,40797
 874,72; 8696,340;  207,717;25468,242;33,60430
 875,28; 8747,494;  229,640;25456,165;33,76547
 875,84; 8766,648;  209,717;25388,012;33,98535
 876,40; 8716,263;  211,948;25365,319;33,80984
 876,95; 8761,648;  222,871;25269,781;34,09114
 877,51; 8782,648;  235,563;25265,165;34,14790
 878,07; 8837,417;  250,563;25309,781;34,26625
 878,63; 8790,263;  205,563;25250,550;34,27712
 879,19; 8913,725;  220,025;25294,012;34,67219
 879,75; 8870,956;  208,871;25332,627;34,47767
 880,30; 8950,340;  216,563;25303,473;34,81408
 880,86; 9030,110;  249,025;25415,165;34,89246
 881,42; 9026,571;  214,871;25455,396;34,91092
 881,98; 9104,648;  213,410;25522,858;35,13012
 882,54; 9133,648;  212,563;25572,473;35,17790
 883,09; 9192,187;  217,025;25738,627;35,16692
 883,65; 9242,494;  199,640;25753,396;35,38757
 884,21; 9395,725;  239,256;26019,242;35,51774
 884,77; 9406,725;  204,179;26052,935;35,60151
 885,32; 9485,187;  214,717;26127,781;35,77527
 885,88; 9570,340;  246,487;26270,396;35,82803
 886,44; 9652,802;  216,256;26388,627;36,05537
 887,00; 9717,725;  226,794;26317,396;36,37682
 887,56; 9727,802;  215,102;26516,781;36,16765
 888,11; 9788,879;  216,025;26523,165;36,38880
 888,67; 9861,725;  247,102;26678,242;36,37612
 889,23; 9873,494;  221,333;26639,242;36,53643
 889,79; 9939,187;  212,871;26599,858;36,86027
 890,34; 9884,956;  213,794;26426,088;36,89552
 890,90;10003,648;  264,794;26637,935;36,92717
 891,46; 9989,187;  201,179;26547,704;37,15104
 892,01;10007,956;  246,717;26550,473;37,10968
 892,57; 9991,417;  247,102;26450,396;37,18737
 893,13; 9966,648;  217,563;26310,319;37,36319
 893,69; 9956,033;  213,487;26244,242;37,42706
 894,24; 9975,340;  227,871;26140,088;37,61727
 894,80; 9945,956;  228,717;26051,550;37,63041
 895,36; 9931,110;  215,794;25912,242;37,80801
 895,91; 9919,802;  220,025;25715,858;38,04456
 896,47; 9919,110;  232,179;25603,165;38,18114
 897,03; 9847,110;  215,871;25433,012;38,19322
 897,58; 9858,494;  226,871;25292,473;38,42566
 898,14; 9851,033;  233,487;25158,165;38,58644
 898,70; 9784,033;  204,333;25020,242;38,60306
 899,25; 9857,263;  219,102;25065,858;38,79042
 899,81; 9840,340;  238,563;24811,088;39,07526
 900,37; 9771,725;  202,487;24664,935;39,11807
 900,92; 9808,110;  216,871;24689,088;39,19236
 901,48; 9794,110;  206,948;24439,627;39,56295
 902,03; 9752,263;  220,179;24370,627;39,46960
 902,59; 9789,340;  224,948;24280,242;39,76003
 903,15; 9740,879;  237,256;24084,012;39,85290
 903,70; 9652,263;  226,410;23891,935;39,82947
 904,26; 9624,648;  206,563;23762,935;39,98105
 904,82; 9634,340;  226,410;23784,550;39,93495
 905,37; 9593,417;  226,179;23583,012;40,10492
 905,93; 9604,802;  205,333;23426,473;40,47807
 906,48; 9593,417;  225,487;23327,319;40,55060
 907,04; 9627,263;  229,871;23371,935;40,60741
 907,60; 9569,648;  214,717;23137,473;40,81067
 908,15; 9532,417;  208,717;22978,473;40,94774
 908,71; 9568,340;  244,487;23058,781;40,86847
 909,26; 9541,956;  204,948;22870,396;41,19490
 909,82; 9512,802;  242,333;22765,935;41,15891
 910,37; 9566,187;  262,025;22674,935;41,51251
 910,93; 9537,956;  215,487;22437,012;41,95243
 911,48; 9489,648;  216,487;22333,012;41,92866
 912,04; 9466,494;  207,333;22260,858;41,98495
 912,60; 9536,263;  210,563;22204,627;42,40099
 913,15; 9493,571;  220,179;22091,627;42,39954
 913,71; 9389,417;  216,025;21865,704;42,37196
 914,26; 9423,725;  209,640;21903,165;42,47389
 914,82; 9428,879;  218,794;21716,165;42,84284
 915,37; 9375,494;  211,179;21795,242;42,45871
 915,93; 9366,725;  243,102;21568,165;42,78357
 916,48; 9322,648;  213,871;21460,473;42,87169
 917,04; 9329,571;  219,410;21340,473;43,13306
 917,59; 9353,417;  245,717;21340,550;43,17503
 918,15; 9270,571;  190,102;21153,781;43,31525
 918,70; 9214,263;  215,487;20980,396;43,33646
 919,26; 9192,110;  221,179;20927,012;43,32562
 919,81; 9184,033;  208,871;20748,319;43,69719
 920,37; 9164,340;  213,640;20701,550;43,68772
 920,92; 9147,340;  223,794;20604,781;43,78368
 921,48; 9105,802;  195,410;20430,242;44,03492
 922,03; 9067,263;  218,025;20399,242;43,84888
 922,59; 9068,725;  202,410;20284,704;44,14991
 923,14; 9032,879;  204,948;20158,396;44,24263
 923,69; 9059,879;  230,410;20127,165;44,37643
 924,25; 9037,494;  223,563;20013,396;44,53767
 924,80; 8919,340;  215,025;19914,627;44,18523
 925,36; 8954,033;  216,563;19836,704;44,53316
 925,91; 8916,571;  213,102;19648,781;44,78089
 926,47; 8893,725;  203,487;19631,088;44,73140
 927,02; 8895,879;  235,640;19501,396;44,95146
 927,57; 8877,725;  222,794;19368,396;45,20584
 928,13; 8883,110;  204,333;19312,319;45,41963
 928,68; 8828,187;  214,256;19174,858;45,43068
 929,24; 8722,033;  190,948;19009,012;45,33455
 929,79; 8724,187;  211,794;18983,088;45,34792
 930,34; 8742,033;  221,717;18895,858;45,62628
 930,90; 8705,571;  200,487;18782,473;45,77059
 931,45; 8704,648;  229,410;18742,088;45,78072
 932,01; 8683,417;  224,871;18605,242;46,01945
 932,56; 8640,187;  230,563;18502,473;46,02487
 933,11; 8691,802;  231,179;18516,781;46,26932
 933,67; 8600,033;  197,102;18280,012;46,46891
 934,22; 8593,802;  216,487;18281,165;46,37401
 934,77; 8590,725;  245,333;18135,704;46,64740
 935,33; 8532,725;  225,640;18075,165;46,53953
 935,88; 8563,340;  225,256;17939,550;47,06981
 936,43; 8515,956;  212,640;17899,242;46,94692
 936,99; 8511,033;  214,333;17770,627;47,25770
 937,54; 8446,110;  202,717;17604,242;47,37167
 938,09; 8446,571;  225,333;17588,704;47,34817
 938,65; 8375,725;  216,256;17445,781;47,35748
 939,20; 8314,571;  197,025;17358,165;47,30190
 939,75; 8335,571;  201,179;17257,396;47,69165
 940,31; 8315,648;  193,717;17228,550;47,67837
 940,86; 8345,187;  223,025;17136,627;48,02148
 941,41; 8354,417;  253,794;17060,704;48,19817
 941,96; 8280,725;  217,563;16938,088;48,22314
 942,52; 8281,187;  218,025;16923,088;48,26777
 943,07; 8279,187;  197,333;16744,319;48,84185
 943,62; 8234,263;  210,179;16712,319;48,62451
 944,18; 8226,725;  197,410;16626,858;48,87149
 944,73; 8255,033;  216,333;16583,473;49,11487
 945,28; 8177,110;  179,410;16355,704;49,44087
 945,83; 8222,725;  208,025;16382,088;49,55279
 946,39; 8221,571;  209,102;16293,396;49,81549
 946,94; 8215,494;  229,640;16191,935;50,02949
 947,49; 8134,187;  205,717;16159,242;49,69729
 948,04; 8179,494;  224,256;16080,935;50,16964
 948,59; 8173,802;  228,640;16028,858;50,28514
 949,15; 8108,110;  194,487;15947,088;50,23693
 949,70; 8121,802;  206,179;15818,165;50,70222
 950,25; 8117,802;  233,563;15749,550;50,81365
 950,80; 8046,802;  181,102;15661,396;50,81105
 951,36; 8002,571;  180,256;15599,858;50,72968
 951,91; 8086,187;  230,717;15597,088;51,12117
 952,46; 7948,033;  180,179;15352,858;51,19632
 953,01; 8035,648;  227,640;15431,012;51,35708
 953,56; 7976,956;  185,640;15285,396;51,59895
 954,11; 8039,187;  218,256;15252,088;52,02220
 954,67; 7928,417;  210,948;15143,165;51,68334
 955,22; 7893,648;  189,025;15032,627;51,90535
 955,77; 7959,802;  233,025;14985,550;52,37596
 956,32; 7946,263;  248,102;14869,550;52,64979
 956,87; 7889,494;  199,102;14740,781;52,88518
 957,42; 7921,571;  202,563;14703,473;53,23120
 957,98; 7853,340;  209,640;14698,088;52,75720
 958,53; 7847,110;  221,640;14588,012;53,07860
 959,08; 7803,417;  191,717;14508,012;53,16809
 959,63; 7817,417;  200,717;14414,012;53,58856
 960,18; 7826,494;  222,794;14310,242;53,97500
 960,73; 7817,802;  211,717;14232,858;54,24726
 961,28; 7782,956;  199,948;14197,319;54,17451
 961,83; 7794,725;  229,871;14126,858;54,43521
 962,39; 7785,340;  199,640;13991,242;55,00231
 962,94; 7710,187;  221,948;13961,319;54,50205
 963,49; 7639,033;  212,487;13818,396;54,58324
 964,04; 7644,033;  228,794;13819,627;54,56059
 964,59; 7583,187;  183,794;13670,627;54,86383
 965,14; 7600,571;  214,871;13636,935;55,02656
 965,69; 7535,956;  213,025;13554,550;54,88826
 966,24; 7531,263;  205,256;13438,550;55,36042
 966,79; 7522,110;  222,333;13380,396;55,47759
 967,34; 7445,571;  188,410;13282,704;55,42232
 967,89; 7447,802;  203,794;13182,165;55,81600
 968,44; 7384,417;  206,794;13090,627;55,71031
 968,99; 7345,648;  217,871;13085,935;55,39122
 969,55; 7304,956;  219,487;13056,319;55,19640
 970,10; 7251,956;  216,871;12974,165;55,14559
 970,65; 7226,033;  218,948;12846,550;55,49022
 971,20; 7180,110;  207,410;12765,550;55,52335
 971,75; 7106,956;  195,179;12632,165;55,57437
 972,30; 7124,110;  209,102;12537,704;56,08915
 972,85; 7069,725;  209,025;12490,165;55,86370
 973,40; 7012,725;  197,487;12359,550;56,03686
 973,95; 7028,802;  211,179;12289,627;56,44453
 974,50; 7023,187;  235,256;12209,704;56,68679
 975,05; 6934,263;  219,179;12147,781;56,29398
 975,60; 6939,648;  227,640;12128,858;56,39766
 976,15; 6884,187;  210,948;12005,858;56,57728
 976,70; 6823,571;  227,487;11875,704;56,62742
 977,25; 6803,802;  219,871;11847,858;56,62142
 977,80; 6730,494;  212,333;11696,550;56,75756
 978,35; 6674,187;  219,563;11599,396;56,71984
 978,89; 6662,417;  192,025;11549,088;56,97241
 979,44; 6648,956;  208,871;11497,319;57,05022
 979,99; 6565,571;  200,025;11345,242;57,11460
 980,54; 6536,571;  231,794;11301,550;56,95498
 981,09; 6494,033;  228,333;11217,781;57,01560
 981,64; 6460,802;  222,102;11083,627;57,43853
 982,19; 6533,033;  248,025;11040,088;58,23731
 982,74; 6417,879;  232,410;10919,473;57,87810
 983,29; 6345,110;  199,717;10854,550;57,67704
 983,84; 6308,956;  230,563;10682,242;58,15709
 984,39; 6359,110;  236,871;10666,781;58,69886
 984,94; 6250,494;  202,640;10536,242;58,52610
 985,49; 6267,263;  239,487;10394,242;59,35915
 986,03; 6243,725;  239,563;10423,550;58,95689
 986,58; 6173,725;  254,487;10223,473;59,37653
 987,13; 6154,879;  227,179;10117,550;59,93405
 987,68; 6076,648;  231,179;10047,935;59,54584
 988,23; 6087,571;  233,794;10004,858;59,90931
 988,78; 6004,340;  215,333; 9885,704;59,86335
 989,33; 5948,110;  228,794; 9824,473;59,60303
 989,88; 5990,571;  239,179; 9742,935;60,51705
 990,42; 5881,648;  226,179; 9603,627;60,30926
 990,97; 5811,494;  222,717; 9473,012;60,41729
 991,52; 5826,110;  244,487; 9536,704;60,06772
 992,07; 5811,494;  244,410; 9348,550;61,14893
 992,62; 5730,725;  231,410; 9293,319;60,68605
 993,17; 5701,187;  230,179; 9157,781;61,28194
 993,71; 5673,033;  234,487; 9069,088;61,55961
 994,26; 5603,340;  212,948; 8950,781;61,69027
 994,81; 5603,033;  247,102; 8892,858;61,94867
 995,36; 5514,571;  219,256; 8732,396;62,20167
 995,91; 5511,879;  229,102; 8727,165;62,16448
 996,45; 5403,033;  231,794; 8630,473;61,57205
 997,00; 5366,725;  209,025; 8499,165;62,21487
 997,55; 5389,802;  227,640; 8491,012;62,47041
 998,10; 5304,571;  248,179; 8363,935;62,30341
 998,65; 5295,648;  223,179; 8317,012;62,67079
 999,19; 5229,110;  239,333; 8162,627;62,97604
 999,74; 5199,494;  250,487; 8063,088;63,34647
1000,29; 5146,110;  242,179; 8035,012;62,92873
1000,84; 5042,187;  220,871; 7901,627;62,77137
1001,38; 5034,802;  221,563; 7804,935;63,47096
1001,93; 4999,725;  249,948; 7778,012;63,09427
1002,48; 4914,802;  219,102; 7667,704;63,04136
1003,03; 4892,417;  224,794; 7615,242;63,15751
1003,57; 4829,187;  242,179; 7510,781;63,10715
1004,12; 4804,725;  242,794; 7420,704;63,55514
1004,67; 4759,648;  227,410; 7327,473;63,83377
1005,22; 4667,956;  214,871; 7172,242;64,00528
1005,76; 4569,648;  206,487; 7067,858;63,59023
1006,31; 4606,110;  237,794; 7078,165;63,86079
1006,86; 4533,033;  224,256; 6927,012;64,28366
1007,40; 4465,187;  201,487; 6818,473;64,43568
1007,95; 4447,725;  219,333; 6702,781;65,21826
1008,50; 4368,879;  224,794; 6639,858;64,59928
1009,04; 4333,033;  235,256; 6551,935;64,87233
1009,59; 4289,110;  233,871; 6451,165;65,22513
1010,14; 4200,725;  211,717; 6324,012;65,26204
1010,68; 4149,802;  223,948; 6220,088;65,47301
1011,23; 4100,494;  192,563; 6125,396;65,86956
1011,78; 4074,879;  228,410; 6082,473;65,70597
1012,32; 3983,494;  224,179; 5967,781;65,45223
1012,87; 3999,956;  245,640; 5984,319;65,42125
1013,42; 3918,494;  216,410; 5836,396;65,87355
1013,96; 3960,956;  239,871; 5882,627;65,94446
1014,51; 3866,417;  192,487; 5748,935;66,12013
1015,06; 3903,263;  199,179; 5721,319;67,07697
1015,60; 3954,648;  262,179; 5859,165;65,97245
1016,15; 3943,879;  220,256; 5778,165;66,99683
1016,69; 3971,187;  222,102; 5833,858;66,80769
1017,24; 3959,802;  198,179; 5799,550;67,15540
1017,79; 4028,263;  239,948; 5843,242;67,60872
1018,33; 4036,110;  206,948; 5874,473;67,56321
1018,88; 4059,802;  233,640; 5905,473;67,45900
1019,42; 4073,648;  217,871; 5889,935;67,97838
1019,97; 4086,494;  214,563; 5898,242;68,12367
1020,51; 4153,033;  222,640; 5889,550;69,35689
1021,06; 4118,263;  212,948; 5904,012;68,62189
1021,61; 4105,494;  197,102; 5858,935;69,03052
1022,15; 4071,956;  181,640; 5841,473;68,73552
1022,70; 4091,187;  212,487; 5878,704;68,45308
1023,24; 4058,725;  206,025; 5774,473;69,18804
1023,79; 4058,571;  226,179; 5726,088;69,68101
1024,33; 4037,956;  220,487; 5669,473;70,05833
1024,88; 4009,879;  221,948; 5594,704;70,50257
1025,42; 3950,648;  211,794; 5490,935;70,82316
1025,97; 3888,187;  212,102; 5451,550;70,16168
1026,51; 3839,956;  178,948; 5318,550;71,23135
1027,06; 3793,648;  211,333; 5295,012;70,46699
1027,60; 3729,956;  218,563; 5148,473;71,22630
1028,15; 3696,648;  225,563; 5140,088;70,62910
1028,69; 3579,879;  195,640; 4995,550;70,50630
1029,24; 3585,725;  209,025; 4952,319;71,18892
1029,78; 3508,648;  210,563; 4861,627;70,91033
1030,33; 3442,879;  192,640; 4782,550;70,81269
1030,87; 3384,110;  207,717; 4711,088;70,53366
1031,42; 3331,340;  210,333; 4652,781;70,25423
1031,96; 3304,648;  218,794; 4589,550;70,60229
1032,51; 3269,956;  196,487; 4476,935;71,80251
1033,05; 3253,340;  218,256; 4473,704;71,32233
1033,60; 3158,187;  193,563; 4344,781;71,41575
1034,14; 3143,648;  205,871; 4275,550;72,18695
1034,69; 3097,187;  198,563; 4244,165;71,64875
1035,23; 3059,494;  215,640; 4171,935;71,88176
1035,77; 3031,494;  200,333; 4117,165;72,28191
1036,32; 2973,340;  187,333; 4057,627;71,98439
1036,86; 2955,417;  200,487; 3996,935;72,56601
1037,41; 2896,648;  229,102; 3932,473;72,03021
1037,95; 2848,802;  181,563; 3886,165;71,99798
1038,50; 2865,725;  203,871; 3824,858;73,51184
1039,04; 2838,802;  213,333; 3800,781;73,18487
1039,58; 2770,956;  202,102; 3725,627;72,90579
1040,13; 2745,110;  225,640; 3698,858;72,53993
1040,67; 2751,571;  234,410; 3655,550;73,57668
1041,21; 2704,187;  233,794; 3576,858;73,89606
1041,76; 2635,802;  189,563; 3504,550;73,79332
1042,30; 2608,648;  210,333; 3495,858;72,99641
1042,85; 2566,494;  195,563; 3425,165;73,41248
1043,39; 2544,033;  203,717; 3353,396;74,30330
1043,93; 2536,648;  223,025; 3308,473;74,98499
1044,48; 2478,879;  217,179; 3286,396;73,68980
1045,02; 2451,648;  218,333; 3232,242;74,10028
1045,56; 2452,263;  216,871; 3206,242;74,77801
1046,11; 2416,263;  216,717; 3161,935;74,68196
1046,65; 2397,340;  216,102; 3111,012;75,34738
1047,19; 2347,263;  207,871; 3041,088;75,51106
1047,74; 2299,494;  198,871; 3008,935;74,75358
1048,28; 2273,033;  224,256; 2962,627;74,81736
1048,82; 2288,340;  231,717; 2919,704;76,51166
1049,37; 2246,033;  219,025; 2880,165;76,17064
1049,91; 2227,263;  202,179; 2835,088;76,91432
1050,45; 2212,879;  234,102; 2824,012;76,40332
1050,99; 2158,571;  203,410; 2761,319;76,43591
1051,54; 2121,033;  207,256; 2712,473;76,39165
1052,08; 2132,725;  223,871; 2715,319;76,61624
1052,62; 2076,417;  226,256; 2672,858;75,62168
1053,16; 2025,187;  201,025; 2597,781;76,10961
1053,71; 2027,110;  215,871; 2567,012;77,03659
1054,25; 2004,571;  236,333; 2546,858;76,52973
1054,79; 1981,340;  224,487; 2497,012;77,30845
1055,33; 1944,033;  193,025; 2461,858;77,17659
1055,88; 1952,571;  234,333; 2448,396;77,60566
1056,42; 1922,187;  239,410; 2421,627;77,11317
1056,96; 1892,340;  223,794; 2358,627;78,15817
1057,50; 1848,956;  222,563; 2322,012;77,46761
1058,05; 1840,110;  217,948; 2299,473;77,93140
1058,59; 1841,802;  231,256; 2269,473;79,01739
1059,13; 1769,110;  199,563; 2217,242;77,78969
1059,67; 1772,879;  234,871; 2212,781;77,75925
1060,21; 1745,340;  222,717; 2158,781;78,64531
1060,76; 1712,725;  230,717; 2147,935;77,29993
1061,30; 1735,571;  245,179; 2119,319;79,52405
1061,84; 1667,879;  221,102; 2066,550;78,39705
1062,38; 1635,417;  214,640; 2029,319;78,29357
1062,92; 1668,956;  256,948; 2062,935;78,18484
1063,46; 1626,340;  234,563; 1991,781;79,20346
1064,01; 1613,494;  209,717; 1961,088;80,15302
1064,55; 1595,033;  227,717; 1943,319;79,69887
1065,09; 1525,340;  203,256; 1904,935;77,69296
1065,63; 1553,417;  243,794; 1916,550;78,29135
1066,17; 1555,494;  242,487; 1887,627;79,81129
1066,71; 1536,417;  241,563; 1878,704;79,09241
1067,25; 1478,110;  215,256; 1818,935;78,74730
1067,80; 1503,956;  240,717; 1811,319;80,43021
1068,34; 1498,956;  255,487; 1823,473;79,30357
1068,88; 1438,417;  224,717; 1739,012;80,14955
1069,42; 1459,110;  260,025; 1768,627;79,48317
1069,96; 1417,417;  230,640; 1709,473;80,25093
1070,50; 1429,571;  243,410; 1728,012;79,89762
1071,04; 1377,340;  215,256; 1665,165;80,14876
1071,58; 1368,725;  225,179; 1660,935;79,64768
1072,12; 1353,033;  220,640; 1631,242;80,27724
1072,66; 1361,263;  219,563; 1625,550;81,20277
1073,21; 1350,340;  231,794; 1632,627;79,84866
1073,75; 1322,802;  231,410; 1603,242;79,55725
1074,29; 1299,417;  234,640; 1577,319;79,30243
1074,83; 1310,879;  244,487; 1571,858;80,33867
1075,37; 1293,340;  233,256; 1535,473;81,40612
1075,91; 1264,187;  249,179; 1527,088;79,42719
1076,45; 1251,571;  235,948; 1492,935;80,79825
1076,99; 1234,340;  236,025; 1472,012;80,77073
1077,53; 1218,802;  220,794; 1450,781;81,13972
1078,07; 1219,648;  237,948; 1450,396;80,96842
1078,61; 1213,648;  229,948; 1413,704;83,09991
1079,15; 1188,340;  220,640; 1402,473;81,88130
1079,69; 1190,571;  237,717; 1409,935;81,28645
1080,23; 1199,417;  243,717; 1403,012;82,43809
1080,77; 1185,494;  243,717; 1385,704;82,46830
1081,31; 1139,110;  221,717; 1334,319;82,45468
1081,85; 1159,340;  240,640; 1359,473;82,11237
1082,39; 1110,648;  230,948; 1313,858;81,23485
1082,93; 1104,187;  229,179; 1312,627;80,76139
1083,47; 1090,340;  219,871; 1271,088;82,80583
1084,01; 1102,494;  239,640; 1289,319;82,20170
1084,55; 1060,494;  226,410; 1251,550;81,36297
1085,09; 1080,340;  239,487; 1260,704;82,33839
1085,63; 1047,110;  233,487; 1224,704;82,08322
1086,17; 1032,110;  225,025; 1211,396;81,82362
1086,71; 1021,263;  227,410; 1195,781;81,97826
1087,24; 1050,033;  253,025; 1210,319;83,25629
1087,78; 1007,494;  231,410; 1172,781;82,44194
1088,32;  977,417;  215,871; 1147,012;81,78640
1088,86; 1021,263;  253,025; 1173,550;83,45656
1089,40;  985,956;  225,256; 1135,627;83,55933
1089,94;  956,802;  199,025; 1098,781;84,22029
1090,48;  952,802;  238,487; 1108,242;82,12827
1091,02;  958,571;  232,102; 1098,550;83,84452
1091,56;  937,187;  242,025; 1077,935;83,16229
1092,10;  902,802;  213,102; 1070,165;80,47245
1092,63;  940,956;  256,256; 1063,319;84,83843
1093,17;  925,879;  233,640; 1056,165;84,16017
1093,71;  894,802;  233,640; 1037,473;82,25114
1094,25;  916,956;  248,102; 1041,627;84,28894
1094,79;  884,263;  235,410; 1022,550;82,43178
1095,33;  864,033;  221,794; 1012,319;81,24202
1095,87;  861,802;  232,179;  988,473;83,25107
1096,40;  835,956;  218,102;  960,550;83,21846
1096,94;  856,263;  230,025;  968,165;84,84002
1097,48;  841,340;  236,256;  953,935;84,31133
1098,02;  831,725;  220,410;  951,935;83,56726
1098,56;  792,879;  210,179;  903,319;84,06666
1099,10;  791,648;  212,256;  904,627;83,68233
1099,63;  785,033;  213,410;  909,935;82,06785
1100,17;  809,802;  235,333;  914,858;84,53982
1100,71;  798,879;  234,871;  913,627;83,09435

