
Integration time [ms]: 120,000
Averaging Nr. [scans]: 13
Smoothing Nr. [pixels]: 0
Data measured with spectrometer [name]: 2009305U1
Wave   ;Sample   ;Dark     ;Reference;Reflectance
[nm]   ;[counts] ;[counts] ;[counts] ;[%]

 175,72;  197,760;  202,886;  214,253;-45,09715
 176,32;  231,220;  236,502;  224,563; 0,00000
 176,92;  266,357;  261,810;  259,279; 0,00000
 177,52;  262,296;  256,040;  268,411;50,57018
 178,12;  246,808;  228,579;  233,833;346,98716
 178,72;  270,365;  258,810;  256,007; 0,00000
 179,32;  252,363;  260,733;  253,210; 0,00000
 179,92;  256,480;  251,194;  250,799; 0,00000
 180,52;  247,413;  248,194;  249,355;-67,27981
 181,12;  250,709;  252,963;  254,248;-175,54021
 181,73;  281,072;  279,733;  279,385; 0,00000
 182,33;  350,631;  348,886;  358,111;18,91411
 182,93;  277,481;  273,348;  275,613;182,45156
 183,53;  247,565;  241,425;  236,281; 0,00000
 184,13;  232,407;  249,502;  235,332; 0,00000
 184,73;  275,614;  275,272;  271,335; 0,00000
 185,33;  267,816;  236,428;  336,101;31,49034
 185,93;  263,149;  234,583;  359,342;22,89725
 186,53;  281,024;  252,198;  384,040;21,86419
 187,13;  304,874;  282,736;  409,296;17,49196
 187,73;  275,097;  254,890;  367,277;17,97922
 188,33;  275,099;  248,737;  369,705;21,79272
 188,93;  279,962;  255,430;  366,881;22,01162
 189,53;  281,898;  251,969;  374,863;24,35385
 190,13;  317,742;  287,585;  411,451;24,34663
 190,73;  250,919;  233,430;  364,758;13,31657
 191,34;  286,287;  259,584;  390,135;20,45408
 191,94;  265,152;  241,583;  374,569;17,72290
 192,54;  283,059;  259,889;  412,605;15,17190
 193,14;  296,095;  261,198;  394,187;26,24075
 193,74;  280,802;  260,890;  382,181;16,41689
 194,34;  282,514;  260,505;  382,000;18,11464
 194,94;  249,895;  222,505;  351,466;21,23899
 195,54;  234,622;  209,121;  329,710;21,14762
 196,14;  254,140;  234,043;  365,416;15,29749
 196,74;  258,819;  222,736;  356,742;26,92637
 197,34;  236,159;  205,659;  339,451;22,79682
 197,94;  266,173;  232,351;  378,492;23,14338
 198,54;  266,744;  243,428;  386,908;16,25026
 199,14;  241,095;  223,966;  379,479;11,01419
 199,74;  233,525;  205,351;  372,661;16,83955
 200,34;  229,076;  202,428;  400,858;13,42978
 200,94;  264,847;  238,736;  424,673;14,04289
 201,54;  251,748;  213,428;  425,103;18,10327
 202,14;  286,521;  244,043;  464,005;19,31170
 202,74;  262,091;  219,351;  461,776;17,63045
 203,34;  248,355;  193,735;  478,391;19,18822
 203,94;  220,520;  181,966;  496,607;12,25318
 204,54;  301,983;  242,813;  571,497;18,00225
 205,14;  254,160;  206,274;  583,049;12,70951
 205,74;  296,879;  248,274;  675,642;11,37324
 206,34;  277,618;  206,197;  683,700;14,95719
 206,94;  303,867;  217,274;  760,936;15,92772
 207,54;  275,723;  184,428;  772,738;15,51818
 208,14;  287,647;  217,735;  847,890;11,09442
 208,74;  314,034;  207,735;  933,625;14,64392
 209,34;  316,486;  205,043; 1021,039;13,65725
 209,94;  329,383;  228,043; 1123,399;11,31836
 210,54;  345,333;  209,735; 1225,007;13,35580
 211,14;  352,522;  215,351; 1308,727;12,54564
 211,73;  352,861;  223,120; 1428,637;10,76226
 212,33;  379,108;  230,889; 1519,106;11,50575
 212,93;  378,173;  212,505; 1626,646;11,71514
 213,53;  370,695;  188,966; 1698,269;12,04061
 214,13;  389,653;  201,043; 1758,559;12,10968
 214,73;  384,060;  185,428; 1791,774;12,36546
 215,33;  355,306;  188,658; 1829,553;10,15588
 215,93;  405,842;  204,120; 1943,802;11,59533
 216,53;  374,686;  174,428; 2018,775;10,85793
 217,13;  457,059;  215,427; 2222,682;12,03793
 217,73;  457,164;  204,351; 2416,551;11,42815
 218,33;  421,181;  151,427; 2607,742;10,98207
 218,93;  498,116;  195,196; 2888,264;11,24815
 219,53;  550,612;  206,120; 3172,770;11,61216
 220,13;  543,062;  173,427; 3452,633;11,27207
 220,73;  599,090;  194,274; 3805,609;11,20959
 221,32;  659,573;  200,428; 4215,010;11,43693
 221,92;  727,682;  196,581; 4630,656;11,97772
 222,52;  762,982;  174,274; 5017,128;12,15623
 223,12;  820,812;  190,889; 5440,521;11,99938
 223,72;  887,165;  204,581; 5856,549;12,07693
 224,32;  927,018;  198,427; 6211,109;12,11757
 224,92;  979,687;  192,120; 6488,018;12,50922
 225,52; 1058,220;  215,428; 6819,349;12,76200
 226,12; 1092,002;  202,658; 7124,839;12,84774
 226,72; 1135,754;  171,351; 7400,541;13,34040
 227,31; 1181,961;  160,274; 7750,450;13,46066
 227,91; 1271,672;  201,812; 8154,932;13,45208
 228,51; 1315,306;  182,120; 8521,044;13,58912
 229,11; 1410,012;  187,043; 8878,963;14,07018
 229,71; 1463,105;  175,120; 9158,296;14,33774
 230,31; 1548,907;  181,658; 9533,880;14,61950
 230,91; 1596,870;  174,813; 9847,932;14,70112
 231,51; 1690,141;  168,043;10155,152;15,24063
 232,10; 1800,050;  170,043;10488,064;15,79768
 232,70; 1846,283;  196,351;10637,077;15,80284
 233,30; 1937,089;  203,504;10982,179;16,08347
 233,90; 1983,527;  175,351;11123,242;16,51621
 234,50; 2059,437;  184,581;11182,491;17,04738
 235,10; 2142,764;  182,043;11331,633;17,58559
 235,70; 2212,307;  199,812;11398,781;17,97036
 236,29; 2273,239;  200,582;11347,754;18,59357
 236,89; 2280,965;  176,274;11296,000;18,92754
 237,49; 2334,145;  192,889;11256,101;19,35474
 238,09; 2338,002;  180,581;11083,700;19,78719
 238,69; 2398,955;  216,967;10925,828;20,37554
 239,29; 2361,927;  182,197;10627,175;20,86869
 239,89; 2363,911;  199,197;10325,321;21,37751
 240,48; 2321,903;  175,889;10003,455;21,83667
 241,08; 2269,844;  182,351; 9657,845;22,03044
 241,68; 2300,259;  216,735; 9405,264;22,67528
 242,28; 2258,424;  164,889; 9092,140;23,45106
 242,88; 2235,468;  217,120; 8844,048;23,39591
 243,48; 2209,253;  210,428; 8539,688;23,99763
 244,07; 2163,034;  198,197; 8305,456;24,23553
 244,67; 2158,047;  212,428; 8180,638;24,41726
 245,27; 2127,169;  207,582; 8020,637;24,56897
 245,87; 2108,316;  202,735; 7940,984;24,62548
 246,47; 2139,653;  195,120; 7905,266;25,22044
 247,06; 2085,916;  188,658; 7917,206;24,54869
 247,66; 2084,470;  182,658; 8001,876;24,32228
 248,26; 2172,948;  213,889; 8155,823;24,66727
 248,86; 2179,975;  196,274; 8323,092;24,40933
 249,46; 2173,788;  170,581; 8488,355;24,08344
 250,05; 2226,503;  208,505; 8889,937;23,24500
 250,65; 2276,940;  166,582; 9173,342;23,43082
 251,25; 2318,225;  189,658; 9635,681;22,53400
 251,85; 2389,953;  187,120;10180,646;22,04260
 252,44; 2440,242;  158,197;10737,534;21,57078
 253,04; 2592,474;  200,120;11459,686;21,24730
 253,64; 2600,853;  153,043;12098,464;20,49162
 254,24; 2767,688;  200,581;12955,909;20,12576
 254,84; 2855,634;  183,504;13809,432;19,61062
 255,43; 2936,114;  180,043;14792,636;18,86093
 256,03; 3063,375;  188,120;15635,471;18,61326
 256,63; 3178,711;  193,505;16648,755;18,14136
 257,23; 3226,814;  179,736;17466,164;17,62700
 257,82; 3314,626;  190,659;18317,750;17,23369
 258,42; 3328,350;  171,428;19093,814;16,68353
 259,02; 3442,879;  210,505;20034,920;16,30502
 259,62; 3473,006;  169,274;20667,680;16,11702
 260,21; 3490,023;  180,889;21124,964;15,79985
 260,81; 3498,603;  197,581;21563,090;15,45024
 261,41; 3461,805;  167,505;21953,623;15,12110
 262,01; 3492,075;  208,813;22371,429;14,81442
 262,60; 3415,660;  165,582;22700,703;14,42228
 263,20; 3389,650;  182,274;22984,717;14,06593
 263,80; 3395,711;  213,044;23145,817;13,87825
 264,40; 3327,458;  172,736;23239,186;13,67667
 264,99; 3292,650;  199,659;23434,194;13,31204
 265,59; 3263,301;  188,813;23637,145;13,11175
 266,19; 3239,833;  168,428;23854,922;12,96690
 266,78; 3274,413;  223,736;23827,111;12,92475
 267,38; 3193,798;  186,352;23809,664;12,73084
 267,98; 3160,274;  176,275;23888,705;12,58411
 268,58; 3167,544;  192,352;23919,496;12,53919
 269,17; 3134,934;  175,352;23946,242;12,45045
 269,77; 3136,475;  192,120;23651,977;12,55061
 270,37; 3070,824;  163,967;23594,736;12,40615
 270,96; 3077,230;  229,890;23477,474;12,24790
 271,56; 2998,534;  192,966;23174,664;12,20783
 272,16; 2955,833;  177,044;23038,738;12,15478
 272,75; 2981,090;  193,813;22949,456;12,24873
 273,35; 2983,994;  182,351;22947,835;12,30654
 273,95; 2973,289;  186,120;22897,791;12,27197
 274,54; 2959,523;  168,966;22845,018;12,30619
 275,14; 3044,305;  209,736;23211,307;12,32337
 275,74; 3025,559;  167,967;23262,106;12,37367
 276,33; 3146,595;  212,120;23670,379;12,50935
 276,93; 3170,097;  195,274;24000,998;12,49625
 277,53; 3267,900;  188,966;24480,551;12,67490
 278,12; 3346,009;  170,120;24882,707;12,85130
 278,72; 3517,443;  220,659;25607,498;12,98620
 279,32; 3559,525;  185,966;26004,984;13,06618
 279,91; 3697,643;  164,812;26785,849;13,27082
 280,51; 3811,288;  183,043;27319,255;13,37049
 281,11; 3936,544;  190,120;27968,527;13,48682
 281,70; 4030,360;  170,736;28412,107;13,66656
 282,30; 4192,457;  178,505;28968,664;13,94210
 282,90; 4307,115;  191,813;29335,835;14,12057
 283,49; 4463,194;  204,813;29850,094;14,36445
 284,09; 4610,630;  220,197;30314,267;14,58903
 284,69; 4759,138;  211,120;30676,434;14,92851
 285,28; 4901,738;  199,966;31044,701;15,24335
 285,88; 5094,183;  241,428;31267,217;15,64104
 286,47; 5123,685;  192,428;31271,345;15,86689
 287,07; 5338,787;  222,120;31492,417;16,36271
 287,67; 5502,253;  205,428;31487,842;16,93228
 288,26; 5659,180;  177,659;31433,606;17,53753
 288,86; 5855,896;  186,889;31461,481;18,12656
 289,46; 6097,350;  197,428;31623,521;18,77396
 290,05; 6352,410;  187,966;31607,345;19,61988
 290,65; 6662,194;  194,659;31866,156;20,42068
 291,24; 6972,948;  196,274;31915,746;21,36440
 291,84; 7246,634;  207,659;32091,063;22,07724
 292,44; 7548,359;  196,966;32171,186;22,99163
 293,03; 7940,321;  263,735;32350,547;23,92443
 293,63; 8121,169;  186,351;32543,282;24,52278
 294,22; 8470,401;  213,197;32649,881;25,45638
 294,82; 8708,154;  189,121;32769,966;26,14737
 295,41; 8842,591;  181,889;32461,722;26,83007
 296,01; 9046,692;  219,505;32380,643;27,44675
 296,61; 9141,506;  201,735;32124,057;28,00476
 297,20; 9208,841;  194,736;31846,388;28,47910
 297,80; 9286,358;  202,658;31633,357;28,90072
 298,39; 9287,876;  184,659;31252,493;29,30110
 298,99; 9376,176;  212,274;31083,950;29,68385
 299,58; 9389,078;  203,120;30912,072;29,91296
 300,18; 9476,513;  222,428;30839,754;30,22500
 300,78; 9477,445;  190,735;30427,035;30,71378
 301,37; 9487,002;  210,121;30360,455;30,76875
 301,97; 9574,789;  204,428;30473,968;30,95640
 302,56; 9573,020;  192,890;30297,075;31,15889
 303,16; 9568,435;  179,197;30194,819;31,28117
 303,75; 9617,916;  186,812;30292,221;31,32694
 304,35; 9791,601;  189,581;30519,139;31,65895
 304,94; 9783,177;  189,351;30455,364;31,69835
 305,54; 9851,419;  205,966;30414,317;31,92976
 306,13; 9804,935;  160,504;30389,472;31,90460
 306,73; 9744,555;  174,504;30209,665;31,86283
 307,33; 9767,600;  198,043;30187,156;31,91010
 307,92; 9785,574;  198,582;30198,638;31,95658
 308,52; 9907,101;  174,274;30562,024;32,02878
 309,11;10118,070;  188,582;30980,083;32,24750
 309,71;10213,472;  169,505;31409,706;32,15077
 310,30;10244,241;  176,505;31509,075;32,13185
 310,90;10437,702;  213,889;31888,998;32,27712
 311,49;10449,884;  194,582;32070,343;32,17273
 312,09;10516,613;  162,120;32165,614;32,35426
 312,68;10668,542;  242,274;32598,653;32,22322
 313,28;10679,344;  162,505;32749,253;32,27336
 313,87;10664,918;  153,659;32846,403;32,15166
 314,47;10758,160;  186,967;33115,126;32,10381
 315,06;10753,785;  170,428;33197,019;32,04496
 315,66;10829,229;  169,351;33394,153;32,08410
 316,25;10718,022;  160,736;33337,011;31,82179
 316,85;10708,517;  160,351;33403,688;31,73017
 317,44;10774,569;  175,274;33484,692;31,82072
 318,04;10695,600;  157,351;33544,541;31,56375
 318,63;10711,798;  168,197;33588,018;31,54894
 319,22;10678,367;  182,120;33732,082;31,28542
 319,82;10686,131;  178,659;33856,351;31,20010
 320,41;10613,932;  204,043;33677,799;31,09866
 321,01;10548,672;  199,274;33829,393;30,77419
 321,60;10566,211;  185,274;33806,977;30,87570
 322,20;10485,655;  172,812;33782,649;30,68400
 322,79;10479,258;  210,735;33976,603;30,41096
 323,39;10421,495;  172,966;34015,257;30,28320
 323,98;10343,111;  168,043;33951,241;30,11872
 324,58;10255,958;  172,736;33805,455;29,98040
 325,17;10181,344;  185,582;33734,222;29,79484
 325,76;10025,696;  205,582;33616,207;29,39219
 326,36; 9937,792;  173,120;33254,411;29,51720
 326,95; 9776,853;  199,505;32984,694;29,21242
 327,55; 9653,832;  174,043;32616,539;29,22028
 328,14; 9475,353;  180,812;32335,871;28,90538
 328,74; 9389,436;  205,351;31792,817;29,07509
 329,33; 9175,877;  198,043;31487,061;28,69324
 329,92; 8997,766;  164,505;31012,632;28,63467
 330,52; 8777,775;  194,043;30355,557;28,45922
 331,11; 8609,992;  183,966;30015,561;28,24531
 331,71; 8395,028;  189,505;29379,388;28,11085
 332,30; 8261,869;  202,197;28964,056;28,02208
 332,89; 8085,443;  227,428;28481,791;27,81169
 333,49; 7854,557;  199,351;27864,817;27,67062
 334,08; 7676,743;  191,889;27511,186;27,39768
 334,68; 7528,086;  193,505;27072,400;27,28751
 335,27; 7397,819;  201,812;26754,803;27,10055
 335,86; 7318,608;  239,889;26513,330;26,94249
 336,46; 7189,361;  194,428;26268,199;26,82747
 337,05; 7071,969;  183,813;26067,162;26,61231
 337,65; 6998,174;  173,813;26075,676;26,34699
 338,24; 6990,000;  232,120;25997,027;26,22901
 338,83; 6906,530;  211,505;25833,685;26,12980
 339,43; 6830,102;  175,120;25884,022;25,88590
 340,02; 6757,534;  195,890;25775,602;25,65175
 340,61; 6741,313;  176,274;25788,589;25,63235
 341,21; 6724,205;  209,813;25862,432;25,39465
 341,80; 6649,105;  185,351;25820,403;25,21452
 342,40; 6598,151;  189,966;25815,138;25,00738
 342,99; 6609,289;  184,889;25916,022;24,96742
 343,58; 6653,108;  188,351;26076,522;24,97186
 344,18; 6623,795;  197,889;26284,422;24,63304
 344,77; 6638,962;  182,197;26547,850;24,48930
 345,36; 6674,468;  170,120;26860,156;24,36995
 345,96; 6724,130;  209,889;27115,306;24,21164
 346,55; 6731,882;  181,504;27346,653;24,11317
 347,14; 6759,186;  178,581;27617,274;23,98294
 347,74; 6804,052;  157,581;28018,754;23,85568
 348,33; 6940,350;  186,120;28696,644;23,69031
 348,92; 7041,019;  196,889;29244,677;23,56162
 349,52; 7051,845;  157,350;29666,997;23,36353
 350,11; 7111,890;  185,043;29898,258;23,31234
 350,70; 7079,047;  182,812;30043,991;23,09432
 351,29; 6970,852;  177,659;29821,173;22,91629
 351,89; 6969,520;  188,736;29913,883;22,81161
 352,48; 6869,321;  162,197;29795,470;22,63376
 353,07; 6870,349;  191,889;29824,384;22,53762
 353,67; 6787,564;  198,581;29731,006;22,31101
 354,26; 6688,582;  184,043;29434,935;22,23706
 354,85; 6584,551;  188,812;29332,440;21,94558
 355,45; 6568,933;  171,813;29224,412;22,01910
 356,04; 6499,652;  179,812;29136,514;21,82514
 356,63; 6429,779;  216,043;28939,013;21,63333
 357,22; 6336,482;  186,505;28850,138;21,45568
 357,82; 6262,008;  186,198;28602,308;21,38157
 358,41; 6209,296;  209,736;28457,074;21,23938
 359,00; 6143,421;  176,274;28327,452;21,19679
 359,60; 6095,065;  189,274;28233,366;21,05895
 360,19; 6015,462;  179,966;28068,903;20,92405
 360,78; 5973,997;  199,351;27988,969;20,77987
 361,37; 5901,197;  181,659;27727,305;20,76385
 361,97; 5830,390;  187,351;27642,220;20,55387
 362,56; 5736,909;  181,582;27310,954;20,47717
 363,15; 5699,509;  232,889;27156,483;20,30420
 363,74; 5597,217;  186,351;26775,123;20,35019
 364,34; 5518,441;  210,120;26303,456;20,34359
 364,93; 5389,122;  181,813;25956,887;20,20289
 365,52; 5282,531;  153,505;25583,023;20,16958
 366,11; 5200,279;  178,043;25307,498;19,98545
 366,71; 5113,598;  183,813;24973,774;19,88622
 367,30; 5059,061;  191,813;24528,603;19,99955
 367,89; 5006,801;  222,428;24395,366;19,79227
 368,48; 4927,232;  199,351;24142,025;19,74667
 369,07; 4811,740;  192,043;23618,453;19,72004
 369,67; 4764,900;  207,659;23342,537;19,69857
 370,26; 4698,062;  178,659;23107,740;19,71036
 370,85; 4620,211;  187,428;22796,515;19,60620
 371,44; 4606,321;  190,889;22626,101;19,68081
 372,03; 4520,299;  172,659;22354,886;19,59965
 372,63; 4440,756;  161,197;22096,153;19,51023
 373,22; 4402,152;  177,582;21745,260;19,58751
 373,81; 4320,123;  162,582;21484,393;19,49901
 374,40; 4285,903;  169,735;21237,763;19,53751
 374,99; 4257,760;  174,428;21021,717;19,58687
 375,59; 4189,446;  169,120;20697,787;19,58396
 376,18; 4197,401;  191,966;20598,819;19,62789
 376,77; 4175,843;  198,659;20408,493;19,67945
 377,36; 4164,562;  208,505;20319,456;19,67116
 377,95; 4127,690;  203,505;20092,600;19,73033
 378,55; 4079,980;  170,197;19882,163;19,83457
 379,14; 4078,550;  189,120;19870,180;19,76230
 379,73; 4064,397;  191,351;19660,041;19,89372
 380,32; 4099,170;  199,505;19781,111;19,91494
 380,91; 4062,896;  173,582;19652,911;19,96637
 381,50; 4097,263;  194,428;19493,751;20,22265
 382,10; 4077,247;  164,659;19444,188;20,29400
 382,69; 4064,131;  160,120;19410,351;20,28033
 383,28; 4122,854;  203,120;19366,878;20,45389
 383,87; 4084,985;  175,505;19281,403;20,46216
 384,46; 4061,419;  165,813;19211,102;20,45443
 385,05; 4159,636;  207,659;19192,321;20,81668
 385,64; 4140,894;  189,274;19153,267;20,83749
 386,24; 4151,174;  165,274;19094,815;21,05650
 386,83; 4223,956;  201,428;19194,181;21,17928
 387,42; 4260,832;  198,043;19286,631;21,28386
 388,01; 4311,497;  188,352;19384,455;21,47907
 388,60; 4397,713;  181,428;19675,890;21,62812
 389,19; 4461,768;  163,890;19851,507;21,83036
 389,78; 4533,411;  172,506;20053,837;21,93467
 390,37; 4746,529;  235,198;20545,717;22,21180
 390,96; 4743,863;  185,813;20697,881;22,22131
 391,56; 4833,799;  181,814;20839,801;22,51906
 392,15; 4924,962;  172,429;21159,881;22,64464
 392,74; 4959,640;  151,968;21210,378;22,83018
 393,33; 5104,174;  182,352;21574,769;23,00732
 393,92; 5259,384;  195,045;21936,229;23,29376
 394,51; 5311,094;  165,198;22105,604;23,45397
 395,10; 5411,752;  206,353;22334,791;23,52357
 395,69; 5508,586;  197,122;22467,115;23,85032
 396,28; 5553,316;  191,276;22616,925;23,91030
 396,87; 5613,443;  200,354;22620,824;24,14352
 397,46; 5703,855;  196,277;22812,755;24,35206
 398,06; 5803,971;  207,585;23021,439;24,53065
 398,65; 5835,917;  186,971;23034,531;24,72451
 399,24; 5943,860;  204,048;23153,410;25,01077
 399,83; 5980,430;  181,434;23194,845;25,19833
 400,42; 6114,622;  216,897;23340,592;25,50512
 401,01; 6165,182;  192,744;23410,225;25,72388
 401,60; 6220,643;  206,900;23408,472;25,91955
 402,19; 6265,362;  219,055;23452,836;26,02377
 402,78; 6331,588;  218,596;23456,829;26,30575
 403,37; 6345,296;  204,675;23295,193;26,59369
 403,96; 6330,223;  206,986;23138,574;26,70219
 404,55; 6360,992;  217,604;23104,145;26,84280
 405,14; 6399,802;  202,607;22971,214;27,21816
 405,73; 6427,622;  213,840;22778,482;27,53769
 406,32; 6463,500;  212,996;22757,039;27,72574
 406,91; 6443,425;  217,076;22488,069;27,95721
 407,50; 6442,979;  215,077;22286,033;28,21764
 408,09; 6410,188;  191,539;22091,556;28,39564
 408,68; 6433,827;  207,925;21913,293;28,68370
 409,27; 6439,983;  193,770;21733,089;28,99912
 409,86; 6474,685;  206,306;21625,582;29,26513
 410,45; 6512,718;  233,151;21523,443;29,49498
 411,04; 6506,540;  223,996;21489,152;29,54384
 411,63; 6483,800;  218,147;21239,526;29,80610
 412,22; 6465,842;  215,145;21033,757;30,02456
 412,81; 6440,513;  229,222;20785,249;30,21640
 413,40; 6370,477;  237,144;20533,190;30,21935
 413,99; 6346,275;  278,067;20126,196;30,57320
 414,58; 6247,947;  196,990;19770,317;30,91430
 415,17; 6252,635;  210,914;19589,046;31,17804
 415,76; 6231,230;  206,145;19412,475;31,37031
 416,35; 6200,319;  202,068;19219,997;31,53998
 416,94; 6282,845;  237,761;19264,907;31,77084
 417,53; 6376,013;  201,606;19490,625;32,00996
 418,12; 6502,916;  208,221;19585,976;32,48413
 418,71; 6613,560;  233,759;19823,904;32,56638
 419,30; 6686,824;  216,452;20003,289;32,70039
 419,89; 6801,744;  209,529;20200,787;32,97549
 420,48; 6940,156;  235,221;20350,440;33,33265
 421,07; 6956,656;  227,913;20547,339;33,11483
 421,66; 7022,971;  197,605;20523,452;33,57974
 422,25; 7084,245;  208,681;20441,884;33,98159
 422,84; 7139,429;  244,296;20467,133;34,09578
 423,43; 7093,750;  217,835;20204,469;34,40256
 424,02; 7030,711;  236,219;19962,138;34,44449
 424,60; 6938,720;  217,065;19606,941;34,66580
 425,19; 6899,816;  218,296;19336,560;34,94836
 425,78; 6924,291;  232,604;19274,681;35,14158
 426,37; 6917,740;  238,373;19108,498;35,39652
 426,96; 6887,939;  203,834;19034,526;35,49580
 427,55; 6874,129;  219,757;18843,583;35,73043
 428,14; 6798,068;  210,372;18597,684;35,82740
 428,73; 6768,747;  212,680;18535,934;35,78004
 429,32; 6862,408;  232,603;18493,947;36,30513
 429,91; 6869,984;  242,834;18528,494;36,24234
 430,50; 6798,021;  228,372;18356,212;36,24066
 431,08; 6820,265;  234,295;18080,146;36,90477
 431,67; 6857,715;  279,987;18101,671;36,90857
 432,26; 6775,599;  287,602;17955,940;36,72104
 432,85; 6651,580;  294,064;17598,413;36,73941
 433,44; 6573,936;  316,986;17209,777;37,03917
 434,03; 6501,631;  324,832;16901,479;37,26205
 434,62; 6327,569;  279,909;16528,690;37,21916
 435,21; 6282,855;  308,371;16289,582;37,38442
 435,79; 6280,332;  283,140;16073,929;37,97906
 436,38; 6220,563;  282,370;16032,005;37,70369
 436,97; 6242,910;  277,678;15945,304;38,07362
 437,56; 6177,191;  273,831;15686,080;38,30304
 438,15; 6158,638;  261,677;15673,361;38,26292
 438,74; 6205,250;  277,600;15653,412;38,55178
 439,33; 6210,643;  258,216;15678,154;38,60215
 439,91; 6207,747;  232,754;15758,901;38,48342
 440,50; 6311,414;  284,215;15791,105;38,86788
 441,09; 6391,418;  264,753;15927,054;39,11727
 441,68; 6364,909;  251,599;15847,027;39,19937
 442,27; 6375,183;  250,215;15855,998;39,24807
 442,86; 6386,147;  213,829;15895,016;39,36129
 443,44; 6414,925;  230,137;15949,850;39,34416
 444,03; 6527,262;  293,060;16007,625;39,67149
 444,62; 6417,481;  228,522;15839,041;39,64608
 445,21; 6397,179;  247,060;15662,234;39,89653
 445,80; 6382,359;  275,752;15579,797;39,90191
 446,39; 6340,205;  300,829;15382,504;40,04447
 446,97; 6202,863;  227,828;15161,275;40,01109
 447,56; 6128,935;  226,905;14913,420;40,18673
 448,15; 6133,960;  234,290;14828,971;40,42342
 448,74; 6031,369;  249,213;14518,444;40,52184
 449,33; 5966,531;  250,597;14418,740;40,34357
 449,91; 5893,281;  229,597;14204,505;40,52752
 450,50; 5809,663;  232,059;14000,971;40,50868
 451,09; 5797,260;  238,828;13895,427;40,70144
 451,68; 5806,277;  267,443;13811,310;40,89552
 452,26; 5760,617;  260,520;13742,481;40,79597
 452,85; 5703,189;  236,289;13641,557;40,78172
 453,44; 5769,627;  248,750;13616,667;41,29946
 454,03; 5720,718;  230,827;13558,093;41,19293
 454,61; 5707,298;  221,442;13543,266;41,17946
 455,20; 5825,660;  262,596;13727,143;41,31639
 455,79; 5826,156;  265,827;13714,342;41,34530
 456,38; 5822,639;  262,519;13841,772;40,94571
 456,97; 5836,733;  243,288;13823,702;41,18759
 457,55; 5896,924;  241,134;13864,112;41,51655
 458,14; 5903,118;  265,673;13856,102;41,48100
 458,73; 5859,441;  258,057;13794,557;41,37985
 459,31; 5892,529;  272,133;13801,002;41,54373
 459,90; 5921,024;  292,287;13894,709;41,38040
 460,49; 5994,873;  326,364;13979,122;41,51914
 461,08; 5960,909;  239,441;14041,256;41,45446
 461,66; 6043,492;  249,518;14148,009;41,68779
 462,25; 6075,635;  249,671;14169,362;41,85411
 462,84; 6141,579;  266,210;14233,855;42,06414
 463,43; 6070,294;  220,671;14197,392;41,85262
 464,01; 6114,178;  252,825;14211,433;41,99096
 464,60; 6128,894;  294,902;14133,045;42,15878
 465,19; 5972,514;  226,901;13917,146;41,96867
 465,77; 6009,546;  245,901;13931,470;42,11477
 466,36; 5995,690;  263,748;13781,592;42,40279
 466,95; 5849,242;  249,517;13545,097;42,11719
 467,53; 5746,827;  262,209;13231,631;42,28884
 468,12; 5684,897;  287,516;12985,825;42,50472
 468,71; 5561,900;  256,517;12769,913;42,39763
 469,29; 5457,702;  244,747;12563,421;42,31750
 469,88; 5361,955;  243,285;12255,789;42,61118
 470,47; 5465,926;  308,824;12429,383;42,54839
 471,06; 5405,591;  245,747;12327,576;42,70747
 471,64; 5465,927;  258,439;12426,475;42,79645
 472,23; 5413,595;  238,515;12484,723;42,25863
 472,81; 5467,112;  235,669;12537,077;42,52719
 473,40; 5508,841;  244,438;12699,088;42,26857
 473,99; 5674,325;  337,131;12877,102;42,56146
 474,57; 5646,099;  254,746;13007,664;42,27545
 475,16; 5711,978;  259,900;13135,527;42,34417
 475,75; 5766,982;  277,361;13270,843;42,24904
 476,33; 5804,045;  273,438;13301,278;42,45222
 476,92; 5819,407;  284,515;13382,495;42,25760
 477,51; 5879,990;  273,746;13473,078;42,47370
 478,09; 5878,267;  274,361;13432,183;42,58992
 478,68; 5858,142;  266,592;13402,743;42,56612
 479,27; 5899,635;  285,746;13431,990;42,70337
 479,85; 5851,027;  260,592;13449,749;42,38660
 480,44; 5904,459;  258,591;13565,837;42,42702
 481,02; 6458,039;  276,822;14805,194;42,54583
 481,61; 7274,956;  287,591;16767,418;42,39950
 482,20; 7789,404;  272,207;17955,114;42,51110
 482,78; 8133,808;  308,668;18742,703;42,44941
 483,37; 8319,997;  304,745;19311,268;42,17106
 483,95; 8470,247;  325,591;19524,179;42,42320
 484,54; 8511,670;  324,668;19721,819;42,20724
 485,13; 8479,339;  299,667;19674,419;42,21820
 485,71; 8410,003;  267,283;19359,168;42,65016
 486,30; 8326,202;  311,514;19163,734;42,51323
 486,88; 8180,356;  350,129;18790,873;42,46156
 487,47; 7862,202;  319,360;18111,474;42,39430
 488,05; 7467,337;  314,975;17285,299;42,14629
 488,64; 6935,500;  298,052;16075,825;42,06834
 489,23; 6233,445;  315,129;14276,871;42,38952
 489,81; 5338,390;  318,436;12269,871;42,00294
 490,40; 5052,626;  283,282;11577,264;42,22907
 490,98; 4915,966;  255,051;11339,911;42,04757
 491,57; 4908,004;  291,129;11214,719;42,26519
 492,15; 4849,056;  261,051;11135,031;42,19250
 492,74; 4847,201;  270,052;11148,520;42,07531
 493,32; 4796,652;  290,436;10980,505;42,15329
 493,91; 4759,060;  275,820;10887,486;42,24822
 494,50; 4732,104;  273,128;10879,117;42,04206
 495,08; 4701,098;  260,205;10835,710;41,99225
 495,67; 4728,851;  291,359;10817,349;42,15748
 496,25; 4641,640;  222,974;10657,382;42,34707
 496,84; 4588,933;  249,359;10687,065;41,57593
 497,42; 4580,447;  241,974;10616,052;41,82032
 498,01; 4611,510;  259,513;10542,979;42,32033
 498,59; 4518,579;  221,359;10499,036;41,81120
 499,18; 4572,882;  244,051;10458,382;42,37997
 499,76; 4490,082;  256,589;10363,917;41,88538
 500,35; 4394,325;  255,589;10202,439;41,60851
 500,93; 4410,244;  245,282;10220,783;41,75191
 501,52; 4354,061;  244,051;10134,040;41,55727
 502,10; 4341,499;  259,743;10034,794;41,75688
 502,69; 4251,260;  239,896; 9925,268;41,41672
 503,27; 4166,538;  222,743; 9663,925;41,77226
 503,86; 4154,460;  245,127; 9678,542;41,44133
 504,44; 4077,328;  218,819; 9571,680;41,25485
 505,03; 3990,570;  208,358; 9369,418;41,28575
 505,61; 3928,716;  219,127; 9253,244;41,06200
 506,19; 3898,160;  242,666; 9039,700;41,55371
 506,78; 3777,918;  224,588; 8895,900;40,97799
 507,36; 3738,772;  230,742; 8739,459;41,22865
 507,95; 3637,994;  229,127; 8601,409;40,71611
 508,53; 3597,311;  227,358; 8497,550;40,74818
 509,12; 3530,155;  239,357; 8385,061;40,39918
 509,70; 3495,189;  250,511; 8219,490;40,71635
 510,29; 3441,303;  258,126; 8094,530;40,62037
 510,87; 3355,749;  227,742; 7879,152;40,88145
 511,46; 3268,572;  218,434; 7755,661;40,46764
 512,04; 3221,766;  224,665; 7594,866;40,66512
 512,62; 3142,233;  243,050; 7412,305;40,43912
 513,21; 3087,583;  212,357; 7288,646;40,63182
 513,79; 3044,612;  222,741; 7188,436;40,51097
 514,38; 2993,637;  198,818; 7033,647;40,89084
 514,96; 2946,869;  251,511; 6942,352;40,28430
 515,54; 2861,452;  213,510; 6836,429;39,98148
 516,13; 2840,715;  222,664; 6752,168;40,09571
 516,71; 2780,261;  225,203; 6620,696;39,95092
 517,30; 2720,458;  213,356; 6522,758;39,73597
 517,88; 2713,124;  240,048; 6434,733;39,92255
 518,46; 2627,042;  222,279; 6292,771;39,61397
 519,05; 2612,811;  225,048; 6254,049;39,60462
 519,63; 2586,634;  231,433; 6195,050;39,49284
 520,22; 2551,848;  244,663; 6145,151;39,10158
 520,80; 2527,527;  231,971; 6080,477;39,25029
 521,38; 2527,402;  260,587; 6102,253;38,80425
 521,97; 2494,911;  229,971; 6046,601;38,93904
 522,55; 2486,953;  241,048; 6010,541;38,92726
 523,13; 2452,878;  219,817; 6021,370;38,49074
 523,72; 2437,554;  226,510; 5992,977;38,34314
 524,30; 2491,105;  235,432; 6131,945;38,25435
 524,89; 2495,898;  218,048; 6108,543;38,66992
 525,47; 2506,959;  243,740; 6228,118;37,81878
 526,05; 2461,849;  206,355; 6263,749;37,23538
 526,64; 2531,436;  238,201; 6358,619;37,46860
 527,22; 2594,132;  250,047; 6505,122;37,47493
 527,80; 2634,760;  266,816; 6599,458;37,39267
 528,39; 2616,246;  226,586; 6700,301;36,91327
 528,97; 2679,238;  224,124; 6868,512;36,95019
 529,55; 2722,054;  248,432; 6996,615;36,65612
 530,14; 2788,083;  252,739; 7200,328;36,49243
 530,72; 2779,438;  229,509; 7309,155;36,01774
 531,30; 2810,993;  208,585; 7461,193;35,88238
 531,89; 2852,201;  231,201; 7525,255;35,93338
 532,47; 2912,389;  267,355; 7669,762;35,73209
 533,05; 2893,484;  251,740; 7672,660;35,59860
 533,63; 2930,083;  261,355; 7705,221;35,85137
 534,22; 2913,502;  239,431; 7765,742;35,52963
 534,80; 2962,874;  251,277; 7789,344;35,97205
 535,38; 3069,707;  334,893; 7959,271;35,86934
 535,97; 2951,073;  251,508; 7886,881;35,35603
 536,55; 2988,026;  280,354; 7904,562;35,51414
 537,13; 2998,933;  288,047; 7905,877;35,58606
 537,71; 2994,023;  322,047; 7940,628;35,07183
 538,30; 2995,009;  334,893; 7993,909;34,73182
 538,88; 3048,855;  352,277; 8073,924;34,92232
 539,46; 3144,224;  410,585; 8243,361;34,90001
 540,05; 3170,921;  405,200; 8356,739;34,78221
 540,63; 3234,155;  441,046; 8556,673;34,41643
 541,21; 3299,755;  479,739; 8696,818;34,31897
 541,79; 3291,963;  478,508; 8803,419;33,79562
 542,38; 3351,934;  501,893; 8941,490;33,76988
 542,96; 3414,203;  520,892; 9065,114;33,86278
 543,54; 3470,549;  539,200; 9251,537;33,64596
 544,12; 3479,876;  493,816; 9436,371;33,39158
 544,70; 3488,725;  494,431; 9440,660;33,46991
 545,29; 3536,992;  504,893; 9648,795;33,15979
 545,87; 3526,656;  486,816; 9679,265;33,06888
 546,45; 3508,524;  465,200; 9709,311;32,92175
 547,03; 3521,283;  452,662; 9797,249;32,83849
 547,62; 3546,069;  418,585; 9934,378;32,86625
 548,20; 3590,382;  435,200;10100,372;32,64486
 548,78; 3607,876;  396,507;10219,879;32,69110
 549,36; 3641,555;  366,430;10373,605;32,72777
 549,94; 3618,812;  335,892;10554,876;32,12570
 550,53; 3684,940;  355,277;10762,159;31,99482
 551,11; 3721,967;  322,661;10924,151;32,06442
 551,69; 3786,541;  334,046;11276,010;31,55279
 552,27; 3816,449;  286,507;11465,523;31,57650
 552,85; 3917,229;  305,046;11817,508;31,37629
 553,44; 3998,714;  298,430;12110,552;31,32616
 554,02; 4076,714;  314,046;12431,922;31,05056
 554,60; 4124,096;  263,122;12768,432;30,87468
 555,18; 4216,532;  306,969;13114,437;30,52565
 555,76; 4276,494;  288,199;13433,121;30,34096
 556,34; 4357,168;  299,891;13810,378;30,03057
 556,93; 4478,493;  281,738;14192,200;30,16977
 557,51; 4527,621;  253,661;14467,113;30,06983
 558,09; 4640,612;  280,892;14830,679;29,96415
 558,67; 4736,090;  278,968;15220,656;29,83011
 559,25; 4800,418;  289,199;15470,982;29,71468
 559,83; 4866,519;  271,430;15684,502;29,81293
 560,41; 4931,525;  258,968;16098,894;29,49860
 561,00; 5052,882;  272,122;16391,747;29,65801
 561,58; 5098,026;  271,815;16682,131;29,40962
 562,16; 5154,463;  259,661;16993,673;29,25062
 562,74; 5241,363;  242,353;17349,904;29,22107
 563,32; 5339,704;  248,737;17697,474;29,17670
 563,90; 5416,794;  274,507;18129,547;28,80020
 564,48; 5541,497;  277,199;18495,332;28,89592
 565,06; 5665,972;  261,661;19084,344;28,71170
 565,65; 5849,141;  272,506;19659,953;28,76415
 566,23; 6088,686;  320,507;20376,806;28,75994
 566,81; 6238,064;  266,584;21113,723;28,64413
 567,39; 6493,743;  284,353;21934,158;28,68104
 567,97; 6660,351;  286,814;22473,937;28,72629
 568,55; 6838,381;  308,737;23278,264;28,42742
 569,13; 7054,678;  284,891;24018,772;28,52372
 569,71; 7316,956;  260,276;24926,337;28,60886
 570,29; 7589,743;  306,661;25849,126;28,51362
 570,87; 7727,339;  304,969;26426,877;28,41435
 571,45; 7886,691;  295,814;27080,061;28,34083
 572,03; 7993,394;  266,430;27550,446;28,32048
 572,61; 8170,709;  254,660;28285,190;28,24081
 573,20; 8364,559;  266,122;28927,400;28,25567
 573,78; 8522,100;  257,968;29476,135;28,28422
 574,36; 8613,599;  284,814;30004,297;28,02466
 574,94; 8726,968;  332,045;30271,657;28,03952
 575,52; 8710,041;  269,737;30613,817;27,81532
 576,10; 8848,678;  330,429;31103,233;27,68109
 576,68; 8967,744;  308,199;31576,386;27,69443
 577,26; 9141,757;  327,583;32303,583;27,56497
 577,84; 9220,286;  332,276;32728,658;27,43519
 578,42; 9280,529;  376,737;32927,349;27,35369
 579,00; 9239,803;  317,122;33151,719;27,17463
 579,58; 9286,102;  367,506;33271,577;27,10484
 580,16; 9211,838;  328,429;33317,731;26,92815
 580,74; 9217,383;  331,199;33552,907;26,74813
 581,32; 9151,123;  324,583;33524,886;26,58572
 581,90; 9075,858;  351,122;33594,888;26,24473
 582,48; 9094,081;  340,352;33723,007;26,22238
 583,06; 9041,413;  347,737;33760,973;26,01866
 583,64; 9019,099;  327,737;33886,412;25,89900
 584,22; 8917,288;  344,275;33797,948;25,62652
 584,80; 8756,983;  355,737;33566,622;25,29666
 585,38; 8645,142;  354,276;33161,122;25,27175
 585,96; 8548,189;  330,891;33270,794;24,94633
 586,54; 8534,614;  342,121;33252,646;24,89323
 587,12; 8437,869;  324,583;33408,996;24,52299
 587,70; 8458,811;  357,583;33443,200;24,48565
 588,28; 8395,746;  335,737;33477,737;24,31962
 588,86; 8380,170;  344,198;33657,805;24,12219
 589,44; 8329,334;  324,275;33671,790;24,00496
 590,02; 8322,004;  321,660;33925,022;23,80817
 590,59; 8286,249;  313,045;34083,572;23,60995
 591,17; 8268,960;  315,121;34274,314;23,42176
 591,75; 8286,324;  303,506;34374,881;23,42969
 592,33; 8234,333;  327,967;34620,470;23,05567
 592,91; 8230,653;  283,198;34771,483;23,04393
 593,49; 8225,222;  283,429;35189,194;22,75210
 594,07; 8261,857;  308,429;35345,736;22,69988
 594,65; 8204,039;  319,583;35391,958;22,48053
 595,23; 8260,078;  308,506;35716,319;22,45711
 595,81; 8244,066;  315,275;35977,566;22,23298
 596,39; 8181,357;  288,890;35999,112;22,10142
 596,97; 8180,322;  279,121;36227,315;21,97941
 597,55; 8131,104;  293,044;36122,513;21,87601
 598,12; 8051,979;  274,198;36072,980;21,72639
 598,70; 8021,415;  284,429;36219,292;21,53059
 599,28; 8067,911;  296,813;36361,352;21,54775
 599,86; 8030,224;  286,429;36401,068;21,44226
 600,44; 7975,719;  259,121;36511,113;21,28600
 601,02; 7994,942;  309,428;36583,477;21,18736
 601,60; 7921,304;  288,967;36581,955;21,02978
 602,18; 7889,534;  260,967;36646,587;20,96588
 602,75; 7847,829;  258,044;36623,544;20,87084
 603,33; 7864,319;  296,352;36645,520;20,82019
 603,91; 7802,003;  264,044;36615,284;20,73646
 604,49; 7832,191;  286,890;36678,160;20,73382
 605,07; 7794,201;  299,044;36855,161;20,50315
 605,65; 7731,421;  298,352;36857,453;20,33165
 606,23; 7743,612;  352,198;36919,186;20,21335
 606,80; 7738,114;  371,967;36917,299;20,15619
 607,38; 7669,902;  397,736;36983,195;19,87720
 607,96; 7698,595;  448,737;37046,533;19,80955
 608,54; 7674,706;  494,352;37144,670;19,59152
 609,12; 7658,686;  495,890;37068,744;19,58501
 609,70; 7657,363;  516,121;37209,858;19,46175
 610,27; 7617,619;  525,737;37198,868;19,33809
 610,85; 7604,095;  547,275;37267,095;19,21801
 611,43; 7537,481;  532,352;37325,555;19,03919
 612,01; 7421,049;  495,429;37049,020;18,94648
 612,59; 7479,505;  507,582;37110,812;19,04729
 613,16; 7335,080;  476,198;37032,424;18,76255
 613,74; 7315,891;  458,582;36940,426;18,79650
 614,32; 7213,798;  432,352;36958,187;18,56616
 614,90; 7215,964;  404,429;36767,355;18,73209
 615,48; 7096,808;  353,506;36608,174;18,59982
 616,05; 7022,828;  345,198;36442,961;18,49873
 616,63; 6995,079;  355,660;36314,979;18,46369
 617,21; 6910,454;  355,891;36290,669;18,24017
 617,79; 6822,634;  334,660;36184,525;18,09762
 618,36; 6802,332;  348,275;36073,224;18,06597
 618,94; 6657,618;  294,968;35842,409;17,89904
 619,52; 6624,704;  312,275;35522,166;17,92800
 620,10; 6581,897;  293,506;35553,048;17,83458
 620,67; 6477,805;  312,814;35336,347;17,60243
 621,25; 6426,831;  323,890;35166,448;17,51577
 621,83; 6402,860;  307,968;35156,147;17,48985
 622,41; 6407,976;  354,121;35207,230;17,36963
 622,98; 6294,483;  314,429;34947,136;17,26707
 623,56; 6249,989;  323,506;34908,705;17,13589
 624,14; 6196,338;  301,583;34790,615;17,09168
 624,72; 6158,045;  301,660;34705,503;17,02247
 625,29; 6145,869;  291,968;34756,457;16,98531
 625,87; 6139,426;  337,352;34837,231;16,81766
 626,45; 6038,722;  287,583;34537,878;16,79150
 627,02; 5981,729;  297,967;34593,361;16,57296
 627,60; 5978,277;  284,505;34423,962;16,67798
 628,18; 5943,994;  267,044;34534,974;16,56636
 628,76; 5886,105;  274,814;34532,158;16,37982
 629,33; 5883,806;  299,506;34593,022;16,28384
 629,91; 5837,436;  298,352;34596,202;16,14995
 630,49; 5833,771;  291,583;34616,041;16,14647
 631,06; 5825,046;  293,814;34768,072;16,04453
 631,64; 5791,036;  299,045;34820,439;15,90895
 632,22; 5707,673;  260,506;34666,778;15,83190
 632,79; 5767,631;  295,199;34991,453;15,77240
 633,37; 5748,195;  284,275;35015,678;15,73193
 633,95; 5716,565;  281,276;35039,175;15,63757
 634,52; 5711,603;  268,891;35190,506;15,58551
 635,10; 5686,230;  268,198;35175,229;15,52132
 635,68; 5689,608;  268,506;35361,208;15,44795
 636,25; 5616,537;  256,276;35344,339;15,27659
 636,83; 5612,720;  247,122;35544,697;15,20104
 637,41; 5600,880;  265,814;35562,766;15,11481
 637,98; 5638,896;  295,660;35762,758;15,06533
 638,56; 5605,740;  275,276;35837,239;14,98923
 639,13; 5545,072;  259,275;35831,727;14,85924
 639,71; 5610,564;  322,429;36043,761;14,80386
 640,29; 5502,649;  236,506;35850,715;14,78664
 640,86; 5526,947;  263,583;36069,057;14,69989
 641,44; 5516,706;  257,121;36085,707;14,67985
 642,02; 5469,619;  278,045;36048,048;14,51376
 642,59; 5450,224;  258,968;36266,775;14,41703
 643,17; 5423,213;  259,968;36193,270;14,36897
 643,74; 5393,588;  252,121;36194,381;14,30479
 644,32; 5404,270;  274,814;36117,261;14,31112
 644,89; 5385,029;  283,045;36183,449;14,21149
 645,47; 5352,403;  296,891;36196,868;14,08222
 646,05; 5292,546;  276,275;36075,132;14,01238
 646,62; 5242,228;  265,506;36104,320;13,88640
 647,20; 5258,757;  273,968;36276,047;13,84584
 647,77; 5184,669;  246,506;36035,696;13,79792
 648,35; 5127,736;  238,891;36043,038;13,65441
 648,92; 5115,572;  276,121;36050,379;13,52775
 649,50; 5056,638;  240,891;35983,798;13,47330
 650,08; 5015,167;  230,198;35946,140;13,39729
 650,65; 5030,310;  244,275;36039,712;13,37052
 651,23; 5106,838;  220,121;36745,823;13,37884
 651,80; 5212,136;  237,583;37683,165;13,28475
 652,38; 5300,279;  243,814;38092,660;13,35963
 652,95; 5282,115;  231,352;38508,002;13,19542
 653,53; 5341,259;  252,583;38739,728;13,22175
 654,10; 5366,018;  280,198;38903,685;13,16769
 654,68; 5258,700;  238,275;38753,873;13,03478
 655,25; 5291,074;  235,198;38879,907;13,08297
 655,83; 5258,371;  236,352;38977,403;12,96304
 656,40; 5235,130;  265,890;38915,821;12,85705
 656,98; 5232,966;  250,275;38815,932;12,92002
 657,55; 5169,725;  247,967;38672,659;12,80884
 658,13; 5099,869;  247,814;38286,923;12,75544
 658,70; 5031,243;  269,429;38035,342;12,60876
 659,28; 4901,309;  252,429;37316,914;12,54268
 659,85; 4719,145;  252,429;36447,487;12,34068
 660,43; 4724,674;  267,737;36491,752;12,30382
 661,00; 4691,356;  245,660;36550,939;12,24532
 661,58; 4726,114;  248,275;36974,358;12,19253
 662,15; 4705,950;  231,429;37100,700;12,13618
 662,73; 4789,940;  304,044;37354,734;12,10746
 663,30; 4751,160;  244,736;37524,922;12,08799
 663,88; 4766,842;  248,429;37750,802;12,04834
 664,45; 4759,832;  235,506;37858,682;12,02537
 665,03; 4786,130;  252,736;38361,639;11,89589
 665,60; 4842,581;  331,506;38779,135;11,73304
 666,17; 4802,186;  250,506;38898,553;11,77726
 666,75; 4799,022;  239,275;39253,895;11,68728
 667,32; 4854,550;  263,044;39464,698;11,71253
 667,90; 4834,617;  246,890;39756,347;11,61172
 668,47; 4878,145;  265,198;39945,535;11,62527
 669,05; 4870,596;  240,813;40359,877;11,54011
 669,62; 4834,124;  213,198;40359,911;11,51010
 670,19; 4824,114;  229,736;40585,253;11,38476
 670,77; 4868,334;  251,121;40779,671;11,39250
 671,34; 4835,016;  249,736;40614,244;11,35968
 671,92; 4823,621;  228,890;40997,816;11,27018
 672,49; 4835,842;  260,582;40982,850;11,23528
 673,06; 4795,447;  217,813;41101,115;11,19683
 673,64; 4770,283;  232,582;41085,918;11,10729
 674,21; 4754,042;  217,967;41002,568;11,12203
 674,79; 4783,185;  246,736;41187,525;11,08051
 675,36; 4803,483;  259,582;41342,174;11,06040
 675,93; 4719,857;  232,429;41124,900;10,97373
 676,51; 4736,693;  252,967;41300,550;10,92324
 677,08; 4749,759;  256,813;41486,814;10,89727
 677,65; 4725,980;  249,659;41574,925;10,83192
 678,23; 4740,970;  245,967;41732,806;10,83477
 678,80; 4721,036;  230,659;41832,301;10,79375
 679,38; 4712,411;  241,582;41962,950;10,71592
 679,95; 4736,939;  247,044;42179,446;10,70746
 680,52; 4738,236;  234,659;42490,095;10,65798
 681,10; 4814,687;  256,352;42735,129;10,73085
 681,67; 4780,446;  249,121;43149,548;10,56243
 682,24; 4757,359;  230,428;43186,197;10,53859
 682,82; 4824,503;  238,352;43766,462;10,53607
 683,39; 4944,954;  288,275;44063,112;10,63780
 683,96; 4902,636;  240,505;44259,915;10,59108
 684,54; 4872,395;  220,505;44663,795;10,46702
 685,11; 4905,538;  268,813;45022,521;10,36054
 685,68; 4954,836;  240,967;45434,324;10,43045
 686,25; 4945,441;  223,659;45448,743;10,44063
 686,83; 4956,430;  231,198;45624,777;10,40947
 687,40; 4983,266;  218,275;45970,350;10,41481
 687,97; 5056,948;  280,967;46409,537;10,35363
 688,55; 5002,400;  218,736;46411,725;10,35582
 689,12; 4990,159;  205,274;46692,990;10,29279
 689,69; 5006,841;  227,659;46772,870;10,26783
 690,26; 5014,138;  245,044;46844,366;10,23426
 690,84; 5018,512;  249,274;47133,323;10,17241
 691,41; 5045,271;  251,967;47222,664;10,20488
 691,98; 5092,338;  244,967;47439,622;10,27102
 692,56; 5055,174;  233,044;47516,809;10,19828
 693,13; 5123,856;  287,659;47545,766;10,23358
 693,70; 5091,768;  256,274;47684,877;10,19531
 694,27; 5065,681;  243,890;47890,604;10,11988
 694,84; 5084,132;  238,044;47984,253;10,14968
 695,42; 5140,738;  276,582;48083,133;10,17466
 695,99; 5143,958;  238,351;48293,629;10,20826
 696,56; 5113,717;  243,121;48149,124;10,16699
 697,13; 5167,937;  241,197;48488,697;10,21139
 697,71; 5115,619;  225,582;48519,500;10,12558
 698,28; 5161,148;  244,120;48871,380;10,11167
 698,85; 5126,060;  196,659;48863,106;10,12895
 699,42; 5133,973;  214,505;49072,371;10,06894
 699,99; 5207,271;  242,044;49106,405;10,16124
 700,57; 5170,414;  243,428;49142,055;10,07592
 701,14; 5182,635;  231,505;49239,550;10,10269
 701,71; 5210,393;  250,967;49401,815;10,09022
 702,28; 5200,383;  242,351;49536,310;10,05809
 702,85; 5213,373;  245,967;49647,575;10,05515
 703,43; 5224,055;  257,197;49848,763;10,01553
 704,00; 5289,121;  280,582;50070,028;10,05944
 704,57; 5212,496;  247,274;50047,293; 9,97032
 705,14; 5292,562;  289,582;50348,250; 9,99423
 705,71; 5282,091;  280,582;50303,822; 9,99837
 706,28; 5261,311;  253,274;50223,010;10,02214
 706,86; 5320,301;  276,966;50540,890;10,03371
 707,43; 5329,367;  298,351;50541,540;10,01333
 708,00; 5332,126;  284,582;50501,266;10,05153
 708,57; 5306,270;  263,043;50353,838;10,06817
 709,14; 5330,106;  285,966;50567,488;10,03180
 709,71; 5316,711;  264,582;50621,368;10,03267
 710,28; 5370,777;  258,428;50908,556;10,09346
 710,86; 5337,998;  260,351;50935,205;10,02005
 711,43; 5426,141;  282,197;50873,316;10,16768
 712,00; 5377,823;  266,582;51054,350;10,06392
 712,57; 5437,198;  278,659;51204,769;10,12946
 713,14; 5465,803;  255,813;51192,956;10,22827
 713,71; 5432,331;  265,120;51185,606;10,14761
 714,28; 5465,782;  257,197;51191,640;10,22606
 714,85; 5460,387;  239,505;50995,212;10,28630
 715,42; 5467,223;  249,351;51154,477;10,25019
 716,00; 5570,521;  309,120;51281,819;10,32200
 716,57; 5538,895;  250,659;51370,237;10,34484
 717,14; 5511,038;  238,197;51300,656;10,32626
 717,71; 5538,182;  230,659;51458,690;10,36058
 718,28; 5624,710;  268,889;51516,032;10,45096
 718,85; 5577,392;  227,351;51475,758;10,43943
 719,42; 5592,228;  260,889;51744,023;10,35551
 719,99; 5601,679;  224,197;51414,134;10,50496
 720,56; 5665,746;  265,428;51757,552;10,48766
 721,13; 5634,812;  251,735;51795,432;10,44372
 721,70; 5638,418;  232,812;51767,620;10,48923
 722,27; 5703,715;  265,659;51710,962;10,57056
 722,84; 5739,705;  306,889;51891,996;10,53175
 723,41; 5719,002;  236,197;51914,799;10,60943
 723,98; 5735,223;  241,428;52137,295;10,58619
 724,55; 5822,751;  275,351;52288,021;10,66548
 725,12; 5729,433;  207,812;52124,978;10,63544
 725,69; 5808,576;  238,197;52401,166;10,67880
 726,27; 5844,874;  230,812;52349,815;10,77162
 726,84; 5906,863;  249,120;52729,234;10,78074
 727,41; 5903,391;  268,428;52672,729;10,75287
 727,98; 5916,997;  266,043;52998,533;10,71627
 728,55; 5985,371;  287,428;52891,797;10,83169
 729,12; 5975,361;  243,581;53017,524;10,86100
 729,69; 6021,504;  254,658;53168,481;10,89856
 730,26; 6070,955;  274,274;53258,976;10,94029
 730,82; 6028,560;  261,274;53209,857;10,89224
 731,39; 6051,319;  261,581;53284,198;10,91937
 731,96; 6106,924;  237,735;53591,617;11,00049
 732,53; 6164,837;  247,274;53811,420;11,04762
 733,10; 6168,442;  268,504;53949,377;10,99076
 733,67; 6268,740;  266,504;54133,257;11,14275
 734,24; 6230,037;  250,120;53825,907;11,16160
 734,81; 6249,181;  280,197;53907,941;11,13040
 735,38; 6249,863;  261,889;53674,436;11,21080
 735,95; 6257,468;  266,735;53612,393;11,23003
 736,52; 6277,534;  266,504;53784,735;11,23174
 737,09; 6297,909;  269,504;53470,384;11,33140
 737,66; 6338,898;  307,889;53595,111;11,31793
 738,23; 6400,196;  265,043;53768,299;11,46688
 738,80; 6485,647;  318,197;53982,333;11,49269
 739,37; 6473,791;  279,274;54149,367;11,49899
 739,94; 6507,857;  261,581;54157,554;11,58950
 740,51; 6612,616;  367,658;54254,204;11,58909
 741,07; 6541,837;  261,350;54232,007;11,63685
 741,64; 6581,980;  286,504;54400,810;11,63366
 742,21; 6665,970;  251,504;54471,152;11,83052
 742,78; 6636,652;  234,812;54224,647;11,85749
 743,35; 6640,949;  254,427;54522,528;11,76846
 743,92; 6795,939;  286,581;54626,946;11,97886
 744,49; 6786,313;  289,581;54517,211;11,98048
 745,06; 6755,457;  251,812;54451,630;11,99939
 745,63; 6848,523;  249,504;54530,587;12,15713
 746,19; 6837,744;  251,197;54526,851;12,13536
 746,76; 6853,657;  267,273;54505,039;12,14354
 747,33; 6895,723;  251,966;54474,919;12,25267
 747,90; 6948,790;  281,658;54680,415;12,25604
 748,47; 7016,395;  267,658;54590,757;12,42333
 749,04; 7000,923;  273,966;54630,714;12,37557
 749,61; 7069,144;  298,043;54583,517;12,47314
 750,17; 7108,287;  276,658;54671,782;12,55927
 750,74; 7097,738;  280,966;54532,585;12,56510
 751,31; 7086,113;  246,350;54392,927;12,63194
 751,88; 7121,333;  240,581;54357,653;12,71457
 752,45; 7174,784;  263,581;54516,610;12,73883
 753,02; 7187,082;  274,812;54288,567;12,79724
 753,58; 7238,533;  246,043;54164,678;12,96860
 754,15; 7247,754;  246,889;54373,251;12,93430
 754,72; 7272,589;  246,581;54159,054;13,03225
 755,29; 7282,733;  236,043;53881,165;13,13575
 755,86; 7335,107;  264,966;54187,891;13,11157
 756,42; 7382,020;  272,735;54064,848;13,21622
 756,99; 7401,317;  224,273;53975,420;13,35236
 757,56; 7385,307;  239,966;53913,455;13,31261
 758,13; 7436,989;  201,042;53854,412;13,48647
 758,70; 7509,287;  232,966;53871,292;13,56553
 759,26; 7499,969;  221,273;53980,710;13,53938
 759,83; 7577,189;  229,042;54191,898;13,61705
 760,40; 7569,717;  218,581;53906,778;13,69228
 760,97; 7605,015;  211,119;54007,966;13,74411
 761,53; 7576,466;  198,119;53582,769;13,82110
 762,10; 7583,532;  209,581;53551,419;13,82395
 762,67; 7610,984;  230,042;53514,530;13,85195
 763,24; 7573,050;  184,658;53247,179;13,92394
 763,80; 7636,963;  214,427;53340,675;13,97150
 764,37; 7708,953;  230,504;53361,093;14,07560
 764,94; 7618,096;  208,119;52822,589;14,08353
 765,50; 7639,317;  211,965;52946,777;14,08434
 766,07; 7737,922;  254,042;52927,195;14,20815
 766,64; 7700,527;  224,350;52552,614;14,28707
 767,21; 7732,824;  218,965;52491,648;14,37435
 767,77; 7774,045;  248,581;52366,682;14,43925
 768,34; 7766,034;  242,812;52319,100;14,44654
 768,91; 7798,947;  262,735;52172,519;14,51790
 769,47; 7861,399;  241,581;52192,476;14,66735
 770,04; 7855,542;  247,581;52132,818;14,66306
 770,61; 7851,763;  231,658;51836,467;14,76627
 771,18; 7875,598;  222,658;51851,347;14,82304
 771,74; 7883,588;  246,658;51982,997;14,76125
 772,31; 7881,655;  250,119;51604,877;14,86043
 772,88; 7923,952;  222,658;51556,680;15,00232
 773,44; 7897,711;  222,273;51181,022;15,06206
 774,01; 8026,162;  249,196;51415,979;15,19925
 774,58; 8015,998;  233,273;50939,090;15,34878
 775,14; 8043,296;  227,658;51202,201;15,33243
 775,71; 8057,978;  248,042;51110,619;15,35497
 776,27; 8139,044;  278,504;51012,346;15,49368
 776,84; 8173,188;  313,965;51026,226;15,49768
 777,41; 8158,793;  246,504;50938,414;15,60858
 777,97; 8112,167;  242,888;50616,140;15,62194
 778,54; 8196,388;  243,504;50645,482;15,77891
 779,11; 8231,146;  258,657;50606,285;15,83489
 779,67; 8267,828;  230,350;50565,857;15,96781
 780,24; 8216,972;  239,888;50341,968;15,92166
 780,80; 8308,731;  261,657;50384,002;16,05486
 781,37; 8352,028;  254,657;50403,267;16,14675
 781,94; 8321,172;  253,119;50158,455;16,16671
 782,50; 8401,239;  253,965;50067,104;16,35567
 783,07; 8462,151;  271,350;50151,600;16,42093
 783,63; 8442,064;  233,196;49872,172;16,53714
 784,20; 8461,054;  263,657;49880,052;16,52155
 784,77; 8482,043;  255,196;49742,240;16,62425
 785,33; 8493,956;  234,273;49513,582;16,76096
 785,90; 8535,484;  243,273;49440,231;16,85513
 786,46; 8531,320;  265,965;49383,727;16,82763
 787,03; 8528,772;  234,888;49132,992;16,96156
 787,59; 8580,377;  239,350;49034,026;17,09413
 788,16; 8578,828;  256,196;48985,906;17,07917
 788,73; 8606,279;  250,888;48871,863;17,18475
 789,29; 8571,192;  253,042;48540,282;17,22639
 789,86; 8665,566;  273,811;48516,469;17,39489
 790,42; 8612,248;  242,042;48302,273;17,41608
 790,99; 8598,546;  260,427;48008,922;17,46258
 791,55; 8622,535;  237,965;47900,725;17,59145
 792,12; 8666,063;  276,657;47962,375;17,59312
 792,68; 8662,745;  254,503;47577,101;17,76792
 793,25; 8616,427;  257,734;47439,366;17,71599
 793,81; 8683,417;  312,888;47116,861;17,88423
 794,38; 8610,561;  225,350;46937,588;17,95078
 794,94; 8649,704;  251,196;46873,237;18,01403
 795,51; 8650,925;  260,503;46507,963;18,14245
 796,07; 8626,837;  259,119;46349,459;18,15504
 796,64; 8717,058;  274,426;46439,262;18,28801
 797,20; 8609,817;  255,349;45954,296;18,28153
 797,77; 8617,114;  219,657;45690,868;18,46763
 798,33; 8652,950;  253,888;45435,595;18,58952
 798,90; 8684,324;  275,965;45412,090;18,62889
 799,46; 8615,622;  249,042;44974,894;18,70636
 800,03; 8661,458;  261,273;44955,543;18,79477
 800,59; 8626,909;  267,734;44679,269;18,82208
 801,15; 8673,437;  266,119;44432,534;19,03555
 801,72; 8598,811;  263,965;44141,568;18,99567
 802,28; 8618,340;  291,888;43863,833;19,10966
 802,85; 8606,560;  250,196;43600,405;19,27641
 803,41; 8618,011;  259,042;43474,132;19,34271
 803,98; 8584,616;  235,657;42993,704;19,52605
 804,54; 8561,837;  247,042;42791,046;19,54399
 805,11; 8544,750;  265,426;42648,464;19,53452
 805,67; 8574,355;  273,734;42621,344;19,60115
 806,23; 8524,037;  260,195;42224,840;19,69239
 806,80; 8563,026;  267,119;42102,182;19,83004
 807,36; 8593,939;  278,965;41985,985;19,93663
 807,93; 8558,852;  295,426;41694,557;19,96038
 808,49; 8512,611;  244,349;41342,053;20,11855
 809,05; 8510,062;  235,811;41225,856;20,18600
 809,62; 8548,898;  266,042;41166,275;20,25137
 810,18; 8597,888;  271,272;41068,693;20,40966
 810,74; 8473,108;  224,042;40746,189;20,35693
 811,31; 8493,636;  238,118;40570,069;20,46893
 811,87; 8516,934;  258,272;40436,872;20,55488
 812,44; 8575,770;  289,811;40546,599;20,58276
 813,00; 8482,836;  226,349;40155,940;20,67761
 813,56; 8571,826;  260,272;40242,051;20,78835
 814,13; 8598,662;  250,811;40061,777;20,96872
 814,69; 8506,344;  250,426;39945,965;20,79810
 815,25; 8491,487;  221,118;39573,230;21,01633
 815,82; 8581,785;  264,272;39530,956;21,18211
 816,38; 8560,005;  280,657;39299,606;21,21879
 816,94; 8441,841;  244,811;38886,178;21,21310
 817,51; 8448,754;  227,272;38760,135;21,33629
 818,07; 8458,436;  245,118;38539,862;21,44764
 818,63; 8480,656;  253,272;38295,049;21,62723
 819,20; 8494,646;  253,349;38296,314;21,66313
 819,76; 8449,405;  236,272;37903,656;21,80436
 820,32; 8489,318;  281,349;37784,228;21,88624
 820,89; 8435,538;  267,657;37660,032;21,84371
 821,45; 8401,836;  241,580;37324,604;22,00537
 822,01; 8397,979;  254,580;37095,177;22,10442
 822,57; 8425,123;  250,426;36942,826;22,27899
 823,14; 8367,420;  227,580;36796,168;22,25910
 823,70; 8387,333;  240,964;36530,817;22,44806
 824,26; 8411,707;  250,811;36390,697;22,58141
 824,82; 8428,312;  260,503;36265,347;22,68531
 825,39; 8352,456;  241,272;36022,457;22,66885
 825,95; 8406,984;  254,426;35859,568;22,89714
 826,51; 8398,589;  260,810;35522,910;23,07797
 827,08; 8451,733;  296,964;35612,790;23,09097
 827,64; 8404,261;  261,118;35487,747;23,11644
 828,20; 8391,789;  239,580;35122,166;23,37043
 828,76; 8418,086;  268,964;35188,892;23,33659
 829,32; 8417,614;  276,272;34981,542;23,45852
 829,89; 8381,373;  229,272;34848,191;23,54811
 830,45; 8459,978;  251,503;34805,840;23,75527
 831,01; 8461,199;  255,657;34690,874;23,82893
 831,57; 8469,265;  257,118;34537,831;23,95559
 832,14; 8476,101;  241,887;34546,942;24,00292
 832,70; 8459,091;  234,503;34260,438;24,17153
 833,26; 8452,619;  212,887;34083,087;24,32738
 833,82; 8535,917;  241,580;34121,660;24,48146
 834,38; 8571,599;  233,349;34183,001;24,56063
 834,95; 8542,281;  231,041;33988,959;24,62012
 835,51; 8540,655;  211,349;33844,300;24,76531
 836,07; 8617,722;  246,041;33888,180;24,88451
 836,63; 8653,019;  258,656;33850,522;24,98927
 837,19; 8650,624;  249,503;33726,556;25,09516
 837,75; 8620,614;  209,195;33442,667;25,31008
 838,32; 8675,450;  258,041;33587,701;25,25501
 838,88; 8681,747;  259,041;33486,197;25,34886
 839,44; 8746,660;  246,887;33432,615;25,61274
 840,00; 8730,573;  246,349;33356,726;25,62406
 840,56; 8658,101;  225,041;33103,299;25,64935
 841,12; 8708,552;  222,887;33079,640;25,82624
 841,68; 8699,619;  219,733;32875,597;25,96742
 842,25; 8751,608;  236,118;32940,862;26,03748
 842,81; 8760,598;  217,733;32632,511;26,35485
 843,37; 8759,126;  209,349;32700,392;26,31426
 843,93; 8770,116;  234,579;32576,503;26,39155
 844,49; 8833,798;  247,887;32638,537;26,50737
 845,05; 8727,788;  210,964;32443,263;26,42326
 845,61; 8827,162;  248,349;32504,758;26,59569
 846,17; 8865,998;  225,964;32370,639;26,87859
 846,73; 8829,834;  238,195;32263,057;26,82803
 847,29; 8767,516;  223,656;32047,553;26,84731
 847,86; 8837,582;  226,041;32067,202;27,04531
 848,42; 8842,264;  215,733;31826,159;27,29014
 848,98; 8860,023;  240,810;31801,424;27,31003
 849,54; 8867,782;  222,425;31832,996;27,34957
 850,10; 8873,387;  232,502;31676,723;27,48004
 850,66; 8854,838;  220,733;31480,757;27,62028
 851,22; 8847,905;  224,118;31414,098;27,64922
 851,78; 8944,279;  261,964;31578,363;27,72450
 852,34; 8878,654;  240,887;31278,320;27,83016
 852,90; 8887,182;  223,964;31231,739;27,93886
 853,46; 8858,479;  224,887;30953,927;28,09587
 854,02; 8921,700;  240,118;31026,961;28,19900
 854,58; 8872,843;  231,810;30759,610;28,30546
 855,14; 8873,294;  216,964;30743,029;28,35718
 855,70; 8824,823;  193,733;30599,063;28,38677
 856,26; 8915,274;  237,810;30437,712;28,73342
 856,82; 8852,956;  215,502;30324,054;28,68771
 857,38; 8857,253;  258,656;30237,626;28,68210
 857,94; 8835,551;  243,579;30083,737;28,79332
 858,50; 8868,925;  244,502;30073,694;28,91269
 859,06; 8796,222;  228,733;29930,113;28,84543
 859,62; 8843,058;  241,271;29801,531;29,09916
 860,18; 8815,894;  234,502;29588,796;29,23386
 860,74; 8832,191;  205,656;29468,676;29,47931
 861,30; 8732,797;  205,887;29284,633;29,32351
 861,86; 8854,094;  274,041;29379,437;29,47925
 862,42; 8820,930;  236,271;29162,471;29,67780
 862,98; 8889,458;  256,348;29163,658;29,86480
 863,54; 8838,217;  227,502;28876,616;30,05578
 864,10; 8869,976;  234,194;29001,265;30,01968
 864,66; 8800,812;  216,579;28799,914;30,03230
 865,22; 8828,955;  233,194;28585,025;30,31819
 865,78; 8852,253;  239,964;28516,752;30,45710
 866,34; 8863,473;  221,656;28415,478;30,65146
 866,90; 8830,155;  240,425;28320,973;30,58961
 867,45; 8812,760;  235,117;28097,546;30,78570
 868,01; 8786,058;  235,271;27947,888;30,85521
 868,57; 8817,432;  235,502;27802,614;31,13104
 869,13; 8762,114;  215,271;27682,725;31,11625
 869,69; 8770,950;  222,579;27569,297;31,25922
 870,25; 8777,016;  206,348;27467,793;31,43879
 870,81; 8818,006;  223,579;27456,596;31,55885
 871,37; 8801,688;  235,425;27348,322;31,59479
 871,93; 8796,755;  249,040;27184,664;31,73386
 872,49; 8763,821;  256,271;27013,160;31,79574
 873,04; 8735,657;  228,271;26833,040;31,97692
 873,60; 8711,031;  214,579;26649,381;32,14116
 874,16; 8722,790;  239,348;26672,877;32,09349
 874,72; 8786,252;  233,656;26534,338;32,51853
 875,28; 8798,329;  234,579;26443,877;32,67447
 875,84; 8775,483;  234,348;26347,569;32,70809
 876,40; 8839,021;  231,117;26285,031;33,03881
 876,95; 8815,021;  239,117;26397,723;32,78425
 877,51; 8859,637;  258,425;26291,569;33,03946
 878,07; 8953,021;  264,810;26318,031;33,34794
 878,63; 8964,790;  233,040;26292,262;33,50733
 879,19; 8987,483;  243,656;26245,262;33,62803
 879,75; 9026,329;  229,117;26307,185;33,73414
 880,30; 9038,098;  228,502;26332,646;33,74788
 880,86; 9140,483;  272,271;26449,569;33,87749
 881,42; 9161,329;  226,425;26546,800;33,94672
 881,98; 9212,406;  244,194;26562,262;34,07625
 882,54; 9264,175;  219,271;26599,877;34,28619
 883,09; 9333,560;  242,425;26769,646;34,27096
 883,65; 9434,406;  219,579;26777,877;34,69660
 884,21; 9543,713;  256,194;27130,338;34,55931
 884,77; 9551,637;  218,656;27104,800;34,71298
 885,32; 9654,560;  229,887;27285,415;34,83456
 885,88; 9815,790;  263,348;27356,031;35,25838
 886,44; 9868,637;  237,348;27508,108;35,31727
 887,00; 9879,098;  250,117;27509,954;35,32296
 887,56; 9940,944;  226,425;27624,338;35,45715
 888,11;10015,637;  235,733;27709,415;35,59735
 888,67;10120,175;  262,502;27831,877;35,75588
 889,23;10179,483;  248,348;27862,108;35,96444
 889,79;10095,252;  219,271;27716,108;35,91679
 890,34;10111,098;  245,348;27647,262;36,00387
 890,90;10310,406;  300,656;27796,338;36,40481
 891,46;10209,406;  225,963;27674,569;36,37140
 892,01;10306,867;  253,963;27663,262;36,67698
 892,57;10283,944;  269,117;27668,338;36,55150
 893,13;10293,944;  228,887;27430,723;37,00139
 893,69;10260,406;  218,194;27336,492;37,03113
 894,24;10278,021;  234,271;27304,492;37,10258
 894,80;10303,406;  237,733;27165,954;37,37964
 895,36;10245,021;  248,579;26965,415;37,41626
 895,91;10251,406;  238,117;26828,185;37,65800
 896,47;10240,175;  246,579;26687,031;37,79662
 897,03;10179,637;  232,040;26525,569;37,83287
 897,58;10215,713;  243,194;26447,646;38,05658
 898,14;10208,560;  248,348;26272,569;38,27285
 898,70;10131,175;  209,425;26179,877;38,20399
 899,25;10223,021;  232,194;26114,954;38,60032
 899,81;10227,790;  250,425;25893,338;38,90886
 900,37;10143,790;  214,656;25744,646;38,89204
 900,92;10126,637;  242,963;25775,262;38,71047
 901,48;10057,790;  232,194;25568,185;38,78118
 902,03;10117,021;  228,425;25457,415;39,19537
 902,59;10102,175;  225,579;25299,031;39,39065
 903,15;10148,175;  256,579;25161,108;39,71806
 903,70;10042,944;  237,117;24939,800;39,69539
 904,26;10074,867;  228,117;24813,646;40,05100
 904,82;10034,790;  241,656;24794,262;39,88634
 905,37;10041,637;  243,194;24693,954;40,07418
 905,93;10000,637;  225,887;24486,569;40,29050
 906,48;10009,329;  246,963;24453,954;40,32870
 907,04;10016,406;  252,194;24380,108;40,46853
 907,60; 9953,098;  234,348;24218,262;40,52195
 908,15; 9928,021;  232,425;24148,569;40,53996
 908,71; 9920,021;  255,733;24069,338;40,58305
 909,26; 9924,637;  225,733;23896,108;40,97486
 909,82; 9937,867;  254,733;23816,338;41,09709
 910,37; 9954,867;  271,271;23729,954;41,27937
 910,93; 9815,406;  227,810;23522,415;41,15801
 911,48; 9785,021;  229,425;23429,415;41,18793
 912,04; 9836,483;  229,425;23388,415;41,48306
 912,60; 9843,098;  247,963;23303,954;41,61667
 913,15; 9782,406;  238,887;23178,262;41,60322
 913,71; 9751,867;  231,733;22948,954;41,90713
 914,26; 9782,637;  209,887;22946,262;42,10324
 914,82; 9758,175;  235,040;22802,338;42,19882
 915,37; 9733,790;  220,348;22777,646;42,17456
 915,93; 9754,252;  275,117;22773,569;42,13239
 916,48; 9701,329;  227,887;22531,185;42,47552
 917,04; 9707,252;  241,656;22381,415;42,75383
 917,59; 9682,406;  271,117;22314,569;42,69426
 918,15; 9586,713;  208,502;22112,108;42,81583
 918,70; 9635,483;  226,963;22023,031;43,16613
 919,26; 9685,098;  235,271;22030,262;43,35779
 919,81; 9617,560;  209,810;21829,646;43,51444
 920,37; 9605,637;  225,733;21741,031;43,59644
 920,92; 9604,252;  246,425;21623,185;43,77570
 921,48; 9550,944;  215,348;21512,108;43,83576
 922,03; 9632,637;  229,040;21410,338;44,39575
 922,59; 9542,867;  231,040;21317,338;44,16056
 923,14; 9530,175;  222,194;21176,262;44,42088
 923,69; 9573,483;  240,194;21132,877;44,67252
 924,25; 9564,406;  253,194;21044,415;44,78434
 924,80; 9489,560;  226,579;20868,262;44,87512
 925,36; 9492,637;  211,117;20797,262;45,08624
 925,91; 9471,560;  224,425;20721,262;45,11494
 926,47; 9477,406;  202,040;20647,646;45,36606
 927,02; 9493,790;  276,579;20512,646;45,54843
 927,57; 9405,483;  228,733;20392,800;45,51041
 928,13; 9424,252;  218,117;20377,415;45,66694
 928,68; 9432,560;  224,194;20252,646;45,97642
 929,24; 9372,713;  202,502;20031,723;46,24595
 929,79; 9285,098;  217,810;19900,800;46,06662
 930,34; 9344,175;  226,425;19804,877;46,57033
 930,90; 9267,175;  217,271;19774,800;46,27325
 931,45; 9345,790;  244,887;19713,338;46,74693
 932,01; 9330,867;  231,117;19565,954;47,06401
 932,56; 9332,021;  251,348;19435,800;47,33350
 933,11; 9290,560;  251,579;19512,569;46,92895
 933,67; 9234,175;  213,502;19313,800;47,22792
 934,22; 9229,329;  234,810;19217,723;47,38219
 934,77; 9201,713;  255,656;19087,492;47,50497
 935,33; 9208,021;  239,425;19034,415;47,71801
 935,88; 9145,483;  240,963;18921,108;47,66836
 936,43; 9080,483;  230,271;18932,108;47,32269
 936,99; 9110,329;  230,502;18751,185;47,94546
 937,54; 9067,790;  206,887;18640,338;48,06969
 938,09; 9053,021;  236,887;18619,262;47,95971
 938,65; 9062,175;  236,656;18427,492;48,51629
 939,20; 8995,021;  198,963;18364,569;48,42149
 939,75; 8978,252;  214,733;18285,185;48,49640
 940,31; 8985,790;  211,887;18130,646;48,96491
 940,86; 9024,790;  226,502;18268,877;48,76458
 941,41; 9022,790;  304,656;18127,185;48,91637
 941,96; 8885,021;  219,040;17919,954;48,95782
 942,52; 8937,329;  222,194;17816,492;49,53386
 943,07; 8876,483;  211,656;17773,031;49,34025
 943,62; 8901,483;  221,194;17692,492;49,68313
 944,18; 8892,098;  200,502;17581,338;50,00678
 944,73; 8880,252;  230,502;17509,415;50,05957
 945,28; 8791,098;  201,271;17347,800;50,09659
 945,83; 8839,944;  223,733;17334,569;50,35529
 946,39; 8831,483;  221,579;17267,262;50,51076
 946,94; 8783,944;  246,194;17123,185;50,58811
 947,49; 8779,713;  214,502;17098,723;50,72909
 948,04; 8870,944;  254,425;17040,723;51,33067
 948,59; 8822,944;  245,348;16976,415;51,26748
 949,15; 8789,406;  201,040;16849,031;51,58800
 949,70; 8804,790;  215,887;16771,954;51,87768
 950,25; 8798,406;  232,579;16707,415;51,99340
 950,80; 8723,867;  192,887;16579,646;52,06021
 951,36; 8695,560;  195,887;16531,262;52,03231
 951,91; 8759,560;  237,502;16589,569;52,11609
 952,46; 8618,252;  206,887;16310,492;52,23281
 953,01; 8685,790;  243,040;16344,108;52,43596
 953,56; 8652,867;  200,656;16269,031;52,60153
 954,11; 8615,098;  235,579;16165,723;52,60165
 954,67; 8655,637;  221,194;16106,800;53,09487
 955,22; 8552,329;  200,348;15992,262;52,88771
 955,77; 8573,867;  248,733;15869,108;53,29664
 956,32; 8610,175;  271,656;15821,108;53,62581
 956,87; 8485,329;  216,194;15694,492;53,42406
 957,42; 8498,406;  209,579;15672,954;53,60296
 957,98; 8442,483;  213,348;15545,646;53,67189
 958,53; 8491,098;  251,656;15550,108;53,85801
 959,08; 8405,637;  213,502;15369,954;54,05048
 959,63; 8375,329;  212,271;15321,185;54,02809
 960,18; 8421,637;  238,656;15256,800;54,48730
 960,73; 8420,867;  227,271;15170,108;54,83294
 961,28; 8370,021;  208,963;15061,338;54,94783
 961,83; 8370,483;  239,117;15030,723;54,97284
 962,39; 8279,021;  199,348;14948,031;54,78234
 962,94; 8268,790;  235,040;14895,031;54,80051
 963,49; 8287,713;  222,733;14785,877;55,37939
 964,04; 8258,406;  234,117;14735,646;55,33409
 964,59; 8231,637;  203,348;14598,338;55,77141
 965,14; 8262,406;  239,733;14495,877;56,27520
 965,69; 8158,560;  226,656;14423,108;55,87244
 966,24; 8184,098;  221,579;14324,569;56,45979
 966,79; 8170,790;  233,502;14256,800;56,60073
 967,34; 8103,790;  203,194;14163,338;56,59394
 967,89; 8103,560;  216,963;14142,108;56,63565
 968,44; 8097,175;  227,040;14020,262;57,05799
 968,99; 8153,329;  238,887;13980,492;57,59474
 969,55; 8088,560;  234,194;13892,723;57,50521
 970,10; 8076,329;  233,348;13798,185;57,81847
 970,65; 8008,560;  240,040;13688,492;57,76516
 971,20; 7983,713;  216,348;13657,108;57,78963
 971,75; 7913,329;  202,117;13495,031;58,00994
 972,30; 7940,406;  220,040;13411,723;58,52449
 972,85; 7885,867;  209,271;13331,338;58,50142
 973,40; 7794,867;  213,887;13211,185;58,32736
 973,95; 7798,406;  231,194;13158,954;58,53459
 974,50; 7805,713;  246,502;13112,185;58,75484
 975,05; 7764,637;  224,040;12960,723;59,20377
 975,60; 7693,560;  243,271;12940,185;58,67795
 976,15; 7686,944;  216,271;12856,492;59,10239
 976,70; 7688,252;  224,733;12813,569;59,28681
 977,25; 7652,406;  232,963;12737,338;59,33477
 977,80; 7610,483;  216,040;12609,108;59,66596
 978,35; 7510,175;  244,194;12436,646;59,59409
 978,89; 7505,175;  205,579;12416,723;59,77815
 979,44; 7437,560;  224,656;12397,262;59,25522
 979,99; 7392,252;  215,348;12183,800;59,96518
 980,54; 7401,637;  242,271;12102,185;60,36608
 981,09; 7336,637;  246,579;12018,492;60,22859
 981,64; 7257,175;  227,963;11855,492;60,45319
 982,19; 7293,329;  257,810;11853,108;60,67562
 982,74; 7208,944;  238,502;11709,338;60,76664
 983,29; 7104,867;  219,810;11567,569;60,67328
 983,84; 7091,483;  235,810;11517,877;60,76611
 984,39; 7116,483;  297,040;11455,031;61,11712
 984,94; 7027,098;  208,117;11331,262;61,30444
 985,49; 7029,713;  251,425;11260,108;61,57220
 986,03; 6996,483;  250,963;11164,723;61,80747
 986,58; 6980,483;  272,117;11078,338;62,07873
 987,13; 6864,867;  233,194;10914,569;62,08632
 987,68; 6860,252;  238,963;10783,492;62,79359
 988,23; 6845,560;  253,579;10731,646;62,91218
 988,78; 6752,560;  222,810;10619,108;62,80841
 989,33; 6739,329;  251,502;10543,569;63,03716
 989,88; 6722,944;  264,963;10469,646;63,28448
 990,42; 6607,021;  235,425;10364,415;62,90455
 990,97; 6556,944;  228,579;10242,415;63,19621
 991,52; 6563,252;  253,656;10198,415;63,44644
 992,07; 6487,329;  272,656;10096,338;63,26215
 992,62; 6458,637;  241,271; 9974,338;63,87879
 993,17; 6390,483;  257,733; 9848,569;63,94385
 993,71; 6356,021;  250,271; 9817,954;63,81639
 994,26; 6294,944;  230,733; 9626,262;64,54359
 994,81; 6315,867;  258,810; 9635,262;64,59861
 995,36; 6204,944;  228,887; 9457,569;64,75526
 995,91; 6192,175;  237,810; 9411,492;64,90703
 996,45; 6122,790;  240,502; 9291,338;64,99166
 997,00; 6088,252;  216,271; 9174,877;65,54570
 997,55; 6034,406;  238,810; 9163,108;64,94176
 998,10; 6005,867;  257,579; 9031,031;65,51912
 998,65; 5944,175;  228,579; 8961,031;65,45236
 999,19; 5886,713;  255,425; 8856,569;65,47139
 999,74; 5854,713;  267,194; 8783,338;65,61090
1000,29; 5785,098;  249,579; 8710,338;65,42579
1000,84; 5723,560;  238,963; 8544,338;66,03671
1001,38; 5673,098;  240,502; 8451,569;66,16188
1001,93; 5639,560;  249,194; 8414,262;66,01740
1002,48; 5544,483;  218,579; 8240,185;66,39449
1003,03; 5565,637;  250,117; 8217,877;66,71285
1003,57; 5537,560;  239,425; 8132,415;67,12455
1004,12; 5482,175;  271,656; 8023,415;67,21724
1004,67; 5435,252;  232,502; 7896,338;67,88702
1005,22; 5324,637;  219,733; 7790,723;67,42716
1005,76; 5261,944;  218,963; 7644,338;67,91550
1006,31; 5227,867;  246,502; 7624,185;67,51938
1006,86; 5161,252;  233,502; 7478,646;68,01452
1007,40; 5100,483;  216,579; 7400,800;67,98098
1007,95; 5013,406;  235,502; 7289,185;67,73630
1008,50; 4954,175;  244,425; 7210,492;67,60988
1009,04; 4932,098;  231,656; 7102,031;68,41610
1009,59; 4840,406;  243,733; 6969,262;68,34664
1010,14; 4769,406;  221,810; 6848,877;68,62155
1010,68; 4698,560;  233,656; 6776,415;68,24191
1011,23; 4643,406;  229,656; 6692,031;68,29919
1011,78; 4603,329;  249,579; 6658,415;67,93355
1012,32; 4543,560;  255,887; 6525,723;68,38572
1012,87; 4521,483;  259,502; 6550,492;67,74737
1013,42; 4431,790;  222,963; 6384,338;68,30986
1013,96; 4475,867;  265,733; 6379,723;68,86067
1014,51; 4361,867;  194,194; 6280,877;68,47200
1015,06; 4419,021;  204,348; 6287,954;69,27919
1015,60; 4453,713;  271,425; 6351,492;68,78688
1016,15; 4418,175;  229,348; 6284,108;69,18238
1016,69; 4456,560;  236,348; 6322,877;69,33692
1017,24; 4471,867;  214,733; 6312,262;69,81738
1017,79; 4577,637;  264,040; 6395,800;70,34842
1018,33; 4535,252;  224,271; 6389,492;69,92419
1018,88; 4568,637;  246,963; 6421,569;69,99108
1019,42; 4629,483;  231,887; 6428,877;70,96342
1019,97; 4633,098;  223,117; 6424,492;71,11295
1020,51; 4665,406;  257,810; 6518,415;70,40207
1021,06; 4630,713;  227,040; 6444,415;70,82849
1021,61; 4669,175;  202,040; 6436,646;71,65063
1022,15; 4629,713;  193,040; 6387,723;71,62067
1022,70; 4630,483;  231,348; 6428,954;70,98119
1023,24; 4604,252;  218,040; 6360,723;71,40547
1023,79; 4573,944;  225,733; 6285,185;71,75916
1024,33; 4520,252;  238,502; 6243,723;71,30045
1024,88; 4517,790;  237,810; 6147,646;72,42131
1025,42; 4444,175;  227,810; 6068,800;72,18580
1025,97; 4358,021;  222,425; 5988,262;71,72587
1026,51; 4294,867;  185,733; 5866,185;72,33816
1027,06; 4282,790;  216,887; 5799,877;72,82663
1027,60; 4184,790;  230,887; 5729,877;71,90236
1028,15; 4168,637;  239,579; 5657,954;72,51358
1028,69; 4079,098;  197,810; 5499,492;73,20861
1029,24; 4034,944;  205,579; 5504,108;72,27224
1029,78; 4016,713;  220,810; 5407,954;73,17907
1030,33; 3904,560;  204,810; 5274,415;72,97905
1030,87; 3892,637;  217,271; 5212,646;73,57536
1031,42; 3808,637;  210,579; 5106,108;73,49681
1031,96; 3786,790;  233,117; 5087,108;73,21137
1032,51; 3739,867;  210,810; 4997,877;73,72066
1033,05; 3655,252;  221,425; 4939,492;72,78037
1033,60; 3577,790;  193,502; 4842,108;72,80223
1034,14; 3581,560;  217,194; 4740,338;74,38112
1034,69; 3534,713;  217,810; 4734,800;73,43172
1035,23; 3527,867;  223,963; 4670,338;74,30556
1035,77; 3457,790;  206,348; 4589,723;74,17669
1036,32; 3407,790;  202,348; 4498,723;74,60807
1036,86; 3357,713;  223,887; 4455,338;74,06032
1037,41; 3315,790;  235,579; 4392,646;74,09578
1037,95; 3288,560;  202,194; 4299,262;75,33109
1038,50; 3248,329;  213,425; 4267,262;74,86498
1039,04; 3220,483;  234,425; 4237,492;74,59424
1039,58; 3186,021;  195,963; 4155,415;75,51696
1040,13; 3120,867;  223,194; 4076,954;75,19081
1040,67; 3098,329;  252,271; 4112,800;73,72196
1041,21; 3087,713;  254,502; 4004,954;75,54320
1041,76; 2999,944;  203,502; 3916,723;75,31042
1042,30; 2979,483;  213,579; 3875,800;75,52531
1042,85; 2932,637;  214,579; 3803,877;75,72672
1043,39; 2869,175;  204,656; 3776,262;74,60284
1043,93; 2854,867;  242,887; 3720,185;75,11524
1044,48; 2838,329;  232,887; 3651,646;76,21016
1045,02; 2797,560;  228,810; 3589,954;76,42487
1045,56; 2792,867;  236,040; 3571,723;76,65078
1046,11; 2735,098;  223,425; 3528,877;75,98577
1046,65; 2691,483;  226,963; 3464,800;76,11623
1047,19; 2660,098;  219,656; 3415,108;76,37237
1047,74; 2618,713;  205,271; 3355,185;76,61932
1048,28; 2581,867;  237,887; 3336,031;75,65757
1048,82; 2588,329;  243,117; 3300,800;76,69898
1049,37; 2532,637;  236,579; 3249,646;76,20333
1049,91; 2503,098;  228,425; 3218,492;76,07431
1050,45; 2479,713;  236,425; 3167,569;76,53286
1050,99; 2428,867;  230,963; 3094,031;76,76745
1051,54; 2420,406;  212,656; 3051,338;77,77375
1052,08; 2422,098;  250,810; 3051,031;77,53989
1052,62; 2367,713;  245,040; 2967,262;77,97578
1053,16; 2316,637;  220,502; 2939,031;77,10548
1053,71; 2318,637;  231,348; 2928,800;77,38001
1054,25; 2293,021;  250,348; 2871,723;77,92373
1054,79; 2260,021;  236,194; 2834,723;77,88357
1055,33; 2190,483;  205,425; 2745,338;78,15454
1055,88; 2203,560;  227,733; 2742,031;78,58364
1056,42; 2209,252;  248,271; 2701,108;79,94747
1056,96; 2143,483;  240,579; 2691,954;77,62598
1057,50; 2137,867;  231,117; 2631,646;79,43041
1058,05; 2089,713;  230,194; 2593,492;78,68323
1058,59; 2059,944;  261,040; 2549,723;78,59997
1059,13; 2006,790;  220,963; 2494,877;78,53540
1059,67; 2045,790;  243,040; 2494,877;80,05688
1060,21; 1994,713;  227,502; 2447,338;79,60999
1060,76; 1973,483;  240,963; 2425,646;79,30301
1061,30; 1958,098;  260,040; 2402,108;79,27191
1061,84; 1911,713;  229,425; 2340,569;79,68610
1062,38; 1872,483;  224,963; 2288,569;79,83692
1062,92; 1891,637;  266,348; 2291,569;80,25239
1063,46; 1859,944;  242,502; 2226,338;81,53103
1064,01; 1816,713;  221,579; 2198,954;80,66930
1064,55; 1791,483;  237,271; 2185,185;79,78853
1065,09; 1743,175;  209,502; 2115,800;80,45295
1065,63; 1788,867;  256,656; 2158,185;80,57788
1066,17; 1779,329;  264,810; 2132,108;81,10752
1066,71; 1753,867;  244,733; 2082,262;82,12849
1067,25; 1688,944;  235,733; 2033,262;80,84496
1067,80; 1701,175;  249,810; 2043,492;80,91539
1068,34; 1693,406;  265,271; 2001,723;82,24441
1068,88; 1632,560;  232,502; 1952,262;81,41008
1069,42; 1681,252;  263,810; 1965,877;83,27769
1069,96; 1619,406;  228,194; 1935,415;81,48983
1070,50; 1636,483;  274,117; 1929,108;82,31863
1071,04; 1567,252;  226,117; 1859,031;82,13140
1071,58; 1546,098;  233,271; 1835,646;81,93007
1072,12; 1553,098;  241,040; 1829,108;82,61978
1072,66; 1535,944;  227,656; 1794,877;83,47823
1073,21; 1549,098;  263,579; 1804,108;83,44662
1073,75; 1523,329;  238,656; 1770,108;83,88596
1074,29; 1491,637;  239,040; 1763,492;82,16698
1074,83; 1476,329;  255,656; 1743,415;82,04774
1075,37; 1480,867;  259,656; 1720,185;83,61434
1075,91; 1453,483;  253,040; 1706,492;82,59250
1076,45; 1451,560;  243,194; 1687,877;83,64227
1076,99; 1431,713;  248,502; 1652,185;84,29338
1077,53; 1406,637;  221,502; 1613,492;85,13957
1078,07; 1381,560;  246,887; 1641,646;81,35259
1078,61; 1380,252;  244,887; 1574,723;85,37631
1079,15; 1361,021;  236,271; 1582,569;83,54391
1079,69; 1345,560;  237,271; 1560,108;83,78121
1080,23; 1367,252;  266,810; 1560,646;85,05265
1080,77; 1364,560;  285,502; 1570,800;83,95389
1081,31; 1312,098;  228,579; 1496,492;85,45688
1081,85; 1317,867;  243,810; 1501,954;85,36841
1082,39; 1276,098;  232,194; 1446,031;86,00036
1082,93; 1297,406;  250,887; 1446,800;87,50794
1083,47; 1242,560;  234,117; 1421,415;84,93590
1084,01; 1265,252;  253,810; 1440,415;85,23828
1084,55; 1240,406;  233,963; 1397,185;86,52201
1085,09; 1226,713;  255,040; 1391,646;85,48902
1085,63; 1218,560;  245,579; 1357,108;87,53536
1086,17; 1184,175;  233,502; 1338,415;86,04050
1086,71; 1183,098;  231,425; 1309,723;88,25696
1087,24; 1198,175;  266,502; 1353,877;85,68094
1087,78; 1177,406;  255,963; 1318,492;86,72163
1088,32; 1131,560;  226,271; 1264,415;87,20257
1088,86; 1168,252;  255,733; 1294,415;87,85351
1089,40; 1145,790;  243,348; 1259,723;88,79029
1089,94; 1095,867;  225,348; 1232,954;86,39482
1090,48; 1087,483;  257,733; 1234,185;84,97602
1091,02; 1090,560;  253,963; 1229,800;85,73118
1091,56; 1098,175;  252,656; 1207,338;88,56547
1092,10; 1029,483;  228,348; 1182,646;83,95014
1092,63; 1087,406;  257,963; 1209,723;87,14830
1093,17; 1053,944;  256,502; 1174,185;86,89739
1093,71; 1044,175;  238,194; 1144,338;88,94619
1094,25; 1060,637;  257,425; 1153,492;89,63741
1094,79; 1015,175;  248,425; 1127,800;87,19261
1095,33; 1026,252;  256,271; 1120,031;89,14295
1095,87; 1011,637;  251,425; 1102,492;89,32449
1096,40;  975,637;  223,963; 1088,492;86,94598
1096,94;  980,790;  242,117; 1075,877;88,59545
1097,48;  971,637;  252,040; 1080,031;86,90876
1098,02;  955,790;  245,040; 1037,646;89,67257
1098,56;  911,329;  212,348; 1026,800;85,82223
1099,10;  933,483;  227,348; 1004,877;90,81780
1099,63;  907,560;  233,040;  997,723;88,20904
1100,17;  922,637;  248,963; 1012,646;88,21374
1100,71;  941,329;  262,733; 1020,338;89,57114

