
Integration time [ms]: 120,000
Averaging Nr. [scans]: 13
Smoothing Nr. [pixels]: 0
Data measured with spectrometer [name]: 2009305U1
Wave   ;Sample   ;Dark     ;Reference;Reflectance
[nm]   ;[counts] ;[counts] ;[counts] ;[%]

 175,72;  201,045;  198,566;  203,486;50,38600
 176,32;  227,737;  219,407;  208,673; 0,00000
 176,92;  250,896;  225,488;  238,333;197,79534
 177,52;  260,222;  249,642;  262,106;84,87778
 178,12;  242,167;  222,099;  228,158;331,21574
 178,72;  265,891;  259,021;  245,677; 0,00000
 179,32;  252,950;  244,330;  240,398; 0,00000
 179,92;  246,497;  240,255;  252,059;52,88105
 180,52;  242,240;  231,723;  249,371;59,59242
 181,12;  251,321;  239,332;  250,633;106,08678
 181,73;  266,697;  258,641;  266,350;104,49252
 182,33;  335,186;  284,028;  295,841;433,06831
 182,93;  271,765;  254,488;  255,469; 0,00000
 183,53;  235,112;  227,174;  226,551; 0,00000
 184,13;  232,298;  237,636;  225,468; 0,00000
 184,73;  265,153;  249,327;  254,503;305,76546
 185,33;  269,014;  226,295;  344,225;36,22397
 185,93;  281,516;  240,752;  352,455;36,49284
 186,53;  292,891;  255,370;  364,379;34,42057
 187,13;  317,141;  264,836;  412,009;35,53991
 187,73;  273,656;  232,522;  362,733;31,59030
 188,33;  287,823;  233,135;  381,478;36,86591
 188,93;  284,623;  240,205;  374,876;32,98279
 189,53;  288,383;  250,277;  378,185;29,79190
 190,13;  314,418;  273,960;  414,815;28,72332
 190,73;  268,971;  215,428;  353,059;38,90348
 191,34;  294,858;  259,511;  384,128;28,36503
 191,94;  264,674;  225,133;  350,519;31,53514
 192,54;  297,956;  248,608;  384,313;36,36390
 193,14;  304,914;  260,220;  390,699;34,25436
 193,74;  291,285;  241,065;  380,441;36,03214
 194,34;  289,281;  239,375;  385,056;34,25731
 194,94;  253,073;  207,681;  342,061;33,77864
 195,54;  235,964;  204,833;  332,974;24,29425
 196,14;  252,919;  217,529;  369,402;23,30231
 196,74;  252,367;  215,678;  347,155;27,90477
 197,34;  235,381;  195,224;  346,549;26,53675
 197,94;  267,711;  229,220;  373,581;26,66284
 198,54;  270,978;  229,683;  379,896;27,49081
 199,14;  266,431;  212,610;  390,008;30,33891
 199,74;  242,119;  198,457;  379,646;24,09751
 200,34;  249,318;  197,842;  390,264;26,75157
 200,94;  271,919;  225,377;  428,974;22,85988
 201,54;  263,453;  216,302;  441,608;20,92773
 202,14;  297,463;  216,227;  462,095;33,04022
 202,74;  283,920;  208,610;  486,930;27,05853
 203,34;  266,992;  196,768;  509,732;22,43853
 203,94;  248,517;  176,997;  522,669;20,69014
 204,54;  307,096;  236,374;  596,561;19,63458
 205,14;  302,874;  198,764;  609,579;25,34233
 205,74;  329,694;  233,383;  705,303;20,40829
 206,34;  302,295;  202,304;  730,183;18,94206
 206,94;  316,562;  217,842;  803,772;16,84843
 207,54;  291,404;  188,535;  818,775;16,32220
 208,14;  329,277;  203,382;  928,042;17,37307
 208,74;  346,675;  204,302; 1008,479;17,70417
 209,34;  360,684;  201,918; 1088,856;17,90047
 209,94;  384,675;  218,995; 1208,459;16,74444
 210,54;  390,644;  213,382; 1299,034;16,32767
 211,14;  417,684;  215,149; 1412,876;16,90999
 211,73;  432,300;  200,840; 1527,244;17,45015
 212,33;  471,155;  217,762; 1648,567;17,70980
 212,93;  474,992;  204,841; 1725,665;17,76347
 213,53;  474,825;  182,687; 1796,194;18,10574
 214,13;  491,468;  191,000; 1874,334;17,84956
 214,73;  493,540;  191,766; 1898,095;17,68555
 215,33;  489,598;  169,995; 1920,998;18,25259
 215,93;  552,205;  197,460; 2050,324;19,14578
 216,53;  547,137;  149,610; 2130,499;20,06810
 217,13;  647,775;  210,844; 2382,397;20,12068
 217,73;  680,196;  177,537; 2579,907;20,92347
 218,33;  694,938;  153,616; 2783,249;20,58548
 218,93;  802,233;  174,774; 3072,845;21,65092
 219,53;  884,011;  189,847; 3389,579;21,69444
 220,13;  925,459;  163,924; 3728,452;21,36424
 220,73; 1033,589;  178,149; 4076,196;21,94535
 221,32; 1156,906;  187,918; 4495,556;22,49465
 221,92; 1267,070;  189,924; 4912,802;22,80697
 222,52; 1333,087;  173,460; 5400,007;22,18726
 223,12; 1467,305;  183,845; 5767,690;22,98523
 223,72; 1570,454;  197,307; 6192,789;22,90303
 224,32; 1644,246;  197,307; 6643,021;22,44808
 224,92; 1721,902;  179,461; 6989,549;22,64936
 225,52; 1826,635;  194,611; 7395,180;22,66520
 226,12; 1905,377;  188,998; 7768,946;22,64368
 226,72; 1963,028;  170,536; 8113,362;22,56744
 227,31; 2046,761;  153,766; 8520,120;22,62628
 227,91; 2163,024;  188,073; 8949,331;22,54187
 228,51; 2213,974;  180,301; 9448,317;21,94291
 229,11; 2344,906;  176,843; 9856,570;22,39798
 229,71; 2386,191;  171,764;10194,401;22,09426
 230,31; 2481,196;  170,308;10676,345;21,99581
 230,91; 2507,643;  168,915;10982,606;21,62747
 231,51; 2599,544;  160,691;11344,280;21,80743
 232,10; 2714,590;  168,308;11709,875;22,06184
 232,70; 2768,127;  187,451;11933,902;21,96983
 233,30; 2804,834;  192,844;12198,872;21,75565
 233,90; 2816,413;  179,152;12314,399;21,73224
 234,50; 2835,526;  178,614;12487,313;21,58565
 235,10; 2856,748;  173,922;12540,626;21,69395
 235,70; 2809,395;  185,380;12576,880;21,17592
 236,29; 2810,358;  187,687;12620,006;21,09559
 236,89; 2775,453;  167,146;12451,267;21,23316
 237,49; 2731,282;  187,921;12428,441;20,77821
 238,09; 2652,295;  173,381;12143,413;20,70934
 238,69; 2582,222;  196,452;11868,347;20,44030
 239,29; 2483,626;  172,073;11594,147;20,23759
 239,89; 2379,720;  193,146;11243,509;19,78735
 240,48; 2251,028;  167,997;10851,171;19,49825
 241,08; 2130,911;  180,073;10506,454;18,89179
 241,68; 2066,843;  194,920;10155,041;18,79418
 242,28; 1940,096;  174,075; 9827,002;18,29519
 242,88; 1862,694;  192,692; 9558,279;17,83125
 243,48; 1781,363;  204,997; 9258,649;17,41138
 244,07; 1685,295;  193,073; 9013,704;16,91741
 244,67; 1623,268;  196,843; 8945,702;16,30413
 245,27; 1574,376;  196,840; 8755,090;16,09601
 245,87; 1532,716;  195,846; 8680,706;15,75595
 246,47; 1500,490;  175,763; 8629,563;15,67019
 247,06; 1455,838;  184,765; 8722,642;14,88746
 247,66; 1460,318;  174,920; 8733,030;15,01965
 248,26; 1494,372;  226,533; 8884,631;14,64339
 248,86; 1493,096;  199,840; 9152,915;14,44482
 249,46; 1490,857;  160,844; 9355,950;14,46435
 250,05; 1564,114;  191,612; 9730,434;14,38859
 250,65; 1626,707;  162,455;10109,593;14,72033
 251,25; 1685,553;  178,996;10645,299;14,39436
 251,85; 1787,897;  181,531;11169,454;14,61938
 252,44; 1864,024;  152,072;11848,468;14,63658
 253,04; 2047,051;  193,072;12621,735;14,91696
 253,64; 2172,711;  162,070;13290,437;15,31524
 254,24; 2428,350;  200,996;14255,643;15,84781
 254,84; 2552,703;  173,537;15113,027;15,92535
 255,43; 2784,187;  189,533;16061,326;16,34757
 256,03; 2995,698;  184,378;17049,273;16,66965
 256,63; 3217,955;  190,454;18002,256;16,99717
 257,23; 3433,349;  181,069;18779,960;17,48642
 257,82; 3706,209;  194,991;19749,378;17,95617
 258,42; 3870,593;  143,759;20487,823;18,31903
 259,02; 4122,422;  181,303;21265,976;18,69187
 259,62; 4339,281;  176,681;21929,039;19,13631
 260,21; 4535,196;  178,149;22406,204;19,60157
 260,81; 4715,617;  179,767;22744,363;20,10162
 261,41; 4855,806;  167,913;23163,508;20,38605
 262,01; 5077,308;  205,296;23575,771;20,84687
 262,60; 5208,734;  171,223;23768,730;21,34764
 263,20; 5419,901;  175,609;24034,870;21,98011
 263,80; 5545,679;  193,757;24165,397;22,32606
 264,40; 5638,132;  163,758;24242,806;22,73501
 264,99; 5731,770;  192,757;24378,175;22,90228
 265,59; 5871,041;  177,370;24531,325;23,37884
 266,19; 5973,675;  157,219;24711,881;23,68779
 266,78; 6128,050;  210,448;24707,026;24,15685
 267,38; 6150,430;  181,601;24643,801;24,40021
 267,98; 6257,195;  168,987;24696,378;24,82208
 268,58; 6303,009;  176,755;24544,482;25,14085
 269,17; 6365,534;  179,907;24685,766;25,24142
 269,77; 6352,263;  194,838;24352,681;25,48831
 270,37; 6394,679;  161,603;24261,186;25,86383
 270,96; 6429,883;  218,221;24182,565;25,92043
 271,56; 6375,765;  175,684;23785,399;26,26072
 272,16; 6340,761;  178,759;23744,946;26,14764
 272,75; 6391,539;  187,606;23620,727;26,47506
 273,35; 6417,503;  180,145;23609,061;26,62248
 273,95; 6394,919;  177,452;23611,519;26,53175
 274,54; 6449,408;  176,381;23618,060;26,76015
 275,14; 6605,322;  191,222;23949,369;26,99748
 275,74; 6575,892;  161,528;24022,463;26,88228
 276,33; 6790,055;  196,530;24536,164;27,08966
 276,93; 6907,951;  183,612;24931,690;27,17116
 277,53; 7103,431;  180,456;25401,951;27,44871
 278,12; 7242,734;  171,993;25947,094;27,43245
 278,72; 7462,119;  194,148;26541,686;27,58501
 279,32; 7657,422;  173,379;27074,882;27,82017
 279,91; 7834,956;  163,917;27830,945;27,72628
 280,51; 8047,865;  180,918;28378,567;27,89930
 281,11; 8333,996;  191,532;29066,703;28,19884
 281,70; 8399,861;  161,147;29490,844;28,09001
 282,30; 8673,535;  162,838;30132,629;28,39758
 282,90; 8877,788;  176,223;30448,420;28,74441
 283,49; 9089,114;  189,529;31026,545;28,86007
 284,09; 9305,449;  202,993;31411,326;29,16675
 284,69; 9458,603;  203,532;31632,959;29,44715
 285,28; 9638,838;  196,916;31964,227;29,72213
 285,88; 9753,091;  200,528;32207,045;29,84568
 286,47; 9889,254;  181,300;32298,629;30,22653
 287,07;10043,195;  206,917;32288,091;30,66059
 287,67;10209,133;  196,382;32424,264;31,06860
 288,26;10299,164;  178,840;32317,211;31,48985
 288,86;10531,657;  180,608;32422,612;32,10423
 289,46;10681,024;  190,840;32469,913;32,49840
 290,05;10897,558;  173,227;32694,430;32,97643
 290,65;11134,349;  182,223;32802,000;33,57511
 291,24;11365,064;  193,225;32986,708;34,06725
 291,84;11581,494;  197,377;33070,333;34,63065
 292,44;11727,653;  187,921;33221,662;34,93317
 293,03;11995,585;  235,225;33281,741;35,58729
 293,63;12099,290;  177,146;33394,717;35,89108
 294,22;12301,784;  197,455;33624,593;36,21108
 294,82;12376,566;  181,143;33627,807;36,46230
 295,41;12361,168;  169,532;33204,229;36,90555
 296,01;12394,648;  216,297;33178,647;36,94624
 296,61;12350,128;  195,379;32899,872;37,16538
 297,20;12213,729;  199,451;32447,989;37,25526
 297,80;12145,852;  203,996;32307,093;37,19845
 298,39;11991,512;  170,223;31917,377;37,23574
 298,99;11892,073;  191,452;31719,499;37,11178
 299,58;11805,427;  189,382;31671,372;36,89743
 300,18;11644,336;  215,304;31391,058;36,66000
 300,78;11465,377;  186,995;31025,184;36,57278
 301,37;11427,507;  191,603;31139,854;36,30546
 301,97;11345,680;  196,686;31085,363;36,09411
 302,56;11249,055;  179,300;31033,221;35,87795
 303,16;11093,494;  169,837;30942,470;35,49796
 303,75;11058,526;  192,303;31001,494;35,26942
 304,35;11064,291;  173,845;31192,777;35,10903
 304,94;10994,268;  186,225;31189,287;34,86121
 305,54;10891,598;  190,687;31112,710;34,60612
 306,13;10695,531;  163,922;31005,789;34,14712
 306,73;10567,676;  168,305;30789,068;33,96183
 307,33;10480,490;  193,613;30807,131;33,60240
 307,92;10408,698;  190,148;30903,906;33,27027
 308,52;10439,946;  169,991;31362,304;32,92464
 309,11;10502,163;  176,451;31756,953;32,69648
 309,71;10485,095;  164,450;31904,815;32,51584
 310,30;10493,689;  169,533;32260,817;32,17122
 310,90;10438,766;  192,071;32547,047;31,66961
 311,49;10425,336;  180,455;32650,024;31,55225
 312,09;10333,680;  159,765;32853,300;31,11904
 312,68;10405,671;  205,918;33216,194;30,89872
 313,28;10275,544;  169,917;33305,444;30,49786
 313,87;10172,313;  145,148;33458,233;30,09978
 314,47;10163,670;  173,221;33724,033;29,77707
 315,06;10056,327;  161,148;33804,434;29,41205
 315,66; 9997,603;  172,227;34136,223;28,92880
 316,25; 9865,385;  145,376;33983,109;28,72536
 316,85; 9714,924;  153,688;34066,597;28,19350
 317,44; 9643,421;  166,913;34155,625;27,88134
 318,04; 9504,055;  152,454;34213,124;27,45572
 318,63; 9354,771;  152,459;34291,420;26,95545
 319,22; 9331,028;  176,145;34435,703;26,72213
 319,82; 9188,037;  171,377;34446,193;26,30695
 320,41; 9027,268;  178,069;34370,331;25,88071
 321,01; 8884,639;  188,765;34472,177;25,36467
 321,60; 8759,318;  178,993;34421,579;25,05747
 322,20; 8663,825;  166,918;34366,599;24,84499
 322,79; 8552,422;  204,994;34507,016;24,33509
 323,39; 8431,848;  173,152;34526,149;24,04068
 323,98; 8297,829;  160,302;34479,325;23,71142
 324,58; 8109,195;  167,453;34280,041;23,28097
 325,17; 8027,607;  175,376;34017,692;23,20240
 325,76; 7846,666;  204,378;33861,892;22,70604
 326,36; 7652,123;  146,149;33402,353;22,57015
 326,95; 7505,327;  195,608;33158,745;22,17543
 327,55; 7334,005;  157,223;32723,775;22,03728
 328,14; 7111,549;  172,381;32355,358;21,56161
 328,74; 6985,521;  199,915;31895,044;21,40899
 329,33; 6776,707;  191,149;31501,011;21,03349
 329,92; 6552,059;  163,682;30953,339;20,74845
 330,52; 6360,730;  177,074;30271,107;20,54778
 331,11; 6177,490;  177,454;29881,392;20,19946
 331,71; 6002,494;  180,224;29328,791;19,97446
 332,30; 5816,345;  192,225;28872,133;19,60997
 332,89; 5722,585;  199,918;28421,757;19,56877
 333,49; 5505,345;  181,685;27911,250;19,19850
 334,08; 5306,449;  187,147;27490,885;18,74946
 334,68; 5200,888;  178,147;27113,863;18,64714
 335,27; 5085,087;  188,920;26741,703;18,43937
 335,86; 4961,643;  217,685;26456,315;18,08005
 336,46; 4852,445;  193,151;26267,396;17,86933
 337,05; 4760,761;  175,608;25985,381;17,76518
 337,65; 4701,675;  161,454;25945,830;17,60842
 338,24; 4688,236;  227,533;25837,039;17,41815
 338,83; 4583,883;  194,610;25730,996;17,18831
 339,43; 4522,589;  173,838;25713,725;17,02729
 340,02; 4476,376;  173,991;25646,481;16,89032
 340,61; 4439,616;  166,610;25652,467;16,76619
 341,21; 4403,521;  208,607;25652,660;16,48682
 341,80; 4344,951;  176,839;25500,258;16,45952
 342,40; 4328,300;  189,535;25617,832;16,27622
 342,99; 4313,431;  176,303;25801,988;16,14446
 343,58; 4320,092;  183,688;25899,165;16,08527
 344,18; 4316,788;  176,842;26055,200;15,99772
 344,77; 4316,322;  173,530;26327,041;15,84029
 345,36; 4345,711;  156,608;26630,822;15,82333
 345,96; 4417,897;  196,380;26930,253;15,79089
 346,55; 4387,743;  167,075;27206,227;15,60947
 347,14; 4425,431;  158,535;27447,042;15,63624
 347,74; 4496,309;  147,693;27911,065;15,66314
 348,33; 4606,083;  173,770;28553,678;15,61779
 348,92; 4695,979;  177,387;29147,963;15,59718
 349,52; 4735,527;  161,694;29604,805;15,53448
 350,11; 4789,164;  165,529;29679,007;15,66618
 350,70; 4771,331;  169,071;29774,027;15,54557
 351,29; 4725,398;  171,679;29529,091;15,51131
 351,89; 4743,145;  178,912;29546,986;15,54148
 352,48; 4749,815;  158,764;29500,433;15,64687
 353,07; 4755,350;  178,536;29413,506;15,65527
 353,67; 4795,079;  191,156;29345,503;15,79155
 354,26; 4713,526;  180,997;29166,009;15,63749
 354,85; 4750,671;  184,304;28948,268;15,87531
 355,45; 4741,295;  162,069;28706,290;16,04257
 356,04; 4753,508;  180,228;28671,925;16,05127
 356,63; 4782,684;  201,378;28500,515;16,18886
 357,22; 4732,086;  177,372;28328,592;16,17945
 357,82; 4760,534;  177,450;28094,235;16,41695
 358,41; 4797,290;  177,301;27936,001;16,64339
 359,00; 4762,145;  163,453;27779,461;16,65227
 359,60; 4786,757;  188,379;27770,380;16,67166
 360,19; 4808,739;  171,383;27472,443;16,98599
 360,78; 4800,254;  192,608;27334,973;16,97585
 361,37; 4846,327;  169,839;27129,149;17,34647
 361,97; 4835,919;  179,686;27121,395;17,28262
 362,56; 4830,381;  164,837;26800,094;17,51642
 363,15; 4862,553;  194,762;26540,500;17,71744
 363,74; 4839,684;  186,375;26197,561;17,88965
 364,34; 4803,670;  211,453;25831,548;17,92428
 364,93; 4778,032;  172,683;25451,510;18,21821
 365,52; 4760,182;  157,762;25110,931;18,44423
 366,11; 4791,548;  173,992;24784,121;18,76283
 366,71; 4739,105;  167,992;24400,780;18,86334
 367,30; 4747,598;  178,147;24109,118;19,09430
 367,89; 4805,273;  205,227;23947,817;19,37466
 368,48; 4786,059;  184,836;23571,837;19,67428
 369,07; 4744,485;  185,302;23165,873;19,83929
 369,67; 4733,231;  200,067;22951,938;19,92436
 370,26; 4717,322;  173,225;22723,302;20,15114
 370,85; 4781,702;  179,608;22457,040;20,65810
 371,44; 4773,734;  178,455;22204,977;20,86248
 372,03; 4763,612;  159,992;22012,285;21,06699
 372,63; 4763,186;  158,378;21679,734;21,39646
 373,22; 4790,594;  178,148;21352,926;21,78273
 373,81; 4754,376;  145,685;21098,073;21,99602
 374,40; 4753,875;  172,150;20852,402;22,15507
 374,99; 4798,001;  168,839;20697,279;22,54999
 375,59; 4779,101;  163,535;20366,291;22,84622
 376,18; 4879,625;  195,146;20267,060;23,33848
 376,77; 4875,028;  186,147;20074,890;23,57555
 377,36; 4953,494;  201,147;20011,754;23,98890
 377,95; 4874,788;  188,299;19804,594;23,89079
 378,55; 4951,716;  175,765;19619,869;24,56246
 379,14; 4982,553;  177,377;19552,633;24,80058
 379,73; 5014,164;  183,838;19444,639;25,07853
 380,32; 5079,630;  191,532;19524,209;25,28412
 380,91; 5095,258;  159,606;19376,399;25,68406
 381,50; 5201,992;  191,376;19283,270;26,24473
 382,10; 5185,245;  170,763;19182,901;26,37516
 382,69; 5259,729;  163,685;19178,501;26,80039
 383,28; 5299,856;  189,837;19083,910;27,04562
 383,87; 5360,127;  169,145;19021,514;27,53491
 384,46; 5389,620;  171,066;18934,093;27,81297
 385,05; 5473,435;  197,299;19004,150;28,05433
 385,64; 5521,471;  173,145;18894,351;28,56828
 386,24; 5525,706;  161,450;18841,894;28,71589
 386,83; 5690,362;  189,296;18974,211;29,28449
 387,42; 5785,462;  201,530;19118,858;29,51755
 388,01; 5903,837;  193,678;19304,187;29,87968
 388,60; 6064,503;  184,681;19534,238;30,38737
 389,19; 6133,719;  166,291;19748,225;30,47415
 389,78; 6308,832;  170,292;19985,503;30,97893
 390,37; 6559,412;  219,680;20387,425;31,43501
 390,96; 6657,195;  181,219;20597,047;31,72037
 391,56; 6746,873;  179,367;20685,516;32,02701
 392,15; 6884,339;  176,138;20922,122;32,33494
 392,74; 6999,524;  151,286;21074,921;32,72968
 393,33; 7155,185;  166,751;21366,590;32,96456
 393,92; 7408,737;  183,669;21782,382;33,45138
 394,51; 7506,212;  167,597;21961,359;33,67301
 395,10; 7692,207;  199,894;22129,832;34,16477
 395,69; 7752,809;  175,202;22219,013;34,37521
 396,28; 7894,718;  184,353;22308,666;34,85019
 396,87; 7995,428;  197,809;22419,415;35,09025
 397,46; 8144,110;  186,806;22514,758;35,63831
 398,06; 8241,961;  197,648;22831,381;35,54126
 398,65; 8348,050;  184,945;22806,531;36,08547
 399,24; 8495,181;  191,943;22924,937;36,52505
 399,83; 8551,958;  185,851;22983,584;36,69710
 400,42; 8700,558;  205,453;23115,032;37,08102
 401,01; 8839,032;  184,053;23204,831;37,59638
 401,60; 8903,826;  190,878;23218,114;37,83758
 402,19; 8929,752;  210,092;23119,961;38,06071
 402,78; 9005,808;  221,912;23097,963;38,39778
 403,37; 9020,651;  199,195;23029,929;38,63851
 403,96; 9084,508;  196,628;22861,068;39,21509
 404,55; 9077,966;  195,519;22828,880;39,24493
 405,14; 9107,284;  192,721;22595,424;39,79236
 405,73; 9142,647;  195,840;22495,851;40,12019
 406,32; 9222,437;  194,817;22419,585;40,61964
 406,91; 9159,896;  196,945;22119,517;40,88458
 407,50; 9161,921;  196,931;21945,108;41,22180
 408,09; 9159,350;  177,614;21674,887;41,78082
 408,68; 9131,096;  201,992;21586,902;41,75423
 409,27; 9134,138;  178,770;21385,657;42,22858
 409,86; 9148,565;  189,636;21335,382;42,36752
 410,45; 9194,449;  203,500;21245,099;42,72940
 411,04; 9219,424;  212,133;21118,401;43,08416
 411,63; 9127,160;  197,079;20844,197;43,25098
 412,22; 9110,696;  205,100;20669,705;43,51707
 412,81; 9045,977;  218,031;20356,495;43,83624
 413,40; 8967,304;  222,964;20009,573;44,19322
 413,99; 8922,014;  236,730;19781,489;44,43792
 414,58; 8773,652;  190,424;19386,698;44,71299
 415,17; 8704,280;  194,031;19239,594;44,68363
 415,76; 8714,895;  189,100;19141,942;44,98426
 416,35; 8660,266;  186,489;18948,538;45,16446
 416,94; 8762,289;  217,178;19066,084;45,33478
 417,53; 8925,185;  189,493;19216,895;45,91111
 418,12; 9021,362;  193,726;19310,719;46,17691
 418,71; 9243,865;  201,271;19685,420;46,41000
 419,30; 9271,606;  210,573;19751,515;46,36948
 419,89; 9438,181;  195,959;19918,195;46,86194
 420,48; 9636,725;  218,041;20195,948;47,14550
 421,07; 9736,553;  204,042;20301,419;47,43162
 421,66; 9697,083;  182,278;20188,973;47,55811
 422,25; 9788,966;  183,978;20183,328;48,02650
 422,84; 9789,518;  219,980;20075,064;48,19692
 423,43; 9701,825;  191,899;19850,977;48,37422
 424,02; 9715,731;  220,055;19648,294;48,87564
 424,60; 9414,876;  189,526;19149,045;48,65815
 425,19; 9348,120;  208,598;19005,048;48,62366
 425,78; 9416,781;  225,676;18932,512;49,13233
 426,37; 9367,551;  228,141;18826,907;49,13987
 426,96; 9341,777;  219,449;18632,160;49,54364
 427,55; 9296,678;  202,839;18552,182;49,55948
 428,14; 9205,628;  188,457;18317,021;49,74013
 428,73; 9141,768;  200,837;18197,543;49,68093
 429,32; 9231,872;  221,140;18214,475;50,07816
 429,91; 9236,252;  234,221;18241,929;49,98988
 430,50; 9168,524;  225,147;17983,199;50,36238
 431,08; 9132,914;  237,843;17866,611;50,45770
 431,67; 9172,063;  266,999;17788,473;50,82371
 432,26; 9053,281;  271,694;17518,554;50,91702
 432,85; 8901,443;  291,770;17238,088;50,80557
 433,44; 8768,815;  294,312;16882,011;51,08908
 434,03; 8648,684;  312,702;16561,789;51,30123
 434,62; 8447,933;  268,774;16155,211;51,48517
 435,21; 8381,109;  289,924;15970,299;51,60071
 435,79; 8299,336;  276,085;15838,998;51,55366
 436,38; 8300,771;  278,705;15778,620;51,75554
 436,97; 8261,210;  258,245;15668,482;51,93278
 437,56; 8173,649;  271,714;15456,614;52,03811
 438,15; 8145,418;  243,019;15404,042;52,12312
 438,74; 8220,219;  260,866;15454,420;52,38638
 439,33; 8220,260;  236,942;15477,239;52,38296
 439,91; 8194,310;  208,715;15498,654;52,22778
 440,50; 8310,097;  253,792;15561,140;52,63032
 441,09; 8367,039;  247,104;15636,692;52,76252
 441,68; 8372,682;  245,878;15663,026;52,71276
 442,27; 8381,388;  227,107;15614,905;52,99186
 442,86; 8311,407;  201,501;15649,367;52,49855
 443,44; 8410,750;  225,114;15688,653;52,93508
 444,03; 8448,511;  251,655;15704,424;53,04458
 444,62; 8407,724;  212,039;15537,764;53,47665
 445,21; 8324,407;  218,577;15382,505;53,45469
 445,80; 8254,697;  243,197;15280,370;53,27796
 446,39; 8173,000;  252,735;15024,222;53,61860
 446,97; 8064,385;  210,741;14844,400;53,66836
 447,56; 7992,358;  218,745;14652,447;53,85738
 448,15; 7847,756;  217,510;14459,410;53,57604
 448,74; 7785,589;  226,818;14271,073;53,82109
 449,33; 7669,214;  219,975;14125,673;53,56968
 449,91; 7583,354;  219,903;13926,517;53,72188
 450,50; 7501,531;  210,287;13746,445;53,86494
 451,09; 7458,264;  229,749;13687,701;53,71185
 451,68; 7414,391;  250,828;13540,735;53,90228
 452,26; 7344,355;  229,292;13465,661;53,75389
 452,85; 7318,146;  226,060;13378,685;53,92145
 453,44; 7308,093;  236,220;13417,517;53,65081
 454,03; 7304,730;  214,370;13422,702;53,68097
 454,61; 7317,853;  210,144;13347,618;54,10255
 455,20; 7398,853;  233,377;13549,632;53,81000
 455,79; 7448,093;  231,373;13524,751;54,28808
 456,38; 7431,424;  235,304;13579,829;53,92563
 456,97; 7488,279;  225,995;13693,383;53,92496
 457,55; 7469,935;  223,229;13631,961;54,04468
 458,14; 7492,813;  251,379;13629,235;54,13000
 458,73; 7426,619;  234,998;13586,062;53,86552
 459,31; 7458,606;  263,541;13615,043;53,88955
 459,90; 7535,316;  264,077;13720,843;54,03407
 460,49; 7550,103;  265,153;13742,890;54,05173
 461,08; 7533,389;  215,466;13864,450;53,61514
 461,66; 7597,655;  229,541;13954,064;53,68576
 462,25; 7644,221;  234,699;13939,264;54,06609
 462,84; 7683,687;  252,313;14009,629;54,01762
 463,43; 7605,778;  189,703;13965,104;53,83564
 464,01; 7673,276;  227,090;13974,687;54,16355
 464,60; 7635,525;  252,240;13895,182;54,11798
 465,19; 7511,340;  212,014;13650,694;54,31579
 465,77; 7484,227;  229,017;13623,542;54,16549
 466,36; 7479,104;  244,088;13591,148;54,20682
 466,95; 7270,457;  232,550;13192,920;54,30329
 467,53; 7118,847;  222,173;12958,667;54,14892
 468,12; 6977,983;  251,097;12659,506;54,21232
 468,71; 6865,752;  233,246;12480,730;54,15403
 469,29; 6761,218;  216,636;12253,520;54,37107
 469,88; 6618,956;  221,330;12056,674;54,05526
 470,47; 6690,866;  273,180;12203,521;53,79298
 471,06; 6658,911;  232,488;12142,006;53,96040
 471,64; 6679,092;  241,102;12293,373;53,41724
 472,23; 6667,966;  204,418;12243,506;53,68802
 472,81; 6736,450;  215,722;12423,056;53,41648
 473,40; 6761,803;  218,572;12514,243;53,21573
 473,99; 6915,763;  271,725;12684,177;53,52719
 474,57; 6923,373;  226,033;12827,220;53,14849
 475,16; 7007,749;  241,184;12961,753;53,19389
 475,75; 7057,876;  249,267;13017,028;53,32657
 476,33; 7113,772;  250,577;13126,310;53,30334
 476,92; 7106,840;  254,803;13178,522;53,01908
 477,51; 7158,084;  236,807;13257,983;53,15401
 478,09; 7152,388;  245,038;13206,005;53,29347
 478,68; 7078,836;  243,116;13189,013;52,80221
 479,27; 7082,903;  259,036;13226,776;52,62187
 479,85; 7076,424;  230,654;13187,495;52,83518
 480,44; 7128,913;  229,886;13453,625;52,17153
 481,02; 7873,949;  232,812;15345,322;50,56167
 481,61; 8822,999;  260,195;16962,095;51,26844
 482,20; 9359,270;  250,427;17957,465;51,44194
 482,78; 9816,831;  273,270;18708,918;51,76689
 483,37; 9973,895;  269,278;19143,082;51,41845
 483,95;10157,271;  291,048;19265,626;51,99706
 484,54;10181,623;  298,041;19505,993;51,45568
 485,13;10167,457;  274,590;19302,766;51,99062
 485,71;10064,547;  249,358;19025,605;52,27450
 486,30; 9921,620;  280,665;18804,628;52,04585
 486,88; 9699,240;  299,589;18295,314;52,23268
 487,47; 9328,167;  307,052;17548,463;52,32237
 488,05; 8920,367;  284,438;16623,482;52,85455
 488,64; 8230,914;  288,441;15295,006;52,92666
 489,23; 7293,914;  296,670;13258,685;53,98269
 489,81; 6274,263;  288,824;11752,229;52,21344
 490,40; 5946,186;  245,979;11271,574;51,69977
 490,98; 5836,838;  237,672;11066,274;51,70719
 491,57; 5759,005;  275,670;11056,116;50,86371
 492,15; 5716,652;  243,596;10929,662;51,21675
 492,74; 5675,869;  245,592;10834,144;51,28442
 493,32; 5614,200;  257,980;10783,041;50,89015
 493,91; 5528,888;  245,290;10671,770;50,67480
 494,50; 5501,911;  255,988;10681,835;50,31652
 495,08; 5444,119;  236,680;10601,141;50,24322
 495,67; 5493,666;  253,213;10572,899;50,78113
 496,25; 5367,770;  203,062;10468,236;50,31292
 496,84; 5324,123;  217,366;10475,480;49,78261
 497,42; 5314,263;  211,678;10406,132;50,05256
 498,01; 5324,254;  246,675;10321,341;50,39948
 498,59; 5225,101;  202,140;10304,772;49,71932
 499,18; 5166,290;  222,906;10264,178;49,23066
 499,76; 5144,168;  229,754;10185,764;49,36128
 500,35; 5051,155;  224,297;10004,590;49,35290
 500,93; 4998,064;  204,217;10013,571;48,87017
 501,52; 4974,856;  226,371; 9913,014;49,02096
 502,10; 4949,717;  230,530; 9803,395;49,29754
 502,69; 4842,834;  215,609; 9705,648;48,75876
 503,27; 4755,648;  200,296; 9525,781;48,84842
 503,86; 4702,133;  210,223; 9502,522;48,34013
 504,44; 4594,948;  197,917; 9364,522;47,96793
 505,03; 4502,735;  180,379; 9142,489;48,22922
 505,61; 4443,454;  191,609; 9011,836;48,20562
 506,19; 4349,111;  218,610; 8847,477;47,86840
 506,78; 4255,446;  190,460; 8694,754;47,79922
 507,36; 4138,907;  198,225; 8523,245;47,33540
 507,95; 4121,609;  204,385; 8413,050;47,72060
 508,53; 4029,491;  203,306; 8275,413;47,40008
 509,12; 3970,781;  209,692; 8158,134;47,31856
 509,70; 3889,070;  219,924; 8005,876;47,12521
 510,29; 3824,415;  216,618; 7883,229;47,05856
 510,87; 3707,378;  193,460; 7742,017;46,55086
 511,46; 3633,654;  191,230; 7554,231;46,75301
 512,04; 3549,509;  207,540; 7451,968;46,13158
 512,62; 3483,342;  204,768; 7282,253;46,32399
 513,21; 3384,460;  182,464; 7128,944;46,09523
 513,79; 3305,881;  196,240; 7025,497;45,53411
 514,38; 3231,239;  179,084; 6843,639;45,79683
 514,96; 3214,569;  220,083; 6790,219;45,57723
 515,54; 3112,008;  192,931; 6688,501;44,93950
 516,13; 3108,809;  208,239; 6597,207;45,39966
 516,71; 3019,637;  203,242; 6453,541;45,06017
 517,30; 2936,312;  186,629; 6338,818;44,69438
 517,88; 2937,456;  214,551; 6281,806;44,87870
 518,46; 2850,389;  192,937; 6196,297;44,26607
 519,05; 2821,013;  205,324; 6110,285;44,29647
 519,63; 2754,972;  215,323; 6109,587;43,08679
 520,22; 2759,208;  217,865; 6020,093;43,79943
 520,80; 2728,706;  204,712; 5935,854;44,03999
 521,38; 2695,339;  215,939; 5914,232;43,51127
 521,97; 2642,100;  195,021; 5894,919;42,93197
 522,55; 2660,276;  210,175; 5889,326;43,14204
 523,13; 2604,154;  184,715; 5879,818;42,48281
 523,72; 2566,226;  196,091; 5911,977;41,46575
 524,30; 2643,652;  213,332; 6033,036;41,76020
 524,89; 2608,905;  182,637; 6055,141;41,31574
 525,47; 2661,548;  209,640; 6163,305;41,18317
 526,05; 2651,367;  186,487; 6218,824;40,86112
 526,64; 2712,263;  201,642; 6312,918;41,08178
 527,22; 2725,996;  205,256; 6437,623;40,44596
 527,80; 2786,815;  236,719; 6572,312;40,25032
 528,39; 2780,037;  198,566; 6642,739;40,05900
 528,97; 2810,295;  208,104; 6801,547;39,46635
 529,55; 2879,267;  220,407; 6957,521;39,46586
 530,14; 2957,843;  235,106; 7192,151;39,13640
 530,72; 2936,367;  207,873; 7244,031;38,77818
 531,30; 2956,571;  192,029; 7386,142;38,42784
 531,89; 2977,381;  207,337; 7443,054;38,28293
 532,47; 3042,594;  227,107; 7555,488;38,41895
 533,05; 3014,974;  229,103; 7586,675;37,86400
 533,63; 3025,313;  238,338; 7661,601;37,54380
 534,22; 2987,291;  206,646; 7650,272;37,35605
 534,80; 3062,287;  229,956; 7756,442;37,63151
 535,38; 3086,893;  257,183; 7765,727;37,68652
 535,97; 2982,318;  221,722; 7771,137;36,56701
 536,55; 3055,649;  262,034; 7825,477;36,93576
 537,13; 3023,585;  277,337; 7838,921;36,31842
 537,71; 3068,625;  302,259; 7900,468;36,40813
 538,30; 3021,060;  325,262; 7929,212;35,45260
 538,88; 3072,106;  330,728; 8040,610;35,55668
 539,46; 3152,001;  394,726; 8214,848;35,25873
 540,05; 3160,006;  407,804; 8356,725;34,62359
 540,63; 3224,210;  449,958; 8595,188;34,05984
 541,21; 3250,536;  471,729; 8734,824;33,62913
 541,79; 3285,730;  505,344; 8748,505;33,72961
 542,38; 3357,893;  510,804; 8920,734;33,85390
 542,96; 3350,043;  545,039; 9082,034;32,85704
 543,54; 3427,287;  560,113; 9293,953;32,82833
 544,12; 3406,509;  513,499; 9353,266;32,72722
 544,70; 3430,029;  489,808; 9488,717;32,67308
 545,29; 3478,753;  510,804; 9593,954;32,67533
 545,87; 3469,807;  476,652; 9620,812;32,73297
 546,45; 3431,192;  453,650; 9631,030;32,44436
 547,03; 3446,436;  423,266; 9718,862;32,52260
 547,62; 3444,482;  398,114; 9908,979;32,03040
 548,20; 3524,332;  402,115;10032,472;32,42058
 548,78; 3487,030;  376,967;10148,493;31,82781
 549,36; 3537,292;  340,736;10351,490;31,93123
 549,94; 3570,631;  316,499;10480,654;32,01576
 550,53; 3605,134;  316,581;10703,572;31,66030
 551,11; 3630,718;  283,122;10923,378;31,46161
 551,69; 3684,840;  304,659;11212,214;30,98935
 552,27; 3709,378;  267,580;11428,796;30,83712
 552,85; 3783,338;  274,430;11835,740;30,35043
 553,44; 3850,595;  268,966;12104,378;30,26197
 554,02; 3958,754;  278,582;12438,065;30,26585
 554,60; 3979,120;  234,045;12691,094;30,06390
 555,18; 4071,025;  275,197;13120,094;29,55125
 555,76; 4151,772;  239,813;13420,340;29,67984
 556,34; 4240,980;  254,817;13760,810;29,51404
 556,93; 4330,745;  237,197;14199,150;29,31930
 557,51; 4375,166;  227,432;14489,844;29,08157
 558,09; 4454,229;  245,197;14817,633;28,88351
 558,67; 4541,836;  243,357;15189,183;28,76040
 559,25; 4591,048;  247,433;15482,584;28,51049
 559,83; 4658,121;  238,358;15719,312;28,54968
 560,41; 4727,021;  233,508;16087,916;28,34236
 561,00; 4781,180;  241,742;16431,733;28,03855
 561,58; 4807,609;  233,893;16715,398;27,75060
 562,16; 4853,618;  216,045;16926,433;27,75263
 562,74; 4894,962;  212,736;17302,582;27,39771
 563,32; 4986,433;  204,743;17709,367;27,31673
 563,90; 5062,931;  227,357;18080,919;27,08464
 564,48; 5136,292;  237,431;18492,637;26,83542
 565,06; 5327,451;  229,049;19107,280;27,00678
 565,65; 5385,719;  240,130;19810,877;26,29224
 566,23; 5565,080;  269,126;20494,327;26,18493
 566,81; 5691,976;  233,048;21195,100;26,04195
 567,39; 5898,872;  236,897;22007,612;26,00730
 567,97; 6015,121;  247,818;22584,509;25,81986
 568,55; 6198,135;  250,512;23297,783;25,80619
 569,13; 6273,881;  225,588;24045,052;25,39223
 569,71; 6483,776;  233,737;24966,026;25,27077
 570,29; 6725,270;  273,351;25910,622;25,16617
 570,87; 6834,365;  261,198;26477,221;25,07309
 571,45; 6970,306;  261,587;27165,677;24,93568
 572,03; 6996,954;  220,821;27571,550;24,77496
 572,61; 7105,813;  225,666;28244,947;24,55505
 573,20; 7247,388;  250,817;28890,965;24,42924
 573,78; 7346,759;  235,897;29425,795;24,36070
 574,36; 7420,089;  240,665;29911,703;24,19674
 574,94; 7514,420;  280,591;30121,872;24,24101
 575,52; 7505,696;  241,517;30511,695;23,99781
 576,10; 7614,701;  291,054;31086,291;23,78175
 576,68; 7710,130;  282,744;31625,802;23,69707
 577,26; 7769,687;  303,057;32195,967;23,41157
 577,84; 7855,248;  306,973;32611,430;23,36605
 578,42; 7899,922;  320,053;32823,877;23,31993
 579,00; 7832,546;  281,743;32923,685;23,13221
 579,58; 7843,280;  313,745;33195,785;22,89862
 580,16; 7787,257;  298,669;33200,298;22,76054
 580,74; 7762,895;  291,208;33374,530;22,58445
 581,32; 7700,216;  300,130;33410,523;22,34974
 581,90; 7679,320;  305,515;33463,770;22,23822
 582,48; 7654,352;  312,285;33582,034;22,06830
 583,06; 7570,252;  315,053;33676,708;21,74712
 583,64; 7597,845;  316,283;33703,784;21,80925
 584,22; 7485,330;  320,364;33508,775;21,58876
 584,80; 7367,262;  325,669;33213,834;21,41072
 585,38; 7213,894;  323,432;32860,721;21,17713
 585,96; 7136,497;  310,820;33022,875;20,86594
 586,54; 7107,058;  318,364;33149,442;20,67765
 587,12; 7104,035;  286,439;33255,962;20,67848
 587,70; 7080,673;  325,513;33363,338;20,44675
 588,28; 7069,501;  309,516;33454,632;20,39512
 588,86; 7015,248;  300,594;33503,109;20,22333
 589,44; 6994,900;  290,674;33579,515;20,13956
 590,02; 6967,398;  302,520;33847,971;19,86820
 590,59; 6974,660;  282,594;34058,991;19,81285
 591,17; 6980,014;  279,216;34230,921;19,73626
 591,75; 6936,375;  274,906;34303,040;19,57636
 592,33; 6952,262;  283,444;34606,935;19,42931
 592,91; 6942,471;  244,985;34776,080;19,39552
 593,49; 6968,715;  253,371;35071,047;19,28717
 594,07; 6953,086;  263,525;35338,518;19,07217
 594,65; 6909,443;  271,518;35305,345;18,94719
 595,23; 6949,425;  263,442;35704,816;18,86491
 595,81; 6930,104;  257,136;35816,843;18,76553
 596,39; 6905,552;  250,828;35926,065;18,65362
 596,97; 6923,588;  255,831;36111,377;18,59617
 597,55; 6840,814;  240,826;35993,988;18,45987
 598,12; 6812,932;  236,603;36068,843;18,35311
 598,70; 6766,837;  232,216;36139,073;18,19881
 599,28; 6767,738;  254,601;36338,205;18,05013
 599,86; 6736,733;  237,831;36291,325;18,02572
 600,44; 6673,638;  216,140;36436,836;17,82820
 601,02; 6695,715;  261,221;36439,421;17,78556
 601,60; 6637,235;  247,599;36397,721;17,67528
 602,18; 6557,407;  216,449;36499,237;17,47649
 602,75; 6523,773;  235,828;36593,380;17,29474
 603,33; 6528,466;  254,832;36540,755;17,28944
 603,91; 6480,539;  237,066;36474,192;17,22949
 604,49; 6433,860;  252,755;36542,613;17,03260
 605,07; 6450,765;  258,753;36635,556;17,02187
 605,65; 6414,941;  282,756;36690,684;16,84299
 606,23; 6388,877;  328,517;36932,868;16,55639
 606,80; 6325,814;  373,674;36857,292;16,31456
 607,38; 6335,168;  396,142;36917,222;16,26191
 607,96; 6304,108;  440,135;37008,149;16,03580
 608,54; 6305,059;  498,910;36939,365;15,93325
 609,12; 6279,099;  479,520;37112,963;15,83138
 609,70; 6271,127;  541,985;37063,280;15,68713
 610,27; 6216,552;  529,135;37074,355;15,56268
 610,85; 6186,715;  540,293;37183,224;15,40931
 611,43; 6116,819;  553,985;37109,798;15,21737
 612,01; 6040,249;  521,060;36852,520;15,19121
 612,59; 6026,493;  503,293;36913,082;15,16955
 613,16; 5975,827;  475,364;36907,017;15,09803
 613,74; 5933,828;  436,986;36680,503;15,16642
 614,32; 5878,281;  405,217;36699,026;15,07988
 614,90; 5822,362;  388,830;36572,010;15,01673
 615,48; 5723,140;  326,673;36291,955;15,00466
 616,05; 5700,429;  318,364;36316,894;14,95079
 616,63; 5666,719;  335,594;36081,449;14,91397
 617,21; 5621,457;  335,289;35943,619;14,84531
 617,79; 5552,701;  304,598;35937,010;14,72845
 618,36; 5538,036;  316,676;35841,852;14,69763
 618,94; 5441,601;  260,596;35553,473;14,68003
 619,52; 5370,945;  279,132;35302,297;14,53841
 620,10; 5320,882;  279,597;35257,952;14,41258
 620,67; 5297,542;  288,286;35267,658;14,32060
 621,25; 5274,525;  297,445;35054,908;14,31946
 621,83; 5261,773;  276,981;35003,594;14,35439
 622,41; 5270,515;  312,673;34994,769;14,29511
 622,98; 5144,167;  295,517;34788,382;14,05697
 623,56; 5135,673;  289,132;34648,830;14,10531
 624,14; 5050,140;  278,215;34632,925;13,89016
 624,72; 5052,316;  280,904;34474,956;13,95393
 625,29; 5006,958;  250,901;34648,732;13,82662
 625,87; 5030,968;  295,905;34525,560;13,83322
 626,45; 4944,669;  254,439;34365,277;13,74997
 627,02; 4912,588;  260,136;34267,210;13,68084
 627,60; 4871,625;  250,448;34253,692;13,59040
 628,18; 4861,561;  239,135;34411,194;13,52692
 628,76; 4842,189;  247,363;34361,230;13,46909
 629,33; 4869,113;  266,672;34281,303;13,53077
 629,91; 4845,344;  254,828;34312,491;13,47866
 630,49; 4848,646;  273,056;34532,981;13,35552
 631,06; 4817,230;  273,440;34614,352;13,23142
 631,64; 4817,461;  265,054;34578,663;13,26706
 632,22; 4745,080;  221,514;34463,337;13,21065
 632,79; 4740,135;  254,668;34729,084;13,01100
 633,37; 4774,742;  228,368;34782,246;13,15735
 633,95; 4751,927;  246,054;34913,123;12,99756
 634,52; 4768,072;  228,365;35002,582;13,05481
 635,10; 4752,941;  236,135;35039,621;12,97803
 635,68; 4806,252;  240,438;35272,150;13,03338
 636,25; 4748,392;  236,666;35177,819;12,91236
 636,83; 4713,882;  216,209;35381,999;12,78991
 637,41; 4731,402;  223,283;35414,674;12,81029
 637,98; 4760,800;  244,283;35637,684;12,76090
 638,56; 4780,587;  244,666;35753,387;12,77411
 639,13; 4760,158;  241,439;35737,832;12,73008
 639,71; 4774,474;  247,902;35908,957;12,69332
 640,29; 4717,949;  205,210;35762,911;12,69131
 640,86; 4738,669;  214,440;35942,860;12,66283
 641,44; 4716,390;  223,902;35880,809;12,59921
 642,02; 4735,649;  249,979;35828,604;12,60777
 642,59; 4732,908;  222,518;36029,629;12,59635
 643,17; 4675,244;  232,825;35919,039;12,44856
 643,74; 4692,042;  222,826;35934,604;12,51468
 644,32; 4696,917;  253,210;35927,321;12,45639
 644,89; 4685,176;  234,364;35959,886;12,45835
 645,47; 4729,743;  255,595;35941,834;12,53746
 646,05; 4679,310;  230,134;35848,783;12,49114
 646,62; 4675,415;  232,442;35882,039;12,46290
 647,20; 4666,982;  242,672;36112,911;12,33421
 647,77; 4630,164;  215,365;35928,706;12,36176
 648,35; 4611,962;  213,827;35818,501;12,35269
 648,92; 4623,682;  239,750;35843,065;12,31327
 649,50; 4579,249;  212,134;35661,168;12,31942
 650,08; 4574,893;  212,288;35680,655;12,29999
 650,65; 4594,229;  218,596;35981,911;12,23498
 651,23; 4707,873;  214,366;36897,552;12,24950
 651,80; 4806,055;  214,981;37642,501;12,26657
 652,38; 4874,391;  213,366;37967,834;12,34563
 652,95; 4872,189;  199,981;38213,552;12,29089
 653,53; 4963,448;  215,828;38490,578;12,40405
 654,10; 4983,476;  239,135;38697,911;12,33617
 654,68; 4949,120;  214,059;38573,168;12,34403
 655,25; 4918,379;  208,136;38645,732;12,25426
 655,83; 4928,331;  204,059;38553,757;12,31893
 656,40; 4979,359;  236,597;38588,398;12,36646
 656,98; 4928,311;  191,674;38522,962;12,35710
 657,55; 4922,647;  217,290;38404,526;12,32181
 658,13; 4858,060;  199,290;37955,321;12,33914
 658,70; 4845,627;  222,675;37674,424;12,34375
 659,28; 4738,655;  216,290;36633,065;12,41836
 659,85; 4634,529;  209,136;36135,014;12,31812
 660,43; 4679,943;  223,137;36336,116;12,34129
 661,00; 4662,663;  218,367;36416,296;12,27776
 661,58; 4684,307;  206,829;36804,860;12,23420
 662,15; 4741,105;  199,598;36927,116;12,36540
 662,73; 4840,441;  253,445;37190,603;12,41838
 663,30; 4830,777;  211,522;37452,321;12,40375
 663,88; 4862,651;  216,906;37644,732;12,41254
 664,45; 4885,603;  198,137;37898,142;12,43359
 665,03; 4914,708;  203,599;38142,783;12,41753
 665,60; 5058,813;  250,753;38596,501;12,53871
 666,17; 5002,611;  229,676;38695,449;12,40826
 666,75; 5080,716;  214,138;39011,552;12,54356
 667,32; 5110,052;  230,138;39367,347;12,46873
 667,90; 5173,542;  219,138;39536,373;12,60110
 668,47; 5200,648;  228,677;39874,244;12,54105
 669,05; 5277,676;  211,061;39996,501;12,73485
 669,62; 5222,089;  192,677;40150,449;12,58682
 670,19; 5296,733;  197,754;40308,244;12,71233
 670,77; 5313,223;  225,369;40470,347;12,64221
 671,34; 5297,636;  203,216;40401,296;12,67329
 671,92; 5348,126;  200,908;40641,090;12,72798
 672,49; 5365,616;  228,370;40657,116;12,70691
 673,06; 5395,260;  185,139;40744,603;12,84563
 673,64; 5397,057;  200,293;40715,783;12,82661
 674,21; 5423,855;  203,447;40643,116;12,90913
 674,79; 5462,114;  214,986;40860,219;12,90958
 675,36; 5496,989;  218,370;40951,475;12,95904
 675,93; 5473,786;  192,601;40879,655;12,98001
 676,51; 5555,891;  219,217;41050,988;13,06991
 677,08; 5525,920;  209,832;41056,244;13,01482
 677,65; 5591,871;  213,063;41272,347;13,10010
 678,23; 5617,746;  222,678;41479,142;13,07690
 678,80; 5633,005;  198,063;41606,321;13,12526
 679,38; 5658,418;  198,140;41665,578;13,16763
 679,95; 5735,908;  205,910;41906,680;13,26114
 680,52; 5748,475;  205,217;42264,706;13,17956
 681,10; 5856,196;  208,602;42664,270;13,30233
 681,67; 5862,762;  215,295;42842,988;13,24835
 682,24; 5885,022;  192,525;42907,860;13,32659
 682,82; 5979,588;  200,372;43501,731;13,34650
 683,39; 6060,078;  220,526;43827,680;13,39127
 683,96; 6102,491;  204,910;44027,398;13,45789
 684,54; 6173,366;  198,603;44335,962;13,53675
 685,11; 6252,779;  213,064;44627,372;13,59858
 685,68; 6312,884;  217,372;45138,936;13,56923
 686,25; 6326,451;  200,526;45056,270;13,65695
 686,83; 6401,403;  198,988;45233,834;13,77248
 687,40; 6445,200;  188,680;45592,321;13,77978
 687,97; 6572,844;  220,911;45945,270;13,89179
 688,55; 6556,642;  192,450;45935,757;13,91284
 689,12; 6566,593;  172,142;46284,090;13,86723
 689,69; 6647,083;  198,912;46247,885;14,00286
 690,26; 6701,111;  208,681;46431,295;14,04600
 690,84; 6767,755;  206,142;46576,398;14,15048
 691,41; 6792,476;  211,527;46637,039;14,17529
 691,98; 6899,889;  201,450;46955,988;14,32682
 692,56; 6918,225;  191,297;46925,936;14,39388
 693,13; 6974,561;  245,989;46981,808;14,39703
 693,70; 7018,205;  216,374;47265,911;14,45674
 694,27; 7047,849;  201,605;47251,783;14,55094
 694,84; 7138,877;  197,989;47445,808;14,69039
 695,42; 7173,059;  234,143;47548,680;14,66551
 695,99; 7196,626;  209,605;47752,629;14,69621
 696,56; 7186,270;  191,990;47522,039;14,77767
 697,13; 7346,837;  216,759;47883,449;14,95820
 697,71; 7334,019;  174,144;47968,859;14,98047
 698,28; 7397,663;  209,144;48263,270;14,95921
 698,85; 7408,307;  176,452;48328,295;15,01885
 699,42; 7460,720;  183,836;48525,782;15,05294
 699,99; 7527,133;  213,221;48554,193;15,12984
 700,57; 7602,238;  212,760;48558,526;15,28464
 701,14; 7615,036;  201,529;48630,013;15,30815
 701,71; 7681,295;  219,068;48850,885;15,34433
 702,28; 7745,939;  207,606;48955,218;15,46400
 702,85; 7767,813;  212,453;48956,398;15,50010
 703,43; 7849,226;  220,837;49281,116;15,54901
 704,00; 7919,101;  237,453;49439,295;15,61252
 704,57; 7941,821;  222,222;49498,013;15,66611
 705,14; 7962,542;  249,222;49716,347;15,59282
 705,71; 8035,494;  244,838;49741,526;15,73975
 706,28; 8026,907;  221,607;49605,705;15,80529
 706,86; 8158,473;  251,146;49934,808;15,91535
 707,43; 8167,271;  247,915;49806,141;15,97990
 708,00; 8195,607;  226,761;49852,090;16,05802
 708,57; 8147,328;  215,454;49729,808;16,01934
 709,14; 8288,049;  240,531;49911,603;16,20162
 709,71; 8287,769;  229,762;49930,552;16,21304
 710,28; 8364,875;  222,300;50118,577;16,31900
 710,86; 8442,826;  228,454;50245,064;16,42329
 711,43; 8516,854;  239,608;50219,244;16,56124
 712,00; 8522,652;  226,377;50416,808;16,52959
 712,57; 8582,296;  230,608;50404,141;16,64560
 713,14; 8622,401;  210,993;50588,936;16,69661
 713,71; 8627,353;  226,993;50438,577;16,72992
 714,28; 8673,304;  222,378;50538,064;16,79581
 714,85; 8704,794;  199,840;50280,013;16,98268
 715,42; 8819,361;  226,378;50523,654;17,08439
 716,00; 8930,620;  243,532;50616,064;17,24568
 716,57; 8926,418;  210,686;50737,705;17,24965
 717,14; 8923,215;  207,532;50656,577;17,27621
 717,71; 8990,936;  195,994;50707,218;17,41186
 718,28; 9077,349;  230,994;50710,475;17,52466
 718,85; 9077,070;  201,763;50882,500;17,51219
 719,42; 9182,175;  228,763;50995,526;17,63637
 719,99; 9176,280;  203,764;50804,705;17,73192
 720,56; 9292,232;  210,148;50936,731;17,90399
 721,13; 9306,799;  209,456;51194,834;17,84304
 721,70; 9338,519;  203,764;51025,859;17,97398
 722,27; 9429,394;  224,149;51067,731;18,10503
 722,84; 9539,192;  250,764;51268,449;18,20629
 723,41; 9559,451;  198,918;51284,475;18,32325
 723,98; 9643,556;  211,764;51411,500;18,42156
 724,55; 9734,200;  226,918;51542,372;18,52713
 725,12; 9714,305;  175,765;51439,475;18,60681
 725,69; 9838,795;  195,457;51638,654;18,74560
 726,27; 9865,285;  218,073;51742,372;18,72362
 726,84; 9990,313;  204,150;51964,167;18,90680
 727,41;10030,265;  212,457;51888,654;18,99870
 727,98;10106,447;  228,996;52293,526;18,97156
 728,55;10133,245;  240,304;52202,090;19,03888
 729,12;10179,658;  188,304;52239,116;19,19539
 729,69;10285,532;  229,535;52379,218;19,28295
 730,26;10346,407;  237,458;52591,090;19,30897
 730,82;10358,820;  219,612;52422,346;19,42275
 731,39;10471,079;  213,381;52453,141;19,63581
 731,96;10573,800;  203,920;52856,398;19,69495
 732,53;10652,982;  226,689;53030,731;19,74526
 733,10;10702,241;  226,766;53117,295;19,80596
 733,67;10854,116;  227,997;53310,936;20,01795
 734,24;10838,606;  202,074;53044,577;20,12874
 734,81;10879,019;  234,536;53106,218;20,13267
 735,38;10925,278;  222,151;52852,013;20,33660
 735,95;10975,152;  211,536;52603,269;20,54449
 736,52;11003,719;  229,075;52873,295;20,46691
 737,09;11043,902;  223,613;52528,936;20,68678
 737,66;11160,315;  259,998;52727,962;20,77519
 738,23;11194,035;  212,536;52716,833;20,91543
 738,80;11385,371;  243,537;52981,321;21,12685
 739,37;11398,400;  244,921;53152,423;21,08109
 739,94;11441,813;  216,614;53225,987;21,17588
 740,51;11671,149;  285,614;53235,551;21,50245
 741,07;11616,870;  213,460;53193,192;21,52410
 741,64;11678,359;  250,845;53421,680;21,49207
 742,21;11813,696;  213,691;53418,397;21,80259
 742,78;11811,416;  199,076;53317,654;21,86117
 743,35;11903,983;  212,307;53527,372;21,92940
 743,92;11992,012;  239,922;53673,705;21,99374
 744,49;12003,348;  228,538;53473,038;22,11460
 745,06;12075,761;  221,153;53502,679;22,24900
 745,63;12134,866;  207,769;53506,859;22,37768
 746,19;12214,279;  204,461;53486,731;22,53999
 746,76;12258,615;  227,461;53512,295;22,57895
 747,33;12262,797;  209,846;53499,628;22,61775
 747,90;12422,672;  250,692;53724,808;22,76238
 748,47;12464,931;  227,538;53562,064;22,94460
 749,04;12509,498;  223,231;53529,167;23,04859
 749,61;12508,603;  252,308;53569,577;22,98748
 750,17;12630,478;  245,923;53672,526;23,18050
 750,74;12663,121;  235,385;53563,628;23,30423
 751,31;12633,304;  216,462;53425,961;23,33576
 751,88;12664,178;  193,924;53346,602;23,46120
 752,45;12786,284;  223,385;53511,705;23,57533
 753,02;12671,312;  219,847;53247,961;23,48087
 753,58;12808,263;  212,770;53233,987;23,75557
 754,15;12875,984;  221,232;53361,782;23,81374
 754,72;12891,628;  203,386;53129,808;23,97336
 755,29;12909,426;  203,232;52960,295;24,08435
 755,86;13021,069;  218,463;53042,705;24,23623
 756,42;13153,252;  231,694;52985,500;24,49408
 756,99;13094,665;  193,079;52925,218;24,46627
 757,56;13162,001;  199,694;52876,936;24,60703
 758,13;13182,875;  170,848;52870,423;24,69095
 758,70;13327,673;  200,925;52910,141;24,90408
 759,26;13396,163;  188,694;53011,859;25,00318
 759,83;13477,345;  199,233;53054,654;25,12157
 760,40;13453,758;  196,772;52818,372;25,19305
 760,97;13576,710;  191,079;52962,936;25,36509
 761,53;13521,815;  172,849;52580,500;25,47141
 762,10;13541,151;  177,233;52356,295;25,61165
 762,67;13742,410;  213,541;52537,628;25,85591
 763,24;13623,208;  160,234;52032,808;25,95394
 763,80;13739,621;  194,080;52238,525;26,02687
 764,37;13764,572;  203,003;52183,397;26,08978
 764,94;13687,370;  180,234;51684,884;26,22508
 765,50;13693,244;  187,773;51726,602;26,20446
 766,07;13858,504;  224,003;51775,013;26,44856
 766,64;13804,532;  189,004;51473,346;26,54909
 767,21;13815,099;  189,311;51294,602;26,66219
 767,77;13901,896;  215,158;51205,013;26,84208
 768,34;13889,156;  215,312;51156,192;26,84257
 768,91;13915,184;  212,696;50949,372;27,00707
 769,47;13969,982;  210,543;51145,936;27,01351
 770,04;13961,779;  211,158;50914,423;27,11979
 770,61;13873,500;  195,697;50671,679;27,09765
 771,18;14002,375;  192,389;50442,705;27,48239
 771,74;14042,557;  216,620;50729,730;27,37099
 772,31;14062,970;  204,620;50426,064;27,59449
 772,88;14041,921;  186,389;50187,859;27,71025
 773,44;14043,719;  196,005;50019,115;27,79376
 774,01;14089,286;  210,467;50119,679;27,80813
 774,58;14131,699;  199,621;49828,474;28,07254
 775,14;14196,266;  181,621;49953,961;28,15750
 775,71;14274,371;  201,313;49833,218;28,35486
 776,27;14356,169;  234,467;49778,320;28,50344
 776,84;14465,197;  237,698;49654,269;28,79095
 777,41;14427,302;  210,544;49612,833;28,77753
 777,97;14399,331;  204,852;49278,474;28,92486
 778,54;14452,667;  213,852;49405,807;28,94541
 779,11;14487,541;  225,929;49390,756;29,00775
 779,67;14610,031;  189,006;49313,012;29,35637
 780,24;14638,137;  208,468;49079,577;29,52597
 780,80;14717,011;  224,083;49116,833;29,64228
 781,37;14688,578;  219,622;49091,320;29,60600
 781,94;14717,760;  211,930;48932,192;29,77371
 782,50;14780,558;  224,237;48807,448;29,96163
 783,07;14875,432;  244,622;48741,474;30,16858
 783,63;14863,153;  205,007;48523,269;30,33666
 784,20;14955,028;  226,776;48534,679;30,48829
 784,77;14920,595;  221,315;48376,012;30,52512
 785,33;14874,931;  199,007;48104,423;30,63521
 785,90;14999,113;  209,623;48097,371;30,88366
 786,46;15032,834;  240,854;48043,243;30,94402
 787,03;15035,477;  197,315;47845,269;31,14124
 787,59;15050,044;  205,700;47659,294;31,28181
 788,16;15150,842;  221,239;47735,935;31,42102
 788,73;15141,716;  222,931;47517,730;31,54424
 789,29;15146,745;  214,470;47254,448;31,74380
 789,86;15128,081;  220,547;47044,782;31,83722
 790,42;15126,263;  225,085;47015,730;31,84649
 790,99;15112,368;  233,778;46699,987;32,02024
 791,55;15142,320;  213,470;46680,166;32,12806
 792,12;15205,810;  228,239;46658,423;32,25826
 792,68;15173,300;  226,547;46393,910;32,37515
 793,25;15186,790;  218,086;46124,166;32,60724
 793,81;15179,510;  254,547;45748,192;32,80670
 794,38;15113,154;  197,394;45582,602;32,86481
 794,94;15183,798;  212,701;45458,089;33,08867
 795,51;15175,365;  225,240;45255,115;33,20046
 796,07;15093,855;  215,471;44947,987;33,26078
 796,64;15181,037;  225,240;45052,705;33,36302
 797,20;15108,758;  223,240;44607,038;33,53818
 797,77;14995,017;  205,164;44308,217;33,53476
 798,33;15058,815;  212,010;44102,012;33,82730
 798,90;15115,843;  249,779;44106,192;33,89713
 799,46;15032,256;  230,856;43659,602;34,08203
 800,03;15025,977;  226,779;43527,089;34,17804
 800,59;15016,236;  235,703;43317,192;34,30832
 801,15;14986,264;  228,318;43088,448;34,43281
 801,72;14944,523;  226,549;42737,551;34,62157
 802,28;14947,321;  248,318;42515,499;34,77640
 802,85;14897,811;  225,934;42323,679;34,85193
 803,41;14861,455;  220,165;42166,551;34,90477
 803,98;14781,098;  213,011;41693,269;35,12053
 804,54;14788,204;  223,703;41487,140;35,29638
 805,11;14737,694;  233,319;41345,397;35,28008
 805,67;14815,030;  249,934;41288,961;35,49084
 806,23;14662,520;  228,858;40705,140;35,65955
 806,80;14704,933;  248,319;40766,320;35,67948
 807,36;14702,653;  249,935;40684,576;35,74341
 807,93;14708,528;  249,396;40466,602;35,95260
 808,49;14619,941;  213,704;40178,704;36,04713
 809,05;14702,123;  203,397;39916,961;36,50825
 809,62;14751,613;  230,089;39845,140;36,65658
 810,18;14766,872;  237,012;39721,704;36,79872
 810,74;14690,670;  202,858;39411,653;36,95041
 811,31;14692,237;  217,551;39334,371;37,00374
 811,87;14685,881;  219,166;39072,704;37,23397
 812,44;14797,755;  253,013;39130,807;37,41144
 813,00;14687,245;  195,090;38864,833;37,47673
 813,56;14814,504;  232,628;38881,704;37,72891
 814,13;14792,225;  221,859;38738,038;37,82921
 814,69;14785,946;  229,782;38666,602;37,87036
 815,25;14725,128;  206,013;38191,781;38,22251
 815,82;14800,156;  240,936;38140,422;38,41535
 816,38;14774,492;  254,475;38017,756;38,45010
 816,94;14641,521;  212,321;37665,089;38,52639
 817,51;14649,318;  213,398;37457,192;38,76061
 818,07;14623,424;  216,091;37184,448;38,97207
 818,63;14573,298;  232,629;37068,704;38,93105
 819,20;14616,327;  228,014;36976,499;39,15349
 819,76;14505,894;  211,168;36605,448;39,27740
 820,32;14504,076;  258,476;36546,781;39,25672
 820,89;14506,104;  253,322;36374,730;39,45799
 821,45;14407,902;  219,861;36082,217;39,56249
 822,01;14357,161;  241,399;35794,012;39,70387
 822,57;14397,882;  239,092;35651,807;39,98222
 823,14;14298,372;  203,246;35501,448;39,93157
 823,70;14227,169;  211,861;35213,474;40,04189
 824,26;14141,813;  217,323;35068,730;39,95388
 824,82;14222,611;  235,323;34948,525;40,29386
 825,39;14217,870;  221,323;34589,166;40,72571
 825,95;14245,129;  248,785;34705,653;40,61990
 826,51;14214,004;  234,169;34314,448;41,02031
 827,08;14271,724;  273,400;34366,012;41,05970
 827,64;14243,137;  244,554;34154,730;41,28136
 828,20;14153,320;  216,247;33988,063;41,26835
 828,76;14196,656;  242,939;33968,935;41,37377
 829,32;14168,915;  235,170;33638,884;41,71316
 829,89;14097,174;  205,632;33617,986;41,57607
 830,45;14119,972;  224,016;33626,781;41,60121
 831,01;14205,385;  217,324;33354,268;42,21289
 831,57;14222,875;  226,093;33305,294;42,31294
 832,14;14293,057;  216,555;33249,704;42,61326
 832,70;14244,701;  221,171;33008,730;42,77089
 833,26;14241,806;  198,940;32956,217;42,86945
 833,82;14319,680;  226,478;32905,320;43,12638
 834,38;14301,170;  219,017;32890,653;43,10208
 834,95;14322,122;  213,094;32684,140;43,45110
 835,51;14313,689;  187,786;32653,012;43,51087
 836,07;14422,256;  227,479;32678,576;43,74205
 836,63;14521,207;  246,479;32728,909;43,94600
 837,19;14400,697;  226,941;32581,166;43,80805
 837,75;14293,725;  194,479;32266,807;43,96078
 838,32;14472,292;  241,710;32399,525;44,25233
 838,88;14505,398;  241,556;32369,704;44,39671
 839,44;14529,503;  223,095;32338,884;44,54634
 840,00;14562,070;  218,634;32270,602;44,75056
 840,56;14478,406;  202,480;31940,166;44,98099
 841,12;14503,973;  205,018;32017,730;44,94730
 841,68;14441,232;  198,865;31845,525;45,00433
 842,25;14476,645;  206,249;31785,704;45,18886
 842,81;14469,442;  199,634;31575,114;45,48076
 843,37;14492,086;  201,327;31589,679;45,52886
 843,93;14392,345;  213,173;31364,781;45,51666
 844,49;14559,989;  224,173;31529,268;45,79388
 845,05;14471,402;  196,711;31316,294;45,87044
 845,61;14490,354;  222,789;31425,320;45,72567
 846,17;14543,844;  220,019;31247,191;46,16542
 846,73;14514,718;  222,866;31122,986;46,25177
 847,29;14494,362;  197,943;30937,089;46,50884
 847,86;14447,698;  200,327;30937,730;46,35190
 848,42;14432,111;  189,943;30798,986;46,52928
 848,98;14434,986;  222,097;30715,935;46,60905
 849,54;14499,783;  207,712;30736,960;46,81436
 850,10;14446,965;  218,482;30613,755;46,81150
 850,66;14414,071;  192,251;30411,781;47,06168
 851,22;14466,099;  201,636;30333,807;47,33965
 851,78;14503,743;  241,021;30447,140;47,21799
 852,34;14399,848;  221,944;30167,012;47,34638
 852,90;14420,107;  216,252;30150,960;47,44945
 853,46;14346,905;  205,405;29833,294;47,73037
 854,02;14437,087;  218,175;29953,473;47,81829
 854,58;14308,116;  202,944;29552,960;48,05848
 855,14;14327,606;  198,713;29645,525;47,98106
 855,70;14390,480;  183,021;29501,935;48,45834
 856,26;14404,201;  225,791;29355,268;48,67375
 856,82;14393,768;  194,022;29189,371;48,97250
 857,38;14372,335;  227,791;29143,935;48,91573
 857,94;14347,440;  219,099;29065,345;48,97809
 858,50;14366,622;  216,868;28963,755;49,22187
 859,06;14355,266;  209,330;28775,550;49,51980
 859,62;14380,679;  212,022;28668,268;49,79103
 860,18;14330,938;  207,330;28472,063;49,96901
 860,74;14281,967;  181,945;28436,089;49,90426
 861,30;14250,226;  184,715;28172,883;50,25520
 861,86;14365,331;  218,099;28135,832;50,67472
 862,42;14309,129;  208,330;28034,704;50,67422
 862,98;14419,311;  239,792;28063,268;50,96243
 863,54;14301,724;  215,715;27839,601;50,99213
 864,10;14365,368;  220,331;27927,165;51,05252
 864,66;14292,011;  193,485;27719,422;51,21906
 865,22;14282,501;  215,485;27459,294;51,63381
 865,78;14275,299;  217,869;27440,396;51,63896
 866,34;14311,789;  207,870;27400,499;51,86670
 866,90;14239,587;  213,870;27252,448;51,87298
 867,45;14219,000;  232,177;27129,550;52,00070
 868,01;14239,182;  209,101;26938,191;52,48993
 868,57;14211,979;  211,255;26672,755;52,90979
 869,13;14180,777;  209,255;26623,935;52,89302
 869,69;14123,652;  204,409;26609,730;52,71378
 870,25;14156,065;  198,178;26493,140;53,08198
 870,81;14144,708;  209,101;26439,396;53,12791
 871,37;14194,583;  216,563;26233,191;53,72725
 871,93;14227,458;  219,332;26148,140;54,02534
 872,49;14129,409;  214,871;25890,242;54,19411
 873,04;14070,207;  203,025;25747,653;54,28610
 873,60;13992,235;  193,871;25677,678;54,14561
 874,16;14049,033;  207,179;25578,627;54,55681
 874,72;14078,725;  207,717;25468,242;54,91179
 875,28;14125,417;  229,640;25456,165;55,08399
 875,84;14062,879;  209,717;25388,012;55,02025
 876,40;14101,340;  211,948;25365,319;55,21881
 876,95;14159,802;  222,871;25269,781;55,64331
 877,51;14208,494;  235,563;25265,165;55,82562
 878,07;14241,802;  250,563;25309,781;55,83270
 878,63;14305,033;  205,563;25250,550;56,29657
 879,19;14330,033;  220,025;25294,012;56,27349
 879,75;14388,187;  208,871;25332,627;56,43788
 880,30;14414,648;  216,563;25303,473;56,59559
 880,86;14542,417;  249,025;25415,165;56,79612
 881,42;14606,725;  214,871;25455,396;57,01884
 881,98;14663,571;  213,410;25522,858;57,09394
 882,54;14725,494;  212,563;25572,473;57,22785
 883,09;14843,340;  217,025;25738,627;57,30955
 883,65;14966,340;  199,640;25753,396;57,78681
 884,21;15178,802;  239,256;26019,242;57,95017
 884,77;15239,956;  204,179;26052,935;58,16828
 885,32;15391,648;  214,717;26127,781;58,56865
 885,88;15557,417;  246,487;26270,396;58,83409
 886,44;15576,725;  216,256;26388,627;58,68964
 887,00;15660,187;  226,794;26317,396;59,15307
 887,56;15735,417;  215,102;26516,781;59,00884
 888,11;15842,648;  216,025;26523,165;59,40069
 888,67;15961,725;  247,102;26678,242;59,45496
 889,23;15986,417;  221,333;26639,242;59,67575
 889,79;15993,648;  212,871;26599,858;59,80515
 890,34;16019,571;  213,794;26426,088;60,29910
 890,90;16207,263;  264,794;26637,935;60,44964
 891,46;16184,033;  201,179;26547,704;60,66399
 892,01;16193,494;  246,717;26550,473;60,62548
 892,57;16193,340;  247,102;26450,396;60,85585
 893,13;16122,879;  217,563;26310,319;60,95682
 893,69;16177,033;  213,487;26244,242;61,32571
 894,24;16117,263;  227,871;26140,088;61,32008
 894,80;16103,263;  228,717;26051,550;61,47484
 895,36;16070,187;  215,794;25912,242;61,69877
 895,91;15984,187;  220,025;25715,858;61,83035
 896,47;15956,263;  232,179;25603,165;61,97664
 897,03;15821,110;  215,871;25433,012;61,88346
 897,58;15777,802;  226,871;25292,473;62,04092
 898,14;15762,956;  233,487;25158,165;62,30559
 898,70;15699,571;  204,333;25020,242;62,44074
 899,25;15746,725;  219,102;25065,858;62,49356
 899,81;15730,340;  238,563;24811,088;63,04512
 900,37;15528,725;  202,487;24664,935;62,65210
 900,92;15598,340;  216,871;24689,088;62,85278
 901,48;15602,110;  206,948;24439,627;63,53058
 902,03;15568,417;  220,179;24370,627;63,55260
 902,59;15510,033;  224,948;24280,242;63,54146
 903,15;15509,494;  237,256;24084,012;64,04325
 903,70;15291,033;  226,410;23891,935;63,65641
 904,26;15259,494;  206,563;23762,935;63,90174
 904,82;15310,879;  226,410;23784,550;64,03081
 905,37;15234,110;  226,179;23583,012;64,25499
 905,93;15162,802;  205,333;23426,473;64,41316
 906,48;15147,956;  225,487;23327,319;64,59431
 907,04;15178,725;  229,871;23371,935;64,59603
 907,60;15091,802;  214,717;23137,473;64,90094
 908,15;15126,340;  208,717;22978,473;65,51508
 908,71;15140,417;  244,487;23058,781;65,29210
 909,26;15003,879;  204,948;22870,396;65,29291
 909,82;14952,263;  242,333;22765,935;65,30896
 910,37;14966,725;  262,025;22674,935;65,60817
 910,93;14868,648;  215,487;22437,012;65,94130
 911,48;14866,802;  216,487;22333,012;66,24149
 912,04;14866,340;  207,333;22260,858;66,47013
 912,60;14905,802;  210,563;22204,627;66,81457
 913,15;14742,263;  220,179;22091,627;66,39745
 913,71;14725,494;  216,025;21865,704;67,01933
 914,26;14670,033;  209,640;21903,165;66,65764
 914,82;14671,879;  218,794;21716,165;67,23187
 915,37;14714,494;  211,179;21795,242;67,19455
 915,93;14710,187;  243,102;21568,165;67,84076
 916,48;14685,956;  213,871;21460,473;68,11482
 917,04;14648,340;  219,410;21340,473;68,31536
 917,59;14641,417;  245,717;21340,550;68,24278
 918,15;14541,033;  190,102;21153,781;68,45617
 918,70;14477,879;  215,487;20980,396;68,68507
 919,26;14516,340;  221,179;20927,012;69,03930
 919,81;14458,110;  208,871;20748,319;69,37498
 920,37;14459,956;  213,640;20701,550;69,53523
 920,92;14442,494;  223,794;20604,781;69,76453
 921,48;14331,956;  195,410;20430,242;69,86243
 922,03;14345,956;  218,025;20399,242;70,00534
 922,59;14319,571;  202,410;20284,704;70,29656
 923,14;14298,648;  204,948;20158,396;70,63290
 923,69;14271,802;  230,410;20127,165;70,57127
 924,25;14291,802;  223,563;20013,396;71,08821
 924,80;14206,417;  215,025;19914,627;71,02373
 925,36;14187,187;  216,563;19836,704;71,20552
 925,91;14165,033;  213,102;19648,781;71,78515
 926,47;14083,802;  203,487;19631,088;71,44637
 927,02;14063,956;  235,640;19501,396;71,77666
 927,57;14018,571;  222,794;19368,396;72,05716
 928,13;14054,494;  204,333;19312,319;72,48363
 928,68;14012,571;  214,256;19174,858;72,77361
 929,24;13904,494;  190,948;19009,012;72,87438
 929,79;13889,417;  211,794;18983,088;72,86457
 930,34;13728,187;  221,717;18895,858;72,32713
 930,90;13759,110;  200,487;18782,473;72,96649
 931,45;13758,648;  229,410;18742,088;73,08093
 932,01;13709,879;  224,871;18605,242;73,36635
 932,56;13639,340;  230,563;18502,473;73,38465
 933,11;13662,494;  231,179;18516,781;73,45296
 933,67;13586,187;  197,102;18280,012;74,04276
 934,22;13519,571;  216,487;18281,165;73,64141
 934,77;13487,417;  245,333;18135,704;74,01794
 935,33;13488,110;  225,640;18075,165;74,30152
 935,88;13435,417;  225,256;17939,550;74,57346
 936,43;13367,340;  212,640;17899,242;74,37664
 936,99;13379,802;  214,333;17770,627;74,99002
 937,54;13237,417;  202,717;17604,242;74,90550
 938,09;13208,956;  225,333;17588,704;74,77593
 938,65;13215,879;  216,256;17445,781;75,44969
 939,20;13161,417;  197,025;17358,165;75,54505
 939,75;13094,648;  201,179;17257,396;75,59395
 940,31;13115,187;  193,717;17228,550;75,85322
 940,86;13135,571;  223,025;17136,627;76,34415
 941,41;13079,340;  253,794;17060,704;76,31115
 941,96;12992,340;  217,563;16938,088;76,40177
 942,52;12939,802;  218,025;16923,088;76,15521
 943,07;12873,571;  197,333;16744,319;76,60753
 943,62;12917,879;  210,179;16712,319;77,00637
 944,18;12866,802;  197,410;16626,858;77,11393
 944,73;12831,802;  216,333;16583,473;77,07803
 945,28;12700,187;  179,410;16355,704;77,40201
 945,83;12760,340;  208,025;16382,088;77,60768
 946,39;12743,956;  209,102;16293,396;77,93226
 946,94;12700,802;  229,640;16191,935;78,12888
 947,49;12661,187;  205,717;16159,242;78,07346
 948,04;12688,956;  224,256;16080,935;78,60852
 948,59;12679,033;  228,640;16028,858;78,79887
 949,15;12649,571;  194,487;15947,088;79,06684
 949,70;12654,802;  206,179;15818,165;79,73760
 950,25;12546,417;  233,563;15749,550;79,35592
 950,80;12516,110;  181,102;15661,396;79,68200
 951,36;12435,110;  180,256;15599,858;79,47581
 951,91;12509,110;  230,717;15597,088;79,90431
 952,46;12377,802;  180,179;15352,858;80,39202
 953,01;12398,956;  227,640;15431,012;80,05669
 953,56;12312,263;  185,640;15285,396;80,31006
 954,11;12370,417;  218,256;15252,088;80,83209
 954,67;12261,802;  210,948;15143,165;80,70371
 955,22;12138,417;  189,025;15032,627;80,50197
 955,77;12240,033;  233,025;14985,550;81,38951
 956,32;12138,417;  248,102;14869,550;81,32105
 956,87;12025,494;  199,102;14740,781;81,32756
 957,42;12008,648;  202,563;14703,473;81,41617
 957,98;11936,033;  209,640;14698,088;80,93615
 958,53;11919,263;  221,640;14588,012;81,42365
 959,08;11897,879;  191,717;14508,012;81,76810
 959,63;11819,648;  200,717;14414,012;81,74692
 960,18;11823,648;  222,794;14310,242;82,34887
 960,73;11807,494;  211,717;14232,858;82,70210
 961,28;11732,879;  199,948;14197,319;82,39355
 961,83;11669,263;  229,871;14126,858;82,31563
 962,39;11629,417;  199,640;13991,242;82,87490
 962,94;11626,879;  221,948;13961,319;83,00912
 963,49;11475,571;  212,487;13818,396;82,78083
 964,04;11513,187;  228,794;13819,627;83,02944
 964,59;11443,571;  183,794;13670,627;83,48718
 965,14;11406,802;  214,871;13636,935;83,38458
 965,69;11375,187;  213,025;13554,550;83,66481
 966,24;11263,263;  205,256;13438,550;83,56202
 966,79;11263,648;  222,333;13380,396;83,91292
 967,34;11185,571;  188,410;13282,704;83,98438
 967,89;11178,110;  203,794;13182,165;84,55850
 968,44;11070,187;  206,794;13090,627;84,31802
 968,99;11082,802;  217,871;13085,935;84,43330
 969,55;11076,648;  219,487;13056,319;84,57820
 970,10;10985,187;  216,871;12974,165;84,40909
 970,65;10931,956;  218,948;12846,550;84,83802
 971,20;10811,263;  207,410;12765,550;84,43809
 971,75;10741,187;  195,179;12632,165;84,79552
 972,30;10789,033;  209,102;12537,704;85,81614
 972,85;10684,879;  209,025;12490,165;85,30033
 973,40;10628,802;  197,487;12359,550;85,76929
 973,95;10611,033;  211,179;12289,627;86,10257
 974,50;10585,802;  235,256;12209,704;86,43861
 975,05;10500,956;  219,179;12147,781;86,19432
 975,60;10453,879;  227,640;12128,858;85,92599
 976,15;10423,802;  210,948;12005,858;86,58696
 976,70;10356,110;  227,487;11875,704;86,95428
 977,25;10296,802;  219,871;11847,858;86,66101
 977,80;10266,956;  212,333;11696,550;87,55166
 978,35;10192,187;  219,563;11599,396;87,63418
 978,89;10146,571;  192,025;11549,088;87,65070
 979,44;10144,879;  208,871;11497,319;88,01925
 979,99; 9986,879;  200,025;11345,242;87,81214
 980,54; 9964,110;  231,794;11301,550;87,91807
 981,09; 9917,110;  228,333;11217,781;88,16436
 981,64; 9821,187;  222,102;11083,627;88,37695
 982,19; 9856,417;  248,025;11040,088;89,03202
 982,74; 9719,802;  232,410;10919,473;88,77455
 983,29; 9577,417;  199,717;10854,550;88,01358
 983,84; 9572,648;  230,563;10682,242;89,38358
 984,39; 9589,263;  236,871;10666,781;89,66897
 984,94; 9449,494;  202,640;10536,242;89,48336
 985,49; 9428,879;  239,487;10394,242;90,49348
 986,03; 9372,187;  239,563;10423,550;89,67631
 986,58; 9242,956;  254,487;10223,473;90,16432
 987,13; 9176,033;  227,179;10117,550;90,48047
 987,68; 9129,802;  231,179;10047,935;90,64729
 988,23; 9098,956;  233,794;10004,858;90,72873
 988,78; 9007,033;  215,333; 9885,704;90,91378
 989,33; 8912,187;  228,794; 9824,473;90,49274
 989,88; 8913,494;  239,179; 9742,935;91,27250
 990,42; 8799,494;  226,179; 9603,627;91,42482
 990,97; 8715,033;  222,717; 9473,012;91,80589
 991,52; 8687,956;  244,487; 9536,704;90,86603
 992,07; 8671,956;  244,410; 9348,550;92,56828
 992,62; 8570,033;  231,410; 9293,319;92,01839
 993,17; 8478,725;  230,179; 9157,781;92,39375
 993,71; 8434,340;  234,487; 9069,088;92,81520
 994,26; 8339,571;  212,948; 8950,781;93,00502
 994,81; 8341,187;  247,102; 8892,858;93,61917
 995,36; 8157,802;  219,256; 8732,396;93,25050
 995,91; 8087,340;  229,102; 8727,165;92,47093
 996,45; 8057,187;  231,794; 8630,473;93,17409
 997,00; 7977,494;  209,025; 8499,165;93,70733
 997,55; 7980,263;  227,640; 8491,012;93,81913
 998,10; 7886,494;  248,179; 8363,935;94,11712
 998,65; 7800,263;  223,179; 8317,012;93,61553
 999,19; 7722,417;  239,333; 8162,627;94,44411
 999,74; 7627,956;  250,487; 8063,088;94,43037
1000,29; 7601,417;  242,179; 8035,012;94,43599
1000,84; 7485,802;  220,871; 7901,627;94,58614
1001,38; 7455,340;  221,563; 7804,935;95,38999
1001,93; 7463,187;  249,948; 7778,012;95,81798
1002,48; 7317,879;  219,102; 7667,704;95,30348
1003,03; 7299,340;  224,794; 7615,242;95,72554
1003,57; 7188,956;  242,179; 7510,781;95,57239
1004,12; 7142,648;  242,794; 7420,704;96,12623
1004,67; 7070,571;  227,410; 7327,473;96,38170
1005,22; 7000,340;  214,871; 7172,242;97,52921
1005,76; 6858,417;  206,487; 7067,858;96,94754
1006,31; 6863,571;  237,794; 7078,165;96,86283
1006,86; 6792,802;  224,256; 6927,012;97,99769
1007,40; 6664,879;  201,487; 6818,473;97,67879
1007,95; 6568,417;  219,333; 6702,781;97,92759
1008,50; 6449,263;  224,794; 6639,858;97,02896
1009,04; 6372,340;  235,256; 6551,935;97,15683
1009,59; 6277,417;  233,871; 6451,165;97,20541
1010,14; 6237,187;  211,717; 6324,012;98,57950
1010,68; 6106,187;  223,948; 6220,088;98,10041
1011,23; 6030,340;  192,563; 6125,396;98,39780
1011,78; 5993,494;  228,410; 6082,473;98,48005
1012,32; 5933,802;  224,179; 5967,781;99,40841
1012,87; 5899,571;  245,640; 5984,319;98,52321
1013,42; 5794,648;  216,410; 5836,396;99,25715
1013,96; 5805,648;  239,871; 5882,627;98,63579
1014,51; 5702,725;  192,487; 5748,935;99,16836
1015,06; 5729,110;  199,179; 5721,319;100,14108
1015,60; 5801,802;  262,179; 5859,165;98,97510
1016,15; 5773,263;  220,256; 5778,165;99,91180
1016,69; 5821,571;  222,102; 5833,858;99,78106
1017,24; 5832,802;  198,179; 5799,550;100,59364
1017,79; 5890,879;  239,948; 5843,242;100,85015
1018,33; 5884,879;  206,948; 5874,473;100,18360
1018,88; 5980,340;  233,640; 5905,473;101,31998
1019,42; 5986,956;  217,871; 5889,935;101,71051
1019,97; 6025,340;  214,563; 5898,242;102,23619
1020,51; 6045,725;  222,640; 5889,550;102,75591
1021,06; 6061,802;  212,948; 5904,012;102,77260
1021,61; 6017,494;  197,102; 5858,935;102,80050
1022,15; 6018,263;  181,640; 5841,473;103,12360
1022,70; 6033,725;  212,487; 5878,704;102,73588
1023,24; 5960,802;  206,025; 5774,473;103,34615
1023,79; 5921,879;  226,179; 5726,088;103,55988
1024,33; 5904,110;  220,487; 5669,473;104,30606
1024,88; 5832,340;  221,948; 5594,704;104,42299
1025,42; 5728,725;  211,794; 5490,935;104,50434
1025,97; 5638,340;  212,102; 5451,550;103,56508
1026,51; 5575,648;  178,948; 5318,550;105,00230
1027,06; 5583,879;  211,333; 5295,012;105,68225
1027,60; 5486,648;  218,563; 5148,473;106,85966
1028,15; 5434,263;  225,563; 5140,088;105,98583
1028,69; 5273,417;  195,640; 4995,550;105,78901
1029,24; 5237,033;  209,025; 4952,319;106,00244
1029,78; 5165,340;  210,563; 4861,627;106,52998
1030,33; 5060,110;  192,640; 4782,550;106,04717
1030,87; 4977,110;  207,717; 4711,088;105,90716
1031,42; 4898,417;  210,333; 4652,781;105,52931
1031,96; 4869,263;  218,794; 4589,550;106,39966
1032,51; 4790,494;  196,487; 4476,935;107,32539
1033,05; 4771,340;  218,256; 4473,704;106,99425
1033,60; 4641,571;  193,563; 4344,781;107,14948
1034,14; 4616,571;  205,871; 4275,550;108,37956
1034,69; 4548,879;  198,563; 4244,165;107,53197
1035,23; 4473,187;  215,640; 4171,935;107,61450
1035,77; 4420,571;  200,333; 4117,165;107,74620
1036,32; 4337,033;  187,333; 4057,627;107,21924
1036,86; 4347,879;  200,487; 3996,935;109,24402
1037,41; 4266,879;  229,102; 3932,473;109,02977
1037,95; 4177,340;  181,563; 3886,165;107,85982
1038,50; 4116,263;  203,871; 3824,858;108,04769
1039,04; 4117,956;  213,333; 3800,781;108,84124
1039,58; 4040,494;  202,102; 3725,627;108,93615
1040,13; 3989,263;  225,640; 3698,858;108,36129
1040,67; 3983,417;  234,410; 3655,550;109,58357
1041,21; 3895,340;  233,794; 3576,858;109,52667
1041,76; 3821,725;  189,563; 3504,550;109,56791
1042,30; 3779,802;  210,333; 3495,858;108,64228
1042,85; 3690,263;  195,563; 3425,165;108,20838
1043,39; 3664,033;  203,717; 3353,396;109,86248
1043,93; 3628,725;  223,025; 3308,473;110,37943
1044,48; 3580,648;  217,179; 3286,396;109,58720
1045,02; 3532,033;  218,333; 3232,242;109,94689
1045,56; 3478,494;  216,871; 3206,242;109,10733
1046,11; 3453,648;  216,717; 3161,935;109,90465
1046,65; 3391,263;  216,102; 3111,012;109,68085
1047,19; 3344,725;  207,871; 3041,088;110,71702
1047,74; 3267,571;  198,871; 3008,935;109,20394
1048,28; 3258,340;  224,256; 2962,627;110,79888
1048,82; 3208,417;  231,717; 2919,704;110,74088
1049,37; 3156,802;  219,025; 2880,165;110,39541
1049,91; 3103,725;  202,179; 2835,088;110,20303
1050,45; 3091,340;  234,102; 2824,012;110,32194
1050,99; 3052,648;  203,410; 2761,319;111,38933
1051,54; 3004,725;  207,256; 2712,473;111,66573
1052,08; 2955,340;  223,871; 2715,319;109,63380
1052,62; 2913,033;  226,256; 2672,858;109,81668
1053,16; 2857,648;  201,025; 2597,781;110,84246
1053,71; 2839,417;  215,871; 2567,012;111,58611
1054,25; 2781,802;  236,333; 2546,858;110,16843
1054,79; 2762,033;  224,487; 2497,012;111,66197
1055,33; 2683,725;  193,025; 2461,858;109,77892
1055,88; 2674,956;  234,333; 2448,396;110,23275
1056,42; 2635,648;  239,410; 2421,627;109,80751
1056,96; 2603,263;  223,794; 2358,627;111,45928
1057,50; 2558,879;  222,563; 2322,012;111,28236
1058,05; 2520,263;  217,948; 2299,473;110,60715
1058,59; 2500,956;  231,256; 2269,473;111,35712
1059,13; 2430,263;  199,563; 2217,242;110,55773
1059,67; 2430,725;  234,871; 2212,781;111,01892
1060,21; 2372,494;  222,717; 2158,781;111,03856
1060,76; 2386,956;  230,717; 2147,935;112,46709
1061,30; 2358,802;  245,179; 2119,319;112,77827
1061,84; 2308,033;  221,102; 2066,550;113,08531
1062,38; 2243,263;  214,640; 2029,319;111,78965
1062,92; 2278,187;  256,948; 2062,935;111,91880
1063,46; 2211,802;  234,563; 1991,781;112,52100
1064,01; 2192,802;  209,717; 1961,088;113,23040
1064,55; 2143,033;  227,717; 1943,319;111,64101
1065,09; 2100,340;  203,256; 1904,935;111,48312
1065,63; 2125,340;  243,794; 1916,550;112,48182
1066,17; 2099,417;  242,487; 1887,627;112,87370
1066,71; 2085,802;  241,563; 1878,704;112,64999
1067,25; 2020,802;  215,256; 1818,935;112,58776
1067,80; 2013,340;  240,717; 1811,319;112,86266
1068,34; 2003,802;  255,487; 1823,473;111,50066
1068,88; 1963,110;  224,717; 1739,012;114,79885
1069,42; 1967,802;  260,025; 1768,627;113,20262
1069,96; 1903,725;  230,640; 1709,473;113,13549
1070,50; 1931,263;  243,410; 1728,012;113,69067
1071,04; 1856,340;  215,256; 1665,165;113,18530
1071,58; 1843,879;  225,179; 1660,935;112,74202
1072,12; 1838,033;  220,640; 1631,242;114,65973
1072,66; 1828,571;  219,563; 1625,550;114,43977
1073,21; 1837,648;  231,794; 1632,627;114,63566
1073,75; 1783,879;  231,410; 1603,242;113,16753
1074,29; 1738,340;  234,640; 1577,319;111,99253
1074,83; 1749,263;  244,487; 1571,858;113,36520
1075,37; 1725,033;  233,256; 1535,473;114,55668
1075,91; 1728,494;  249,179; 1527,088;115,76056
1076,45; 1673,802;  235,948; 1492,935;114,38896
1076,99; 1678,571;  236,025; 1472,012;116,71213
1077,53; 1619,340;  220,794; 1450,781;113,70418
1078,07; 1611,956;  237,948; 1450,396;113,32507
1078,61; 1595,648;  229,948; 1413,704;115,37008
1079,15; 1569,802;  220,640; 1402,473;114,15842
1079,69; 1566,110;  237,717; 1409,935;113,32304
1080,23; 1543,110;  243,717; 1403,012;112,08477
1080,77; 1560,033;  243,717; 1385,704;115,26540
1081,31; 1497,725;  221,717; 1334,319;114,68681
1081,85; 1496,417;  240,640; 1359,473;112,23992
1082,39; 1456,494;  230,948; 1313,858;113,17160
1082,93; 1461,033;  229,179; 1312,627;113,69754
1083,47; 1409,417;  219,871; 1271,088;113,15892
1084,01; 1454,956;  239,640; 1289,319;115,77973
1084,55; 1402,110;  226,410; 1251,550;114,68673
1085,09; 1402,879;  239,487; 1260,704;113,92211
1085,63; 1386,956;  233,487; 1224,704;116,36896
1086,17; 1357,956;  225,025; 1211,396;114,85847
1086,71; 1325,187;  227,410; 1195,781;113,36324
1087,24; 1351,802;  253,025; 1210,319;114,77944
1087,78; 1324,340;  231,410; 1172,781;116,09988
1088,32; 1273,956;  215,871; 1147,012;113,63320
1088,86; 1295,263;  253,025; 1173,550;113,22218
1089,40; 1277,494;  225,256; 1135,627;115,58346
1089,94; 1224,187;  199,025; 1098,781;113,93776
1090,48; 1248,802;  238,487; 1108,242;116,16081
1091,02; 1231,879;  232,102; 1098,550;115,38798
1091,56; 1212,494;  242,025; 1077,935;116,09739
1092,10; 1154,263;  213,102; 1070,165;109,81235
1092,63; 1204,571;  256,256; 1063,319;117,50196
1093,17; 1178,263;  233,640; 1056,165;114,84430
1093,71; 1166,110;  233,640; 1037,473;116,00290
1094,25; 1167,110;  248,102; 1041,627;115,81333
1094,79; 1137,033;  235,410; 1022,550;114,54413
1095,33; 1131,956;  221,794; 1012,319;115,13381
1095,87; 1112,340;  232,179;  988,473;116,37819
1096,40; 1091,571;  218,102;  960,550;117,64718
1096,94; 1087,648;  230,025;  968,165;116,18699
1097,48; 1089,263;  236,256;  953,935;118,85646
1098,02; 1055,263;  220,410;  951,935;114,12513
1098,56; 1016,033;  210,179;  903,319;116,26127
1099,10; 1021,340;  212,256;  904,627;116,85707
1099,63;  998,571;  213,410;  909,935;112,72554
1100,17; 1003,110;  235,333;  914,858;112,98730
1100,71; 1021,494;  234,871;  913,627;115,89192

