
Integration time [ms]: 120,000
Averaging Nr. [scans]: 13
Smoothing Nr. [pixels]: 0
Data measured with spectrometer [name]: 2009305U1
Wave   ;Sample   ;Dark     ;Reference;Reflectance
[nm]   ;[counts] ;[counts] ;[counts] ;[%]

 175,72;  211,026;  198,232;  210,419;104,98559
 176,32;  237,581;  222,999;  222,812; 0,00000
 176,92;  259,060;  245,000;  247,702;520,46739
 177,52;  257,363;  267,001;  253,977; 0,00000
 178,12;  234,239;  244,383;  234,001; 0,00000
 178,72;  259,765;  260,844;  253,275; 0,00000
 179,32;  251,493;  263,614;  252,920; 0,00000
 179,92;  248,006;  245,307;  258,324;20,73007
 180,52;  248,589;  241,080;  257,401;46,00997
 181,12;  264,146;  254,769;  255,844;872,31642
 181,73;  271,341;  268,154;  268,051; 0,00000
 182,33;  338,264;  347,463;  341,422; 0,00000
 182,93;  268,012;  268,847;  267,950; 0,00000
 183,53;  243,914;  240,152;  231,946; 0,00000
 184,13;  239,579;  248,690;  238,216; 0,00000
 184,73;  278,600;  270,997;  273,779;273,26906
 185,33;  260,490;  232,137;  349,103;24,24095
 185,93;  274,254;  246,135;  359,480;24,80813
 186,53;  279,756;  253,213;  382,070;20,59883
 187,13;  310,474;  279,984;  414,801;22,61586
 187,73;  276,415;  240,981;  362,099;29,25535
 188,33;  269,100;  250,903;  380,559;14,03453
 188,93;  284,027;  257,977;  389,456;19,81312
 189,53;  283,514;  257,513;  393,057;19,18305
 190,13;  316,091;  290,201;  407,545;22,06293
 190,73;  258,929;  229,050;  364,378;22,07900
 191,34;  290,645;  264,438;  406,663;18,42697
 191,94;  269,534;  234,902;  364,766;26,66738
 192,54;  286,870;  255,985;  396,217;22,02405
 193,14;  290,092;  273,061;  390,390;14,51594
 193,74;  288,130;  255,906;  384,088;25,13916
 194,34;  288,558;  249,599;  400,420;25,83105
 194,94;  257,125;  219,753;  357,901;27,05256
 195,54;  240,291;  199,137;  341,632;28,88132
 196,14;  262,002;  226,831;  357,590;26,89785
 196,74;  251,441;  215,829;  349,140;26,71339
 197,34;  238,556;  204,601;  359,202;21,96286
 197,94;  267,308;  234,907;  394,072;20,35701
 198,54;  273,222;  238,908;  397,622;21,62030
 199,14;  249,986;  216,217;  387,209;19,74860
 199,74;  239,260;  205,756;  383,082;18,89407
 200,34;  246,795;  196,140;  407,041;24,01806
 200,94;  272,956;  242,985;  448,588;14,57695
 201,54;  254,276;  218,601;  437,843;16,27186
 202,14;  281,820;  236,910;  484,016;18,17423
 202,74;  270,525;  230,525;  486,277;15,64023
 203,34;  241,445;  202,373;  502,145;13,03405
 203,94;  223,960;  174,757;  502,690;15,00412
 204,54;  298,493;  252,753;  588,379;13,62813
 205,14;  264,436;  206,525;  602,318;14,63177
 205,74;  299,666;  242,296;  681,014;13,07679
 206,34;  280,150;  209,064;  729,406;13,66144
 206,94;  306,264;  219,756;  786,266;15,27037
 207,54;  271,646;  196,372;  806,524;12,33701
 208,14;  299,401;  201,910;  911,898;13,73129
 208,74;  305,240;  207,217;  988,666;12,54373
 209,34;  320,599;  212,756; 1058,611;12,74963
 209,94;  346,809;  233,448; 1177,743;12,00485
 210,54;  354,298;  220,988; 1288,545;12,48740
 211,14;  355,107;  219,756; 1395,919;11,50786
 211,73;  370,707;  215,063; 1510,690;12,01304
 212,33;  387,989;  238,062; 1639,714;10,69646
 212,93;  387,692;  209,448; 1728,458;11,73420
 213,53;  380,053;  191,832; 1779,924;11,85197
 214,13;  392,315;  194,912; 1878,138;11,72765
 214,73;  385,051;  192,064; 1900,324;11,29726
 215,33;  386,117;  175,063; 1953,512;11,86728
 215,93;  433,173;  205,372; 2059,408;12,28673
 216,53;  417,517;  155,294; 2130,282;13,27720
 217,13;  472,946;  225,218; 2355,757;11,62745
 217,73;  502,798;  200,680; 2550,616;12,85643
 218,33;  494,982;  171,835; 2756,160;12,50410
 218,93;  563,481;  178,298; 3051,389;13,40655
 219,53;  623,102;  188,450; 3378,803;13,62393
 220,13;  646,832;  162,297; 3685,344;13,75330
 220,73;  732,127;  190,525; 4069,335;13,96309
 221,32;  783,240;  199,448; 4487,436;13,61459
 221,92;  865,768;  201,912; 4923,449;14,06016
 222,52;  928,225;  187,603; 5348,652;14,35022
 223,12; 1012,740;  186,296; 5797,964;14,72725
 223,72; 1071,476;  196,834; 6270,837;14,39976
 224,32; 1155,474;  208,834; 6606,008;14,79778
 224,92; 1215,760;  181,296; 6936,379;15,31386
 225,52; 1309,000;  209,064; 7275,524;15,56559
 226,12; 1390,353;  191,526; 7597,223;16,18790
 226,72; 1417,344;  175,680; 7943,468;15,98478
 227,31; 1475,553;  168,680; 8381,762;15,91209
 227,91; 1578,849;  198,141; 8738,728;16,16643
 228,51; 1640,019;  187,062; 9143,184;16,22306
 229,11; 1752,532;  187,680; 9509,971;16,78614
 229,71; 1843,165;  185,371; 9816,726;17,21247
 230,31; 1914,798;  178,912;10313,536;17,12827
 230,91; 1970,467;  162,523;10599,783;17,32202
 231,51; 2082,392;  166,526;10904,987;17,84115
 232,10; 2178,311;  177,989;11271,174;18,03199
 232,70; 2231,173;  185,599;11488,805;18,09729
 233,30; 2322,504;  201,988;11777,942;18,31828
 233,90; 2375,713;  180,834;11885,467;18,75222
 234,50; 2405,688;  180,219;12027,172;18,78517
 235,10; 2480,914;  175,142;12073,456;19,37898
 235,70; 2562,564;  196,294;12184,425;19,73844
 236,29; 2565,450;  204,832;12189,721;19,69662
 236,89; 2553,015;  171,370;12123,154;19,92711
 237,49; 2601,880;  190,295;12035,409;20,35933
 238,09; 2553,304;  187,910;11811,944;20,34917
 238,69; 2534,815;  211,138;11643,233;20,32590
 239,29; 2508,779;  182,064;11287,194;20,95172
 239,89; 2443,729;  197,139;10970,014;20,85413
 240,48; 2357,744;  172,679;10623,623;20,90782
 241,08; 2280,704;  182,448;10282,560;20,77458
 241,68; 2247,171;  208,295; 9995,274;20,83254
 242,28; 2135,538;  165,757; 9625,906;20,82189
 242,88; 2090,281;  216,296; 9347,627;20,52258
 243,48; 2026,375;  218,757; 9046,613;20,47631
 244,07; 1952,519;  196,987; 8825,715;20,34521
 244,67; 1901,795;  200,526; 8683,568;20,05495
 245,27; 1870,938;  207,986; 8554,844;19,92309
 245,87; 1803,064;  208,604; 8438,569;19,37384
 246,47; 1775,267;  188,986; 8459,165;19,18074
 247,06; 1738,614;  180,525; 8441,302;18,86129
 247,66; 1720,148;  189,064; 8521,193;18,37567
 248,26; 1733,243;  219,601; 8600,640;18,06031
 248,86; 1699,508;  205,294; 8831,988;17,32082
 249,46; 1675,964;  164,142; 9039,037;17,03481
 250,05; 1718,272;  207,295; 9393,723;16,44793
 250,65; 1729,874;  175,216; 9756,709;16,22563
 251,25; 1761,936;  187,064;10234,090;15,67501
 251,85; 1808,542;  192,831;10874,878;15,12548
 252,44; 1834,987;  158,986;11393,884;14,91782
 253,04; 1940,511;  197,063;12189,412;14,53800
 253,64; 1959,185;  159,216;12868,221;14,16294
 254,24; 2079,460;  210,833;13783,773;13,76729
 254,84; 2159,502;  184,372;14673,652;13,63166
 255,43; 2296,008;  196,602;15616,214;13,61517
 256,03; 2377,007;  195,986;16569,763;13,32021
 256,63; 2456,839;  198,754;17607,679;12,97085
 257,23; 2565,629;  168,293;18412,317;13,14039
 257,82; 2691,730;  201,292;19369,700;12,99241
 258,42; 2725,791;  158,599;20155,701;12,83782
 259,02; 2906,072;  198,063;20987,648;13,02580
 259,62; 2969,543;  183,830;21623,729;12,99312
 260,21; 3055,152;  186,832;22130,698;13,07117
 260,81; 3135,035;  194,141;22595,785;13,12803
 261,41; 3188,150;  178,446;22950,886;13,21643
 262,01; 3311,174;  213,829;23372,875;13,37423
 262,60; 3278,091;  170,447;23607,624;13,25946
 263,20; 3414,576;  188,447;23973,541;13,56366
 263,80; 3485,582;  204,214;24067,264;13,75083
 264,40; 3519,392;  168,445;24262,626;13,90770
 264,99; 3585,374;  190,906;24401,722;14,02046
 265,59; 3615,414;  186,520;24468,097;14,12138
 266,19; 3695,394;  167,060;24599,984;14,44090
 266,78; 3793,943;  218,675;24698,579;14,60491
 267,38; 3798,356;  197,674;24732,069;14,67605
 267,98; 3857,491;  184,367;24764,556;14,94343
 268,58; 3875,257;  190,905;24668,363;15,05202
 269,17; 3918,249;  190,520;24681,524;15,22081
 269,77; 3959,547;  198,369;24472,295;15,49472
 270,37; 3940,782;  174,137;24319,188;15,60007
 270,96; 4034,565;  225,292;24235,424;15,86527
 271,56; 3971,202;  197,216;23960,050;15,88189
 272,16; 4025,953;  176,061;23785,080;16,30687
 272,75; 4040,743;  193,138;23710,026;16,36103
 273,35; 4104,399;  197,446;23740,550;16,59489
 273,95; 4124,248;  196,061;23627,515;16,76459
 274,54; 4162,987;  159,987;23627,266;17,05780
 275,14; 4282,628;  200,215;24053,097;17,11497
 275,74; 4319,678;  175,369;24029,370;17,37365
 276,33; 4461,668;  212,908;24433,390;17,54201
 276,93; 4560,621;  196,987;24819,699;17,72199
 277,53; 4701,724;  181,525;25312,825;17,98633
 278,12; 4859,198;  169,370;25804,393;18,29461
 278,72; 5025,737;  228,909;26367,852;18,35127
 279,32; 5161,749;  181,371;26951,341;18,60435
 279,91; 5341,501;  171,293;27685,446;18,79108
 280,51; 5546,492;  187,294;28141,295;19,17149
 281,11; 5711,864;  194,524;28898,356;19,22161
 281,70; 5930,844;  176,986;29324,094;19,74075
 282,30; 6113,048;  170,524;29980,435;19,93473
 282,90; 6314,246;  177,985;30302,684;20,36954
 283,49; 6483,288;  200,754;30855,885;20,49423
 284,09; 6712,581;  219,216;31271,796;20,91087
 284,69; 6814,443;  219,447;31600,871;21,01560
 285,28; 7045,845;  197,908;31988,615;21,54069
 285,88; 7265,998;  224,907;32159,253;22,04865
 286,47; 7378,203;  196,523;32207,580;22,43500
 287,07; 7583,168;  217,986;32268,853;22,97966
 287,67; 7771,529;  204,987;32462,151;23,45693
 288,26; 7947,256;  183,986;32327,735;24,15173
 288,86; 8194,922;  184,216;32394,700;24,86987
 289,46; 8466,357;  195,217;32567,577;25,55001
 290,05; 8686,892;  174,294;32602,448;26,25064
 290,65; 8987,952;  186,139;32847,548;26,94866
 291,24; 9318,627;  205,371;32915,486;27,86067
 291,84; 9628,993;  208,677;32980,987;28,74474
 292,44; 9963,703;  195,988;33101,028;29,68456
 293,03;10228,386;  256,371;33267,671;30,20788
 293,63;10446,763;  186,524;33486,824;30,81125
 294,22;10752,567;  218,832;33596,093;31,55961
 294,82;10875,544;  193,214;33514,096;32,05897
 295,41;11053,767;  171,524;33192,325;32,95572
 296,01;11209,670;  228,830;33113,991;33,39148
 296,61;11189,650;  204,832;32864,875;33,63381
 297,20;11158,196;  186,676;32540,194;33,91137
 297,80;11312,361;  212,679;32359,528;34,52806
 298,39;11163,542;  188,370;31888,340;34,62203
 298,99;11210,510;  199,369;31800,129;34,84454
 299,58;11193,521;  201,064;31598,695;35,01047
 300,18;11160,913;  219,756;31476,239;35,00444
 300,78;11110,953;  193,294;31096,612;35,32844
 301,37;11104,202;  204,060;30989,682;35,40660
 301,97;11112,643;  211,755;31040,102;35,35995
 302,56;11099,314;  192,523;31015,544;35,38521
 303,16;11095,285;  173,985;30913,065;35,52904
 303,75;11046,873;  192,986;30947,869;35,29159
 304,35;11183,993;  186,296;31270,737;35,38007
 304,94;11174,488;  197,294;31171,496;35,43980
 305,54;11161,625;  222,602;31024,359;35,51428
 306,13;11065,937;  167,450;31036,914;35,30508
 306,73;10942,747;  175,372;30778,124;35,18434
 307,33;10973,113;  204,218;30757,391;35,24640
 307,92;10971,023;  200,986;30764,300;35,23844
 308,52;11055,265;  173,754;31205,427;35,06582
 309,11;11219,210;  189,676;31675,050;35,03066
 309,71;11331,493;  167,599;32030,689;35,03707
 310,30;11308,771;  170,371;32144,355;34,83582
 310,90;11405,694;  207,524;32439,586;34,74233
 311,49;11441,036;  199,370;32575,781;34,72178
 312,09;11382,935;  160,371;32719,022;34,46876
 312,68;11605,899;  230,832;33036,309;34,67429
 313,28;11550,484;  173,832;33232,070;34,41397
 313,87;11501,607;  150,063;33453,685;34,08501
 314,47;11539,361;  184,061;33707,162;33,87306
 315,06;11479,769;  169,063;33772,757;33,65912
 315,66;11450,012;  171,371;33983,099;33,35718
 316,25;11316,482;  158,831;33862,101;33,10554
 316,85;11332,374;  155,371;33973,787;33,05005
 317,44;11299,627;  184,215;34031,810;32,83959
 318,04;11203,268;  163,600;34028,774;32,59888
 318,63;11121,374;  165,141;34117,861;32,26909
 319,22;11062,283;  190,062;34310,245;31,86449
 319,82;10967,319;  179,139;34280,113;31,63599
 320,41;10854,611;  193,293;34189,114;31,36067
 321,01;10814,464;  197,525;34335,344;31,10023
 321,60;10685,703;  185,293;34326,121;30,75616
 322,20;10528,868;  182,986;34352,155;30,27841
 322,79;10526,242;  220,448;34463,495;30,09602
 323,39;10404,589;  178,449;34452,322;29,83655
 323,98;10242,548;  177,371;34414,128;29,39874
 324,58;10190,583;  182,677;34271,088;29,35868
 325,17;10024,646;  182,600;34070,232;29,04318
 325,76; 9899,542;  208,370;33980,183;28,69604
 326,36; 9614,509;  162,140;33523,439;28,33333
 326,95; 9491,646;  196,909;33256,528;28,11508
 327,55; 9279,869;  172,601;32885,610;27,83990
 328,14; 9086,425;  180,295;32524,885;27,53515
 328,74; 8905,348;  210,062;32124,517;27,24560
 329,33; 8704,982;  193,525;31744,244;26,97706
 329,92; 8464,287;  173,061;31079,366;26,82697
 330,52; 8200,226;  189,756;30560,953;26,37522
 331,11; 8016,329;  182,447;30156,551;26,13550
 331,71; 7729,270;  190,678;29492,216;25,72763
 332,30; 7573,411;  212,140;29062,957;25,51495
 332,89; 7402,786;  229,679;28588,208;25,29435
 333,49; 7134,734;  195,524;28039,266;24,92197
 334,08; 6963,397;  190,678;27588,411;24,72000
 334,68; 6766,275;  187,216;27199,778;24,35555
 335,27; 6614,641;  205,372;26844,961;24,05919
 335,86; 6498,713;  236,755;26638,397;23,71806
 336,46; 6338,563;  200,372;26340,586;23,48179
 337,05; 6221,153;  191,601;26166,384;23,21310
 337,65; 6086,979;  166,370;25964,208;22,95002
 338,24; 6086,900;  223,217;26016,146;22,73368
 338,83; 5974,119;  211,602;25854,725;22,47198
 339,43; 5880,866;  176,369;25878,725;22,19445
 340,02; 5823,615;  188,446;25735,002;22,05843
 340,61; 5761,758;  182,525;25779,943;21,79608
 341,21; 5677,886;  226,600;25755,517;21,35338
 341,80; 5624,836;  184,370;25715,782;21,30891
 342,40; 5615,368;  183,526;25854,917;21,15913
 342,99; 5527,247;  199,986;25929,901;20,70454
 343,58; 5492,213;  185,525;26089,167;20,48626
 344,18; 5501,662;  193,987;26219,986;20,39374
 344,77; 5504,275;  181,600;26489,404;20,23230
 345,36; 5495,031;  170,524;26754,067;20,02934
 345,96; 5531,157;  207,833;27107,181;19,78979
 346,55; 5500,280;  174,526;27293,100;19,63877
 347,14; 5496,478;  169,756;27558,898;19,44830
 347,74; 5485,219;  151,528;28024,010;19,13605
 348,33; 5576,761;  184,143;28756,291;18,87369
 348,92; 5690,990;  191,913;29284,528;18,90197
 349,52; 5690,611;  166,528;29692,091;18,70949
 350,11; 5711,903;  183,446;29887,278;18,61193
 350,70; 5708,957;  181,601;29977,576;18,55068
 351,29; 5581,460;  165,598;29773,027;18,29224
 351,89; 5560,892;  189,061;29860,235;18,10455
 352,48; 5480,155;  166,294;29695,595;17,99521
 353,07; 5476,552;  193,680;29679,002;17,91696
 353,67; 5429,681;  201,067;29651,315;17,75406
 354,26; 5323,258;  186,680;29352,328;17,61174
 354,85; 5278,637;  190,987;29271,922;17,49480
 355,45; 5199,674;  167,908;29071,181;17,40898
 356,04; 5171,616;  187,680;29098,051;17,23927
 356,63; 5127,415;  211,293;28694,153;17,25993
 357,22; 5055,134;  187,368;28654,898;17,09936
 357,82; 5013,710;  192,676;28523,825;17,01673
 358,41; 5020,840;  196,063;28371,206;17,12423
 359,00; 4935,876;  182,600;28186,847;16,97341
 359,60; 4915,889;  191,525;28141,716;16,90280
 360,19; 4870,032;  187,065;27957,205;16,86332
 360,78; 4828,649;  192,447;27765,040;16,81453
 361,37; 4791,154;  181,755;27625,452;16,79584
 361,97; 4771,248;  187,216;27532,356;16,76361
 362,56; 4685,848;  176,677;27104,821;16,74520
 363,15; 4690,859;  215,601;26925,095;16,75531
 363,74; 4648,569;  189,676;26618,927;16,87105
 364,34; 4615,130;  220,754;26284,775;16,85993
 364,93; 4507,762;  181,907;25807,297;16,88113
 365,52; 4440,406;  150,832;25444,167;16,95931
 366,11; 4418,272;  189,293;25161,508;16,93474
 366,71; 4332,360;  176,908;24765,784;16,89972
 367,30; 4325,317;  186,678;24437,899;17,06569
 367,89; 4331,506;  227,141;24259,388;17,07857
 368,48; 4287,348;  206,061;23956,519;17,18403
 369,07; 4242,418;  197,909;23527,192;17,33662
 369,67; 4216,159;  212,754;23270,487;17,36253
 370,26; 4178,890;  175,602;22985,630;17,55056
 370,85; 4135,703;  187,447;22741,275;17,50592
 371,44; 4130,721;  183,832;22530,315;17,66224
 372,03; 4109,987;  165,369;22359,743;17,77305
 372,63; 4074,393;  163,601;21974,908;17,93011
 373,22; 4075,914;  178,371;21710,540;18,10103
 373,81; 4003,153;  169,832;21369,692;18,08183
 374,40; 4021,205;  179,141;21191,469;18,28481
 374,99; 4018,420;  182,293;20946,407;18,47479
 375,59; 3958,987;  174,525;20635,804;18,49573
 376,18; 4054,518;  210,908;20572,968;18,87633
 376,77; 4008,236;  199,370;20281,012;18,96691
 377,36; 4077,285;  211,755;20271,524;19,27007
 377,95; 4006,985;  193,216;20011,761;19,24344
 378,55; 4012,849;  178,064;19801,497;19,54187
 379,14; 4062,044;  192,370;19741,171;19,79494
 379,73; 4088,149;  195,908;19691,969;19,96424
 380,32; 4112,336;  196,601;19666,940;20,11128
 380,91; 4095,083;  184,600;19659,632;20,07947
 381,50; 4149,738;  195,446;19508,233;20,47499
 382,10; 4179,105;  173,678;19391,016;20,84278
 382,69; 4173,934;  156,832;19421,728;20,85193
 383,28; 4254,549;  204,139;19306,047;21,20422
 383,87; 4248,296;  191,369;19176,341;21,36915
 384,46; 4272,654;  177,984;19199,309;21,52674
 385,05; 4318,650;  210,677;19173,111;21,66375
 385,64; 4349,733;  194,293;19153,123;21,91823
 386,24; 4389,029;  171,291;19108,408;22,27233
 386,83; 4461,669;  200,906;19125,626;22,51427
 387,42; 4552,666;  202,139;19266,408;22,82032
 388,01; 4632,277;  208,059;19417,625;23,03133
 388,60; 4718,630;  191,291;19735,629;23,16445
 389,19; 4834,560;  169,135;19833,873;23,72483
 389,78; 4935,951;  182,135;20059,963;23,91517
 390,37; 5104,114;  233,214;20570,252;23,95088
 390,96; 5162,491;  195,214;20658,476;24,27412
 391,56; 5244,083;  195,134;20803,875;24,49907
 392,15; 5347,563;  174,597;21089,691;24,73317
 392,74; 5439,352;  162,671;21180,586;25,10563
 393,33; 5581,855;  185,134;21576,771;25,22818
 393,92; 5763,003;  200,978;21935,390;25,59087
 394,51; 5812,779;  181,826;22097,532;25,69369
 395,10; 5965,624;  208,129;22368,729;25,98077
 395,69; 6046,046;  195,745;22392,578;26,35647
 396,28; 6124,254;  208,513;22519,664;26,51473
 396,87; 6193,465;  203,664;22622,717;26,71746
 397,46; 6284,983;  206,970;22752,930;26,95832
 398,06; 6415,232;  220,968;22949,909;27,25276
 398,65; 6492,795;  207,041;22986,304;27,59420
 399,24; 6607,259;  223,117;23235,520;27,74218
 399,83; 6652,758;  196,187;23133,642;28,14859
 400,42; 6765,289;  231,027;23312,897;28,30907
 401,01; 6794,329;  211,020;23466,838;28,30823
 401,60; 6895,747;  223,241;23458,475;28,71719
 402,19; 6958,290;  244,310;23392,011;29,00495
 402,78; 7028,927;  222,606;23440,235;29,31532
 403,37; 6986,160;  220,441;23274,040;29,34778
 403,96; 7033,355;  218,889;23141,847;29,72769
 404,55; 7014,804;  235,029;23039,048;29,73062
 405,14; 7080,045;  209,862;22834,009;30,36660
 405,73; 7126,606;  226,692;22810,321;30,55273
 406,32; 7165,191;  230,451;22740,758;30,80696
 406,91; 7095,009;  223,439;22478,874;30,87592
 407,50; 7073,518;  234,048;22281,577;31,02148
 408,09; 7099,562;  214,505;22020,473;31,57418
 408,68; 7139,718;  226,733;21955,542;31,81484
 409,27; 7101,219;  219,276;21694,054;32,04663
 409,86; 7116,364;  237,823;21621,933;32,16660
 410,45; 7160,477;  258,908;21500,383;32,49101
 411,04; 7185,444;  249,378;21394,366;32,80241
 411,63; 7142,528;  241,235;21145,549;33,01373
 412,22; 7129,693;  248,321;20999,238;33,16177
 412,81; 7061,060;  262,171;20693,005;33,27759
 413,40; 7037,501;  260,790;20386,652;33,67166
 413,99; 7014,928;  297,943;20125,317;33,87733
 414,58; 6875,080;  236,021;19777,255;33,97461
 415,17; 6826,489;  246,709;19475,878;34,21770
 415,76; 6812,028;  242,859;19416,583;34,26131
 416,35; 6812,911;  225,553;19238,504;34,64669
 416,94; 6874,664;  264,629;19292,064;34,73949
 417,53; 6988,770;  247,709;19521,601;34,97509
 418,12; 7068,845;  230,095;19581,001;35,34072
 418,71; 7240,653;  248,790;19924,131;35,53617
 419,30; 7263,499;  248,403;19962,457;35,58424
 419,89; 7381,905;  233,481;20207,007;35,78950
 420,48; 7579,785;  259,406;20394,742;36,35588
 421,07; 7608,312;  253,945;20457,002;36,40225
 421,66; 7624,799;  228,562;20558,819;36,38044
 422,25; 7650,743;  243,720;20474,513;36,61262
 422,84; 7646,104;  268,567;20483,890;36,49478
 423,43; 7592,228;  238,181;20233,819;36,77826
 424,02; 7524,909;  259,335;19981,925;36,83884
 424,60; 7405,611;  239,878;19609,580;36,99454
 425,19; 7336,019;  247,876;19286,044;37,23122
 425,78; 7368,016;  259,107;19256,157;37,42112
 426,37; 7318,969;  268,493;19049,382;37,54069
 426,96; 7302,320;  253,032;18976,178;37,65013
 427,55; 7297,183;  247,727;18795,691;38,00663
 428,14; 7257,353;  225,497;18621,678;38,22454
 428,73; 7233,945;  247,264;18431,843;38,42091
 429,32; 7288,193;  260,185;18434,379;38,67026
 429,91; 7316,943;  266,572;18413,399;38,85181
 430,50; 7281,660;  254,265;18250,305;39,04967
 431,08; 7211,893;  276,113;18093,042;38,92803
 431,67; 7228,721;  310,806;18095,681;38,89774
 432,26; 7177,066;  328,115;17841,605;39,10672
 432,85; 7072,918;  344,038;17573,706;39,05403
 433,44; 6905,387;  352,655;17178,474;38,94450
 434,03; 6855,923;  369,581;16821,561;39,42591
 434,62; 6721,242;  326,655;16469,075;39,61356
 435,21; 6628,563;  345,423;16295,099;39,39353
 435,79; 6576,145;  337,580;16106,116;39,56337
 436,38; 6564,682;  338,582;16042,579;39,64659
 436,97; 6539,699;  334,275;15932,329;39,78332
 437,56; 6479,131;  330,586;15779,839;39,79833
 438,15; 6421,485;  306,046;15654,611;39,84372
 438,74; 6487,842;  317,508;15719,881;40,06093
 439,33; 6514,805;  302,969;15707,869;40,32377
 439,91; 6509,189;  260,432;15743,950;40,35747
 440,50; 6587,692;  308,048;15786,379;40,57055
 441,09; 6633,487;  309,973;15868,264;40,64401
 441,68; 6634,688;  282,283;15887,710;40,70638
 442,27; 6614,173;  265,743;15888,324;40,63624
 442,86; 6649,844;  249,902;15819,201;41,10617
 443,44; 6686,451;  273,978;15920,526;40,98331
 444,03; 6742,953;  311,363;15938,500;41,15655
 444,62; 6649,481;  266,286;15852,685;40,95362
 445,21; 6604,214;  277,132;15697,895;41,02963
 445,80; 6612,695;  301,211;15535,842;41,42853
 446,39; 6525,031;  308,826;15304,871;41,45229
 446,97; 6457,199;  267,213;15166,554;41,54537
 447,56; 6287,752;  271,600;14915,865;41,08197
 448,15; 6278,299;  272,829;14806,482;41,32113
 448,74; 6204,845;  290,060;14441,409;41,79661
 449,33; 6137,450;  275,061;14370,042;41,59203
 449,91; 6041,272;  271,064;14160,501;41,54386
 450,50; 5971,993;  269,217;13986,905;41,57243
 451,09; 5945,802;  285,833;13916,968;41,52236
 451,68; 5935,217;  298,218;13832,820;41,64879
 452,26; 5865,641;  286,912;13740,803;41,46554
 452,85; 5855,408;  274,911;13642,131;41,74763
 453,44; 5854,406;  292,452;13654,754;41,62422
 454,03; 5839,081;  271,374;13603,163;41,76264
 454,61; 5822,754;  258,068;13558,731;41,83766
 455,20; 5932,431;  287,915;13737,189;41,96893
 455,79; 5903,514;  301,529;13726,756;41,72730
 456,38; 5933,988;  293,148;13805,763;41,74500
 456,97; 5966,425;  277,378;13882,633;41,81507
 457,55; 5963,372;  272,764;13880,692;41,81833
 458,14; 5971,837;  305,993;13833,969;41,88242
 458,73; 5923,874;  289,149;13798,130;41,71095
 459,31; 5991,142;  311,997;13868,667;41,89189
 459,90; 5959,477;  324,303;13891,716;41,53462
 460,49; 6041,595;  354,149;13949,532;41,83366
 461,08; 6053,458;  278,844;14079,044;41,84442
 461,66; 6063,726;  286,458;14142,138;41,69603
 462,25; 6124,358;  285,383;14221,508;41,89812
 462,84; 6146,806;  323,690;14247,021;41,82272
 463,43; 6093,568;  260,770;14195,085;41,85924
 464,01; 6113,159;  290,232;14209,403;41,83386
 464,60; 6130,293;  330,308;14153,992;41,95687
 465,19; 5948,227;  265,002;13926,944;41,59896
 465,77; 5979,959;  293,003;13930,158;41,70193
 466,36; 5955,963;  309,847;13888,745;41,58008
 466,95; 5785,267;  301,924;13501,396;41,54214
 467,53; 5692,700;  285,081;13242,512;41,73373
 468,12; 5578,751;  314,312;12987,235;41,54084
 468,71; 5506,598;  297,310;12749,242;41,83517
 469,29; 5386,615;  268,082;12517,745;41,78509
 469,88; 5268,504;  289,237;12300,856;41,45375
 470,47; 5347,203;  337,161;12425,316;41,44588
 471,06; 5290,169;  297,700;12388,429;41,29171
 471,64; 5358,385;  307,699;12453,883;41,58249
 472,23; 5334,508;  283,318;12457,863;41,48977
 472,81; 5360,676;  270,701;12603,579;41,27159
 473,40; 5425,903;  291,549;12710,994;41,34125
 473,99; 5544,001;  367,549;12900,623;41,30234
 474,57; 5525,937;  290,087;12986,650;41,23832
 475,16; 5619,517;  302,702;13150,632;41,38266
 475,75; 5663,423;  317,397;13266,786;41,28400
 476,33; 5692,699;  325,167;13372,406;41,13921
 476,92; 5685,832;  323,703;13401,160;41,00284
 477,51; 5717,378;  321,474;13444,073;41,11917
 478,09; 5683,268;  326,013;13444,562;40,83725
 478,68; 5678,875;  317,782;13379,872;41,04315
 479,27; 5729,993;  332,550;13453,238;41,13689
 479,85; 5677,382;  304,090;13473,189;40,80227
 480,44; 5690,690;  309,552;13619,486;40,42949
 481,02; 6316,804;  311,015;15045,880;40,75904
 481,61; 7039,450;  340,399;16952,352;40,32669
 482,20; 7510,320;  329,554;18054,568;40,51205
 482,78; 7848,211;  358,398;18750,283;40,72346
 483,37; 7995,864;  359,479;19340,123;40,23249
 483,95; 8076,550;  367,402;19544,868;40,19899
 484,54; 8138,178;  386,553;19676,683;40,18441
 485,13; 8103,231;  351,634;19569,904;40,33452
 485,71; 7983,470;  330,941;19445,978;40,03408
 486,30; 7919,898;  362,865;19124,082;40,28008
 486,88; 7729,485;  399,096;18757,900;39,92847
 487,47; 7471,688;  390,711;18039,564;40,12145
 488,05; 7090,315;  375,404;17197,521;39,91716
 488,64; 6549,612;  356,867;15897,462;39,84883
 489,23; 5805,782;  377,943;14048,927;39,70335
 489,81; 5001,775;  376,636;12122,681;39,37614
 490,40; 4762,298;  324,329;11543,372;39,55747
 490,98; 4622,597;  321,868;11331,845;39,06210
 491,57; 4604,097;  337,405;11301,075;38,91664
 492,15; 4573,978;  334,868;11192,881;39,04130
 492,74; 4534,708;  327,097;11134,353;38,93321
 493,32; 4524,829;  338,329;10987,289;39,31370
 493,91; 4419,934;  318,869;10888,774;38,79945
 494,50; 4448,886;  338,102;10880,015;38,99466
 495,08; 4403,349;  312,410;10854,613;38,80536
 495,67; 4391,893;  339,484;10852,413;38,54691
 496,25; 4316,740;  281,947;10677,861;38,81134
 496,84; 4276,445;  289,330;10695,364;38,31541
 497,42; 4281,975;  286,717;10586,131;38,79112
 498,01; 4257,000;  305,484;10542,191;38,60144
 498,59; 4207,323;  261,178;10485,338;38,59627
 499,18; 4154,130;  267,638;10470,358;38,09270
 499,76; 4207,948;  290,947;10417,780;38,67943
 500,35; 4099,217;  294,026;10184,163;38,47461
 500,93; 4085,778;  286,024;10163,480;38,46896
 501,52; 4043,038;  292,024;10117,959;38,17462
 502,10; 4003,784;  290,719;10070,870;37,96532
 502,69; 3889,947;  273,951; 9895,469;37,58239
 503,27; 3843,697;  273,256; 9776,974;37,56889
 503,86; 3819,095;  273,258; 9654,524;37,79700
 504,44; 3746,676;  257,797; 9562,173;37,49718
 505,03; 3670,841;  246,336; 9329,218;37,70284
 505,61; 3632,011;  267,951; 9232,518;37,52619
 506,19; 3577,282;  281,797; 9115,427;37,30612
 506,78; 3490,298;  251,030; 8906,719;37,42357
 507,36; 3447,359;  265,566; 8781,649;37,36217
 507,95; 3378,011;  263,108; 8600,201;37,36198
 508,53; 3316,463;  266,261; 8468,217;37,18872
 509,12; 3249,806;  263,184; 8343,016;36,96391
 509,70; 3199,041;  284,108; 8203,816;36,80607
 510,29; 3133,555;  292,416; 8086,442;36,45278
 510,87; 3038,288;  248,107; 7901,204;36,45819
 511,46; 2992,007;  254,722; 7719,546;36,66911
 512,04; 2931,674;  268,877; 7598,643;36,32854
 512,62; 2882,127;  263,415; 7482,035;36,27719
 513,21; 2824,828;  245,263; 7304,631;36,54103
 513,79; 2773,050;  255,881; 7196,405;36,26770
 514,38; 2676,757;  241,188; 7052,648;35,75693
 514,96; 2685,386;  279,418; 6977,667;35,91935
 515,54; 2614,926;  238,803; 6844,647;35,97001
 516,13; 2596,560;  264,419; 6729,764;36,07141
 516,71; 2531,872;  256,651; 6611,484;35,80301
 517,30; 2490,461;  241,806; 6496,512;35,95141
 517,88; 2439,748;  281,652; 6388,874;35,33678
 518,46; 2389,169;  233,268; 6311,203;35,47094
 519,05; 2373,651;  258,576; 6290,838;35,06271
 519,63; 2359,350;  254,653; 6214,161;35,31662
 520,22; 2350,444;  274,962; 6160,667;35,26310
 520,80; 2263,881;  267,424; 6117,449;34,12733
 521,38; 2305,077;  288,730; 6112,729;34,62134
 521,97; 2255,517;  251,271; 6062,392;34,48984
 522,55; 2260,177;  272,502; 6023,410;34,56281
 523,13; 2212,211;  245,656; 5997,218;34,19167
 523,72; 2227,840;  250,268; 5997,873;34,40689
 524,30; 2277,002;  285,349; 6102,152;34,23965
 524,89; 2252,262;  252,886; 6138,944;33,96800
 525,47; 2286,370;  269,888; 6246,468;33,73974
 526,05; 2297,170;  242,657; 6297,784;33,93013
 526,64; 2328,030;  265,581; 6427,253;33,47223
 527,22; 2373,624;  272,042; 6559,626;33,42431
 527,80; 2429,054;  296,581; 6676,402;33,42527
 528,39; 2398,263;  269,659; 6757,762;32,80781
 528,97; 2439,357;  257,966; 6894,678;32,86855
 529,55; 2517,695;  266,425; 7041,462;33,22889
 530,14; 2582,993;  280,044; 7277,928;32,90922
 530,72; 2574,323;  265,658; 7380,397;32,44905
 531,30; 2608,276;  255,505; 7498,249;32,48452
 531,89; 2637,639;  268,736; 7591,389;32,35033
 532,47; 2694,874;  305,275; 7668,266;32,45419
 533,05; 2677,164;  291,042; 7672,299;32,32677
 533,63; 2708,629;  296,506; 7775,717;32,25103
 534,22; 2687,277;  254,660; 7820,315;32,15342
 534,80; 2696,874;  289,353; 7861,876;31,79284
 535,38; 2745,899;  368,121; 7993,475;31,18253
 535,97; 2696,170;  277,198; 7937,537;31,57787
 536,55; 2720,014;  328,661; 7963,935;31,31981
 537,13; 2681,300;  325,890; 7916,937;31,02878
 537,71; 2728,939;  375,659; 8011,924;30,81717
 538,30; 2725,831;  395,891; 8048,082;30,44800
 538,88; 2746,780;  425,893; 8152,728;30,03672
 539,46; 2822,995;  501,430; 8333,433;29,64203
 540,05; 2840,259;  504,431; 8447,404;29,40748
 540,63; 2916,874;  553,123; 8633,335;29,25357
 541,21; 2970,577;  583,124; 8780,301;29,12530
 541,79; 2947,555;  638,816; 8958,365;27,75077
 542,38; 3019,207;  656,739; 9099,237;27,98305
 542,96; 3038,727;  677,433; 9231,873;27,60314
 543,54; 3125,458;  678,893; 9416,334;28,00094
 544,12; 3134,453;  648,124; 9561,771;27,89350
 544,70; 3134,242;  629,433; 9644,262;27,78543
 545,29; 3173,492;  637,892; 9802,617;27,66695
 545,87; 3146,786;  627,355; 9826,442;27,38784
 546,45; 3142,801;  559,738; 9782,060;28,00881
 547,03; 3150,286;  554,739; 9881,362;27,82944
 547,62; 3159,344;  519,970;10033,396;27,74367
 548,20; 3182,070;  508,356;10161,597;27,69758
 548,78; 3217,395;  480,512;10255,562;27,99866
 549,36; 3239,168;  436,666;10491,911;27,87105
 549,94; 3272,757;  398,048;10597,114;28,18600
 550,53; 3301,888;  397,973;10830,094;27,83629
 551,11; 3335,992;  376,436;10998,818;27,86151
 551,69; 3388,235;  385,819;11316,396;27,46804
 552,27; 3453,204;  359,434;11509,860;27,74576
 552,85; 3497,410;  360,666;11837,176;27,33186
 553,44; 3567,565;  353,973;12151,093;27,24048
 554,02; 3678,614;  366,281;12565,603;27,15178
 554,60; 3695,495;  310,667;12796,786;27,10873
 555,18; 3818,377;  346,050;13166,513;27,08425
 555,76; 3896,471;  327,666;13540,033;27,01110
 556,34; 3955,965;  326,668;13929,163;26,68111
 556,93; 4044,101;  311,358;14257,812;26,76482
 557,51; 4060,415;  300,744;14553,665;26,37824
 558,09; 4189,761;  322,512;14936,214;26,46317
 558,67; 4276,293;  327,053;15262,106;26,44276
 559,25; 4336,959;  332,899;15508,063;26,38562
 559,83; 4368,603;  312,515;15873,086;26,06644
 560,41; 4426,959;  305,667;16228,766;25,88247
 561,00; 4498,930;  315,207;16482,120;25,87831
 561,58; 4547,389;  311,436;16729,237;25,80097
 562,16; 4568,871;  304,974;16986,493;25,56060
 562,74; 4682,108;  278,897;17447,277;25,64722
 563,32; 4709,867;  283,130;17796,444;25,27641
 563,90; 4788,689;  306,053;18141,613;25,13314
 564,48; 4844,799;  312,205;18554,215;24,84701
 565,06; 4995,186;  304,053;19163,184;24,87460
 565,65; 5106,299;  307,286;19820,114;24,59415
 566,23; 5304,040;  349,053;20461,409;24,63653
 566,81; 5385,993;  297,283;21267,420;24,26646
 567,39; 5585,730;  305,823;21980,194;24,36014
 567,97; 5693,726;  322,360;22651,935;24,05494
 568,55; 5903,088;  332,592;23414,544;24,13356
 569,13; 6034,490;  307,207;24091,527;24,08008
 569,71; 6188,289;  300,666;25027,927;23,81025
 570,29; 6406,585;  340,589;26006,893;23,63409
 570,87; 6568,842;  331,358;26633,322;23,71490
 571,45; 6658,283;  326,437;27210,283;23,55260
 572,03; 6697,748;  303,670;27631,397;23,39777
 572,61; 6807,110;  301,977;28386,010;23,16310
 573,20; 7002,732;  320,591;28968,566;23,32501
 573,78; 7121,339;  307,823;29651,412;23,21978
 574,36; 7157,245;  323,361;30026,431;23,00733
 574,94; 7253,843;  374,977;30406,676;22,90535
 575,52; 7251,347;  325,671;30646,784;22,84110
 576,10; 7368,719;  390,132;31175,682;22,66838
 576,68; 7457,947;  367,823;31739,646;22,60029
 577,26; 7534,480;  380,057;32271,760;22,43349
 577,84; 7559,156;  390,438;32837,404;22,09365
 578,42; 7646,452;  418,747;33024,815;22,16675
 579,00; 7596,889;  380,823;33226,996;21,96927
 579,58; 7655,821;  414,901;33436,056;21,92812
 580,16; 7598,976;  395,747;33485,806;21,76856
 580,74; 7564,205;  395,594;33619,439;21,57671
 581,32; 7529,598;  388,978;33668,667;21,45639
 581,90; 7522,307;  414,440;33559,656;21,44462
 582,48; 7489,218;  401,670;33812,312;21,21344
 583,06; 7480,051;  412,901;33964,142;21,06375
 583,64; 7474,129;  405,516;33988,124;21,04843
 584,22; 7374,573;  416,518;33820,059;20,83029
 584,80; 7272,364;  419,824;33512,933;20,70685
 585,38; 7157,098;  435,821;33128,679;20,55885
 585,96; 7116,105;  399,054;33273,832;20,43223
 586,54; 7076,072;  417,056;33350,689;20,21950
 587,12; 7010,674;  394,594;33466,981;20,00485
 587,70; 7047,026;  429,285;33575,542;19,96528
 588,28; 7056,630;  400,748;33627,415;20,03175
 588,86; 6963,955;  404,902;33703,781;19,69752
 589,44; 6924,084;  387,596;33804,327;19,56053
 590,02; 6967,552;  398,057;34039,496;19,52799
 590,59; 6948,172;  367,979;34229,540;19,43263
 591,17; 6969,444;  375,059;34360,951;19,40330
 591,75; 6931,723;  365,366;34489,090;19,24279
 592,33; 6948,686;  378,442;34773,616;19,10223
 592,91; 6931,242;  322,212;35003,133;19,05667
 593,49; 6959,296;  337,675;35308,742;18,93457
 594,07; 6971,934;  356,675;35484,669;18,83187
 594,65; 6925,026;  358,979;35567,458;18,64905
 595,23; 6936,169;  355,288;35855,257;18,53771
 595,81; 6984,591;  344,827;35961,875;18,64210
 596,39; 6947,183;  341,673;36184,187;18,42926
 596,97; 6925,297;  352,366;36317,658;18,27576
 597,55; 6904,295;  331,518;36207,384;18,32089
 598,12; 6802,334;  320,137;36068,514;18,13284
 598,70; 6780,292;  328,367;36337,010;17,91771
 599,28; 6787,094;  337,674;36525,377;17,82213
 599,86; 6738,491;  325,520;36508,943;17,72351
 600,44; 6732,419;  297,136;36706,358;17,67487
 601,02; 6679,203;  352,292;36715,274;17,39932
 601,60; 6620,162;  324,750;36643,624;17,33372
 602,18; 6597,896;  306,906;36690,202;17,29087
 602,75; 6554,824;  302,673;36746,550;17,15556
 603,33; 6566,423;  326,136;36774,083;17,12110
 603,91; 6450,620;  316,522;36763,182;16,83034
 604,49; 6524,675;  331,136;36830,182;16,96904
 605,07; 6448,141;  340,443;36880,063;16,71528
 605,65; 6394,185;  353,906;36951,769;16,50446
 606,23; 6422,394;  419,210;37090,468;16,37027
 606,80; 6398,033;  456,211;37144,690;16,19533
 607,38; 6368,152;  510,445;37148,870;15,98788
 607,96; 6378,979;  551,596;37289,233;15,86216
 608,54; 6356,779;  620,136;37268,063;15,65339
 609,12; 6285,373;  613,442;37294,210;15,46296
 609,70; 6313,251;  668,443;37341,273;15,39234
 610,27; 6286,322;  664,211;37314,958;15,33969
 610,85; 6229,681;  666,136;37472,359;15,11577
 611,43; 6221,051;  674,751;37421,350;15,09337
 612,01; 6074,770;  638,442;37164,389;14,88347
 612,59; 6094,394;  646,751;37300,305;14,86252
 613,16; 6025,057;  595,672;37175,381;14,84261
 613,74; 5927,995;  570,290;37044,680;14,68895
 614,32; 5903,943;  531,521;36990,963;14,73534
 614,90; 5841,038;  491,443;36893,401;14,69590
 615,48; 5751,844;  434,210;36582,507;14,71061
 616,05; 5700,433;  410,748;36644,078;14,59895
 616,63; 5645,407;  415,748;36435,496;14,51887
 617,21; 5590,311;  413,365;36356,836;14,40302
 617,79; 5544,457;  394,288;36181,599;14,39105
 618,36; 5482,120;  396,135;36141,434;14,22840
 618,94; 5399,951;  334,211;35768,968;14,29597
 619,52; 5342,020;  371,594;35508,830;14,14575
 620,10; 5287,043;  358,980;35572,437;13,99483
 620,67; 5252,286;  357,902;35415,093;13,96114
 621,25; 5221,920;  389,135;35378,809;13,81203
 621,83; 5116,578;  360,672;35311,397;13,60746
 622,41; 5165,392;  399,134;35318,176;13,64945
 622,98; 5066,968;  358,825;35061,808;13,56697
 623,56; 5030,411;  366,517;35068,153;13,43998
 624,14; 4937,551;  340,905;34925,731;13,29093
 624,72; 4925,227;  352,980;34874,832;13,24450
 625,29; 4871,059;  316,594;34884,442;13,17544
 625,87; 4892,171;  369,981;34859,382;13,11183
 626,45; 4817,854;  332,594;34617,950;13,08215
 627,02; 4755,236;  341,211;34593,123;12,88694
 627,60; 4712,211;  321,598;34492,901;12,84883
 628,18; 4674,989;  315,288;34596,826;12,71734
 628,76; 4627,197;  315,979;34662,134;12,55226
 629,33; 4649,012;  334,287;34607,132;12,58934
 629,91; 4589,735;  328,826;34527,898;12,45914
 630,49; 4597,610;  338,441;34792,698;12,36181
 631,06; 4584,052;  329,133;34793,120;12,34599
 631,64; 4572,775;  345,132;34797,352;12,27103
 632,22; 4467,301;  294,516;34767,635;12,10446
 632,79; 4504,411;  326,209;35036,694;12,03729
 633,37; 4494,759;  309,673;35072,122;12,03910
 633,95; 4459,624;  317,824;35181,941;11,87984
 634,52; 4465,634;  302,441;35231,760;11,91891
 635,10; 4423,617;  294,903;35243,007;11,81384
 635,68; 4443,235;  304,439;35492,142;11,76205
 636,25; 4410,073;  284,284;35477,380;11,72329
 636,83; 4384,966;  279,133;35636,826;11,61228
 637,41; 4361,140;  295,824;35629,862;11,50538
 637,98; 4378,856;  313,593;35981,858;11,39742
 638,56; 4380,452;  300,130;35852,521;11,47693
 639,13; 4322,332;  290,671;36001,247;11,28982
 639,71; 4349,799;  316,441;36174,423;11,24815
 640,29; 4271,960;  262,364;35961,608;11,23160
 640,86; 4284,946;  278,364;36177,102;11,16079
 641,44; 4235,240;  282,133;36150,673;11,02110
 642,02; 4225,457;  303,287;36124,244;10,94937
 642,59; 4230,136;  278,595;36216,507;10,99547
 643,17; 4199,661;  284,441;36222,308;10,89441
 643,74; 4209,801;  283,749;36272,264;10,90918
 644,32; 4140,479;  308,902;36206,450;10,67365
 644,89; 4132,696;  293,287;36213,636;10,68867
 645,47; 4141,759;  316,749;36321,361;10,62367
 646,05; 4078,592;  286,826;36147,855;10,57350
 646,62; 4055,809;  286,056;36127,348;10,51790
 647,20; 4027,949;  300,057;36326,919;10,34754
 647,77; 3964,935;  265,518;36254,259;10,27937
 648,35; 3975,614;  268,749;36051,984;10,35922
 648,92; 3971,446;  293,518;36028,555;10,29222
 649,50; 3885,817;  258,211;36084,433;10,12556
 650,08; 3864,188;  268,595;35998,773;10,06318
 650,65; 3887,636;  279,288;36151,806;10,05881
 651,23; 3907,853;  260,826;37044,146; 9,91489
 651,80; 3987,916;  263,442;37736,101; 9,93918
 652,38; 4023,748;  276,980;38133,056; 9,89740
 652,95; 4016,658;  240,672;38555,396; 9,85518
 653,53; 4086,105;  281,672;38761,506; 9,88682
 654,10; 4089,399;  298,749;38927,538; 9,81302
 654,68; 4004,232;  253,365;38797,340; 9,73140
 655,25; 3987,064;  259,596;38915,295; 9,64274
 655,83; 3952,512;  258,288;38956,866; 9,54615
 656,40; 3987,729;  285,673;38901,975; 9,58677
 656,98; 3950,408;  261,827;38894,007; 9,54795
 657,55; 3953,009;  270,057;38727,809; 9,57662
 658,13; 3869,534;  260,673;38412,611; 9,45918
 658,70; 3824,828;  282,058;38101,027; 9,36771
 659,28; 3745,430;  256,750;37210,521; 9,44066
 659,85; 3610,108;  276,673;36512,323; 9,19932
 660,43; 3635,248;  282,212;36596,201; 9,23346
 661,00; 3620,465;  271,442;36701,926; 9,19291
 661,58; 3615,298;  259,596;37023,035; 9,12782
 662,15; 3606,899;  244,827;37252,452; 9,08481
 662,73; 3698,655;  310,596;37535,485; 9,10159
 663,30; 3654,333;  264,827;37722,825; 9,04882
 663,88; 3650,243;  282,904;37799,857; 8,97551
 664,45; 3655,383;  260,520;38093,889; 8,97320
 665,03; 3662,292;  271,827;38413,306; 8,88918
 665,60; 3743,817;  328,289;38821,877; 8,87298
 666,17; 3700,188;  269,289;38859,371; 8,89062
 666,75; 3739,866;  269,443;39260,711; 8,90051
 667,32; 3718,160;  298,058;39588,897; 8,70458
 667,90; 3709,454;  273,905;39803,160; 8,69116
 668,47; 3751,363;  289,981;40021,731; 8,71188
 669,05; 3777,811;  265,982;40429,763; 8,74377
 669,62; 3718,028;  244,059;40436,873; 8,64326
 670,19; 3703,245;  255,289;40583,828; 8,54967
 670,77; 3735,847;  246,674;40706,399; 8,62382
 671,34; 3733,602;  251,905;40679,047; 8,61228
 671,92; 3758,281;  252,366;40982,233; 8,60772
 672,49; 3728,498;  280,905;40988,265; 8,46921
 673,06; 3709,330;  227,367;41029,990; 8,53368
 673,64; 3715,240;  248,213;41040,330; 8,49926
 674,21; 3667,457;  240,905;40922,978; 8,42276
 674,79; 3754,905;  266,290;41185,856; 8,52554
 675,36; 3747,660;  272,982;41330,658; 8,46292
 675,93; 3682,569;  241,213;41160,844; 8,41004
 676,51; 3730,171;  270,521;41380,107; 8,41568
 677,08; 3709,003;  269,598;41463,678; 8,34927
 677,65; 3680,605;  260,059;41559,095; 8,28239
 678,23; 3718,284;  264,598;41800,127; 8,31502
 678,80; 3694,808;  243,675;41922,621; 8,28028
 679,38; 3695,487;  248,829;41948,807; 8,26537
 679,95; 3742,012;  255,136;42278,070; 8,29755
 680,52; 3753,459;  258,906;42537,410; 8,26556
 681,10; 3797,138;  262,675;42863,366; 8,29673
 681,67; 3795,201;  270,521;43262,706; 8,19842
 682,24; 3799,418;  238,137;43222,892; 8,28499
 682,82; 3830,635;  249,598;43757,539; 8,23077
 683,39; 3871,006;  292,367;44118,033; 8,16562
 683,96; 3863,069;  257,983;44352,912; 8,17574
 684,54; 3850,286;  246,291;44660,329; 8,11454
 685,11; 3936,580;  285,137;45033,746; 8,15990
 685,68; 3935,105;  244,829;45380,317; 8,17600
 686,25; 3906,553;  239,829;45469,580; 8,10688
 686,83; 3935,231;  247,060;45696,612; 8,11487
 687,40; 3951,602;  238,291;46025,875; 8,10986
 687,97; 3994,973;  280,445;46428,754; 8,04911
 688,55; 3963,575;  239,522;46394,555; 8,06857
 689,12; 3976,869;  221,753;46729,357; 8,07420
 689,69; 4000,086;  231,214;46763,158; 8,09954
 690,26; 4008,687;  254,983;46817,114; 8,06171
 690,84; 4009,596;  240,983;47084,992; 8,04503
 691,41; 4035,352;  256,060;47226,948; 8,04603
 691,98; 4034,954;  255,984;47547,518; 7,99080
 692,56; 4036,324;  243,445;47570,012; 8,01427
 693,13; 4100,388;  301,061;47542,352; 8,04239
 693,70; 4071,759;  271,984;47797,000; 7,99532
 694,27; 4058,129;  252,753;47767,186; 8,00889
 694,84; 4061,423;  252,753;47924,295; 7,98940
 695,42; 4096,410;  284,292;48092,174; 7,97383
 695,99; 4123,088;  256,753;48253,745; 8,05537
 696,56; 4111,305;  244,599;48123,931; 8,07594
 697,13; 4161,368;  274,830;48425,579; 8,07160
 697,71; 4101,970;  237,830;48466,919; 8,01205
 698,28; 4168,649;  264,830;48842,874; 8,03618
 698,85; 4141,096;  210,600;48763,753; 8,09525
 699,42; 4179,544;  225,907;49067,631; 8,09479
 699,99; 4194,223;  261,292;49073,510; 8,05727
 700,57; 4176,978;  264,292;49103,080; 8,01143
 701,14; 4206,195;  254,138;49325,036; 8,05377
 701,71; 4234,258;  271,908;49544,991; 8,04161
 702,28; 4272,168;  256,754;49559,716; 8,14437
 702,85; 4280,385;  257,600;49723,517; 8,13244
 703,43; 4343,448;  269,215;49775,473; 8,22973
 704,00; 4343,280;  308,369;50054,659; 8,11098
 704,57; 4340,805;  265,600;50013,230; 8,19176
 705,14; 4370,868;  297,985;50434,878; 8,12353
 705,71; 4406,470;  306,062;50317,679; 8,19891
 706,28; 4381,687;  266,600;50194,173; 8,24211
 706,86; 4416,904;  296,216;50475,821; 8,21188
 707,43; 4440,198;  314,139;50428,699; 8,23325
 708,00; 4387,723;  298,754;50403,270; 8,16088
 708,57; 4428,401;  267,524;50375,225; 8,30387
 709,14; 4456,618;  298,293;50487,642; 8,28527
 709,71; 4469,143;  278,831;50616,752; 8,32436
 710,28; 4507,591;  276,601;50769,553; 8,37937
 710,86; 4524,577;  281,139;50862,509; 8,38933
 711,43; 4589,640;  302,985;50926,618; 8,46769
 712,00; 4567,242;  280,985;50977,419; 8,45475
 712,57; 4591,920;  281,370;51033,759; 8,49330
 713,14; 4599,522;  268,601;51229,484; 8,49852
 713,71; 4599,893;  269,909;51046,901; 8,52745
 714,28; 4624,264;  271,524;51170,933; 8,55165
 714,85; 4629,481;  254,447;50922,350; 8,63472
 715,42; 4652,236;  260,678;51102,460; 8,63770
 716,00; 4710,530;  316,370;51262,723; 8,62507
 716,57; 4693,286;  261,293;51408,524; 8,66517
 717,14; 4671,887;  254,294;51230,941; 8,66592
 717,71; 4683,873;  242,601;51354,127; 8,68938
 718,28; 4751,398;  285,986;51408,006; 8,73481
 718,85; 4724,077;  249,909;51506,807; 8,72891
 719,42; 4806,986;  269,448;51618,763; 8,83661
 719,99; 4769,049;  253,140;51404,795; 8,82847
 720,56; 4821,420;  265,371;51520,366; 8,88899
 721,13; 4848,176;  252,371;51787,860; 8,91775
 721,70; 4846,854;  249,525;51651,354; 8,94390
 722,27; 4862,687;  274,679;51660,925; 8,92847
 722,84; 4954,980;  310,756;51754,803; 9,02772
 723,41; 4921,505;  232,525;51856,066; 9,08303
 723,98; 4948,415;  264,448;52054,868; 9,04408
 724,55; 4973,324;  292,679;52153,439; 9,02541
 725,12; 4968,002;  216,217;52005,394; 9,17525
 725,69; 5023,373;  257,140;52219,272; 9,17251
 726,27; 5081,898;  257,525;52357,074; 9,25991
 726,84; 5099,961;  255,987;52597,952; 9,25448
 727,41; 5139,794;  272,602;52502,677; 9,31875
 727,98; 5187,626;  287,987;52885,940; 9,31527
 728,55; 5219,305;  298,371;52814,434; 9,37034
 729,12; 5219,522;  253,448;52960,928; 9,42195
 729,69; 5266,662;  280,064;52973,653; 9,46339
 730,26; 5296,571;  271,756;53207,762; 9,49224
 730,82; 5302,480;  263,295;53088,871; 9,53929
 731,39; 5344,620;  256,526;53189,057; 9,61242
 731,96; 5386,991;  250,372;53522,859; 9,64216
 732,53; 5414,362;  268,526;53787,430; 9,61499
 733,10; 5479,195;  270,218;53792,154; 9,73241
 733,67; 5508,950;  279,680;53982,417; 9,73744
 734,24; 5477,321;  269,449;53733,065; 9,74096
 734,81; 5534,846;  291,757;53798,251; 9,79898
 735,38; 5519,832;  274,218;53583,361; 9,83999
 735,95; 5557,587;  268,064;53532,778; 9,93063
 736,52; 5599,189;  297,603;53557,656; 9,95415
 737,09; 5607,714;  284,218;53334,611;10,03479
 737,66; 5669,315;  314,757;53578,644;10,05289
 738,23; 5685,071;  267,757;53597,368;10,15817
 738,80; 5797,826;  322,065;53833,478;10,23289
 739,37; 5747,120;  293,142;54041,279;10,14729
 739,94; 5793,491;  281,757;53942,696;10,27141
 740,51; 5844,862;  377,988;54110,729;10,17420
 741,07; 5819,771;  273,296;54000,453;10,32341
 741,64; 5906,988;  303,296;54186,947;10,39962
 742,21; 5934,359;  272,065;54216,518;10,49653
 742,78; 5885,269;  255,065;54108,858;10,45461
 743,35; 5938,716;  270,296;54338,813;10,48377
 743,92; 6032,241;  305,373;54499,615;10,56730
 744,49; 6061,535;  283,527;54360,186;10,68485
 745,06; 6051,521;  267,681;54364,372;10,69167
 745,63; 6094,123;  250,604;54382,250;10,79501
 746,19; 6107,571;  265,296;54464,360;10,77929
 746,76; 6106,018;  272,142;54306,084;10,79669
 747,33; 6137,082;  277,065;54334,501;10,84035
 747,90; 6230,683;  278,065;54608,841;10,95625
 748,47; 6289,054;  280,604;54377,258;11,10688
 749,04; 6293,040;  281,681;54557,521;11,07557
 749,61; 6324,027;  289,989;54406,554;11,15008
 750,17; 6333,628;  279,758;54577,740;11,14935
 750,74; 6350,461;  288,450;54354,926;11,21214
 751,31; 6344,293;  260,143;54384,343;11,24109
 751,88; 6349,741;  245,758;54195,452;11,31421
 752,45; 6432,573;  265,527;54390,715;11,39404
 753,02; 6445,406;  277,758;54151,978;11,44824
 753,58; 6452,007;  268,297;54093,242;11,48856
 754,15; 6531,686;  268,451;54235,043;11,60576
 754,72; 6534,826;  265,143;54019,152;11,66366
 755,29; 6479,812;  257,297;53811,108;11,61918
 755,86; 6611,029;  283,912;54123,602;11,75177
 756,42; 6620,477;  275,912;53781,403;11,85778
 756,99; 6634,002;  244,297;53828,359;11,92464
 757,56; 6657,834;  263,374;53923,160;11,91667
 758,13; 6660,051;  219,374;53770,500;12,02716
 758,70; 6724,422;  245,759;53860,148;12,08381
 759,26; 6741,870;  233,836;53954,565;12,11457
 759,83; 6803,472;  247,220;54011,982;12,19433
 760,40; 6834,612;  224,297;53777,399;12,34348
 760,97; 6821,059;  218,913;53793,893;12,32319
 761,53; 6817,123;  205,682;53397,387;12,42946
 762,10; 6852,570;  211,144;53468,188;12,47051
 762,67; 6906,634;  243,759;53467,374;12,51864
 763,24; 6899,697;  195,682;53005,176;12,69471
 763,80; 6950,606;  234,913;53160,439;12,68895
 764,37; 6937,746;  234,144;53022,010;12,69913
 764,94; 6942,117;  210,759;52576,042;12,85462
 765,50; 6958,103;  224,221;52683,536;12,83639
 766,07; 7031,474;  269,759;52625,491;12,91495
 766,64; 6992,845;  238,606;52424,908;12,94255
 767,21; 7002,908;  233,529;52302,018;13,00091
 767,77; 7085,971;  259,144;52195,742;13,14454
 768,34; 7094,035;  270,683;52138,082;13,15538
 768,91; 7111,021;  266,760;52028,807;13,22255
 769,47; 7174,084;  251,144;51995,762;13,37905
 770,04; 7183,224;  257,298;51769,256;13,44528
 770,61; 7163,287;  240,529;51665,212;13,46194
 771,18; 7187,581;  235,606;51534,782;13,55183
 771,74; 7269,106;  257,991;51698,507;13,62956
 772,31; 7280,246;  261,068;51484,232;13,70313
 772,88; 7259,540;  230,837;51220,879;13,78446
 773,44; 7291,680;  231,837;51145,681;13,86625
 774,01; 7376,974;  253,683;51149,252;13,99590
 774,58; 7340,883;  240,222;50907,515;14,01429
 775,14; 7418,254;  238,068;51031,547;14,13604
 775,71; 7452,702;  228,145;50928,118;14,24963
 776,27; 7521,304;  288,068;50783,612;14,32450
 776,84; 7531,367;  308,068;50934,106;14,26795
 777,41; 7547,815;  248,914;50667,984;14,47647
 777,97; 7532,032;  248,991;50343,555;14,53858
 778,54; 7572,172;  251,453;50408,972;14,59546
 779,11; 7668,773;  274,761;50474,158;14,72929
 779,67; 7660,298;  242,068;50165,575;14,85919
 780,24; 7667,438;  257,838;50133,915;14,85602
 780,80; 7718,963;  273,607;50101,101;14,94226
 781,37; 7751,334;  264,299;50086,980;15,02736
 781,94; 7724,166;  253,376;49797,551;15,07905
 782,50; 7777,614;  258,299;49856,968;15,16032
 783,07; 7804,446;  278,376;49910,154;15,16381
 783,63; 7758,663;  240,453;49566,878;15,24175
 784,20; 7857,880;  270,838;49574,449;15,38841
 784,77; 7813,174;  258,223;49323,712;15,39769
 785,33; 7829,776;  234,453;49128,437;15,53427
 785,90; 7876,301;  248,300;49069,623;15,62432
 786,46; 7912,979;  284,761;49062,655;15,63868
 787,03; 7887,504;  247,069;48944,842;15,68950
 787,59; 7930,798;  252,992;48707,566;15,84537
 788,16; 7943,553;  269,992;48647,137;15,86196
 788,73; 7955,386;  258,915;48501,093;15,95382
 789,29; 7923,834;  246,300;48215,817;16,00503
 789,86; 7964,512;  269,531;48104,773;16,08643
 790,42; 7967,575;  268,146;48012,959;16,12621
 790,99; 7952,331;  272,608;47702,914;16,19159
 791,55; 7964,086;  256,454;47772,485;16,22112
 792,12; 8011,611;  271,839;47628,594;16,34354
 792,68; 7980,828;  255,762;47306,857;16,41846
 793,25; 8045,353;  265,608;47127,890;16,60129
 793,81; 8038,724;  304,531;46737,537;16,65667
 794,38; 7989,402;  231,070;46558,647;16,74668
 794,94; 8018,004;  244,377;46368,987;16,85353
 795,51; 8030,067;  271,762;46245,173;16,87563
 796,07; 7975,207;  262,454;45894,359;16,90211
 796,64; 8088,424;  273,608;46060,468;17,06781
 797,20; 8006,949;  269,070;45523,578;17,09858
 797,77; 7994,781;  241,685;45244,610;17,22798
 798,33; 8018,306;  250,378;45137,104;17,30562
 798,90; 8108,369;  288,224;45068,982;17,46318
 799,46; 8013,432;  258,147;44610,092;17,48578
 800,03; 8051,803;  265,455;44569,585;17,57477
 800,59; 8085,174;  283,070;44394,233;17,68737
 801,15; 8067,468;  273,532;44187,189;17,74832
 801,72; 8036,993;  274,224;43833,452;17,82118
 802,28; 8060,517;  288,301;43487,407;17,99161
 802,85; 8024,888;  249,378;43292,055;18,06465
 803,41; 8078,336;  255,994;43274,472;18,18368
 803,98; 8072,245;  260,917;42855,196;18,33891
 804,54; 8000,309;  255,532;42619,383;18,28157
 805,11; 8065,295;  262,378;42306,569;18,55885
 805,67; 8106,896;  282,840;42294,909;18,62335
 806,23; 8053,883;  266,378;41889,172;18,70971
 806,80; 8078,484;  289,148;41730,589;18,79601
 807,36; 8108,932;  286,763;41696,775;18,88956
 807,93; 8145,995;  298,609;41511,730;19,04099
 808,49; 8096,366;  269,532;41013,455;19,20982
 809,05; 8105,660;  238,763;40984,564;19,30726
 809,62; 8146,954;  278,686;40913,443;19,36339
 810,18; 8185,556;  280,763;40702,937;19,55558
 810,74; 8114,234;  261,687;40483,431;19,52314
 811,31; 8135,067;  259,610;40341,232;19,64855
 811,87; 8193,438;  273,225;40124,803;19,87428
 812,44; 8232,962;  288,917;40086,374;19,96119
 813,00; 8185,564;  228,994;39814,945;20,09948
 813,56; 8284,396;  272,456;39984,438;20,17512
 814,13; 8305,459;  259,071;39753,163;20,37365
 814,69; 8231,523;  265,841;39619,657;20,24119
 815,25; 8219,663;  229,841;39284,535;20,45803
 815,82; 8296,726;  270,687;39224,645;20,60391
 816,38; 8293,174;  281,379;39040,908;20,67052
 816,94; 8221,083;  238,302;38741,325;20,73287
 817,51; 8247,454;  232,841;38578,203;20,90113
 818,07; 8221,363;  241,610;38295,312;20,96972
 818,63; 8213,119;  272,841;38058,576;21,01396
 819,20; 8225,874;  256,918;38115,531;21,04926
 819,76; 8148,784;  240,687;37663,333;21,13185
 820,32; 8222,462;  280,995;37572,903;21,29542
 820,89; 8218,141;  268,687;37417,320;21,39905
 821,45; 8175,358;  242,611;37063,583;21,54410
 822,01; 8135,344;  268,841;36843,770;21,50791
 822,57; 8185,022;  267,688;36750,110;21,70178
 823,14; 8119,086;  230,918;36528,988;21,73164
 823,70; 8087,764;  243,995;36245,713;21,78721
 824,26; 8111,289;  243,380;36012,361;21,99646
 824,82; 8141,121;  267,380;35928,162;22,07955
 825,39; 8113,877;  247,688;35744,271;22,16041
 825,95; 8164,094;  271,688;35715,688;22,26725
 826,51; 8118,619;  261,226;35295,259;22,42788
 827,08; 8171,066;  304,226;35264,676;22,50211
 827,64; 8171,976;  275,380;35174,939;22,62663
 828,20; 8104,654;  250,073;34862,433;22,69300
 828,76; 8158,025;  266,765;34910,927;22,77804
 829,32; 8106,781;  282,919;34701,959;22,73120
 829,89; 8094,613;  230,919;34652,068;22,84553
 830,45; 8153,522;  255,919;34603,793;22,99299
 831,01; 8158,816;  252,227;34279,364;23,23613
 831,57; 8173,572;  252,996;34293,704;23,26795
 832,14; 8198,943;  240,919;34279,121;23,37968
 832,70; 8106,313;  242,304;34071,846;23,24598
 833,26; 8177,607;  218,842;33973,263;23,57844
 833,82; 8179,517;  252,689;33848,449;23,59473
 834,38; 8192,195;  243,381;33890,096;23,62434
 834,95; 8190,566;  236,381;33812,898;23,68973
 835,51; 8186,091;  216,612;33580,700;23,88640
 836,07; 8233,616;  247,766;33630,886;23,92182
 836,63; 8304,910;  259,843;33640,995;24,10063
 837,19; 8341,203;  252,304;33555,258;24,28883
 837,75; 8284,113;  213,843;33196,906;24,46792
 838,32; 8358,099;  263,997;33413,630;24,41687
 838,88; 8390,855;  267,535;33359,970;24,54736
 839,44; 8419,225;  244,228;33232,618;24,78144
 840,00; 8449,212;  244,458;33178,804;24,91245
 840,56; 8432,044;  235,151;32889,760;25,10180
 841,12; 8459,030;  235,305;32808,484;25,24692
 841,68; 8405,863;  237,997;32550,440;25,27777
 842,25; 8446,003;  230,382;32734,857;25,27535
 842,81; 8392,681;  233,305;32439,581;25,33474
 843,37; 8459,437;  219,151;32435,152;25,57824
 843,93; 8482,885;  242,997;32323,646;25,68492
 844,49; 8541,563;  255,920;32425,140;25,75643
 845,05; 8490,011;  218,228;32255,018;25,81964
 845,61; 8583,997;  255,074;32239,435;26,04061
 846,17; 8570,599;  232,690;32052,852;26,20323
 846,73; 8570,431;  242,767;32043,116;26,18734
 847,29; 8539,110;  212,921;31910,609;26,26750
 847,86; 8591,250;  224,998;31750,872;26,53773
 848,42; 8573,544;  224,690;31668,443;26,55171
 848,98; 8584,376;  247,152;31625,860;26,56969
 849,54; 8634,901;  236,767;31613,508;26,76548
 850,10; 8636,503;  239,152;31439,233;26,91452
 850,66; 8657,720;  228,152;31345,957;27,08921
 851,22; 8602,244;  213,229;31255,528;27,02447
 851,78; 8720,538;  260,536;31354,330;27,20801
 852,34; 8684,140;  247,075;31051,593;27,38905
 852,90; 8668,895;  229,306;31009,087;27,41927
 853,46; 8656,497;  226,152;30673,119;27,68862
 854,02; 8640,022;  240,152;30772,997;27,51093
 854,58; 8642,162;  238,306;30519,645;27,75259
 855,14; 8677,610;  219,383;30443,754;27,98479
 855,70; 8631,904;  205,306;30371,633;27,93379
 856,26; 8700,967;  253,075;30287,358;28,12750
 856,82; 8634,722;  229,998;30126,698;28,11255
 857,38; 8690,324;  250,768;29999,576;28,36939
 857,94; 8669,849;  226,383;29928,531;28,42712
 858,50; 8670,758;  239,845;29747,333;28,57211
 859,06; 8660,360;  220,691;29543,058;28,78236
 859,62; 8692,500;  242,768;29625,167;28,75780
 860,18; 8639,794;  236,922;29430,276;28,78351
 860,74; 8628,626;  205,614;29193,539;29,05697
 861,30; 8599,151;  205,768;29092,341;29,05635
 861,86; 8750,522;  262,537;29095,373;29,43860
 862,42; 8666,816;  234,460;28903,329;29,41293
 862,98; 8758,648;  257,153;28992,438;29,58556
 863,54; 8705,327;  233,230;28736,009;29,72376
 864,10; 8727,928;  238,307;28750,272;29,77564
 864,66; 8698,222;  215,076;28470,150;30,02344
 865,22; 8712,978;  227,615;28394,798;30,12500
 865,78; 8726,041;  239,153;28323,369;30,21942
 866,34; 8747,719;  224,922;28208,401;30,45653
 866,90; 8721,167;  240,692;28124,433;30,41369
 867,45; 8740,461;  244,922;27905,235;30,71382
 868,01; 8764,370;  237,615;27718,729;31,02769
 868,57; 8707,818;  234,615;27588,530;30,97620
 869,13; 8704,958;  222,769;27505,717;31,08971
 869,69; 8738,637;  235,307;27372,672;31,33440
 870,25; 8705,777;  217,153;27262,474;31,38666
 870,81; 8750,840;  234,461;27272,660;31,49758
 871,37; 8765,826;  237,615;27089,769;31,75988
 871,93; 8729,736;  248,077;27011,801;31,69088
 872,49; 8726,799;  252,000;26799,295;31,92340
 873,04; 8715,785;  224,308;26635,405;32,15117
 873,60; 8647,156;  228,846;26498,360;32,04593
 874,16; 8643,142;  235,000;26440,238;32,08573
 874,72; 8675,988;  214,846;26402,777;32,30932
 875,28; 8722,835;  234,615;26296,777;32,56913
 875,84; 8702,450;  239,308;26226,238;32,56692
 876,40; 8709,373;  225,077;26142,085;32,73640
 876,95; 8749,681;  238,692;26137,777;32,86212
 877,51; 8814,988;  265,923;26180,085;32,98994
 878,07; 8814,835;  255,000;26120,085;33,09417
 878,63; 8852,527;  237,846;26144,008;33,25340
 879,19; 8823,373;  246,923;26086,469;33,19118
 879,75; 8896,835;  230,231;26082,854;33,52311
 880,30; 8957,681;  232,231;26160,546;33,65221
 880,86; 9031,835;  270,385;26217,854;33,76611
 881,42; 9008,142;  218,923;26193,931;33,83722
 881,98; 9117,296;  249,538;26328,315;34,00373
 882,54; 9187,296;  238,692;26478,469;34,10320
 883,09; 9281,835;  235,385;26570,546;34,35122
 883,65; 9313,296;  221,231;26572,085;34,50387
 884,21; 9425,142;  251,846;26796,777;34,55762
 884,77; 9435,296;  237,385;26880,546;34,52260
 885,32; 9579,450;  234,692;27073,238;34,81842
 885,88; 9663,219;  265,538;27169,238;34,93081
 886,44; 9785,835;  245,462;27241,162;35,34034
 887,00; 9775,450;  254,231;27225,238;35,30168
 887,56; 9907,758;  237,154;27446,546;35,54142
 888,11; 9960,835;  234,462;27362,700;35,85332
 888,67;10063,219;  266,846;27597,085;35,84445
 889,23;10039,604;  251,308;27608,315;35,77985
 889,79;10065,912;  227,077;27417,777;36,18456
 890,34;10030,065;  244,231;27463,162;35,95231
 890,90;10212,527;  299,462;27543,854;36,38571
 891,46;10152,681;  227,154;27400,008;36,52736
 892,01;10183,219;  256,154;27402,392;36,56884
 892,57;10248,065;  263,615;27359,700;36,84831
 893,13;10199,373;  255,615;27207,315;36,89473
 893,69;10140,988;  233,769;27141,777;36,81885
 894,24;10205,450;  238,231;27038,008;37,19143
 894,80;10210,988;  243,846;26960,700;37,30657
 895,36;10203,988;  245,231;26807,931;37,49151
 895,91;10128,296;  235,538;26657,700;37,44114
 896,47;10135,219;  261,462;26510,392;37,61585
 897,03;10108,373;  226,462;26285,315;37,92151
 897,58;10107,988;  247,308;26221,392;37,96354
 898,14;10053,912;  246,923;26019,315;38,05230
 898,70;10036,835;  219,462;25972,546;38,12115
 899,25;10109,065;  232,000;25878,238;38,51273
 899,81;10053,296;  252,231;25715,854;38,49046
 900,37; 9980,988;  214,846;25516,546;38,59876
 900,92;10068,527;  228,615;25566,085;38,83542
 901,48;10088,604;  239,692;25381,238;39,17385
 902,03; 9977,373;  226,154;25245,777;38,97429
 902,59;10042,219;  228,769;25173,085;39,34143
 903,15;10016,450;  261,385;24992,392;39,44467
 903,70; 9905,835;  233,615;24746,777;39,45725
 904,26; 9935,296;  224,692;24661,777;39,73716
 904,82; 9985,219;  236,615;24542,392;40,10818
 905,37; 9972,065;  239,846;24506,623;40,10512
 905,93; 9908,988;  222,846;24279,931;40,26316
 906,48; 9891,065;  246,462;24322,238;40,05937
 907,04; 9895,296;  253,462;24202,085;40,26050
 907,60; 9915,604;  227,462;23944,392;40,84906
 908,15; 9892,219;  216,077;23927,777;40,80746
 908,71; 9952,681;  250,846;23870,546;41,07518
 909,26; 9875,296;  224,000;23723,777;41,06974
 909,82; 9931,065;  246,385;23658,392;41,36630
 910,37; 9914,835;  271,769;23523,162;41,47307
 910,93; 9818,912;  225,615;23346,546;41,49183
 911,48; 9868,912;  222,385;23146,469;42,08031
 912,04; 9836,142;  213,154;23077,854;42,08666
 912,60; 9884,450;  247,538;23123,931;42,12601
 913,15; 9867,296;  233,385;22918,085;42,46876
 913,71; 9752,835;  222,077;22736,546;42,33170
 914,26; 9787,758;  212,846;22633,162;42,70641
 914,82; 9793,373;  240,308;22603,854;42,71713
 915,37; 9773,373;  227,077;22548,623;42,76718
 915,93; 9715,065;  273,462;22425,854;42,62115
 916,48; 9652,142;  217,615;22260,469;42,80084
 917,04; 9656,296;  247,231;22212,546;42,83601
 917,59; 9653,450;  253,923;22144,392;42,93890
 918,15; 9621,527;  208,308;21948,546;43,29860
 918,70; 9598,142;  227,077;21835,623;43,36740
 919,26; 9593,835;  231,923;21772,315;43,46212
 919,81; 9536,758;  210,308;21575,777;43,65198
 920,37; 9555,296;  225,154;21543,469;43,76585
 920,92; 9463,065;  247,692;21399,777;43,56721
 921,48; 9434,758;  208,846;21194,085;43,96382
 922,03; 9435,142;  228,462;21221,931;43,85498
 922,59; 9433,835;  227,385;21087,931;44,13331
 923,14; 9392,988;  220,846;20992,854;44,15626
 923,69; 9428,142;  247,846;20867,238;44,52263
 924,25; 9409,758;  240,462;20937,546;44,30236
 924,80; 9364,450;  226,077;20694,238;44,64677
 925,36; 9306,988;  224,692;20585,085;44,60767
 925,91; 9243,604;  229,077;20444,469;44,59239
 926,47; 9236,373;  204,385;20403,162;44,71552
 927,02; 9290,373;  274,769;20326,777;44,96110
 927,57; 9234,681;  220,385;20187,085;45,14665
 928,13; 9208,373;  219,846;20120,469;45,16706
 928,68; 9165,527;  235,308;20018,238;45,14103
 929,24; 9167,065;  204,308;19838,623;45,64843
 929,79; 9089,296;  216,154;19740,931;45,44555
 930,34; 9079,681;  232,231;19633,238;45,60304
 930,90; 9121,988;  216,308;19599,008;45,94654
 931,45; 9144,988;  241,077;19486,623;46,26479
 932,01; 9128,296;  231,846;19449,162;46,29393
 932,56; 9091,912;  246,077;19280,700;46,47234
 933,11; 9079,527;  252,385;19323,854;46,28454
 933,67; 9029,065;  221,769;19088,085;46,68265
 934,22; 9033,527;  231,615;19050,546;46,77158
 934,77; 9023,988;  251,692;18906,700;47,02381
 935,33; 8954,527;  230,308;18791,777;47,00177
 935,88; 8977,758;  245,077;18811,546;47,03469
 936,43; 8928,065;  224,154;18653,392;47,22882
 936,99; 8909,912;  234,615;18521,623;47,43967
 937,54; 8893,758;  211,462;18394,546;47,74930
 938,09; 8896,142;  241,846;18355,623;47,77742
 938,65; 8866,219;  235,538;18186,700;48,07868
 939,20; 8820,912;  219,000;18138,238;48,00378
 939,75; 8815,681;  219,615;18080,854;48,12693
 940,31; 8823,681;  199,308;17964,623;48,54613
 940,86; 8790,681;  233,308;17939,085;48,33097
 941,41; 8855,142;  288,385;17839,315;48,81085
 941,96; 8795,219;  220,154;17704,700;49,04368
 942,52; 8739,219;  225,538;17660,469;48,83117
 943,07; 8665,835;  208,308;17474,162;48,98412
 943,62; 8687,835;  214,308;17405,008;49,29134
 944,18; 8646,604;  197,154;17344,162;49,27653
 944,73; 8689,604;  230,231;17280,238;49,61507
 945,28; 8610,988;  196,385;17055,623;49,91094
 945,83; 8692,604;  224,692;17079,623;50,23997
 946,39; 8676,835;  209,385;17108,392;50,10620
 946,94; 8669,527;  235,000;16976,931;50,37965
 947,49; 8658,681;  221,923;16886,238;50,62769
 948,04; 8652,835;  244,538;16820,008;50,72735
 948,59; 8632,219;  242,615;16741,085;50,85080
 949,15; 8572,296;  212,462;16679,777;50,76623
 949,70; 8539,373;  213,154;16585,085;50,85667
 950,25; 8519,912;  237,231;16530,777;50,83412
 950,80; 8475,988;  192,308;16413,777;51,06616
 951,36; 8474,219;  200,000;16316,238;51,34088
 951,91; 8500,758;  244,385;16268,546;51,52452
 952,46; 8477,296;  200,231;16044,315;52,24073
 953,01; 8456,373;  241,846;16161,238;51,60076
 953,56; 8391,912;  199,846;15988,238;51,88663
 954,11; 8414,912;  233,000;16026,623;51,80516
 954,67; 8407,296;  218,077;15899,777;52,22150
 955,22; 8358,065;  205,615;15739,700;52,48105
 955,77; 8391,835;  242,462;15793,008;52,40570
 956,32; 8362,142;  272,231;15637,777;52,64968
 956,87; 8282,988;  218,385;15552,931;52,59108
 957,42; 8271,450;  221,923;15427,777;52,93703
 957,98; 8249,988;  220,308;15392,315;52,92431
 958,53; 8256,296;  244,538;15321,315;53,13972
 959,08; 8190,988;  211,692;15129,085;53,48989
 959,63; 8170,373;  200,154;15101,162;53,48779
 960,18; 8197,373;  235,000;15038,315;53,78777
 960,73; 8157,142;  225,462;14981,315;53,75277
 961,28; 8132,219;  207,615;14890,238;53,97267
 961,83; 8108,527;  241,538;14894,546;53,68856
 962,39; 8039,988;  202,462;14700,546;54,05905
 962,94; 8020,296;  241,077;14641,469;54,02088
 963,49; 8018,065;  216,385;14574,777;54,33534
 964,04; 7989,912;  232,692;14528,469;54,26231
 964,59; 7917,450;  201,308;14407,854;54,31399
 965,14; 7939,681;  240,154;14360,162;54,52920
 965,69; 7884,219;  227,462;14263,623;54,55022
 966,24; 7834,988;  211,692;14145,777;54,70970
 966,79; 7807,373;  233,615;14038,469;54,86301
 967,34; 7800,912;  202,538;13950,008;55,27107
 967,89; 7732,450;  209,923;13874,008;55,05328
 968,44; 7806,835;  220,769;13830,238;55,74108
 968,99; 7763,527;  230,769;13800,700;55,51066
 969,55; 7756,681;  234,077;13729,931;55,74011
 970,10; 7701,065;  229,000;13630,315;55,75621
 970,65; 7618,835;  246,769;13498,162;55,63238
 971,20; 7630,142;  211,154;13438,623;56,08774
 971,75; 7604,681;  205,077;13323,392;56,40666
 972,30; 7571,065;  225,231;13222,777;56,51709
 972,85; 7547,681;  207,769;13143,392;56,74185
 973,40; 7501,988;  208,077;13015,315;56,95148
 973,95; 7490,527;  227,154;13021,546;56,76997
 974,50; 7504,835;  234,846;12928,700;57,27172
 975,05; 7430,373;  221,769;12875,931;56,96627
 975,60; 7501,527;  238,692;12806,315;57,79004
 976,15; 7432,988;  218,846;12677,238;57,90588
 976,70; 7358,065;  230,231;12611,392;57,57000
 977,25; 7380,835;  226,846;12553,777;58,03544
 977,80; 7285,065;  218,769;12395,392;58,03166
 978,35; 7226,142;  233,462;12258,315;58,15190
 978,89; 7212,758;  208,538;12201,623;58,40215
 979,44; 7191,912;  234,769;12142,315;58,42633
 979,99; 7045,142;  211,923;11950,469;58,21180
 980,54; 7108,988;  258,077;11955,085;58,56978
 981,09; 7043,373;  243,000;11844,162;58,61804
 981,64; 6996,988;  238,308;11658,315;59,18280
 982,19; 7007,604;  272,538;11627,854;59,31201
 982,74; 6878,373;  240,923;11550,162;58,69051
 983,29; 6824,988;  211,538;11407,854;59,06809
 983,84; 6876,681;  235,154;11302,700;60,00903
 984,39; 6813,758;  279,077;11285,777;59,37003
 984,94; 6722,758;  211,077;11122,700;59,67656
 985,49; 6709,758;  251,154;11113,392;59,45923
 986,03; 6652,835;  247,000;11012,238;59,50481
 986,58; 6644,527;  271,692;10888,777;60,02434
 987,13; 6539,758;  239,385;10733,315;60,03826
 987,68; 6512,835;  236,923;10609,777;60,50323
 988,23; 6505,065;  243,231;10575,854;60,60256
 988,78; 6431,681;  226,615;10471,546;60,56718
 989,33; 6369,450;  242,923;10415,700;60,22472
 989,88; 6326,065;  261,308;10353,315;60,09466
 990,42; 6295,912;  231,538;10164,392;61,05368
 990,97; 6216,373;  221,385;10070,700;60,86706
 991,52; 6156,527;  247,692;10075,315;60,12476
 992,07; 6130,373;  260,615; 9953,777;60,55566
 992,62; 6080,988;  243,846; 9853,854;60,74025
 993,17; 6048,065;  247,769; 9746,238;61,06559
 993,71; 5995,065;  243,769; 9647,469;61,15993
 994,26; 5893,527;  215,385; 9519,777;61,02647
 994,81; 5931,912;  251,769; 9474,700;61,58717
 995,36; 5826,758;  230,923; 9357,623;61,31279
 995,91; 5835,988;  241,385; 9275,700;61,92615
 996,45; 5754,450;  236,000; 9172,315;61,75308
 997,00; 5686,527;  209,077; 9043,238;62,00305
 997,55; 5723,527;  240,769; 9003,854;62,56653
 998,10; 5635,681;  263,769; 8884,700;62,31243
 998,65; 5611,758;  234,923; 8792,162;62,83376
 999,19; 5579,527;  260,846; 8694,931;63,06174
 999,74; 5499,835;  263,000; 8599,931;62,81490
1000,29; 5496,373;  248,308; 8570,546;63,06074
1000,84; 5438,681;  230,923; 8426,162;63,54614
1001,38; 5402,450;  239,538; 8338,008;63,75170
1001,93; 5393,296;  251,308; 8267,085;64,14835
1002,48; 5278,681;  222,462; 8080,315;64,34606
1003,03; 5267,988;  240,308; 8108,623;63,89780
1003,57; 5219,988;  248,077; 8002,854;64,11418
1004,12; 5200,296;  263,231; 7947,162;64,25182
1004,67; 5110,604;  232,769; 7803,546;64,42978
1005,22; 5043,373;  215,615; 7653,777;64,90525
1005,76; 4945,604;  215,615; 7521,623;64,74108
1006,31; 4964,065;  257,077; 7516,315;64,84135
1006,86; 4881,373;  227,692; 7404,085;64,84708
1007,40; 4810,604;  210,538; 7266,700;65,19218
1007,95; 4798,912;  237,385; 7181,238;65,69157
1008,50; 4718,527;  232,538; 7069,392;65,61481
1009,04; 4657,296;  245,692; 7044,008;64,89260
1009,59; 4560,604;  256,000; 6894,238;64,84557
1010,14; 4521,988;  225,000; 6764,777;65,70543
1010,68; 4461,835;  232,000; 6654,546;65,85915
1011,23; 4389,988;  219,154; 6594,238;65,42399
1011,78; 4371,988;  245,077; 6509,777;65,87565
1012,32; 4319,988;  242,769; 6404,623;66,16871
1012,87; 4332,835;  252,231; 6356,700;66,84617
1013,42; 4256,604;  222,077; 6255,085;66,87422
1013,96; 4233,681;  254,077; 6277,546;66,06830
1014,51; 4198,758;  195,385; 6130,546;67,45180
1015,06; 4208,604;  209,692; 6177,008;67,01358
1015,60; 4276,373;  285,385; 6213,085;67,32777
1016,15; 4204,527;  227,231; 6184,623;66,76237
1016,69; 4256,142;  242,154; 6201,777;67,35306
1017,24; 4283,681;  216,462; 6206,085;67,90443
1017,79; 4347,450;  253,308; 6275,315;67,98633
1018,33; 4332,373;  222,462; 6263,162;68,03701
1018,88; 4391,373;  246,538; 6325,008;68,18879
1019,42; 4393,604;  229,077; 6319,777;68,37518
1019,97; 4406,527;  221,538; 6344,546;68,34857
1020,51; 4471,604;  245,769; 6384,931;68,83407
1021,06; 4437,450;  220,692; 6308,008;69,27122
1021,61; 4434,142;  205,231; 6305,546;69,32283
1022,15; 4434,065;  195,538; 6273,008;69,74164
1022,70; 4486,988;  229,846; 6280,623;70,35695
1023,24; 4409,681;  211,923; 6214,700;69,93026
1023,79; 4386,604;  229,923; 6210,469;69,50336
1024,33; 4379,988;  223,692; 6147,085;70,16750
1024,88; 4320,681;  235,385; 6041,315;70,36419
1025,42; 4237,527;  228,231; 5945,238;70,12928
1025,97; 4208,604;  228,077; 5875,469;70,48434
1026,51; 4110,219;  190,538; 5764,085;70,32651
1027,06; 4090,296;  225,154; 5705,085;70,53269
1027,60; 4003,604;  232,231; 5607,623;70,15996
1028,15; 3988,681;  239,231; 5557,854;70,49663
1028,69; 3896,758;  195,385; 5436,392;70,62331
1029,24; 3868,988;  214,000; 5380,623;70,74231
1029,78; 3805,835;  214,077; 5279,238;70,91102
1030,33; 3715,912;  192,615; 5191,008;70,48859
1030,87; 3709,219;  230,538; 5133,315;70,95327
1031,42; 3651,373;  204,692; 5054,700;71,06547
1031,96; 3624,604;  226,308; 4975,008;71,56266
1032,51; 3547,758;  213,538; 4874,008;71,54257
1033,05; 3523,988;  219,462; 4845,392;71,43485
1033,60; 3444,681;  192,615; 4727,238;71,71633
1034,14; 3415,373;  208,385; 4673,546;71,82245
1034,69; 3391,835;  217,923; 4597,469;72,47124
1035,23; 3337,065;  221,154; 4559,085;71,82944
1035,77; 3310,681;  218,231; 4518,469;71,91345
1036,32; 3232,988;  192,308; 4423,469;71,86397
1036,86; 3211,758;  221,769; 4368,700;72,10124
1037,41; 3175,681;  228,923; 4288,238;72,59248
1037,95; 3112,296;  199,462; 4246,623;71,97228
1038,50; 3124,758;  212,077; 4158,238;73,81048
1039,04; 3091,219;  229,846; 4140,085;73,17643
1039,58; 2963,604;  210,615; 4031,469;72,05166
1040,13; 2975,065;  230,231; 3986,315;73,07702
1040,67; 2955,681;  254,846; 4011,854;71,88792
1041,21; 2909,681;  241,923; 3924,315;72,44632
1041,76; 2818,835;  202,538; 3810,392;72,51669
1042,30; 2818,219;  220,000; 3806,700;72,44038
1042,85; 2768,681;  220,385; 3697,546;73,28668
1043,39; 2718,604;  212,154; 3680,162;72,27348
1043,93; 2712,219;  242,769; 3638,238;72,72780
1044,48; 2677,142;  230,846; 3574,931;73,15294
1045,02; 2602,912;  217,692; 3498,623;72,69947
1045,56; 2620,681;  245,231; 3499,392;72,99730
1046,11; 2569,758;  223,615; 3456,854;72,56323
1046,65; 2537,681;  226,308; 3389,238;73,07694
1047,19; 2511,758;  219,308; 3301,931;74,36686
1047,74; 2460,065;  209,231; 3273,623;73,45126
1048,28; 2440,219;  223,154; 3233,008;73,66023
1048,82; 2426,373;  249,231; 3230,469;73,02812
1049,37; 2393,450;  237,000; 3152,777;73,95799
1049,91; 2348,065;  219,000; 3104,777;73,77789
1050,45; 2353,296;  241,538; 3113,008;73,54276
1050,99; 2315,219;  218,769; 3041,315;74,27514
1051,54; 2256,988;  217,769; 2970,777;74,07241
1052,08; 2256,296;  246,615; 2950,623;74,32230
1052,62; 2227,373;  235,923; 2906,777;74,56230
1053,16; 2182,373;  213,462; 2842,008;74,90496
1053,71; 2156,988;  222,769; 2851,085;73,59160
1054,25; 2146,373;  225,000; 2780,315;75,19123
1054,79; 2110,681;  231,385; 2743,623;74,80564
1055,33; 2049,604;  206,538; 2673,392;74,71320
1055,88; 2048,296;  238,308; 2671,623;74,38364
1056,42; 2043,219;  245,077; 2661,623;74,40960
1056,96; 2027,988;  234,308; 2607,931;75,56721
1057,50; 1977,681;  229,538; 2554,931;75,17623
1058,05; 1970,142;  234,769; 2524,469;75,79041
1058,59; 1959,835;  249,231; 2500,392;75,98761
1059,13; 1898,758;  214,077; 2420,162;76,36519
1059,67; 1902,142;  228,538; 2431,623;75,96639
1060,21; 1870,835;  228,538; 2343,546;77,64965
1060,76; 1872,450;  241,769; 2354,931;77,16782
1061,30; 1841,681;  250,231; 2311,700;77,19979
1061,84; 1791,065;  218,923; 2284,469;76,11267
1062,38; 1743,988;  213,538; 2219,085;76,31088
1062,92; 1786,681;  270,692; 2244,931;76,78852
1063,46; 1728,912;  254,154; 2172,392;76,88083
1064,01; 1715,604;  232,769; 2151,085;77,29879
1064,55; 1711,835;  237,923; 2116,315;78,46665
1065,09; 1663,219;  210,308; 2061,623;78,47996
1065,63; 1680,373;  253,692; 2083,008;77,98987
1066,17; 1658,219;  258,308; 2062,854;77,57693
1066,71; 1642,450;  254,846; 2018,777;78,66544
1067,25; 1594,912;  241,923; 1979,162;77,88156
1067,80; 1609,142;  243,615; 1971,392;79,03375
1068,34; 1587,758;  254,923; 1962,238;78,06610
1068,88; 1522,681;  227,769; 1913,854;76,79991
1069,42; 1560,912;  266,923; 1930,469;77,78495
1069,96; 1536,296;  234,154; 1873,085;79,45072
1070,50; 1508,142;  269,231; 1887,931;76,53744
1071,04; 1472,296;  224,846; 1808,700;78,76042
1071,58; 1466,604;  224,538; 1798,777;78,89944
1072,12; 1453,450;  234,077; 1800,008;77,86890
1072,66; 1446,912;  236,154; 1769,008;78,98716
1073,21; 1450,604;  259,846; 1760,931;79,32649
1073,75; 1399,296;  236,692; 1754,238;76,61077
1074,29; 1401,527;  248,077; 1706,854;79,06966
1074,83; 1402,065;  258,615; 1711,469;78,70372
1075,37; 1384,912;  254,923; 1671,546;79,76635
1075,91; 1367,296;  254,154; 1649,623;79,76832
1076,45; 1354,219;  244,000; 1636,392;79,73466
1076,99; 1327,681;  251,077; 1618,700;78,72080
1077,53; 1281,681;  234,154; 1581,085;77,77140
1078,07; 1317,450;  246,077; 1586,777;79,91147
1078,61; 1290,604;  233,923; 1538,931;80,97123
1079,15; 1248,988;  239,615; 1518,546;78,92320
1079,69; 1258,912;  251,769; 1502,777;80,50648
1080,23; 1251,758;  256,846; 1526,162;78,38174
1080,77; 1261,296;  271,846; 1518,931;79,34105
1081,31; 1206,681;  236,077; 1457,162;79,48703
1081,85; 1219,296;  248,000; 1442,623;81,30566
1082,39; 1192,065;  238,846; 1421,546;80,59687
1082,93; 1214,450;  245,615; 1414,162;82,90940
1083,47; 1138,604;  225,615; 1391,931;78,27972
1084,01; 1179,912;  245,462; 1414,931;79,90377
1084,55; 1136,296;  240,846; 1370,085;79,29680
1085,09; 1164,604;  261,000; 1385,469;80,35825
1085,63; 1122,450;  251,692; 1340,777;79,95317
1086,17; 1093,373;  230,231; 1314,700;79,59122
1086,71; 1086,988;  237,231; 1303,392;79,70253
1087,24; 1113,604;  265,615; 1305,700;81,53072
1087,78; 1098,219;  255,462; 1288,700;81,56468
1088,32; 1061,681;  235,538; 1232,085;82,90056
1088,86; 1079,681;  256,000; 1265,085;81,62653
1089,40; 1042,835;  245,692; 1235,238;80,55635
1089,94; 1029,988;  211,000; 1202,469;82,60352
1090,48; 1015,373;  243,308; 1206,777;80,13389
1091,02; 1016,219;  249,923; 1196,777;80,93077
1091,56; 1012,835;  244,769; 1180,392;82,09133
1092,10;  990,988;  225,846; 1148,546;82,92428
1092,63; 1007,988;  258,231; 1172,777;81,98139
1093,17;  991,912;  249,231; 1161,392;81,41987
1093,71;  973,219;  235,769; 1123,162;83,10304
1094,25;  971,835;  261,462; 1121,315;82,61556
1094,79;  943,142;  248,154; 1093,392;82,22395
1095,33;  946,065;  237,462; 1096,008;82,53532
1095,87;  934,142;  251,077; 1097,469;80,70317
1096,40;  910,758;  232,923; 1044,315;83,53969
1096,94;  901,835;  246,000; 1058,546;80,71352
1097,48;  899,450;  243,154; 1053,162;81,02345
1098,02;  873,835;  238,923; 1019,777;81,30991
1098,56;  851,912;  219,154;  994,931;81,56439
1099,10;  851,912;  216,538;  992,085;81,92589
1099,63;  830,988;  224,769;  983,623;79,88616
1100,17;  872,373;  249,231;  987,854;84,36540
1100,71;  865,296;  263,308;  991,777;82,63746

