
Integration time [ms]: 120,000
Averaging Nr. [scans]: 13
Smoothing Nr. [pixels]: 0
Data measured with spectrometer [name]: 2009305U1
Wave   ;Sample   ;Dark     ;Reference;Reflectance
[nm]   ;[counts] ;[counts] ;[counts] ;[%]

 175,72;  202,907;  214,011;  210,491; 0,00000
 176,32;  228,327;  234,854;  221,035; 0,00000
 176,92;  248,556;  252,010;  252,105; 0,00000
 177,52;  262,148;  257,703;  269,755;36,87830
 178,12;  235,898;  259,162;  226,222; 0,00000
 178,72;  264,562;  267,700;  262,977; 0,00000
 179,32;  264,234;  267,008;  252,990; 0,00000
 179,92;  254,572;  252,086;  260,981;27,94915
 180,52;  255,768;  237,474;  255,204;103,18313
 181,12;  261,680;  264,779;  246,111; 0,00000
 181,73;  279,256;  271,317;  278,774;106,47322
 182,33;  356,013;  340,858;  349,872;168,12043
 182,93;  282,388;  273,087;  278,576;169,46173
 183,53;  237,296;  244,776;  235,582; 0,00000
 184,13;  249,204;  240,007;  242,458;375,29257
 184,73;  277,303;  276,391;  275,425; 0,00000
 185,33;  269,320;  235,450;  343,179;31,43944
 185,93;  273,528;  251,371;  366,993;19,16328
 186,53;  288,235;  264,296;  383,324;20,11210
 187,13;  315,374;  281,913;  402,614;27,72176
 187,73;  278,480;  244,295;  367,374;27,77518
 188,33;  280,937;  247,370;  376,787;25,93689
 188,93;  287,252;  256,828;  379,932;24,71409
 189,53;  291,885;  255,441;  383,528;28,45259
 190,13;  324,848;  286,282;  413,440;30,32957
 190,73;  264,339;  230,670;  367,501;24,60611
 191,34;  304,998;  264,519;  392,473;31,63530
 191,94;  279,011;  250,061;  358,025;26,81390
 192,54;  294,916;  255,069;  412,450;25,31913
 193,14;  297,634;  270,067;  393,208;22,38646
 193,74;  286,128;  258,913;  388,839;20,94686
 194,34;  289,018;  265,375;  387,456;19,36642
 194,94;  254,335;  225,298;  364,182;20,90789
 195,54;  226,720;  208,066;  338,321;14,32088
 196,14;  266,214;  238,222;  374,307;20,56981
 196,74;  261,951;  230,758;  370,073;22,39044
 197,34;  235,437;  208,454;  361,345;17,64867
 197,94;  258,090;  243,683;  382,730;10,36186
 198,54;  267,813;  244,914;  393,339;15,42777
 199,14;  250,321;  217,916;  394,871;18,31237
 199,74;  240,312;  208,609;  371,590;19,45198
 200,34;  240,324;  197,455;  397,849;21,39218
 200,94;  274,939;  244,838;  422,816;16,91272
 201,54;  262,311;  218,531;  427,054;20,99502
 202,14;  288,398;  237,763;  478,271;21,05338
 202,74;  277,126;  222,455;  491,403;20,32771
 203,34;  256,663;  199,611;  485,145;19,98109
 203,94;  235,583;  171,302;  499,632;19,57809
 204,54;  303,686;  250,990;  582,263;15,90688
 205,14;  255,381;  201,839;  591,288;13,74806
 205,74;  320,759;  250,149;  673,170;16,69184
 206,34;  282,929;  217,610;  685,661;13,95565
 206,94;  296,388;  223,994;  767,684;13,31534
 207,54;  277,205;  195,609;  803,859;13,41477
 208,14;  299,123;  211,917;  871,919;13,21291
 208,74;  313,810;  210,147;  953,332;13,94853
 209,34;  316,481;  211,686; 1030,270;12,80199
 209,94;  353,636;  227,224; 1107,404;14,36209
 210,54;  351,604;  224,456; 1213,557;12,85489
 211,14;  371,963;  219,378; 1305,660;14,04652
 211,73;  382,562;  217,608; 1452,751;13,35502
 212,33;  404,025;  227,377; 1547,098;13,38530
 212,93;  419,521;  212,531; 1631,895;14,58328
 213,53;  398,724;  184,455; 1698,742;14,14985
 214,13;  437,436;  201,765; 1768,735;15,03993
 214,73;  436,245;  205,686; 1818,655;14,29401
 215,33;  407,329;  170,070; 1843,865;14,17488
 215,93;  467,128;  215,533; 1939,797;14,59144
 216,53;  461,215;  171,916; 2008,260;15,75409
 217,13;  543,809;  218,225; 2228,230;16,19813
 217,73;  565,264;  197,226; 2419,695;16,55985
 218,33;  569,722;  167,689; 2608,289;16,47274
 218,93;  643,606;  193,075; 2925,847;16,48621
 219,53;  705,867;  187,919; 3199,315;17,19958
 220,13;  728,491;  160,997; 3492,152;17,03595
 220,73;  826,079;  196,301; 3855,225;17,21211
 221,32;  904,810;  196,224; 4241,486;17,51646
 221,92;  982,886;  194,535; 4611,645;17,84767
 222,52; 1041,757;  175,534; 5028,421;17,84966
 223,12; 1122,422;  188,611; 5452,883;17,73865
 223,72; 1195,336;  193,149; 5839,909;17,74799
 224,32; 1271,111;  201,457; 6225,846;17,75539
 224,92; 1332,000;  187,995; 6528,218;18,04360
 225,52; 1388,379;  204,225; 6824,864;17,88580
 226,12; 1471,339;  197,995; 7150,236;18,31560
 226,72; 1486,009;  170,610; 7430,639;18,11837
 227,31; 1535,590;  166,918; 7784,703;17,96681
 227,91; 1604,562;  199,224; 8174,074;17,62212
 228,51; 1660,893;  190,762; 8542,716;17,60224
 229,11; 1741,054;  200,610; 8901,221;17,70501
 229,71; 1779,804;  190,147; 9201,856;17,63991
 230,31; 1854,470;  176,996; 9611,594;17,78003
 230,91; 1876,486;  180,376; 9901,870;17,44701
 231,51; 1911,537;  172,918;10149,144;17,42763
 232,10; 1953,910;  179,689;10549,763;17,10905
 232,70; 1998,633;  187,529;10728,456;17,18164
 233,30; 2040,695;  211,687;11067,642;16,84796
 233,90; 2045,584;  185,456;11173,783;16,92821
 234,50; 2063,674;  186,380;11254,406;16,96142
 235,10; 2073,769;  185,611;11410,449;16,82125
 235,70; 2086,708;  196,070;11478,618;16,75719
 236,29; 2046,504;  198,301;11520,004;16,32443
 236,89; 2000,432;  177,761;11422,929;16,20848
 237,49; 2004,630;  191,072;11328,499;16,28346
 238,09; 1912,468;  187,917;11123,585;15,76996
 238,69; 1888,743;  216,068;10997,794;15,51399
 239,29; 1815,360;  181,686;10689,070;15,54787
 239,89; 1769,466;  195,299;10454,865;15,34340
 240,48; 1664,895;  185,225;10118,418;14,89622
 241,08; 1595,123;  193,763; 9742,825;14,67537
 241,68; 1576,774;  213,763; 9520,143;14,64598
 242,28; 1490,355;  178,995; 9134,763;14,64263
 242,88; 1486,273;  227,611; 8920,992;14,47839
 243,48; 1426,024;  223,533; 8575,165;14,39828
 244,07; 1384,451;  203,532; 8415,676;14,38016
 244,67; 1366,720;  202,841; 8270,125;14,42715
 245,27; 1363,792;  220,454; 8104,289;14,50231
 245,87; 1372,935;  209,534; 8052,016;14,83460
 246,47; 1368,288;  203,454; 8026,533;14,88971
 247,06; 1347,959;  192,917; 8066,640;14,66957
 247,66; 1401,935;  189,225; 8140,829;15,25114
 248,26; 1467,840;  214,147; 8246,541;15,60796
 248,86; 1494,423;  204,377; 8416,278;15,70947
 249,46; 1531,547;  163,226; 8637,810;16,14617
 250,05; 1636,222;  200,225; 9001,750;16,31532
 250,65; 1736,070;  180,146; 9283,159;17,09240
 251,25; 1853,851;  186,609; 9749,741;17,43406
 251,85; 1991,876;  200,838;10301,961;17,73108
 252,44; 2118,238;  165,147;10896,011;18,20069
 253,04; 2321,156;  199,916;11586,994;18,62848
 253,64; 2442,407;  155,377;12285,600;18,85398
 254,24; 2714,923;  207,379;13194,570;19,30783
 254,84; 2931,931;  178,226;14003,964;19,91724
 255,43; 3186,544;  184,455;14937,800;20,34853
 256,03; 3439,148;  188,992;15838,293;20,76870
 256,63; 3695,398;  193,992;16841,839;21,03219
 257,23; 3920,012;  186,761;17628,321;21,40434
 257,82; 4168,525;  195,299;18538,267;21,66076
 258,42; 4386,124;  162,990;19328,589;22,03497
 259,02; 4677,610;  209,301;20139,462;22,41983
 259,62; 4845,540;  180,221;20731,471;22,70090
 260,21; 5039,332;  194,685;21289,210;22,96637
 260,81; 5210,127;  184,071;21702,030;23,35749
 261,41; 5331,528;  174,606;22078,227;23,54370
 262,01; 5562,231;  221,682;22455,243;24,02022
 262,60; 5617,473;  173,146;22837,551;24,02149
 263,20; 5755,246;  180,300;23017,834;24,41133
 263,80; 5842,608;  212,297;23269,479;24,41890
 264,40; 5926,954;  179,605;23417,988;24,73214
 264,99; 5946,944;  197,605;23557,247;24,61227
 265,59; 6003,072;  173,065;23634,504;24,84931
 266,19; 6110,830;  175,220;23791,813;25,13322
 266,78; 6187,912;  219,527;23890,966;25,21344
 267,38; 6112,117;  190,604;23883,007;24,99330
 267,98; 6187,817;  178,373;23945,249;25,28495
 268,58; 6187,930;  196,219;23961,147;25,21241
 269,17; 6196,812;  181,526;23839,644;25,42589
 269,77; 6186,208;  194,607;23667,926;25,52515
 270,37; 6087,936;  171,759;23642,100;25,20704
 270,96; 6095,201;  220,837;23534,837;25,19672
 271,56; 6008,826;  185,069;23236,441;25,26425
 272,16; 5940,573;  179,683;23018,809;25,22378
 272,75; 5882,802;  201,914;22979,060;24,94118
 273,35; 5829,036;  197,760;22937,037;24,76453
 273,95; 5834,716;  193,144;22835,086;24,91647
 274,54; 5837,214;  178,456;22986,372;24,81050
 275,14; 5883,385;  202,453;23256,121;24,64221
 275,74; 5876,778;  173,606;23292,559;24,66882
 276,33; 5986,772;  226,684;23662,406;24,57824
 276,93; 6040,798;  196,687;23913,182;24,64155
 277,53; 6155,957;  199,608;24534,799;24,47627
 278,12; 6253,145;  170,454;25029,700;24,46853
 278,72; 6385,737;  220,070;25611,676;24,28230
 279,32; 6486,132;  187,070;26204,399;24,21103
 279,91; 6717,240;  181,377;26885,050;24,47552
 280,51; 6790,690;  188,224;27319,345;24,33540
 281,11; 6989,668;  188,762;28027,807;24,42938
 281,70; 7098,244;  172,300;28516,318;24,43529
 282,30; 7275,056;  167,761;29008,980;24,64284
 282,90; 7403,313;  183,530;29518,614;24,61143
 283,49; 7558,027;  205,760;29882,679;24,77436
 284,09; 7690,690;  215,684;30373,638;24,78618
 284,69; 7858,168;  211,147;30792,239;25,00572
 285,28; 7934,007;  202,300;31094,996;25,02762
 285,88; 8145,369;  247,452;31228,136;25,49304
 286,47; 8208,784;  203,684;31397,204;25,66270
 287,07; 8327,142;  224,916;31454,989;25,94367
 287,67; 8464,409;  212,456;31525,935;26,35272
 288,26; 8554,886;  191,070;31458,104;26,74963
 288,86; 8745,048;  185,915;31527,080;27,30956
 289,46; 8880,529;  194,608;31602,333;27,65537
 290,05; 9085,476;  179,994;31644,792;28,30300
 290,65; 9336,514;  188,530;31961,330;28,79187
 291,24; 9538,148;  197,531;32071,772;29,30459
 291,84; 9755,706;  210,376;32187,916;29,85011
 292,44; 9975,525;  197,687;32306,192;30,45249
 293,03;10186,823;  256,993;32436,881;30,85725
 293,63;10309,357;  192,530;32589,832;31,22737
 294,22;10540,685;  223,916;32787,544;31,68188
 294,82;10558,303;  189,298;32749,534;31,84561
 295,41;10597,705;  178,377;32409,549;32,32687
 296,01;10669,406;  233,298;32385,570;32,45838
 296,61;10585,371;  208,916;32144,624;32,49170
 297,20;10553,087;  197,375;31749,385;32,82108
 297,80;10486,736;  208,763;31707,096;32,63021
 298,39;10387,184;  181,530;31272,269;32,82538
 298,99;10338,773;  218,914;31171,619;32,69459
 299,58;10201,806;  210,610;31033,330;32,41504
 300,18;10195,013;  220,225;30806,427;32,61205
 300,78; 9958,578;  199,378;30449,890;32,26127
 301,37; 9922,786;  207,451;30432,521;32,14330
 301,97; 9870,265;  206,454;30430,936;31,97345
 302,56; 9761,752;  188,992;30386,632;31,70036
 303,16; 9686,997;  176,837;30333,084;31,53628
 303,75; 9594,779;  193,763;30285,065;31,24164
 304,35; 9598,491;  186,380;30508,043;31,04088
 304,94; 9584,152;  203,993;30569,558;30,89078
 305,54; 9474,349;  216,608;30541,178;30,52884
 306,13; 9340,105;  174,611;30450,525;30,27322
 306,73; 9179,398;  178,225;30252,904;29,92941
 307,33; 9081,778;  199,994;30222,023;29,58422
 307,92; 9050,164;  201,916;30257,048;29,44006
 308,52; 9014,614;  169,760;30726,910;28,94528
 309,11; 9147,707;  184,221;31172,556;28,92536
 309,71; 9086,171;  163,374;31424,518;28,54277
 310,30; 9107,935;  177,224;31627,643;28,39616
 310,90; 9138,474;  210,300;32022,412;28,06533
 311,49; 9094,211;  194,839;32175,456;27,82739
 312,09; 9025,970;  164,994;32204,056;27,65679
 312,68; 9111,724;  252,685;32703,819;27,29963
 313,28; 8998,549;  169,993;32749,894;27,09817
 313,87; 8966,723;  163,916;32908,745;26,88305
 314,47; 8965,104;  188,298;33239,584;26,55511
 315,06; 8846,172;  169,839;33319,657;26,17309
 315,66; 8849,662;  182,455;33472,056;26,03578
 316,25; 8745,798;  167,299;33362,117;25,84289
 316,85; 8644,670;  169,532;33522,281;25,41061
 317,44; 8579,261;  180,990;33591,852;25,13635
 318,04; 8477,578;  168,299;33530,704;24,90611
 318,63; 8425,107;  172,149;33780,949;24,55594
 319,22; 8351,968;  199,991;33815,029;24,25098
 319,82; 8277,367;  180,300;33826,265;24,06549
 320,41; 8148,966;  206,684;33832,818;23,61937
 321,01; 8088,177;  198,763;34009,304;23,33419
 321,60; 8025,408;  187,454;34014,887;23,17041
 322,20; 7857,975;  179,839;33994,132;22,70678
 322,79; 7862,343;  219,685;34137,856;22,53263
 323,39; 7736,990;  198,610;34160,862;22,19635
 323,98; 7705,426;  167,839;34069,793;22,23349
 324,58; 7582,246;  176,760;34045,955;21,86496
 325,17; 7482,780;  186,914;33877,862;21,65527
 325,76; 7431,929;  211,223;33732,398;21,54073
 326,36; 7258,588;  165,994;33385,708;21,35056
 326,95; 7120,407;  212,531;33068,215;21,02490
 327,55; 6944,035;  180,915;32656,611;20,82517
 328,14; 6829,417;  180,686;32347,296;20,66967
 328,74; 6747,069;  212,915;32037,375;20,53186
 329,33; 6581,641;  201,378;31622,900;20,30539
 329,92; 6414,595;  174,067;31077,948;20,19335
 330,52; 6252,817;  195,994;30413,899;20,04382
 331,11; 6126,964;  191,531;30040,471;19,88490
 331,71; 5961,010;  182,839;29481,743;19,72146
 332,30; 5829,999;  202,300;28987,558;19,55063
 332,89; 5739,532;  234,224;28535,328;19,45262
 333,49; 5576,347;  190,300;28010,722;19,36005
 334,08; 5446,402;  191,915;27613,335;19,16198
 334,68; 5358,607;  195,223;27126,085;19,17274
 335,27; 5285,300;  211,533;26843,055;19,05173
 335,86; 5215,502;  231,915;26509,548;18,96513
 336,46; 5105,572;  202,764;26375,601;18,73243
 337,05; 5017,468;  182,838;26198,842;18,58329
 337,65; 5003,855;  171,300;26069,592;18,65974
 338,24; 5008,529;  225,916;25957,889;18,58626
 338,83; 4942,784;  211,609;25960,928;18,37398
 339,43; 4893,609;  173,607;25897,586;18,34865
 340,02; 4894,954;  182,760;25765,097;18,41971
 340,61; 4876,540;  182,839;25888,382;18,25949
 341,21; 4904,761;  219,838;25863,991;18,26897
 341,80; 4862,445;  185,684;25785,399;18,26880
 342,40; 4870,995;  197,148;25992,092;18,11924
 342,99; 4908,762;  194,993;25933,790;18,31387
 343,58; 4893,256;  187,301;26161,746;18,11763
 344,18; 4956,707;  198,532;26237,792;18,27308
 344,77; 5016,980;  182,683;26542,732;18,33948
 345,36; 5035,714;  170,069;26864,292;18,22733
 345,96; 5168,751;  210,301;27234,220;18,34838
 346,55; 5221,416;  174,918;27441,869;18,50774
 347,14; 5236,200;  161,840;27771,304;18,37906
 347,74; 5352,597;  156,458;28145,362;18,56500
 348,33; 5485,242;  186,689;28707,341;18,57795
 348,92; 5631,798;  195,920;29365,093;18,63569
 349,52; 5670,549;  165,920;29764,897;18,59736
 350,11; 5768,145;  184,606;30038,993;18,70257
 350,70; 5811,258;  177,147;30054,247;18,85763
 351,29; 5751,109;  169,681;29940,415;18,74804
 351,89; 5832,152;  203,913;29866,511;18,97419
 352,48; 5834,977;  165,916;29935,189;19,04333
 353,07; 5882,093;  194,148;29823,556;19,19696
 353,67; 5907,573;  200,997;29713,261;19,33629
 354,26; 5874,755;  198,917;29488,810;19,37814
 354,85; 5877,336;  193,302;29422,646;19,44633
 355,45; 5851,730;  174,684;29183,647;19,56997
 356,04; 5886,621;  173,533;29054,525;19,78148
 356,63; 5874,679;  210,915;28904,684;19,73865
 357,22; 5910,039;  193,605;28869,734;19,93447
 357,82; 5895,894;  193,759;28557,879;20,10334
 358,41; 5922,563;  207,762;28547,116;20,16560
 359,00; 5898,088;  174,607;28296,092;20,35270
 359,60; 5975,050;  194,608;28288,921;20,57513
 360,19; 5966,062;  201,687;28002,597;20,73448
 360,78; 6000,975;  194,530;27936,809;20,92995
 361,37; 5973,042;  194,300;27711,758;21,00028
 361,97; 6036,822;  197,377;27527,653;21,36621
 362,56; 5978,830;  180,299;27236,461;21,43146
 363,15; 6035,976;  225,838;27027,789;21,67804
 363,74; 5989,958;  192,529;26720,347;21,85415
 364,34; 5941,080;  213,530;26316,252;21,94235
 364,93; 5895,807;  189,222;25886,940;22,20658
 365,52; 5790,810;  160,223;25558,163;22,16946
 366,11; 5858,258;  190,530;25238,522;22,62748
 366,71; 5825,660;  190,530;24836,259;22,86453
 367,30; 5772,757;  195,992;24520,356;22,92666
 367,89; 5812,790;  231,994;24276,421;23,21035
 368,48; 5804,478;  191,914;24039,399;23,53524
 369,07; 5726,181;  199,147;23550,247;23,66927
 369,67; 5716,705;  215,375;23316,747;23,81387
 370,26; 5706,932;  192,070;22970,222;24,21119
 370,85; 5720,024;  194,300;22808,426;24,43483
 371,44; 5751,336;  193,531;22547,537;24,86268
 372,03; 5683,943;  169,684;22257,143;24,96557
 372,63; 5664,030;  163,069;21982,440;25,21136
 373,22; 5675,918;  177,531;21741,752;25,49773
 373,81; 5615,084;  160,300;21415,612;25,66316
 374,40; 5603,665;  171,148;21239,725;25,78492
 374,99; 5612,430;  172,992;20929,180;26,20635
 375,59; 5622,522;  176,917;20639,602;26,61237
 376,18; 5648,352;  211,607;20573,354;26,70078
 376,77; 5642,923;  199,531;20440,307;26,89320
 377,36; 5664,819;  214,838;20258,752;27,19020
 377,95; 5635,257;  205,299;20033,619;27,38486
 378,55; 5637,485;  179,917;19882,074;27,70036
 379,14; 5662,802;  196,146;19750,092;27,95679
 379,73; 5716,161;  194,299;19681,440;28,33593
 380,32; 5792,300;  198,762;19774,467;28,57388
 380,91; 5814,971;  174,606;19592,048;29,04793
 381,50; 5853,743;  192,376;19510,641;29,30578
 382,10; 5824,300;  174,916;19439,929;29,32458
 382,69; 5862,290;  156,531;19346,111;29,73363
 383,28; 5927,432;  211,299;19309,219;29,93066
 383,87; 5932,783;  187,684;19220,437;30,18533
 384,46; 5999,123;  181,451;19105,130;30,74282
 385,05; 6046,573;  212,453;19159,596;30,79156
 385,64; 6073,181;  187,299;19117,061;31,09327
 386,24; 6132,834;  162,682;19102,309;31,52202
 386,83; 6223,744;  206,220;19170,224;31,73129
 387,42; 6330,855;  205,684;19213,959;32,22371
 388,01; 6404,816;  203,835;19424,021;32,26286
 388,60; 6534,137;  190,682;19714,984;32,49004
 389,19; 6639,493;  179,294;19877,154;32,79645
 389,78; 6783,102;  180,756;20081,850;33,17579
 390,37; 7045,307;  237,989;20500,938;33,59490
 390,96; 7086,870;  194,067;20605,686;33,76902
 391,56; 7212,169;  186,602;20828,246;34,03589
 392,15; 7369,498;  180,295;21066,263;34,42121
 392,74; 7419,060;  160,599;21195,009;34,50756
 393,33; 7558,506;  190,294;21529,532;34,52894
 393,92; 7805,857;  195,445;21971,070;34,94923
 394,51; 7898,618;  171,678;22011,525;35,38001
 395,10; 8054,450;  212,980;22320,561;35,46960
 395,69; 8172,843;  197,980;22370,861;35,96674
 396,28; 8243,786;  206,671;22541,372;35,98488
 396,87; 8285,973;  206,976;22536,878;36,18017
 397,46; 8385,946;  212,051;22681,522;36,37778
 398,06; 8526,602;  215,202;22883,559;36,66521
 398,65; 8615,621;  205,812;22987,241;36,91519
 399,24; 8722,485;  214,965;23177,174;37,05009
 399,83; 8774,663;  181,341;23191,498;37,34578
 400,42; 8916,945;  227,642;23303,087;37,65606
 401,01; 8976,384;  208,095;23360,851;37,87147
 401,60; 9034,020;  213,699;23426,923;37,99697
 402,19; 9102,983;  236,228;23302,605;38,44017
 402,78; 9133,946;  237,521;23374,864;38,45050
 403,37; 9118,846;  229,585;23262,227;38,59419
 403,96; 9130,093;  229,339;23087,261;38,93947
 404,55; 9178,380;  222,244;23012,735;39,29769
 405,14; 9160,570;  210,382;22907,620;39,43294
 405,73; 9153,577;  225,825;22750,232;39,63590
 406,32; 9199,095;  236,505;22705,050;39,88950
 406,91; 9163,961;  232,721;22386,749;40,31430
 407,50; 9133,364;  221,867;22256,863;40,44247
 408,09; 9037,310;  206,708;22011,041;40,49930
 408,68; 9103,554;  221,012;21957,970;40,86377
 409,27; 9085,590;  202,556;21688,442;41,34358
 409,86; 9055,822;  219,259;21532,125;41,46117
 410,45; 9047,862;  239,038;21510,112;41,41222
 411,04; 9060,197;  249,971;21493,166;41,47317
 411,63; 8956,575;  245,060;21150,964;41,67012
 412,22; 8901,812;  233,610;20948,065;41,84615
 412,81; 8932,716;  252,076;20697,197;42,45825
 413,40; 8768,609;  255,158;20348,179;42,37019
 413,99; 8642,039;  301,233;20118,113;42,08940
 414,58; 8527,405;  221,080;19696,334;42,65066
 415,17; 8423,861;  233,922;19499,762;42,51016
 415,76; 8385,058;  227,841;19327,113;42,70957
 416,35; 8335,327;  215,843;19197,441;42,77555
 416,94; 8400,494;  249,072;19219,494;42,96911
 417,53; 8503,727;  220,076;19349,245;43,30377
 418,12; 8587,247;  219,539;19529,697;43,33319
 418,71; 8782,153;  247,081;19865,270;43,50591
 419,30; 8824,830;  222,078;19975,758;43,55012
 419,89; 8918,455;  222,463;20130,901;43,67993
 420,48; 9070,777;  254,158;20399,802;43,76439
 421,07; 9146,582;  249,236;20499,272;43,93743
 421,66; 9111,916;  219,931;20508,953;43,82658
 422,25; 9186,445;  231,397;20479,076;44,22753
 422,84; 9176,351;  245,705;20448,585;44,20482
 423,43; 9022,035;  227,934;20130,868;44,18495
 424,02; 8986,302;  251,627;19882,953;44,49355
 424,60; 8807,523;  231,094;19474,399;44,56838
 425,19; 8720,547;  240,168;19222,393;44,67536
 425,78; 8729,712;  251,399;19095,114;44,99279
 426,37; 8653,952;  256,632;19052,522;44,67636
 426,96; 8608,789;  233,709;18995,471;44,63909
 427,55; 8619,880;  230,174;18799,755;45,17984
 428,14; 8479,139;  231,021;18600,632;44,90088
 428,73; 8389,106;  244,711;18385,860;44,89460
 429,32; 8411,077;  256,093;18374,449;45,00951
 429,91; 8445,651;  273,096;18409,951;45,06049
 430,50; 8357,974;  254,020;18227,048;45,08953
 431,08; 8268,032;  268,714;18036,209;45,02220
 431,67; 8281,784;  305,793;18056,735;44,93278
 432,26; 8182,461;  316,563;17833,318;44,90500
 432,85; 8074,059;  337,486;17562,660;44,91434
 433,44; 7946,424;  356,873;17172,839;45,13301
 434,03; 7753,665;  354,491;16845,627;44,86759
 434,62; 7580,062;  324,642;16417,436;45,08490
 435,21; 7517,772;  327,794;16185,278;45,34123
 435,79; 7396,666;  324,413;16105,592;44,81448
 436,38; 7389,097;  311,493;15987,757;45,14854
 436,97; 7316,492;  318,493;15888,959;44,94406
 437,56; 7240,155;  320,113;15697,521;45,00136
 438,15; 7213,584;  304,650;15652,858;45,01460
 438,74; 7253,491;  311,727;15625,964;45,32883
 439,33; 7258,287;  289,957;15635,812;45,40855
 439,91; 7210,819;  247,344;15693,001;45,08371
 440,50; 7290,124;  291,344;15760,426;45,24366
 441,09; 7346,801;  299,423;15826,024;45,38906
 441,68; 7336,015;  276,041;15843,795;45,34998
 442,27; 7306,682;  259,271;15816,972;45,29854
 442,86; 7290,113;  242,507;15760,416;45,41596
 443,44; 7347,192;  257,121;15863,457;45,43072
 444,03; 7381,206;  317,353;15933,096;45,23546
 444,62; 7246,881;  252,969;15771,282;45,06877
 445,21; 7215,943;  258,968;15603,276;45,33913
 445,80; 7183,449;  285,817;15537,769;45,22459
 446,39; 7070,270;  306,893;15259,887;45,23092
 446,97; 6963,522;  248,973;15117,031;45,16090
 447,56; 6862,685;  258,822;14881,744;45,16104
 448,15; 6773,129;  257,358;14708,575;45,08805
 448,74; 6668,928;  277,435;14532,033;44,83811
 449,33; 6598,052;  259,591;14381,855;44,88275
 449,91; 6484,413;  268,363;14127,784;44,85072
 450,50; 6432,808;  256,901;13936,125;45,14808
 451,09; 6335,734;  274,670;13823,256;44,73576
 451,68; 6305,423;  276,441;13806,388;44,56028
 452,26; 6256,863;  285,673;13669,188;44,61601
 452,85; 6189,432;  274,672;13602,072;44,38045
 453,44; 6180,572;  276,214;13548,990;44,48473
 454,03; 6171,533;  246,673;13497,682;44,71252
 454,61; 6140,149;  250,984;13505,037;44,43294
 455,20; 6271,777;  275,293;13698,541;44,67237
 455,79; 6235,884;  277,983;13652,470;44,54676
 456,38; 6239,579;  274,910;13745,297;44,27986
 456,97; 6248,427;  262,832;13788,874;44,25238
 457,55; 6230,212;  260,449;13837,587;43,96923
 458,14; 6212,786;  294,293;13814,915;43,77382
 458,73; 6205,942;  281,680;13714,557;44,10270
 459,31; 6193,364;  296,529;13813,654;43,62492
 459,90; 6243,369;  290,758;13818,272;44,00373
 460,49; 6315,389;  351,450;13955,721;43,83873
 461,08; 6281,251;  263,068;14026,081;43,72722
 461,66; 6275,580;  271,067;14062,666;43,53746
 462,25; 6340,122;  279,377;14116,827;43,79958
 462,84; 6372,673;  303,915;14197,590;43,68001
 463,43; 6294,394;  242,072;14152,035;43,51070
 464,01; 6349,999;  276,304;14173,250;43,70525
 464,60; 6328,238;  317,302;14104,271;43,59868
 465,19; 6175,526;  248,458;13829,929;43,64084
 465,77; 6131,966;  276,152;13818,651;43,24028
 466,36; 6136,488;  298,995;13807,157;43,21456
 466,95; 5947,192;  269,303;13465,801;43,02573
 467,53; 5859,276;  265,999;13120,818;43,51113
 468,12; 5755,988;  303,077;12935,455;43,16615
 468,71; 5637,983;  289,766;12720,528;43,02405
 469,29; 5522,187;  261,769;12462,573;43,11534
 469,88; 5361,580;  272,001;12264,044;42,44130
 470,47; 5471,407;  337,696;12320,684;42,84166
 471,06; 5411,593;  282,619;12328,948;42,57707
 471,64; 5439,689;  297,772;12438,032;42,35426
 472,23; 5415,009;  267,468;12412,909;42,38249
 472,81; 5438,949;  255,697;12530,520;42,22670
 473,40; 5478,221;  275,007;12617,038;42,15849
 473,99; 5628,486;  351,776;12868,974;42,15567
 474,57; 5620,112;  274,930;12922,774;42,26160
 475,16; 5650,198;  282,390;13021,408;42,13675
 475,75; 5703,435;  299,162;13219,026;41,82918
 476,33; 5739,217;  311,472;13281,143;41,84952
 476,92; 5765,522;  302,623;13358,503;41,84244
 477,51; 5750,077;  308,932;13445,136;41,42098
 478,09; 5731,837;  294,240;13419,778;41,42761
 478,68; 5701,825;  304,164;13362,918;41,33366
 479,27; 5766,219;  322,162;13398,552;41,63272
 479,85; 5712,118;  291,010;13395,238;41,36915
 480,44; 5707,129;  280,934;13514,284;41,00394
 481,02; 6221,232;  299,166;14890,258;40,58686
 481,61; 6991,200;  328,627;16791,592;40,47007
 482,20; 7446,624;  307,320;17952,021;40,46146
 482,78; 7775,468;  336,164;18747,165;40,40684
 483,37; 7970,303;  331,168;19181,214;40,52582
 483,95; 8097,321;  360,861;19498,872;40,42458
 484,54; 8122,316;  368,858;19706,929;40,09427
 485,13; 8059,528;  336,709;19610,632;40,06875
 485,71; 7953,617;  324,785;19346,645;40,10560
 486,30; 7895,608;  362,016;19083,825;40,23966
 486,88; 7712,710;  393,094;18700,169;39,98245
 487,47; 7474,043;  374,325;18071,129;40,11865
 488,05; 7084,302;  352,480;17169,758;40,02921
 488,64; 6597,350;  351,866;15953,196;40,03174
 489,23; 5919,337;  361,172;14158,845;40,28335
 489,81; 5040,704;  357,173;12161,741;39,67559
 490,40; 4715,895;  314,096;11526,192;39,25937
 490,98; 4656,925;  298,174;11308,263;39,58870
 491,57; 4598,248;  340,942;11203,911;39,19100
 492,15; 4555,244;  309,097;11135,984;39,21854
 492,74; 4510,864;  307,095;11077,048;39,03238
 493,32; 4497,688;  325,097;10976,864;39,17276
 493,91; 4408,076;  310,714;10834,780;38,93326
 494,50; 4391,528;  298,255;10840,332;38,82795
 495,08; 4325,906;  300,255;10785,164;38,39472
 495,67; 4368,115;  309,021;10786,502;38,74112
 496,25; 4270,179;  268,254;10615,216;38,67730
 496,84; 4266,895;  276,790;10577,609;38,73580
 497,42; 4232,066;  260,869;10584,471;38,46716
 498,01; 4188,367;  288,944;10561,658;37,95903
 498,59; 4148,181;  253,793;10434,210;38,25372
 499,18; 4132,919;  263,791;10398,051;38,17869
 499,76; 4080,494;  288,869;10342,133;37,71537
 500,35; 3997,378;  285,871;10129,230;37,70569
 500,93; 3993,880;  261,869;10119,745;37,85816
 501,52; 3970,866;  253,254;10037,370;37,99639
 502,10; 3972,109;  277,026;10058,292;37,77714
 502,69; 3855,877;  264,873; 9867,788;37,39493
 503,27; 3819,637;  246,717; 9738,365;37,64278
 503,86; 3736,534;  262,258; 9683,778;36,87596
 504,44; 3690,696;  239,797; 9545,710;37,08286
 505,03; 3602,559;  237,182; 9315,293;37,07134
 505,61; 3539,173;  246,643; 9187,757;36,82461
 506,19; 3493,715;  269,259; 9027,042;36,81817
 506,78; 3442,411;  232,415; 8888,742;37,08265
 507,36; 3371,365;  244,105; 8713,035;36,92628
 507,95; 3294,077;  242,108; 8589,276;36,56293
 508,53; 3194,540;  244,184; 8456,010;35,92813
 509,12; 3197,750;  255,415; 8346,177;36,36660
 509,70; 3145,518;  271,031; 8164,040;36,41814
 510,29; 3061,739;  265,109; 8054,871;35,90135
 510,87; 2976,429;  235,184; 7870,536;35,90202
 511,46; 2914,652;  239,954; 7731,482;35,70297
 512,04; 2850,529;  252,032; 7561,320;35,55062
 512,62; 2824,719;  255,184; 7416,354;35,88150
 513,21; 2755,309;  240,571; 7270,673;35,77101
 513,79; 2725,344;  235,805; 7148,133;36,01593
 514,38; 2638,142;  213,958; 7017,481;35,63131
 514,96; 2619,419;  262,881; 6925,351;35,37035
 515,54; 2514,774;  226,112; 6757,621;35,04033
 516,13; 2528,086;  249,805; 6727,193;35,17284
 516,71; 2441,984;  239,729; 6619,494;34,51938
 517,30; 2428,903;  237,884; 6475,415;35,12638
 517,88; 2413,828;  259,423; 6415,318;34,99743
 518,46; 2337,689;  239,192; 6278,555;34,74698
 519,05; 2327,509;  246,270; 6242,089;34,71150
 519,63; 2291,142;  253,731; 6210,271;34,20460
 520,22; 2262,370;  264,118; 6145,802;33,97415
 520,80; 2241,615;  241,657; 6089,502;34,19991
 521,38; 2205,506;  270,117; 6038,283;33,55293
 521,97; 2195,512;  249,504; 5990,268;33,89807
 522,55; 2166,384;  262,042; 6003,363;33,16906
 523,13; 2155,482;  218,197; 5979,922;33,62335
 523,72; 2144,767;  237,962; 5996,919;33,11025
 524,30; 2202,492;  265,121; 6118,603;33,09775
 524,89; 2158,141;  226,966; 6066,737;33,06937
 525,47; 2218,724;  259,737; 6228,831;32,81883
 526,05; 2199,745;  217,891; 6252,679;32,84049
 526,64; 2238,341;  249,507; 6357,749;32,55985
 527,22; 2288,485;  252,660; 6508,375;32,54344
 527,80; 2332,677;  280,045; 6594,363;32,50757
 528,39; 2324,346;  252,046; 6668,319;32,29757
 528,97; 2367,115;  249,430; 6866,475;32,00348
 529,55; 2401,977;  266,428; 7027,242;31,58716
 530,14; 2457,166;  272,739; 7183,548;31,60884
 530,72; 2482,567;  251,507; 7257,578;31,84466
 531,30; 2452,256;  230,431; 7432,633;30,84925
 531,89; 2527,069;  255,970; 7539,082;31,18308
 532,47; 2567,914;  291,740; 7590,484;31,18584
 533,05; 2539,224;  270,968; 7713,952;30,47509
 533,63; 2582,063;  290,048; 7722,775;30,83680
 534,22; 2552,114;  243,663; 7745,987;30,76981
 534,80; 2586,789;  284,664; 7824,512;30,53277
 535,38; 2637,167;  347,355; 7905,161;30,29731
 535,97; 2531,554;  261,817; 7892,984;29,74299
 536,55; 2588,435;  315,588; 7965,181;29,71200
 537,13; 2555,515;  321,585; 7858,632;29,63932
 537,71; 2586,578;  353,893; 7955,855;29,36986
 538,30; 2596,899;  377,817; 8017,895;29,04528
 538,88; 2616,458;  420,820; 8103,024;28,58084
 539,46; 2702,046;  478,126; 8345,762;28,26669
 540,05; 2713,339;  488,358; 8432,250;28,00870
 540,63; 2749,304;  537,896; 8601,642;27,42407
 541,21; 2785,373;  572,589; 8769,894;26,99404
 541,79; 2818,570;  606,359; 8848,188;26,84127
 542,38; 2858,248;  642,127; 9037,319;26,39751
 542,96; 2901,054;  653,206; 9214,436;26,25613
 543,54; 2943,838;  677,666; 9375,238;26,05523
 544,12; 2952,241;  649,590; 9532,588;25,92200
 544,70; 2972,333;  631,745; 9606,284;26,08032
 545,29; 3023,948;  626,434; 9729,236;26,33820
 545,87; 2990,263;  614,743; 9737,035;26,04082
 546,45; 2983,635;  569,973; 9822,068;26,08773
 547,03; 2980,408;  541,512; 9883,120;26,10788
 547,62; 3017,687;  494,205; 9992,292;26,56832
 548,20; 3066,211;  507,052;10146,627;26,54846
 548,78; 3055,800;  466,209;10274,288;26,40263
 549,36; 3094,788;  430,978;10394,721;26,73503
 549,94; 3088,253;  389,205;10572,924;26,50355
 550,53; 3128,839;  389,977;10738,146;26,46711
 551,11; 3159,807;  374,132;10949,838;26,34032
 551,69; 3226,114;  366,670;11268,515;26,22899
 552,27; 3228,774;  327,669;11472,391;26,03120
 552,85; 3332,431;  338,748;11863,966;25,97507
 553,44; 3374,337;  334,054;12133,291;25,76677
 554,02; 3451,670;  345,901;12468,942;25,61873
 554,60; 3492,573;  289,594;12718,570;25,77025
 555,18; 3585,446;  322,285;13074,631;25,58871
 555,76; 3627,226;  309,286;13447,218;25,25466
 556,34; 3733,459;  309,057;13842,074;25,30406
 556,93; 3809,308;  300,439;14178,466;25,28363
 557,51; 3849,099;  274,134;14476,498;25,17162
 558,09; 3924,872;  310,670;14837,023;24,88031
 558,67; 3989,664;  301,058;15198,301;24,76033
 559,25; 4079,939;  305,057;15449,809;24,92534
 559,83; 4097,865;  289,443;15778,647;24,58759
 560,41; 4115,235;  293,672;16128,609;24,13374
 561,00; 4190,313;  293,750;16426,544;24,15306
 561,58; 4249,912;  298,749;16679,390;24,12093
 562,16; 4273,857;  285,440;16973,896;23,89926
 562,74; 4339,644;  276,209;17314,693;23,84857
 563,32; 4425,413;  272,135;17738,159;23,77918
 563,90; 4498,373;  287,673;18093,499;23,64788
 564,48; 4590,703;  305,518;18457,836;23,60682
 565,06; 4691,146;  287,288;19075,613;23,43933
 565,65; 4819,840;  289,445;19656,717;23,39202
 566,23; 4990,364;  336,981;20425,448;23,16445
 566,81; 5106,409;  276,288;21002,398;23,30452
 567,39; 5293,346;  292,290;21894,362;23,15082
 567,97; 5388,063;  312,288;22508,907;22,86733
 568,55; 5594,046;  322,828;23293,877;22,94723
 569,13; 5683,389;  296,443;24016,949;22,71008
 569,71; 5845,944;  291,286;24939,408;22,53582
 570,29; 6090,838;  325,978;25746,318;22,67814
 570,87; 6222,333;  322,286;26569,040;22,47915
 571,45; 6289,836;  309,596;27135,710;22,29261
 572,03; 6329,546;  272,059;27443,018;22,29397
 572,61; 6494,577;  275,904;28328,806;22,16766
 573,20; 6618,542;  300,518;28878,165;22,10827
 573,78; 6683,352;  302,443;29474,820;21,87312
 574,36; 6765,342;  303,520;29950,156;21,79614
 574,94; 6849,130;  369,367;30213,213;21,71222
 575,52; 6812,268;  320,369;30537,736;21,48400
 576,10; 6953,358;  361,907;30981,499;21,52691
 576,68; 6997,649;  355,059;31623,345;21,24386
 577,26; 7098,014;  373,985;32256,769;21,08984
 577,84; 7131,254;  379,827;32712,202;20,88132
 578,42; 7179,112;  407,829;33020,570;20,76269
 579,00; 7131,908;  376,135;33029,095;20,68962
 579,58; 7170,907;  404,752;33254,515;20,59727
 580,16; 7132,800;  377,830;33335,092;20,49615
 580,74; 7126,883;  382,907;33507,337;20,35952
 581,32; 7068,125;  376,137;33540,043;20,17853
 581,90; 7043,100;  398,060;33576,483;20,02820
 582,48; 7028,047;  395,522;33604,522;19,97207
 583,06; 6929,025;  396,906;33768,984;19,57361
 583,64; 6940,788;  384,983;33800,585;19,61900
 584,22; 6888,398;  403,600;33708,849;19,47080
 584,80; 6776,291;  414,291;33481,302;19,23972
 585,38; 6650,461;  422,749;33106,746;19,05431
 585,96; 6598,903;  386,982;33164,848;18,95157
 586,54; 6587,395;  402,754;33248,641;18,82927
 587,12; 6559,142;  385,215;33360,103;18,72312
 587,70; 6542,447;  410,136;33465,708;18,55152
 588,28; 6514,613;  390,753;33453,692;18,52183
 588,86; 6507,854;  386,600;33685,663;18,38266
 589,44; 6480,512;  372,678;33715,469;18,31830
 590,02; 6510,145;  376,601;33922,343;18,28412
 590,59; 6479,234;  361,061;34107,262;18,12996
 591,17; 6439,631;  357,757;34262,814;17,93796
 591,75; 6470,362;  356,064;34345,136;17,98901
 592,33; 6446,850;  368,679;34627,138;17,74210
 592,91; 6435,836;  305,603;34796,008;17,77374
 593,49; 6472,282;  330,066;35057,440;17,68696
 594,07; 6465,966;  350,527;35296,446;17,49972
 594,65; 6450,837;  346,292;35351,482;17,43897
 595,23; 6494,642;  342,062;35692,797;17,40439
 595,81; 6475,497;  329,909;35827,020;17,31292
 596,39; 6458,853;  322,063;35958,252;17,22067
 596,97; 6462,110;  327,680;36203,457;17,09909
 597,55; 6412,384;  322,524;36069,089;17,03621
 598,12; 6358,752;  312,604;36040,277;16,92287
 598,70; 6345,087;  309,296;36141,723;16,84449
 599,28; 6325,984;  336,065;36318,165;16,64694
 599,86; 6302,225;  310,526;36300,350;16,64831
 600,44; 6230,840;  292,912;36473,906;16,41173
 601,02; 6288,885;  335,145;36531,305;16,44854
 601,60; 6208,293;  307,449;36567,438;16,27371
 602,18; 6159,472;  293,681;36546,584;16,18020
 602,75; 6135,875;  294,063;36644,544;16,07080
 603,33; 6126,018;  306,527;36620,332;16,02556
 603,91; 6040,883;  293,298;36534,464;15,85927
 604,49; 6071,093;  311,219;36607,045;15,86925
 605,07; 6016,371;  320,756;36635,880;15,68387
 605,65; 6009,657;  336,681;36841,312;15,54043
 606,23; 5968,016;  400,984;36980,119;15,21914
 606,80; 5941,072;  453,755;36928,531;15,04414
 607,38; 5916,239;  481,220;37050,467;14,86227
 607,96; 5962,295;  541,601;37115,845;14,82107
 608,54; 5904,623;  612,989;37133,760;14,48938
 609,12; 5891,585;  597,371;37147,512;14,48480
 609,70; 5893,782;  649,680;37186,760;14,35282
 610,27; 5789,837;  655,293;37300,266;14,01159
 610,85; 5822,383;  680,295;37345,002;14,02462
 611,43; 5791,685;  661,680;37253,447;14,01956
 612,01; 5657,725;  626,679;37029,980;13,82030
 612,59; 5671,304;  625,065;37102,484;13,83387
 613,16; 5608,124;  599,523;37003,631;13,75834
 613,74; 5569,068;  567,911;36974,544;13,73694
 614,32; 5555,681;  537,450;36891,889;13,80363
 614,90; 5512,775;  471,295;36804,363;13,87574
 615,48; 5445,555;  420,062;36445,288;13,94993
 616,05; 5421,752;  403,446;36359,949;13,95660
 616,63; 5350,796;  405,676;36269,534;13,78859
 617,21; 5286,359;  403,216;36128,836;13,66846
 617,79; 5245,767;  376,755;36001,585;13,66747
 618,36; 5236,568;  389,141;36018,713;13,60507
 618,94; 5137,842;  325,524;35685,821;13,60938
 619,52; 5100,305;  356,446;35429,786;13,52554
 620,10; 5102,208;  344,294;35357,121;13,58906
 620,67; 5056,770;  349,138;35291,669;13,47250
 621,25; 4993,891;  362,679;35085,009;13,33785
 621,83; 4970,782;  345,293;35076,558;13,31794
 622,41; 4965,536;  385,985;35138,801;13,17750
 622,98; 4879,096;  361,446;34882,002;13,08684
 623,56; 4863,707;  347,753;34793,583;13,11031
 624,14; 4805,984;  333,141;34719,994;13,00742
 624,72; 4799,253;  336,831;34620,071;13,01634
 625,29; 4754,911;  324,984;34556,641;12,94103
 625,87; 4796,570;  364,525;34676,983;12,91672
 626,45; 4726,661;  316,830;34505,849;12,89839
 627,02; 4683,636;  320,294;34437,260;12,78936
 627,60; 4656,448;  312,142;34320,989;12,77405
 628,18; 4630,969;  300,063;34500,281;12,66339
 628,76; 4612,871;  296,061;34362,708;12,67166
 629,33; 4623,713;  328,754;34528,766;12,55836
 629,91; 4584,900;  325,832;34417,275;12,49307
 630,49; 4628,975;  337,523;34500,571;12,56168
 631,06; 4615,509;  313,677;34631,537;12,53526
 631,64; 4582,206;  321,599;34650,864;12,41100
 632,22; 4550,680;  288,829;34586,626;12,42602
 632,79; 4570,500;  306,598;34849,684;12,34372
 633,37; 4583,288;  290,448;34944,712;12,38762
 633,95; 4564,312;  303,522;34924,842;12,30684
 634,52; 4566,938;  286,755;35030,846;12,31917
 635,10; 4576,980;  296,601;35092,620;12,30135
 635,68; 4591,005;  294,367;35219,210;12,30252
 636,25; 4541,965;  281,136;35221,860;12,19445
 636,83; 4550,794;  267,676;35391,785;12,19424
 637,41; 4537,113;  263,290;35481,014;12,13543
 637,98; 4562,602;  300,213;35621,936;12,06733
 638,56; 4539,279;  285,751;35678,857;12,01796
 639,13; 4537,636;  281,138;35691,751;12,02040
 639,71; 4586,286;  318,754;35930,146;11,98362
 640,29; 4471,529;  255,677;35765,254;11,87244
 640,86; 4507,704;  264,369;35942,439;11,89340
 641,44; 4494,187;  273,831;35871,393;11,85575
 642,02; 4541,439;  298,523;35902,501;11,91697
 642,59; 4529,922;  263,677;36033,685;11,92688
 643,17; 4474,252;  261,677;35991,332;11,79014
 643,74; 4496,658;  274,677;36056,286;11,79930
 644,32; 4515,448;  292,446;36035,470;11,81490
 644,89; 4463,085;  294,446;36045,963;11,66003
 645,47; 4504,645;  308,062;36104,686;11,72341
 646,05; 4504,282;  285,677;35986,563;11,81653
 646,62; 4487,842;  284,908;35945,132;11,78606
 647,20; 4507,786;  291,139;36124,778;11,76729
 647,77; 4444,346;  254,062;36026,963;11,71357
 648,35; 4448,906;  245,678;35886,763;11,79321
 648,92; 4444,620;  291,216;35945,563;11,64908
 649,50; 4451,488;  246,832;35814,671;11,82151
 650,08; 4420,740;  254,832;35770,240;11,72986
 650,65; 4444,223;  262,216;35977,117;11,70942
 651,23; 4521,014;  240,293;36800,687;11,70863
 651,80; 4634,727;  244,986;37613,794;11,74707
 652,38; 4693,826;  268,140;37991,210;11,73204
 652,95; 4679,847;  232,755;38391,241;11,65427
 653,53; 4760,100;  271,447;38585,579;11,71540
 654,10; 4805,275;  299,447;38673,302;11,74192
 654,68; 4769,143;  250,294;38691,179;11,75532
 655,25; 4755,395;  254,140;38670,364;11,71707
 655,83; 4744,416;  239,909;38781,164;11,68749
 656,40; 4802,899;  279,755;38703,733;11,77167
 656,98; 4766,228;  254,371;38699,841;11,73573
 657,55; 4761,788;  257,294;38608,487;11,74538
 658,13; 4705,656;  255,602;38136,672;11,74744
 658,70; 4683,062;  267,140;37934,088;11,72360
 659,28; 4606,160;  258,986;37129,349;11,79043
 659,85; 4520,028;  263,448;36325,765;11,80340
 660,43; 4531,511;  272,448;36335,565;11,81002
 661,00; 4507,686;  259,448;36458,288;11,73584
 661,58; 4538,323;  251,371;36802,780;11,72855
 662,15; 4586,114;  250,987;37033,811;11,78574
 662,73; 4673,828;  309,833;37229,842;11,82013
 663,30; 4662,618;  250,448;37468,334;11,85497
 663,88; 4681,101;  265,987;37602,750;11,82511
 664,45; 4704,584;  250,372;37833,935;11,85149
 665,03; 4778,760;  256,449;38173,504;11,92685
 665,60; 4889,320;  330,987;38616,535;11,90614
 666,17; 4845,187;  265,756;38724,489;11,90739
 666,75; 4883,055;  255,526;38961,366;11,95564
 667,32; 4923,307;  274,372;39365,320;11,89261
 667,90; 4953,713;  261,526;39620,735;11,92145
 668,47; 5010,889;  278,834;39864,074;11,95409
 669,05; 5095,295;  251,987;40201,797;12,12348
 669,62; 5070,316;  236,757;40350,674;12,04958
 670,19; 5095,107;  232,218;40365,551;12,11683
 670,77; 5134,590;  254,526;40528,043;12,11730
 671,34; 5171,842;  243,142;40494,074;12,24494
 671,92; 5225,479;  241,142;40791,105;12,29184
 672,49; 5228,500;  266,219;40704,213;12,27134
 673,06; 5187,137;  224,757;40877,166;12,20685
 673,64; 5228,928;  238,373;40717,043;12,32885
 674,21; 5263,642;  237,219;40700,920;12,42205
 674,79; 5286,356;  261,373;40994,721;12,33629
 675,36; 5366,915;  263,219;41119,521;12,49182
 675,93; 5340,552;  246,065;40984,090;12,50548
 676,51; 5371,035;  255,681;41152,659;12,50790
 677,08; 5382,903;  256,142;41186,690;12,52551
 677,65; 5412,694;  259,142;41321,106;12,55067
 678,23; 5511,023;  257,835;41490,444;12,74037
 678,80; 5505,044;  240,835;41631,167;12,71845
 679,38; 5555,604;  237,296;41794,583;12,79753
 679,95; 5596,472;  254,681;42035,152;12,78538
 680,52; 5666,493;  243,989;42287,491;12,89737
 681,10; 5718,515;  270,758;42634,983;12,85933
 681,67; 5764,767;  253,066;42966,398;12,90394
 682,24; 5785,173;  235,912;42974,583;12,98417
 682,82; 5830,272;  244,220;43463,614;12,92487
 683,39; 5940,524;  287,989;43858,952;12,97317
 683,96; 6020,084;  260,758;44134,214;13,12713
 684,54; 6061,028;  232,066;44408,014;13,19488
 685,11; 6131,434;  275,143;44776,584;13,15978
 685,68; 6161,225;  251,682;45228,691;13,13903
 686,25; 6193,477;  235,451;45230,261;13,24159
 686,83; 6274,960;  242,759;45347,138;13,37387
 687,40; 6314,213;  227,143;45852,707;13,34136
 687,97; 6394,772;  275,220;46111,276;13,35096
 688,55; 6422,871;  227,682;46014,692;13,53045
 689,12; 6440,431;  228,682;46371,107;13,46212
 689,69; 6486,606;  238,528;46450,600;13,52045
 690,26; 6561,935;  247,451;46530,246;13,64326
 690,84; 6627,111;  238,836;46740,354;13,73778
 691,41; 6694,747;  259,836;46845,923;13,81295
 691,98; 6769,461;  249,144;47159,646;13,89948
 692,56; 6786,406;  228,452;47242,677;13,94887
 693,13; 6858,504;  297,221;47245,631;13,97552
 693,70; 6878,526;  268,298;47417,815;14,01971
 694,27; 6893,547;  244,298;47459,539;14,08285
 694,84; 6950,492;  238,913;47569,646;14,18017
 695,42; 7050,282;  283,990;47728,062;14,26162
 695,99; 7066,227;  246,683;47899,477;14,31090
 696,56; 7118,556;  241,837;47809,585;14,45668
 697,13; 7191,116;  253,298;48121,077;14,49371
 697,71; 7215,830;  230,452;48189,185;14,56539
 698,28; 7267,544;  249,760;48434,755;14,56425
 698,85; 7306,180;  224,837;48478,324;14,67530
 699,42; 7369,817;  220,914;48608,124;14,77437
 699,99; 7391,531;  265,837;48730,309;14,70292
 700,57; 7440,706;  247,529;48793,878;14,81713
 701,14; 7499,728;  234,991;48957,755;14,91035
 701,71; 7483,980;  263,299;49229,478;14,74626
 702,28; 7610,463;  250,914;49223,278;15,02796
 702,85; 7603,638;  266,914;49325,924;14,95490
 703,43; 7732,121;  266,991;49478,186;15,16958
 704,00; 7768,758;  287,376;49701,755;15,14009
 704,57; 7766,549;  262,684;49634,094;15,19881
 705,14; 7827,340;  287,222;49998,355;15,16787
 705,71; 7892,515;  292,991;49959,540;15,30109
 706,28; 7918,075;  266,607;49877,340;15,42301
 706,86; 8027,173;  298,838;50117,986;15,51278
 707,43; 8033,349;  314,222;50071,248;15,51364
 708,00; 8066,755;  294,222;50116,202;15,60061
 708,57; 8100,238;  260,146;49967,233;15,77258
 709,14; 8156,336;  284,684;50087,187;15,80574
 709,71; 8233,050;  276,915;50163,295;15,94851
 710,28; 8336,994;  269,069;50478,710;16,06848
 710,86; 8355,401;  282,607;50616,125;16,03860
 711,43; 8430,807;  290,838;50647,695;16,16457
 712,00; 8422,290;  266,531;50672,110;16,18027
 712,57; 8565,311;  279,838;50829,449;16,39077
 713,14; 8571,333;  259,531;50931,557;16,40314
 713,71; 8618,662;  275,223;50797,895;16,51425
 714,28; 8686,837;  272,146;50888,618;16,62441
 714,85; 8672,243;  262,685;50582,803;16,71212
 715,42; 8759,880;  263,992;50759,065;16,82518
 716,00; 8847,286;  310,992;50835,095;16,89549
 716,57; 8883,385;  259,146;51087,126;16,96750
 717,14; 8923,483;  248,608;50968,772;17,10340
 717,71; 8992,351;  240,147;50982,419;17,24835
 718,28; 9124,834;  276,762;51066,142;17,42111
 718,85; 9088,393;  245,839;51150,173;17,37093
 719,42; 9172,953;  262,147;51220,665;17,48639
 719,99; 9198,667;  246,839;51029,004;17,62790
 720,56; 9311,842;  263,224;51274,881;17,73834
 721,13; 9342,633;  241,993;51460,911;17,76812
 721,70; 9361,732;  237,455;51378,942;17,84124
 722,27; 9411,599;  273,378;51411,589;17,86965
 722,84; 9522,467;  301,455;51593,619;17,97743
 723,41; 9485,181;  241,070;51451,035;18,05139
 723,98; 9606,433;  259,378;51750,604;18,15271
 724,55; 9670,531;  279,993;51796,943;18,22805
 725,12; 9637,245;  218,070;51651,589;18,31330
 725,69; 9743,959;  250,917;51876,235;18,38835
 726,27; 9792,826;  261,686;51919,497;18,45053
 726,84; 9873,002;  259,609;52233,605;18,49654
 727,41; 9952,177;  265,840;52331,328;18,60414
 727,98;10003,660;  264,686;52555,205;18,62474
 728,55;10109,297;  296,917;52463,697;18,80963
 729,12;10099,934;  246,840;52541,343;18,84155
 729,69;10208,186;  275,609;52837,451;18,89693
 730,26;10292,208;  283,379;52959,790;19,00059
 730,82;10311,921;  262,763;52758,974;19,14263
 731,39;10391,635;  257,148;52955,005;19,23131
 731,96;10512,503;  235,610;53267,959;19,37854
 732,53;10570,293;  265,994;53403,913;19,39161
 733,10;10668,161;  268,225;53548,021;19,51947
 733,67;10701,875;  274,379;53826,129;19,47181
 734,24;10724,435;  255,764;53472,390;19,67181
 734,81;10801,072;  277,918;53489,267;19,77615
 735,38;10752,785;  263,225;53211,067;19,81112
 735,95;10801,422;  265,533;53159,021;19,91907
 736,52;10881,982;  276,533;53224,360;20,03000
 737,09;10856,850;  276,456;52940,006;20,09054
 737,66;10901,717;  309,995;53113,498;20,05875
 738,23;10967,739;  250,226;53280,529;20,21017
 738,80;11159,683;  320,226;53503,252;20,38142
 739,37;11184,474;  291,610;53579,899;20,44138
 739,94;11261,957;  275,764;53700,006;20,56406
 740,51;11371,748;  361,380;53777,037;20,61262
 741,07;11371,923;  261,995;53699,068;20,79067
 741,64;11445,329;  300,149;53977,560;20,76326
 742,21;11495,889;  277,149;53957,437;20,89918
 742,78;11523,757;  236,688;53762,930;21,08698
 743,35;11662,163;  264,918;53988,730;21,21451
 743,92;11725,877;  291,303;54009,222;21,28633
 744,49;11803,283;  291,842;54095,330;21,39534
 745,06;11887,612;  255,765;54010,976;21,63855
 745,63;11894,172;  252,996;53956,392;21,67680
 746,19;11884,963;  257,303;54033,038;21,62250
 746,76;11984,599;  269,227;54104,684;21,76144
 747,33;12100,852;  263,611;54032,330;22,01511
 747,90;12158,950;  288,150;54195,515;22,02074
 748,47;12244,510;  265,227;54112,854;22,24663
 749,04;12224,993;  267,150;54050,192;22,23348
 749,61;12254,245;  297,150;54039,685;22,24885
 750,17;12340,421;  286,073;54174,408;22,36912
 750,74;12412,442;  275,612;54227,900;22,49549
 751,31;12439,002;  254,766;53959,239;22,68756
 751,88;12460,408;  239,073;53816,193;22,81074
 752,45;12533,045;  263,304;54025,685;22,82217
 753,02;12503,143;  278,304;53907,485;22,79513
 753,58;12580,780;  255,997;53784,824;23,02457
 754,15;12636,340;  264,304;53908,547;23,06312
 754,72;12621,669;  263,381;53687,347;23,13248
 755,29;12604,229;  253,843;53517,839;23,18712
 755,86;12777,635;  268,228;53714,793;23,40545
 756,42;12795,041;  280,074;53615,824;23,46450
 756,99;12795,447;  233,689;53605,316;23,53640
 757,56;12813,623;  251,074;53438,040;23,61960
 758,13;12825,798;  202,843;53342,455;23,75432
 758,70;12943,896;  238,612;53485,871;23,86092
 759,26;12955,764;  231,843;53543,363;23,86711
 759,83;13102,478;  242,690;53597,701;24,10231
 760,40;13116,345;  224,766;53439,425;24,22562
 760,97;13074,675;  222,074;53577,840;24,08849
 761,53;13101,927;  197,767;53155,179;24,36705
 762,10;13131,333;  200,459;53100,517;24,44397
 762,67;13220,816;  243,997;53066,471;24,56685
 763,24;13143,837;  194,074;52673,502;24,67588
 763,80;13226,936;  228,459;52864,840;24,69485
 764,37;13239,803;  230,459;52847,794;24,72445
 764,94;13181,440;  204,690;52333,133;24,89380
 765,50;13263,539;  220,229;52431,856;24,98162
 766,07;13355,406;  251,152;52474,810;25,09256
 766,64;13258,582;  233,690;52105,610;25,10972
 767,21;13262,526;  241,613;52041,333;25,13703
 767,77;13346,778;  257,152;51874,749;25,35885
 768,34;13366,723;  263,537;51923,164;25,36446
 768,91;13417,975;  258,921;51652,733;25,60435
 769,47;13434,227;  264,229;51713,995;25,59778
 770,04;13462,172;  261,383;51591,564;25,71740
 770,61;13489,194;  239,460;51321,364;25,93821
 771,18;13450,830;  230,845;51306,472;25,88316
 771,74;13565,544;  247,152;51408,272;26,03225
 772,31;13575,412;  260,537;51215,995;26,13042
 772,88;13517,279;  217,460;51015,796;26,18160
 773,44;13535,378;  234,306;50704,211;26,35446
 774,01;13612,168;  253,460;50873,011;26,39041
 774,58;13598,421;  227,614;50524,888;26,58356
 775,14;13608,135;  235,383;50646,534;26,52737
 775,71;13688,771;  236,537;50602,334;26,70907
 776,27;13772,254;  294,076;50495,673;26,84811
 776,84;13838,045;  314,076;50490,473;26,95285
 777,41;13891,528;  252,230;50294,273;27,25568
 777,97;13812,011;  234,768;50072,227;27,24305
 778,54;13858,494;  251,076;50143,104;27,27373
 779,11;13888,593;  275,845;50132,981;27,30351
 779,67;13947,922;  233,615;50049,627;27,52992
 780,24;13885,174;  248,538;49709,273;27,57063
 780,80;14035,272;  259,923;49830,381;27,78943
 781,37;14070,063;  255,692;49825,258;27,86865
 781,94;13987,392;  257,000;49628,289;27,81048
 782,50;14094,414;  265,769;49526,935;28,07210
 783,07;14145,512;  267,230;49610,043;28,12625
 783,63;14081,149;  243,154;49346,612;28,18130
 784,20;14112,940;  273,538;49235,874;28,26540
 784,77;14118,038;  254,692;49056,366;28,40752
 785,33;14124,213;  225,000;49013,166;28,48890
 785,90;14123,696;  248,000;48855,120;28,54663
 786,46;14151,949;  269,154;48795,228;28,60894
 787,03;14109,662;  239,462;48650,028;28,65118
 787,59;14187,222;  249,769;48497,059;28,88754
 788,16;14225,321;  263,616;48397,090;29,00623
 788,73;14189,419;  262,693;48264,352;29,01301
 789,29;14121,287;  241,693;47991,306;29,06745
 789,86;14251,154;  272,693;47967,567;29,30810
 790,42;14180,099;  256,462;47746,444;29,31910
 790,99;14134,736;  259,539;47483,552;29,38166
 791,55;14179,142;  257,847;47356,352;29,55783
 792,12;14246,702;  272,924;47388,844;29,65829
 792,68;14157,569;  254,155;47230,337;29,59673
 793,25;14205,514;  259,693;46912,445;29,89282
 793,81;14149,074;  309,847;46489,245;29,96840
 794,38;14068,480;  226,693;46236,122;30,08467
 794,94;14223,809;  247,001;46233,306;30,39341
 795,51;14088,984;  272,540;46008,106;30,20941
 796,07;14081,390;  265,616;45694,522;30,41186
 796,64;14199,643;  262,001;45837,553;30,58140
 797,20;14048,664;  262,617;45321,814;30,59541
 797,77;14025,455;  221,309;45021,230;30,81288
 798,33;14005,092;  252,386;44822,030;30,85667
 798,90;14082,959;  272,540;44715,291;31,07463
 799,46;14034,442;  251,771;44308,938;31,28361
 800,03;13931,387;  264,155;44235,661;31,08202
 800,59;14057,485;  265,155;44109,076;31,45779
 801,15;14042,738;  278,232;43747,799;31,66469
 801,72;13941,144;  266,463;43511,369;31,62148
 802,28;13905,781;  286,694;43292,015;31,66838
 802,85;13894,110;  266,310;43099,123;31,81626
 803,41;13842,208;  250,079;42940,307;31,83897
 803,98;13795,614;  256,925;42430,954;32,10196
 804,54;13794,328;  262,848;42266,677;32,21487
 805,11;13820,042;  262,541;42124,708;32,38605
 805,67;13859,371;  280,387;42014,277;32,53707
 806,23;13741,623;  257,002;41549,462;32,65638
 806,80;13785,183;  285,541;41500,339;32,75436
 807,36;13827,128;  286,310;41529,985;32,83126
 807,93;13738,688;  289,233;41223,016;32,85661
 808,49;13752,863;  247,618;40757,124;33,33846
 809,05;13720,192;  241,695;40697,693;33,31644
 809,62;13669,829;  280,310;40505,570;33,28634
 810,18;13774,620;  274,387;40620,831;33,46077
 810,74;13700,103;  243,541;40270,555;33,61870
 811,31;13676,586;  258,926;39953,201;33,80251
 811,87;13666,299;  258,695;39798,155;33,90943
 812,44;13750,629;  286,003;39928,339;33,96527
 813,00;13674,804;  219,157;39609,524;34,15974
 813,56;13773,133;  262,849;39650,555;34,30076
 814,13;13776,078;  252,080;39523,663;34,43711
 814,69;13747,330;  265,003;39435,924;34,41922
 815,25;13684,044;  235,695;38988,417;34,70298
 815,82;13763,373;  271,696;38942,601;34,88844
 816,38;13764,702;  290,003;38710,709;35,07145
 816,94;13653,954;  240,619;38478,048;35,07907
 817,51;13678,591;  237,311;38330,848;35,28494
 818,07;13710,766;  233,542;38000,802;35,68494
 818,63;13654,557;  247,927;37888,217;35,61777
 819,20;13695,271;  245,388;37838,710;35,77732
 819,76;13552,292;  236,465;37409,971;35,82075
 820,32;13575,698;  282,158;37334,387;35,87784
 820,89;13530,720;  272,773;37156,956;35,94480
 821,45;13463,280;  234,696;36860,448;36,11826
 822,01;13492,994;  277,619;36592,018;36,39155
 822,57;13484,169;  276,696;36485,125;36,47624
 823,14;13392,729;  237,619;36228,541;36,55119
 823,70;13330,443;  241,773;36000,649;36,60258
 824,26;13365,310;  234,850;35881,833;36,83470
 824,82;13318,562;  270,081;35724,403;36,80364
 825,39;13286,815;  251,850;35427,972;37,05629
 825,95;13364,144;  261,312;35480,618;37,20355
 826,51;13254,550;  258,620;35061,034;37,34204
 827,08;13288,494;  287,774;35137,295;37,30531
 827,64;13250,208;  281,235;34987,788;37,36751
 828,20;13211,307;  241,235;34619,126;37,72794
 828,76;13267,020;  271,082;34609,696;37,84643
 829,32;13253,811;  284,697;34482,034;37,92434
 829,89;13167,217;  239,851;34316,603;37,93603
 830,45;13242,008;  257,466;34267,634;38,17841
 831,01;13263,414;  253,236;34099,050;38,43955
 831,57;13262,666;  256,467;34030,081;38,50994
 832,14;13260,072;  254,851;34033,650;38,50114
 832,70;13254,709;  240,928;33800,758;38,77785
 833,26;13234,346;  217,928;33754,635;38,81245
 833,82;13309,675;  252,313;33616,204;39,13621
 834,38;13386,235;  237,544;33650,543;39,35202
 834,95;13237,564;  239,236;33518,112;39,05880
 835,51;13246,586;  211,313;33357,066;39,32713
 836,07;13366,684;  246,698;33520,635;39,43022
 836,63;13386,475;  264,390;33420,051;39,57721
 837,19;13411,112;  255,159;33199,928;39,93336
 837,75;13311,595;  213,544;32933,189;40,03115
 838,32;13330,462;  279,006;33077,682;39,79263
 838,88;13376,638;  259,852;33050,866;40,00116
 839,44;13342,275;  252,006;33047,666;39,91464
 840,00;13422,450;  251,083;32951,620;40,27875
 840,56;13313,548;  238,391;32616,036;40,38329
 841,12;13330,031;  233,391;32632,913;40,42233
 841,68;13328,591;  223,391;32391,328;40,73995
 842,25;13292,074;  232,545;32427,744;40,56359
 842,81;13314,942;  228,314;32220,621;40,90555
 843,37;13301,656;  218,775;32213,344;40,89094
 843,93;13280,369;  238,237;32166,375;40,84840
 844,49;13362,775;  251,776;32134,098;41,12310
 845,05;13274,566;  208,237;31930,667;41,18956
 845,61;13369,049;  261,391;32077,313;41,19842
 846,17;13301,071;  236,776;31936,036;41,21325
 846,73;13363,092;  235,468;31862,452;41,50767
 847,29;13262,421;  216,776;31612,560;41,55222
 847,86;13270,058;  232,776;31654,667;41,49108
 848,42;13259,695;  224,622;31431,237;41,77022
 848,98;13268,716;  243,699;31382,114;41,82942
 849,54;13301,199;  215,930;31349,606;42,02931
 850,10;13287,221;  251,545;31304,791;41,97846
 850,66;13277,935;  224,546;31162,129;42,19266
 851,22;13290,495;  226,161;31012,929;42,43490
 851,78;13324,978;  268,699;31106,422;42,33866
 852,34;13257,307;  244,007;30879,068;42,47845
 852,90;13264,482;  233,853;30702,253;42,76768
 853,46;13271,427;  227,161;30589,668;42,96175
 854,02;13257,294;  243,623;30587,468;42,88735
 854,58;13212,393;  244,854;30316,345;43,12237
 855,14;13169,799;  220,084;30263,530;43,10329
 855,70;13268,051;  202,238;30114,869;43,67992
 856,26;13247,226;  242,238;30010,207;43,68786
 856,82;13193,017;  232,623;29942,392;43,62334
 857,38;13198,500;  266,777;29836,038;43,73367
 857,94;13161,291;  234,008;29629,146;43,97762
 858,50;13210,851;  246,777;29607,946;44,15381
 859,06;13142,411;  236,546;29410,361;44,23784
 859,62;13213,817;  248,085;29409,008;44,46269
 860,18;13117,377;  238,239;29189,423;44,48570
 860,74;13111,090;  212,162;29036,915;44,74948
 861,30;13082,420;  213,008;28922,254;44,82671
 861,86;13160,903;  269,701;28999,593;44,87035
 862,42;13114,309;  237,162;28743,239;45,17334
 862,98;13146,407;  260,162;28761,500;45,21277
 863,54;13079,198;  241,239;28520,300;45,39740
 864,10;13158,989;  236,932;28588,101;45,57857
 864,66;13021,779;  215,239;28363,670;45,49646
 865,22;13055,108;  238,239;28203,855;45,83081
 865,78;13064,438;  235,470;28141,270;45,97241
 866,34;13151,151;  228,163;28057,301;46,43690
 866,90;13127,634;  245,547;27957,101;46,48634
 867,45;13050,348;  242,547;27757,132;46,54913
 868,01;12982,985;  239,470;27556,163;46,65102
 868,57;12921,160;  231,163;27363,501;46,77075
 869,13;13008,874;  222,471;27212,147;47,37516
 869,69;12951,126;  226,471;27172,563;47,22264
 870,25;12956,379;  217,701;27015,824;47,53571
 870,81;12989,477;  231,625;27081,009;47,51637
 871,37;12971,806;  242,009;26956,040;47,65210
 871,93;12920,366;  251,240;26773,379;47,76812
 872,49;12829,541;  260,933;26531,563;47,84281
 873,04;12815,794;  220,625;26358,748;48,18697
 873,60;12819,200;  219,933;26264,010;48,37671
 874,16;12803,452;  239,240;26176,733;48,44035
 874,72;12837,144;  228,933;26168,117;48,60682
 875,28;12812,529;  250,163;26000,733;48,78481
 875,84;12791,760;  230,240;25987,271;48,76928
 876,40;12760,298;  233,702;25977,579;48,65855
 876,95;12776,990;  251,163;25943,656;48,75287
 877,51;12827,683;  264,010;25877,656;49,05070
 878,07;12899,375;  271,856;25927,271;49,21970
 878,63;12934,837;  230,856;25864,194;49,56038
 879,19;12993,221;  253,240;25914,425;49,64689
 879,75;13019,683;  238,240;25953,348;49,70402
 880,30;13092,837;  240,317;25904,348;50,07989
 880,86;13208,375;  269,548;26079,271;50,13160
 881,42;13184,298;  216,779;26075,887;50,14682
 881,98;13246,990;  244,317;26144,963;50,20212
 882,54;13332,990;  220,471;26231,348;50,41168
 883,09;13392,529;  246,317;26360,963;50,34038
 883,65;13459,837;  224,548;26393,733;50,57585
 884,21;13574,221;  269,779;26645,810;50,44141
 884,77;13696,913;  224,317;26669,117;50,94611
 885,32;13753,606;  243,163;26823,271;50,82915
 885,88;13925,529;  266,625;27016,117;51,06229
 886,44;14008,452;  241,779;27082,348;51,29054
 887,00;13946,606;  255,779;27061,271;51,07471
 887,56;14073,913;  228,625;27290,271;51,16203
 888,11;14129,452;  225,702;27247,117;51,45456
 888,67;14277,221;  267,317;27369,579;51,69275
 889,23;14324,990;  240,471;27425,040;51,81071
 889,79;14330,760;  233,240;27282,040;52,11883
 890,34;14403,144;  239,933;27273,348;52,39150
 890,90;14495,298;  292,394;27396,810;52,40070
 891,46;14440,375;  224,240;27235,194;52,63100
 892,01;14558,990;  262,010;27282,502;52,91162
 892,57;14484,683;  271,087;27144,733;52,89046
 893,13;14451,375;  250,394;27068,963;52,95204
 893,69;14416,529;  234,625;26951,579;53,08204
 894,24;14431,760;  235,317;26883,502;53,27358
 894,80;14420,375;  245,779;26747,117;53,48634
 895,36;14398,760;  242,548;26590,579;53,72778
 895,91;14236,760;  233,856;26489,194;53,33355
 896,47;14297,760;  251,702;26326,425;53,86848
 897,03;14226,298;  232,856;26157,656;53,97705
 897,58;14272,606;  254,394;26075,656;54,28941
 898,14;14165,837;  250,317;25913,040;54,22464
 898,70;14096,221;  214,625;25698,271;54,47257
 899,25;14075,221;  238,548;25740,117;54,25812
 899,81;14068,913;  251,933;25551,810;54,61284
 900,37;13913,067;  218,625;25411,194;54,35905
 900,92;13976,067;  241,625;25430,887;54,52499
 901,48;13902,837;  234,394;25193,502;54,76335
 902,03;13853,683;  236,702;25072,425;54,82820
 902,59;13875,837;  239,779;24977,425;55,12270
 903,15;13860,375;  257,240;24842,194;55,33114
 903,70;13709,990;  246,779;24638,348;55,19617
 904,26;13735,913;  225,240;24525,117;55,59976
 904,82;13767,606;  230,163;24430,040;55,94013
 905,37;13701,221;  248,240;24383,425;55,74012
 905,93;13600,837;  228,087;24198,887;55,78767
 906,48;13704,529;  248,471;24148,887;56,30052
 907,04;13665,683;  262,087;24069,194;56,30082
 907,60;13597,375;  242,933;23863,271;56,53790
 908,15;13584,298;  226,471;23767,040;56,74386
 908,71;13659,452;  254,779;23777,579;56,98587
 909,26;13593,606;  232,240;23524,425;57,36416
 909,82;13530,990;  255,856;23558,271;56,96892
 910,37;13551,990;  281,163;23385,348;57,43906
 910,93;13461,067;  229,548;23196,579;57,61093
 911,48;13396,221;  223,625;23092,117;57,60151
 912,04;13376,990;  224,010;22961,502;57,84710
 912,60;13407,683;  245,471;23040,271;57,74217
 913,15;13343,990;  239,933;22832,271;58,00222
 913,71;13277,529;  224,856;22646,117;58,21561
 914,26;13299,452;  216,779;22565,810;58,53799
 914,82;13275,837;  250,087;22457,579;58,65475
 915,37;13321,144;  221,087;22481,117;58,85013
 915,93;13311,144;  287,087;22242,194;59,32131
 916,48;13198,606;  228,625;22159,502;59,14027
 917,04;13203,452;  247,163;22092,887;59,30812
 917,59;13231,760;  256,010;22017,348;59,62754
 918,15;13120,375;  206,010;21794,810;59,81975
 918,70;13117,913;  228,394;21782,656;59,80033
 919,26;13089,760;  237,779;21653,887;60,01082
 919,81;12962,913;  219,240;21495,425;59,89642
 920,37;12993,990;  228,856;21411,348;60,26267
 920,92;12933,221;  247,087;21405,887;59,95678
 921,48;12860,452;  213,394;21047,117;60,70474
 922,03;12921,990;  220,856;21107,502;60,80983
 922,59;12848,452;  228,317;20946,040;60,91468
 923,14;12842,144;  235,856;20873,963;61,08258
 923,69;12870,529;  251,087;20763,656;61,52053
 924,25;12803,837;  254,933;20707,194;61,35705
 924,80;12717,298;  235,548;20567,040;61,39121
 925,36;12746,913;  228,548;20503,656;61,74253
 925,91;12664,298;  231,702;20377,194;61,71403
 926,47;12658,913;  204,471;20324,579;61,90048
 927,02;12666,375;  276,702;20289,579;61,90851
 927,57;12603,683;  233,087;20066,963;62,37104
 928,13;12571,298;  220,702;20007,117;62,41957
 928,68;12622,067;  230,163;19941,425;62,86713
 929,24;12495,298;  203,087;19722,194;62,97527
 929,79;12510,067;  219,779;19652,502;63,24532
 930,34;12430,913;  230,856;19548,040;63,15650
 930,90;12427,452;  213,625;19480,040;63,39439
 931,45;12444,067;  237,087;19492,502;63,39505
 932,01;12409,529;  233,163;19371,963;63,62136
 932,56;12398,913;  246,087;19179,425;64,18745
 933,11;12481,837;  254,933;19098,425;64,88661
 933,67;12351,760;  227,933;18951,963;64,75009
 934,22;12294,375;  234,240;18965,656;64,38453
 934,77;12272,067;  258,702;18836,271;64,66597
 935,33;12216,837;  230,856;18641,887;65,10217
 935,88;12261,067;  232,625;18650,117;65,30988
 936,43;12194,375;  224,548;18470,810;65,60153
 936,99;12152,452;  234,702;18419,040;65,53854
 937,54;12117,221;  220,010;18225,656;66,07489
 938,09;12125,144;  237,933;18269,194;65,92557
 938,65;12065,067;  234,394;18199,656;65,85305
 939,20;12042,913;  227,779;18103,579;66,09570
 939,75;11996,990;  218,240;17957,271;66,40019
 940,31;11927,529;  202,933;17923,733;66,16291
 940,86;11979,760;  232,163;17809,963;66,83200
 941,41;11911,067;  293,163;17808,271;66,33076
 941,96;11855,760;  226,240;17668,271;66,67526
 942,52;11852,913;  230,625;17565,963;67,04391
 943,07;11719,913;  205,548;17440,887;66,80673
 943,62;11720,375;  214,471;17351,656;67,13999
 944,18;11707,760;  210,087;17283,271;67,34346
 944,73;11615,529;  237,010;17179,194;67,16087
 945,28;11493,375;  196,856;17038,656;67,07430
 945,83;11590,913;  224,394;17029,963;67,63543
 946,39;11586,144;  215,933;17007,887;67,71226
 946,94;11558,298;  246,471;16895,502;67,94286
 947,49;11574,221;  223,010;16792,656;68,50606
 948,04;11532,760;  254,779;16805,348;68,14256
 948,59;11539,144;  241,933;16731,425;68,51158
 949,15;11502,913;  220,856;16591,579;68,91606
 949,70;11421,606;  222,702;16480,425;68,88359
 950,25;11385,606;  243,163;16409,733;68,92274
 950,80;11366,990;  199,933;16345,040;69,16682
 951,36;11330,990;  194,163;16234,502;69,43012
 951,91;11380,221;  239,163;16263,887;69,52418
 952,46;11247,144;  206,933;16077,271;69,56507
 953,01;11339,221;  240,163;16074,963;70,09282
 953,56;11203,221;  196,856;15870,502;70,22211
 954,11;11176,144;  236,625;15920,194;69,75146
 954,67;11185,683;  222,394;15847,348;70,16525
 955,22;11109,067;  212,933;15738,117;70,18361
 955,77;11125,452;  248,010;15700,117;70,39455
 956,32;11125,529;  264,779;15594,810;70,84624
 956,87;11019,683;  213,548;15416,887;71,07738
 957,42;10956,452;  219,394;15405,887;70,70137
 957,98;10941,683;  220,394;15304,963;71,07454
 958,53;10950,529;  244,702;15264,810;71,27663
 959,08;10897,760;  216,471;15164,810;71,45469
 959,63;10868,760;  218,394;15105,887;71,53902
 960,18;10831,298;  236,010;15002,963;71,74999
 960,73;10862,606;  227,087;15025,579;71,86894
 961,28;10796,452;  204,548;14850,579;72,31928
 961,83;10777,529;  248,625;14847,656;72,12057
 962,39;10663,452;  210,856;14684,733;72,21698
 962,94;10737,375;  238,240;14644,040;72,88130
 963,49;10666,990;  224,933;14529,117;73,00002
 964,04;10697,606;  239,010;14469,502;73,49427
 964,59;10569,144;  190,471;14412,348;72,97682
 965,14;10606,298;  234,702;14368,117;73,38351
 965,69;10519,990;  229,933;14263,194;73,32620
 966,24;10487,375;  209,010;14167,810;73,63359
 966,79;10441,452;  244,933;14090,810;73,64300
 967,34;10405,452;  195,087;13945,733;74,25371
 967,89;10295,067;  223,933;13893,733;73,67434
 968,44;10308,683;  232,471;13815,425;74,18277
 968,99;10301,144;  231,625;13772,117;74,36598
 969,55;10273,067;  235,471;13685,117;74,63093
 970,10;10208,375;  226,317;13608,271;74,59342
 970,65;10168,144;  258,010;13515,117;74,75337
 971,20;10134,913;  218,856;13464,579;74,86234
 971,75;10059,606;  220,702;13239,348;75,57548
 972,30; 9997,606;  226,933;13232,579;75,12639
 972,85;10007,837;  216,548;13120,579;75,87775
 973,40; 9926,529;  209,163;12982,502;76,07538
 973,95; 9885,837;  238,702;12957,733;75,84803
 974,50; 9879,375;  251,087;12897,425;76,13499
 975,05; 9840,221;  230,548;12728,963;76,88713
 975,60; 9820,760;  237,933;12745,425;76,61669
 976,15; 9757,913;  222,548;12616,733;76,93419
 976,70; 9725,221;  233,240;12572,579;76,92455
 977,25; 9699,529;  237,394;12466,963;77,37096
 977,80; 9621,375;  217,317;12321,502;77,69262
 978,35; 9492,298;  234,471;12220,040;77,24145
 978,89; 9525,529;  213,394;12155,425;77,97781
 979,44; 9553,837;  228,779;12134,040;78,32720
 979,99; 9378,067;  217,625;11915,733;78,30704
 980,54; 9313,452;  253,625;11844,425;78,16395
 981,09; 9312,529;  247,856;11860,040;78,06174
 981,64; 9174,067;  232,548;11711,656;77,89385
 982,19; 9185,298;  263,010;11643,117;78,40250
 982,74; 9096,144;  241,548;11500,656;78,64385
 983,29; 9053,144;  218,548;11375,733;79,18302
 983,84; 9022,683;  239,394;11356,117;79,00969
 984,39; 9020,606;  294,856;11262,194;79,56124
 984,94; 8883,913;  209,779;11049,502;80,02174
 985,49; 8855,298;  253,471;11087,887;79,39355
 986,03; 8852,760;  254,010;11008,963;79,95153
 986,58; 8733,452;  274,010;10856,348;79,93925
 987,13; 8640,990;  235,163;10734,425;80,06113
 987,68; 8607,298;  242,702;10680,579;80,13695
 988,23; 8600,606;  242,163;10603,887;80,66653
 988,78; 8519,683;  231,702;10441,733;81,17489
 989,33; 8466,683;  253,087;10362,271;81,24885
 989,88; 8459,375;  250,087;10311,656;81,59054
 990,42; 8372,837;  226,702;10186,963;81,78635
 990,97; 8319,606;  229,779;10115,040;81,83726
 991,52; 8293,298;  252,163;10000,810;82,48463
 992,07; 8243,683;  270,471; 9886,271;82,91782
 992,62; 8162,606;  246,163; 9856,963;82,37027
 993,17; 8081,837;  243,010; 9701,810;82,87338
 993,71; 8057,298;  241,471; 9651,733;83,05643
 994,26; 7983,913;  232,087; 9479,579;83,82626
 994,81; 7960,760;  257,625; 9438,425;83,90483
 995,36; 7867,452;  233,317; 9288,040;84,31108
 995,91; 7811,144;  242,779; 9273,271;83,80900
 996,45; 7724,375;  231,856; 9155,656;83,96108
 997,00; 7640,221;  219,471; 9022,810;84,29473
 997,55; 7625,298;  242,163; 9020,502;84,10629
 998,10; 7544,837;  260,779; 8888,425;84,42694
 998,65; 7498,067;  233,548; 8830,348;84,50260
 999,19; 7418,837;  254,240; 8704,810;84,78241
 999,74; 7359,375;  277,548; 8626,656;84,82136
1000,29; 7353,067;  247,625; 8537,810;85,70910
1000,84; 7209,837;  232,933; 8390,810;85,52352
1001,38; 7116,375;  238,317; 8326,733;85,03591
1001,93; 7114,683;  259,702; 8267,271;85,60626
1002,48; 7009,990;  228,471; 8102,733;86,12261
1003,03; 6977,606;  241,548; 8090,733;85,81857
1003,57; 6902,913;  251,394; 7970,810;86,16610
1004,12; 6852,452;  261,394; 7947,271;85,75544
1004,67; 6768,144;  235,856; 7818,656;86,14613
1005,22; 6619,375;  226,471; 7679,733;85,77324
1005,76; 6562,298;  218,471; 7550,040;86,52755
1006,31; 6529,221;  264,010; 7519,963;86,34580
1006,86; 6438,375;  231,471; 7421,810;86,32283
1007,40; 6326,067;  216,394; 7259,810;86,74305
1007,95; 6286,221;  239,394; 7223,194;86,58362
1008,50; 6168,298;  240,163; 7064,117;86,87243
1009,04; 6064,837;  242,240; 6983,194;86,37644
1009,59; 5970,683;  240,240; 6841,040;86,81436
1010,14; 5906,837;  232,240; 6779,810;86,66722
1010,68; 5868,683;  238,625; 6652,117;87,78459
1011,23; 5771,452;  228,625; 6538,733;87,84045
1011,78; 5709,221;  256,548; 6507,579;87,22838
1012,32; 5641,529;  253,702; 6425,733;87,29423
1012,87; 5621,529;  259,856; 6388,425;87,48654
1013,42; 5523,990;  227,010; 6256,194;87,85567
1013,96; 5514,913;  256,625; 6258,040;87,61747
1014,51; 5449,760;  210,240; 6162,656;88,02341
1015,06; 5470,067;  214,702; 6187,656;87,98604
1015,60; 5546,913;  269,625; 6225,502;88,60641
1016,15; 5488,375;  228,856; 6175,579;88,44399
1016,69; 5543,990;  241,471; 6220,348;88,68755
1017,24; 5556,990;  215,163; 6187,656;89,44050
1017,79; 5657,606;  267,317; 6267,040;89,84229
1018,33; 5662,837;  228,856; 6238,040;90,42792
1018,88; 5703,221;  240,933; 6339,271;89,57011
1019,42; 5753,990;  231,856; 6320,810;90,69102
1019,97; 5745,990;  232,087; 6321,656;90,54670
1020,51; 5849,067;  250,471; 6375,963;91,39831
1021,06; 5798,221;  216,548; 6323,502;91,39865
1021,61; 5825,606;  199,856; 6306,579;92,12388
1022,15; 5808,144;  189,548; 6268,579;92,42585
1022,70; 5799,606;  234,933; 6261,194;92,34038
1023,24; 5781,913;  214,779; 6249,040;92,25876
1023,79; 5789,837;  233,010; 6178,963;93,45560
1024,33; 5733,683;  223,317; 6110,348;93,60178
1024,88; 5675,375;  246,548; 6042,887;93,65959
1025,42; 5618,375;  232,240; 5945,656;94,27171
1025,97; 5532,375;  222,240; 5867,348;94,06613
1026,51; 5450,913;  197,702; 5788,963;93,95396
1027,06; 5429,221;  214,702; 5714,963;94,80493
1027,60; 5333,298;  233,087; 5645,271;94,23573
1028,15; 5276,221;  239,625; 5542,271;94,98269
1028,69; 5138,913;  197,933; 5420,963;94,59988
1029,24; 5097,221;  226,702; 5382,271;94,47103
1029,78; 5027,452;  217,779; 5260,502;95,37849
1030,33; 4925,067;  204,394; 5155,502;95,34580
1030,87; 4915,375;  221,856; 5120,656;95,80957
1031,42; 4813,067;  203,240; 5044,194;95,22559
1031,96; 4787,683;  227,779; 4995,117;95,64884
1032,51; 4680,837;  215,779; 4894,810;95,42698
1033,05; 4654,760;  229,548; 4845,117;95,87575
1033,60; 4568,452;  193,394; 4753,656;95,93875
1034,14; 4498,837;  222,702; 4676,733;96,00595
1034,69; 4458,683;  221,240; 4599,194;96,79047
1035,23; 4423,760;  223,625; 4565,502;96,73546
1035,77; 4354,067;  226,471; 4503,271;96,51132
1036,32; 4253,221;  194,471; 4408,963;96,30460
1036,86; 4271,221;  224,010; 4393,040;97,07800
1037,41; 4184,452;  223,163; 4290,348;97,39633
1037,95; 4140,298;  197,933; 4207,271;98,32957
1038,50; 4081,760;  206,317; 4166,810;97,85254
1039,04; 4073,221;  229,933; 4143,887;98,19453
1039,58; 3986,221;  206,010; 4072,348;97,77239
1040,13; 3908,298;  226,163; 4017,271;97,12556
1040,67; 3929,144;  254,548; 3991,963;98,31918
1041,21; 3860,452;  251,240; 3921,271;98,34281
1041,76; 3792,529;  215,317; 3817,117;99,31733
1042,30; 3774,221;  218,087; 3786,348;99,66014
1042,85; 3698,990;  215,702; 3720,040;99,39932
1043,39; 3664,298;  207,240; 3680,579;99,53126
1043,93; 3650,375;  232,856; 3683,271;99,04660
1044,48; 3605,837;  230,933; 3588,887;100,50477
1045,02; 3529,452;  220,394; 3519,348;100,30627
1045,56; 3532,067;  237,548; 3511,271;100,63524
1046,11; 3447,913;  229,625; 3464,502;99,48720
1046,65; 3408,913;  234,240; 3390,963;100,56863
1047,19; 3342,913;  218,010; 3303,963;101,26217
1047,74; 3288,529;  204,010; 3279,271;100,30104
1048,28; 3277,375;  234,087; 3254,502;100,75728
1048,82; 3256,298;  249,702; 3219,040;101,25475
1049,37; 3217,221;  232,010; 3171,194;101,56598
1049,91; 3148,375;  221,240; 3126,117;100,76622
1050,45; 3126,452;  241,471; 3095,425;101,08716
1050,99; 3065,606;  232,856; 3027,348;101,36904
1051,54; 3011,990;  220,317; 2989,040;100,82890
1052,08; 3009,837;  237,010; 2958,117;101,90067
1052,62; 2970,144;  239,163; 2924,656;101,69386
1053,16; 2926,760;  212,087; 2848,425;102,97134
1053,71; 2920,298;  236,779; 2870,425;101,89369
1054,25; 2870,067;  237,779; 2782,810;103,42855
1054,79; 2847,837;  239,471; 2752,425;103,79679
1055,33; 2774,144;  207,856; 2678,348;103,87761
1055,88; 2772,221;  232,548; 2670,271;104,18218
1056,42; 2758,144;  248,240; 2650,040;104,50095
1056,96; 2676,913;  247,240; 2617,194;102,51985
1057,50; 2669,760;  238,471; 2587,348;103,50855
1058,05; 2615,375;  232,779; 2525,579;103,91644
1058,59; 2597,221;  261,625; 2518,502;103,48797
1059,13; 2530,452;  206,240; 2434,810;104,29165
1059,67; 2510,529;  236,625; 2431,810;103,58600
1060,21; 2477,452;  221,933; 2362,117;105,38900
1060,76; 2440,221;  243,471; 2345,963;104,48314
1061,30; 2438,144;  251,317; 2325,425;105,43459
1061,84; 2375,067;  238,933; 2285,425;104,38029
1062,38; 2317,298;  221,240; 2225,733;104,56801
1062,92; 2348,606;  272,471; 2270,425;103,91304
1063,46; 2281,221;  245,010; 2183,963;105,01599
1064,01; 2239,913;  225,779; 2175,579;103,29955
1064,55; 2219,683;  242,856; 2135,425;104,45203
1065,09; 2185,760;  207,702; 2084,579;105,39091
1065,63; 2191,606;  270,163; 2099,502;105,03482
1066,17; 2173,221;  259,317; 2072,887;105,53244
1066,71; 2130,990;  253,471; 2052,271;104,37621
1067,25; 2071,760;  232,548; 1992,194;104,52167
1067,80; 2064,837;  256,856; 1990,040;104,31553
1068,34; 2075,298;  271,779; 2016,656;103,36083
1068,88; 2003,913;  233,625; 1913,887;105,35791
1069,42; 2032,683;  271,087; 1923,040;106,63713
1069,96; 1981,144;  237,856; 1875,194;106,47087
1070,50; 1969,298;  276,779; 1908,194;103,74545
1071,04; 1890,760;  233,240; 1836,810;103,36437
1071,58; 1887,683;  234,856; 1806,810;105,14475
1072,12; 1886,760;  239,163; 1795,579;105,85838
1072,66; 1879,375;  236,394; 1772,194;106,97882
1073,21; 1861,067;  259,856; 1773,887;105,75819
1073,75; 1836,452;  238,933; 1738,040;106,56467
1074,29; 1811,913;  237,087; 1717,733;106,36079
1074,83; 1791,452;  257,856; 1708,502;105,71814
1075,37; 1756,990;  246,471; 1675,117;105,73082
1075,91; 1741,298;  262,163; 1664,271;105,49365
1076,45; 1707,606;  250,933; 1651,271;104,02293
1076,99; 1713,990;  262,163; 1629,348;106,19099
1077,53; 1659,452;  238,471; 1599,887;104,37525
1078,07; 1674,375;  248,702; 1604,810;105,12978
1078,61; 1659,144;  241,856; 1568,733;106,81386
1079,15; 1645,760;  232,163; 1538,963;108,17234
1079,69; 1615,990;  242,240; 1508,194;108,51501
1080,23; 1611,913;  261,933; 1514,810;107,75047
1080,77; 1626,375;  285,317; 1531,040;107,65295
1081,31; 1556,221;  238,625; 1481,733;105,99212
1081,85; 1562,990;  248,625; 1469,733;107,63714
1082,39; 1526,375;  239,240; 1426,733;108,39099
1082,93; 1535,375;  247,163; 1425,887;109,28873
1083,47; 1495,990;  226,933; 1380,810;109,98207
1084,01; 1505,221;  252,317; 1416,733;107,59939
1084,55; 1470,529;  232,471; 1388,425;107,10269
1085,09; 1466,837;  251,702; 1367,810;108,87252
1085,63; 1412,990;  254,471; 1342,271;106,50112
1086,17; 1439,221;  238,010; 1296,579;113,47501
1086,71; 1415,067;  237,317; 1306,733;110,13027
1087,24; 1438,913;  264,394; 1315,810;111,70839
1087,78; 1416,067;  255,933; 1303,271;110,76979
1088,32; 1368,221;  232,548; 1254,271;111,15273
1088,86; 1366,913;  250,548; 1267,425;109,78373
1089,40; 1356,067;  240,240; 1244,348;111,12622
1089,94; 1310,375;  220,010; 1205,810;110,60716
1090,48; 1303,683;  247,933; 1202,733;110,57289
1091,02; 1296,529;  259,317; 1201,656;110,06783
1091,56; 1290,144;  249,317; 1192,117;110,39743
1092,10; 1246,990;  223,702; 1155,887;109,77315
1092,63; 1283,144;  262,779; 1177,579;111,53972
1093,17; 1239,683;  260,163; 1161,194;108,71096
1093,71; 1210,221;  251,087; 1131,502;108,94115
1094,25; 1230,990;  265,240; 1151,963;108,91224
1094,79; 1190,760;  236,625; 1110,733;109,15527
1095,33; 1210,760;  243,163; 1102,117;112,64821
1095,87; 1172,913;  240,856; 1083,810;110,57043
1096,40; 1156,913;  230,163; 1064,194;111,11700
1096,94; 1131,375;  248,087; 1069,579;107,52243
1097,48; 1127,837;  243,471; 1063,040;107,90612
1098,02; 1103,683;  243,779; 1040,887;107,87800
1098,56; 1061,067;  212,471; 1004,733;107,11061
1099,10; 1063,375;  215,087;  985,963;110,04201
1099,63; 1067,067;  222,317;  992,963;109,61581
1100,17; 1069,221;  252,702;  991,502;110,51966
1100,71; 1071,606;  259,317;  991,733;110,90543

