
Integration time [ms]: 120,000
Averaging Nr. [scans]: 13
Smoothing Nr. [pixels]: 0
Data measured with spectrometer [name]: 2009305U1
Wave   ;Sample   ;Dark     ;Reference;Reflectance
[nm]   ;[counts] ;[counts] ;[counts] ;[%]

 175,72;  205,118;  202,886;  214,253;19,63481
 176,32;  230,418;  236,502;  224,563; 0,00000
 176,92;  258,327;  261,810;  259,279; 0,00000
 177,52;  261,004;  256,040;  268,411;40,12560
 178,12;  240,505;  228,579;  233,833;227,00825
 178,72;  267,556;  258,810;  256,007; 0,00000
 179,32;  248,556;  260,733;  253,210; 0,00000
 179,92;  246,214;  251,194;  250,799; 0,00000
 180,52;  248,527;  248,194;  249,355;28,69603
 181,12;  259,897;  252,963;  254,248;539,89225
 181,73;  283,655;  279,733;  279,385; 0,00000
 182,33;  346,551;  348,886;  358,111;-25,31449
 182,93;  267,329;  273,348;  275,613;-265,71665
 183,53;  242,221;  241,425;  236,281; 0,00000
 184,13;  244,819;  249,502;  235,332; 0,00000
 184,73;  289,376;  275,272;  271,335; 0,00000
 185,33;  277,873;  236,428;  336,101;41,58045
 185,93;  277,719;  234,583;  359,342;34,57596
 186,53;  287,670;  252,198;  384,040;26,90487
 187,13;  321,216;  282,736;  409,296;30,40445
 187,73;  279,076;  254,890;  367,277;21,51966
 188,33;  291,450;  248,737;  369,705;35,30962
 188,93;  288,185;  255,430;  366,881;29,38983
 189,53;  294,066;  251,969;  374,863;34,25454
 190,13;  324,241;  287,585;  411,451;29,59313
 190,73;  276,962;  233,430;  364,758;33,14752
 191,34;  311,294;  259,584;  390,135;39,60963
 191,94;  285,382;  241,583;  374,569;32,93532
 192,54;  306,973;  259,889;  412,605;30,83061
 193,14;  308,133;  261,198;  394,187;35,29275
 193,74;  305,166;  260,890;  382,181;36,50396
 194,34;  300,495;  260,505;  382,000;32,91484
 194,94;  278,612;  222,505;  351,466;43,50661
 195,54;  240,176;  209,121;  329,710;25,75286
 196,14;  267,443;  234,043;  365,416;25,42339
 196,74;  271,198;  222,736;  356,742;36,16421
 197,34;  247,474;  205,659;  339,451;31,25382
 197,94;  273,844;  232,351;  378,492;28,39220
 198,54;  280,351;  243,428;  386,908;25,73366
 199,14;  274,901;  223,966;  379,479;32,75311
 199,74;  253,884;  205,351;  372,661;29,00808
 200,34;  252,764;  202,428;  400,858;25,36720
 200,94;  283,812;  238,736;  424,673;24,24290
 201,54;  273,272;  213,428;  425,103;28,27172
 202,14;  306,722;  244,043;  464,005;28,49543
 202,74;  292,489;  219,351;  461,776;30,16950
 203,34;  276,572;  193,735;  478,391;29,10089
 203,94;  255,482;  181,966;  496,607;23,36510
 204,54;  325,175;  242,813;  571,497;25,05810
 205,14;  291,271;  206,274;  583,049;22,55916
 205,74;  347,684;  248,274;  675,642;23,26099
 206,34;  318,417;  206,197;  683,700;23,50135
 206,94;  343,631;  217,274;  760,936;23,24184
 207,54;  319,021;  184,428;  772,738;22,87804
 208,14;  364,886;  217,735;  847,890;23,35157
 208,74;  371,876;  207,735;  933,625;22,61234
 209,34;  382,957;  205,043; 1021,039;21,80324
 209,94;  411,284;  228,043; 1123,399;20,46569
 210,54;  418,610;  209,735; 1225,007;20,57328
 211,14;  448,549;  215,351; 1308,727;21,32826
 211,73;  466,941;  223,120; 1428,637;20,22544
 212,33;  496,829;  230,889; 1519,106;20,64403
 212,93;  500,603;  212,505; 1626,646;20,37266
 213,53;  485,474;  188,966; 1698,269;19,64537
 214,13;  520,432;  201,043; 1758,559;20,50631
 214,73;  524,953;  185,428; 1791,774;21,13649
 215,33;  518,438;  188,658; 1829,553;20,09753
 215,93;  573,227;  204,120; 1943,802;21,21691
 216,53;  560,084;  174,428; 2018,775;20,91017
 217,13;  656,116;  215,427; 2222,682;21,95480
 217,73;  695,961;  204,351; 2416,551;22,22272
 218,33;  721,128;  151,427; 2607,742;23,19330
 218,93;  838,430;  195,196; 2888,264;23,88482
 219,53;  924,649;  206,120; 3172,770;24,22023
 220,13; 1004,567;  173,427; 3452,633;25,34576
 220,73; 1125,865;  194,274; 3805,609;25,79630
 221,32; 1244,415;  200,428; 4215,010;26,00487
 221,92; 1358,219;  196,581; 4630,656;26,19797
 222,52; 1479,664;  174,274; 5017,128;26,95498
 223,12; 1621,767;  190,889; 5440,521;27,25672
 223,72; 1748,826;  204,581; 5856,549;27,32226
 224,32; 1897,420;  198,427; 6211,109;28,25682
 224,92; 1965,929;  192,120; 6488,018;28,17404
 225,52; 2116,691;  215,428; 6819,349;28,78991
 226,12; 2213,580;  202,658; 7124,839;29,05041
 226,72; 2308,587;  171,351; 7400,541;29,56398
 227,31; 2436,018;  160,274; 7750,450;29,98276
 227,91; 2594,992;  201,812; 8154,932;30,09109
 228,51; 2739,495;  182,120; 8521,044;30,66793
 229,11; 2856,269;  187,043; 8878,963;30,70927
 229,71; 2969,821;  175,120; 9158,296;31,11039
 230,31; 3115,923;  181,658; 9533,880;31,37506
 230,91; 3181,140;  174,813; 9847,932;31,07919
 231,51; 3330,393;  168,043;10155,152;31,66432
 232,10; 3444,773;  170,043;10488,064;31,73797
 232,70; 3570,880;  196,351;10637,077;32,32082
 233,30; 3721,201;  203,504;10982,179;32,63571
 233,90; 3789,941;  175,351;11123,242;33,01631
 234,50; 3821,609;  184,581;11182,491;33,07017
 235,10; 3912,467;  182,043;11331,633;33,45795
 235,70; 3935,764;  199,812;11398,781;33,35978
 236,29; 3938,280;  200,582;11347,754;33,53046
 236,89; 3922,672;  176,274;11296,000;33,69146
 237,49; 3882,719;  192,889;11256,101;33,35225
 238,09; 3806,186;  180,581;11083,700;33,25291
 238,69; 3736,502;  216,967;10925,828;32,86564
 239,29; 3616,579;  182,197;10627,175;32,88071
 239,89; 3498,548;  199,197;10325,321;32,58256
 240,48; 3303,617;  175,889;10003,455;31,82607
 241,08; 3173,678;  182,351; 9657,845;31,56909
 241,68; 3043,320;  216,735; 9405,264;30,76211
 242,28; 2885,960;  164,889; 9092,140;30,48050
 242,88; 2739,261;  217,120; 8844,048;29,23568
 243,48; 2597,044;  210,428; 8539,688;28,65340
 244,07; 2447,193;  198,197; 8305,456;27,74053
 244,67; 2330,083;  212,428; 8180,638;26,57629
 245,27; 2213,864;  207,582; 8020,637;25,67859
 245,87; 2124,039;  202,735; 7940,984;24,82866
 246,47; 2024,356;  195,120; 7905,266;23,72504
 247,06; 1933,103;  188,658; 7917,206;22,57144
 247,66; 1874,933;  182,658; 8001,876;21,64251
 248,26; 1866,409;  213,889; 8155,823;20,80752
 248,86; 1802,706;  196,274; 8323,092;19,76705
 249,46; 1719,487;  170,581; 8488,355;18,62164
 250,05; 1766,036;  208,505; 8889,937;17,94095
 250,65; 1737,335;  166,582; 9173,342;17,43971
 251,25; 1766,420;  189,658; 9635,681;16,69233
 251,85; 1783,272;  187,120;10180,646;15,97186
 252,44; 1834,692;  158,197;10737,534;15,84688
 253,04; 1915,942;  200,120;11459,686;15,23879
 253,64; 1943,406;  153,043;12098,464;14,98786
 254,24; 2095,977;  200,581;12955,909;14,85964
 254,84; 2185,872;  183,504;13809,432;14,69528
 255,43; 2301,904;  180,043;14792,636;14,52077
 256,03; 2465,431;  188,120;15635,471;14,74240
 256,63; 2583,796;  193,505;16648,755;14,52601
 257,23; 2762,776;  179,736;17466,164;14,94259
 257,82; 2926,328;  190,659;18317,750;15,09160
 258,42; 3064,643;  171,428;19093,814;15,28991
 259,02; 3319,636;  210,505;20034,920;15,68335
 259,62; 3436,733;  169,274;20667,680;15,94006
 260,21; 3637,323;  180,889;21124,964;16,50316
 260,81; 3777,384;  197,581;21563,090;16,75505
 261,41; 3922,905;  167,505;21953,623;17,23758
 262,01; 4166,814;  208,813;22371,429;17,85890
 262,60; 4257,776;  165,582;22700,703;18,15919
 263,20; 4464,251;  182,274;22984,717;18,77859
 263,80; 4641,508;  213,044;23145,817;19,31064
 264,40; 4750,651;  172,736;23239,186;19,84664
 264,99; 4981,637;  199,659;23434,194;20,58133
 265,59; 5104,653;  188,813;23637,145;20,96456
 266,19; 5268,952;  168,428;23854,922;21,53347
 266,78; 5488,956;  223,736;23827,111;22,30707
 267,38; 5568,485;  186,352;23809,664;22,78315
 267,98; 5694,307;  176,275;23888,705;23,27063
 268,58; 5822,071;  192,352;23919,496;23,72691
 269,17; 5953,704;  175,352;23946,242;24,30852
 269,77; 6038,903;  192,120;23651,977;24,92250
 270,37; 6129,408;  163,967;23594,736;25,45986
 270,96; 6247,082;  229,890;23477,474;25,88309
 271,56; 6316,227;  192,966;23174,664;26,64408
 272,16; 6373,433;  177,044;23038,738;27,10381
 272,75; 6440,106;  193,813;22949,456;27,44943
 273,35; 6577,045;  182,351;22947,835;28,08943
 273,95; 6688,396;  186,120;22897,791;28,62967
 274,54; 6733,423;  168,966;22845,018;28,94885
 275,14; 6946,996;  209,736;23211,307;29,29043
 275,74; 7077,555;  167,967;23262,106;29,91923
 276,33; 7341,166;  212,120;23670,379;30,39035
 276,93; 7511,871;  195,274;24000,998;30,73461
 277,53; 7728,878;  188,966;24480,551;31,03919
 278,12; 8030,030;  170,120;24882,707;31,80529
 278,72; 8322,530;  220,659;25607,498;31,91367
 279,32; 8582,029;  185,966;26004,984;32,51891
 279,91; 8960,888;  164,812;26785,849;33,04182
 280,51; 9179,906;  183,043;27319,255;33,15445
 281,11; 9571,935;  190,120;27968,527;33,77377
 281,70; 9813,619;  170,736;28412,107;34,14453
 282,30;10163,535;  178,505;28968,664;34,68209
 282,90;10485,567;  191,813;29335,835;35,32029
 283,49;10824,182;  204,813;29850,094;35,82145
 284,09;11080,316;  220,197;30314,267;36,08724
 284,69;11434,309;  211,120;30676,434;36,83923
 285,28;11689,718;  199,966;31044,701;37,25029
 285,88;12038,388;  241,428;31267,217;38,02308
 286,47;12165,584;  192,428;31271,345;38,52501
 287,07;12507,353;  222,120;31492,417;39,28723
 287,67;12803,890;  205,428;31487,842;40,27331
 288,26;12956,341;  177,659;31433,606;40,88400
 288,86;13242,515;  186,889;31461,481;41,74515
 289,46;13563,008;  197,428;31623,521;42,53020
 290,05;13871,514;  187,966;31607,345;43,55130
 290,65;14265,499;  194,659;31866,156;44,42746
 291,24;14577,793;  196,274;31915,746;45,33972
 291,84;14915,796;  207,659;32091,063;46,13101
 292,44;15288,206;  196,966;32171,186;47,19815
 293,03;15619,317;  263,735;32350,547;47,85636
 293,63;15877,691;  186,351;32543,282;48,49452
 294,22;16233,950;  213,197;32649,881;49,39085
 294,82;16301,447;  189,121;32769,966;49,45337
 295,41;16339,696;  181,889;32461,722;50,05542
 296,01;16509,996;  219,505;32380,643;50,65272
 296,61;16461,103;  201,735;32124,057;50,93416
 297,20;16357,190;  194,736;31846,388;51,06354
 297,80;16375,178;  202,658;31633,357;51,45453
 298,39;16248,811;  184,659;31252,493;51,70670
 298,99;16199,881;  212,274;31083,950;51,78730
 299,58;16088,254;  203,120;30912,072;51,72802
 300,18;15961,571;  222,428;30839,754;51,40600
 300,78;15840,934;  190,735;30427,035;51,75964
 301,37;15775,678;  210,121;30360,455;51,62648
 301,97;15708,209;  204,428;30473,968;51,21908
 302,56;15663,497;  192,890;30297,075;51,39022
 303,16;15587,726;  179,197;30194,819;51,33503
 303,75;15521,555;  186,812;30292,221;50,93684
 304,35;15645,230;  189,581;30519,139;50,95903
 304,94;15568,621;  189,351;30455,364;50,81366
 305,54;15485,799;  205,966;30414,317;50,58149
 306,13;15294,749;  160,504;30389,472;50,06537
 306,73;15156,161;  174,504;30209,665;49,88040
 307,33;15100,356;  198,043;30187,156;49,69241
 307,92;15068,654;  198,582;30198,638;49,56682
 308,52;15107,746;  174,274;30562,024;49,14306
 309,11;15224,940;  188,582;30980,083;48,83282
 309,71;15312,828;  169,505;31409,706;48,47384
 310,30;15326,289;  176,505;31509,075;48,35155
 310,90;15423,597;  213,889;31888,998;48,01785
 311,49;15323,125;  194,582;32070,343;47,46096
 312,09;15297,447;  162,120;32165,614;47,29273
 312,68;15423,397;  242,274;32598,653;46,91849
 313,28;15327,654;  162,505;32749,253;46,53778
 313,87;15205,785;  153,659;32846,403;46,04118
 314,47;15161,743;  186,967;33115,126;45,47711
 315,06;15164,344;  170,428;33197,019;45,39953
 315,66;15027,755;  169,351;33394,153;44,72082
 316,25;14801,968;  160,736;33337,011;44,13163
 316,85;14674,368;  160,351;33403,688;43,65993
 317,44;14614,782;  175,274;33484,692;43,34963
 318,04;14464,213;  157,351;33544,541;42,85135
 318,63;14303,484;  168,197;33588,018;42,29612
 319,22;14175,348;  182,120;33732,082;41,70862
 319,82;13970,013;  178,659;33856,351;40,95101
 320,41;13788,098;  204,043;33677,799;40,58121
 321,01;13676,454;  199,274;33829,393;40,07473
 321,60;13498,887;  185,274;33806,977;39,59827
 322,20;13222,220;  172,812;33782,649;38,82616
 322,79;13106,282;  210,735;33976,603;38,19107
 323,39;12939,299;  172,966;34015,257;37,72302
 323,98;12715,261;  168,043;33951,241;37,14041
 324,58;12577,069;  172,736;33805,455;36,88174
 325,17;12260,010;  185,582;33734,222;35,99081
 325,76;12047,465;  205,582;33616,207;35,44346
 326,36;11766,640;  173,120;33254,411;35,04555
 326,95;11472,175;  199,505;32984,694;34,38342
 327,55;11195,385;  174,043;32616,539;33,97193
 328,14;10867,141;  180,812;32335,871;33,23374
 328,74;10613,745;  205,351;31792,817;32,95103
 329,33;10280,397;  198,043;31487,061;32,22330
 329,92;10009,353;  164,505;31012,632;31,91392
 330,52; 9644,521;  194,043;30355,557;31,33290
 331,11; 9410,825;  183,966;30015,561;30,92982
 331,71; 9036,042;  189,505;29379,388;30,30686
 332,30; 8796,698;  202,197;28964,056;29,88159
 332,89; 8499,155;  227,428;28481,791;29,27593
 333,49; 8191,036;  199,351;27864,817;28,88686
 334,08; 7915,985;  191,889;27511,186;28,27341
 334,68; 7629,569;  193,505;27072,400;27,66507
 335,27; 7467,110;  201,812;26754,803;27,36151
 335,86; 7236,825;  239,889;26513,330;26,63121
 336,46; 7035,984;  194,428;26268,199;26,23923
 337,05; 6859,180;  183,813;26067,162;25,79020
 337,65; 6702,199;  173,813;26075,676;25,20431
 338,24; 6640,370;  232,120;25997,027;24,87201
 338,83; 6480,459;  211,505;25833,685;24,46691
 339,43; 6329,380;  175,120;25884,022;23,93824
 340,02; 6246,833;  195,890;25775,602;23,65525
 340,61; 6137,099;  176,274;25788,589;23,27328
 341,21; 6048,130;  209,813;25862,432;22,75915
 341,80; 5925,340;  185,351;25820,403;22,39117
 342,40; 5822,534;  189,966;25815,138;21,98060
 342,99; 5746,001;  184,889;25916,022;21,61239
 343,58; 5728,012;  188,351;26076,522;21,39843
 344,18; 5649,975;  197,889;26284,422;20,90000
 344,77; 5614,250;  182,197;26547,850;20,60276
 345,36; 5628,329;  170,120;26860,156;20,45036
 345,96; 5604,734;  209,889;27115,306;20,05115
 346,55; 5520,404;  181,504;27346,653;19,65349
 347,14; 5516,040;  178,581;27617,274;19,45231
 347,74; 5518,638;  157,581;28018,754;19,24204
 348,33; 5594,555;  186,120;28696,644;18,96996
 348,92; 5594,083;  196,889;29244,677;18,58040
 349,52; 5668,455;  157,350;29666,997;18,67561
 350,11; 5661,594;  185,043;29898,258;18,43136
 350,70; 5610,515;  182,812;30043,991;18,17645
 351,29; 5502,080;  177,659;29821,173;17,96150
 351,89; 5426,156;  188,736;29913,883;17,61949
 352,48; 5369,471;  162,197;29795,470;17,57239
 353,07; 5320,354;  191,889;29824,384;17,30689
 353,67; 5281,061;  198,581;29731,006;17,20983
 354,26; 5132,824;  184,043;29434,935;16,91839
 354,85; 5131,028;  188,812;29332,440;16,95814
 355,45; 5052,501;  171,813;29224,412;16,79949
 356,04; 5008,009;  179,812;29136,514;16,67385
 356,63; 4967,664;  216,043;28939,013;16,54293
 357,22; 4891,363;  186,505;28850,138;16,41403
 357,82; 4882,819;  186,198;28602,308;16,52803
 358,41; 4833,114;  209,736;28457,074;16,36749
 359,00; 4771,164;  176,274;28327,452;16,32219
 359,60; 4776,816;  189,274;28233,366;16,35832
 360,19; 4722,494;  179,966;28068,903;16,28792
 360,78; 4715,861;  199,351;27988,969;16,25251
 361,37; 4681,229;  181,659;27727,305;16,33496
 361,97; 4677,858;  187,351;27642,220;16,35596
 362,56; 4622,135;  181,582;27310,954;16,36806
 363,15; 4660,804;  232,889;27156,483;16,44622
 363,74; 4575,587;  186,351;26775,123;16,50785
 364,34; 4538,551;  210,120;26303,456;16,58826
 364,93; 4489,911;  181,813;25956,887;16,71420
 365,52; 4419,363;  153,505;25583,023;16,77522
 366,11; 4456,410;  178,043;25307,498;17,02531
 366,71; 4396,117;  183,813;24973,774;16,99198
 367,30; 4410,684;  191,813;24528,603;17,33536
 367,89; 4426,492;  222,428;24395,366;17,39161
 368,48; 4395,706;  199,351;24142,025;17,52668
 369,07; 4348,592;  192,043;23618,453;17,74301
 369,67; 4368,975;  207,659;23342,537;17,98720
 370,26; 4362,635;  178,659;23107,740;18,24747
 370,85; 4372,118;  187,428;22796,515;18,50888
 371,44; 4385,461;  190,889;22626,101;18,69638
 372,03; 4353,412;  172,659;22354,886;18,84731
 372,63; 4349,557;  161,197;22096,153;19,09446
 373,22; 4357,736;  177,582;21745,260;19,38157
 373,81; 4312,333;  162,582;21484,393;19,46247
 374,40; 4388,079;  169,735;21237,763;20,02249
 374,99; 4386,883;  174,428;21021,717;20,20625
 375,59; 4348,039;  169,120;20697,787;20,35650
 376,18; 4454,633;  191,966;20598,819;20,88841
 376,77; 4445,025;  198,659;20408,493;21,01139
 377,36; 4513,765;  208,505;20319,456;21,40754
 377,95; 4503,929;  203,505;20092,600;21,62202
 378,55; 4521,762;  170,197;19882,163;22,07575
 379,14; 4574,212;  189,120;19870,180;22,28077
 379,73; 4642,971;  191,351;19660,041;22,86554
 380,32; 4719,258;  199,505;19781,111;23,08163
 380,91; 4701,332;  173,582;19652,911;23,24387
 381,50; 4800,195;  194,428;19493,751;23,86491
 382,10; 4821,719;  164,659;19444,188;24,15547
 382,69; 4886,859;  160,120;19410,351;24,55419
 383,28; 4969,848;  203,120;19366,878;24,87366
 383,87; 4972,126;  175,505;19281,403;25,10545
 384,46; 5016,877;  165,813;19211,102;25,47120
 385,05; 5107,257;  207,659;19192,321;25,80819
 385,64; 5209,948;  189,274;19153,267;26,47477
 386,24; 5253,911;  165,274;19094,815;26,88199
 386,83; 5359,320;  201,428;19194,181;27,15716
 387,42; 5488,298;  198,043;19286,631;27,71423
 388,01; 5583,925;  188,352;19384,455;28,10765
 388,60; 5770,161;  181,428;19675,890;28,66831
 389,19; 5898,209;  163,890;19851,507;29,12652
 389,78; 6036,208;  172,506;20053,837;29,49351
 390,37; 6301,970;  235,198;20545,717;29,87010
 390,96; 6404,345;  185,813;20697,881;30,31646
 391,56; 6512,832;  181,814;20839,801;30,64683
 392,15; 6644,780;  172,429;21159,881;30,83915
 392,74; 6784,815;  151,968;21210,378;31,49738
 393,33; 6998,210;  182,352;21574,769;31,86110
 393,92; 7285,431;  195,045;21936,229;32,61269
 394,51; 7375,260;  165,198;22105,604;32,86202
 395,10; 7556,841;  206,353;22334,791;33,21738
 395,69; 7667,451;  197,122;22467,115;33,54437
 396,28; 7818,553;  191,276;22616,925;34,01140
 396,87; 7936,660;  200,354;22620,824;34,50555
 397,46; 8068,987;  196,277;22812,755;34,80962
 398,06; 8197,550;  207,585;23021,439;35,02242
 398,65; 8369,447;  186,971;23034,531;35,81335
 399,24; 8522,507;  204,048;23153,410;36,24702
 399,83; 8576,170;  181,434;23194,845;36,47759
 400,42; 8737,764;  216,897;23340,592;36,84907
 401,01; 8872,345;  192,744;23410,225;37,38390
 401,60; 9000,761;  206,900;23408,472;37,90201
 402,19; 9068,523;  219,055;23452,836;38,08880
 402,78; 9167,067;  218,596;23456,829;38,50754
 403,37; 9210,565;  204,675;23295,193;39,00255
 403,96; 9219,606;  206,986;23138,574;39,30221
 404,55; 9329,880;  217,604;23104,145;39,81500
 405,14; 9319,668;  202,607;22971,214;40,04224
 405,73; 9408,942;  213,840;22778,482;40,75005
 406,32; 9493,511;  212,996;22757,039;41,16615
 406,91; 9390,639;  217,076;22488,069;41,19063
 407,50; 9516,125;  215,077;22286,033;42,14158
 408,09; 9459,827;  191,539;22091,556;42,32092
 408,68; 9499,618;  207,925;21913,293;42,80827
 409,27; 9498,212;  193,770;21733,089;43,19747
 409,86; 9492,945;  206,306;21625,582;43,35646
 410,45; 9598,892;  233,151;21523,443;43,99066
 411,04; 9630,244;  223,996;21489,152;44,23315
 411,63; 9546,701;  218,147;21239,526;44,37651
 412,22; 9532,086;  215,145;21033,757;44,75294
 412,81; 9531,622;  229,222;20785,249;45,25388
 413,40; 9423,538;  237,144;20533,190;45,26199
 413,99; 9382,037;  278,067;20126,196;45,86815
 414,58; 9264,823;  196,990;19770,317;46,32750
 415,17; 9179,143;  210,914;19589,046;46,28015
 415,76; 9237,950;  206,145;19412,475;47,02515
 416,35; 9228,022;  202,068;19219,997;47,46024
 416,94; 9321,662;  237,761;19264,907;47,74179
 417,53; 9429,636;  201,606;19490,625;47,84085
 418,12; 9596,576;  208,221;19585,976;48,44914
 418,71; 9842,824;  233,759;19823,904;49,05050
 419,30; 9922,005;  216,452;20003,289;49,05055
 419,89;10076,842;  209,529;20200,787;49,35814
 420,48;10265,975;  235,221;20350,440;49,86649
 421,07;10360,768;  227,913;20547,339;49,86782
 421,66;10399,265;  197,605;20523,452;50,19058
 422,25;10462,949;  208,681;20441,884;50,68040
 422,84;10546,986;  244,296;20467,133;50,94582
 423,43;10495,885;  217,835;20204,469;51,42462
 424,02;10385,371;  236,219;19962,138;51,45084
 424,60;10214,953;  217,065;19606,941;51,56241
 425,19;10189,581;  218,296;19336,560;52,15581
 425,78;10204,768;  232,604;19274,681;52,36910
 426,37;10164,868;  238,373;19108,498;52,60429
 426,96;10179,082;  203,834;19034,526;52,97335
 427,55;10131,520;  219,757;18843,583;53,22087
 428,14;10068,984;  210,372;18597,684;53,61639
 428,73;10059,125;  212,680;18535,934;53,73742
 429,32;10071,974;  232,603;18493,947;53,88087
 429,91;10119,795;  242,834;18528,494;54,01479
 430,50;10072,512;  228,372;18356,212;54,30399
 431,08;10069,506;  234,295;18080,146;55,11203
 431,67;10028,674;  279,987;18101,671;54,70127
 432,26; 9994,861;  287,602;17955,940;54,94155
 432,85; 9871,234;  294,064;17598,413;55,34545
 433,44; 9691,052;  316,986;17209,777;55,49152
 434,03; 9538,146;  324,832;16901,479;55,58008
 434,62; 9331,276;  279,909;16528,690;55,70490
 435,21; 9265,746;  308,371;16289,582;56,04941
 435,79; 9223,883;  283,140;16073,929;56,61999
 436,38; 9187,950;  282,370;16032,005;56,54467
 436,97; 9147,733;  277,678;15945,304;56,61391
 437,56; 9067,848;  273,831;15686,080;57,05862
 438,15; 9031,094;  261,677;15673,361;56,90109
 438,74; 9114,691;  277,600;15653,412;57,47398
 439,33; 9145,361;  258,216;15678,154;57,63412
 439,91; 9166,928;  232,754;15758,901;57,54276
 440,50; 9286,043;  284,215;15791,105;58,05050
 441,09; 9313,281;  264,753;15927,054;57,77266
 441,68; 9350,808;  251,599;15847,027;58,34536
 442,27; 9396,667;  250,215;15855,998;58,60938
 442,86; 9416,660;  213,829;15895,016;58,68708
 443,44; 9426,166;  230,137;15949,850;58,49998
 444,03; 9538,732;  293,060;16007,625;58,83505
 444,62; 9486,871;  228,522;15839,041;59,30840
 445,21; 9393,744;  247,060;15662,234;59,33559
 445,80; 9372,945;  275,752;15579,797;59,44306
 446,39; 9242,935;  300,829;15382,504;59,29120
 446,97; 9130,044;  227,828;15161,275;59,61259
 447,56; 9007,372;  226,905;14913,420;59,78591
 448,15; 8892,354;  234,290;14828,971;59,32342
 448,74; 8799,633;  249,213;14518,444;59,92208
 449,33; 8773,437;  250,597;14418,740;60,15495
 449,91; 8596,732;  229,597;14204,505;59,87256
 450,50; 8523,618;  232,059;14000,971;60,21942
 451,09; 8460,865;  238,828;13895,427;60,20560
 451,68; 8406,416;  267,443;13811,310;60,09342
 452,26; 8374,471;  260,520;13742,481;60,18376
 452,85; 8344,487;  236,289;13641,557;60,48516
 453,44; 8345,620;  248,750;13616,667;60,56942
 454,03; 8376,682;  230,827;13558,093;61,12173
 454,61; 8356,686;  221,442;13543,266;61,06704
 455,20; 8453,232;  262,596;13727,143;60,83113
 455,79; 8431,528;  265,827;13714,342;60,71823
 456,38; 8520,807;  262,519;13841,772;60,81548
 456,97; 8561,695;  243,288;13823,702;61,25297
 457,55; 8564,719;  241,134;13864,112;61,09960
 458,14; 8578,839;  265,673;13856,102;61,16927
 458,73; 8574,400;  258,057;13794,557;61,43643
 459,31; 8619,703;  272,133;13801,002;61,70190
 459,90; 8604,094;  292,287;13894,709;61,10534
 460,49; 8751,094;  326,364;13979,122;61,70716
 461,08; 8752,147;  239,441;14041,256;61,67816
 461,66; 8812,553;  249,518;14148,009;61,61126
 462,25; 8840,441;  249,671;14169,362;61,71667
 462,84; 8893,135;  266,210;14233,855;61,76363
 463,43; 8823,703;  220,671;14197,392;61,55258
 464,01; 8867,102;  252,825;14211,433;61,71301
 464,60; 8849,401;  294,902;14133,045;61,81826
 465,19; 8664,658;  226,901;13917,146;61,63336
 465,77; 8702,406;  245,901;13931,470;61,79140
 466,36; 8649,949;  263,748;13781,592;62,03801
 466,95; 8453,136;  249,517;13545,097;61,70185
 467,53; 8279,762;  262,209;13231,631;61,81889
 468,12; 8077,024;  287,516;12985,825;61,34287
 468,71; 7987,600;  256,517;12769,913;61,78246
 469,29; 7807,625;  244,747;12563,421;61,39361
 469,88; 7719,905;  243,285;12255,789;62,24031
 470,47; 7788,646;  308,824;12429,383;61,71186
 471,06; 7717,426;  245,747;12327,576;61,84228
 471,64; 7823,175;  258,439;12426,475;62,16892
 472,23; 7806,318;  238,515;12484,723;61,79711
 472,81; 7877,172;  235,669;12537,077;62,11893
 473,40; 7946,514;  244,438;12699,088;61,84097
 473,99; 8161,159;  337,131;12877,102;62,39272
 474,57; 8143,888;  254,746;13007,664;61,86147
 475,16; 8213,800;  259,900;13135,527;61,77485
 475,75; 8322,220;  277,361;13270,843;61,91457
 476,33; 8352,071;  273,438;13301,278;62,01053
 476,92; 8380,821;  284,515;13382,495;61,81339
 477,51; 8429,919;  273,746;13473,078;61,79232
 478,09; 8406,671;  274,361;13432,183;61,80590
 478,68; 8377,919;  266,592;13402,743;61,74813
 479,27; 8383,985;  285,746;13431,990;61,60116
 479,85; 8394,462;  260,592;13449,749;61,67089
 480,44; 8409,397;  258,591;13565,837;61,25088
 481,02; 9166,304;  276,822;14805,194;61,18705
 481,61;10380,854;  287,591;16767,418;61,24617
 482,20;11104,147;  272,207;17955,114;61,25656
 482,78;11573,641;  308,668;18742,703;61,10964
 483,37;11843,867;  304,745;19311,268;60,71138
 483,95;11971,956;  325,591;19524,179;60,66261
 484,54;12127,635;  324,668;19721,819;60,84897
 485,13;11997,122;  299,667;19674,419;60,37473
 485,71;11871,105;  267,283;19359,168;60,77882
 486,30;11728,164;  311,514;19163,734;60,55865
 486,88;11533,712;  350,129;18790,873;60,64605
 487,47;11158,107;  319,360;18111,474;60,91883
 488,05;10627,594;  314,975;17285,299;60,76854
 488,64; 9861,090;  298,052;16075,825;60,61083
 489,23; 8780,313;  315,129;14276,871;60,63129
 489,81; 7518,891;  318,436;12269,871;60,24762
 490,40; 7121,168;  283,282;11577,264;60,54451
 490,98; 6965,906;  255,051;11339,911;60,54073
 491,57; 6829,257;  291,129;11214,719;59,85329
 492,15; 6829,785;  261,051;11135,031;60,40782
 492,74; 6764,280;  270,052;11148,520;59,69800
 493,32; 6690,389;  290,436;10980,505;59,86821
 493,91; 6651,764;  275,820;10887,486;60,08429
 494,50; 6589,651;  273,128;10879,117;59,55619
 495,08; 6515,365;  260,205;10835,710;59,14762
 495,67; 6554,006;  291,359;10817,349;59,49699
 496,25; 6428,056;  222,974;10657,382;59,46751
 496,84; 6428,428;  249,359;10687,065;59,19949
 497,42; 6369,138;  241,974;10616,052;59,06225
 498,01; 6338,826;  259,513;10542,979;59,11736
 498,59; 6225,588;  221,359;10499,036;58,42010
 499,18; 6175,802;  244,051;10458,382;58,07283
 499,76; 6221,438;  256,589;10363,917;59,01509
 500,35; 6082,818;  255,589;10202,439;58,58366
 500,93; 6004,897;  245,282;10220,783;57,73760
 501,52; 5943,129;  244,051;10134,040;57,62472
 502,10; 5956,627;  259,743;10034,794;58,27984
 502,69; 5794,121;  239,896; 9925,268;57,34653
 503,27; 5692,969;  222,743; 9663,925;57,94005
 503,86; 5641,017;  245,127; 9678,542;57,19975
 504,44; 5594,527;  218,819; 9571,680;57,47662
 505,03; 5413,389;  208,358; 9369,418;56,81691
 505,61; 5344,699;  219,127; 9253,244;56,73573
 506,19; 5264,408;  242,666; 9039,700;57,08449
 506,78; 5152,373;  224,588; 8895,900;56,82859
 507,36; 5036,457;  230,742; 8739,459;56,47990
 507,95; 4967,315;  229,127; 8601,409;56,59375
 508,53; 4885,976;  227,358; 8497,550;56,33022
 509,12; 4803,592;  239,357; 8385,061;56,03241
 509,70; 4707,723;  250,511; 8219,490;55,93203
 510,29; 4640,353;  258,126; 8094,530;55,92140
 510,87; 4505,715;  227,742; 7879,152;55,91091
 511,46; 4421,156;  218,434; 7755,661;55,75953
 512,04; 4330,506;  224,665; 7594,866;55,70868
 512,62; 4235,601;  243,050; 7412,305;55,68990
 513,21; 4139,825;  212,357; 7288,646;55,50180
 513,79; 4088,448;  222,741; 7188,436;55,49635
 514,38; 3958,006;  198,818; 7033,647;55,00047
 514,96; 3918,246;  251,511; 6942,352;54,80230
 515,54; 3820,768;  213,510; 6836,429;54,46627
 516,13; 3799,265;  222,664; 6752,168;54,77599
 516,71; 3718,666;  225,203; 6620,696;54,62382
 517,30; 3631,735;  213,356; 6522,758;54,17913
 517,88; 3577,755;  240,048; 6434,733;53,88017
 518,46; 3488,497;  222,279; 6292,771;53,80483
 519,05; 3473,516;  225,048; 6254,049;53,88070
 519,63; 3430,861;  231,433; 6195,050;53,64913
 520,22; 3382,694;  244,663; 6145,151;53,18257
 520,80; 3299,286;  231,971; 6080,477;52,44612
 521,38; 3323,170;  260,587; 6102,253;52,42653
 521,97; 3279,305;  229,971; 6046,601;52,42441
 522,55; 3221,722;  241,048; 6010,541;51,66266
 523,13; 3229,596;  219,817; 6021,370;51,87885
 523,72; 3180,209;  226,510; 5992,977;51,22198
 524,30; 3239,126;  235,432; 6131,945;50,94018
 524,89; 3218,589;  218,048; 6108,543;50,93869
 525,47; 3279,892;  243,740; 6228,118;50,73463
 526,05; 3280,635;  206,355; 6263,749;50,75252
 526,64; 3314,655;  238,201; 6358,619;50,26543
 527,22; 3354,048;  250,047; 6505,122;49,62373
 527,80; 3385,476;  266,816; 6599,458;49,24737
 528,39; 3419,996;  226,586; 6700,301;49,32886
 528,97; 3473,383;  224,124; 6868,512;48,90231
 529,55; 3540,472;  248,432; 6996,615;48,78409
 530,14; 3636,249;  252,739; 7200,328;48,70048
 530,72; 3614,751;  229,509; 7309,155;47,81654
 531,30; 3666,379;  208,585; 7461,193;47,67655
 531,89; 3695,272;  231,201; 7525,255;47,49171
 532,47; 3797,788;  267,355; 7669,762;47,69304
 533,05; 3756,416;  251,740; 7672,660;47,22698
 533,63; 3793,729;  261,355; 7705,221;47,45350
 534,22; 3748,159;  239,431; 7765,742;46,61949
 534,80; 3793,557;  251,277; 7789,344;46,99189
 535,38; 3860,015;  334,893; 7959,271;46,23488
 535,97; 3771,416;  251,508; 7886,881;46,10001
 536,55; 3792,087;  280,354; 7904,562;46,06030
 537,13; 3788,815;  288,047; 7905,877;45,95492
 537,71; 3798,685;  322,047; 7940,628;45,63367
 538,30; 3801,151;  334,893; 7993,909;45,25723
 538,88; 3842,593;  352,277; 8073,924;45,20170
 539,46; 3934,282;  410,585; 8243,361;44,98656
 540,05; 3953,722;  405,200; 8356,739;44,62685
 540,63; 4047,596;  441,046; 8556,673;44,43957
 541,21; 4096,957;  479,739; 8696,818;44,02073
 541,79; 4118,389;  478,508; 8803,419;43,72276
 542,38; 4170,823;  501,893; 8941,490;43,47281
 542,96; 4227,722;  520,892; 9065,114;43,38405
 543,54; 4316,534;  539,200; 9251,537;43,35615
 544,12; 4319,392;  493,816; 9436,371;42,77946
 544,70; 4350,285;  494,431; 9440,660;43,10033
 545,29; 4371,975;  504,893; 9648,795;42,29137
 545,87; 4360,081;  486,816; 9679,265;42,13529
 546,45; 4318,689;  465,200; 9709,311;41,68587
 547,03; 4362,086;  452,662; 9797,249;41,83625
 547,62; 4349,166;  418,585; 9934,378;41,30587
 548,20; 4403,991;  435,200;10100,372;41,06281
 548,78; 4382,786;  396,507;10219,879;40,57953
 549,36; 4463,906;  366,430;10373,605;40,94538
 549,94; 4476,811;  335,892;10554,876;40,52182
 550,53; 4549,973;  355,277;10762,159;40,30695
 551,11; 4535,607;  322,661;10924,151;39,73919
 551,69; 4613,864;  334,046;11276,010;39,11380
 552,27; 4671,033;  286,507;11465,523;39,22103
 552,85; 4777,547;  305,046;11817,508;38,84922
 553,44; 4863,404;  298,430;12110,552;38,64652
 554,02; 4962,875;  314,046;12431,922;38,36340
 554,60; 4995,414;  263,122;12768,432;37,84226
 555,18; 5124,645;  306,969;13114,437;37,61615
 555,76; 5253,121;  288,199;13433,121;37,77064
 556,34; 5331,166;  299,891;13810,378;37,23977
 556,93; 5392,333;  281,738;14192,200;36,73922
 557,51; 5491,717;  253,661;14467,113;36,85281
 558,09; 5620,981;  280,892;14830,679;36,70218
 558,67; 5666,185;  278,968;15220,656;36,05494
 559,25; 5720,563;  289,199;15470,982;35,77553
 559,83; 5824,938;  271,430;15684,502;36,03116
 560,41; 5916,936;  258,968;16098,894;35,71966
 561,00; 5950,138;  272,122;16391,747;35,22425
 561,58; 6012,248;  271,815;16682,131;34,98064
 562,16; 6082,344;  259,661;16993,673;34,79550
 562,74; 6180,151;  242,353;17349,904;34,70864
 563,32; 6212,417;  248,737;17697,474;34,17829
 563,90; 6370,508;  274,507;18129,547;34,14163
 564,48; 6431,014;  277,199;18495,332;33,77851
 565,06; 6556,085;  261,661;19084,344;33,44063
 565,65; 6757,723;  272,506;19659,953;33,45060
 566,23; 6936,183;  320,507;20376,806;32,98553
 566,81; 7137,195;  266,584;21113,723;32,95710
 567,39; 7366,046;  284,353;21934,158;32,71020
 567,97; 7501,569;  286,814;22473,937;32,51775
 568,55; 7801,913;  308,737;23278,264;32,62225
 569,13; 7925,119;  284,891;24018,772;32,19123
 569,71; 8169,515;  260,276;24926,337;32,06527
 570,29; 8417,336;  306,661;25849,126;31,75369
 570,87; 8629,497;  304,969;26426,877;31,86799
 571,45; 8775,066;  295,814;27080,061;31,65761
 572,03; 8833,417;  266,430;27550,446;31,39929
 572,61; 8989,146;  254,660;28285,190;31,16061
 573,20; 9217,991;  266,122;28927,400;31,23332
 573,78; 9328,739;  257,968;29476,135;31,04497
 574,36; 9363,264;  284,814;30004,297;30,54713
 574,94; 9475,327;  332,045;30271,657;30,53908
 575,52; 9416,876;  269,737;30613,817;30,14472
 576,10; 9584,724;  330,429;31103,233;30,07297
 576,68; 9644,296;  308,199;31576,386;29,85813
 577,26; 9837,549;  327,583;32303,583;29,74095
 577,84; 9890,842;  332,276;32728,658;29,50504
 578,42; 9913,674;  376,737;32927,349;29,29879
 579,00; 9852,447;  317,122;33151,719;29,04048
 579,58; 9823,017;  367,506;33271,577;28,73660
 580,16; 9756,385;  328,429;33317,731;28,57883
 580,74; 9722,363;  331,199;33552,907;28,26816
 581,32; 9664,499;  324,583;33524,886;28,13202
 581,90; 9571,695;  351,122;33594,888;27,73625
 582,48; 9555,784;  340,352;33723,007;27,60545
 583,06; 9489,891;  347,737;33760,973;27,36087
 583,64; 9468,374;  327,737;33886,412;27,23778
 584,22; 9345,168;  344,275;33797,948;26,90554
 584,80; 9227,687;  355,737;33566,622;26,71398
 585,38; 9033,032;  354,276;33161,122;26,45410
 585,96; 8919,465;  330,891;33270,794;26,07347
 586,54; 8899,382;  342,121;33252,646;26,00159
 587,12; 8822,873;  324,583;33408,996;25,68669
 587,70; 8822,443;  357,583;33443,200;25,58471
 588,28; 8751,737;  335,737;33477,737;25,39376
 588,86; 8697,212;  344,198;33657,805;25,07388
 589,44; 8599,958;  324,275;33671,790;24,81649
 590,02; 8557,303;  321,660;33925,022;24,50839
 590,59; 8507,308;  313,045;34083,572;24,26454
 591,17; 8537,165;  315,121;34274,314;24,21154
 591,75; 8488,817;  303,506;34374,881;24,02401
 592,33; 8465,410;  327,967;34620,470;23,72951
 592,91; 8398,001;  283,198;34771,483;23,52916
 593,49; 8424,345;  283,429;35189,194;23,32256
 594,07; 8451,348;  308,429;35345,736;23,24071
 594,65; 8348,867;  319,583;35391,958;22,89347
 595,23; 8320,352;  308,506;35716,319;22,62734
 595,81; 8304,885;  315,275;35977,566;22,40352
 596,39; 8266,603;  288,890;35999,112;22,34014
 596,97; 8225,125;  279,121;36227,315;22,10404
 597,55; 8105,477;  293,044;36122,513;21,80449
 598,12; 8037,263;  274,198;36072,980;21,68528
 598,70; 8010,263;  284,429;36219,292;21,49955
 599,28; 8004,616;  296,813;36361,352;21,37225
 599,86; 7983,806;  286,429;36401,068;21,31373
 600,44; 7880,938;  259,121;36511,113;21,02455
 601,02; 7826,392;  309,428;36583,477;20,72270
 601,60; 7764,430;  288,967;36581,955;20,59754
 602,18; 7738,084;  260,967;36646,587;20,54965
 602,75; 7633,830;  258,044;36623,544;20,28237
 603,33; 7603,030;  296,352;36645,520;20,10136
 603,91; 7547,244;  264,044;36615,284;20,03563
 604,49; 7518,857;  286,890;36678,160;19,87281
 605,07; 7464,604;  299,044;36855,161;19,60153
 605,65; 7416,328;  298,352;36857,453;19,46978
 606,23; 7401,056;  352,198;36919,186;19,27656
 606,80; 7353,569;  371,967;36917,299;19,10395
 607,38; 7317,965;  397,736;36983,195;18,91524
 607,96; 7288,802;  448,737;37046,533;18,68983
 608,54; 7242,298;  494,352;37144,670;18,41170
 609,12; 7245,153;  495,890;37068,744;18,45430
 609,70; 7195,302;  516,121;37209,858;18,20251
 610,27; 7137,918;  525,737;37198,868;18,03004
 610,85; 7080,153;  547,275;37267,095;17,79115
 611,43; 7052,787;  532,352;37325,555;17,72185
 612,01; 6922,613;  495,429;37049,020;17,58291
 612,59; 6916,903;  507,582;37110,812;17,51026
 613,16; 6824,736;  476,198;37032,424;17,36650
 613,74; 6775,768;  458,582;36940,426;17,31597
 614,32; 6651,110;  432,352;36958,187;17,02564
 614,90; 6580,250;  404,429;36767,355;16,98384
 615,48; 6492,800;  353,506;36608,174;16,93380
 616,05; 6375,100;  345,198;36442,961;16,70436
 616,63; 6342,477;  355,660;36314,979;16,64886
 617,21; 6263,288;  355,891;36290,669;16,43922
 617,79; 6194,278;  334,660;36184,525;16,34488
 618,36; 6114,497;  348,275;36073,224;16,14060
 618,94; 5956,977;  294,968;35842,409;15,92804
 619,52; 5907,329;  312,275;35522,166;15,89057
 620,10; 5842,843;  293,506;35553,048;15,73854
 620,67; 5732,599;  312,814;35336,347;15,47470
 621,25; 5698,492;  323,890;35166,448;15,42539
 621,83; 5635,453;  307,968;35156,147;15,28770
 622,41; 5633,073;  354,121;35207,230;15,14629
 622,98; 5534,710;  314,429;34947,136;15,07327
 623,56; 5456,828;  323,506;34908,705;14,84254
 624,14; 5386,869;  301,583;34790,615;14,74465
 624,72; 5311,470;  301,660;34705,503;14,56178
 625,29; 5272,565;  291,968;34756,457;14,45139
 625,87; 5244,385;  337,352;34837,231;14,22333
 626,45; 5179,688;  287,583;34537,878;14,28339
 627,02; 5102,656;  297,967;34593,361;14,00972
 627,60; 5050,402;  284,505;34423,962;13,96008
 628,18; 5001,768;  267,044;34534,974;13,81678
 628,76; 4961,919;  274,814;34532,158;13,68205
 629,33; 4932,627;  299,506;34593,022;13,51020
 629,91; 4928,843;  298,352;34596,202;13,50082
 630,49; 4917,179;  291,583;34616,041;13,47609
 631,06; 4871,528;  293,814;34768,072;13,27864
 631,64; 4844,820;  299,045;34820,439;13,16800
 632,22; 4757,899;  260,506;34666,778;13,07143
 632,79; 4792,251;  295,199;34991,453;12,96121
 633,37; 4732,087;  284,275;35015,678;12,80631
 633,95; 4745,814;  281,276;35039,175;12,84467
 634,52; 4691,934;  268,891;35190,506;12,66563
 635,10; 4720,036;  268,198;35175,229;12,75341
 635,68; 4689,760;  268,506;35361,208;12,59878
 636,25; 4641,393;  256,276;35344,339;12,49746
 636,83; 4619,689;  247,122;35544,697;12,38773
 637,41; 4584,773;  265,814;35562,766;12,23607
 637,98; 4592,902;  295,660;35762,758;12,11614
 638,56; 4628,547;  275,276;35837,239;12,24137
 639,13; 4557,730;  259,275;35831,727;12,08366
 639,71; 4545,372;  322,429;36043,761;11,82191
 640,29; 4439,921;  236,506;35850,715;11,80263
 640,86; 4465,931;  263,583;36069,057;11,73661
 641,44; 4439,479;  257,121;36085,707;11,67324
 642,02; 4452,951;  278,045;36048,048;11,67153
 642,59; 4391,345;  258,968;36266,775;11,47634
 643,17; 4379,586;  259,968;36193,270;11,46463
 643,74; 4328,519;  252,121;36194,381;11,34152
 644,32; 4342,221;  274,814;36117,261;11,34802
 644,89; 4288,462;  283,045;36183,449;11,15703
 645,47; 4284,318;  296,891;36196,868;11,10705
 646,05; 4225,713;  276,275;36075,132;11,03230
 646,62; 4199,646;  265,506;36104,320;10,97732
 647,20; 4219,194;  273,968;36276,047;10,95833
 647,77; 4095,973;  246,506;36035,696;10,75595
 648,35; 4089,906;  238,891;36043,038;10,75578
 648,92; 4062,070;  276,121;36050,379;10,58289
 649,50; 4035,003;  240,891;35983,798;10,61501
 650,08; 3996,013;  230,198;35946,140;10,54379
 650,65; 4018,100;  244,275;36039,712;10,54275
 651,23; 4047,264;  220,121;36745,823;10,47794
 651,80; 4149,197;  237,583;37683,165;10,44613
 652,38; 4188,899;  243,814;38092,660;10,42327
 652,95; 4212,063;  231,352;38508,002;10,39984
 653,53; 4198,996;  252,583;38739,728;10,25385
 654,10; 4255,391;  280,198;38903,685;10,29216
 654,68; 4158,016;  238,275;38753,873;10,17702
 655,25; 4160,488;  235,198;38879,907;10,15738
 655,83; 4166,036;  236,352;38977,403;10,14346
 656,40; 4142,661;  265,890;38915,821;10,03047
 656,98; 4131,748;  250,275;38815,932;10,06458
 657,55; 4110,143;  247,967;38672,659;10,05129
 658,13; 4014,076;  247,814;38286,923; 9,90103
 658,70; 4000,932;  269,429;38035,342; 9,88061
 659,28; 3871,019;  252,429;37316,914; 9,76296
 659,85; 3792,337;  252,429;36447,487; 9,78009
 660,43; 3759,500;  267,737;36491,752; 9,63936
 661,00; 3772,203;  245,660;36550,939; 9,71358
 661,58; 3785,982;  248,275;36974,358; 9,63268
 662,15; 3753,300;  231,429;37100,700; 9,55232
 662,73; 3822,925;  304,044;37354,734; 9,49748
 663,30; 3796,319;  244,736;37524,922; 9,52673
 663,88; 3817,560;  248,429;37750,802; 9,51708
 664,45; 3814,724;  235,506;37858,682; 9,51333
 665,03; 3868,580;  252,736;38361,639; 9,48819
 665,60; 3937,282;  331,506;38779,135; 9,37841
 666,17; 3875,908;  250,506;38898,553; 9,38056
 666,75; 3897,610;  239,275;39253,895; 9,37683
 667,32; 3944,235;  263,044;39464,698; 9,39040
 667,90; 3955,707;  246,890;39756,347; 9,38716
 668,47; 3968,025;  265,198;39945,535; 9,33164
 669,05; 3962,727;  240,813;40359,877; 9,27717
 669,62; 3955,429;  213,198;40359,911; 9,32139
 670,19; 3979,901;  229,736;40585,253; 9,29282
 670,77; 3981,449;  251,121;40779,671; 9,20420
 671,34; 3987,767;  249,736;40614,244; 9,26069
 671,92; 4010,161;  228,890;40997,816; 9,27489
 672,49; 4003,171;  260,582;40982,850; 9,19052
 673,06; 3985,566;  217,813;41101,115; 9,21587
 673,64; 3994,576;  232,582;41085,918; 9,20853
 674,21; 3971,278;  217,967;41002,568; 9,20277
 674,79; 4029,519;  246,736;41187,525; 9,23964
 675,36; 4040,529;  259,582;41342,174; 9,20328
 675,93; 4022,077;  232,429;41124,900; 9,26735
 676,51; 4036,703;  252,967;41300,550; 9,21793
 677,08; 4052,482;  256,813;41486,814; 9,20608
 677,65; 4031,184;  249,659;41574,925; 9,15064
 678,23; 4079,963;  245,967;41732,806; 9,24148
 678,80; 4033,050;  230,659;41832,301; 9,14000
 679,38; 4072,214;  241,582;41962,950; 9,18146
 679,95; 4118,839;  247,044;42179,446; 9,23342
 680,52; 4119,618;  234,659;42490,095; 9,19399
 681,10; 4183,859;  256,352;42735,129; 9,24581
 681,67; 4205,254;  249,121;43149,548; 9,22166
 682,24; 4174,879;  230,428;43186,197; 9,18259
 682,82; 4235,274;  238,352;43766,462; 9,18239
 683,39; 4291,438;  288,275;44063,112; 9,14490
 683,96; 4296,217;  240,505;44259,915; 9,21346
 684,54; 4338,227;  220,505;44663,795; 9,26511
 685,11; 4398,390;  268,813;45022,521; 9,22734
 685,68; 4417,785;  240,967;45434,324; 9,24211
 686,25; 4394,180;  223,659;45448,743; 9,22170
 686,83; 4449,497;  231,198;45624,777; 9,29272
 687,40; 4477,277;  218,275;45970,350; 9,30887
 687,97; 4596,594;  280,967;46409,537; 9,35565
 688,55; 4531,527;  218,736;46411,725; 9,33646
 689,12; 4578,153;  205,274;46692,990; 9,40652
 689,69; 4625,316;  227,659;46772,870; 9,44814
 690,26; 4600,865;  245,044;46844,366; 9,34739
 690,84; 4669,567;  249,274;47133,323; 9,42814
 691,41; 4699,269;  251,967;47222,664; 9,46825
 691,98; 4749,049;  244,967;47439,622; 9,54363
 692,56; 4703,597;  233,044;47516,809; 9,45473
 693,13; 4807,068;  287,659;47545,766; 9,56325
 693,70; 4782,848;  256,274;47684,877; 9,54397
 694,27; 4824,011;  243,890;47890,604; 9,61267
 694,84; 4817,868;  238,044;47984,253; 9,59202
 695,42; 4880,262;  276,582;48083,133; 9,62981
 695,99; 4890,195;  238,351;48293,629; 9,68019
 696,56; 4891,436;  243,121;48149,124; 9,70299
 697,13; 4958,369;  241,197;48488,697; 9,77703
 697,71; 4956,917;  225,582;48519,500; 9,79696
 698,28; 5011,158;  244,120;48871,380; 9,80322
 698,85; 4961,168;  196,659;48863,106; 9,79013
 699,42; 4996,563;  214,505;49072,371; 9,78769
 699,99; 5059,496;  242,044;49106,405; 9,85883
 700,57; 5101,890;  243,428;49142,055; 9,93578
 701,14; 5103,593;  231,505;49239,550; 9,94140
 701,71; 5167,910;  250,967;49401,815;10,00378
 702,28; 5169,228;  242,351;49536,310; 9,99489
 702,85; 5189,623;  245,967;49647,575;10,00707
 703,43; 5220,863;  257,197;49848,763;10,00909
 704,00; 5316,873;  280,582;50070,028;10,11518
 704,57; 5301,960;  247,274;50047,293;10,14997
 705,14; 5397,278;  289,582;50348,250;10,20342
 705,71; 5379,134;  280,582;50303,822;10,19237
 706,28; 5372,759;  253,274;50223,010;10,24517
 706,86; 5466,692;  276,966;50540,890;10,32495
 707,43; 5496,241;  298,351;50541,540;10,34546
 708,00; 5504,481;  284,582;50501,266;10,39475
 708,57; 5492,261;  263,043;50353,838;10,43948
 709,14; 5593,271;  285,966;50567,488;10,55518
 709,71; 5609,281;  264,582;50621,368;10,61366
 710,28; 5642,137;  258,428;50908,556;10,62921
 710,86; 5719,070;  260,351;50935,205;10,77205
 711,43; 5754,080;  282,197;50873,316;10,81590
 712,00; 5755,936;  266,582;51054,350;10,80842
 712,57; 5841,484;  278,659;51204,769;10,92333
 713,14; 5846,263;  255,813;51192,956;10,97520
 713,71; 5845,427;  265,120;51185,606;10,95886
 714,28; 5956,130;  257,197;51191,640;11,18876
 714,85; 5920,063;  239,505;50995,212;11,19196
 715,42; 5987,611;  249,351;51154,477;11,27246
 716,00; 6078,929;  309,120;51281,819;11,31941
 716,57; 6110,631;  250,659;51370,237;11,46326
 717,14; 6070,487;  238,197;51300,656;11,42187
 717,71; 6090,035;  230,659;51458,690;11,43783
 718,28; 6173,353;  268,889;51516,032;11,52155
 718,85; 6186,594;  227,351;51475,758;11,62815
 719,42; 6241,604;  260,889;51744,023;11,61684
 719,99; 6275,845;  224,197;51414,134;11,82195
 720,56; 6320,855;  265,428;51757,552;11,75991
 721,13; 6367,095;  251,735;51795,432;11,86442
 721,70; 6348,644;  232,812;51767,620;11,86738
 722,27; 6426,808;  265,659;51710,962;11,97612
 722,84; 6504,894;  306,889;51891,996;12,01511
 723,41; 6504,443;  236,197;51914,799;12,12929
 723,98; 6571,530;  241,428;52137,295;12,19770
 724,55; 6610,463;  275,351;52288,021;12,17994
 725,12; 6616,088;  207,812;52124,978;12,34327
 725,69; 6701,329;  238,197;52401,166;12,39027
 726,27; 6761,493;  230,812;52349,815;12,53032
 726,84; 6823,810;  249,120;52729,234;12,52797
 727,41; 6895,820;  268,428;52672,729;12,64666
 727,98; 6893,215;  266,043;52998,533;12,56753
 728,55; 7032,071;  287,428;52891,797;12,82145
 729,12; 7014,389;  243,581;53017,524;12,82983
 729,69; 7105,860;  254,658;53168,481;12,94785
 730,26; 7167,101;  274,274;53258,976;13,00909
 730,82; 7180,649;  261,274;53209,857;13,06810
 731,39; 7274,890;  261,581;53284,198;13,22701
 731,96; 7353,515;  237,735;53591,617;13,33695
 732,53; 7384,218;  247,274;53811,420;13,32411
 733,10; 7472,997;  268,504;53949,377;13,42097
 733,67; 7545,084;  266,504;54133,257;13,51219
 734,24; 7545,555;  250,120;53825,907;13,61704
 734,81; 7624,642;  280,197;53907,941;13,69523
 735,38; 7626,729;  261,889;53674,436;13,78860
 735,95; 7630,047;  266,735;53612,393;13,80302
 736,52; 7710,441;  266,504;53784,735;13,90916
 737,09; 7752,759;  269,504;53470,384;14,06604
 737,66; 7809,846;  307,889;53595,111;14,07834
 738,23; 7883,164;  265,043;53768,299;14,23861
 738,80; 7976,481;  318,197;53982,333;14,27077
 739,37; 8011,568;  279,274;54149,367;14,35359
 739,94; 8072,732;  261,581;54157,554;14,49301
 740,51; 8169,742;  367,658;54254,204;14,47872
 741,07; 8136,521;  261,350;54232,007;14,59158
 741,64; 8223,839;  286,504;54400,810;14,66772
 742,21; 8232,003;  251,504;54471,152;14,71883
 742,78; 8278,628;  234,812;54224,647;14,89876
 743,35; 8305,176;  254,427;54522,528;14,83514
 743,92; 8439,109;  286,581;54626,946;15,00271
 744,49; 8475,812;  289,581;54517,211;15,09605
 745,06; 8468,591;  251,812;54451,630;15,16016
 745,63; 8518,447;  249,504;54530,587;15,23356
 746,19; 8551,380;  251,197;54526,851;15,29265
 746,76; 8615,082;  267,273;54505,039;15,39114
 747,33; 8653,169;  251,966;54474,919;15,49381
 747,90; 8771,256;  281,658;54680,415;15,60624
 748,47; 8798,035;  267,658;54590,757;15,70304
 749,04; 8831,584;  273,966;54630,714;15,74343
 749,61; 8900,978;  298,043;54583,517;15,84758
 750,17; 9011,911;  276,658;54671,782;16,05889
 750,74; 9021,537;  280,966;54532,585;16,11117
 751,31; 9053,239;  246,350;54392,927;16,26490
 751,88; 9070,710;  240,581;54357,653;16,31672
 752,45; 9091,105;  263,581;54516,610;16,27103
 753,02; 9142,269;  274,812;54288,567;16,41703
 753,58; 9229,433;  246,043;54164,678;16,66101
 754,15; 9260,596;  246,889;54373,251;16,65308
 754,72; 9272,760;  246,581;54159,054;16,74228
 755,29; 9295,462;  236,043;53881,165;16,88769
 755,86; 9373,396;  264,966;54187,891;16,89157
 756,42; 9452,482;  272,735;54064,848;17,06523
 756,99; 9487,108;  224,273;53975,420;17,23281
 757,56; 9505,118;  239,966;53913,455;17,26206
 758,13; 9508,051;  201,042;53854,412;17,34655
 758,70; 9648,061;  232,966;53871,292;17,55293
 759,26; 9726,763;  221,273;53980,710;17,68153
 759,83; 9771,388;  229,042;54191,898;17,68317
 760,40; 9795,245;  218,581;53906,778;17,83756
 760,97; 9803,947;  211,119;54007,966;17,83158
 761,53; 9860,572;  198,119;53582,769;18,09968
 762,10; 9833,967;  209,581;53551,419;18,04285
 762,67; 9890,669;  230,042;53514,530;18,13028
 763,24; 9862,217;  184,658;53247,179;18,23803
 763,80; 9950,612;  214,427;53340,675;18,32651
 764,37; 9943,237;  230,504;53361,093;18,28087
 764,94; 9939,017;  208,119;52822,589;18,49472
 765,50; 9985,334;  211,965;52946,777;18,53305
 766,07;10056,190;  254,042;52927,195;18,60938
 766,64;10041,662;  224,350;52552,614;18,76101
 767,21;10077,826;  218,965;52491,648;18,86044
 767,77;10124,989;  248,581;52366,682;18,95005
 768,34;10134,922;  242,812;52319,100;18,99542
 768,91;10175,625;  262,735;52172,519;19,09638
 769,47;10254,558;  241,581;52192,476;19,27393
 770,04;10295,491;  247,581;52132,818;19,36564
 770,61;10239,732;  231,658;51836,467;19,39368
 771,18;10323,972;  222,658;51851,347;19,56531
 771,74;10381,059;  246,658;51982,997;19,58856
 772,31;10406,992;  250,119;51604,877;19,77786
 772,88;10364,925;  222,658;51556,680;19,75740
 773,44;10420,704;  222,273;51181,022;20,01311
 774,01;10462,638;  249,196;51415,979;19,96108
 774,58;10482,417;  233,273;50939,090;20,21295
 775,14;10507,734;  227,658;51202,201;20,16708
 775,71;10622,129;  248,042;51110,619;20,39631
 776,27;10695,370;  278,504;51012,346;20,53238
 776,84;10775,072;  313,965;51026,226;20,62836
 777,41;10729,236;  246,504;50938,414;20,67930
 777,97;10735,707;  242,888;50616,140;20,83014
 778,54;10808,948;  243,504;50645,482;20,96236
 779,11;10835,650;  258,657;50606,285;21,00793
 779,67;10885,122;  230,350;50565,857;21,16751
 780,24;10905,978;  239,888;50341,968;21,28872
 780,80;10952,680;  261,657;50384,002;21,32985
 781,37;11037,152;  254,657;50403,267;21,50108
 781,94;10997,623;  253,119;50158,455;21,52977
 782,50;11061,018;  253,965;50067,104;21,69518
 783,07;11148,489;  271,350;50151,600;21,80651
 783,63;11105,576;  233,196;49872,172;21,90291
 784,20;11123,048;  263,657;49880,052;21,88670
 784,77;11147,750;  255,196;49742,240;22,01092
 785,33;11161,683;  234,273;49513,582;22,17444
 785,90;11288,462;  243,273;49440,231;22,45096
 786,46;11295,011;  265,965;49383,727;22,45429
 787,03;11287,559;  234,888;49132,992;22,60348
 787,59;11313,954;  239,350;49034,026;22,69634
 788,16;11367,733;  256,196;48985,906;22,80239
 788,73;11419,435;  250,888;48871,863;22,97064
 789,29;11451,445;  253,042;48540,282;23,19123
 789,86;11455,763;  273,811;48516,469;23,17856
 790,42;11465,080;  242,042;48302,273;23,35203
 790,99;11458,090;  260,427;48008,922;23,45134
 791,55;11492,100;  237,965;47900,725;23,61201
 792,12;11544,572;  276,657;47962,375;23,62954
 792,68;11549,197;  254,503;47577,101;23,86744
 793,25;11493,592;  257,734;47439,366;23,81405
 793,81;11556,986;  312,888;47116,861;24,02381
 794,38;11497,766;  225,350;46937,588;24,13161
 794,94;11545,776;  251,196;46873,237;24,22584
 795,51;11519,785;  260,503;46507,963;24,34573
 796,07;11498,949;  259,119;46349,459;24,38652
 796,64;11624,959;  274,426;46439,262;24,58697
 797,20;11540,123;  255,349;45954,296;24,69373
 797,77;11532,133;  219,657;45690,868;24,87833
 798,33;11525,220;  253,888;45435,595;24,94667
 798,90;11581,307;  275,965;45412,090;25,04721
 799,46;11470,471;  249,042;44974,894;25,08936
 800,03;11548,481;  261,273;44955,543;25,25426
 800,59;11550,106;  267,734;44679,269;25,40415
 801,15;11547,501;  266,119;44432,534;25,54290
 801,72;11473,203;  263,965;44141,568;25,54661
 802,28;11556,136;  291,888;43863,833;25,85207
 802,85;11537,992;  250,196;43600,405;26,03862
 803,41;11474,310;  259,042;43474,132;25,95220
 803,98;11504,858;  235,657;42993,704;26,35574
 804,54;11454,253;  247,042;42791,046;26,34263
 805,11;11469,955;  265,426;42648,464;26,43635
 805,67;11495,503;  273,734;42621,344;26,49918
 806,23;11404,667;  260,195;42224,840;26,55681
 806,80;11468,754;  267,119;42102,182;26,77571
 807,36;11540,918;  278,965;41985,985;27,00254
 807,93;11524,697;  295,426;41694,557;27,12441
 808,49;11432,399;  244,349;41342,053;27,22305
 809,05;11423,563;  235,811;41225,856;27,29383
 809,62;11471,265;  266,042;41166,275;27,39648
 810,18;11487,122;  271,272;41068,693;27,49156
 810,74;11481,978;  224,042;40746,189;27,78218
 811,31;11484,372;  238,118;40570,069;27,88423
 811,87;11480,382;  258,272;40436,872;27,93056
 812,44;11552,931;  289,811;40546,599;27,97819
 813,00;11528,402;  226,349;40155,940;28,30496
 813,56;11596,412;  260,272;40242,051;28,35327
 814,13;11640,499;  250,811;40061,777;28,60942
 814,69;11583,432;  250,426;39945,965;28,54982
 815,25;11515,211;  221,118;39573,230;28,70009
 815,82;11606,529;  264,272;39530,956;28,88519
 816,38;11592,385;  280,657;39299,606;28,99035
 816,94;11554,010;  244,811;38886,178;29,26708
 817,51;11555,328;  227,272;38760,135;29,39843
 818,07;11485,953;  245,118;38539,862;29,35347
 818,63;11497,348;  253,272;38295,049;29,55718
 819,20;11517,358;  253,349;38296,314;29,60865
 819,76;11403,599;  236,272;37903,656;29,64721
 820,32;11533,070;  281,349;37784,228;30,00229
 820,89;11497,388;  267,657;37660,032;30,03214
 821,45;11478,936;  241,580;37324,604;30,30324
 822,01;11461,715;  254,580;37095,177;30,42061
 822,57;11473,033;  250,426;36942,826;30,58564
 823,14;11453,582;  227,580;36796,168;30,69848
 823,70;11470,053;  240,964;36530,817;30,94278
 824,26;11395,063;  250,811;36390,697;30,83643
 824,82;11452,535;  260,503;36265,347;31,08479
 825,39;11367,544;  241,272;36022,457;31,09532
 825,95;11404,401;  254,426;35859,568;31,31563
 826,51;11341,564;  260,810;35522,910;31,42398
 827,08;11465,882;  296,964;35612,790;31,62581
 827,64;11401,584;  261,118;35487,747;31,62513
 828,20;11328,748;  239,580;35122,166;31,78998
 828,76;11391,297;  268,964;35188,892;31,85096
 829,32;11402,768;  276,272;34981,542;32,05996
 829,89;11360,086;  229,272;34848,191;32,15240
 830,45;11472,788;  251,503;34805,840;32,47432
 831,01;11426,029;  255,657;34690,874;32,43880
 831,57;11398,962;  257,118;34537,831;32,50178
 832,14;11418,049;  241,887;34546,942;32,57876
 832,70;11376,212;  234,503;34260,438;32,74476
 833,26;11418,607;  212,887;34083,087;33,08430
 833,82;11470,771;  241,580;34121,660;33,14393
 834,38;11435,396;  233,349;34183,001;32,99606
 834,95;11465,714;  231,041;33988,959;33,28011
 835,51;11454,339;  211,349;33844,300;33,42850
 836,07;11518,580;  246,041;33888,180;33,50720
 836,63;11621,898;  258,656;33850,522;33,82736
 837,19;11576,138;  249,503;33726,556;33,83403
 837,75;11518,302;  209,195;33442,667;34,02927
 838,32;11648,697;  258,041;33587,701;34,17573
 838,88;11708,168;  259,041;33486,197;34,45714
 839,44;11668,640;  246,887;33432,615;34,41766
 840,00;11731,111;  246,349;33356,726;34,68629
 840,56;11675,814;  225,041;33103,299;34,82780
 841,12;11718,900;  222,887;33079,640;34,98828
 841,68;11708,910;  219,733;32875,597;35,18259
 842,25;11745,920;  236,118;32940,862;35,19307
 842,81;11661,853;  217,733;32632,511;35,30526
 843,37;11752,786;  209,349;32700,392;35,52806
 843,93;11802,950;  234,579;32576,503;35,76896
 844,49;11849,883;  247,887;32638,537;35,81897
 845,05;11802,432;  210,964;32443,263;35,96227
 845,61;11921,057;  248,349;32504,758;36,18725
 846,17;11938,529;  225,964;32370,639;36,43703
 846,73;12031,231;  238,195;32263,057;36,82463
 847,29;12033,395;  223,656;32047,553;37,10966
 847,86;12004,712;  226,041;32067,202;36,99197
 848,42;12012,722;  215,733;31826,159;37,31993
 848,98;12054,578;  240,810;31801,424;37,43200
 849,54;12095,204;  222,425;31832,996;37,55952
 850,10;12155,214;  232,502;31676,723;37,91702
 850,66;12115,147;  220,733;31480,757;38,04992
 851,22;12180,003;  224,118;31414,098;38,33245
 851,78;12285,936;  261,964;31578,363;38,39513
 852,34;12236,715;  240,887;31278,320;38,64955
 852,90;12248,341;  223,964;31231,739;38,77859
 853,46;12271,350;  224,887;30953,927;39,20221
 854,02;12297,591;  240,118;31026,961;39,16437
 854,58;12224,140;  231,810;30759,610;39,28331
 855,14;12261,842;  216,964;30743,029;39,45768
 855,70;12256,236;  193,733;30599,063;39,67233
 856,26;12296,554;  237,810;30437,712;39,92975
 856,82;12258,872;  215,502;30324,054;39,99983
 857,38;12325,497;  258,656;30237,626;40,25102
 857,94;12233,738;  243,579;30083,737;40,18128
 858,50;12300,209;  244,502;30073,694;40,41580
 859,06;12309,989;  228,733;29930,113;40,67574
 859,62;12262,075;  241,271;29801,531;40,66542
 860,18;12241,855;  234,502;29588,796;40,90493
 860,74;12269,095;  205,656;29468,676;41,22418
 861,30;12216,259;  205,887;29284,633;41,30292
 861,86;12283,962;  274,041;29379,437;41,26355
 862,42;12250,818;  236,271;29162,471;41,53517
 862,98;12297,135;  256,348;29163,658;41,65309
 863,54;12235,145;  227,502;28876,616;41,91279
 864,10;12291,924;  234,194;29001,265;41,91504
 864,66;12237,011;  216,579;28799,914;42,05399
 865,22;12140,175;  233,194;28585,025;41,99722
 865,78;12153,339;  239,964;28516,752;42,13129
 866,34;12196,118;  221,656;28415,478;42,47194
 866,90;12246,667;  240,425;28320,973;42,75644
 867,45;12150,523;  235,117;28097,546;42,76514
 868,01;12166,302;  235,271;27947,888;43,05270
 868,57;12140,312;  235,502;27802,614;43,18483
 869,13;12164,091;  215,271;27682,725;43,50174
 869,69;12177,332;  222,579;27569,297;43,71549
 870,25;12135,649;  206,348;27467,793;43,75887
 870,81;12197,736;  223,579;27456,596;43,96926
 871,37;12164,823;  235,425;27348,322;43,99898
 871,93;12208,295;  249,040;27184,664;44,39940
 872,49;12151,843;  256,271;27013,160;44,45798
 873,04;12069,392;  228,271;26833,040;44,50751
 873,60;12076,555;  214,579;26649,381;44,87257
 874,16;12139,027;  239,348;26672,877;45,01737
 874,72;12084,950;  233,656;26534,338;45,06079
 875,28;12067,027;  234,579;26443,877;45,14599
 875,84;12094,258;  234,348;26347,569;45,41726
 876,40;12142,642;  231,117;26285,031;45,71876
 876,95;12161,719;  239,117;26397,723;45,57812
 877,51;12229,181;  258,425;26291,569;45,98275
 878,07;12240,335;  264,810;26318,031;45,96562
 878,63;12286,181;  233,040;26292,262;46,25288
 879,19;12331,258;  243,656;26245,262;46,48791
 879,75;12325,181;  229,117;26307,185;46,38405
 880,30;12389,104;  228,502;26332,646;46,58495
 880,86;12562,873;  272,271;26449,569;46,95138
 881,42;12534,335;  226,425;26546,800;46,76191
 881,98;12648,258;  244,194;26562,262;47,13136
 882,54;12688,412;  219,271;26599,877;47,26632
 883,09;12801,950;  242,425;26769,646;47,34580
 883,65;12852,104;  219,579;26777,877;47,56527
 884,21;13019,873;  256,194;27130,338;47,49427
 884,77;13077,027;  218,656;27104,800;47,82527
 885,32;13229,488;  229,887;27285,415;48,04786
 885,88;13306,873;  263,348;27356,031;48,14409
 886,44;13421,335;  237,348;27508,108;48,34477
 887,00;13484,719;  250,117;27509,954;48,54982
 887,56;13544,335;  226,425;27624,338;48,60921
 888,11;13601,796;  235,733;27709,415;48,65043
 888,67;13709,027;  262,502;27831,877;48,77341
 889,23;13811,565;  248,348;27862,108;49,11760
 889,79;13756,719;  219,271;27716,108;49,23275
 890,34;13861,181;  245,348;27647,262;49,68935
 890,90;13963,488;  300,656;27796,338;49,69083
 891,46;13902,335;  225,963;27674,569;49,82538
 892,01;13973,258;  253,963;27663,262;50,05343
 892,57;13997,335;  269,117;27668,338;50,10441
 893,13;13954,950;  228,887;27430,723;50,46006
 893,69;13937,719;  218,194;27336,492;50,59139
 894,24;13933,873;  234,271;27304,492;50,60765
 894,80;13879,950;  237,733;27165,954;50,66141
 895,36;13860,181;  248,579;26965,415;50,94766
 895,91;13739,950;  238,117;26828,185;50,77773
 896,47;13797,565;  246,579;26687,031;51,25096
 897,03;13688,104;  232,040;26525,569;51,17633
 897,58;13714,873;  243,194;26447,646;51,40989
 898,14;13645,565;  248,348;26272,569;51,47980
 898,70;13626,258;  209,425;26179,877;51,66191
 899,25;13697,488;  232,194;26114,954;52,02418
 899,81;13627,873;  250,425;25893,338;52,16821
 900,37;13588,412;  214,656;25744,646;52,38449
 900,92;13588,412;  242,963;25775,262;52,26889
 901,48;13569,796;  232,194;25568,185;52,64291
 902,03;13599,181;  228,425;25457,415;52,99759
 902,59;13578,873;  225,579;25299,031;53,25670
 903,15;13587,719;  256,579;25161,108;53,52898
 903,70;13486,642;  237,117;24939,800;53,63598
 904,26;13409,412;  228,117;24813,646;53,61404
 904,82;13507,027;  241,656;24794,262;54,02836
 905,37;13523,796;  243,194;24693,954;54,31570
 905,93;13412,104;  225,887;24486,569;54,35221
 906,48;13489,412;  246,963;24453,954;54,70506
 907,04;13510,950;  252,194;24380,108;54,95194
 907,60;13449,335;  234,348;24218,262;55,09938
 908,15;13343,412;  232,425;24148,569;54,82065
 908,71;13380,488;  255,733;24069,338;55,11453
 909,26;13405,412;  225,733;23896,108;55,68006
 909,82;13317,181;  254,733;23816,338;55,43955
 910,37;13391,642;  271,271;23729,954;55,92970
 910,93;13265,488;  227,810;23522,415;55,96866
 911,48;13261,335;  229,425;23429,415;56,17205
 912,04;13221,181;  229,425;23388,415;56,09811
 912,60;13296,412;  247,963;23303,954;56,59461
 913,15;13267,335;  238,887;23178,262;56,79513
 913,71;13258,642;  231,733;22948,954;57,34376
 914,26;13211,950;  209,887;22946,262;57,18618
 914,82;13226,873;  235,040;22802,338;57,56929
 915,37;13206,181;  220,348;22777,646;57,56821
 915,93;13265,873;  275,117;22773,569;57,74067
 916,48;13249,412;  227,887;22531,185;58,38385
 917,04;13238,488;  241,656;22381,415;58,70359
 917,59;13235,412;  271,117;22314,569;58,81245
 918,15;13089,104;  208,502;22112,108;58,80585
 918,70;13110,950;  226,963;22023,031;59,11152
 919,26;13030,335;  235,271;22030,262;58,70644
 919,81;12947,796;  209,810;21829,646;58,91805
 920,37;13039,796;  225,733;21741,031;59,55792
 920,92;13037,488;  246,425;21623,185;59,83631
 921,48;12849,873;  215,348;21512,108;59,32604
 922,03;12971,719;  229,040;21410,338;60,16005
 922,59;12880,950;  231,040;21317,338;59,99114
 923,14;12842,950;  222,194;21176,262;60,23058
 923,69;12876,412;  240,194;21132,877;60,48155
 924,25;12879,950;  253,194;21044,415;60,73119
 924,80;12747,488;  226,579;20868,262;60,65838
 925,36;12764,873;  211,117;20797,262;60,98158
 925,91;12684,488;  224,425;20721,262;60,79018
 926,47;12758,873;  202,040;20647,646;61,41580
 927,02;12778,412;  276,579;20512,646;61,77995
 927,57;12725,642;  228,733;20392,800;61,97614
 928,13;12658,335;  218,117;20377,415;61,70958
 928,68;12601,412;  224,194;20252,646;61,79817
 929,24;12586,565;  202,502;20031,723;62,45361
 929,79;12529,950;  217,810;19900,800;62,55218
 930,34;12465,027;  226,425;19804,877;62,51057
 930,90;12411,950;  217,271;19774,800;62,35286
 931,45;12423,181;  244,887;19713,338;62,55399
 932,01;12358,488;  231,117;19565,954;62,72290
 932,56;12358,796;  251,348;19435,800;63,11073
 933,11;12378,488;  251,579;19512,569;62,96099
 933,67;12237,104;  213,502;19313,800;62,94981
 934,22;12295,258;  234,810;19217,723;63,53318
 934,77;12275,873;  255,656;19087,492;63,82924
 935,33;12157,335;  239,425;19034,415;63,41003
 935,88;12160,950;  240,963;18921,108;63,81100
 936,43;12092,796;  230,271;18932,108;63,42973
 936,99;12029,719;  230,502;18751,185;63,70833
 937,54;11967,488;  206,887;18640,338;63,80032
 938,09;11966,027;  236,887;18619,262;63,80645
 938,65;11917,027;  236,656;18427,492;64,21019
 939,20;11883,027;  198,963;18364,569;64,31970
 939,75;11838,950;  214,733;18285,185;64,32721
 940,31;11818,488;  211,887;18130,646;64,77347
 940,86;11835,412;  226,502;18268,877;64,34247
 941,41;11840,873;  304,656;18127,185;64,72829
 941,96;11717,565;  219,040;17919,954;64,96007
 942,52;11734,642;  222,194;17816,492;65,43284
 943,07;11668,104;  211,656;17773,031;65,23662
 943,62;11649,488;  221,194;17692,492;65,41182
 944,18;11680,642;  200,502;17581,338;66,05056
 944,73;11617,412;  230,502;17509,415;65,90061
 945,28;11508,950;  201,271;17347,800;65,94734
 945,83;11566,258;  223,733;17334,569;66,28855
 946,39;11561,181;  221,579;17267,262;66,52477
 946,94;11522,412;  246,194;17123,185;66,81415
 947,49;11428,488;  214,502;17098,723;66,41696
 948,04;11487,488;  254,425;17040,723;66,91805
 948,59;11462,565;  245,348;16976,415;67,04424
 949,15;11449,873;  201,040;16849,031;67,56871
 949,70;11397,719;  215,887;16771,954;67,53918
 950,25;11335,488;  232,579;16707,415;67,39314
 950,80;11375,565;  192,887;16579,646;68,24216
 951,36;11338,104;  195,887;16531,262;68,20913
 951,91;11356,719;  237,502;16589,569;67,99885
 952,46;11215,719;  206,887;16310,492;68,36253
 953,01;11286,488;  243,040;16344,108;68,58830
 953,56;11172,796;  200,656;16269,031;68,28407
 954,11;11169,335;  235,579;16165,723;68,63564
 954,67;11169,181;  221,194;16106,800;68,91765
 955,22;11033,488;  200,348;15992,262;68,59929
 955,77;11185,258;  248,733;15869,108;70,01448
 956,32;11088,412;  271,656;15821,108;69,56358
 956,87;11009,565;  216,194;15694,492;69,73229
 957,42;10977,412;  209,579;15672,954;69,63443
 957,98;10955,412;  213,348;15545,646;70,06167
 958,53;10882,642;  251,656;15550,108;69,49060
 959,08;10867,104;  213,502;15369,954;70,29087
 959,63;10797,104;  212,271;15321,185;70,05688
 960,18;10732,104;  238,656;15256,800;69,87180
 960,73;10672,412;  227,271;15170,108;69,90065
 961,28;10665,796;  208,963;15061,338;70,40512
 961,83;10668,642;  239,117;15030,723;70,50976
 962,39;10552,719;  199,348;14948,031;70,19862
 962,94;10561,950;  235,040;14895,031;70,44281
 963,49;10458,181;  222,733;14785,877;70,28323
 964,04;10516,258;  234,117;14735,646;70,90384
 964,59;10419,335;  203,348;14598,338;70,96904
 965,14;10449,104;  239,733;14495,877;71,61383
 965,69;10370,181;  226,656;14423,108;71,45113
 966,24;10333,412;  221,579;14324,569;71,69992
 966,79;10259,104;  233,502;14256,800;71,49247
 967,34;10174,335;  203,194;14163,338;71,42577
 967,89;10222,796;  216,963;14142,108;71,85443
 968,44;10130,873;  227,040;14020,262;71,80217
 968,99;10138,488;  238,887;13980,492;72,04109
 969,55;10090,565;  234,194;13892,723;72,16276
 970,10;10066,950;  233,348;13798,185;72,49333
 970,65;10000,412;  240,040;13688,492;72,57617
 971,20; 9950,104;  216,348;13657,108;72,41968
 971,75; 9869,642;  202,117;13495,031;72,72691
 972,30; 9845,565;  220,040;13411,723;72,96662
 972,85; 9859,412;  209,271;13331,338;73,54131
 973,40; 9720,950;  213,887;13211,185;73,14646
 973,95; 9737,258;  231,194;13158,954;73,53218
 974,50; 9625,335;  246,502;13112,185;72,89806
 975,05; 9616,565;  224,040;12960,723;73,74389
 975,60; 9571,950;  243,271;12940,185;73,47202
 976,15; 9512,412;  216,271;12856,492;73,54413
 976,70; 9475,488;  224,733;12813,569;73,48380
 977,25; 9415,027;  232,963;12737,338;73,43081
 977,80; 9342,181;  216,040;12609,108;73,63908
 978,35; 9258,335;  244,194;12436,646;73,93214
 978,89; 9193,488;  205,579;12416,723;73,60416
 979,44; 9234,565;  224,656;12397,262;74,01792
 979,99; 9112,104;  215,348;12183,800;74,33506
 980,54; 9131,873;  242,271;12102,185;74,95503
 981,09; 9055,796;  246,579;12018,492;74,83250
 981,64; 8997,412;  227,963;11855,492;75,41971
 982,19; 8979,719;  257,810;11853,108;75,21937
 982,74; 8883,873;  238,502;11709,338;75,36827
 983,29; 8843,642;  219,810;11567,569;75,99591
 983,84; 8772,181;  235,810;11517,877;75,66318
 984,39; 8793,412;  297,040;11455,031;76,14607
 984,94; 8657,565;  208,117;11331,262;75,96277
 985,49; 8658,181;  251,425;11260,108;76,36478
 986,03; 8633,950;  250,963;11164,723;76,81117
 986,58; 8560,181;  272,117;11078,338;76,69715
 987,13; 8500,950;  233,194;10914,569;77,40348
 987,68; 8419,719;  238,963;10783,492;77,58294
 988,23; 8445,796;  253,579;10731,646;78,18443
 988,78; 8363,642;  222,810;10619,108;78,30511
 989,33; 8286,412;  251,502;10543,569;78,06896
 989,88; 8264,027;  264,963;10469,646;78,38620
 990,42; 8129,873;  235,425;10364,415;77,93914
 990,97; 8077,335;  228,579;10242,415;78,37911
 991,52; 8065,258;  253,656;10198,415;78,54993
 992,07; 8040,181;  272,656;10096,338;79,06938
 992,62; 7925,104;  241,271; 9974,338;78,94564
 993,17; 7854,873;  257,733; 9848,569;79,21249
 993,71; 7792,181;  250,271; 9817,954;78,82692
 994,26; 7713,335;  230,733; 9626,262;79,64003
 994,81; 7725,873;  258,810; 9635,262;79,63634
 995,36; 7587,258;  228,887; 9457,569;79,73371
 995,91; 7536,412;  237,810; 9411,492;79,56022
 996,45; 7474,412;  240,502; 9291,338;79,92532
 997,00; 7408,335;  216,271; 9174,877;80,28106
 997,55; 7357,335;  238,810; 9163,108;79,76566
 998,10; 7325,258;  257,579; 9031,031;80,55756
 998,65; 7302,719;  228,579; 8961,031;81,00978
 999,19; 7203,335;  255,425; 8856,569;80,77890
 999,74; 7141,873;  267,194; 8783,338;80,72525
1000,29; 7128,335;  249,579; 8710,338;81,30187
1000,84; 6984,642;  238,963; 8544,338;81,22064
1001,38; 6944,335;  240,502; 8451,569;81,64386
1001,93; 6918,642;  249,194; 8414,262;81,68271
1002,48; 6791,258;  218,579; 8240,185;81,93720
1003,03; 6778,873;  250,117; 8217,877;81,93967
1003,57; 6711,181;  239,425; 8132,415;81,99371
1004,12; 6670,258;  271,656; 8023,415;82,54386
1004,67; 6597,565;  232,502; 7896,338;83,05323
1005,22; 6460,796;  219,733; 7790,723;82,43391
1005,76; 6353,488;  218,963; 7644,338;82,61569
1006,31; 6369,873;  246,502; 7624,185;82,99857
1006,86; 6277,258;  233,502; 7478,646;83,41802
1007,40; 6186,258;  216,579; 7400,800;83,09431
1007,95; 6137,027;  235,502; 7289,185;83,66587
1008,50; 6017,412;  244,425; 7210,492;82,87297
1009,04; 5997,027;  231,656; 7102,031;83,91640
1009,59; 5902,565;  243,733; 6969,262;84,13959
1010,14; 5864,642;  221,810; 6848,877;85,14826
1010,68; 5780,950;  233,656; 6776,415;84,78524
1011,23; 5736,412;  229,656; 6692,031;85,21257
1011,78; 5650,258;  249,579; 6658,415;84,26926
1012,32; 5632,027;  255,887; 6525,723;85,74610
1012,87; 5641,104;  259,502; 6550,492;85,54459
1013,42; 5542,565;  222,963; 6384,338;86,33790
1013,96; 5543,796;  265,733; 6379,723;86,32764
1014,51; 5458,412;  194,194; 6280,877;86,48746
1015,06; 5463,104;  204,348; 6287,954;86,44143
1015,60; 5491,104;  271,425; 6351,492;85,84903
1016,15; 5516,181;  229,348; 6284,108;87,31697
1016,69; 5534,642;  236,348; 6322,877;87,04952
1017,24; 5533,412;  214,733; 6312,262;87,22679
1017,79; 5619,335;  264,040; 6395,800;87,33699
1018,33; 5626,565;  224,271; 6389,492;87,62531
1018,88; 5686,104;  246,963; 6421,569;88,08887
1019,42; 5678,719;  231,887; 6428,877;87,89481
1019,97; 5689,719;  223,117; 6424,492;88,15145
1020,51; 5757,027;  257,810; 6518,415;87,83842
1021,06; 5762,412;  227,040; 6444,415;89,03068
1021,61; 5728,104;  202,040; 6436,646;88,63533
1022,15; 5700,412;  193,040; 6387,723;88,90481
1022,70; 5708,796;  231,348; 6428,954;88,38007
1023,24; 5654,873;  218,040; 6360,723;88,50909
1023,79; 5636,181;  225,733; 6285,185;89,28940
1024,33; 5584,873;  238,502; 6243,723;89,02871
1024,88; 5541,412;  237,810; 6147,646;89,74194
1025,42; 5463,950;  227,810; 6068,800;89,64474
1025,97; 5413,258;  222,425; 5988,262;90,02740
1026,51; 5325,412;  185,733; 5866,185;90,48010
1027,06; 5275,258;  216,887; 5799,877;90,60326
1027,60; 5224,335;  230,887; 5729,877;90,80663
1028,15; 5159,412;  239,579; 5657,954;90,79904
1028,69; 5043,950;  197,810; 5499,492;91,40759
1029,24; 5031,181;  205,579; 5504,108;91,07437
1029,78; 4951,873;  220,810; 5407,954;91,20748
1030,33; 4858,488;  204,810; 5274,415;91,79568
1030,87; 4794,488;  217,271; 5212,646;91,62910
1031,42; 4713,642;  210,579; 5106,108;91,98319
1031,96; 4646,488;  233,117; 5087,108;90,92254
1032,51; 4615,642;  210,810; 4997,877;92,01527
1033,05; 4576,565;  221,425; 4939,492;92,30772
1033,60; 4451,719;  193,502; 4842,108;91,60203
1034,14; 4443,181;  217,194; 4740,338;93,43028
1034,69; 4385,104;  217,810; 4734,800;92,25820
1035,23; 4350,412;  223,963; 4670,338;92,80477
1035,77; 4263,873;  206,348; 4589,723;92,56623
1036,32; 4186,181;  202,348; 4498,723;92,72544
1036,86; 4162,796;  223,887; 4455,338;93,08648
1037,41; 4095,565;  235,579; 4392,646;92,85360
1037,95; 4021,104;  202,194; 4299,262;93,21081
1038,50; 3988,565;  213,425; 4267,262;93,12513
1039,04; 3969,258;  234,425; 4237,492;93,29927
1039,58; 3918,565;  195,963; 4155,415;94,01811
1040,13; 3852,258;  223,194; 4076,954;94,16943
1040,67; 3846,488;  252,271; 4112,800;93,10168
1041,21; 3787,104;  254,502; 4004,954;94,19137
1041,76; 3707,335;  203,502; 3916,723;94,36100
1042,30; 3675,104;  213,579; 3875,800;94,51982
1042,85; 3590,950;  214,579; 3803,877;94,06773
1043,39; 3533,258;  204,656; 3776,262;93,19623
1043,93; 3539,181;  242,887; 3720,185;94,79470
1044,48; 3465,719;  232,887; 3651,646;94,56157
1045,02; 3410,565;  228,810; 3589,954;94,66288
1045,56; 3401,335;  236,040; 3571,723;94,89195
1046,11; 3386,719;  223,425; 3528,877;95,69930
1046,65; 3323,412;  226,963; 3464,800;95,63324
1047,19; 3240,488;  219,656; 3415,108;94,53538
1047,74; 3171,412;  205,271; 3355,185;94,16577
1048,28; 3182,565;  237,887; 3336,031;95,04654
1048,82; 3164,950;  243,117; 3300,800;95,55709
1049,37; 3099,488;  236,579; 3249,646;95,01645
1049,91; 3076,873;  228,425; 3218,492;95,26368
1050,45; 3039,104;  236,425; 3167,569;95,61723
1050,99; 2980,873;  230,963; 3094,031;96,04768
1051,54; 2932,181;  212,656; 3051,338;95,80236
1052,08; 2932,873;  250,810; 3051,031;95,78042
1052,62; 2888,258;  245,040; 2967,262;97,09782
1053,16; 2808,796;  220,502; 2939,031;95,20937
1053,71; 2811,488;  231,348; 2928,800;95,65102
1054,25; 2756,565;  250,348; 2871,723;95,60697
1054,79; 2697,335;  236,194; 2834,723;94,71284
1055,33; 2663,873;  205,425; 2745,338;96,79259
1055,88; 2660,642;  227,733; 2742,031;96,76297
1056,42; 2617,642;  248,271; 2701,108;96,59719
1056,96; 2587,104;  240,579; 2691,954;95,72281
1057,50; 2531,488;  231,117; 2631,646;95,82768
1058,05; 2509,412;  230,194; 2593,492;96,44223
1058,59; 2495,873;  261,040; 2549,723;97,64712
1059,13; 2389,565;  220,963; 2494,877;95,36871
1059,67; 2397,565;  243,040; 2494,877;95,67857
1060,21; 2326,027;  227,502; 2447,338;94,53511
1060,76; 2355,335;  240,963; 2425,646;96,78161
1061,30; 2319,412;  260,040; 2402,108;96,13942
1061,84; 2277,027;  229,425; 2340,569;96,99015
1062,38; 2190,412;  224,963; 2288,569;95,24339
1062,92; 2213,796;  266,348; 2291,569;96,15977
1063,46; 2187,719;  242,502; 2226,338;98,05331
1064,01; 2140,642;  221,579; 2198,954;97,05106
1064,55; 2116,104;  237,271; 2185,185;96,45360
1065,09; 2072,104;  209,502; 2115,800;97,70780
1065,63; 2098,104;  256,656; 2158,185;96,84040
1066,17; 2061,642;  264,810; 2132,108;96,22635
1066,71; 2036,181;  244,733; 2082,262;97,49224
1067,25; 1993,565;  235,733; 2033,262;97,79163
1067,80; 1993,258;  249,810; 2043,492;97,19936
1068,34; 1974,565;  265,271; 2001,723;98,43602
1068,88; 1909,642;  232,502; 1952,262;97,52179
1069,42; 1936,027;  263,810; 1965,877;98,24625
1069,96; 1898,027;  228,194; 1935,415;97,80998
1070,50; 1910,258;  274,117; 1929,108;98,86102
1071,04; 1837,565;  226,117; 1859,031;98,68545
1071,58; 1832,565;  233,271; 1835,646;99,80774
1072,12; 1808,104;  241,040; 1829,108;98,67740
1072,66; 1792,027;  227,656; 1794,877;99,81815
1073,21; 1791,181;  263,579; 1804,108;99,16088
1073,75; 1756,488;  238,656; 1770,108;99,11070
1074,29; 1750,873;  239,040; 1763,492;99,17221
1074,83; 1726,335;  255,656; 1743,415;98,85191
1075,37; 1713,258;  259,656; 1720,185;99,52573
1075,91; 1691,565;  253,040; 1706,492;98,97300
1076,45; 1667,642;  243,194; 1687,877;98,59937
1076,99; 1661,719;  248,502; 1652,185;100,67926
1077,53; 1610,027;  221,502; 1613,492;99,75105
1078,07; 1622,258;  246,887; 1641,646;98,60991
1078,61; 1586,642;  244,887; 1574,723;100,89629
1079,15; 1568,642;  236,271; 1582,569;98,96554
1079,69; 1553,873;  237,271; 1560,108;99,52869
1080,23; 1577,412;  266,810; 1560,646;101,29579
1080,77; 1592,488;  285,502; 1570,800;101,68743
1081,31; 1501,488;  228,579; 1496,492;100,39405
1081,85; 1512,796;  243,810; 1501,954;100,86177
1082,39; 1491,335;  232,194; 1446,031;103,73229
1082,93; 1475,642;  250,887; 1446,800;102,41174
1083,47; 1434,642;  234,117; 1421,415;101,11404
1084,01; 1452,258;  253,810; 1440,415;100,99800
1084,55; 1407,642;  233,963; 1397,185;100,89903
1085,09; 1402,412;  255,040; 1391,646;100,94715
1085,63; 1373,719;  245,579; 1357,108;101,49448
1086,17; 1378,335;  233,502; 1338,415;103,61288
1086,71; 1345,104;  231,425; 1309,723;103,28117
1087,24; 1366,565;  266,502; 1353,877;101,16689
1087,78; 1343,412;  255,963; 1318,492;102,34528
1088,32; 1297,719;  226,271; 1264,415;103,20802
1088,86; 1322,412;  255,733; 1294,415;102,69535
1089,40; 1277,642;  243,348; 1259,723;101,76305
1089,94; 1263,335;  225,348; 1232,954;103,01514
1090,48; 1256,565;  257,733; 1234,185;102,29205
1091,02; 1264,565;  253,963; 1229,800;103,56262
1091,56; 1262,181;  252,656; 1207,338;105,74456
1092,10; 1196,565;  228,348; 1182,646;101,45858
1092,63; 1222,873;  257,963; 1209,723;101,38165
1093,17; 1219,258;  256,502; 1174,185;104,91162
1093,71; 1172,104;  238,194; 1144,338;103,06412
1094,25; 1191,412;  257,425; 1153,492;104,23174
1094,79; 1169,950;  248,425; 1127,800;104,79318
1095,33; 1138,104;  256,271; 1120,031;102,09237
1095,87; 1155,488;  251,425; 1102,492;106,22702
1096,40; 1116,412;  223,963; 1088,492;103,22942
1096,94; 1124,488;  242,117; 1075,877;105,83040
1097,48; 1129,565;  252,040; 1080,031;105,98251
1098,02; 1096,796;  245,040; 1037,646;107,46273
1098,56; 1053,719;  212,348; 1026,800;103,30520
1099,10; 1034,950;  227,348; 1004,877;103,86778
1099,63; 1056,258;  233,040;  997,723;107,65476
1100,17; 1056,719;  248,963; 1012,646;105,77112
1100,71; 1066,258;  262,733; 1020,338;106,06110

