
Integration time [ms]: 120,000
Averaging Nr. [scans]: 13
Smoothing Nr. [pixels]: 0
Data measured with spectrometer [name]: 2009305U1
Wave   ;Sample   ;Dark     ;Reference;Reflectance
[nm]   ;[counts] ;[counts] ;[counts] ;[%]

 175,72;  201,335;  198,566;  203,486;56,28084
 176,32;  231,182;  219,407;  208,673; 0,00000
 176,92;  245,974;  225,488;  238,333;159,47941
 177,52;  258,558;  249,642;  262,106;71,53469
 178,12;  237,447;  222,099;  228,158;253,32033
 178,72;  265,187;  259,021;  245,677; 0,00000
 179,32;  265,941;  244,330;  240,398; 0,00000
 179,92;  255,371;  240,255;  252,059;128,05832
 180,52;  236,170;  231,723;  249,371;25,19624
 181,12;  246,804;  239,332;  250,633;66,12035
 181,73;  278,596;  258,641;  266,350;258,83554
 182,33;  325,167;  284,028;  295,841;348,25623
 182,93;  266,056;  254,488;  255,469; 0,00000
 183,53;  238,214;  227,174;  226,551; 0,00000
 184,13;  244,772;  237,636;  225,468; 0,00000
 184,73;  264,619;  249,327;  254,503;295,44944
 185,33;  257,304;  226,295;  344,225;26,29458
 185,93;  270,760;  240,752;  352,455;26,86359
 186,53;  279,410;  255,370;  364,379;22,05359
 187,13;  303,963;  264,836;  412,009;26,58577
 187,73;  267,130;  232,522;  362,733;26,57820
 188,33;  270,900;  233,135;  381,478;25,45782
 188,93;  279,487;  240,205;  374,876;29,16866
 189,53;  277,030;  250,277;  378,185;20,91617
 190,13;  313,717;  273,960;  414,815;28,22543
 190,73;  259,785;  215,428;  353,059;32,22893
 191,34;  291,107;  259,511;  384,128;25,35493
 191,94;  265,810;  225,133;  350,519;32,44164
 192,54;  279,544;  248,608;  384,313;22,79655
 193,14;  284,520;  260,220;  390,699;18,62354
 193,74;  285,664;  241,065;  380,441;31,99863
 194,34;  275,487;  239,375;  385,056;24,78841
 194,94;  247,248;  207,681;  342,061;29,44429
 195,54;  225,790;  204,833;  332,974;16,35428
 196,14;  251,434;  217,529;  369,402;22,32410
 196,74;  257,361;  215,678;  347,155;31,70351
 197,34;  231,809;  195,224;  346,549;24,17606
 197,94;  267,793;  229,220;  373,581;26,71941
 198,54;  260,731;  229,683;  379,896;20,66925
 199,14;  245,182;  212,610;  390,008;18,36103
 199,74;  235,531;  198,457;  379,646;20,46145
 200,34;  229,660;  197,842;  390,264;16,53551
 200,94;  269,542;  225,377;  428,974;21,69210
 201,54;  255,347;  216,302;  441,608;17,32965
 202,14;  276,179;  216,227;  462,095;24,38382
 202,74;  257,035;  208,610;  486,930;17,39884
 203,34;  242,274;  196,768;  509,732;14,54029
 203,94;  221,382;  176,997;  522,669;12,84009
 204,54;  299,887;  236,374;  596,561;17,63339
 205,14;  253,018;  198,764;  609,579;13,20649
 205,74;  304,962;  233,383;  705,303;15,16763
 206,34;  273,437;  202,304;  730,183;13,47513
 206,94;  277,344;  217,842;  803,772;10,15507
 207,54;  260,325;  188,535;  818,775;11,39098
 208,14;  280,829;  203,382;  928,042;10,68744
 208,74;  301,907;  204,302; 1008,479;12,13723
 209,34;  318,016;  201,918; 1088,856;13,08976
 209,94;  328,310;  218,995; 1208,459;11,04788
 210,54;  327,394;  213,382; 1299,034;10,50165
 211,14;  348,691;  215,149; 1412,876;11,14960
 211,73;  354,175;  200,840; 1527,244;11,56019
 212,33;  374,348;  217,762; 1648,567;10,94388
 212,93;  360,288;  204,841; 1725,665;10,22124
 213,53;  335,255;  182,687; 1796,194; 9,45569
 214,13;  378,627;  191,000; 1874,334;11,14617
 214,73;  359,718;  191,766; 1898,095; 9,84288
 215,33;  348,541;  169,995; 1920,998;10,19676
 215,93;  385,630;  197,460; 2050,324;10,15565
 216,53;  375,581;  149,610; 2130,499;11,40759
 217,13;  424,501;  210,844; 2382,397; 9,83890
 217,73;  427,788;  177,537; 2579,907;10,41684
 218,33;  400,198;  153,616; 2783,249; 9,37705
 218,93;  453,459;  174,774; 3072,845; 9,61622
 219,53;  470,238;  189,847; 3389,579; 8,76297
 220,13;  486,780;  163,924; 3728,452; 9,05746
 220,73;  529,083;  178,149; 4076,196; 9,00282
 221,32;  561,215;  187,918; 4495,556; 8,66593
 221,92;  597,649;  189,924; 4912,802; 8,63297
 222,52;  631,976;  173,460; 5400,007; 8,77283
 223,12;  670,867;  183,845; 5767,690; 8,72198
 223,72;  737,984;  197,307; 6192,789; 9,01808
 224,32;  767,126;  197,307; 6643,021; 8,84027
 224,92;  785,182;  179,461; 6989,549; 8,89448
 225,52;  835,384;  194,611; 7395,180; 8,89892
 226,12;  871,527;  188,998; 7768,946; 9,00441
 226,72;  871,606;  170,536; 8113,362; 8,82646
 227,31;  908,894;  153,766; 8520,120; 9,02576
 227,91;  977,557;  188,073; 8949,331; 9,01108
 228,51; 1035,898;  180,301; 9448,317; 9,23172
 229,11; 1085,110;  176,843; 9856,570; 9,38319
 229,71; 1118,458;  171,764;10194,401; 9,44556
 230,31; 1188,724;  170,308;10676,345; 9,69363
 230,91; 1206,164;  168,915;10982,606; 9,59199
 231,51; 1268,537;  160,691;11344,280; 9,90600
 232,10; 1365,372;  168,308;11709,875;10,37176
 232,70; 1427,871;  187,451;11933,902;10,55995
 233,30; 1494,047;  192,844;12198,872;10,83792
 233,90; 1531,565;  179,152;12314,399;11,14451
 234,50; 1588,911;  178,614;12487,313;11,45773
 235,10; 1654,182;  173,922;12540,626;11,96972
 235,70; 1733,429;  185,380;12576,880;12,49283
 236,29; 1776,355;  187,687;12620,006;12,77853
 236,89; 1823,777;  167,146;12451,267;13,48595
 237,49; 1927,517;  187,921;12428,441;14,21179
 238,09; 1907,898;  173,381;12143,413;14,49049
 238,69; 1975,320;  196,452;11868,347;15,24061
 239,29; 1961,388;  172,073;11594,147;15,66541
 239,89; 1985,951;  193,146;11243,509;16,22395
 240,48; 1990,186;  167,997;10851,171;17,05662
 241,08; 1984,247;  180,073;10506,454;17,47150
 241,68; 2013,605;  194,920;10155,041;18,25966
 242,28; 1955,398;  174,075; 9827,002;18,45371
 242,88; 1999,668;  192,692; 9558,279;19,29378
 243,48; 1970,707;  204,997; 9258,649;19,50274
 244,07; 1943,536;  193,073; 9013,704;19,84511
 244,67; 1969,448;  196,843; 8945,702;20,26099
 245,27; 1984,406;  196,840; 8755,090;20,88705
 245,87; 1990,850;  195,846; 8680,706;21,15538
 246,47; 2008,041;  175,763; 8629,563;21,67402
 247,06; 2010,917;  184,765; 8722,642;21,38882
 247,66; 2033,655;  174,920; 8733,030;21,71899
 248,26; 2082,849;  226,533; 8884,631;21,44023
 248,86; 2139,968;  199,840; 9152,915;21,66996
 249,46; 2135,958;  160,844; 9355,950;21,48005
 250,05; 2238,182;  191,612; 9730,434;21,45516
 250,65; 2269,665;  162,455;10109,593;21,18408
 251,25; 2384,560;  178,996;10645,299;21,07301
 251,85; 2479,690;  181,531;11169,454;20,91532
 252,44; 2524,656;  152,072;11848,468;20,28475
 253,04; 2667,006;  193,072;12621,735;19,90507
 253,64; 2747,068;  162,070;13290,437;19,69017
 254,24; 2897,833;  200,996;14255,643;19,18823
 254,84; 3008,035;  173,537;15113,027;18,97319
 255,43; 3131,747;  189,533;16061,326;18,53738
 256,03; 3233,343;  184,378;17049,273;18,07877
 256,63; 3374,834;  190,454;18002,256;17,87792
 257,23; 3398,617;  181,069;18779,960;17,29967
 257,82; 3519,713;  194,991;19749,378;17,00244
 258,42; 3557,274;  143,759;20487,823;16,77893
 259,02; 3610,802;  181,303;21265,976;16,26536
 259,62; 3635,202;  176,681;21929,039;15,89952
 260,21; 3599,128;  178,149;22406,204;15,39037
 260,81; 3592,369;  179,767;22744,363;15,12370
 261,41; 3566,223;  167,913;23163,508;14,77809
 262,01; 3575,787;  205,296;23575,771;14,42201
 262,60; 3462,078;  171,223;23768,730;13,94578
 263,20; 3437,586;  175,609;24034,870;13,67174
 263,80; 3401,583;  193,757;24165,397;13,38175
 264,40; 3276,451;  163,758;24242,806;12,92698
 264,99; 3251,923;  192,757;24378,175;12,64880
 265,59; 3154,605;  177,370;24531,325;12,22485
 266,19; 3078,239;  157,219;24711,881;11,89599
 266,78; 3087,306;  210,448;24707,026;11,74392
 267,38; 3006,216;  181,601;24643,801;11,54685
 267,98; 2939,310;  168,987;24696,378;11,29481
 268,58; 2868,888;  176,755;24544,482;11,04794
 269,17; 2844,652;  179,907;24685,766;10,87391
 269,77; 2779,798;  194,838;24352,681;10,70029
 270,37; 2727,103;  161,603;24261,186;10,64541
 270,96; 2738,395;  218,221;24182,565;10,51635
 271,56; 2635,736;  175,684;23785,399;10,41966
 272,16; 2565,804;  178,759;23744,946;10,12911
 272,75; 2554,511;  187,606;23620,727;10,10068
 273,35; 2531,373;  180,145;23609,061;10,03558
 273,95; 2507,090;  177,452;23611,519; 9,94124
 274,54; 2483,977;  176,381;23618,060; 9,84399
 275,14; 2545,597;  191,222;23949,369; 9,90976
 275,74; 2536,758;  161,528;24022,463; 9,95447
 276,33; 2622,690;  196,530;24536,164; 9,96794
 276,93; 2649,588;  183,612;24931,690; 9,96431
 277,53; 2702,164;  180,456;25401,951; 9,99825
 278,12; 2773,943;  171,993;25947,094;10,09482
 278,72; 2865,110;  194,148;26541,686;10,13742
 279,32; 2929,825;  173,379;27074,882;10,24644
 279,91; 2991,367;  163,917;27830,945;10,21957
 280,51; 3128,543;  180,918;28378,567;10,45344
 281,11; 3222,501;  191,532;29066,703;10,49680
 281,70; 3316,493;  161,147;29490,844;10,75820
 282,30; 3420,813;  162,838;30132,629;10,87086
 282,90; 3574,937;  176,223;30448,420;11,22718
 283,49; 3679,106;  189,529;31026,545;11,31619
 284,09; 3795,700;  202,993;31411,326;11,51201
 284,69; 3926,292;  203,532;31632,959;11,84482
 285,28; 4051,198;  196,916;31964,227;12,13285
 285,88; 4224,543;  200,528;32207,045;12,57249
 286,47; 4301,589;  181,300;32298,629;12,82887
 287,07; 4440,476;  206,917;32288,091;13,19640
 287,67; 4609,323;  196,382;32424,264;13,69293
 288,26; 4752,185;  178,840;32317,211;14,23017
 288,86; 4944,884;  180,608;32422,612;14,77661
 289,46; 5169,448;  190,840;32469,913;15,42364
 290,05; 5413,366;  173,227;32694,430;16,11299
 290,65; 5657,273;  182,223;32802,000;16,78445
 291,24; 5884,695;  193,225;32986,708;17,35549
 291,84; 6200,603;  197,377;33070,333;18,26190
 292,44; 6446,408;  187,921;33221,662;18,94574
 293,03; 6817,377;  235,225;33281,741;19,91784
 293,63; 7021,378;  177,146;33394,717;20,60425
 294,22; 7266,665;  197,455;33624,593;21,14812
 294,82; 7462,291;  181,143;33627,807;21,76943
 295,41; 7598,339;  169,532;33204,229;22,48789
 296,01; 7827,074;  216,297;33178,647;23,08930
 296,61; 7928,337;  195,379;32899,872;23,64494
 297,20; 7984,975;  199,451;32447,989;24,14225
 297,80; 8131,044;  203,996;32307,093;24,69247
 298,39; 8147,382;  170,223;31917,377;25,12716
 298,99; 8313,031;  191,452;31719,499;25,75985
 299,58; 8366,254;  189,382;31671,372;25,97318
 300,18; 8433,611;  215,304;31391,058;26,36121
 300,78; 8399,075;  186,995;31025,184;26,62958
 301,37; 8528,383;  191,603;31139,854;26,93781
 301,97; 8642,197;  196,686;31085,363;27,34177
 302,56; 8722,247;  179,300;31033,221;27,68837
 303,16; 8744,241;  169,837;30942,470;27,86373
 303,75; 8857,826;  192,303;31001,494;28,12642
 304,35; 8982,816;  173,845;31192,777;28,39869
 304,94; 9047,806;  186,225;31189,287;28,58292
 305,54; 9098,292;  190,687;31112,710;28,80667
 306,13; 9164,369;  163,922;31005,789;29,18256
 306,73; 9168,685;  168,305;30789,068;29,39306
 307,33; 9207,914;  193,613;30807,131;29,44549
 307,92; 9275,167;  190,148;30903,906;29,57964
 308,52; 9511,381;  169,991;31362,304;29,94773
 309,11; 9695,471;  176,451;31756,953;30,14208
 309,71; 9757,105;  164,450;31904,815;30,22226
 310,30; 9856,691;  169,533;32260,817;30,18626
 310,90;10019,229;  192,071;32547,047;30,37294
 311,49;10141,195;  180,455;32650,024;30,67715
 312,09;10165,400;  159,765;32853,300;30,60432
 312,68;10352,102;  205,918;33216,194;30,73644
 313,28;10408,551;  169,917;33305,444;30,89926
 313,87;10489,225;  145,148;33458,233;31,05109
 314,47;10605,062;  173,221;33724,033;31,09266
 315,06;10627,756;  161,148;33804,434;31,11054
 315,66;10678,016;  172,227;34136,223;30,93214
 316,25;10646,891;  145,376;33983,109;31,03492
 316,85;10624,066;  153,688;34066,597;30,87431
 317,44;10765,033;  166,913;34155,625;31,18130
 318,04;10710,111;  152,454;34213,124;30,99662
 318,63;10651,234;  152,459;34291,420;30,75306
 319,22;10759,069;  176,145;34435,703;30,89043
 319,82;10718,598;  171,377;34446,193;30,77251
 320,41;10669,083;  178,069;34370,331;30,68242
 321,01;10687,480;  188,765;34472,177;30,62331
 321,60;10684,592;  178,993;34421,579;30,67992
 322,20;10650,930;  166,918;34366,599;30,65529
 322,79;10586,227;  204,994;34507,016;30,26420
 323,39;10608,500;  173,152;34526,149;30,37682
 323,98;10550,446;  160,302;34479,325;30,27517
 324,58;10489,468;  167,453;34280,041;30,25867
 325,17;10391,049;  175,376;34017,692;30,18609
 325,76;10290,088;  204,378;33861,892;29,96570
 326,36;10120,680;  146,149;33402,353;29,99299
 326,95;10051,222;  195,608;33158,745;29,89889
 327,55; 9914,153;  157,223;32723,775;29,95997
 328,14; 9723,175;  172,381;32355,358;29,67654
 328,74; 9617,283;  199,915;31895,044;29,71235
 329,33; 9437,081;  191,149;31501,011;29,53041
 329,92; 9222,234;  163,682;30953,339;29,42076
 330,52; 9033,123;  177,074;30271,107;29,42792
 331,11; 8882,372;  177,454;29881,392;29,30560
 331,71; 8674,444;  180,224;29328,791;29,14112
 332,30; 8493,653;  192,225;28872,133;28,94510
 332,89; 8347,508;  199,918;28421,757;28,86980
 333,49; 8105,617;  181,685;27911,250;28,57575
 334,08; 7939,220;  187,147;27490,885;28,39199
 334,68; 7785,327;  178,147;27113,863;28,24198
 335,27; 7680,827;  188,920;26741,703;28,21515
 335,86; 7572,756;  217,685;26456,315;28,03146
 336,46; 7416,898;  193,151;26267,396;27,70453
 337,05; 7372,275;  175,608;25985,381;27,88349
 337,65; 7255,799;  161,454;25945,830;27,51412
 338,24; 7274,646;  227,533;25837,039;27,51757
 338,83; 7183,476;  194,610;25730,996;27,36827
 339,43; 7112,115;  173,838;25713,725;27,16644
 340,02; 7057,415;  173,991;25646,481;27,02297
 340,61; 7042,822;  166,610;25652,467;26,98050
 341,21; 6989,514;  208,607;25652,660;26,65026
 341,80; 6963,969;  176,839;25500,258;26,80179
 342,40; 6955,799;  189,535;25617,832;26,60919
 342,99; 6936,739;  176,303;25801,988;26,38148
 343,58; 6940,081;  183,688;25899,165;26,27364
 344,18; 6952,212;  176,842;26055,200;26,18161
 344,77; 6967,769;  173,530;26327,041;25,97831
 345,36; 7017,683;  156,608;26630,822;25,91607
 345,96; 7122,947;  196,380;26930,253;25,90933
 346,55; 7096,417;  167,075;27206,227;25,62707
 347,14; 7153,291;  158,535;27447,042;25,63261
 347,74; 7206,876;  147,693;27911,065;25,42624
 348,33; 7342,740;  173,770;28553,678;25,26072
 348,92; 7431,517;  177,387;29147,963;25,03965
 349,52; 7480,092;  161,694;29604,805;24,85606
 350,11; 7539,869;  165,529;29679,007;24,98634
 350,70; 7487,407;  169,071;29774,027;24,71997
 351,29; 7406,286;  171,679;29529,091;24,64320
 351,89; 7376,153;  178,912;29546,986;24,50702
 352,48; 7302,069;  158,764;29500,433;24,34526
 353,07; 7249,272;  178,536;29413,506;24,18589
 353,67; 7159,504;  191,156;29345,503;23,90157
 354,26; 7095,070;  180,997;29166,009;23,85396
 354,85; 7004,866;  184,304;28948,268;23,71218
 355,45; 6879,817;  162,069;28706,290;23,53453
 356,04; 6879,942;  180,228;28671,925;23,51462
 356,63; 6800,754;  201,378;28500,515;23,32006
 357,22; 6717,150;  177,372;28328,592;23,23088
 357,82; 6656,384;  177,450;28094,235;23,20802
 358,41; 6575,545;  177,301;27936,001;23,04951
 359,00; 6470,279;  163,453;27779,461;22,83757
 359,60; 6421,251;  188,379;27770,380;22,59761
 360,19; 6340,499;  171,383;27472,443;22,59662
 360,78; 6308,471;  192,608;27334,973;22,53254
 361,37; 6184,973;  169,839;27129,149;22,31190
 361,97; 6181,963;  179,686;27121,395;22,27875
 362,56; 6014,741;  164,837;26800,094;21,96301
 363,15; 5992,842;  194,762;26540,500;22,00766
 363,74; 5842,651;  186,375;26197,561;21,74555
 364,34; 5793,075;  211,453;25831,548;21,78611
 364,93; 5617,436;  172,683;25451,510;21,53879
 365,52; 5540,064;  157,762;25110,931;21,56961
 366,11; 5453,905;  173,992;24784,121;21,45423
 366,71; 5342,300;  167,992;24400,780;21,35251
 367,30; 5236,279;  178,147;24109,118;21,13634
 367,89; 5201,508;  205,227;23947,817;21,04354
 368,48; 5123,270;  184,836;23571,837;21,11615
 369,07; 5004,638;  185,302;23165,873;20,97135
 369,67; 4943,913;  200,067;22951,938;20,85036
 370,26; 4822,719;  173,225;22723,302;20,61853
 370,85; 4777,439;  179,608;22457,040;20,63896
 371,44; 4723,363;  178,455;22204,977;20,63380
 372,03; 4650,777;  159,992;22012,285;20,55064
 372,63; 4557,657;  158,378;21679,734;20,44146
 373,22; 4507,373;  178,148;21352,926;20,44520
 373,81; 4438,044;  145,685;21098,073;20,48625
 374,40; 4355,801;  172,150;20852,402;20,23017
 374,99; 4312,714;  168,839;20697,279;20,18602
 375,59; 4243,746;  163,535;20366,291;20,19631
 376,18; 4246,882;  195,146;20267,060;20,18609
 376,77; 4211,639;  186,147;20074,890;20,24005
 377,36; 4151,177;  201,147;20011,754;19,93897
 377,95; 4105,457;  188,299;19804,594;19,96890
 378,55; 4073,095;  175,765;19619,869;20,04376
 379,14; 4034,706;  177,377;19552,633;19,90853
 379,73; 4052,846;  183,838;19444,639;20,08747
 380,32; 4065,973;  191,532;19524,209;20,04089
 380,91; 4020,227;  159,606;19376,399;20,08983
 381,50; 4035,628;  191,376;19283,270;20,13552
 382,10; 3974,280;  170,763;19182,901;20,00573
 382,69; 3981,368;  163,685;19178,501;20,07741
 383,28; 4001,348;  189,837;19083,910;20,17305
 383,87; 3951,713;  169,145;19021,514;20,06415
 384,46; 3959,244;  171,066;18934,093;20,18959
 385,05; 3994,848;  197,299;19004,150;20,19237
 385,64; 3958,905;  173,145;18894,351;20,22177
 386,24; 3964,548;  161,450;18841,894;20,35871
 386,83; 4047,741;  189,296;18974,211;20,54012
 387,42; 4064,832;  201,530;19118,858;20,42203
 388,01; 4101,972;  193,678;19304,187;20,45102
 388,60; 4198,513;  184,681;19534,238;20,74379
 389,19; 4219,830;  166,291;19748,225;20,70040
 389,78; 4304,887;  170,292;19985,503;20,86576
 390,37; 4420,757;  219,680;20387,425;20,83067
 390,96; 4448,477;  181,219;20597,047;20,90171
 391,56; 4507,776;  179,367;20685,516;21,10786
 392,15; 4562,093;  176,138;20922,122;21,14122
 392,74; 4585,118;  151,286;21074,921;21,19054
 393,33; 4702,256;  166,751;21366,590;21,39405
 393,92; 4817,000;  183,669;21782,382;21,45189
 394,51; 4856,724;  167,597;21961,359;21,51591
 395,10; 4964,843;  199,894;22129,832;21,72806
 395,69; 4991,000;  175,202;22219,013;21,84649
 396,28; 5035,403;  184,353;22308,666;21,92633
 396,87; 5107,124;  197,809;22419,415;22,09253
 397,46; 5152,853;  186,806;22514,758;22,24139
 398,06; 5233,193;  197,648;22831,381;22,24797
 398,65; 5234,761;  184,945;22806,531;22,32300
 399,24; 5356,760;  191,943;22924,937;22,71947
 399,83; 5330,926;  185,851;22983,584;22,56836
 400,42; 5399,982;  205,453;23115,032;22,67405
 401,01; 5437,166;  184,053;23204,831;22,81901
 401,60; 5528,555;  190,878;23218,114;23,17984
 402,19; 5546,364;  210,092;23119,961;23,29246
 402,78; 5570,390;  221,912;23097,963;23,38025
 403,37; 5543,959;  199,195;23029,929;23,41039
 403,96; 5565,575;  196,628;22861,068;23,68886
 404,55; 5569,884;  195,519;22828,880;23,74532
 405,14; 5564,867;  192,721;22595,424;23,97990
 405,73; 5620,364;  195,840;22495,851;24,32521
 406,32; 5638,378;  194,817;22419,585;24,49322
 406,91; 5588,301;  196,945;22119,517;24,59272
 407,50; 5612,644;  196,931;21945,108;24,90192
 408,09; 5528,060;  177,614;21674,887;24,88895
 408,68; 5584,096;  201,992;21586,902;25,16777
 409,27; 5539,179;  178,770;21385,657;25,27674
 409,86; 5539,911;  189,636;21335,382;25,30190
 410,45; 5591,349;  203,500;21245,099;25,60570
 411,04; 5584,548;  212,133;21118,401;25,69763
 411,63; 5554,194;  197,079;20844,197;25,94606
 412,22; 5531,466;  205,100;20669,705;26,02721
 412,81; 5499,626;  218,031;20356,495;26,22641
 413,40; 5444,852;  222,964;20009,573;26,39102
 413,99; 5449,700;  236,730;19781,489;26,67196
 414,58; 5309,624;  190,424;19386,698;26,66767
 415,17; 5275,667;  194,031;19239,594;26,68147
 415,76; 5297,139;  189,100;19141,942;26,95131
 416,35; 5281,938;  186,489;18948,538;27,15828
 416,94; 5413,705;  217,178;19066,084;27,56938
 417,53; 5407,693;  189,493;19216,895;27,42466
 418,12; 5470,463;  193,726;19310,719;27,60234
 418,71; 5625,378;  201,271;19685,420;27,83856
 419,30; 5658,473;  210,573;19751,515;27,87941
 419,89; 5754,968;  195,959;19918,195;28,18650
 420,48; 5873,890;  218,041;20195,948;28,31052
 421,07; 5929,432;  204,042;20301,419;28,48824
 421,66; 5931,978;  182,278;20188,973;28,73888
 422,25; 5974,988;  183,978;20183,328;28,95599
 422,84; 6000,744;  219,980;20075,064;29,11478
 423,43; 5920,469;  191,899;19850,977;29,13956
 424,02; 5914,087;  220,055;19648,294;29,30802
 424,60; 5794,556;  189,526;19149,045;29,56314
 425,19; 5755,472;  208,598;19005,048;29,51022
 425,78; 5775,139;  225,676;18932,512;29,66543
 426,37; 5785,338;  228,141;18826,907;29,87939
 426,96; 5814,763;  219,449;18632,160;30,38832
 427,55; 5781,715;  202,839;18552,182;30,40369
 428,14; 5698,789;  188,457;18317,021;30,39586
 428,73; 5695,870;  200,837;18197,543;30,53355
 429,32; 5736,506;  221,140;18214,475;30,65227
 429,91; 5753,320;  234,221;18241,929;30,64853
 430,50; 5716,616;  225,147;17983,199;30,92382
 431,08; 5672,045;  237,843;17866,611;30,82576
 431,67; 5711,615;  266,999;17788,473;31,07396
 432,26; 5688,016;  271,694;17518,554;31,40469
 432,85; 5598,515;  291,770;17238,088;31,31503
 433,44; 5544,219;  294,312;16882,011;31,64940
 434,03; 5484,862;  312,702;16561,789;31,83047
 434,62; 5304,909;  268,774;16155,211;31,70085
 435,21; 5293,757;  289,924;15970,299;31,91144
 435,79; 5269,236;  276,085;15838,998;32,08365
 436,38; 5249,116;  278,705;15778,620;32,06734
 436,97; 5237,721;  258,245;15668,482;32,31278
 437,56; 5195,781;  271,714;15456,614;32,42740
 438,15; 5159,981;  243,019;15404,042;32,43159
 438,74; 5242,847;  260,866;15454,420;32,79009
 439,33; 5237,542;  236,942;15477,239;32,81169
 439,91; 5255,716;  208,715;15498,654;33,00864
 440,50; 5316,359;  253,792;15561,140;33,07279
 441,09; 5382,681;  247,104;15636,692;33,37046
 441,68; 5410,709;  245,878;15663,026;33,50056
 442,27; 5399,267;  227,107;15614,905;33,61209
 442,86; 5370,877;  201,501;15649,367;33,46337
 443,44; 5411,635;  225,114;15688,653;33,54032
 444,03; 5482,517;  251,655;15704,424;33,85065
 444,62; 5448,891;  212,039;15537,764;34,17034
 445,21; 5388,823;  218,577;15382,505;34,09569
 445,80; 5404,409;  243,197;15280,370;34,32302
 446,39; 5315,319;  252,735;15024,222;34,27268
 446,97; 5250,182;  210,741;14844,400;34,43733
 447,56; 5181,103;  218,745;14652,447;34,38035
 448,15; 5170,747;  217,510;14459,410;34,77933
 448,74; 5091,579;  226,818;14271,073;34,63879
 449,33; 5069,524;  219,975;14125,673;34,87455
 449,91; 4982,301;  219,903;13926,517;34,74525
 450,50; 4917,986;  210,287;13746,445;34,77869
 451,09; 4945,848;  229,749;13687,701;35,04321
 451,68; 4935,950;  250,828;13540,735;35,25323
 452,26; 4891,056;  229,292;13465,661;35,21936
 452,85; 4869,800;  226,060;13378,685;35,30656
 453,44; 4877,379;  236,220;13417,517;35,21018
 454,03; 4847,517;  214,370;13422,702;35,07745
 454,61; 4842,093;  210,144;13347,618;35,25753
 455,20; 4948,527;  233,377;13549,632;35,40898
 455,79; 4966,461;  231,373;13524,751;35,61990
 456,38; 5014,940;  235,304;13579,829;35,81721
 456,97; 5043,805;  225,995;13693,383;35,77390
 457,55; 5015,717;  223,229;13631,961;35,74155
 458,14; 5036,484;  251,379;13629,235;35,76885
 458,73; 4993,354;  234,998;13586,062;35,64027
 459,31; 5039,000;  263,541;13615,043;35,76720
 459,90; 5104,114;  264,077;13720,843;35,96731
 460,49; 5167,206;  265,153;13742,890;36,37149
 461,08; 5144,005;  215,466;13864,450;36,10920
 461,66; 5231,437;  229,541;13954,064;36,44496
 462,25; 5237,909;  234,699;13939,264;36,50762
 462,84; 5262,796;  252,313;14009,629;36,42050
 463,43; 5204,248;  189,703;13965,104;36,40217
 464,01; 5280,531;  227,090;13974,687;36,75872
 464,60; 5278,650;  252,240;13895,182;36,84256
 465,19; 5161,322;  212,014;13650,694;36,82882
 465,77; 5174,274;  229,017;13623,542;36,91999
 466,36; 5143,028;  244,088;13591,148;36,70426
 466,95; 5053,772;  232,550;13192,920;37,19973
 467,53; 4921,378;  222,173;12958,667;36,89559
 468,12; 4848,942;  251,097;12659,506;37,05427
 468,71; 4778,979;  233,246;12480,730;37,11565
 469,29; 4719,399;  216,636;12253,520;37,40805
 469,88; 4615,216;  221,330;12056,674;37,12513
 470,47; 4708,613;  273,180;12203,521;37,17776
 471,06; 4661,109;  232,488;12142,006;37,18556
 471,64; 4701,676;  241,102;12293,373;37,01024
 472,23; 4684,654;  204,418;12243,506;37,21408
 472,81; 4732,117;  215,722;12423,056;36,99740
 473,40; 4800,658;  218,572;12514,243;37,26585
 473,99; 4911,678;  271,725;12684,177;37,38144
 474,57; 4902,778;  226,033;12827,220;37,11353
 475,16; 4981,850;  241,184;12961,753;37,26772
 475,75; 5006,458;  249,267;13017,028;37,25940
 476,33; 5068,076;  250,577;13126,310;37,41534
 476,92; 5082,022;  254,803;13178,522;37,35163
 477,51; 5094,194;  236,807;13257,983;37,30375
 478,09; 5122,850;  245,038;13206,005;37,63463
 478,68; 5071,256;  243,116;13189,013;37,29476
 479,27; 5158,329;  259,036;13226,776;37,78062
 479,85; 5093,078;  230,654;13187,495;37,52785
 480,44; 5125,328;  229,886;13453,625;37,02011
 481,02; 5682,031;  232,812;15345,322;36,05767
 481,61; 6393,569;  260,195;16962,095;36,72261
 482,20; 6840,851;  250,427;17957,465;37,21923
 482,78; 7096,102;  273,270;18708,918;37,00891
 483,37; 7326,467;  269,278;19143,082;37,39145
 483,95; 7377,430;  291,048;19265,626;37,34672
 484,54; 7459,162;  298,041;19505,993;37,28206
 485,13; 7366,748;  274,590;19302,766;37,27187
 485,71; 7315,880;  249,358;19025,605;37,63543
 486,30; 7232,382;  280,665;18804,628;37,52824
 486,88; 7130,011;  299,589;18295,314;37,95580
 487,47; 6847,563;  307,052;17548,463;37,93490
 488,05; 6570,362;  284,438;16623,482;38,47180
 488,64; 6044,923;  288,441;15295,006;38,35976
 489,23; 5418,489;  296,670;13258,685;39,51407
 489,81; 4665,677;  288,824;11752,229;38,18109
 490,40; 4431,713;  245,979;11271,574;37,96379
 490,98; 4370,421;  237,672;11066,274;38,16512
 491,57; 4330,096;  275,670;11056,116;37,60908
 492,15; 4314,781;  243,596;10929,662;38,09807
 492,74; 4271,744;  245,592;10834,144;38,02364
 493,32; 4228,664;  257,980;10783,041;37,72599
 493,91; 4204,215;  245,290;10671,770;37,96991
 494,50; 4193,107;  255,988;10681,835;37,76306
 495,08; 4159,350;  236,680;10601,141;37,84731
 495,67; 4182,655;  253,213;10572,899;38,07715
 496,25; 4083,534;  203,062;10468,236;37,80230
 496,84; 4111,216;  217,366;10475,480;37,95873
 497,42; 4057,187;  211,678;10406,132;37,72157
 498,01; 4076,897;  246,675;10321,341;38,01836
 498,59; 3998,670;  202,140;10304,772;37,57961
 499,18; 4004,013;  222,906;10264,178;37,65565
 499,76; 3983,353;  229,754;10185,764;37,70184
 500,35; 3912,691;  224,297;10004,590;37,71251
 500,93; 3883,383;  204,217;10013,571;37,50672
 501,52; 3853,312;  226,371; 9913,014;37,44271
 502,10; 3850,249;  230,530; 9803,395;37,81228
 502,69; 3794,260;  215,609; 9705,648;37,70955
 503,27; 3729,757;  200,296; 9525,781;37,84748
 503,86; 3697,364;  210,223; 9502,522;37,52721
 504,44; 3644,334;  197,917; 9364,522;37,59753
 505,03; 3557,421;  180,379; 9142,489;37,68133
 505,61; 3545,930;  191,609; 9011,836;38,02987
 506,19; 3469,715;  218,610; 8847,477;37,67708
 506,78; 3402,802;  190,460; 8694,754;37,77318
 507,36; 3331,798;  198,225; 8523,245;37,64043
 507,95; 3312,291;  204,385; 8413,050;37,86128
 508,53; 3239,741;  203,306; 8275,413;37,61639
 509,12; 3192,419;  209,692; 8158,134;37,52593
 509,70; 3157,693;  219,924; 8005,876;37,73167
 510,29; 3111,130;  216,618; 7883,229;37,75478
 510,87; 2991,798;  193,460; 7742,017;37,07117
 511,46; 2967,868;  191,230; 7554,231;37,71069
 512,04; 2907,837;  207,540; 7451,968;37,27412
 512,62; 2857,755;  204,768; 7282,253;37,48488
 513,21; 2784,933;  182,464; 7128,944;37,46457
 513,79; 2781,296;  196,240; 7025,497;37,85267
 514,38; 2665,702;  179,084; 6843,639;37,31110
 514,96; 2675,115;  220,083; 6790,219;37,36654
 515,54; 2625,910;  192,931; 6688,501;37,45598
 516,13; 2566,066;  208,239; 6597,207;36,90466
 516,71; 2518,046;  203,242; 6453,541;37,03510
 517,30; 2478,547;  186,629; 6338,818;37,25370
 517,88; 2465,379;  214,551; 6281,806;37,09796
 518,46; 2403,832;  192,937; 6196,297;36,82763
 519,05; 2400,859;  205,324; 6110,285;37,18120
 519,63; 2366,364;  215,323; 6109,587;36,49380
 520,22; 2341,617;  217,865; 6020,093;36,60235
 520,80; 2317,655;  204,712; 5935,854;36,86776
 521,38; 2327,965;  215,939; 5914,232;37,06417
 521,97; 2293,990;  195,021; 5894,919;36,82468
 522,55; 2274,191;  210,175; 5889,326;36,34374
 523,13; 2244,708;  184,715; 5879,818;36,17131
 523,72; 2247,664;  196,091; 5911,977;35,89248
 524,30; 2316,280;  213,332; 6033,036;36,13497
 524,89; 2291,490;  182,637; 6055,141;35,91063
 525,47; 2304,464;  209,640; 6163,305;35,18545
 526,05; 2310,245;  186,487; 6218,824;35,20623
 526,64; 2367,986;  201,642; 6312,918;35,44830
 527,22; 2403,644;  205,256; 6437,623;35,27374
 527,80; 2443,172;  236,719; 6572,312;34,82631
 528,39; 2449,556;  198,566; 6642,739;34,93062
 528,97; 2501,372;  208,104; 6801,547;34,78104
 529,55; 2530,036;  220,407; 6957,521;34,28217
 530,14; 2600,399;  235,106; 7192,151;33,99854
 530,72; 2593,412;  207,873; 7244,031;33,90400
 531,30; 2641,130;  192,029; 7386,142;34,04312
 531,89; 2671,725;  207,337; 7443,054;34,05866
 532,47; 2728,231;  227,107; 7555,488;34,12928
 533,05; 2721,131;  229,103; 7586,675;33,87026
 533,63; 2752,581;  238,338; 7661,601;33,86977
 534,22; 2731,534;  206,646; 7650,272;33,92014
 534,80; 2755,411;  229,956; 7756,442;33,55424
 535,38; 2828,122;  257,183; 7765,727;34,24017
 535,97; 2753,907;  221,722; 7771,137;33,54146
 536,55; 2789,613;  262,034; 7825,477;33,41837
 537,13; 2775,393;  277,337; 7838,921;33,03615
 537,71; 2824,201;  302,259; 7900,468;33,19127
 538,30; 2842,665;  325,262; 7929,212;33,10652
 538,88; 2843,839;  330,728; 8040,610;32,59597
 539,46; 2925,688;  394,726; 8214,848;32,36475
 540,05; 2952,815;  407,804; 8356,725;32,01706
 540,63; 3041,040;  449,958; 8595,188;31,81103
 541,21; 3075,602;  471,729; 8734,824;31,51208
 541,79; 3094,043;  505,344; 8748,505;31,40420
 542,38; 3169,777;  510,804; 8920,734;31,61707
 542,96; 3194,590;  545,039; 9082,034;31,03611
 543,54; 3250,189;  560,113; 9293,953;30,80061
 544,12; 3280,229;  513,499; 9353,266;31,29868
 544,70; 3288,481;  489,808; 9488,717;31,10014
 545,29; 3358,366;  510,804; 9593,954;31,34994
 545,87; 3341,889;  476,652; 9620,812;31,33407
 546,45; 3302,147;  453,650; 9631,030;31,03825
 547,03; 3318,886;  423,266; 9718,862;31,15044
 547,62; 3347,051;  398,114; 9908,979;31,00598
 548,20; 3426,178;  402,115;10032,472;31,40135
 548,78; 3432,521;  376,967;10148,493;31,26998
 549,36; 3458,238;  340,736;10351,490;31,14153
 549,94; 3491,897;  316,499;10480,654;31,24114
 550,53; 3526,609;  316,581;10703,572;30,90431
 551,11; 3536,616;  283,122;10923,378;30,57721
 551,69; 3630,234;  304,659;11212,214;30,48873
 552,27; 3673,356;  267,580;11428,796;30,51439
 552,85; 3770,114;  274,430;11835,740;30,23605
 553,44; 3826,645;  268,966;12104,378;30,05961
 554,02; 3925,812;  278,582;12438,065;29,99494
 554,60; 3969,413;  234,045;12691,094;29,98597
 555,18; 4106,448;  275,197;13120,094;29,82703
 555,76; 4144,746;  239,813;13420,340;29,62653
 556,34; 4297,264;  254,817;13760,810;29,93077
 556,93; 4373,088;  237,197;14199,150;29,62258
 557,51; 4417,094;  227,432;14489,844;29,37555
 558,09; 4562,904;  245,197;14817,633;29,62927
 558,67; 4643,984;  243,357;15189,183;29,44385
 559,25; 4716,458;  247,433;15482,584;29,33365
 559,83; 4776,702;  238,358;15719,312;29,31566
 560,41; 4855,900;  233,508;16087,916;29,15525
 561,00; 4914,235;  241,742;16431,733;28,86038
 561,58; 4991,491;  233,893;16715,398;28,86629
 562,16; 5048,261;  216,045;16926,433;28,91744
 562,74; 5142,458;  212,736;17302,582;28,84591
 563,32; 5216,661;  204,743;17709,367;28,63197
 563,90; 5352,994;  227,357;18080,919;28,70932
 564,48; 5426,074;  237,431;18492,637;28,42282
 565,06; 5589,427;  229,049;19107,280;28,39449
 565,65; 5717,990;  240,130;19810,877;27,99004
 566,23; 5936,111;  269,126;20494,327;28,01943
 566,81; 6033,725;  233,048;21195,100;27,67228
 567,39; 6288,497;  236,897;22007,612;27,79697
 567,97; 6442,363;  247,818;22584,509;27,73260
 568,55; 6656,350;  250,512;23297,783;27,79434
 569,13; 6812,018;  225,588;24045,052;27,65146
 569,71; 7009,298;  233,737;24966,026;27,39561
 570,29; 7288,653;  273,351;25910,622;27,36368
 570,87; 7479,717;  261,198;26477,221;27,53476
 571,45; 7586,364;  261,587;27165,677;27,22552
 572,03; 7640,108;  220,821;27571,550;27,12647
 572,61; 7834,530;  225,666;28244,947;27,15581
 573,20; 7993,098;  250,817;28890,965;27,03296
 573,78; 8114,902;  235,897;29425,795;26,99223
 574,36; 8176,528;  240,665;29911,703;26,74616
 574,94; 8323,257;  280,591;30121,872;26,95148
 575,52; 8239,088;  241,517;30511,695;26,42063
 576,10; 8419,590;  291,054;31086,291;26,39543
 576,68; 8495,001;  282,744;31625,802;26,20120
 577,26; 8667,394;  303,057;32195,967;26,22632
 577,84; 8732,736;  306,973;32611,430;26,08236
 578,42; 8787,445;  320,053;32823,877;26,05045
 579,00; 8789,835;  281,743;32923,685;26,06491
 579,58; 8798,154;  313,745;33195,785;25,80256
 580,16; 8756,026;  298,669;33200,298;25,70498
 580,74; 8777,244;  291,208;33374,530;25,65050
 581,32; 8753,607;  300,130;33410,523;25,53119
 581,90; 8713,975;  305,515;33463,770;25,35857
 582,48; 8728,113;  312,285;33582,034;25,29574
 583,06; 8676,840;  315,053;33676,708;25,06407
 583,64; 8684,622;  316,283;33703,784;25,06429
 584,22; 8606,672;  320,364;33508,775;24,96747
 584,80; 8501,967;  325,669;33213,834;24,86091
 585,38; 8359,712;  323,432;32860,721;24,69868
 585,96; 8312,031;  310,820;33022,875;24,45952
 586,54; 8267,810;  318,364;33149,442;24,21318
 587,12; 8245,153;  286,439;33255,962;24,13961
 587,70; 8248,096;  325,513;33363,338;23,98034
 588,28; 8254,728;  309,516;33454,632;23,97099
 588,86; 8252,794;  300,594;33503,109;23,95060
 589,44; 8190,013;  290,674;33579,515;23,72969
 590,02; 8235,441;  302,520;33847,971;23,64828
 590,59; 8199,452;  282,594;34058,991;23,43902
 591,17; 8200,539;  279,216;34230,921;23,33115
 591,75; 8218,828;  274,906;34303,040;23,34516
 592,33; 8239,215;  283,444;34606,935;23,17879
 592,91; 8267,987;  244,985;34776,080;23,23414
 593,49; 8292,282;  253,371;35071,047;23,08859
 594,07; 8276,231;  263,525;35338,518;22,84450
 594,65; 8289,136;  271,518;35305,345;22,88536
 595,23; 8271,601;  263,442;35704,816;22,59551
 595,81; 8251,527;  257,136;35816,843;22,48160
 596,39; 8227,956;  250,828;35926,065;22,36041
 596,97; 8253,582;  255,831;36111,377;22,30548
 597,55; 8193,370;  240,826;35993,988;22,24291
 598,12; 8122,209;  236,603;36068,843;22,00701
 598,70; 8104,398;  232,216;36139,073;21,92390
 599,28; 8120,582;  254,601;36338,205;21,79932
 599,86; 8092,066;  237,831;36291,325;21,78495
 600,44; 8064,649;  216,140;36436,836;21,66857
 601,02; 8073,960;  261,221;36439,421;21,59516
 601,60; 8025,879;  247,599;36397,721;21,51661
 602,18; 7958,703;  216,449;36499,237;21,33864
 602,75; 7898,617;  235,828;36593,380;21,07620
 603,33; 7909,218;  254,832;36540,755;21,09464
 603,91; 7866,900;  237,066;36474,192;21,05530
 604,49; 7850,463;  252,755;36542,613;20,93617
 605,07; 7858,865;  258,753;36635,556;20,89274
 605,65; 7802,399;  282,756;36690,684;20,65386
 606,23; 7807,460;  328,517;36932,868;20,43184
 606,80; 7809,981;  373,674;36857,292;20,38259
 607,38; 7750,299;  396,142;36917,222;20,13675
 607,96; 7734,777;  440,135;37008,149;19,94815
 608,54; 7765,071;  498,910;36939,365;19,93982
 609,12; 7726,011;  479,520;37112,963;19,78108
 609,70; 7704,754;  541,985;37063,280;19,61258
 610,27; 7648,133;  529,135;37074,355;19,47997
 610,85; 7662,730;  540,293;37183,224;19,43741
 611,43; 7640,311;  553,985;37109,798;19,38495
 612,01; 7560,739;  521,060;36852,520;19,37626
 612,59; 7506,052;  503,293;36913,082;19,23318
 613,16; 7458,231;  475,364;36907,017;19,16703
 613,74; 7394,248;  436,986;36680,503;19,19588
 614,32; 7353,691;  405,217;36699,026;19,14507
 614,90; 7287,121;  388,830;36572,010;19,06491
 615,48; 7196,611;  326,673;36291,955;19,10158
 616,05; 7145,547;  318,364;36316,894;18,96517
 616,63; 7062,944;  335,594;36081,449;18,81995
 617,21; 7026,815;  335,289;35943,619;18,79203
 617,79; 6958,304;  304,598;35937,010;18,67319
 618,36; 6927,921;  316,676;35841,852;18,61003
 618,94; 6797,629;  260,596;35553,473;18,52225
 619,52; 6770,233;  279,132;35302,297;18,53374
 620,10; 6728,908;  279,597;35257,952;18,43801
 620,67; 6694,975;  288,286;35267,658;18,31562
 621,25; 6630,407;  297,445;35054,908;18,22044
 621,83; 6606,255;  276,981;35003,594;18,22600
 622,41; 6622,538;  312,673;34994,769;18,19344
 622,98; 6519,509;  295,517;34788,382;18,04429
 623,56; 6461,430;  289,132;34648,830;17,96377
 624,14; 6419,692;  278,215;34632,925;17,87667
 624,72; 6380,291;  280,904;34474,956;17,83757
 625,29; 6317,076;  250,901;34648,732;17,63534
 625,87; 6366,171;  295,905;34525,560;17,73394
 626,45; 6279,665;  254,439;34365,277;17,66367
 627,02; 6215,533;  260,136;34267,210;17,51223
 627,60; 6182,983;  250,448;34253,692;17,44697
 628,18; 6141,473;  239,135;34411,194;17,27241
 628,76; 6103,804;  247,363;34361,230;17,16733
 629,33; 6106,492;  266,672;34281,303;17,16855
 629,91; 6045,985;  254,828;34312,491;17,00398
 630,49; 6053,958;  273,056;34532,981;16,87366
 631,06; 6050,648;  273,440;34614,352;16,82311
 631,64; 6001,807;  265,054;34578,663;16,71859
 632,22; 5953,771;  221,514;34463,337;16,74051
 632,79; 5966,648;  254,668;34729,084;16,56875
 633,37; 5962,415;  228,368;34782,246;16,59451
 633,95; 5910,595;  246,054;34913,123;16,33983
 634,52; 5947,318;  228,365;35002,582;16,44596
 635,10; 5878,034;  236,135;35039,621;16,21073
 635,68; 5942,551;  240,438;35272,150;16,27700
 636,25; 5853,161;  236,666;35177,819;16,07415
 636,83; 5849,497;  216,209;35381,999;16,01923
 637,41; 5836,786;  223,283;35414,674;15,95135
 637,98; 5882,741;  244,283;35637,684;15,93082
 638,56; 5846,720;  244,666;35753,387;15,77656
 639,13; 5833,110;  241,439;35737,832;15,75279
 639,71; 5861,007;  247,902;35908,957;15,74015
 640,29; 5797,783;  205,210;35762,911;15,72816
 640,86; 5779,149;  214,440;35942,860;15,57502
 641,44; 5739,824;  223,902;35880,809;15,46943
 642,02; 5741,883;  249,979;35828,604;15,43596
 642,59; 5699,403;  222,518;36029,629;15,29552
 643,17; 5715,077;  232,825;35919,039;15,36238
 643,74; 5621,597;  222,826;35934,604;15,11762
 644,32; 5642,426;  253,210;35927,321;15,10680
 644,89; 5615,100;  234,364;35959,886;15,06132
 645,47; 5620,928;  255,595;35941,834;15,03474
 646,05; 5551,217;  230,134;35848,783;14,93904
 646,62; 5554,738;  232,442;35882,039;14,92947
 647,20; 5568,720;  242,672;36112,911;14,84810
 647,77; 5469,548;  215,365;35928,706;14,71210
 648,35; 5410,607;  213,827;35818,501;14,59578
 648,92; 5424,204;  239,750;35843,065;14,56172
 649,50; 5404,493;  212,134;35661,168;14,64739
 650,08; 5331,322;  212,288;35680,655;14,43267
 650,65; 5345,611;  218,596;35981,911;14,33596
 651,23; 5448,978;  214,366;36897,552;14,26979
 651,80; 5571,652;  214,981;37642,501;14,31212
 652,38; 5637,557;  213,366;37967,834;14,36702
 652,95; 5614,616;  199,981;38213,552;14,24395
 653,53; 5663,290;  215,828;38490,578;14,23252
 654,10; 5680,810;  239,135;38697,911;14,14937
 654,68; 5620,869;  214,059;38573,168;14,09525
 655,25; 5593,851;  208,136;38645,732;14,01158
 655,83; 5559,064;  204,059;38553,757;13,96362
 656,40; 5586,815;  236,597;38588,398;13,95037
 656,98; 5547,412;  191,674;38522,962;13,97224
 657,55; 5549,856;  217,290;38404,526;13,96426
 658,13; 5458,299;  199,290;37955,321;13,92892
 658,70; 5401,819;  222,675;37674,424;13,82885
 659,28; 5222,724;  216,290;36633,065;13,74760
 659,85; 5103,552;  209,136;36135,014;13,62365
 660,43; 5106,611;  223,137;36336,116;13,52277
 661,00; 5143,593;  218,367;36416,296;13,60637
 661,58; 5140,498;  206,829;36804,860;13,48070
 662,15; 5140,326;  199,598;36927,116;13,45239
 662,73; 5202,616;  253,445;37190,603;13,39890
 663,30; 5179,982;  211,522;37452,321;13,34144
 663,88; 5176,349;  216,906;37644,732;13,25068
 664,45; 5184,408;  198,137;37898,142;13,22618
 665,03; 5223,313;  203,599;38142,783;13,23095
 665,60; 5281,525;  250,753;38596,501;13,11951
 666,17; 5245,584;  229,676;38695,449;13,03993
 666,75; 5264,028;  214,138;39011,552;13,01605
 667,32; 5298,163;  230,138;39367,347;12,94938
 667,90; 5310,530;  219,138;39536,373;12,94952
 668,47; 5362,127;  228,677;39874,244;12,94836
 669,05; 5316,340;  211,061;39996,501;12,83203
 669,62; 5306,322;  192,677;40150,449;12,79762
 670,19; 5330,534;  197,754;40308,244;12,79660
 670,77; 5351,901;  225,369;40470,347;12,73831
 671,34; 5313,498;  203,216;40401,296;12,71275
 671,92; 5307,865;  200,908;40641,090;12,62842
 672,49; 5254,462;  228,370;40657,116;12,43198
 673,06; 5292,521;  185,139;40744,603;12,59233
 673,64; 5250,964;  200,293;40715,783;12,46603
 674,21; 5193,562;  203,447;40643,116;12,33965
 674,79; 5267,620;  214,986;40860,219;12,43106
 675,36; 5251,141;  218,370;40951,475;12,35548
 675,93; 5257,200;  192,601;40879,655;12,44769
 676,51; 5190,566;  219,217;41050,988;12,17520
 677,08; 5216,856;  209,832;41056,244;12,25817
 677,65; 5239,222;  213,063;41272,347;12,24123
 678,23; 5223,127;  222,678;41479,142;12,12040
 678,80; 5231,648;  198,063;41606,321;12,15599
 679,38; 5257,399;  198,140;41665,578;12,20056
 679,95; 5288,150;  205,910;41906,680;12,18740
 680,52; 5271,593;  205,217;42264,706;12,04574
 681,10; 5352,345;  208,602;42664,270;12,11556
 681,67; 5372,019;  215,295;42842,988;12,09712
 682,24; 5318,001;  192,525;42907,860;11,99915
 682,82; 5404,675;  200,372;43501,731;12,01880
 683,39; 5427,426;  220,526;43827,680;11,94047
 683,96; 5426,485;  204,910;44027,398;11,91529
 684,54; 5441,467;  198,603;44335,962;11,87852
 685,11; 5510,910;  213,064;44627,372;11,92824
 685,68; 5520,046;  217,372;45138,936;11,80429
 686,25; 5497,412;  200,526;45056,270;11,80871
 686,83; 5516,087;  198,988;45233,834;11,80663
 687,40; 5574,761;  188,680;45592,321;11,86266
 687,97; 5633,897;  220,911;45945,270;11,83830
 688,55; 5573,109;  192,450;45935,757;11,76273
 689,12; 5590,014;  172,142;46284,090;11,74939
 689,69; 5616,381;  198,912;46247,885;11,76458
 690,26; 5595,824;  208,681;46431,295;11,65478
 690,84; 5620,114;  206,142;46576,398;11,67553
 691,41; 5652,865;  211,527;46637,039;11,72058
 691,98; 5631,232;  201,450;46955,988;11,61338
 692,56; 5637,060;  191,297;46925,936;11,65252
 693,13; 5660,349;  245,989;46981,808;11,58503
 693,70; 5667,716;  216,374;47265,911;11,58639
 694,27; 5681,005;  201,605;47251,783;11,64587
 694,84; 5644,372;  197,989;47445,808;11,52727
 695,42; 5720,354;  234,143;47548,680;11,59519
 695,99; 5663,951;  209,605;47752,629;11,47244
 696,56; 5628,318;  191,990;47522,039;11,48600
 697,13; 5694,376;  216,759;47883,449;11,49150
 697,71; 5643,897;  174,144;47968,859;11,44426
 698,28; 5721,109;  209,144;48263,270;11,47033
 698,85; 5676,476;  176,452;48328,295;11,42225
 699,42; 5694,689;  183,836;48525,782;11,39973
 699,99; 5723,517;  213,221;48554,193;11,39881
 700,57; 5731,345;  212,760;48558,526;11,41483
 701,14; 5756,096;  201,529;48630,013;11,46963
 701,71; 5804,232;  219,068;48850,885;11,48459
 702,28; 5768,752;  207,606;48955,218;11,40804
 702,85; 5788,272;  212,453;48956,398;11,43900
 703,43; 5761,408;  220,837;49281,116;11,29339
 704,00; 5835,698;  237,453;49439,295;11,37812
 704,57; 5808,987;  222,222;49498,013;11,33775
 705,14; 5817,354;  249,222;49716,347;11,25623
 705,71; 5868,874;  244,838;49741,526;11,36245
 706,28; 5793,933;  221,607;49605,705;11,28364
 706,86; 5876,530;  251,146;49934,808;11,32240
 707,43; 5840,974;  247,915;49806,141;11,28583
 708,00; 5832,725;  226,761;49852,090;11,29658
 708,57; 5818,168;  215,454;49729,808;11,31533
 709,14; 5863,689;  240,531;49911,603;11,32079
 709,71; 5878,594;  229,762;49930,552;11,36568
 710,28; 5905,653;  222,300;50118,577;11,39033
 710,86; 5891,173;  228,454;50245,064;11,32168
 711,43; 5925,309;  239,608;50219,244;11,37603
 712,00; 5955,291;  226,377;50416,808;11,41435
 712,57; 5933,273;  230,608;50404,141;11,36588
 713,14; 5936,562;  210,993;50588,936;11,36523
 713,71; 5969,621;  226,993;50438,577;11,43686
 714,28; 5969,757;  222,378;50538,064;11,42264
 714,85; 5912,969;  199,840;50280,013;11,40797
 715,42; 5974,874;  226,378;50523,654;11,42904
 716,00; 5994,395;  243,532;50616,064;11,41666
 716,57; 5992,992;  210,686;50737,705;11,44399
 717,14; 6020,666;  207,532;50656,577;11,52278
 717,71; 6005,648;  195,994;50707,218;11,50171
 718,28; 6058,015;  230,994;50710,475;11,54335
 718,85; 6036,458;  201,763;50882,500;11,51265
 719,42; 6059,978;  228,763;50995,526;11,48628
 719,99; 6047,268;  203,764;50804,705;11,54821
 720,56; 6098,173;  210,148;50936,731;11,60738
 721,13; 6085,847;  209,456;51194,834;11,52564
 721,70; 6072,060;  203,764;51025,859;11,54674
 722,27; 6142,350;  224,149;51067,731;11,64002
 722,84; 6235,255;  250,764;51268,449;11,73023
 723,41; 6157,929;  198,918;51284,475;11,66477
 723,98; 6176,295;  211,764;51411,500;11,64953
 724,55; 6223,431;  226,918;51542,372;11,68559
 725,12; 6217,028;  175,765;51439,475;11,78468
 725,69; 6280,087;  195,457;51638,654;11,82786
 726,27; 6328,300;  218,073;51742,372;11,85892
 726,84; 6337,436;  204,150;51964,167;11,84947
 727,41; 6373,418;  212,457;51888,654;11,92224
 727,98; 6457,399;  228,996;52293,526;11,96285
 728,55; 6479,920;  240,304;52202,090;12,00809
 729,12; 6461,671;  188,304;52239,116;12,05239
 729,69; 6473,807;  229,535;52379,218;11,97375
 730,26; 6575,635;  237,458;52591,090;12,10647
 730,82; 6536,694;  219,612;52422,346;12,10106
 731,39; 6564,445;  213,381;52453,141;12,15753
 731,96; 6656,119;  203,920;52856,398;12,25431
 732,53; 6661,716;  226,689;53030,731;12,18662
 733,10; 6688,237;  226,766;53117,295;12,21669
 733,67; 6690,603;  227,997;53310,936;12,17454
 734,24; 6682,816;  202,074;53044,577;12,26426
 734,81; 6741,798;  234,536;53106,218;12,30765
 735,38; 6711,395;  222,151;52852,013;12,32997
 735,95; 6698,992;  211,536;52603,269;12,38260
 736,52; 6722,974;  229,075;52873,295;12,33545
 737,09; 6769,879;  223,613;52528,936;12,51549
 737,66; 6812,553;  259,998;52727,962;12,48868
 738,23; 6780,228;  212,536;52716,833;12,50886
 738,80; 6886,133;  243,537;52981,321;12,59552
 739,37; 6886,653;  244,921;53152,423;12,55348
 739,94; 6946,096;  216,614;53225,987;12,69489
 740,51; 6978,540;  285,614;53235,551;12,64010
 741,07; 6943,368;  213,460;53193,192;12,70280
 741,64; 6987,350;  250,845;53421,680;12,66955
 742,21; 7028,024;  213,691;53418,397;12,80776
 742,78; 7002,775;  199,076;53317,654;12,80851
 743,35; 7080,757;  212,307;53527,372;12,88276
 743,92; 7161,970;  239,922;53673,705;12,95444
 744,49; 7122,490;  228,538;53473,038;12,94773
 745,06; 7159,703;  221,153;53502,679;13,02243
 745,63; 7132,992;  207,769;53506,859;12,99314
 746,19; 7179,128;  204,461;53486,731;13,09003
 746,76; 7205,187;  227,461;53512,295;13,09514
 747,33; 7247,707;  209,846;53499,628;13,20677
 747,90; 7318,074;  250,692;53724,808;13,21645
 748,47; 7242,440;  227,538;53562,064;13,15265
 749,04; 7296,730;  223,231;53529,167;13,26963
 749,61; 7291,943;  252,308;53569,577;13,20329
 750,17; 7323,694;  245,923;53672,526;13,24765
 750,74; 7364,060;  235,385;53563,628;13,36754
 751,31; 7362,196;  216,462;53425,961;13,42943
 751,88; 7346,716;  193,924;53346,602;13,45707
 752,45; 7413,621;  223,385;53511,705;13,49308
 753,02; 7393,296;  219,847;53247,961;13,52763
 753,58; 7372,739;  212,770;53233,987;13,50397
 754,15; 7382,259;  221,232;53361,782;13,47564
 754,72; 7392,088;  203,386;53129,808;13,58244
 755,29; 7418,993;  203,232;52960,295;13,67734
 755,86; 7446,590;  218,463;53042,705;13,68335
 756,42; 7476,879;  231,694;52985,500;13,73396
 756,99; 7475,323;  193,079;52925,218;13,80988
 757,56; 7502,305;  199,694;52876,936;13,86293
 758,13; 7511,056;  170,848;52870,423;13,92840
 758,70; 7586,115;  200,925;52910,141;14,01119
 759,26; 7569,327;  188,694;53011,859;13,97234
 759,83; 7627,848;  199,233;53054,654;14,05459
 760,40; 7614,907;  196,772;52818,372;14,09713
 760,97; 7607,427;  191,079;52962,936;14,05360
 761,53; 7622,178;  172,849;52580,500;14,21420
 762,10; 7646,929;  177,233;52356,295;14,31550
 762,67; 7705,450;  213,541;52537,628;14,31828
 763,24; 7584,508;  160,234;52032,808;14,31252
 763,80; 7705,952;  194,080;52238,525;14,43357
 764,37; 7705,395;  203,003;52183,397;14,43312
 764,94; 7650,762;  180,234;51684,884;14,50457
 765,50; 7658,359;  187,773;51726,602;14,49506
 766,07; 7745,956;  224,003;51775,013;14,59128
 766,64; 7693,861;  189,004;51473,346;14,63382
 767,21; 7710,997;  189,311;51294,602;14,71802
 767,77; 7750,979;  215,158;51205,013;14,77906
 768,34; 7726,038;  215,312;51156,192;14,74401
 768,91; 7772,404;  212,696;50949,372;14,89989
 769,47; 7796,156;  210,543;51145,936;14,89262
 770,04; 7868,214;  211,158;50914,423;15,10170
 770,61; 7747,812;  195,697;50671,679;14,96180
 771,18; 7791,717;  192,389;50442,705;15,12294
 771,74; 7838,314;  216,620;50729,730;15,08855
 772,31; 7830,450;  204,620;50426,064;15,18441
 772,88; 7822,662;  186,389;50187,859;15,27210
 773,44; 7806,644;  196,005;50019,115;15,27532
 774,01; 7864,472;  210,467;50119,679;15,33586
 774,58; 7833,147;  199,621;49828,474;15,38123
 775,14; 7902,590;  181,621;49953,961;15,51257
 775,71; 7930,033;  201,313;49833,218;15,57208
 776,27; 8000,477;  234,467;49778,320;15,67502
 776,84; 8029,459;  237,698;49654,269;15,76751
 777,41; 8026,441;  210,544;49612,833;15,82092
 777,97; 7999,730;  204,852;49278,474;15,88405
 778,54; 8045,174;  213,852;49405,807;15,91992
 779,11; 8065,617;  225,929;49390,756;15,94573
 779,67; 8057,830;  189,006;49313,012;16,01829
 780,24; 8115,658;  208,468;49079,577;16,17968
 780,80; 8099,948;  224,083;49116,833;16,10845
 781,37; 8121,083;  219,622;49091,320;16,16777
 781,94; 8093,219;  211,930;48932,192;16,17662
 782,50; 8140,278;  224,237;48807,448;16,29378
 783,07; 8171,568;  244,622;48741,474;16,34528
 783,63; 8140,857;  205,007;48523,269;16,42412
 784,20; 8168,993;  226,776;48534,679;16,44082
 784,77; 8142,359;  221,315;48376,012;16,44916
 785,33; 8134,572;  199,007;48104,423;16,56507
 785,90; 8194,939;  209,623;48097,371;16,67507
 786,46; 8199,613;  240,854;48043,243;16,64929
 787,03; 8206,441;  197,315;47845,269;16,80896
 787,59; 8189,346;  205,700;47659,294;16,82411
 788,16; 8217,943;  221,239;47735,935;16,82996
 788,73; 8251,310;  222,931;47517,730;16,97518
 789,29; 8180,907;  214,470;47254,448;16,93546
 789,86; 8238,966;  220,547;47044,782;17,12451
 790,42; 8248,640;  225,085;47015,730;17,14778
 790,99; 8209,007;  233,778;46699,987;17,16350
 791,55; 8222,681;  213,470;46680,166;17,23645
 792,12; 8253,663;  228,239;46658,423;17,28493
 792,68; 8175,798;  226,547;46393,910;17,21834
 793,25; 8234,780;  218,086;46124,166;17,46325
 793,81; 8261,762;  254,547;45748,192;17,60073
 794,38; 8180,283;  197,394;45582,602;17,58919
 794,94; 8163,726;  212,701;45458,089;17,57312
 795,51; 8199,477;  225,240;45255,115;17,70877
 796,07; 8190,844;  215,471;44947,987;17,82903
 796,64; 8250,441;  225,240;45052,705;17,90242
 797,20; 8164,884;  223,240;44607,038;17,89312
 797,77; 8112,636;  205,164;44308,217;17,92953
 798,33; 8092,771;  212,010;44102,012;17,95571
 798,90; 8155,984;  249,779;44106,192;18,02748
 799,46; 8087,735;  230,856;43659,602;18,09142
 800,03; 8088,179;  226,779;43527,089;18,15553
 800,59; 8099,084;  235,703;43317,192;18,25234
 801,15; 8077,835;  228,318;43088,448;18,31426
 801,72; 8062,740;  226,549;42737,551;18,43332
 802,28; 8012,568;  248,318;42515,499;18,36945
 802,85; 7950,319;  225,934;42323,679;18,34869
 803,41; 8001,608;  220,165;42166,551;18,55093
 803,98; 7940,667;  213,011;41693,269;18,62972
 804,54; 7902,034;  223,703;41487,140;18,60807
 805,11; 7925,862;  233,319;41345,397;18,71115
 805,67; 7939,690;  249,934;41288,961;18,73767
 806,23; 7850,056;  228,858;40705,140;18,82880
 806,80; 7872,192;  248,319;40766,320;18,81601
 807,36; 7894,405;  249,935;40684,576;18,90574
 807,93; 7870,925;  249,396;40466,602;18,95092
 808,49; 7846,753;  213,704;40178,704;19,09933
 809,05; 7808,351;  203,397;39916,961;19,14951
 809,62; 7857,102;  230,089;39845,140;19,25282
 810,18; 7840,468;  237,012;39721,704;19,25672
 810,74; 7806,604;  202,858;39411,653;19,39296
 811,31; 7834,355;  217,551;39334,371;19,47194
 811,87; 7857,491;  219,166;39072,704;19,65928
 812,44; 7812,319;  253,013;39130,807;19,44376
 813,00; 7754,070;  195,090;38864,833;19,54753
 813,56; 7806,975;  232,628;38881,704;19,59774
 814,13; 7848,265;  221,859;38738,038;19,80053
 814,69; 7842,477;  229,782;38666,602;19,80574
 815,25; 7741,075;  206,013;38191,781;19,83654
 815,82; 7775,518;  240,936;38140,422;19,88043
 816,38; 7766,654;  254,475;38017,756;19,89281
 816,94; 7683,405;  212,321;37665,089;19,94802
 817,51; 7714,002;  213,398;37457,192;20,13921
 818,07; 7642,830;  216,091;37184,448;20,08945
 818,63; 7683,428;  232,629;37068,704;20,22691
 819,20; 7687,640;  228,014;36976,499;20,29914
 819,76; 7621,622;  211,168;36605,448;20,36159
 820,32; 7675,835;  258,476;36546,781;20,44008
 820,89; 7653,894;  253,322;36374,730;20,48805
 821,45; 7602,414;  219,861;36082,217;20,58580
 822,01; 7590,550;  241,399;35794,012;20,67120
 822,57; 7616,455;  239,092;35651,807;20,83253
 823,14; 7536,283;  203,246;35501,448;20,77453
 823,70; 7589,957;  211,861;35213,474;21,07930
 824,26; 7568,093;  217,323;35068,730;21,09175
 824,82; 7591,613;  235,323;34948,525;21,19162
 825,39; 7507,672;  221,323;34589,166;21,20107
 825,95; 7561,808;  248,785;34705,653;21,22370
 826,51; 7548,482;  234,169;34314,448;21,46201
 827,08; 7567,464;  273,400;34366,012;21,39485
 827,64; 7569,369;  244,554;34154,730;21,60064
 828,20; 7500,120;  216,247;33988,063;21,56791
 828,76; 7489,871;  242,939;33968,935;21,48767
 829,32; 7583,930;  235,170;33638,884;21,99983
 829,89; 7516,143;  205,632;33617,986;21,87966
 830,45; 7538,202;  224,016;33626,781;21,89695
 831,01; 7527,184;  217,324;33354,268;22,05955
 831,57; 7553,165;  226,093;33305,294;22,15009
 832,14; 7551,301;  216,555;33249,704;22,20420
 832,70; 7562,668;  221,171;33008,730;22,39111
 833,26; 7541,957;  198,940;32956,217;22,41645
 833,82; 7604,093;  226,478;32905,320;22,57612
 834,38; 7611,921;  219,017;32890,653;22,62790
 834,95; 7609,826;  213,094;32684,140;22,77947
 835,51; 7625,654;  187,786;32653,012;22,91026
 836,07; 7631,867;  227,479;32678,576;22,81706
 836,63; 7706,618;  246,479;32728,909;22,96669
 837,19; 7705,600;  226,941;32581,166;23,11494
 837,75; 7635,889;  194,479;32266,807;23,20197
 838,32; 7725,641;  241,710;32399,525;23,27251
 838,88; 7736,546;  241,556;32369,704;23,32842
 839,44; 7705,066;  223,095;32338,884;23,29686
 840,00; 7756,125;  218,634;32270,602;23,51647
 840,56; 7699,030;  202,480;31940,166;23,62034
 841,12; 7702,627;  205,018;32017,730;23,56796
 841,68; 7672,686;  198,865;31845,525;23,61646
 842,25; 7697,745;  206,249;31785,704;23,72269
 842,81; 7642,265;  199,634;31575,114;23,72117
 843,37; 7672,016;  201,327;31589,679;23,80083
 843,93; 7741,075;  213,173;31364,781;24,16537
 844,49; 7792,288;  224,173;31529,268;24,17535
 845,05; 7750,270;  196,711;31316,294;24,27268
 845,61; 7801,482;  222,789;31425,320;24,28871
 846,17; 7819,849;  220,019;31247,191;24,49411
 846,73; 7809,754;  222,866;31122,986;24,55294
 847,29; 7807,197;  197,943;30937,089;24,75428
 847,86; 7823,410;  200,327;30937,730;24,80067
 848,42; 7781,392;  189,943;30798,986;24,80133
 848,98; 7814,297;  222,097;30715,935;24,89749
 849,54; 7838,740;  207,712;30736,960;24,99579
 850,10; 7846,107;  218,482;30613,755;25,09477
 850,66; 7847,166;  192,251;30411,781;25,33102
 851,22; 7811,455;  201,636;30333,807;25,25480
 851,78; 7888,668;  241,021;30447,140;25,31821
 852,34; 7888,650;  221,944;30167,012;25,60257
 852,90; 7846,863;  216,252;30150,960;25,49085
 853,46; 7800,921;  205,405;29833,294;25,63637
 854,02; 7856,288;  218,175;29953,473;25,68702
 854,58; 7786,808;  202,944;29552,960;25,83939
 855,14; 7791,329;  198,713;29645,525;25,78417
 855,70; 7767,541;  183,021;29501,935;25,86903
 856,26; 7826,985;  225,791;29355,268;26,09451
 856,82; 7770,967;  194,022;29189,371;26,13159
 857,38; 7841,718;  227,791;29143,935;26,33106
 857,94; 7800,546;  219,099;29065,345;26,28227
 858,50; 7784,374;  216,868;28963,755;26,32461
 859,06; 7738,817;  209,330;28775,550;26,35801
 859,62; 7746,338;  212,022;28668,268;26,47684
 860,18; 7682,397;  207,330;28472,063;26,44662
 860,74; 7739,148;  181,945;28436,089;26,74724
 861,30; 7711,899;  184,715;28172,883;26,89416
 861,86; 7728,342;  218,099;28135,832;26,90134
 862,42; 7760,247;  208,330;28034,704;27,13942
 862,98; 7800,921;  239,792;28063,268;27,17536
 863,54; 7733,442;  215,715;27839,601;27,21459
 864,10; 7806,270;  220,331;27927,165;27,37931
 864,66; 7719,098;  193,485;27719,422;27,34008
 865,22; 7742,464;  215,485;27459,294;27,62822
 865,78; 7723,677;  217,869;27440,396;27,57205
 866,34; 7766,044;  207,870;27400,499;27,79494
 866,90; 7770,872;  213,870;27252,448;27,94896
 867,45; 7691,546;  232,177;27129,550;27,73270
 868,01; 7701,374;  209,101;26938,191;28,03041
 868,57; 7703,433;  211,255;26672,755;28,31350
 869,13; 7670,646;  209,255;26623,935;28,24714
 869,69; 7648,935;  204,409;26609,730;28,19328
 870,25; 7622,379;  198,178;26493,140;28,23431
 870,81; 7686,745;  209,101;26439,396;28,50766
 871,37; 7684,496;  216,563;26233,191;28,70446
 871,93; 7706,017;  219,332;26148,140;28,87400
 872,49; 7678,306;  214,871;25890,242;29,06846
 873,04; 7595,750;  203,025;25747,653;28,94043
 873,60; 7587,039;  193,871;25677,678;29,01124
 874,16; 7570,867;  207,179;25578,627;29,02352
 874,72; 7618,944;  207,717;25468,242;29,33916
 875,28; 7619,175;  229,640;25456,165;29,29272
 875,84; 7598,944;  209,717;25388,012;29,34761
 876,40; 7616,483;  211,948;25365,319;29,43754
 876,95; 7652,790;  222,871;25269,781;29,66402
 877,51; 7697,329;  235,563;25265,165;29,81176
 878,07; 7701,867;  250,563;25309,781;29,73478
 878,63; 7718,637;  205,563;25250,550;29,99831
 879,19; 7756,713;  220,025;25294,012;30,05780
 879,75; 7818,021;  208,871;25332,627;30,28667
 880,30; 7828,560;  216,563;25303,473;30,34250
 880,86; 7902,098;  249,025;25415,165;30,41020
 881,42; 7861,867;  214,871;25455,396;30,29650
 881,98; 7948,637;  213,410;25522,858;30,56261
 882,54; 7984,021;  212,563;25572,473;30,64466
 883,09; 8071,637;  217,025;25738,627;30,77633
 883,65; 8097,098;  199,640;25753,396;30,90527
 884,21; 8232,406;  239,256;26019,242;31,00525
 884,77; 8224,175;  204,179;26052,935;31,02662
 885,32; 8329,713;  214,717;26127,781;31,31624
 885,88; 8413,637;  246,487;26270,396;31,38326
 886,44; 8420,560;  216,256;26388,627;31,34719
 887,00; 8440,021;  226,794;26317,396;31,47964
 887,56; 8541,329;  215,102;26516,781;31,65664
 888,11; 8589,021;  216,025;26523,165;31,82785
 888,67; 8702,483;  247,102;26678,242;31,99022
 889,23; 8707,329;  221,333;26639,242;32,12213
 889,79; 8716,560;  212,871;26599,858;32,22683
 890,34; 8724,329;  213,794;26426,088;32,46772
 890,90; 8815,252;  264,794;26637,935;32,42108
 891,46; 8738,329;  201,179;26547,704;32,40332
 892,01; 8765,406;  246,717;26550,473;32,38583
 892,57; 8843,790;  247,102;26450,396;32,80766
 893,13; 8740,021;  217,563;26310,319;32,66216
 893,69; 8735,560;  213,487;26244,242;32,73848
 894,24; 8739,021;  227,871;26140,088;32,84609
 894,80; 8768,867;  228,717;26051,550;33,07209
 895,36; 8737,637;  215,794;25912,242;33,16350
 895,91; 8660,175;  220,025;25715,858;33,10404
 896,47; 8654,252;  232,179;25603,165;33,19569
 897,03; 8633,637;  215,871;25433,012;33,38113
 897,58; 8658,944;  226,871;25292,473;33,64002
 898,14; 8624,944;  233,487;25158,165;33,66727
 898,70; 8532,252;  204,333;25020,242;33,55879
 899,25; 8650,175;  219,102;25065,858;33,93229
 899,81; 8576,637;  238,563;24811,088;33,93250
 900,37; 8531,406;  202,487;24664,935;34,04777
 900,92; 8515,098;  216,871;24689,088;33,90877
 901,48; 8524,021;  206,948;24439,627;34,32172
 902,03; 8502,790;  220,179;24370,627;34,29589
 902,59; 8555,252;  224,948;24280,242;34,62981
 903,15; 8508,406;  237,256;24084,012;34,68459
 903,70; 8462,098;  226,410;23891,935;34,80036
 904,26; 8443,252;  206,563;23762,935;34,96586
 904,82; 8464,560;  226,410;23784,550;34,96944
 905,37; 8430,175;  226,179;23583,012;35,12461
 905,93; 8423,406;  205,333;23426,473;35,39048
 906,48; 8398,175;  225,487;23327,319;35,37680
 907,04; 8433,021;  229,871;23371,935;35,44693
 907,60; 8369,790;  214,717;23137,473;35,57632
 908,15; 8334,406;  208,717;22978,473;35,68632
 908,71; 8366,329;  244,487;23058,781;35,59980
 909,26; 8366,483;  204,948;22870,396;36,00871
 909,82; 8304,944;  242,333;22765,935;35,79628
 910,37; 8365,790;  262,025;22674,935;36,15669
 910,93; 8322,790;  215,487;22437,012;36,48401
 911,48; 8290,329;  216,487;22333,012;36,50593
 912,04; 8275,560;  207,333;22260,858;36,58475
 912,60; 8285,021;  210,563;22204,627;36,71199
 913,15; 8233,098;  220,179;22091,627;36,63644
 913,71; 8190,021;  216,025;21865,704;36,83194
 914,26; 8166,021;  209,640;21903,165;36,67629
 914,82; 8138,329;  218,794;21716,165;36,83955
 915,37; 8132,560;  211,179;21795,242;36,70014
 915,93; 8124,406;  243,102;21568,165;36,95794
 916,48; 8058,483;  213,871;21460,473;36,92172
 917,04; 8090,175;  219,410;21340,473;37,26501
 917,59; 8075,790;  245,717;21340,550;37,11844
 918,15; 8031,867;  190,102;21153,781;37,40644
 918,70; 7987,637;  215,487;20980,396;37,42925
 919,26; 8036,713;  221,179;20927,012;37,74557
 919,81; 7926,252;  208,871;20748,319;37,57346
 920,37; 7941,175;  213,640;20701,550;37,71754
 920,92; 7972,560;  223,794;20604,781;38,01958
 921,48; 7902,867;  195,410;20430,242;38,09005
 922,03; 7877,637;  218,025;20399,242;37,95416
 922,59; 7905,944;  202,410;20284,704;38,35983
 923,14; 7894,483;  204,948;20158,396;38,53737
 923,69; 7916,021;  230,410;20127,165;38,62746
 924,25; 7899,329;  223,563;20013,396;38,78641
 924,80; 7859,483;  215,025;19914,627;38,80514
 925,36; 7824,637;  216,563;19836,704;38,77685
 925,91; 7811,560;  213,102;19648,781;39,09541
 926,47; 7811,329;  203,487;19631,088;39,15997
 927,02; 7850,790;  235,640;19501,396;39,52687
 927,57; 7799,483;  222,794;19368,396;39,57404
 928,13; 7812,713;  204,333;19312,319;39,81780
 928,68; 7795,252;  214,256;19174,858;39,98289
 929,24; 7693,021;  190,948;19009,012;39,86634
 929,79; 7668,944;  211,794;18983,088;39,72635
 930,34; 7710,483;  221,717;18895,858;40,10233
 930,90; 7660,098;  200,487;18782,473;40,14432
 931,45; 7662,021;  229,410;18742,088;40,14876
 932,01; 7641,944;  224,871;18605,242;40,35323
 932,56; 7603,252;  230,563;18502,473;40,34985
 933,11; 7611,867;  231,179;18516,781;40,36339
 933,67; 7587,713;  197,102;18280,012;40,87070
 934,22; 7578,637;  216,487;18281,165;40,75439
 934,77; 7614,329;  245,333;18135,704;41,18973
 935,33; 7500,560;  225,640;18075,165;40,75693
 935,88; 7576,560;  225,256;17939,550;41,49928
 936,43; 7506,790;  212,640;17899,242;41,24110
 936,99; 7509,175;  214,333;17770,627;41,55115
 937,54; 7495,406;  202,717;17604,242;41,90833
 938,09; 7502,867;  225,333;17588,704;41,91314
 938,65; 7441,560;  216,256;17445,781;41,93560
 939,20; 7442,637;  197,025;17358,165;42,22104
 939,75; 7419,637;  201,179;17257,396;42,32156
 940,31; 7424,483;  193,717;17228,550;42,44694
 940,86; 7452,790;  223,025;17136,627;42,74527
 941,41; 7438,944;  253,794;17060,704;42,75117
 941,96; 7373,175;  217,563;16938,088;42,79538
 942,52; 7393,867;  218,025;16923,088;42,95609
 943,07; 7281,252;  197,333;16744,319;42,81093
 943,62; 7305,713;  210,179;16712,319;42,99766
 944,18; 7286,406;  197,410;16626,858;43,14811
 944,73; 7292,560;  216,333;16583,473;43,23435
 945,28; 7180,175;  179,410;16355,704;43,27793
 945,83; 7224,406;  208,025;16382,088;43,38045
 946,39; 7214,790;  209,102;16293,396;43,55608
 946,94; 7209,098;  229,640;16191,935;43,72465
 947,49; 7162,252;  205,717;16159,242;43,60500
 948,04; 7221,637;  224,256;16080,935;44,12892
 948,59; 7163,867;  228,640;16028,858;43,89324
 949,15; 7081,406;  194,487;15947,088;43,71925
 949,70; 7147,483;  206,179;15818,165;44,46137
 950,25; 7117,944;  233,563;15749,550;44,36960
 950,80; 7043,329;  181,102;15661,396;44,32879
 951,36; 7006,021;  180,256;15599,858;44,26681
 951,91; 7054,175;  230,717;15597,088;44,40513
 952,46; 6950,790;  180,179;15352,858;44,62371
 953,01; 6995,098;  227,640;15431,012;44,51288
 953,56; 6951,021;  185,640;15285,396;44,80457
 954,11; 7000,867;  218,256;15252,088;45,11565
 954,67; 6908,483;  210,948;15143,165;44,85291
 955,22; 6852,483;  189,025;15032,627;44,89111
 955,77; 6917,637;  233,025;14985,550;45,31164
 956,32; 6878,406;  248,102;14869,550;45,34642
 956,87; 6822,713;  199,102;14740,781;45,54915
 957,42; 6786,944;  202,563;14703,473;45,40667
 957,98; 6772,637;  209,640;14698,088;45,29813
 958,53; 6773,790;  221,640;14588,012;45,60755
 959,08; 6764,944;  191,717;14508,012;45,91430
 959,63; 6684,637;  200,717;14414,012;45,61869
 960,18; 6680,406;  222,794;14310,242;45,83947
 960,73; 6710,637;  211,717;14232,858;46,35086
 961,28; 6639,944;  199,948;14197,319;46,00861
 961,83; 6667,406;  229,871;14126,858;46,32324
 962,39; 6617,944;  199,640;13991,242;46,53777
 962,94; 6636,713;  221,948;13961,319;46,68893
 963,49; 6581,483;  212,487;13818,396;46,81051
 964,04; 6584,252;  228,794;13819,627;46,76283
 964,59; 6549,790;  183,794;13670,627;47,20157
 965,14; 6527,252;  214,871;13636,935;47,02988
 965,69; 6542,867;  213,025;13554,550;47,44467
 966,24; 6469,637;  205,256;13438,550;47,33803
 966,79; 6417,098;  222,333;13380,396;47,07961
 967,34; 6388,252;  188,410;13282,704;47,34766
 967,89; 6425,713;  203,794;13182,165;47,94068
 968,44; 6403,637;  206,794;13090,627;48,09782
 968,99; 6379,329;  217,871;13085,935;47,88178
 969,55; 6340,406;  219,487;13056,319;47,68247
 970,10; 6325,790;  216,871;12974,165;47,88570
 970,65; 6300,637;  218,948;12846,550;48,16186
 971,20; 6205,098;  207,410;12765,550;47,75937
 971,75; 6175,713;  195,179;12632,165;48,08669
 972,30; 6199,098;  209,102;12537,704;48,58618
 972,85; 6126,637;  209,025;12490,165;48,18454
 973,40; 6108,713;  197,487;12359,550;48,60382
 973,95; 6087,021;  211,179;12289,627;48,64733
 974,50; 6125,790;  235,256;12209,704;49,19254
 975,05; 6008,329;  219,179;12147,781;48,53167
 975,60; 5998,252;  227,640;12128,858;48,48757
 976,15; 5951,867;  210,948;12005,858;48,67285
 976,70; 5924,944;  227,487;11875,704;48,91270
 977,25; 5931,175;  219,871;11847,858;49,11688
 977,80; 5830,021;  212,333;11696,550;48,91660
 978,35; 5813,406;  219,563;11599,396;49,15575
 978,89; 5785,098;  192,025;11549,088;49,24753
 979,44; 5827,252;  208,871;11497,319;49,77106
 979,99; 5739,175;  200,025;11345,242;49,69979
 980,54; 5751,790;  231,794;11301,550;49,86556
 981,09; 5703,560;  228,333;11217,781;49,82258
 981,64; 5631,790;  222,102;11083,627;49,80598
 982,19; 5642,175;  248,025;11040,088;49,98256
 982,74; 5578,560;  232,410;10919,473;50,02450
 983,29; 5512,252;  199,717;10854,550;49,86033
 983,84; 5485,790;  230,563;10682,242;50,28117
 984,39; 5534,175;  236,871;10666,781;50,78955
 984,94; 5424,021;  202,640;10536,242;50,52818
 985,49; 5425,329;  239,487;10394,242;51,06811
 986,03; 5405,944;  239,563;10423,550;50,73044
 986,58; 5370,252;  254,487;10223,473;51,31681
 987,13; 5315,021;  227,179;10117,550;51,44238
 987,68; 5291,406;  231,179;10047,935;51,54684
 988,23; 5304,252;  233,794;10004,858;51,89259
 988,78; 5181,560;  215,333; 9885,704;51,35508
 989,33; 5192,483;  228,794; 9824,473;51,72837
 989,88; 5151,098;  239,179; 9742,935;51,68398
 990,42; 5086,175;  226,179; 9603,627;51,82643
 990,97; 5030,252;  222,717; 9473,012;51,97169
 991,52; 5051,098;  244,487; 9536,704;51,72728
 992,07; 5024,098;  244,410; 9348,550;52,50016
 992,62; 4933,483;  231,410; 9293,319;51,88832
 993,17; 4920,944;  230,179; 9157,781;52,54228
 993,71; 4868,021;  234,487; 9069,088;52,44758
 994,26; 4817,483;  212,948; 8950,781;52,69653
 994,81; 4821,021;  247,102; 8892,858;52,90364
 995,36; 4734,021;  219,256; 8732,396;53,03290
 995,91; 4737,329;  229,102; 8727,165;53,05005
 996,45; 4702,713;  231,794; 8630,473;53,23360
 997,00; 4575,021;  209,025; 8499,165;52,66492
 997,55; 4606,329;  227,640; 8491,012;52,98913
 998,10; 4572,252;  248,179; 8363,935;53,27998
 998,65; 4532,406;  223,179; 8317,012;53,24087
 999,19; 4501,098;  239,333; 8162,627;53,78780
 999,74; 4441,944;  250,487; 8063,088;53,64996
1000,29; 4424,790;  242,179; 8035,012;53,67254
1000,84; 4354,098;  220,871; 7901,627;53,81276
1001,38; 4311,867;  221,563; 7804,935;53,93780
1001,93; 4329,329;  249,948; 7778,012;54,18898
1002,48; 4257,713;  219,102; 7667,704;54,21973
1003,03; 4201,637;  224,794; 7615,242;53,81057
1003,57; 4204,329;  242,179; 7510,781;54,51048
1004,12; 4168,713;  242,794; 7420,704;54,69446
1004,67; 4086,637;  227,410; 7327,473;54,35482
1005,22; 4037,252;  214,871; 7172,242;54,94002
1005,76; 3992,098;  206,487; 7067,858;55,17281
1006,31; 3972,021;  237,794; 7078,165;54,59100
1006,86; 3889,637;  224,256; 6927,012;54,68468
1007,40; 3832,329;  201,487; 6818,473;54,87154
1007,95; 3798,790;  219,333; 6702,781;55,20917
1008,50; 3743,252;  224,794; 6639,858;54,84681
1009,04; 3696,098;  235,256; 6551,935;54,78895
1009,59; 3669,329;  233,871; 6451,165;55,25648
1010,14; 3597,560;  211,717; 6324,012;55,39397
1010,68; 3567,867;  223,948; 6220,088;55,76786
1011,23; 3512,944;  192,563; 6125,396;55,96620
1011,78; 3515,713;  228,410; 6082,473;56,15422
1012,32; 3455,637;  224,179; 5967,781;56,26187
1012,87; 3443,329;  245,640; 5984,319;55,72168
1013,42; 3373,637;  216,410; 5836,396;56,17855
1013,96; 3396,406;  239,871; 5882,627;55,93959
1014,51; 3303,790;  192,487; 5748,935;55,99447
1015,06; 3344,713;  199,179; 5721,319;56,96224
1015,60; 3372,713;  262,179; 5859,165;55,57517
1016,15; 3363,329;  220,256; 5778,165;56,55135
1016,69; 3384,713;  222,102; 5833,858;56,35690
1017,24; 3394,944;  198,179; 5799,550;57,07112
1017,79; 3423,713;  239,948; 5843,242;56,81953
1018,33; 3397,098;  206,948; 5874,473;56,28824
1018,88; 3471,637;  233,640; 5905,473;57,08906
1019,42; 3484,713;  217,871; 5889,935;57,59531
1019,97; 3462,329;  214,563; 5898,242;57,14196
1020,51; 3513,790;  222,640; 5889,550;58,07663
1021,06; 3515,944;  212,948; 5904,012;58,03829
1021,61; 3500,560;  197,102; 5858,935;58,34608
1022,15; 3483,867;  181,640; 5841,473;58,34496
1022,70; 3515,021;  212,487; 5878,704;58,28464
1023,24; 3473,483;  206,025; 5774,473;58,67807
1023,79; 3455,252;  226,179; 5726,088;58,71138
1024,33; 3449,483;  220,487; 5669,473;59,25866
1024,88; 3397,021;  221,948; 5594,704;59,09580
1025,42; 3361,637;  211,794; 5490,935;59,66582
1025,97; 3332,483;  212,102; 5451,550;59,55552
1026,51; 3287,098;  178,948; 5318,550;60,47453
1027,06; 3258,483;  211,333; 5295,012;59,93986
1027,60; 3198,329;  218,563; 5148,473;60,44260
1028,15; 3176,483;  225,563; 5140,088;60,04485
1028,69; 3100,637;  195,640; 4995,550;60,52189
1029,24; 3059,483;  209,025; 4952,319;60,09447
1029,78; 3037,483;  210,563; 4861,627;60,78006
1030,33; 2968,098;  192,640; 4782,550;60,46868
1030,87; 2966,252;  207,717; 4711,088;61,25488
1031,42; 2891,329;  210,333; 4652,781;60,34952
1031,96; 2913,252;  218,794; 4589,550;61,64741
1032,51; 2851,867;  196,487; 4476,935;62,03511
1033,05; 2813,560;  218,256; 4473,704;60,98779
1033,60; 2759,944;  193,563; 4344,781;61,82237
1034,14; 2736,560;  205,871; 4275,550;62,18398
1034,69; 2712,637;  198,563; 4244,165;62,14336
1035,23; 2674,637;  215,640; 4171,935;62,15403
1035,77; 2629,098;  200,333; 4117,165;62,00840
1036,32; 2606,329;  187,333; 4057,627;62,50161
1036,86; 2595,252;  200,487; 3996,935;63,07910
1037,41; 2564,406;  229,102; 3932,473;63,05887
1037,95; 2501,944;  181,563; 3886,165;62,63509
1038,50; 2469,483;  203,871; 3824,858;62,56890
1039,04; 2478,560;  213,333; 3800,781;63,14313
1039,58; 2401,098;  202,102; 3725,627;62,40898
1040,13; 2386,483;  225,640; 3698,858;62,21443
1040,67; 2391,252;  234,410; 3655,550;63,04454
1041,21; 2340,713;  233,794; 3576,858;63,02361
1041,76; 2279,175;  189,563; 3504,550;63,03529
1042,30; 2275,944;  210,333; 3495,858;62,87006
1042,85; 2221,252;  195,563; 3425,165;62,72254
1043,39; 2206,175;  203,717; 3353,396;63,57657
1043,93; 2169,790;  223,025; 3308,473;63,09506
1044,48; 2161,175;  217,179; 3286,396;63,33850
1045,02; 2104,867;  218,333; 3232,242;62,59427
1045,56; 2115,944;  216,871; 3206,242;63,52751
1046,11; 2101,483;  216,717; 3161,935;63,99410
1046,65; 2058,637;  216,102; 3111,012;63,64740
1047,19; 2011,329;  207,871; 3041,088;63,65405
1047,74; 1989,329;  198,871; 3008,935;63,71592
1048,28; 1987,252;  224,256; 2962,627;64,38120
1048,82; 1959,560;  231,717; 2919,704;64,28017
1049,37; 1922,252;  219,025; 2880,165;64,00365
1049,91; 1904,713;  202,179; 2835,088;64,66362
1050,45; 1897,790;  234,102; 2824,012;64,23732
1050,99; 1863,406;  203,410; 2761,319;64,89659
1051,54; 1812,867;  207,256; 2712,473;64,09071
1052,08; 1829,483;  223,871; 2715,319;64,44491
1052,62; 1812,406;  226,256; 2672,858;64,83073
1053,16; 1764,406;  201,025; 2597,781;65,22904
1053,71; 1777,175;  215,871; 2567,012;66,40624
1054,25; 1723,483;  236,333; 2546,858;64,36416
1054,79; 1701,021;  224,487; 2497,012;64,97331
1055,33; 1654,560;  193,025; 2461,858;64,41791
1055,88; 1671,406;  234,333; 2448,396;64,90659
1056,42; 1665,637;  239,410; 2421,627;65,35678
1056,96; 1642,098;  223,794; 2358,627;66,43630
1057,50; 1603,252;  222,563; 2322,012;65,76435
1058,05; 1581,098;  217,948; 2299,473;65,48804
1058,59; 1591,483;  231,256; 2269,473;66,73611
1059,13; 1535,098;  199,563; 2217,242;66,19163
1059,67; 1521,098;  234,871; 2212,781;65,02961
1060,21; 1493,713;  222,717; 2158,781;65,64848
1060,76; 1495,021;  230,717; 2147,935;65,94473
1061,30; 1504,329;  245,179; 2119,319;67,18547
1061,84; 1447,637;  221,102; 2066,550;66,46270
1062,38; 1418,252;  214,640; 2029,319;66,32642
1062,92; 1455,021;  256,948; 2062,935;66,33898
1063,46; 1425,560;  234,563; 1991,781;67,77740
1064,01; 1378,021;  209,717; 1961,088;66,70795
1064,55; 1398,713;  227,717; 1943,319;68,25570
1065,09; 1340,329;  203,256; 1904,935;66,82066
1065,63; 1360,483;  243,794; 1916,550;66,75741
1066,17; 1340,944;  242,487; 1887,627;66,76985
1066,71; 1328,790;  241,563; 1878,704;66,41012
1067,25; 1306,637;  215,256; 1818,935;68,05482
1067,80; 1306,560;  240,717; 1811,319;67,86203
1068,34; 1307,560;  255,487; 1823,473;67,09707
1068,88; 1272,790;  224,717; 1739,012;69,21198
1069,42; 1275,867;  260,025; 1768,627;67,33667
1069,96; 1235,483;  230,640; 1709,473;67,94834
1070,50; 1268,483;  243,410; 1728,012;69,04700
1071,04; 1192,483;  215,256; 1665,165;67,39916
1071,58; 1213,713;  225,179; 1660,935;68,85117
1072,12; 1191,175;  220,640; 1631,242;68,80287
1072,66; 1186,713;  219,563; 1625,550;68,78800
1073,21; 1183,713;  231,794; 1632,627;67,95381
1073,75; 1179,944;  231,410; 1603,242;69,14361
1074,29; 1151,867;  234,640; 1577,319;68,31320
1074,83; 1146,406;  244,487; 1571,858;67,94778
1075,37; 1140,560;  233,256; 1535,473;69,67377
1075,91; 1141,329;  249,179; 1527,088;69,81323
1076,45; 1102,944;  235,948; 1492,935;68,97418
1076,99; 1100,175;  236,025; 1472,012;69,91581
1077,53; 1065,406;  220,794; 1450,781;68,66836
1078,07; 1078,252;  237,948; 1450,396;69,30638
1078,61; 1054,329;  229,948; 1413,704;69,64112
1079,15; 1046,175;  220,640; 1402,473;69,85207
1079,69; 1041,790;  237,717; 1409,935;68,59420
1080,23; 1040,021;  243,717; 1403,012;68,68867
1080,77; 1043,252;  243,717; 1385,704;70,01261
1081,31; 1004,406;  221,717; 1334,319;70,34757
1081,85; 1016,713;  240,640; 1359,473;69,36453
1082,39;  981,867;  230,948; 1313,858;69,34274
1082,93;  985,560;  229,179; 1312,627;69,81237
1083,47;  958,406;  219,871; 1271,088;70,25518
1084,01;  976,252;  239,640; 1289,319;70,17494
1084,55;  948,406;  226,410; 1251,550;70,42900
1085,09;  956,483;  239,487; 1260,704;70,20995
1085,63;  941,252;  233,487; 1224,704;71,40365
1086,17;  914,560;  225,025; 1211,396;69,90620
1086,71;  899,944;  227,410; 1195,781;69,45009
1087,24;  922,021;  253,025; 1210,319;69,88407
1087,78;  901,329;  231,410; 1172,781;71,16420
1088,32;  875,329;  215,871; 1147,012;70,82259
1088,86;  911,175;  253,025; 1173,550;71,49724
1089,40;  884,406;  225,256; 1135,627;72,40453
1089,94;  846,098;  199,025; 1098,781;71,91652
1090,48;  867,560;  238,487; 1108,242;72,32755
1091,02;  852,637;  232,102; 1098,550;71,61821
1091,56;  861,560;  242,025; 1077,935;74,11502
1092,10;  812,329;  213,102; 1070,165;69,91628
1092,63;  837,560;  256,256; 1063,319;72,02703
1093,17;  829,406;  233,640; 1056,165;72,43128
1093,71;  804,560;  233,640; 1037,473;71,02463
1094,25;  827,406;  248,102; 1041,627;73,00386
1094,79;  807,483;  235,410; 1022,550;72,67739
1095,33;  787,252;  221,794; 1012,319;71,52939
1095,87;  781,483;  232,179;  988,473;72,63097
1096,40;  754,867;  218,102;  960,550;72,29669
1096,94;  768,406;  230,025;  968,165;72,93745
1097,48;  771,483;  236,256;  953,935;74,57750
1098,02;  744,483;  220,410;  951,935;71,64117
1098,56;  704,252;  210,179;  903,319;71,28038
1099,10;  713,252;  212,256;  904,627;72,35948
1099,63;  718,637;  213,410;  909,935;72,53536
1100,17;  732,483;  235,333;  914,858;73,16140
1100,71;  746,406;  234,871;  913,627;75,36358

