
Integration time [ms]: 120,000
Averaging Nr. [scans]: 13
Smoothing Nr. [pixels]: 0
Data measured with spectrometer [name]: 2009305U1
Wave   ;Sample   ;Dark     ;Reference;Reflectance
[nm]   ;[counts] ;[counts] ;[counts] ;[%]

 175,72;  205,854;  214,011;  210,491; 0,00000
 176,32;  220,234;  234,854;  221,035; 0,00000
 176,92;  247,490;  252,010;  252,105; 0,00000
 177,52;  261,274;  257,703;  269,755;29,62645
 178,12;  235,383;  259,162;  226,222; 0,00000
 178,72;  255,310;  267,700;  262,977; 0,00000
 179,32;  261,528;  267,008;  252,990; 0,00000
 179,92;  255,344;  252,086;  260,981;36,62815
 180,52;  246,829;  237,474;  255,204;52,76121
 181,12;  258,001;  264,779;  246,111; 0,00000
 181,73;  272,186;  271,317;  278,774;11,65540
 182,33;  343,940;  340,858;  349,872;34,19374
 182,93;  271,219;  273,087;  278,576;-34,04068
 183,53;  228,879;  244,776;  235,582; 0,00000
 184,13;  237,808;  240,007;  242,458;-89,77101
 184,73;  285,467;  276,391;  275,425; 0,00000
 185,33;  268,148;  235,450;  343,179;30,35211
 185,93;  266,580;  251,371;  366,993;13,15354
 186,53;  275,921;  264,296;  383,324; 9,76668
 187,13;  312,553;  281,913;  402,614;25,38482
 187,73;  274,051;  244,295;  367,374;24,17626
 188,33;  283,348;  247,370;  376,787;27,79965
 188,93;  285,808;  256,828;  379,932;23,54130
 189,53;  281,067;  255,441;  383,528;20,00681
 190,13;  315,702;  286,282;  413,440;23,13698
 190,73;  256,160;  230,670;  367,501;18,62860
 191,34;  287,983;  264,519;  392,473;18,33781
 191,94;  270,599;  250,061;  358,025;19,02289
 192,54;  290,012;  255,069;  412,450;22,20314
 193,14;  302,806;  270,067;  393,208;26,58663
 193,74;  287,661;  258,913;  388,839;22,12635
 194,34;  292,485;  265,375;  387,456;22,20680
 194,94;  256,059;  225,298;  364,182;22,14913
 195,54;  226,438;  208,066;  338,321;14,10476
 196,14;  256,445;  238,222;  374,307;13,39136
 196,74;  244,066;  230,758;  370,073; 9,55289
 197,34;  234,217;  208,454;  361,345;16,85033
 197,94;  266,404;  243,683;  382,730;16,34056
 198,54;  273,970;  244,914;  393,339;19,57640
 199,14;  248,005;  217,916;  394,871;17,00363
 199,74;  237,829;  208,609;  371,590;17,92848
 200,34;  233,671;  197,455;  397,849;18,07224
 200,94;  275,216;  244,838;  422,816;17,06834
 201,54;  249,964;  218,531;  427,054;15,07392
 202,14;  283,857;  237,763;  478,271;19,16518
 202,74;  259,218;  222,455;  491,403;13,66917
 203,34;  237,506;  199,611;  485,145;13,27160
 203,94;  214,052;  171,302;  499,632;13,02041
 204,54;  294,096;  250,990;  582,263;13,01216
 205,14;  260,684;  201,839;  591,288;15,10968
 205,74;  301,781;  250,149;  673,170;12,20566
 206,34;  253,943;  217,610;  685,661; 7,76270
 206,94;  275,200;  223,994;  767,684; 9,41835
 207,54;  250,794;  195,609;  803,859; 9,07261
 208,14;  282,007;  211,917;  871,919;10,61954
 208,74;  283,150;  210,147;  953,332; 9,82296
 209,34;  283,734;  211,686; 1030,270; 8,80155
 209,94;  302,535;  227,224; 1107,404; 8,55626
 210,54;  304,763;  224,456; 1213,557; 8,11915
 211,14;  315,118;  219,378; 1305,660; 8,81358
 211,73;  308,887;  217,608; 1452,751; 7,39012
 212,33;  337,623;  227,377; 1547,098; 8,35378
 212,93;  323,349;  212,531; 1631,895; 7,80753
 213,53;  311,589;  184,455; 1698,742; 8,39563
 214,13;  328,113;  201,765; 1768,735; 8,06319
 214,73;  326,165;  205,686; 1818,655; 7,46935
 215,33;  311,535;  170,070; 1843,865; 8,45171
 215,93;  351,261;  215,533; 1939,797; 7,87162
 216,53;  319,919;  171,916; 2008,260; 8,05964
 217,13;  392,188;  218,225; 2228,230; 8,65484
 217,73;  389,754;  197,226; 2419,695; 8,66282
 218,33;  363,774;  167,689; 2608,289; 8,03431
 218,93;  421,709;  193,075; 2925,847; 8,36637
 219,53;  466,444;  187,919; 3199,315; 9,24901
 220,13;  440,838;  160,997; 3492,152; 8,40073
 220,73;  504,336;  196,301; 3855,225; 8,41872
 221,32;  555,457;  196,224; 4241,486; 8,88035
 221,92;  609,584;  194,535; 4611,645; 9,39640
 222,52;  628,058;  175,534; 5028,421; 9,32484
 223,12;  664,298;  188,611; 5452,883; 9,03614
 223,72;  732,275;  193,149; 5839,909; 9,54752
 224,32;  774,004;  201,457; 6225,846; 9,50381
 224,92;  790,130;  187,995; 6528,218; 9,49706
 225,52;  873,101;  204,225; 6824,864;10,10290
 226,12;  884,966;  197,995; 7150,236; 9,88130
 226,72;  904,378;  170,610; 7430,639;10,10696
 227,31;  953,581;  166,918; 7784,703;10,32668
 227,91; 1032,816;  199,224; 8174,074;10,45275
 228,51; 1079,411;  190,762; 8542,716;10,64002
 229,11; 1139,921;  200,610; 8901,221;10,79592
 229,71; 1181,113;  190,147; 9201,856;10,99643
 230,31; 1217,832;  176,996; 9611,594;11,03212
 230,91; 1280,682;  180,376; 9901,870;11,31827
 231,51; 1331,112;  172,918;10149,144;11,60954
 232,10; 1398,878;  179,689;10549,763;11,75681
 232,70; 1456,024;  187,529;10728,456;12,03400
 233,30; 1522,867;  211,687;11067,642;12,07798
 233,90; 1548,763;  185,456;11173,783;12,40686
 234,50; 1578,867;  186,380;11254,406;12,58117
 235,10; 1638,823;  185,611;11410,449;12,94639
 235,70; 1709,440;  196,070;11478,618;13,41337
 236,29; 1744,566;  198,301;11520,004;13,65753
 236,89; 1748,039;  177,761;11422,929;13,96403
 237,49; 1806,183;  191,072;11328,499;14,50166
 238,09; 1771,481;  187,917;11123,585;14,48073
 238,69; 1821,423;  216,068;10997,794;14,88959
 239,29; 1779,364;  181,686;10689,070;15,20528
 239,89; 1774,220;  195,299;10454,865;15,38974
 240,48; 1719,531;  185,225;10118,418;15,44626
 241,08; 1721,942;  193,763; 9742,825;16,00345
 241,68; 1717,681;  213,763; 9520,143;16,16007
 242,28; 1653,102;  178,995; 9134,763;16,45987
 242,88; 1685,090;  227,611; 8920,992;16,76539
 243,48; 1629,206;  223,533; 8575,165;16,83112
 244,07; 1599,788;  203,532; 8415,676;17,00234
 244,67; 1596,269;  202,841; 8270,125;17,27259
 245,27; 1613,733;  220,454; 8104,289;17,67260
 245,87; 1578,895;  209,534; 8052,016;17,46082
 246,47; 1581,529;  203,454; 8026,533;17,61551
 247,06; 1557,273;  192,917; 8066,640;17,32797
 247,66; 1586,441;  189,225; 8140,829;17,57150
 248,26; 1626,941;  214,147; 8246,541;17,58871
 248,86; 1634,715;  204,377; 8416,278;17,41786
 249,46; 1635,134;  163,226; 8637,810;17,36850
 250,05; 1705,730;  200,225; 9001,750;17,10505
 250,65; 1730,153;  180,146; 9283,159;17,02741
 251,25; 1808,924;  186,609; 9749,741;16,96427
 251,85; 1865,103;  200,838;10301,961;16,47604
 252,44; 1910,892;  165,147;10896,011;16,26845
 253,04; 2039,259;  199,916;11586,994;16,15289
 253,64; 2069,253;  155,377;12285,600;15,77775
 254,24; 2242,291;  207,379;13194,570;15,66861
 254,84; 2324,365;  178,226;14003,964;15,52278
 255,43; 2435,091;  184,455;14937,800;15,25509
 256,03; 2563,416;  188,992;15838,293;15,17271
 256,63; 2675,704;  193,992;16841,839;14,90711
 257,23; 2731,673;  186,761;17628,321;14,59108
 257,82; 2834,509;  195,299;18538,267;14,38813
 258,42; 2896,662;  162,990;19328,589;14,26343
 259,02; 3009,883;  209,301;20139,462;14,05198
 259,62; 3078,100;  180,221;20731,471;14,10074
 260,21; 3114,598;  194,685;21289,210;13,84204
 260,81; 3165,704;  184,071;21702,030;13,85648
 261,41; 3170,649;  174,606;22078,227;13,67830
 262,01; 3255,158;  221,682;22455,243;13,64368
 262,60; 3212,211;  173,146;22837,551;13,40898
 263,20; 3255,049;  180,300;23017,834;13,46358
 263,80; 3237,552;  212,297;23269,479;13,12066
 264,40; 3241,661;  179,605;23417,988;13,17672
 264,99; 3242,773;  197,605;23557,247;13,03602
 265,59; 3234,052;  173,065;23634,504;13,04689
 266,19; 3219,145;  175,220;23791,813;12,88892
 266,78; 3262,560;  219,527;23890,966;12,85529
 267,38; 3236,306;  190,604;23883,007;12,85518
 267,98; 3222,438;  178,373;23945,249;12,80801
 268,58; 3216,356;  196,219;23961,147;12,70838
 269,17; 3205,978;  181,526;23839,644;12,78400
 269,77; 3158,627;  194,607;23667,926;12,62719
 270,37; 3162,244;  171,759;23642,100;12,74155
 270,96; 3139,572;  220,837;23534,837;12,51924
 271,56; 3081,446;  185,069;23236,441;12,56488
 272,16; 3061,191;  179,683;23018,809;12,61654
 272,75; 3064,006;  201,914;22979,060;12,56563
 273,35; 3039,902;  197,760;22937,037;12,49882
 273,95; 3011,137;  193,144;22835,086;12,44590
 274,54; 3036,431;  178,456;22986,372;12,53063
 275,14; 3122,536;  202,453;23256,121;12,66646
 275,74; 3096,155;  173,606;23292,559;12,64136
 276,33; 3153,509;  226,684;23662,406;12,48874
 276,93; 3211,608;  196,687;23913,182;12,71234
 277,53; 3277,697;  199,608;24534,799;12,64871
 278,12; 3391,981;  170,454;25029,700;12,95907
 278,72; 3495,597;  220,070;25611,676;12,90004
 279,32; 3568,498;  187,070;26204,399;12,99683
 279,91; 3667,090;  181,377;26885,050;13,05331
 280,51; 3768,100;  188,224;27319,345;13,19472
 281,11; 3915,294;  188,762;28027,807;13,38599
 281,70; 4006,384;  172,300;28516,318;13,52696
 282,30; 4165,754;  167,761;29008,980;13,86208
 282,90; 4262,483;  183,530;29518,614;13,90469
 283,49; 4399,649;  205,760;29882,679;14,13182
 284,09; 4545,786;  215,684;30373,638;14,35808
 284,69; 4683,172;  211,147;30792,239;14,62350
 285,28; 4831,732;  202,300;31094,996;14,98552
 285,88; 5010,766;  247,452;31228,136;15,37511
 286,47; 5049,659;  203,684;31397,204;15,53520
 287,07; 5219,213;  224,916;31454,989;15,99195
 287,67; 5352,668;  212,456;31525,935;16,41533
 288,26; 5527,746;  191,070;31458,104;17,06806
 288,86; 5688,519;  185,915;31527,080;17,55711
 289,46; 5925,968;  194,608;31602,333;18,24825
 290,05; 6173,793;  179,994;31644,792;19,04922
 290,65; 6421,518;  188,530;31961,330;19,61737
 291,24; 6715,864;  197,531;32071,772;20,45016
 291,84; 6945,320;  210,376;32187,916;21,06148
 292,44; 7201,808;  197,687;32306,192;21,81391
 293,03; 7577,543;  256,993;32436,881;22,74884
 293,63; 7743,686;  192,530;32589,832;23,30798
 294,22; 8075,230;  223,916;32787,544;24,11069
 294,82; 8246,448;  189,298;32749,534;24,74537
 295,41; 8337,076;  178,377;32409,549;25,31307
 296,01; 8558,933;  233,298;32385,570;25,89439
 296,61; 8647,719;  208,916;32144,624;26,42435
 297,20; 8668,417;  197,375;31749,385;26,84787
 297,80; 8766,726;  208,763;31707,096;27,16957
 298,39; 8716,179;  181,530;31272,269;27,45078
 298,99; 8864,907;  218,914;31171,619;27,93291
 299,58; 8881,369;  210,610;31033,330;28,13106
 300,18; 8862,685;  220,225;30806,427;28,25607
 300,78; 8822,041;  199,378;30449,890;28,50419
 301,37; 8873,538;  207,451;30432,521;28,67185
 301,97; 8975,787;  206,454;30430,936;29,01401
 302,56; 8901,510;  188,992;30386,632;28,85165
 303,16; 8941,473;  176,837;30333,084;29,06408
 303,75; 8968,711;  193,763;30285,065;29,16108
 304,35; 9105,230;  186,380;30508,043;29,41412
 304,94; 9065,574;  203,993;30569,558;29,18300
 305,54; 9112,765;  216,608;30541,178;29,33646
 306,13; 9053,121;  174,611;30450,525;29,32533
 306,73; 9017,690;  178,225;30252,904;29,39172
 307,33; 9025,609;  199,994;30222,023;29,39713
 307,92; 9001,878;  201,916;30257,048;29,27940
 308,52; 9135,351;  169,760;30726,910;29,34040
 309,11; 9295,204;  184,221;31172,556;29,40133
 309,71; 9369,633;  163,374;31424,518;29,44953
 310,30; 9391,063;  177,224;31627,643;29,29640
 310,90; 9575,371;  210,300;32022,412;29,43869
 311,49; 9552,298;  194,839;32175,456;29,25978
 312,09; 9581,712;  164,994;32204,056;29,39137
 312,68; 9705,819;  252,685;32703,819;29,13037
 313,28; 9713,263;  169,993;32749,894;29,29189
 313,87; 9782,878;  163,916;32908,745;29,37551
 314,47; 9777,123;  188,298;33239,584;29,01196
 315,06; 9801,177;  169,839;33319,657;29,05397
 315,66; 9810,096;  182,455;33472,056;28,92087
 316,25; 9714,392;  167,299;33362,117;28,76079
 316,85; 9722,472;  169,532;33522,281;28,64214
 317,44; 9711,186;  180,990;33591,852;28,52425
 318,04; 9664,587;  168,299;33530,704;28,46404
 318,63; 9651,858;  172,149;33780,949;28,20603
 319,22; 9685,681;  199,991;33815,029;28,21859
 319,82; 9596,881;  180,300;33826,265;27,98725
 320,41; 9566,650;  206,684;33832,818;27,83539
 321,01; 9516,354;  198,763;34009,304;27,55824
 321,60; 9496,515;  187,454;34014,887;27,51927
 322,20; 9419,819;  179,839;33994,132;27,32566
 322,79; 9400,575;  219,685;34137,856;27,06776
 323,39; 9387,704;  198,610;34160,862;27,05679
 323,98; 9272,227;  167,839;34069,793;26,85505
 324,58; 9234,287;  176,760;34045,955;26,74267
 325,17; 9163,885;  186,914;33877,862;26,64505
 325,76; 9051,335;  211,223;33732,398;26,37172
 326,36; 8877,082;  165,994;33385,708;26,22265
 326,95; 8799,176;  212,531;33068,215;26,13443
 327,55; 8673,415;  180,915;32656,611;26,15033
 328,14; 8491,210;  180,686;32347,296;25,83587
 328,74; 8374,917;  212,915;32037,375;25,64695
 329,33; 8255,693;  201,378;31622,900;25,63312
 329,92; 8072,838;  174,067;31077,948;25,55916
 330,52; 7837,577;  195,994;30413,899;25,28826
 331,11; 7721,298;  191,531;30040,471;25,22625
 331,71; 7524,552;  182,839;29481,743;25,05798
 332,30; 7426,113;  202,300;28987,558;25,09553
 332,89; 7263,390;  234,224;28535,328;24,83707
 333,49; 7096,805;  190,300;28010,722;24,82531
 334,08; 6993,402;  191,915;27613,335;24,80355
 334,68; 6756,673;  195,223;27126,085;24,36406
 335,27; 6627,441;  211,533;26843,055;24,09141
 335,86; 6634,221;  231,915;26509,548;24,36409
 336,46; 6483,767;  202,764;26375,601;23,99818
 337,05; 6422,732;  182,838;26198,842;23,98483
 337,65; 6312,917;  171,300;26069,592;23,71437
 338,24; 6326,801;  225,916;25957,889;23,70936
 338,83; 6244,883;  211,609;25960,928;23,43081
 339,43; 6223,641;  173,607;25897,586;23,51904
 340,02; 6156,654;  182,760;25765,097;23,35163
 340,61; 6153,086;  182,839;25888,382;23,22552
 341,21; 6138,378;  219,838;25863,991;23,07949
 341,80; 6075,759;  185,684;25785,399;23,00836
 342,40; 6143,735;  197,148;25992,092;23,05330
 342,99; 6093,544;  194,993;25933,790;22,91696
 343,58; 6090,232;  187,301;26161,746;22,72592
 344,18; 6103,101;  198,532;26237,792;22,67564
 344,77; 6089,998;  182,683;26542,732;22,41010
 345,36; 6168,483;  170,069;26864,292;22,47083
 345,96; 6283,105;  210,301;27234,220;22,47196
 346,55; 6268,184;  174,918;27441,869;22,34671
 347,14; 6336,622;  161,840;27771,304;22,36473
 347,74; 6370,476;  156,458;28145,362;22,20172
 348,33; 6536,729;  186,689;28707,341;22,26471
 348,92; 6645,902;  195,920;29365,093;22,11232
 349,52; 6676,408;  165,920;29764,897;21,99565
 350,11; 6751,744;  184,606;30038,993;21,99723
 350,70; 6719,122;  177,147;30054,247;21,89629
 351,29; 6678,994;  169,681;29940,415;21,86481
 351,89; 6671,422;  203,913;29866,511;21,80358
 352,48; 6643,005;  165,916;29935,189;21,75763
 353,07; 6632,446;  194,148;29823,556;21,72942
 353,67; 6610,246;  200,997;29713,261;21,71724
 354,26; 6535,174;  198,917;29488,810;21,63291
 354,85; 6483,051;  193,302;29422,646;21,51861
 355,45; 6422,709;  174,684;29183,647;21,53826
 356,04; 6410,007;  173,533;29054,525;21,59370
 356,63; 6370,886;  210,915;28904,684;21,46797
 357,22; 6295,126;  193,605;28869,734;21,27735
 357,82; 6254,905;  193,759;28557,879;21,36906
 358,41; 6247,149;  207,762;28547,116;21,31096
 359,00; 6168,654;  174,607;28296,092;21,31483
 359,60; 6170,480;  194,608;28288,921;21,27075
 360,19; 6129,469;  201,687;28002,597;21,32226
 360,78; 6098,813;  194,530;27936,809;21,28262
 361,37; 6046,252;  194,300;27711,758;21,26633
 361,97; 6025,909;  197,377;27527,653;21,32628
 362,56; 5992,292;  180,299;27236,461;21,48122
 363,15; 5969,383;  225,838;27027,789;21,42958
 363,74; 5864,345;  192,529;26720,347;21,38064
 364,34; 5818,432;  213,530;26316,252;21,47248
 364,93; 5665,703;  189,222;25886,940;21,31116
 365,52; 5597,990;  160,223;25558,163;21,41027
 366,11; 5570,591;  190,530;25238,522;21,47901
 366,71; 5481,374;  190,530;24836,259;21,46759
 367,30; 5449,995;  195,992;24520,356;21,59975
 367,89; 5453,522;  231,994;24276,421;21,71617
 368,48; 5378,069;  191,914;24039,399;21,74718
 369,07; 5264,199;  199,147;23550,247;21,69085
 369,67; 5242,314;  215,375;23316,747;21,76035
 370,26; 5185,462;  192,070;22970,222;21,92185
 370,85; 5135,438;  194,300;22808,426;21,84979
 371,44; 5135,212;  193,531;22547,537;22,10647
 372,03; 5074,600;  169,684;22257,143;22,20679
 372,63; 5029,551;  163,069;21982,440;22,30349
 373,22; 4992,588;  177,531;21741,752;22,32892
 373,81; 4924,501;  160,300;21415,612;22,41417
 374,40; 4908,300;  171,148;21239,725;22,48444
 374,99; 4890,623;  172,992;20929,180;22,72879
 375,59; 4820,585;  176,917;20639,602;22,69335
 376,18; 4873,899;  211,607;20573,354;22,89731
 376,77; 4800,375;  199,531;20440,307;22,73057
 377,36; 4846,166;  214,838;20258,752;23,10591
 377,95; 4785,252;  205,299;20033,619;23,09804
 378,55; 4755,046;  179,917;19882,074;23,22147
 379,14; 4790,384;  196,146;19750,092;23,49519
 379,73; 4793,206;  194,299;19681,440;23,59970
 380,32; 4827,615;  198,762;19774,467;23,64591
 380,91; 4811,296;  174,606;19592,048;23,87899
 381,50; 4845,038;  192,376;19510,641;24,08427
 382,10; 4782,846;  174,916;19439,929;23,91865
 382,69; 4788,035;  156,531;19346,111;24,13552
 383,28; 4883,360;  211,299;19309,219;24,46372
 383,87; 4880,794;  187,684;19220,437;24,65807
 384,46; 4871,335;  181,451;19105,130;24,78315
 385,05; 4911,717;  212,453;19159,596;24,80197
 385,64; 4931,206;  187,299;19117,061;25,06058
 386,24; 4972,150;  162,682;19102,309;25,39368
 386,83; 5009,814;  206,220;19170,224;25,33006
 387,42; 5104,700;  205,684;19213,959;25,77307
 388,01; 5153,342;  203,835;19424,021;25,75161
 388,60; 5280,286;  190,682;19714,984;26,06804
 389,19; 5388,906;  179,294;19877,154;26,44760
 389,78; 5487,318;  180,756;20081,850;26,66467
 390,37; 5661,217;  237,989;20500,938;26,76426
 390,96; 5710,824;  194,067;20605,686;27,02753
 391,56; 5787,366;  186,602;20828,246;27,13333
 392,15; 5887,775;  180,295;21066,263;27,32687
 392,74; 5931,852;  160,599;21195,009;27,43720
 393,33; 6086,543;  190,294;21529,532;27,63102
 393,92; 6248,991;  195,445;21971,070;27,79964
 394,51; 6338,909;  171,678;22011,525;28,23843
 395,10; 6448,263;  212,980;22320,561;28,20427
 395,69; 6532,657;  197,980;22370,861;28,56948
 396,28; 6606,510;  206,671;22541,372;28,65424
 396,87; 6663,981;  206,976;22536,878;28,91640
 397,46; 6776,471;  212,051;22681,522;29,21484
 398,06; 6885,260;  215,202;22883,559;29,42453
 398,65; 6908,320;  205,812;22987,241;29,42093
 399,24; 7070,513;  214,965;23177,174;29,85579
 399,83; 7085,316;  181,341;23191,498;30,00403
 400,42; 7226,084;  227,642;23303,087;30,32853
 401,01; 7253,602;  208,095;23360,851;30,43053
 401,60; 7338,798;  213,699;23426,923;30,69414
 402,19; 7388,039;  236,228;23302,605;31,00535
 402,78; 7466,236;  237,521;23374,864;31,24263
 403,37; 7444,910;  229,585;23262,227;31,32652
 403,96; 7458,033;  229,339;23087,261;31,62446
 404,55; 7498,470;  222,244;23012,735;31,92659
 405,14; 7449,747;  210,382;22907,620;31,89535
 405,73; 7549,246;  225,825;22750,232;32,51327
 406,32; 7575,649;  236,505;22705,050;32,66408
 406,91; 7520,090;  232,721;22386,749;32,89410
 407,50; 7548,139;  221,867;22256,863;33,24834
 408,09; 7492,742;  206,708;22011,041;33,41553
 408,68; 7496,009;  221,012;21957,970;33,46833
 409,27; 7462,065;  202,556;21688,442;33,78734
 409,86; 7484,438;  219,259;21532,125;34,08823
 410,45; 7563,248;  239,038;21510,112;34,43272
 411,04; 7568,279;  249,971;21493,166;34,45013
 411,63; 7461,039;  245,060;21150,964;34,51646
 412,22; 7498,186;  233,610;20948,065;35,07008
 412,81; 7473,364;  252,076;20697,197;35,32035
 413,40; 7370,231;  255,158;20348,179;35,41067
 413,99; 7331,781;  301,233;20118,113;35,47757
 414,58; 7239,049;  221,080;19696,334;36,03531
 415,17; 7148,495;  233,922;19499,762;35,89033
 415,76; 7181,874;  227,841;19327,113;36,40994
 416,35; 7203,040;  215,843;19197,441;36,81037
 416,94; 7255,690;  249,072;19219,494;36,93443
 417,53; 7359,098;  220,076;19349,245;37,32008
 418,12; 7421,443;  219,539;19529,697;37,29594
 418,71; 7575,883;  247,081;19865,270;37,35718
 419,30; 7679,973;  222,078;19975,758;37,75446
 419,89; 7749,771;  222,463;20130,901;37,80963
 420,48; 7924,951;  254,158;20399,802;38,07668
 421,07; 7987,015;  249,236;20499,272;38,21119
 421,66; 8011,512;  219,931;20508,953;38,40294
 422,25; 8075,391;  231,397;20479,076;38,74022
 422,84; 8075,691;  245,705;20448,585;38,75678
 423,43; 8043,304;  227,934;20130,868;39,26743
 424,02; 8001,676;  251,627;19882,953;39,47797
 424,60; 7848,177;  231,094;19474,399;39,58303
 425,19; 7805,703;  240,168;19222,393;39,85589
 425,78; 7805,314;  251,399;19095,114;40,08718
 426,37; 7789,470;  256,632;19052,522;40,07705
 426,96; 7780,833;  233,709;18995,471;40,22609
 427,55; 7744,878;  230,174;18799,755;40,46782
 428,14; 7693,092;  231,021;18600,632;40,62182
 428,73; 7700,867;  244,711;18385,860;41,10079
 429,32; 7729,230;  256,093;18374,449;41,24622
 429,91; 7777,211;  273,096;18409,951;41,37495
 430,50; 7703,801;  254,020;18227,048;41,44978
 431,08; 7653,826;  268,714;18036,209;41,56530
 431,67; 7670,190;  305,793;18056,735;41,48736
 432,26; 7600,740;  316,563;17833,318;41,58405
 432,85; 7572,092;  337,486;17562,660;42,00019
 433,44; 7419,027;  356,873;17172,839;41,99672
 434,03; 7343,452;  354,491;16845,627;42,38011
 434,62; 7150,615;  324,642;16417,436;42,41633
 435,21; 7128,957;  327,794;16185,278;42,88929
 435,79; 7098,862;  324,413;16105,592;42,92740
 436,38; 7036,576;  311,493;15987,757;42,89979
 436,97; 7041,618;  318,493;15888,959;43,17870
 437,56; 6936,279;  320,113;15697,521;43,02524
 438,15; 6942,509;  304,650;15652,858;43,24843
 438,74; 6987,668;  311,727;15625,964;43,59303
 439,33; 6995,563;  289,957;15635,812;43,69653
 439,91; 7009,814;  247,344;15693,001;43,78234
 440,50; 7102,751;  291,344;15760,426;44,03239
 441,09; 7172,614;  299,423;15826,024;44,26720
 441,68; 7189,523;  276,041;15843,795;44,40898
 442,27; 7162,281;  259,271;15816,972;44,37038
 442,86; 7160,071;  242,507;15760,416;44,57794
 443,44; 7210,636;  257,121;15863,457;44,55571
 444,03; 7281,207;  317,353;15933,096;44,59509
 444,62; 7173,963;  252,969;15771,282;44,59888
 445,21; 7180,148;  258,968;15603,276;45,10584
 445,80; 7132,523;  285,817;15537,769;44,89068
 446,39; 7078,884;  306,893;15259,887;45,28853
 446,97; 6951,965;  248,973;15117,031;45,08317
 447,56; 6849,141;  258,822;14881,744;45,06841
 448,15; 6817,282;  257,358;14708,575;45,39357
 448,74; 6749,676;  277,435;14532,033;45,40458
 449,33; 6716,493;  259,591;14381,855;45,72144
 449,91; 6599,583;  268,363;14127,784;45,68171
 450,50; 6482,618;  256,901;13936,125;45,51221
 451,09; 6497,899;  274,670;13823,256;45,93268
 451,68; 6432,842;  276,441;13806,388;45,50203
 452,26; 6422,201;  285,673;13669,188;45,85140
 452,85; 6398,698;  274,672;13602,072;45,95064
 453,44; 6392,970;  276,214;13548,990;46,08498
 454,03; 6398,080;  246,673;13497,682;46,42218
 454,61; 6372,233;  250,984;13505,037;46,18398
 455,20; 6493,081;  275,293;13698,541;46,32104
 455,79; 6513,046;  277,983;13652,470;46,61908
 456,38; 6538,242;  274,910;13745,297;46,49705
 456,97; 6592,748;  262,832;13788,874;46,79799
 457,55; 6593,723;  260,449;13837,587;46,64660
 458,14; 6590,417;  294,293;13814,915;46,56682
 458,73; 6580,293;  281,680;13714,557;46,88953
 459,31; 6637,613;  296,529;13813,654;46,91149
 459,90; 6699,625;  290,758;13818,272;47,37653
 460,49; 6741,484;  351,450;13955,721;46,97079
 461,08; 6732,067;  263,068;14026,081;47,00278
 461,66; 6811,554;  271,067;14062,666;47,42370
 462,25; 6855,924;  279,377;14116,827;47,52716
 462,84; 6832,023;  303,915;14197,590;46,98618
 463,43; 6790,326;  242,072;14152,035;47,07600
 464,01; 6831,354;  276,304;14173,250;47,16900
 464,60; 6865,750;  317,302;14104,271;47,49737
 465,19; 6755,595;  248,458;13829,929;47,91187
 465,77; 6714,262;  276,152;13818,651;47,54004
 466,36; 6712,416;  298,995;13807,157;47,47812
 466,95; 6559,104;  269,303;13465,801;47,66266
 467,53; 6443,902;  265,999;13120,818;48,05904
 468,12; 6343,350;  303,077;12935,455;47,81581
 468,71; 6197,731;  289,766;12720,528;47,52698
 469,29; 6080,143;  261,769;12462,573;47,68844
 469,88; 5992,447;  272,001;12264,044;47,70202
 470,47; 6067,998;  337,696;12320,684;47,82031
 471,06; 6031,224;  282,619;12328,948;47,72081
 471,64; 6078,744;  297,772;12438,032;47,61819
 472,23; 6058,270;  267,468;12412,909;47,67881
 472,81; 6119,149;  255,697;12530,520;47,76812
 473,40; 6194,225;  275,007;12617,038;47,95983
 473,99; 6319,098;  351,776;12868,974;47,67298
 474,57; 6340,229;  274,930;12922,774;47,95520
 475,16; 6427,413;  282,390;13021,408;48,23780
 475,75; 6440,666;  299,162;13219,026;47,53536
 476,33; 6525,840;  311,472;13281,143;47,91462
 476,92; 6564,252;  302,623;13358,503;47,96023
 477,51; 6531,939;  308,932;13445,136;47,37294
 478,09; 6573,147;  294,240;13419,778;47,83733
 478,68; 6541,003;  304,164;13362,918;47,75983
 479,27; 6635,648;  322,162;13398,552;48,28156
 479,85; 6585,021;  291,010;13395,238;48,03038
 480,44; 6635,004;  280,934;13514,284;48,01558
 481,02; 7268,187;  299,166;14890,258;47,76216
 481,61; 8194,896;  328,627;16791,592;47,78161
 482,20; 8811,101;  307,320;17952,021;48,19453
 482,78; 9177,673;  336,164;18747,165;48,02297
 483,37; 9402,534;  331,168;19181,214;48,12384
 483,95; 9507,489;  360,861;19498,872;47,79299
 484,54; 9633,634;  368,858;19706,929;47,90951
 485,13; 9550,419;  336,709;19610,632;47,80402
 485,71; 9430,871;  324,785;19346,645;47,87169
 486,30; 9333,310;  362,016;19083,825;47,91895
 486,88; 9158,103;  393,094;18700,169;47,87771
 487,47; 8838,126;  374,325;18071,129;47,82672
 488,05; 8448,892;  352,480;17169,758;48,14342
 488,64; 7840,862;  351,866;15953,196;48,00230
 489,23; 6974,784;  361,172;14158,845;47,93280
 489,81; 6011,219;  357,173;12161,741;47,89710
 490,40; 5670,142;  314,096;11526,192;47,77025
 490,98; 5544,171;  298,174;11308,263;47,64718
 491,57; 5565,698;  340,942;11203,911;48,09694
 492,15; 5445,090;  309,097;11135,984;47,43739
 492,74; 5451,096;  307,095;11077,048;47,76252
 493,32; 5410,211;  325,097;10976,864;47,73963
 493,91; 5346,113;  310,714;10834,780;47,84652
 494,50; 5316,615;  298,255;10840,332;47,60315
 495,08; 5296,656;  300,255;10785,164;47,65326
 495,67; 5288,081;  309,021;10786,502;47,52154
 496,25; 5246,066;  268,254;10615,216;48,10892
 496,84; 5192,751;  276,790;10577,609;47,72398
 497,42; 5200,456;  260,869;10584,471;47,84751
 498,01; 5200,946;  288,944;10561,658;47,81601
 498,59; 5103,642;  253,793;10434,210;47,63900
 499,18; 5099,973;  263,791;10398,051;47,72112
 499,76; 5057,057;  288,869;10342,133;47,42925
 500,35; 4960,838;  285,871;10129,230;47,49362
 500,93; 4929,460;  261,869;10119,745;47,34885
 501,52; 4920,112;  253,254;10037,370;47,69831
 502,10; 4887,799;  277,026;10058,292;47,13882
 502,69; 4818,312;  264,873; 9867,788;47,41725
 503,27; 4703,688;  246,717; 9738,365;46,95677
 503,86; 4689,189;  262,258; 9683,778;46,98744
 504,44; 4584,955;  239,797; 9545,710;46,69244
 505,03; 4511,892;  237,182; 9315,293;47,08810
 505,61; 4476,335;  246,643; 9187,757;47,30609
 506,19; 4387,693;  269,259; 9027,042;47,02598
 506,78; 4301,908;  232,415; 8888,742;47,01178
 507,36; 4239,136;  244,105; 8713,035;47,17280
 507,95; 4186,955;  242,108; 8589,276;47,25971
 508,53; 4104,058;  244,184; 8456,010;47,00384
 509,12; 4043,814;  255,415; 8346,177;46,82376
 509,70; 3985,186;  271,031; 8164,040;47,05626
 510,29; 3904,599;  265,109; 8054,871;46,72146
 510,87; 3787,261;  235,184; 7870,536;46,52146
 511,46; 3729,873;  239,954; 7731,482;46,58487
 512,04; 3674,074;  252,032; 7561,320;46,81772
 512,62; 3622,081;  255,184; 7416,354;47,01601
 513,21; 3495,903;  240,571; 7270,673;46,30561
 513,79; 3430,858;  235,805; 7148,133;46,22253
 514,38; 3347,259;  213,958; 7017,481;46,05409
 514,96; 3335,525;  262,881; 6925,351;46,11870
 515,54; 3279,260;  226,112; 6757,621;46,74490
 516,13; 3235,572;  249,805; 6727,193;46,09523
 516,71; 3162,637;  239,729; 6619,494;45,81530
 517,30; 3088,472;  237,884; 6475,415;45,70057
 517,88; 3093,196;  259,423; 6415,318;46,03348
 518,46; 3015,934;  239,192; 6278,555;45,97740
 519,05; 2983,058;  246,270; 6242,089;45,64493
 519,63; 2932,161;  253,731; 6210,271;44,96620
 520,22; 2932,263;  264,118; 6145,802;45,36363
 520,80; 2872,368;  241,657; 6089,502;44,98599
 521,38; 2907,610;  270,117; 6038,283;45,72498
 521,97; 2844,030;  249,504; 5990,268;45,19479
 522,55; 2825,912;  262,042; 6003,363;44,65644
 523,13; 2808,918;  218,197; 5979,922;44,96433
 523,72; 2798,119;  237,962; 5996,919;44,45523
 524,30; 2861,177;  265,121; 6118,603;44,35063
 524,89; 2812,442;  226,966; 6066,737;44,27358
 525,47; 2898,811;  259,737; 6228,831;44,21231
 526,05; 2877,829;  217,891; 6252,679;44,07675
 526,64; 2944,925;  249,507; 6357,749;44,12756
 527,22; 2994,205;  252,660; 6508,375;43,82464
 527,80; 3051,224;  280,045; 6594,363;43,88722
 528,39; 3067,410;  252,046; 6668,319;43,87850
 528,97; 3129,392;  249,430; 6866,475;43,52338
 529,55; 3221,560;  266,428; 7027,242;43,70971
 530,14; 3305,438;  272,739; 7183,548;43,88342
 530,72; 3291,831;  251,507; 7257,578;43,39556
 531,30; 3348,004;  230,431; 7432,633;43,28638
 531,89; 3382,054;  255,970; 7539,082;42,92237
 532,47; 3439,041;  291,740; 7590,484;43,12114
 533,05; 3433,016;  270,968; 7713,952;42,48360
 533,63; 3455,023;  290,048; 7722,775;42,58162
 534,22; 3451,680;  243,663; 7745,987;42,76031
 534,80; 3467,890;  284,664; 7824,512;42,21869
 535,38; 3570,226;  347,355; 7905,161;42,64295
 535,97; 3471,661;  261,817; 7892,984;42,06230
 536,55; 3516,546;  315,588; 7965,181;41,84482
 537,13; 3492,072;  321,585; 7858,632;42,06537
 537,71; 3510,506;  353,893; 7955,855;41,52367
 538,30; 3546,834;  377,817; 8017,895;41,47885
 538,88; 3576,217;  420,820; 8103,024;41,07412
 539,46; 3639,926;  478,126; 8345,762;40,18742
 540,05; 3696,180;  488,358; 8432,250;40,38099
 540,63; 3770,814;  537,896; 8601,642;40,09201
 541,21; 3808,675;  572,589; 8769,894;39,47744
 541,79; 3863,033;  606,359; 8848,188;39,51397
 542,38; 3931,153;  642,127; 9037,319;39,17750
 542,96; 3994,672;  653,206; 9214,436;39,03021
 543,54; 4056,277;  677,666; 9375,238;38,84544
 544,12; 4056,847;  649,590; 9532,588;38,35707
 544,70; 4111,912;  631,745; 9606,284;38,77823
 545,29; 4170,067;  626,434; 9729,236;38,92903
 545,87; 4207,802;  614,743; 9737,035;39,38768
 546,45; 4145,800;  569,973; 9822,068;38,64884
 547,03; 4149,100;  541,512; 9883,120;38,61849
 547,62; 4226,327;  494,205; 9992,292;39,29340
 548,20; 4299,351;  507,052;10146,627;39,34093
 548,78; 4299,301;  466,209;10274,288;39,08096
 549,36; 4361,612;  430,978;10394,721;39,44938
 549,94; 4411,151;  389,205;10572,924;39,49388
 550,53; 4470,589;  389,977;10738,146;39,43318
 551,11; 4468,894;  374,132;10949,838;38,71857
 551,69; 4570,119;  366,670;11268,515;38,55723
 552,27; 4665,348;  327,669;11472,391;38,92138
 552,85; 4758,763;  338,748;11863,966;38,35082
 553,44; 4913,436;  334,054;12133,291;38,81083
 554,02; 5006,382;  345,901;12468,942;38,44317
 554,60; 5058,831;  289,594;12718,570;38,37192
 555,18; 5193,893;  322,285;13074,631;38,20166
 555,76; 5278,780;  309,286;13447,218;37,82555
 556,34; 5405,054;  309,057;13842,074;37,65603
 556,93; 5534,721;  300,439;14178,466;37,71633
 557,51; 5633,213;  274,134;14476,498;37,73371
 558,09; 5796,142;  310,670;14837,023;37,76221
 558,67; 5904,639;  301,058;15198,301;37,61489
 559,25; 5954,317;  305,057;15449,809;37,30177
 559,83; 6065,604;  289,443;15778,647;37,29153
 560,41; 6177,257;  293,672;16128,609;37,15572
 561,00; 6286,590;  293,750;16426,544;37,14694
 561,58; 6370,122;  298,749;16679,390;37,06432
 562,16; 6409,396;  285,440;16973,896;36,69576
 562,74; 6526,577;  276,209;17314,693;36,68383
 563,32; 6660,088;  272,135;17738,159;36,57360
 563,90; 6771,499;  287,673;18093,499;36,41407
 564,48; 6874,845;  305,518;18457,836;36,19002
 565,06; 7103,793;  287,288;19075,613;36,28053
 565,65; 7291,131;  289,445;19656,717;36,15216
 566,23; 7548,630;  336,981;20425,448;35,89945
 566,81; 7737,648;  276,288;21002,398;35,99981
 567,39; 8003,283;  292,290;21894,362;35,69562
 567,97; 8163,372;  312,288;22508,907;35,37063
 568,55; 8403,595;  322,828;23293,877;35,17805
 569,13; 8654,250;  296,443;24016,949;35,23453
 569,71; 8835,496;  291,286;24939,408;34,66475
 570,29; 9219,422;  325,978;25746,318;34,98555
 570,87; 9387,052;  322,286;26569,040;34,53671
 571,45; 9558,377;  309,596;27135,710;34,47678
 572,03; 9692,999;  272,059;27443,018;34,67283
 572,61; 9865,912;  275,904;28328,806;34,18544
 573,20;10093,245;  300,518;28878,165;34,26708
 573,78;10213,333;  302,443;29474,820;33,97354
 574,36;10346,984;  303,520;29950,156;33,87725
 574,94;10460,407;  369,367;30213,213;33,81280
 575,52;10419,943;  320,369;30537,736;33,42308
 576,10;10627,580;  361,907;30981,499;33,52649
 576,68;10719,035;  355,059;31623,345;33,14533
 577,26;10891,822;  373,985;32256,769;32,98908
 577,84;11019,853;  379,827;32712,202;32,90827
 578,42;11126,919;  407,829;33020,570;32,86780
 579,00;11018,808;  376,135;33029,095;32,59329
 579,58;11091,090;  404,752;33254,515;32,53094
 580,16;10970,901;  377,830;33335,092;32,14184
 580,74;11037,399;  382,907;33507,337;32,16506
 581,32;10998,927;  376,137;33540,043;32,03118
 581,90;10972,294;  398,060;33576,483;31,87082
 582,48;10938,838;  395,522;33604,522;31,74837
 583,06;10906,877;  396,906;33768,984;31,49331
 583,64;10896,149;  384,983;33800,585;31,45586
 584,22;10799,880;  403,600;33708,849;31,21514
 584,80;10662,000;  414,291;33481,302;30,99073
 585,38;10533,009;  422,749;33106,746;30,93336
 585,96;10482,790;  386,982;33164,848;30,80069
 586,54;10407,599;  402,754;33248,641;30,45996
 587,12;10400,716;  385,215;33360,103;30,37312
 587,70;10397,750;  410,136;33465,708;30,21461
 588,28;10320,123;  390,753;33453,692;30,03172
 588,86;10333,087;  386,600;33685,663;29,87017
 589,44;10244,656;  372,678;33715,469;29,60753
 590,02;10296,990;  376,601;33922,343;29,57272
 590,59;10257,377;  361,061;34107,262;29,32572
 591,17;10297,070;  357,757;34262,814;29,31513
 591,75;10314,494;  356,064;34345,136;29,29892
 592,33;10332,158;  368,679;34627,138;29,08327
 592,91;10244,816;  305,603;34796,008;28,81733
 593,49;10320,501;  330,066;35057,440;28,76819
 594,07;10331,741;  350,527;35296,446;28,56189
 594,65;10286,830;  346,292;35351,482;28,39733
 595,23;10329,972;  342,062;35692,797;28,25375
 595,81;10305,597;  329,909;35827,020;28,10282
 596,39;10277,991;  322,063;35958,252;27,93769
 596,97;10291,866;  327,680;36203,457;27,77413
 597,55;10195,455;  322,524;36069,089;27,61925
 598,12;10135,357;  312,604;36040,277;27,49340
 598,70;10127,649;  309,296;36141,723;27,40075
 599,28;10122,306;  336,065;36318,165;27,19752
 599,86;10016,898;  310,526;36300,350;26,96977
 600,44; 9978,808;  292,912;36473,906;26,77068
 601,02; 9956,965;  335,145;36531,305;26,58244
 601,60; 9920,716;  307,449;36567,438;26,51205
 602,18; 9862,117;  293,681;36546,584;26,39357
 602,75; 9767,253;  294,063;36644,544;26,06070
 603,33; 9768,256;  306,527;36620,332;26,05546
 603,91; 9679,313;  293,298;36534,464;25,89877
 604,49; 9656,147;  311,219;36607,045;25,74657
 605,07; 9596,670;  320,756;36635,880;25,54284
 605,65; 9551,940;  336,681;36841,312;25,24408
 606,23; 9475,540;  400,984;36980,119;24,80801
 606,80; 9486,149;  453,755;36928,531;24,76340
 607,38; 9413,995;  481,220;37050,467;24,42701
 607,96; 9437,158;  541,601;37115,845;24,32192
 608,54; 9333,374;  612,989;37133,760;23,87788
 609,12; 9351,113;  597,371;37147,512;23,94995
 609,70; 9274,174;  649,680;37186,760;23,60477
 610,27; 9237,298;  655,293;37300,266;23,41932
 610,85; 9216,115;  680,295;37345,002;23,28075
 611,43; 9133,097;  661,680;37253,447;23,15116
 612,01; 9050,168;  626,679;37029,980;23,13935
 612,59; 8975,237;  625,065;37102,484;22,89135
 613,16; 8897,600;  599,523;37003,631;22,79434
 613,74; 8821,373;  567,911;36974,544;22,67022
 614,32; 8717,406;  537,450;36891,889;22,50057
 614,90; 8644,657;  471,295;36804,363;22,49566
 615,48; 8532,392;  420,062;36445,288;22,51847
 616,05; 8439,147;  403,446;36359,949;22,34839
 616,63; 8336,594;  405,676;36269,534;22,11396
 617,21; 8285,669;  403,216;36128,836;22,06386
 617,79; 8240,507;  376,755;36001,585;22,07379
 618,36; 8145,951;  389,141;36018,713;21,77071
 618,94; 7989,469;  325,524;35685,821;21,67387
 619,52; 7888,264;  356,446;35429,786;21,47448
 620,10; 7844,488;  344,294;35357,121;21,42128
 620,67; 7799,558;  349,138;35291,669;21,32192
 621,25; 7715,856;  362,679;35085,009;21,17708
 621,83; 7643,637;  345,293;35076,558;21,01376
 622,41; 7640,424;  385,985;35138,801;20,87439
 622,98; 7493,219;  361,446;34882,002;20,65950
 623,56; 7459,983;  347,753;34793,583;20,64758
 624,14; 7378,318;  333,141;34719,994;20,48800
 624,72; 7361,582;  336,831;34620,071;20,49034
 625,29; 7264,485;  324,984;34556,641;20,27217
 625,87; 7272,688;  364,525;34676,983;20,13310
 626,45; 7153,344;  316,830;34505,849;19,99623
 627,02; 7091,326;  320,294;34437,260;19,84652
 627,60; 7035,048;  312,142;34320,989;19,76811
 628,18; 6988,036;  300,063;34500,281;19,55535
 628,76; 6989,409;  296,061;34362,708;19,64780
 629,33; 6937,641;  328,754;34528,766;19,32422
 629,91; 6908,642;  325,832;34417,275;19,30927
 630,49; 6923,771;  337,523;34500,571;19,27887
 631,06; 6879,613;  313,677;34631,537;19,13271
 631,64; 6847,227;  321,599;34650,864;19,00894
 632,22; 6765,402;  288,829;34586,626;18,88335
 632,79; 6812,597;  306,598;34849,684;18,83445
 633,37; 6784,788;  290,448;34944,712;18,74038
 633,95; 6740,634;  303,522;34924,842;18,59291
 634,52; 6717,745;  286,755;35030,846;18,50959
 635,10; 6735,090;  296,601;35092,620;18,50352
 635,68; 6687,878;  294,367;35219,210;18,30648
 636,25; 6634,270;  281,136;35221,860;18,18261
 636,83; 6616,024;  267,676;35391,785;18,07405
 637,41; 6597,162;  263,290;35481,014;17,98490
 637,98; 6598,307;  300,213;35621,936;17,83065
 638,56; 6584,473;  285,751;35678,857;17,79647
 639,13; 6580,404;  281,138;35691,751;17,78920
 639,71; 6552,219;  318,754;35930,146;17,50413
 640,29; 6437,382;  255,677;35765,254;17,40856
 640,86; 6452,461;  264,369;35942,439;17,34425
 641,44; 6370,848;  273,831;35871,393;17,12763
 642,02; 6378,773;  298,523;35902,501;17,07745
 642,59; 6323,852;  263,677;36033,685;16,94206
 643,17; 6288,162;  261,677;35991,332;16,86690
 643,74; 6254,934;  274,677;36056,286;16,71321
 644,32; 6237,474;  292,446;36035,470;16,63269
 644,89; 6177,476;  294,446;36045,963;16,45533
 645,47; 6166,248;  308,062;36104,686;16,36519
 646,05; 6156,558;  285,677;35986,563;16,44463
 646,62; 6046,252;  284,908;35945,132;16,15622
 647,20; 6038,023;  291,139;36124,778;16,03768
 647,77; 5998,026;  254,062;36026,963;16,05674
 648,35; 5961,566;  245,678;35886,763;16,03736
 648,92; 5935,722;  291,216;35945,563;15,83119
 649,50; 5864,647;  246,832;35814,671;15,79465
 650,08; 5850,188;  254,832;35770,240;15,75473
 650,65; 5851,113;  262,216;35977,117;15,64864
 651,23; 5909,038;  240,293;36800,687;15,50515
 651,80; 5999,425;  244,986;37613,794;15,39904
 652,38; 6060,966;  268,140;37991,210;15,35619
 652,95; 6064,968;  232,755;38391,241;15,28418
 653,53; 6107,585;  271,447;38585,579;15,23234
 654,10; 6114,434;  299,447;38673,302;15,15351
 654,68; 6067,051;  250,294;38691,179;15,13170
 655,25; 5994,669;  254,140;38670,364;14,94298
 655,83; 6040,209;  239,909;38781,164;15,04959
 656,40; 6031,596;  279,755;38703,733;14,96940
 656,98; 5937,445;  254,371;38699,841;14,78217
 657,55; 5958,139;  257,294;38608,487;14,86484
 658,13; 5846,064;  255,602;38136,672;14,75793
 658,70; 5810,528;  267,140;37934,088;14,71685
 659,28; 5657,222;  258,986;37129,349;14,64112
 659,85; 5510,301;  263,448;36325,765;14,54941
 660,43; 5506,534;  272,448;36335,565;14,51368
 661,00; 5463,690;  259,448;36458,288;14,37682
 661,58; 5463,231;  251,371;36802,780;14,25898
 662,15; 5507,925;  250,987;37033,811;14,29183
 662,73; 5592,927;  309,833;37229,842;14,30957
 663,30; 5514,391;  250,448;37468,334;14,14358
 663,88; 5546,701;  265,987;37602,750;14,14347
 664,45; 5542,703;  250,372;37833,935;14,08151
 665,03; 5593,705;  256,449;38173,504;14,07614
 665,60; 5674,477;  330,987;38616,535;13,95694
 666,17; 5572,171;  265,756;38724,489;13,79768
 666,75; 5605,250;  255,526;38961,366;13,82149
 667,32; 5664,868;  274,372;39365,320;13,78963
 667,90; 5698,101;  261,526;39620,735;13,81271
 668,47; 5670,564;  278,834;39864,074;13,62056
 669,05; 5709,720;  251,987;40201,797;13,66147
 669,62; 5670,030;  236,757;40350,674;13,54461
 670,19; 5669,571;  232,218;40365,551;13,54822
 670,77; 5683,727;  254,526;40528,043;13,48082
 671,34; 5670,421;  243,142;40494,074;13,48361
 671,92; 5695,269;  241,142;40791,105;13,45039
 672,49; 5710,810;  266,219;40704,213;13,46405
 673,06; 5636,197;  224,757;40877,166;13,31149
 673,64; 5657,045;  238,373;40717,043;13,38649
 674,21; 5610,047;  237,219;40700,920;13,27814
 674,79; 5637,972;  261,373;40994,721;13,19950
 675,36; 5650,052;  263,219;41119,521;13,18483
 675,93; 5616,515;  246,065;40984,090;13,18289
 676,51; 5636,979;  255,681;41152,659;13,15818
 677,08; 5656,673;  256,142;41186,690;13,19438
 677,65; 5629,676;  259,142;41321,106;13,07910
 678,23; 5663,139;  257,835;41490,444;13,10930
 678,80; 5667,372;  240,835;41631,167;13,11064
 679,38; 5672,451;  237,296;41794,583;13,07871
 679,95; 5696,607;  254,681;42035,152;13,02505
 680,52; 5701,917;  243,989;42287,491;12,98162
 681,10; 5785,227;  270,758;42634,983;13,01681
 681,67; 5755,460;  253,066;42966,398;12,88215
 682,24; 5769,385;  235,912;42974,583;12,94723
 682,82; 5877,618;  244,220;43463,614;13,03442
 683,39; 5949,774;  287,989;43858,952;12,99440
 683,96; 5907,007;  260,758;44134,214;12,86940
 684,54; 5921,624;  232,066;44408,014;12,87931
 685,11; 5993,088;  275,143;44776,584;12,84890
 685,68; 5991,244;  251,682;45228,691;12,76110
 686,25; 6038,554;  235,451;45230,261;12,89727
 686,83; 6025,633;  242,759;45347,138;12,82109
 687,40; 6068,250;  227,143;45852,707;12,80227
 687,97; 6162,329;  275,220;46111,276;12,84384
 688,55; 6116,024;  227,682;46014,692;12,86029
 689,12; 6138,180;  228,682;46371,107;12,80708
 689,69; 6123,105;  238,528;46450,600;12,73385
 690,26; 6127,107;  247,451;46530,246;12,70376
 690,84; 6220,340;  238,836;46740,354;12,86303
 691,41; 6199,419;  259,836;46845,923;12,74969
 691,98; 6240,498;  249,144;47159,646;12,77188
 692,56; 6242,962;  228,452;47242,677;12,79296
 693,13; 6282,118;  297,221;47245,631;12,74782
 693,70; 6287,043;  268,298;47417,815;12,76523
 694,27; 6295,661;  244,298;47459,539;12,81655
 694,84; 6298,201;  238,913;47569,646;12,80202
 695,42; 6336,434;  283,990;47728,062;12,75701
 695,99; 6301,052;  246,683;47899,477;12,70517
 696,56; 6329,669;  241,837;47809,585;12,79824
 697,13; 6371,364;  253,298;48121,077;12,78118
 697,71; 6316,289;  230,452;48189,185;12,68974
 698,28; 6416,983;  249,760;48434,755;12,79905
 698,85; 6406,524;  224,837;48478,324;12,81086
 699,42; 6439,603;  220,914;48608,124;12,85193
 699,99; 6518,451;  265,837;48730,309;12,90144
 700,57; 6495,454;  247,529;48793,878;12,87002
 701,14; 6535,379;  234,991;48957,755;12,93110
 701,71; 6573,458;  263,299;49229,478;12,88677
 702,28; 6590,537;  250,914;49223,278;12,94531
 702,85; 6588,924;  266,914;49325,924;12,88654
 703,43; 6655,464;  266,991;49478,186;12,98175
 704,00; 6693,851;  287,376;49701,755;12,96480
 704,57; 6702,392;  262,684;49634,094;13,04340
 705,14; 6756,932;  287,222;49998,355;13,01461
 705,71; 6778,319;  292,991;49959,540;13,05774
 706,28; 6769,783;  266,607;49877,340;13,10840
 706,86; 6808,631;  298,838;50117,986;13,06685
 707,43; 6818,710;  314,222;50071,248;13,07250
 708,00; 6831,943;  294,222;50116,202;13,12216
 708,57; 6845,407;  260,146;49967,233;13,24813
 709,14; 6876,486;  284,684;50087,187;13,23588
 709,71; 6924,796;  276,915;50163,295;13,32604
 710,28; 6950,105;  269,069;50478,710;13,30628
 710,86; 6982,569;  282,607;50616,125;13,31113
 711,43; 7020,187;  290,838;50647,695;13,36332
 712,00; 6996,881;  266,531;50672,110;13,35239
 712,57; 7076,037;  279,838;50829,449;13,44461
 713,14; 7081,424;  259,531;50931,557;13,46284
 713,71; 7096,964;  275,223;50797,895;13,50234
 714,28; 7100,582;  272,146;50888,618;13,49054
 714,85; 7083,046;  262,685;50582,803;13,55394
 715,42; 7158,202;  263,992;50759,065;13,65323
 716,00; 7194,896;  310,992;50835,095;13,62499
 716,57; 7218,129;  259,146;51087,126;13,69124
 717,14; 7194,362;  248,608;50968,772;13,69427
 717,71; 7256,441;  240,147;50982,419;13,82732
 718,28; 7305,828;  276,762;51066,142;13,83964
 718,85; 7284,984;  245,839;51150,173;13,82818
 719,42; 7344,140;  262,147;51220,665;13,89756
 719,99; 7344,757;  246,839;51029,004;13,97719
 720,56; 7412,452;  263,224;51274,881;14,01489
 721,13; 7410,531;  241,993;51460,911;13,99588
 721,70; 7442,225;  237,455;51378,942;14,08792
 722,27; 7505,381;  273,378;51411,589;14,14207
 722,84; 7529,922;  301,455;51593,619;14,09273
 723,41; 7500,770;  241,070;51451,035;14,17634
 723,98; 7573,541;  259,378;51750,604;14,20468
 724,55; 7650,390;  279,993;51796,943;14,30674
 725,12; 7569,469;  218,070;51651,589;14,29301
 725,69; 7645,625;  250,917;51876,235;14,32380
 726,27; 7713,165;  261,686;51919,497;14,42469
 726,84; 7825,706;  259,609;52233,605;14,55747
 727,41; 7789,785;  265,840;52331,328;14,45093
 727,98; 7863,633;  264,686;52555,205;14,53217
 728,55; 7910,482;  296,917;52463,697;14,59466
 729,12; 7937,022;  246,840;52541,343;14,70553
 729,69; 8000,178;  275,609;52837,451;14,69615
 730,26; 8055,334;  283,379;52959,790;14,75415
 730,82; 8023,413;  262,763;52758,974;14,78326
 731,39; 8092,723;  257,148;52955,005;14,86887
 731,96; 8191,264;  235,610;53267,959;15,00151
 732,53; 8252,727;  265,994;53403,913;15,03020
 733,10; 8302,422;  268,225;53548,021;15,07926
 733,67; 8338,655;  274,379;53826,129;15,05885
 734,24; 8340,580;  255,764;53472,390;15,19228
 734,81; 8377,659;  277,918;53489,267;15,22183
 735,38; 8389,430;  263,225;53211,067;15,34757
 735,95; 8382,663;  265,533;53159,021;15,34618
 736,52; 8444,512;  276,533;53224,360;15,42647
 737,09; 8477,052;  276,456;52940,006;15,57167
 737,66; 8550,901;  309,995;53113,498;15,60674
 738,23; 8554,826;  250,226;53280,529;15,66010
 738,80; 8656,366;  320,226;53503,252;15,67444
 739,37; 8692,061;  291,610;53579,899;15,76416
 739,94; 8702,832;  275,764;53700,006;15,77387
 740,51; 8860,450;  361,380;53777,037;15,91120
 741,07; 8794,529;  261,995;53699,068;15,96744
 741,64; 8849,377;  300,149;53977,560;15,92705
 742,21; 8892,918;  277,149;53957,437;16,05015
 742,78; 8895,304;  236,688;53762,930;16,17640
 743,35; 8971,999;  264,918;53988,730;16,20712
 743,92; 9042,540;  291,303;54009,222;16,29109
 744,49; 9072,772;  291,842;54095,330;16,32037
 745,06; 9090,851;  255,765;54010,976;16,43578
 745,63; 9132,546;  252,996;53956,392;16,53443
 746,19; 9188,317;  257,303;54033,038;16,60789
 746,76; 9208,858;  269,227;54104,684;16,60547
 747,33; 9265,091;  263,611;54032,330;16,74111
 747,90; 9341,324;  288,150;54195,515;16,79395
 748,47; 9341,787;  265,227;54112,854;16,85601
 749,04; 9364,790;  267,150;54050,192;16,91544
 749,61; 9457,022;  297,150;54039,685;17,04399
 750,17; 9496,332;  286,073;54174,408;17,09138
 750,74; 9492,334;  275,612;54227,900;17,08310
 751,31; 9484,337;  254,766;53959,239;17,18585
 751,88; 9504,416;  239,073;53816,193;17,29347
 752,45; 9582,572;  263,304;54025,685;17,33418
 753,02; 9611,805;  278,304;53907,485;17,40377
 753,58; 9611,345;  255,997;53784,824;17,47722
 754,15; 9678,732;  264,304;53908,547;17,54974
 754,72; 9671,042;  263,381;53687,347;17,60944
 755,29; 9662,198;  253,843;53517,839;17,66363
 755,86; 9725,815;  268,228;53714,793;17,69541
 756,42; 9782,894;  280,074;53615,824;17,81698
 756,99; 9754,512;  233,689;53605,316;17,83873
 757,56; 9776,899;  251,074;53438,040;17,91007
 758,13; 9808,593;  202,843;53342,455;18,07644
 758,70; 9920,672;  238,612;53485,871;18,18321
 759,26; 9948,136;  231,843;53543,363;18,22550
 759,83;10006,292;  242,690;53597,701;18,29932
 760,40;10018,525;  224,766;53439,425;18,40425
 760,97; 9999,450;  222,074;53577,840;18,32487
 761,53;10009,683;  197,767;53155,179;18,52794
 762,10;10011,300;  200,459;53100,517;18,54599
 762,67;10102,226;  243,997;53066,471;18,66294
 763,24;10024,535;  194,074;52673,502;18,73203
 763,80;10106,076;  228,459;52864,840;18,76576
 764,37;10125,232;  230,459;52847,794;18,80516
 764,94;10071,157;  204,690;52333,133;18,92722
 765,50;10108,006;  220,229;52431,856;18,93788
 766,07;10165,392;  251,152;52474,810;18,98419
 766,64;10173,318;  233,690;52105,610;19,16187
 767,21;10178,012;  241,613;52041,333;19,18234
 767,77;10218,476;  257,152;51874,749;19,29831
 768,34;10246,632;  263,537;51923,164;19,32475
 768,91;10281,172;  258,921;51652,733;19,50089
 769,47;10315,713;  264,229;51713,995;19,53650
 770,04;10309,330;  261,383;51591,564;19,57513
 770,61;10312,640;  239,460;51321,364;19,71966
 771,18;10300,565;  230,845;51306,472;19,71532
 771,74;10386,491;  247,152;51408,272;19,81844
 772,31;10439,493;  260,537;51215,995;19,97618
 772,88;10379,418;  217,460;51015,796;20,00451
 773,44;10374,189;  234,306;50704,211;20,09095
 774,01;10472,192;  253,460;50873,011;20,18732
 774,58;10435,501;  227,614;50524,888;20,29511
 775,14;10510,042;  235,383;50646,534;20,38172
 775,71;10514,813;  236,537;50602,334;20,40725
 776,27;10568,508;  294,076;50495,673;20,46634
 776,84;10623,279;  314,076;50490,473;20,54592
 777,41;10621,743;  252,230;50294,273;20,72160
 777,97;10580,668;  234,768;50072,227;20,75928
 778,54;10576,516;  251,076;50143,104;20,69557
 779,11;10643,057;  275,845;50132,981;20,79384
 779,67;10707,290;  233,615;50049,627;21,02472
 780,24;10711,215;  248,538;49709,273;21,15350
 780,80;10710,602;  259,923;49830,381;21,08247
 781,37;10808,835;  255,692;49825,258;21,28956
 781,94;10726,222;  257,000;49628,289;21,20508
 782,50;10795,454;  265,769;49526,935;21,37523
 783,07;10861,380;  267,230;49610,043;21,47050
 783,63;10844,843;  243,154;49346,612;21,59052
 784,20;10879,538;  273,538;49235,874;21,66155
 784,77;10863,771;  254,692;49056,366;21,73917
 785,33;10881,696;  225,000;49013,166;21,84279
 785,90;10882,160;  248,000;48855,120;21,87778
 786,46;10956,162;  269,154;48795,228;22,02323
 787,03;10923,933;  239,462;48650,028;22,07054
 787,59;10945,935;  249,769;48497,059;22,16946
 788,16;11002,322;  263,616;48397,090;22,31027
 788,73;10970,940;  262,693;48264,352;22,30808
 789,29;10976,480;  241,693;47991,306;22,48141
 789,86;11059,482;  272,693;47967,567;22,61624
 790,42;11042,331;  256,462;47746,444;22,71188
 790,99;11013,794;  259,539;47483,552;22,77285
 791,55;11054,720;  257,847;47356,352;22,92402
 792,12;11101,337;  272,924;47388,844;22,98249
 792,68;11129,647;  254,155;47230,337;23,15108
 793,25;11115,188;  259,693;46912,445;23,26871
 793,81;11141,574;  309,847;46489,245;23,45576
 794,38;10984,499;  226,693;46236,122;23,38174
 794,94;11023,963;  247,001;46233,306;23,43516
 795,51;11048,042;  272,540;46008,106;23,56044
 796,07;11029,737;  265,616;45694,522;23,69443
 796,64;11113,585;  262,001;45837,553;23,81010
 797,20;11040,279;  262,617;45321,814;23,91890
 797,77;10947,128;  221,309;45021,230;23,94160
 798,33;10927,130;  252,386;44822,030;23,95070
 798,90;11016,363;  272,540;44715,291;24,17452
 799,46;10983,365;  251,771;44308,938;24,35834
 800,03;10952,059;  264,155;44235,661;24,30643
 800,59;10975,754;  265,155;44109,076;24,42892
 801,15;10955,294;  278,232;43747,799;24,56215
 801,72;10907,220;  266,463;43511,369;24,60580
 802,28;10898,991;  286,694;43292,015;24,67671
 802,85;10794,839;  266,310;43099,123;24,58052
 803,41;10830,995;  250,079;42940,307;24,78534
 803,98;10788,690;  256,925;42430,954;24,97216
 804,54;10764,384;  262,848;42266,677;25,00138
 805,11;10758,848;  262,541;42124,708;25,07349
 805,67;10796,004;  280,387;42014,277;25,19683
 806,23;10713,852;  257,002;41549,462;25,32387
 806,80;10726,547;  285,541;41500,339;25,33315
 807,36;10784,087;  286,310;41529,985;25,45306
 807,93;10712,320;  289,233;41223,016;25,46329
 808,49;10709,938;  247,618;40757,124;25,82683
 809,05;10676,709;  241,695;40697,693;25,79349
 809,62;10671,250;  280,310;40505,570;25,83188
 810,18;10660,944;  274,387;40620,831;25,74343
 810,74;10636,716;  243,541;40270,555;25,96540
 811,31;10614,256;  258,926;39953,201;26,08772
 811,87;10661,412;  258,695;39798,155;26,30971
 812,44;10672,491;  286,003;39928,339;26,20049
 813,00;10639,647;  219,157;39609,524;26,45441
 813,56;10768,880;  262,849;39650,555;26,67338
 814,13;10723,113;  252,080;39523,663;26,66313
 814,69;10715,269;  265,003;39435,924;26,67863
 815,25;10625,656;  235,695;38988,417;26,81092
 815,82;10700,119;  271,696;38942,601;26,96711
 816,38;10726,737;  290,003;38710,709;27,16435
 816,94;10581,739;  240,619;38478,048;27,04450
 817,51;10600,280;  237,311;38330,848;27,20401
 818,07;10594,282;  233,542;38000,802;27,43313
 818,63;10564,822;  247,927;37888,217;27,40918
 819,20;10642,363;  245,388;37838,710;27,65644
 819,76;10465,134;  236,465;37409,971;27,51602
 820,32;10531,290;  282,158;37334,387;27,66131
 820,89;10573,677;  272,773;37156,956;27,92770
 821,45;10451,141;  234,696;36860,448;27,89416
 822,01;10466,758;  277,619;36592,018;28,05812
 822,57;10424,145;  276,696;36485,125;28,02510
 823,14;10465,840;  237,619;36228,541;28,41889
 823,70;10367,842;  241,773;36000,649;28,31764
 824,26;10429,536;  234,850;35881,833;28,59901
 824,82;10361,692;  270,081;35724,403;28,46370
 825,39;10352,310;  251,850;35427,972;28,71396
 825,95;10428,620;  261,312;35480,618;28,86856
 826,51;10389,237;  258,620;35061,034;29,10895
 827,08;10412,008;  287,774;35137,295;29,05129
 827,64;10417,395;  281,235;34987,788;29,20532
 828,20;10337,551;  241,235;34619,126;29,36863
 828,76;10348,399;  271,082;34609,696;29,34690
 829,32;10378,325;  284,697;34482,034;29,51583
 829,89;10340,481;  239,851;34316,603;29,64082
 830,45;10409,483;  257,466;34267,634;29,84995
 831,01;10368,947;  253,236;34099,050;29,88763
 831,57;10356,949;  256,467;34030,081;29,90643
 832,14;10377,951;  254,851;34033,650;29,96880
 832,70;10355,491;  240,928;33800,758;30,13890
 833,26;10269,647;  217,928;33754,635;29,97229
 833,82;10373,496;  252,313;33616,204;30,33574
 834,38;10437,344;  237,544;33650,543;30,52644
 834,95;10419,346;  239,236;33518,112;30,59031
 835,51;10352,425;  211,313;33357,066;30,59551
 836,07;10433,504;  246,698;33520,635;30,61497
 836,63;10469,276;  264,390;33420,051;30,77871
 837,19;10475,509;  255,159;33199,928;31,02268
 837,75;10418,972;  213,544;32933,189;31,19052
 838,32;10527,821;  279,006;33077,682;31,24765
 838,88;10555,746;  259,852;33050,866;31,39852
 839,44;10500,286;  252,006;33047,666;31,24889
 840,00;10549,750;  251,083;32951,620;31,49388
 840,56;10480,752;  238,391;32616,036;31,63405
 841,12;10501,831;  233,391;32632,913;31,69319
 841,68;10497,064;  223,391;32391,328;31,93762
 842,25;10540,220;  232,545;32427,744;32,01619
 842,81;10479,838;  228,314;32220,621;32,04372
 843,37;10499,455;  218,775;32213,344;32,13258
 843,93;10520,150;  238,237;32166,375;32,20330
 844,49;10583,306;  251,776;32134,098;32,40520
 845,05;10571,154;  208,237;31930,667;32,66747
 845,61;10633,695;  261,391;32077,313;32,60098
 846,17;10587,851;  236,776;31936,036;32,65399
 846,73;10729,776;  235,468;31862,452;33,18150
 847,29;10668,009;  216,776;31612,560;33,28865
 847,86;10651,626;  232,776;31654,667;33,15793
 848,42;10626,321;  224,622;31431,237;33,33171
 848,98;10689,246;  243,699;31382,114;33,54553
 849,54;10711,556;  215,930;31349,606;33,71149
 850,10;10726,327;  251,545;31304,791;33,73168
 850,66;10696,252;  224,546;31162,129;33,84785
 851,22;10692,485;  226,161;31012,929;33,99618
 851,78;10830,257;  268,699;31106,422;34,24882
 852,34;10747,566;  244,007;30879,068;34,28607
 852,90;10722,415;  233,853;30702,253;34,42439
 853,46;10726,417;  227,161;30589,668;34,57967
 854,02;10764,727;  243,623;30587,468;34,67294
 854,58;10724,190;  244,854;30316,345;34,84808
 855,14;10687,577;  220,084;30263,530;34,84119
 855,70;10699,887;  202,238;30114,869;35,09437
 856,26;10670,889;  242,238;30010,207;35,03313
 856,82;10633,737;  232,623;29942,392;35,00907
 857,38;10632,047;  266,777;29836,038;35,05421
 857,94;10638,434;  234,008;29629,146;35,39506
 858,50;10636,436;  246,777;29607,946;35,38571
 859,06;10607,208;  236,546;29410,361;35,54784
 859,62;10598,671;  248,085;29409,008;35,49471
 860,18;10573,596;  238,239;29189,423;35,69926
 860,74;10572,906;  212,162;29036,915;35,94391
 861,30;10567,985;  213,008;28922,254;36,06844
 861,86;10658,603;  269,701;28999,593;36,16060
 862,42;10589,836;  237,162;28743,239;36,31743
 862,98;10589,069;  260,162;28761,500;36,24008
 863,54;10580,763;  241,239;28520,300;36,56247
 864,10;10585,227;  236,932;28588,101;36,50042
 864,66;10536,998;  215,239;28363,670;36,66904
 865,22;10513,231;  238,239;28203,855;36,74152
 865,78;10526,310;  235,470;28141,270;36,87707
 866,34;10533,697;  228,163;28057,301;37,03145
 866,90;10493,468;  245,547;27957,101;36,98068
 867,45;10496,163;  242,547;27757,132;37,26611
 868,01;10427,011;  239,470;27556,163;37,29420
 868,57;10389,244;  231,163;27363,501;37,43902
 869,13;10377,092;  222,471;27212,147;37,62410
 869,69;10363,633;  226,471;27172,563;37,62016
 870,25;10365,558;  217,701;27015,824;37,86779
 870,81;10402,945;  231,625;27081,009;37,88288
 871,37;10351,485;  242,009;26956,040;37,84332
 871,93;10345,103;  251,240;26773,379;38,05825
 872,49;10302,874;  260,933;26531,563;38,22497
 873,04;10245,646;  220,625;26358,748;38,35402
 873,60;10248,879;  219,933;26264,010;38,50759
 874,16;10224,650;  239,240;26176,733;38,49798
 874,72;10283,804;  228,933;26168,117;38,76325
 875,28;10221,035;  250,163;26000,733;38,72097
 875,84;10270,881;  230,240;25987,271;38,98213
 876,40;10226,881;  233,702;25977,579;38,81769
 876,95;10275,573;  251,163;25943,656;39,01688
 877,51;10305,496;  264,010;25877,656;39,20366
 878,07;10369,035;  271,856;25927,271;39,35691
 878,63;10408,188;  230,856;25864,194;39,70350
 879,19;10413,573;  253,240;25914,425;39,59417
 879,75;10498,419;  238,240;25953,348;39,89942
 880,30;10475,727;  240,317;25904,348;39,88232
 880,86;10585,881;  269,548;26079,271;39,97072
 881,42;10681,496;  216,779;26075,887;40,46821
 881,98;10703,958;  244,317;26144,963;40,38370
 882,54;10752,265;  220,471;26231,348;40,48996
 883,09;10879,650;  246,317;26360,963;40,71789
 883,65;10937,035;  224,548;26393,733;40,93550
 884,21;11055,035;  269,779;26645,810;40,89037
 884,77;11112,496;  224,317;26669,117;41,17323
 885,32;11167,958;  243,163;26823,271;41,10139
 885,88;11337,573;  266,625;27016,117;41,38751
 886,44;11330,342;  241,779;27082,348;41,31270
 887,00;11348,035;  255,779;27061,271;41,38053
 887,56;11536,112;  228,625;27290,271;41,78418
 888,11;11539,496;  225,702;27247,117;41,86973
 888,67;11667,881;  267,317;27369,579;42,06499
 889,23;11722,419;  240,471;27425,040;42,23701
 889,79;11657,881;  233,240;27282,040;42,23714
 890,34;11746,496;  239,933;27273,348;42,56422
 890,90;11877,112;  292,394;27396,810;42,74107
 891,46;11737,035;  224,240;27235,194;42,62269
 892,01;11816,958;  262,010;27282,502;42,76365
 892,57;11804,035;  271,087;27144,733;42,91546
 893,13;11693,112;  250,394;27068,963;42,66714
 893,69;11760,188;  234,625;26951,579;43,13951
 894,24;11745,188;  235,317;26883,502;43,19195
 894,80;11715,958;  245,779;26747,117;43,28151
 895,36;11704,804;  242,548;26590,579;43,50327
 895,91;11625,419;  233,856;26489,194;43,38761
 896,47;11664,188;  251,702;26326,425;43,76839
 897,03;11581,188;  232,856;26157,656;43,77404
 897,58;11566,958;  254,394;26075,656;43,81104
 898,14;11522,265;  250,317;25913,040;43,92343
 898,70;11472,958;  214,625;25698,271;44,17866
 899,25;11501,650;  238,548;25740,117;44,16631
 899,81;11499,958;  251,933;25551,810;44,45881
 900,37;11426,573;  218,625;25411,194;44,48910
 900,92;11478,035;  241,625;25430,887;44,60794
 901,48;11405,573;  234,394;25193,502;44,75793
 902,03;11340,112;  236,702;25072,425;44,70741
 902,59;11366,342;  239,779;24977,425;44,97826
 903,15;11322,881;  257,240;24842,194;45,00981
 903,70;11188,881;  246,779;24638,348;44,86018
 904,26;11165,727;  225,240;24525,117;45,02281
 904,82;11192,496;  230,163;24430,040;45,29913
 905,37;11226,727;  248,240;24383,425;45,48748
 905,93;11103,112;  228,087;24198,887;45,36780
 906,48;11109,035;  248,471;24148,887;45,44090
 907,04;11107,804;  262,087;24069,194;45,55664
 907,60;11092,496;  242,933;23863,271;45,93314
 908,15;11047,188;  226,471;23767,040;45,96625
 908,71;11104,112;  254,779;23777,579;46,12262
 909,26;11017,188;  232,240;23524,425;46,30286
 909,82;11029,573;  255,856;23558,271;46,23434
 910,37;10998,265;  281,163;23385,348;46,38598
 910,93;10917,650;  229,548;23196,579;46,53672
 911,48;10913,804;  223,625;23092,117;46,74632
 912,04;10871,419;  224,010;22961,502;46,82755
 912,60;10964,727;  245,471;23040,271;47,02500
 913,15;10891,804;  239,933;22832,271;47,14816
 913,71;10887,035;  224,856;22646,117;47,55388
 914,26;10856,342;  216,779;22565,810;47,60638
 914,82;10837,727;  250,087;22457,579;47,67598
 915,37;10869,958;  221,087;22481,117;47,83853
 915,93;10863,265;  287,087;22242,194;48,17184
 916,48;10823,112;  228,625;22159,502;48,30854
 917,04;10845,342;  247,163;22092,887;48,51375
 917,59;10823,112;  256,010;22017,348;48,55906
 918,15;10731,112;  206,010;21794,810;48,75260
 918,70;10696,881;  228,394;21782,656;48,56806
 919,26;10751,727;  237,779;21653,887;49,09365
 919,81;10661,727;  219,240;21495,425;49,08064
 920,37;10651,573;  228,856;21411,348;49,20440
 920,92;10672,342;  247,087;21405,887;49,27149
 921,48;10556,419;  213,394;21047,117;49,64559
 922,03;10629,804;  220,856;21107,502;49,83542
 922,59;10594,804;  228,317;20946,040;50,03680
 923,14;10566,496;  235,856;20873,963;50,05614
 923,69;10611,496;  251,087;20763,656;50,50762
 924,25;10561,035;  254,933;20707,194;50,39101
 924,80;10448,496;  235,548;20567,040;50,23216
 925,36;10483,573;  228,548;20503,656;50,57939
 925,91;10462,419;  231,702;20377,194;50,78415
 926,47;10392,265;  204,471;20324,579;50,63489
 927,02;10373,342;  276,702;20289,579;50,45072
 927,57;10338,496;  233,087;20066,963;50,95025
 928,13;10318,804;  220,702;20007,117;51,03553
 928,68;10326,035;  230,163;19941,425;51,21880
 929,24;10202,188;  203,087;19722,194;51,22725
 929,79;10187,265;  219,779;19652,502;51,29228
 930,34;10171,727;  230,856;19548,040;51,46128
 930,90;10148,650;  213,625;19480,040;51,56655
 931,45;10185,265;  237,087;19492,502;51,66432
 932,01;10095,573;  233,163;19371,963;51,53097
 932,56;10137,958;  246,087;19179,425;52,24578
 933,11;10096,188;  254,933;19098,425;52,22628
 933,67;10054,265;  227,933;18951,963;52,47979
 934,22;10028,727;  234,240;18965,656;52,28909
 934,77;10044,035;  258,702;18836,271;52,67284
 935,33; 9967,342;  230,856;18641,887;52,88398
 935,88; 9935,112;  232,625;18650,117;52,68082
 936,43; 9952,573;  224,548;18470,810;53,31517
 936,99; 9877,881;  234,702;18419,040;53,03013
 937,54; 9821,650;  220,010;18225,656;53,32572
 938,09; 9867,727;  237,933;18269,194;53,40610
 938,65; 9829,804;  234,394;18199,656;53,41091
 939,20; 9765,496;  227,779;18103,579;53,35547
 939,75; 9783,804;  218,240;17957,271;53,92382
 940,31; 9730,112;  202,933;17923,733;53,76269
 940,86; 9727,804;  232,163;17809,963;54,02064
 941,41; 9775,881;  293,163;17808,271;54,14022
 941,96; 9661,112;  226,240;17668,271;54,09273
 942,52; 9658,958;  230,625;17565,963;54,38794
 943,07; 9599,573;  205,548;17440,887;54,50444
 943,62; 9583,419;  214,471;17351,656;54,67029
 944,18; 9564,650;  210,087;17283,271;54,79097
 944,73; 9601,958;  237,010;17179,194;55,27592
 945,28; 9494,650;  196,856;17038,656;55,20665
 945,83; 9548,727;  224,394;17029,963;55,48359
 946,39; 9528,650;  215,933;17007,887;55,45940
 946,94; 9525,265;  246,471;16895,502;55,73174
 947,49; 9457,881;  223,010;16792,656;55,73367
 948,04; 9463,342;  254,779;16805,348;55,63895
 948,59; 9457,958;  241,933;16731,425;55,89029
 949,15; 9384,727;  220,856;16591,579;55,97719
 949,70; 9397,188;  222,702;16480,425;56,43156
 950,25; 9355,650;  243,163;16409,733;56,36624
 950,80; 9296,265;  199,933;16345,040;56,34111
 951,36; 9301,727;  194,163;16234,502;56,77912
 951,91; 9329,342;  239,163;16263,887;56,72597
 952,46; 9270,035;  206,933;16077,271;57,10717
 953,01; 9263,573;  240,163;16074,963;56,98468
 953,56; 9244,112;  196,856;15870,502;57,72273
 954,11; 9248,881;  236,625;15920,194;57,46304
 954,67; 9241,496;  222,394;15847,348;57,72242
 955,22; 9186,804;  212,933;15738,117;57,80203
 955,77; 9190,650;  248,010;15700,117;57,87327
 956,32; 9170,342;  264,779;15594,810;58,09227
 956,87; 9112,419;  213,548;15416,887;58,53235
 957,42; 9038,496;  219,394;15405,887;58,07201
 957,98; 9061,342;  220,394;15304,963;58,60922
 958,53; 9110,881;  244,702;15264,810;59,02873
 959,08; 9042,650;  216,471;15164,810;59,04455
 959,63; 9010,573;  218,394;15105,887;59,05749
 960,18; 9048,727;  236,010;15002,963;59,67864
 960,73; 8998,419;  227,087;15025,579;59,27180
 961,28; 8995,650;  204,548;14850,579;60,02378
 961,83; 9057,881;  248,625;14847,656;60,34137
 962,39; 8962,035;  210,856;14684,733;60,46189
 962,94; 8949,573;  238,240;14644,040;60,47101
 963,49; 8883,035;  224,933;14529,117;60,52845
 964,04; 8884,342;  239,010;14469,502;60,75217
 964,59; 8862,265;  190,471;14412,348;60,97503
 965,14; 8914,958;  234,702;14368,117;61,41655
 965,69; 8842,804;  229,933;14263,194;61,37469
 966,24; 8781,035;  209,010;14167,810;61,40947
 966,79; 8792,265;  244,933;14090,810;61,73197
 967,34; 8753,342;  195,087;13945,733;62,23894
 967,89; 8682,265;  223,933;13893,733;61,87605
 968,44; 8698,112;  232,471;13815,425;62,32547
 968,99; 8626,265;  231,625;13772,117;61,99657
 969,55; 8637,727;  235,471;13685,117;62,47195
 970,10; 8610,419;  226,317;13608,271;62,65230
 970,65; 8571,112;  258,010;13515,117;62,70675
 971,20; 8512,958;  218,856;13464,579;62,61721
 971,75; 8439,112;  220,702;13239,348;63,12799
 972,30; 8454,035;  226,933;13232,579;63,25793
 972,85; 8398,881;  216,548;13120,579;63,40912
 973,40; 8316,188;  209,163;12982,502;63,46833
 973,95; 8292,573;  238,702;12957,733;63,32142
 974,50; 8272,112;  251,087;12897,425;63,42567
 975,05; 8246,112;  230,548;12728,963;64,13264
 975,60; 8273,650;  237,933;12745,425;64,24723
 976,15; 8177,727;  222,548;12616,733;64,18477
 976,70; 8143,804;  233,240;12572,579;64,10849
 977,25; 8141,804;  237,394;12466,963;64,63359
 977,80; 8052,496;  217,317;12321,502;64,73116
 978,35; 7999,112;  234,471;12220,040;64,78324
 978,89; 8013,958;  213,394;12155,425;65,32024
 979,44; 7943,804;  228,779;12134,040;64,80349
 979,99; 7883,112;  217,625;11915,733;65,52758
 980,54; 7868,650;  253,625;11844,425;65,69887
 981,09; 7811,727;  247,856;11860,040;65,13737
 981,64; 7747,342;  232,548;11711,656;65,46497
 982,19; 7717,112;  263,010;11643,117;65,50115
 982,74; 7654,265;  241,548;11500,656;65,83752
 983,29; 7554,188;  218,548;11375,733;65,74813
 983,84; 7568,881;  239,394;11356,117;65,93208
 984,39; 7614,188;  294,856;11262,194;66,73755
 984,94; 7428,419;  209,779;11049,502;66,59432
 985,49; 7445,727;  253,471;11087,887;66,38342
 986,03; 7427,035;  254,010;11008,963;66,69508
 986,58; 7381,419;  274,010;10856,348;67,16294
 987,13; 7249,958;  235,163;10734,425;66,81226
 987,68; 7222,804;  242,702;10680,579;66,87281
 988,23; 7255,342;  242,163;10603,887;67,68352
 988,78; 7144,496;  231,702;10441,733;67,70591
 989,33; 7161,419;  253,087;10362,271;68,33719
 989,88; 7134,804;  250,087;10311,656;68,42588
 990,42; 7039,958;  226,702;10186,963;68,40439
 990,97; 6935,727;  229,779;10115,040;67,83784
 991,52; 6960,573;  252,163;10000,810;68,81376
 992,07; 6942,650;  270,471; 9886,271;69,38766
 992,62; 6829,804;  246,163; 9856,963;68,50252
 993,17; 6828,265;  243,010; 9701,810;69,62041
 993,71; 6787,035;  241,471; 9651,733;69,55772
 994,26; 6673,419;  232,087; 9479,579;69,65491
 994,81; 6673,342;  257,625; 9438,425;69,88190
 995,36; 6630,573;  233,317; 9288,040;70,65104
 995,91; 6587,958;  242,779; 9273,271;70,26393
 996,45; 6527,342;  231,856; 9155,656;70,54715
 997,00; 6430,573;  219,471; 9022,810;70,55394
 997,55; 6424,727;  242,163; 9020,502;70,42977
 998,10; 6373,496;  260,779; 8888,425;70,85035
 998,65; 6317,035;  233,548; 8830,348;70,76455
 999,19; 6255,342;  254,240; 8704,810;71,01417
 999,74; 6267,035;  277,548; 8626,656;71,73804
1000,29; 6210,727;  247,625; 8537,810;71,92966
1000,84; 6104,881;  232,933; 8390,810;71,97888
1001,38; 6064,958;  238,317; 8326,733;72,03686
1001,93; 6041,804;  259,702; 8267,271;72,20795
1002,48; 5993,958;  228,471; 8102,733;73,21939
1003,03; 5961,419;  241,548; 8090,733;72,87217
1003,57; 5916,265;  251,394; 7970,810;73,38472
1004,12; 5880,419;  261,394; 7947,271;73,10844
1004,67; 5809,496;  235,856; 7818,656;73,50372
1005,22; 5690,804;  226,471; 7679,733;73,31465
1005,76; 5629,035;  218,471; 7550,040;73,79816
1006,31; 5605,188;  264,010; 7519,963;73,61098
1006,86; 5543,727;  231,471; 7421,810;73,88047
1007,40; 5460,650;  216,394; 7259,810;74,45615
1007,95; 5412,573;  239,394; 7223,194;74,07398
1008,50; 5342,035;  240,163; 7064,117;74,76415
1009,04; 5258,958;  242,240; 6983,194;74,42148
1009,59; 5201,112;  240,240; 6841,040;75,15560
1010,14; 5144,496;  232,240; 6779,810;75,02411
1010,68; 5080,342;  238,625; 6652,117;75,49268
1011,23; 5033,573;  228,625; 6538,733;76,14685
1011,78; 4993,727;  256,548; 6507,579;75,78236
1012,32; 4894,035;  253,702; 6425,733;75,18324
1012,87; 4912,958;  259,856; 6388,425;75,92477
1013,42; 4799,188;  227,010; 6256,194;75,83412
1013,96; 4851,573;  256,625; 6258,040;76,56441
1014,51; 4762,342;  210,240; 6162,656;76,47487
1015,06; 4774,804;  214,702; 6187,656;76,34584
1015,60; 4836,342;  269,625; 6225,502;76,67582
1016,15; 4817,573;  228,856; 6175,579;77,16380
1016,69; 4872,573;  241,471; 6220,348;77,45772
1017,24; 4887,650;  215,163; 6187,656;78,23345
1017,79; 4951,881;  267,317; 6267,040;78,07966
1018,33; 4958,342;  228,856; 6238,040;78,70430
1018,88; 5015,727;  240,933; 6339,271;78,29664
1019,42; 5033,650;  231,856; 6320,810;78,86074
1019,97; 5026,650;  232,087; 6321,656;78,73403
1020,51; 5108,035;  250,471; 6375,963;79,30078
1021,06; 5094,342;  216,548; 6323,502;79,87279
1021,61; 5103,496;  199,856; 6306,579;80,29905
1022,15; 5109,727;  189,548; 6268,579;80,93690
1022,70; 5112,804;  234,933; 6261,194;80,94357
1023,24; 5081,419;  214,779; 6249,040;80,65014
1023,79; 5043,419;  233,010; 6178,963;80,90224
1024,33; 5059,265;  223,317; 6110,348;82,14579
1024,88; 4981,727;  246,548; 6042,887;81,69259
1025,42; 4923,650;  232,240; 5945,656;82,11217
1025,97; 4872,342;  222,240; 5867,348;82,37402
1026,51; 4765,419;  197,702; 5788,963;81,69386
1027,06; 4751,958;  214,702; 5714,963;82,49164
1027,60; 4703,419;  233,087; 5645,271;82,59756
1028,15; 4652,958;  239,625; 5542,271;83,22887
1028,69; 4548,265;  197,933; 5420,963;83,29135
1029,24; 4492,265;  226,702; 5382,271;82,73700
1029,78; 4434,804;  217,779; 5260,502;83,62595
1030,33; 4340,727;  204,394; 5155,502;83,54358
1030,87; 4337,188;  221,856; 5120,656;84,00695
1031,42; 4235,958;  203,240; 5044,194;83,30419
1031,96; 4180,188;  227,779; 4995,117;82,90600
1032,51; 4136,035;  215,779; 4894,810;83,78350
1033,05; 4103,804;  229,548; 4845,117;83,93885
1033,60; 3998,419;  193,394; 4753,656;83,43875
1034,14; 3958,188;  222,702; 4676,733;83,86755
1034,69; 3910,342;  221,240; 4599,194;84,26544
1035,23; 3858,573;  223,625; 4565,502;83,71836
1035,77; 3841,881;  226,471; 4503,271;84,53539
1036,32; 3742,035;  194,471; 4408,963;84,17535
1036,86; 3698,188;  224,010; 4393,040;83,33301
1037,41; 3659,188;  223,163; 4290,348;84,48166
1037,95; 3625,881;  197,933; 4207,271;85,49909
1038,50; 3585,881;  206,317; 4166,810;85,33190
1039,04; 3545,573;  229,933; 4143,887;84,71332
1039,58; 3503,881;  206,010; 4072,348;85,29701
1040,13; 3460,650;  226,163; 4017,271;85,31772
1040,67; 3455,112;  254,548; 3991,963;85,63574
1041,21; 3394,112;  251,240; 3921,271;85,63610
1041,76; 3317,112;  215,317; 3817,117;86,11789
1042,30; 3302,650;  218,087; 3786,348;86,44443
1042,85; 3259,419;  215,702; 3720,040;86,85569
1043,39; 3197,342;  207,240; 3680,579;86,08726
1043,93; 3182,881;  232,856; 3683,271;85,49768
1044,48; 3131,496;  230,933; 3588,887;86,37890
1045,02; 3093,881;  220,394; 3519,348;87,10296
1045,56; 3057,188;  237,548; 3511,271;86,12947
1046,11; 3046,188;  229,625; 3464,502;87,06864
1046,65; 2969,188;  234,240; 3390,963;86,63883
1047,19; 2949,881;  218,010; 3303,963;88,52599
1047,74; 2892,804;  204,010; 3279,271;87,43303
1048,28; 2917,573;  234,087; 3254,502;88,84495
1048,82; 2886,112;  249,702; 3219,040;88,78778
1049,37; 2824,419;  232,010; 3171,194;88,20166
1049,91; 2795,112;  221,240; 3126,117;88,60517
1050,45; 2778,958;  241,471; 3095,425;88,91127
1050,99; 2729,496;  232,856; 3027,348;89,34147
1051,54; 2703,727;  220,317; 2989,040;89,69512
1052,08; 2657,112;  237,010; 2958,117;88,93812
1052,62; 2621,265;  239,163; 2924,656;88,70262
1053,16; 2571,650;  212,087; 2848,425;89,50154
1053,71; 2560,188;  236,779; 2870,425;88,22026
1054,25; 2529,727;  237,779; 2782,810;90,05581
1054,79; 2488,265;  239,471; 2752,425;89,48808
1055,33; 2438,881;  207,856; 2678,348;90,30690
1055,88; 2427,035;  232,548; 2670,271;90,02198
1056,42; 2398,881;  248,240; 2650,040;89,54286
1056,96; 2405,650;  247,240; 2617,194;91,07391
1057,50; 2358,650;  238,471; 2587,348;90,26351
1058,05; 2329,496;  232,779; 2525,579;91,44789
1058,59; 2308,881;  261,625; 2518,502;90,71189
1059,13; 2239,035;  206,240; 2434,810;91,21522
1059,67; 2214,496;  236,625; 2431,810;90,10045
1060,21; 2169,342;  221,933; 2362,117;90,99260
1060,76; 2168,112;  243,471; 2345,963;91,54090
1061,30; 2152,573;  251,317; 2325,425;91,66620
1061,84; 2087,265;  238,933; 2285,425;90,31711
1062,38; 2036,419;  221,240; 2225,733;90,55554
1062,92; 2066,496;  272,471; 2270,425;89,79312
1063,46; 2015,881;  245,010; 2183,963;91,33127
1064,01; 1963,573;  225,779; 2175,579;89,12679
1064,55; 1967,496;  242,856; 2135,425;91,12694
1065,09; 1908,881;  207,702; 2084,579;90,63881
1065,63; 1961,419;  270,163; 2099,502;92,45177
1066,17; 1908,188;  259,317; 2072,887;90,91857
1066,71; 1893,881;  253,471; 2052,271;91,19466
1067,25; 1850,112;  232,548; 1992,194;91,92550
1067,80; 1848,727;  256,856; 1990,040;91,84660
1068,34; 1855,112;  271,779; 2016,656;90,74180
1068,88; 1786,035;  233,625; 1913,887;92,39095
1069,42; 1806,112;  271,087; 1923,040;92,92178
1069,96; 1753,881;  237,856; 1875,194;92,59081
1070,50; 1778,650;  276,779; 1908,194;92,05940
1071,04; 1724,419;  233,240; 1836,810;92,99124
1071,58; 1716,265;  234,856; 1806,810;94,24002
1072,12; 1707,881;  239,163; 1795,579;94,36538
1072,66; 1687,727;  236,394; 1772,194;94,50011
1073,21; 1685,804;  259,856; 1773,887;94,18224
1073,75; 1650,265;  238,933; 1738,040;94,14485
1074,29; 1632,804;  237,087; 1717,733;94,26407
1074,83; 1627,804;  257,856; 1708,502;94,43709
1075,37; 1607,727;  246,471; 1675,117;95,28292
1075,91; 1593,650;  262,163; 1664,271;94,96321
1076,45; 1573,804;  250,933; 1651,271;94,46796
1076,99; 1551,958;  262,163; 1629,348;94,33943
1077,53; 1513,727;  238,471; 1599,887;93,67132
1078,07; 1504,881;  248,702; 1604,810;92,63120
1078,61; 1487,496;  241,856; 1568,733;93,87761
1079,15; 1484,573;  232,163; 1538,963;95,83790
1079,69; 1467,958;  242,240; 1508,194;96,82164
1080,23; 1482,804;  261,933; 1514,810;97,44542
1080,77; 1460,265;  285,317; 1531,040;94,31856
1081,31; 1406,958;  238,625; 1481,733;93,98483
1081,85; 1418,342;  248,625; 1469,733;95,79149
1082,39; 1406,804;  239,240; 1426,733;98,32177
1082,93; 1394,035;  247,163; 1425,887;97,29776
1083,47; 1343,496;  226,933; 1380,810;96,76625
1084,01; 1350,804;  252,317; 1416,733;94,33803
1084,55; 1330,112;  232,471; 1388,425;94,95538
1085,09; 1349,265;  251,702; 1367,810;98,33849
1085,63; 1307,035;  254,471; 1342,271;96,76075
1086,17; 1290,188;  238,010; 1296,579;99,39632
1086,71; 1261,573;  237,317; 1306,733;95,77717
1087,24; 1289,188;  264,394; 1315,810;97,46807
1087,78; 1277,342;  255,933; 1303,271;97,52431
1088,32; 1231,265;  232,548; 1254,271;97,74834
1088,86; 1242,881;  250,548; 1267,425;97,58631
1089,40; 1213,650;  240,240; 1244,348;96,94275
1089,94; 1192,035;  220,010; 1205,810;98,60266
1090,48; 1181,727;  247,933; 1202,733;97,79998
1091,02; 1166,881;  259,317; 1201,656;96,30971
1091,56; 1165,419;  249,317; 1192,117;97,16821
1092,10; 1143,650;  223,702; 1155,887;98,68733
1092,63; 1158,342;  262,779; 1177,579;97,89719
1093,17; 1136,727;  260,163; 1161,194;97,28452
1093,71; 1111,419;  251,087; 1131,502;97,71895
1094,25; 1116,112;  265,240; 1151,963;95,95681
1094,79; 1092,035;  236,625; 1110,733;97,86090
1095,33; 1091,496;  243,163; 1102,117;98,76348
1095,87; 1069,112;  240,856; 1083,810;98,25636
1096,40; 1034,881;  230,163; 1064,194;96,48533
1096,94; 1039,342;  248,087; 1069,579;96,31932
1097,48; 1047,650;  243,471; 1063,040;98,12214
1098,02; 1023,496;  243,779; 1040,887;97,81831
1098,56;  988,188;  212,471; 1004,733;97,91177
1099,10;  966,804;  215,087;  985,963;97,51457
1099,63;  972,881;  222,317;  992,963;97,39404
1100,17;  981,265;  252,702;  991,502;98,61444
1100,71;  996,188;  259,317;  991,733;100,60837

