
Integration time [ms]: 120,000
Averaging Nr. [scans]: 13
Smoothing Nr. [pixels]: 0
Data measured with spectrometer [name]: 2009305U1
Wave   ;Sample   ;Dark     ;Reference;Reflectance
[nm]   ;[counts] ;[counts] ;[counts] ;[%]

 175,72;  203,775;  214,011;  210,491; 0,00000
 176,32;  228,184;  234,854;  221,035; 0,00000
 176,92;  260,379;  252,010;  252,105; 0,00000
 177,52;  264,205;  257,703;  269,755;53,94988
 178,12;  234,270;  259,162;  226,222; 0,00000
 178,72;  268,099;  267,700;  262,977; 0,00000
 179,32;  257,477;  267,008;  252,990; 0,00000
 179,92;  247,199;  252,086;  260,981;-54,94807
 180,52;  239,398;  237,474;  255,204;10,84756
 181,12;  264,880;  264,779;  246,111; 0,00000
 181,73;  279,558;  271,317;  278,774;110,51883
 182,33;  349,974;  340,858;  349,872;101,12893
 182,93;  283,146;  273,087;  278,576;183,27750
 183,53;  253,692;  244,776;  235,582; 0,00000
 184,13;  245,208;  240,007;  242,458;212,24513
 184,73;  283,082;  276,391;  275,425; 0,00000
 185,33;  272,998;  235,450;  343,179;34,85372
 185,93;  267,637;  251,371;  366,993;14,06790
 186,53;  286,806;  264,296;  383,324;18,91161
 187,13;  319,942;  281,913;  402,614;31,50692
 187,73;  271,759;  244,295;  367,374;22,31431
 188,33;  277,377;  247,370;  376,787;23,18614
 188,93;  291,923;  256,828;  379,932;28,50810
 189,53;  278,527;  255,441;  383,528;18,02405
 190,13;  319,061;  286,282;  413,440;25,77832
 190,73;  247,901;  230,670;  367,501;12,59340
 191,34;  295,352;  264,519;  392,473;24,09636
 191,94;  267,708;  250,061;  358,025;16,34473
 192,54;  287,373;  255,069;  412,450;20,52616
 193,14;  294,400;  270,067;  393,208;19,76057
 193,74;  285,515;  258,913;  388,839;20,47460
 194,34;  274,680;  265,375;  387,456; 7,62175
 194,94;  259,033;  225,298;  364,182;24,29047
 195,54;  232,223;  208,066;  338,321;18,54599
 196,14;  267,776;  238,222;  374,307;21,71738
 196,74;  247,636;  230,758;  370,073;12,11504
 197,34;  236,330;  208,454;  361,345;18,23266
 197,94;  261,954;  243,683;  382,730;13,14068
 198,54;  266,838;  244,914;  393,339;14,77106
 199,14;  259,980;  217,916;  394,871;23,77094
 199,74;  250,578;  208,609;  371,590;25,75102
 200,34;  234,608;  197,455;  397,849;18,54013
 200,94;  273,749;  244,838;  422,816;16,24414
 201,54;  263,047;  218,531;  427,054;21,34823
 202,14;  290,637;  237,763;  478,271;21,98404
 202,74;  259,184;  222,455;  491,403;13,65670
 203,34;  246,784;  199,611;  485,145;16,52122
 203,94;  238,395;  171,302;  499,632;20,43451
 204,54;  312,591;  250,990;  582,263;18,59508
 205,14;  268,812;  201,839;  591,288;17,19666
 205,74;  314,127;  250,149;  673,170;15,12416
 206,34;  284,332;  217,610;  685,661;14,25531
 206,94;  301,934;  223,994;  767,684;14,33548
 207,54;  289,169;  195,609;  803,859;15,38173
 208,14;  304,492;  211,917;  871,919;14,02642
 208,74;  318,879;  210,147;  953,332;14,63059
 209,34;  324,572;  211,686; 1030,270;13,79047
 209,94;  363,054;  227,224; 1107,404;15,43210
 210,54;  360,443;  224,456; 1213,557;13,74850
 211,14;  389,013;  219,378; 1305,660;15,61610
 211,73;  387,103;  217,608; 1452,751;13,72269
 212,33;  417,767;  227,377; 1547,098;14,42655
 212,93;  406,991;  212,531; 1631,895;13,70050
 213,53;  402,323;  184,455; 1698,742;14,38752
 214,13;  420,866;  201,765; 1768,735;13,98247
 214,73;  413,175;  205,686; 1818,655;12,86377
 215,33;  420,285;  170,070; 1843,865;14,94895
 215,93;  457,133;  215,533; 1939,797;14,01175
 216,53;  442,320;  171,916; 2008,260;14,72511
 217,13;  515,179;  218,225; 2228,230;14,77379
 217,73;  532,713;  197,226; 2419,695;15,09524
 218,33;  527,098;  167,689; 2608,289;14,72627
 218,93;  617,376;  193,075; 2925,847;15,52639
 219,53;  657,696;  187,919; 3199,315;15,59995
 220,13;  707,993;  160,997; 3492,152;16,42061
 220,73;  784,711;  196,301; 3855,225;16,08151
 221,32;  858,033;  196,224; 4241,486;16,36011
 221,92;  926,492;  194,535; 4611,645;16,57096
 222,52; 1004,261;  175,534; 5028,421;17,07699
 223,12; 1099,515;  188,611; 5452,883;17,30353
 223,72; 1191,267;  193,149; 5839,909;17,67594
 224,32; 1269,859;  201,457; 6225,846;17,73461
 224,92; 1326,676;  187,995; 6528,218;17,95963
 225,52; 1451,840;  204,225; 6824,864;18,84433
 226,12; 1477,567;  197,995; 7150,236;18,40517
 226,72; 1527,498;  170,610; 7430,639;18,68985
 227,31; 1611,776;  166,918; 7784,703;18,96692
 227,91; 1711,375;  199,224; 8174,074;18,96149
 228,51; 1796,123;  190,762; 8542,716;19,22138
 229,11; 1908,566;  200,610; 8901,221;19,63030
 229,71; 1946,518;  190,147; 9201,856;19,48988
 230,31; 2074,281;  176,996; 9611,594;20,10986
 230,91; 2114,082;  180,376; 9901,870;19,89104
 231,51; 2208,991;  172,918;10149,144;20,40925
 232,10; 2312,281;  179,689;10549,763;20,56487
 232,70; 2389,757;  187,529;10728,456;20,89216
 233,30; 2469,186;  211,687;11067,642;20,79503
 233,90; 2505,695;  185,456;11173,783;21,11548
 234,50; 2572,669;  186,380;11254,406;21,56020
 235,10; 2587,983;  185,611;11410,449;21,40229
 235,70; 2663,147;  196,070;11478,618;21,86631
 236,29; 2684,977;  198,301;11520,004;21,96380
 236,89; 2633,689;  177,761;11422,929;21,83985
 237,49; 2663,244;  191,072;11328,499;22,19698
 238,09; 2615,101;  187,917;11123,585;22,19511
 238,69; 2633,604;  216,068;10997,794;22,42254
 239,29; 2535,881;  181,686;10689,070;22,40515
 239,89; 2510,642;  195,299;10454,865;22,56765
 240,48; 2389,994;  185,225;10118,418;22,19598
 241,08; 2342,443;  193,763; 9742,825;22,50148
 241,68; 2248,004;  213,763; 9520,143;21,85856
 242,28; 2147,638;  178,995; 9134,763;21,98185
 242,88; 2091,310;  227,611; 8920,992;21,43814
 243,48; 1981,954;  223,533; 8575,165;21,05482
 244,07; 1904,191;  203,532; 8415,676;20,70908
 244,67; 1866,534;  202,841; 8270,125;20,62271
 245,27; 1803,103;  220,454; 8104,289;20,07460
 245,87; 1757,091;  209,534; 8052,016;19,73300
 246,47; 1709,056;  203,454; 8026,533;19,24564
 247,06; 1681,713;  192,917; 8066,640;18,90841
 247,66; 1653,539;  189,225; 8140,829;18,41533
 248,26; 1682,491;  214,147; 8246,541;18,28028
 248,86; 1653,174;  204,377; 8416,278;17,64265
 249,46; 1603,470;  163,226; 8637,810;16,99487
 250,05; 1658,645;  200,225; 9001,750;16,57009
 250,65; 1663,806;  180,146; 9283,159;16,29856
 251,25; 1715,647;  186,609; 9749,741;15,98888
 251,85; 1760,674;  200,838;10301,961;15,44221
 252,44; 1789,080;  165,147;10896,011;15,13330
 253,04; 1917,173;  199,916;11586,994;15,08075
 253,64; 1955,111;  155,377;12285,600;14,83677
 254,24; 2081,355;  207,379;13194,570;14,42942
 254,84; 2168,239;  178,226;14003,964;14,39354
 255,43; 2262,675;  184,455;14937,800;14,08644
 256,03; 2386,673;  188,992;15838,293;14,04332
 256,63; 2541,813;  193,992;16841,839;14,10285
 257,23; 2585,870;  186,761;17628,321;13,75513
 257,82; 2758,355;  195,299;18538,267;13,97297
 258,42; 2823,984;  162,990;19328,589;13,88422
 259,02; 2987,945;  209,301;20139,462;13,94190
 259,62; 3066,155;  180,221;20731,471;14,04262
 260,21; 3161,249;  194,685;21289,210;14,06319
 260,81; 3245,141;  184,071;21702,030;14,22565
 261,41; 3270,088;  174,606;22078,227;14,13229
 262,01; 3404,624;  221,682;22455,243;14,31593
 262,60; 3424,485;  173,146;22837,551;14,34558
 263,20; 3533,644;  180,300;23017,834;14,68348
 263,80; 3629,627;  212,297;23269,479;14,82111
 264,40; 3655,228;  179,605;23417,988;14,95639
 264,99; 3723,603;  197,605;23557,247;15,09440
 265,59; 3787,173;  173,065;23634,504;15,40446
 266,19; 3840,917;  175,220;23791,813;15,52170
 266,78; 3951,852;  219,527;23890,966;15,76721
 267,38; 3970,233;  190,604;23883,007;15,95292
 267,98; 3998,356;  178,373;23945,249;16,07272
 268,58; 4086,049;  196,219;23961,147;16,36794
 269,17; 4141,386;  181,526;23839,644;16,73785
 269,77; 4128,463;  194,607;23667,926;16,75884
 270,37; 4167,836;  171,759;23642,100;17,02607
 270,96; 4222,879;  220,837;23534,837;17,16583
 271,56; 4230,091;  185,069;23236,441;17,54786
 272,16; 4226,925;  179,683;23018,809;17,72065
 272,75; 4246,828;  201,914;22979,060;17,75865
 273,35; 4331,918;  197,760;22937,037;18,18069
 273,95; 4326,733;  193,144;22835,086;18,25634
 274,54; 4356,648;  178,456;22986,372;18,31905
 275,14; 4503,560;  202,453;23256,121;18,65693
 275,74; 4505,355;  173,606;23292,559;18,73679
 276,33; 4671,342;  226,684;23662,406;18,96531
 276,93; 4803,939;  196,687;23913,182;19,42636
 277,53; 4944,497;  199,608;24534,799;19,49806
 278,12; 5088,199;  170,454;25029,700;19,78236
 278,72; 5277,766;  220,070;25611,676;19,91877
 279,32; 5413,343;  187,070;26204,399;20,08766
 279,91; 5647,744;  181,377;26885,050;20,47047
 280,51; 5783,832;  188,224;27319,345;20,62432
 281,11; 5987,022;  188,762;28027,807;20,82780
 281,70; 6187,247;  172,300;28516,318;21,22122
 282,30; 6339,399;  167,761;29008,980;21,39867
 282,90; 6529,662;  183,530;29518,614;21,63325
 283,49; 6751,362;  205,760;29882,679;22,05620
 284,09; 6956,714;  215,684;30373,638;22,35241
 284,69; 7107,162;  211,147;30792,239;22,54993
 285,28; 7345,193;  202,300;31094,996;23,12162
 285,88; 7544,650;  247,452;31228,136;23,55403
 286,47; 7628,065;  203,684;31397,204;23,80104
 287,07; 7786,437;  224,916;31454,989;24,21231
 287,67; 7953,877;  212,456;31525,935;24,72233
 288,26; 8107,656;  191,070;31458,104;25,31928
 288,86; 8353,605;  185,915;31527,080;26,06058
 289,46; 8534,632;  194,608;31602,333;26,55405
 290,05; 8758,049;  179,994;31644,792;27,26239
 290,65; 9036,212;  188,530;31961,330;27,84672
 291,24; 9286,337;  197,531;32071,772;28,51458
 291,84; 9545,044;  210,376;32187,916;29,19133
 292,44; 9753,807;  197,687;32306,192;29,76196
 293,03;10044,707;  256,993;32436,881;30,41563
 293,63;10226,787;  192,530;32589,832;30,97251
 294,22;10458,422;  223,916;32787,544;31,42926
 294,82;10599,101;  189,298;32749,534;31,97091
 295,41;10667,554;  178,377;32409,549;32,54358
 296,01;10777,567;  233,298;32385,570;32,79479
 296,61;10826,879;  208,916;32144,624;33,24793
 297,20;10725,221;  197,375;31749,385;33,36664
 297,80;10763,248;  208,763;31707,096;33,50808
 298,39;10684,751;  181,530;31272,269;33,78248
 298,99;10667,216;  218,914;31171,619;33,75570
 299,58;10660,244;  210,610;31033,330;33,90237
 300,18;10585,414;  220,225;30806,427;33,88845
 300,78;10472,936;  199,378;30449,890;33,96160
 301,37;10427,877;  207,451;30432,521;33,81440
 301,97;10465,372;  206,454;30430,936;33,94241
 302,56;10392,440;  188,992;30386,632;33,78889
 303,16;10380,596;  176,837;30333,084;33,83630
 303,75;10335,093;  193,763;30285,065;33,70187
 304,35;10379,441;  186,380;30508,043;33,61643
 304,94;10282,629;  203,993;30569,558;33,19101
 305,54;10296,341;  216,608;30541,178;33,23949
 306,13;10196,882;  174,611;30450,525;33,10312
 306,73;10080,993;  178,225;30252,904;32,92726
 307,33;10048,345;  199,994;30222,023;32,80375
 307,92;10001,275;  201,916;30257,048;32,60461
 308,52;10076,309;  169,760;30726,910;32,41974
 309,11;10237,513;  184,221;31172,556;32,44218
 309,71;10193,408;  163,374;31424,518;32,08467
 310,30;10222,680;  177,224;31627,643;31,94061
 310,90;10280,065;  210,300;32022,412;31,65387
 311,49;10240,133;  194,839;32175,456;31,41057
 312,09;10204,059;  164,994;32204,056;31,33383
 312,68;10319,862;  252,685;32703,819;31,02257
 313,28;10268,275;  169,993;32749,894;30,99544
 313,87;10214,100;  163,916;32908,745;30,69243
 314,47;10218,313;  188,298;33239,584;30,34682
 315,06;10194,042;  169,839;33319,657;30,23909
 315,66;10150,905;  182,455;33472,056;29,94464
 316,25;10031,682;  167,299;33362,117;29,71664
 316,85; 9984,210;  169,532;33522,281;29,42689
 317,44; 9939,892;  180,990;33591,852;29,20877
 318,04; 9835,615;  168,299;33530,704;28,97668
 318,63; 9697,931;  172,149;33780,949;28,34312
 319,22; 9684,600;  199,991;33815,029;28,21537
 319,82; 9550,950;  180,300;33826,265;27,85074
 320,41; 9479,656;  206,684;33832,818;27,57668
 321,01; 9421,144;  198,763;34009,304;27,27664
 321,60; 9289,593;  187,454;34014,887;26,90757
 322,20; 9209,610;  179,839;33994,132;26,70401
 322,79; 9130,441;  219,685;34137,856;26,27133
 323,39; 9017,666;  198,610;34160,862;25,96723
 323,98; 8884,956;  167,839;34069,793;25,71273
 324,58; 8785,477;  176,760;34045,955;25,41754
 325,17; 8620,954;  186,914;33877,862;25,03355
 325,76; 8491,242;  211,223;33732,398;24,70086
 326,36; 8344,176;  165,994;33385,708;24,61846
 326,95; 8221,803;  212,531;33068,215;24,37713
 327,55; 8018,323;  180,915;32656,611;24,13315
 328,14; 7855,980;  180,686;32347,296;23,86106
 328,74; 7646,073;  212,915;32037,375;23,35675
 329,33; 7460,088;  201,378;31622,900;23,10108
 329,92; 7315,925;  174,067;31077,948;23,10991
 330,52; 7047,128;  195,994;30413,899;22,67243
 331,11; 6895,838;  191,531;30040,471;22,46079
 331,71; 6700,437;  182,839;29481,743;22,24519
 332,30; 6531,552;  202,300;28987,558;21,98783
 332,89; 6398,309;  234,224;28535,328;21,78037
 333,49; 6202,818;  190,300;28010,722;21,61189
 334,08; 6042,462;  191,915;27613,335;21,33568
 334,68; 5855,122;  195,223;27126,085;21,01640
 335,27; 5763,022;  211,533;26843,055;20,84556
 335,86; 5670,992;  231,915;26509,548;20,69850
 336,46; 5505,433;  202,764;26375,601;20,26020
 337,05; 5430,347;  182,838;26198,842;20,17031
 337,65; 5350,521;  171,300;26069,592;19,99831
 338,24; 5340,527;  225,916;25957,889;19,87648
 338,83; 5298,154;  211,609;25960,928;19,75410
 339,43; 5161,709;  173,607;25897,586;19,39087
 340,02; 5113,626;  182,760;25765,097;19,27449
 340,61; 5121,411;  182,839;25888,382;19,21209
 341,21; 5096,765;  219,838;25863,991;19,01770
 341,80; 4982,432;  185,684;25785,399;18,73751
 342,40; 4971,678;  197,148;25992,092;18,50956
 342,99; 4968,232;  194,993;25933,790;18,54492
 343,58; 4973,011;  187,301;26161,746;18,42468
 344,18; 4934,280;  198,532;26237,792;18,18695
 344,77; 4955,735;  182,683;26542,732;18,10714
 345,36; 4944,188;  170,069;26864,292;17,88446
 345,96; 5002,040;  210,301;27234,220;17,73147
 346,55; 5007,539;  174,918;27441,869;17,72336
 347,14; 5022,338;  161,840;27771,304;17,60446
 347,74; 5084,297;  156,458;28145,362;17,60640
 348,33; 5174,139;  186,689;28707,341;17,48716
 348,92; 5219,195;  195,920;29365,093;17,22118
 349,52; 5266,727;  165,920;29764,897;17,23305
 350,11; 5278,927;  184,606;30038,993;17,06389
 350,70; 5246,444;  177,147;30054,247;16,96717
 351,29; 5220,438;  169,681;29940,415;16,96551
 351,89; 5201,421;  203,913;29866,511;16,84784
 352,48; 5156,784;  165,916;29935,189;16,76517
 353,07; 5178,419;  194,148;29823,556;16,82204
 353,67; 5154,018;  200,997;29713,261;16,78292
 354,26; 5058,584;  198,917;29488,810;16,59162
 354,85; 5017,562;  193,302;29422,646;16,50485
 355,45; 5003,595;  174,684;29183,647;16,64627
 356,04; 4975,688;  173,533;29054,525;16,62739
 356,63; 4941,214;  210,915;28904,684;16,48546
 357,22; 4916,792;  193,605;28869,734;16,47080
 357,82; 4861,397;  193,759;28557,879;16,45613
 358,41; 4892,354;  207,762;28547,116;16,53034
 359,00; 4797,031;  174,607;28296,092;16,43734
 359,60; 4815,205;  194,608;28288,921;16,44673
 360,19; 4783,171;  201,687;28002,597;16,47962
 360,78; 4799,415;  194,530;27936,809;16,59880
 361,37; 4720,705;  194,300;27711,758;16,44921
 361,97; 4741,253;  197,377;27527,653;16,62580
 362,56; 4660,237;  180,299;27236,461;16,55792
 363,15; 4710,743;  225,838;27027,789;16,73350
 363,74; 4582,925;  192,529;26720,347;16,55016
 364,34; 4578,803;  213,530;26316,252;16,72344
 364,93; 4510,554;  189,222;25886,940;16,81601
 365,52; 4413,300;  160,223;25558,163;16,74575
 366,11; 4433,662;  190,530;25238,522;16,94001
 366,71; 4367,676;  190,530;24836,259;16,94876
 367,30; 4324,927;  195,992;24520,356;16,97448
 367,89; 4352,872;  231,994;24276,421;17,13860
 368,48; 4281,582;  191,914;24039,399;17,14927
 369,07; 4220,444;  199,147;23550,247;17,22102
 369,67; 4215,926;  215,375;23316,747;17,31737
 370,26; 4179,332;  192,070;22970,222;17,50476
 370,85; 4137,208;  194,300;22808,426;17,43560
 371,44; 4123,087;  193,531;22547,537;17,57876
 372,03; 4135,818;  169,684;22257,143;17,95650
 372,63; 4059,954;  163,069;21982,440;17,85975
 373,22; 4065,896;  177,531;21741,752;18,03156
 373,81; 4018,732;  160,300;21415,612;18,15279
 374,40; 3998,764;  171,148;21239,725;18,16741
 374,99; 3976,746;  172,992;20929,180;18,32588
 375,59; 3954,340;  176,917;20639,602;18,46006
 376,18; 3961,494;  211,607;20573,354;18,41633
 376,77; 3981,188;  199,531;20440,307;18,68336
 377,36; 3989,240;  214,838;20258,752;18,83066
 377,95; 3993,026;  205,299;20033,619;19,10261
 378,55; 3933,067;  179,917;19882,074;19,04944
 379,14; 3974,533;  196,146;19750,092;19,32289
 379,73; 4012,298;  194,299;19681,440;19,59240
 380,32; 4048,114;  198,762;19774,467;19,66393
 380,91; 3997,207;  174,606;19592,048;19,68643
 381,50; 4048,143;  192,376;19510,641;19,95918
 382,10; 4047,422;  174,916;19439,929;20,10124
 382,69; 4050,412;  156,531;19346,111;20,29164
 383,28; 4138,487;  211,299;19309,219;20,56343
 383,87; 4106,226;  187,684;19220,437;20,58842
 384,46; 4108,915;  181,451;19105,130;20,75423
 385,05; 4205,359;  212,453;19159,596;21,07392
 385,64; 4170,585;  187,299;19117,061;21,04245
 386,24; 4205,642;  162,682;19102,309;21,34657
 386,83; 4253,591;  206,220;19170,224;21,34239
 387,42; 4322,396;  205,684;19213,959;21,65747
 388,01; 4377,902;  203,835;19424,021;21,71710
 388,60; 4477,119;  190,682;19714,984;21,95437
 389,19; 4560,356;  179,294;19877,154;22,24131
 389,78; 4650,505;  180,756;20081,850;22,45981
 390,37; 4837,709;  237,989;20500,938;22,70015
 390,96; 4885,923;  194,067;20605,686;22,98620
 391,56; 4924,292;  186,602;20828,246;22,95210
 392,15; 5004,535;  180,295;21066,263;23,09800
 392,74; 5069,222;  160,599;21195,009;23,33615
 393,33; 5246,058;  190,294;21529,532;23,69234
 393,92; 5354,695;  195,445;21971,070;23,69278
 394,51; 5409,262;  171,678;22011,525;23,98178
 395,10; 5597,908;  212,980;22320,561;24,35784
 395,69; 5644,128;  197,980;22370,861;24,56220
 396,28; 5688,710;  206,671;22541,372;24,54494
 396,87; 5768,847;  206,976;22536,878;24,90773
 397,46; 5825,732;  212,051;22681,522;24,98359
 398,06; 5990,859;  215,202;22883,559;25,47894
 398,65; 5997,122;  205,812;22987,241;25,42119
 399,24; 6075,039;  214,965;23177,174;25,52052
 399,83; 6095,253;  181,341;23191,498;25,70131
 400,42; 6225,002;  227,642;23303,087;25,99023
 401,01; 6309,828;  208,095;23360,851;26,35424
 401,60; 6361,444;  213,699;23426,923;26,48381
 402,19; 6410,919;  236,228;23302,605;26,76923
 402,78; 6443,460;  237,521;23374,864;26,82218
 403,37; 6455,409;  229,585;23262,227;27,03044
 403,96; 6499,925;  229,339;23087,261;27,43288
 404,55; 6558,848;  222,244;23012,735;27,80372
 405,14; 6508,112;  210,382;22907,620;27,74668
 405,73; 6587,585;  225,825;22750,232;28,24385
 406,32; 6617,749;  236,505;22705,050;28,40079
 406,91; 6558,416;  232,721;22386,749;28,55325
 407,50; 6613,520;  221,867;22256,863;29,00682
 408,09; 6551,739;  206,708;22011,041;29,09986
 408,68; 6595,492;  221,012;21957,970;29,32554
 409,27; 6613,497;  202,556;21688,442;29,83792
 409,86; 6600,033;  219,259;21532,125;29,93860
 410,45; 6660,494;  239,038;21510,112;30,18868
 411,04; 6681,743;  249,971;21493,166;30,27686
 411,63; 6641,603;  245,060;21150,964;30,59682
 412,22; 6652,250;  233,610;20948,065;30,98628
 412,81; 6612,435;  252,076;20697,197;31,10942
 413,40; 6566,988;  255,158;20348,179;31,41305
 413,99; 6509,581;  301,233;20118,113;31,32858
 414,58; 6440,203;  221,080;19696,334;31,93346
 415,17; 6421,033;  233,922;19499,762;32,11441
 415,76; 6367,888;  227,841;19327,113;32,14807
 416,35; 6378,397;  215,843;19197,441;32,46594
 416,94; 6471,743;  249,072;19219,494;32,80196
 417,53; 6564,753;  220,076;19349,245;33,16755
 418,12; 6619,913;  219,539;19529,697;33,14511
 418,71; 6838,503;  247,081;19865,270;33,59853
 419,30; 6883,798;  222,078;19975,758;33,72395
 419,89; 6976,088;  222,463;20130,901;33,92343
 420,48; 7135,193;  254,158;20399,802;34,15644
 421,07; 7203,438;  249,236;20499,272;34,34168
 421,66; 7224,601;  219,931;20508,953;34,52444
 422,25; 7280,469;  231,397;20479,076;34,81422
 422,84; 7283,495;  245,705;20448,585;34,83558
 423,43; 7206,338;  227,934;20130,868;35,06219
 424,02; 7187,276;  251,627;19882,953;35,32950
 424,60; 7106,723;  231,094;19474,399;35,72998
 425,19; 7050,458;  240,168;19222,393;35,87719
 425,78; 7072,950;  251,399;19095,114;36,20067
 426,37; 7072,337;  256,632;19052,522;36,26167
 426,96; 7012,165;  233,709;18995,471;36,12910
 427,55; 7015,262;  230,174;18799,755;36,53873
 428,14; 6985,867;  231,021;18600,632;36,77185
 428,73; 6953,342;  244,711;18385,860;36,98019
 429,32; 7007,753;  256,093;18374,449;37,26420
 429,91; 7054,780;  273,096;18409,951;37,39173
 430,50; 7026,249;  254,020;18227,048;37,67995
 431,08; 6965,304;  268,714;18036,209;37,69011
 431,67; 6970,686;  305,793;18056,735;37,54670
 432,26; 6960,628;  316,563;17833,318;37,92977
 432,85; 6847,467;  337,486;17562,660;37,79341
 433,44; 6754,570;  356,873;17172,839;38,04538
 434,03; 6642,557;  354,491;16845,627;38,12998
 434,62; 6488,331;  324,642;16417,436;38,30092
 435,21; 6471,823;  327,794;16185,278;38,74529
 435,79; 6413,921;  324,413;16105,592;38,58716
 436,38; 6407,189;  311,493;15987,757;38,88488
 436,97; 6405,584;  318,493;15888,959;39,09382
 437,56; 6324,270;  320,113;15697,521;39,04531
 438,15; 6317,296;  304,650;15652,858;39,17491
 438,74; 6358,889;  311,727;15625,964;39,48719
 439,33; 6398,642;  289,957;15635,812;39,80674
 439,91; 6418,573;  247,344;15693,001;39,95446
 440,50; 6500,302;  291,344;15760,426;40,13785
 441,09; 6494,438;  299,423;15826,024;39,89936
 441,68; 6558,247;  276,041;15843,795;40,35396
 442,27; 6568,040;  259,271;15816,972;40,55078
 442,86; 6600,362;  242,507;15760,416;40,97108
 443,44; 6626,264;  257,121;15863,457;40,81126
 444,03; 6664,587;  317,353;15933,096;40,64638
 444,62; 6614,956;  252,969;15771,282;40,99665
 445,21; 6564,836;  258,968;15603,276;41,09581
 445,80; 6543,161;  285,817;15537,769;41,02651
 446,39; 6511,156;  306,893;15259,887;41,49178
 446,97; 6420,000;  248,973;15117,031;41,50526
 447,56; 6317,764;  258,822;14881,744;41,43455
 448,15; 6286,772;  257,358;14708,575;41,72253
 448,74; 6227,894;  277,435;14532,033;41,74414
 449,33; 6146,910;  259,591;14381,855;41,68821
 449,91; 6101,483;  268,363;14127,784;42,08776
 450,50; 6012,067;  256,901;13936,125;42,07232
 451,09; 5998,772;  274,670;13823,256;42,24870
 451,68; 5972,003;  276,441;13806,388;42,09597
 452,26; 5974,507;  285,673;13669,188;42,50628
 452,85; 5896,531;  274,672;13602,072;42,18272
 453,44; 5917,778;  276,214;13548,990;42,50478
 454,03; 5926,249;  246,673;13497,682;42,86145
 454,61; 5910,456;  250,984;13505,037;42,69994
 455,20; 6011,066;  275,293;13698,541;42,73015
 455,79; 6008,847;  277,983;13652,470;42,84923
 456,38; 6079,542;  274,910;13745,297;43,09180
 456,97; 6103,975;  262,832;13788,874;43,18442
 457,55; 6115,137;  260,449;13837,587;43,12166
 458,14; 6116,048;  294,293;13814,915;43,05834
 458,73; 6075,738;  281,680;13714,557;43,13341
 459,31; 6144,632;  296,529;13813,654;43,26440
 459,90; 6170,267;  290,758;13818,272;43,46334
 460,49; 6235,659;  351,450;13955,721;43,25266
 461,08; 6192,064;  263,068;14026,081;43,07920
 461,66; 6242,099;  271,067;14062,666;43,29470
 462,25; 6313,809;  279,377;14116,827;43,60942
 462,84; 6362,281;  303,915;14197,590;43,60521
 463,43; 6238,198;  242,072;14152,035;43,10670
 464,01; 6305,970;  276,304;14173,250;43,38843
 464,60; 6331,444;  317,302;14104,271;43,62193
 465,19; 6183,135;  248,458;13829,929;43,69686
 465,77; 6221,715;  276,152;13818,651;43,90300
 466,36; 6224,366;  298,995;13807,157;43,86512
 466,95; 6038,320;  269,303;13465,801;43,71627
 467,53; 5960,517;  265,999;13120,818;44,29871
 468,12; 5807,699;  303,077;12935,455;43,57550
 468,71; 5750,996;  289,766;12720,528;43,93319
 469,29; 5606,220;  261,769;12462,573;43,80409
 469,88; 5543,489;  272,001;12264,044;43,95822
 470,47; 5598,901;  337,696;12320,684;43,90562
 471,06; 5560,525;  282,619;12328,948;43,81340
 471,64; 5602,589;  297,772;12438,032;43,69607
 472,23; 5619,917;  267,468;12412,909;44,06961
 472,81; 5649,562;  255,697;12530,520;43,94251
 473,40; 5725,574;  275,007;12617,038;44,16264
 473,99; 5865,373;  351,776;12868,974;44,04817
 474,57; 5846,641;  274,930;12922,774;44,05266
 475,16; 5896,031;  282,390;13021,408;44,06651
 475,75; 5972,033;  299,162;13219,026;43,90813
 476,33; 6013,174;  311,472;13281,143;43,96181
 476,92; 6042,800;  302,623;13358,503;43,96622
 477,51; 6096,184;  308,932;13445,136;44,05574
 478,09; 6080,935;  294,240;13419,778;44,08730
 478,68; 6022,177;  304,164;13362,918;43,78682
 479,27; 6104,028;  322,162;13398,552;44,21607
 479,85; 6060,490;  291,010;13395,238;44,02762
 480,44; 6104,492;  280,934;13514,284;44,00669
 481,02; 6703,769;  299,166;14890,258;43,89392
 481,61; 7493,634;  328,627;16791,592;43,52197
 482,20; 8046,381;  307,320;17952,021;43,86054
 482,78; 8392,663;  336,164;18747,165;43,75916
 483,37; 8627,154;  331,168;19181,214;44,01042
 483,95; 8739,315;  360,861;19498,872;43,77912
 484,54; 8843,263;  368,858;19706,929;43,82239
 485,13; 8755,154;  336,709;19610,632;43,67790
 485,71; 8652,451;  324,785;19346,645;43,77945
 486,30; 8569,741;  362,016;19083,825;43,84045
 486,88; 8438,207;  393,094;18700,169;43,94538
 487,47; 8138,673;  374,325;18071,129;43,87429
 488,05; 7719,690;  352,480;17169,758;43,80739
 488,64; 7144,706;  351,866;15953,196;43,54014
 489,23; 6390,558;  361,172;14158,845;43,69857
 489,81; 5449,899;  357,173;12161,741;43,14200
 490,40; 5202,711;  314,096;11526,192;43,60126
 490,98; 5065,979;  298,174;11308,263;43,30397
 491,57; 5073,269;  340,942;11203,911;43,56384
 492,15; 5022,164;  309,097;11135,984;43,53113
 492,74; 4921,297;  307,095;11077,048;42,84329
 493,32; 4925,849;  325,097;10976,864;43,19238
 493,91; 4859,518;  310,714;10834,780;43,22288
 494,50; 4863,449;  298,255;10840,332;43,30451
 495,08; 4818,473;  300,255;10785,164;43,09258
 495,67; 4826,147;  309,021;10786,502;43,11272
 496,25; 4753,640;  268,254;10615,216;43,34980
 496,84; 4749,109;  276,790;10577,609;43,41711
 497,42; 4672,331;  260,869;10584,471;42,73181
 498,01; 4675,272;  288,944;10561,658;42,69883
 498,59; 4611,394;  253,793;10434,210;42,80376
 499,18; 4605,323;  263,791;10398,051;42,84015
 499,76; 4589,868;  288,869;10342,133;42,78212
 500,35; 4482,608;  285,871;10129,230;42,63522
 500,93; 4413,553;  261,869;10119,745;42,11540
 501,52; 4420,551;  253,254;10037,370;42,59247
 502,10; 4397,328;  277,026;10058,292;42,12442
 502,69; 4319,733;  264,873; 9867,788;42,22530
 503,27; 4224,535;  246,717; 9738,365;41,90862
 503,86; 4211,557;  262,258; 9683,778;41,91786
 504,44; 4152,057;  239,797; 9545,710;42,04058
 505,03; 4013,072;  237,182; 9315,293;41,59334
 505,61; 3972,772;  246,643; 9187,757;41,67410
 506,19; 3917,015;  269,259; 9027,042;41,65159
 506,78; 3847,187;  232,415; 8888,742;41,75873
 507,36; 3774,911;  244,105; 8713,035;41,69129
 507,95; 3715,349;  242,108; 8589,276;41,60982
 508,53; 3646,713;  244,184; 8456,010;41,43450
 509,12; 3588,322;  255,415; 8346,177;41,19398
 509,70; 3542,525;  271,031; 8164,040;41,44799
 510,29; 3468,989;  265,109; 8054,871;41,12937
 510,87; 3398,761;  235,184; 7870,536;41,43328
 511,46; 3315,274;  239,954; 7731,482;41,05064
 512,04; 3257,611;  252,032; 7561,320;41,12001
 512,62; 3176,410;  255,184; 7416,354;40,79258
 513,21; 3114,614;  240,571; 7270,673;40,88195
 513,79; 3064,969;  235,805; 7148,133;40,92925
 514,38; 2985,925;  213,958; 7017,481;40,74311
 514,96; 2944,859;  262,881; 6925,351;40,25501
 515,54; 2874,834;  226,112; 6757,621;40,55299
 516,13; 2848,021;  249,805; 6727,193;40,11210
 516,71; 2805,253;  239,729; 6619,494;40,21345
 517,30; 2732,387;  237,884; 6475,415;39,99182
 517,88; 2720,484;  259,423; 6415,318;39,97893
 518,46; 2645,066;  239,192; 6278,555;39,83654
 519,05; 2618,997;  246,270; 6242,089;39,57303
 519,63; 2589,040;  253,731; 6210,271;39,20580
 520,22; 2576,543;  264,118; 6145,802;39,31570
 520,80; 2509,748;  241,657; 6089,502;38,78507
 521,38; 2521,956;  270,117; 6038,283;39,03909
 521,97; 2469,833;  249,504; 5990,268;38,67655
 522,55; 2457,020;  262,042; 6003,363;38,23122
 523,13; 2446,501;  218,197; 5979,922;38,67425
 523,72; 2438,932;  237,962; 5996,919;38,21821
 524,30; 2506,483;  265,121; 6118,603;38,29109
 524,89; 2470,807;  226,966; 6066,737;38,42345
 525,47; 2520,321;  259,737; 6228,831;37,87148
 526,05; 2503,215;  217,891; 6252,679;37,86917
 526,64; 2558,152;  249,507; 6357,749;37,79557
 527,22; 2599,863;  252,660; 6508,375;37,52093
 527,80; 2653,051;  280,045; 6594,363;37,58135
 528,39; 2631,870;  252,046; 6668,319;37,09044
 528,97; 2712,724;  249,430; 6866,475;37,22649
 529,55; 2757,915;  266,428; 7027,242;36,85188
 530,14; 2820,732;  272,739; 7183,548;36,86968
 530,72; 2808,783;  251,507; 7257,578;36,50085
 531,30; 2836,245;  230,431; 7432,633;36,18079
 531,89; 2894,600;  255,970; 7539,082;36,22943
 532,47; 2940,956;  291,740; 7590,484;36,29688
 533,05; 2955,915;  270,968; 7713,952;36,07352
 533,63; 2946,895;  290,048; 7722,775;35,74525
 534,22; 2917,401;  243,663; 7745,987;35,63880
 534,80; 2949,168;  284,664; 7824,512;35,33896
 535,38; 3052,263;  347,355; 7905,161;35,78960
 535,97; 2956,045;  261,817; 7892,984;35,30559
 536,55; 2990,234;  315,588; 7965,181;34,96455
 537,13; 2972,298;  321,585; 7858,632;35,16911
 537,71; 3004,785;  353,893; 7955,855;34,87116
 538,30; 2984,618;  377,817; 8017,895;34,12008
 538,88; 3040,113;  420,820; 8103,024;34,09559
 539,46; 3088,354;  478,126; 8345,762;33,17678
 540,05; 3130,940;  488,358; 8432,250;33,26558
 540,63; 3187,505;  537,896; 8601,642;32,85829
 541,21; 3234,549;  572,589; 8769,894;32,47360
 541,79; 3285,750;  606,359; 8848,188;32,50967
 542,38; 3315,120;  642,127; 9037,319;31,83957
 542,96; 3370,301;  653,206; 9214,436;31,73720
 543,54; 3426,897;  677,666; 9375,238;31,60918
 544,12; 3437,212;  649,590; 9532,588;31,38155
 544,70; 3453,248;  631,745; 9606,284;31,43898
 545,29; 3477,886;  626,434; 9729,236;31,32499
 545,87; 3483,673;  614,743; 9737,035;31,44966
 546,45; 3471,909;  569,973; 9822,068;31,36518
 547,03; 3473,222;  541,512; 9883,120;31,38336
 547,62; 3493,910;  494,205; 9992,292;31,58220
 548,20; 3506,880;  507,052;10146,627;31,11992
 548,78; 3551,950;  466,209;10274,288;31,46122
 549,36; 3594,535;  430,978;10394,721;31,75069
 549,94; 3586,473;  389,205;10572,924;31,39588
 550,53; 3653,992;  389,977;10738,146;31,54196
 551,11; 3636,381;  374,132;10949,838;30,84663
 551,69; 3688,340;  366,670;11268,515;30,46888
 552,27; 3768,520;  327,669;11472,391;30,87427
 552,85; 3869,860;  338,748;11863,966;30,63814
 553,44; 3912,343;  334,054;12133,291;30,32644
 554,02; 4003,424;  345,901;12468,942;30,17001
 554,60; 4029,494;  289,594;12718,570;30,09017
 555,18; 4152,198;  322,285;13074,631;30,03300
 555,76; 4237,285;  309,286;13447,218;29,89815
 556,34; 4309,003;  309,057;13842,074;29,55694
 556,93; 4406,423;  300,439;14178,466;29,58622
 557,51; 4489,399;  274,134;14476,498;29,68003
 558,09; 4581,840;  310,670;14837,023;29,40291
 558,67; 4669,396;  301,058;15198,301;29,32313
 559,25; 4689,164;  305,057;15449,809;28,94803
 559,83; 4805,910;  289,443;15778,647;29,15881
 560,41; 4854,623;  293,672;16128,609;28,80309
 561,00; 4932,503;  293,750;16426,544;28,75356
 561,58; 4959,936;  298,749;16679,390;28,45547
 562,16; 5015,425;  285,440;16973,896;28,34286
 562,74; 5085,622;  276,209;17314,693;28,22677
 563,32; 5175,620;  272,135;17738,159;28,07442
 563,90; 5279,180;  287,673;18093,499;28,03300
 564,48; 5353,474;  305,518;18457,836;27,80888
 565,06; 5495,452;  287,288;19075,613;27,72021
 565,65; 5657,449;  289,445;19656,717;27,71689
 566,23; 5827,009;  336,981;20425,448;27,32925
 566,81; 5970,335;  276,288;21002,398;27,47282
 567,39; 6171,091;  292,290;21894,362;27,21406
 567,97; 6311,013;  312,288;22508,907;27,02540
 568,55; 6548,194;  322,828;23293,877;27,10092
 569,13; 6665,251;  296,443;24016,949;26,84938
 569,71; 6858,904;  291,286;24939,408;26,64551
 570,29; 7093,426;  325,978;25746,318;26,62218
 570,87; 7281,350;  322,286;26569,040;26,51400
 571,45; 7388,277;  309,596;27135,710;26,38728
 572,03; 7459,921;  272,059;27443,018;26,45421
 572,61; 7597,196;  275,904;28328,806;26,09816
 573,20; 7770,826;  300,518;28878,165;26,14039
 573,78; 7878,404;  302,443;29474,820;25,96964
 574,36; 7979,394;  303,520;29950,156;25,89121
 574,94; 8024,134;  369,367;30213,213;25,64940
 575,52; 8031,510;  320,369;30537,736;25,51890
 576,10; 8188,596;  361,907;30981,499;25,56105
 576,68; 8272,415;  355,059;31623,345;25,32072
 577,26; 8401,021;  373,985;32256,769;25,17671
 577,84; 8489,817;  379,827;32712,202;25,08319
 578,42; 8541,399;  407,829;33020,570;24,93985
 579,00; 8506,419;  376,135;33029,095;24,89907
 579,58; 8549,439;  404,752;33254,515;24,79375
 580,16; 8420,953;  377,830;33335,092;24,40471
 580,74; 8452,084;  382,907;33507,337;24,36020
 581,32; 8359,996;  376,137;33540,043;24,07394
 581,90; 8368,187;  398,060;33576,483;24,02202
 582,48; 8345,276;  395,522;33604,522;23,93855
 583,06; 8295,851;  396,906;33768,984;23,66932
 583,64; 8303,797;  384,983;33800,585;23,69796
 584,22; 8199,644;  403,600;33708,849;23,40785
 584,80; 8097,873;  414,291;33481,302;23,23640
 585,38; 7982,869;  422,749;33106,746;23,13095
 585,96; 7945,742;  386,982;33164,848;23,06056
 586,54; 7899,939;  402,754;33248,641;22,82534
 587,12; 7859,129;  385,215;33360,103;22,66547
 587,70; 7877,257;  410,136;33465,708;22,58960
 588,28; 7826,454;  390,753;33453,692;22,48954
 588,86; 7814,387;  386,600;33685,663;22,30630
 589,44; 7739,419;  372,678;33715,469;22,09395
 590,02; 7734,001;  376,601;33922,343;21,93244
 590,59; 7724,249;  361,061;34107,262;21,81931
 591,17; 7747,528;  357,757;34262,814;21,79548
 591,75; 7670,809;  356,064;34345,136;21,52087
 592,33; 7733,485;  368,679;34627,138;21,49777
 592,91; 7704,216;  305,603;34796,008;21,45122
 593,49; 7737,473;  330,066;35057,440;21,33017
 594,07; 7742,399;  350,527;35296,446;21,15232
 594,65; 7701,421;  346,292;35351,482;21,01154
 595,23; 7768,436;  342,062;35692,797;21,00769
 595,81; 7732,271;  329,909;35827,020;20,85342
 596,39; 7708,295;  322,063;35958,252;20,72677
 596,97; 7686,879;  327,680;36203,457;20,51300
 597,55; 7655,257;  322,524;36069,089;20,51311
 598,12; 7649,001;  312,604;36040,277;20,53421
 598,70; 7581,090;  309,296;36141,723;20,29389
 599,28; 7599,750;  336,065;36318,165;20,18694
 599,86; 7535,788;  310,526;36300,350;20,07585
 600,44; 7500,837;  292,912;36473,906;19,92186
 601,02; 7525,266;  335,145;36531,305;19,86432
 601,60; 7446,576;  307,449;36567,438;19,68872
 602,18; 7421,362;  293,681;36546,584;19,66099
 602,75; 7393,218;  294,063;36644,544;19,52974
 603,33; 7384,010;  306,527;36620,332;19,48979
 603,91; 7323,051;  293,298;36534,464;19,39715
 604,49; 7278,759;  311,219;36607,045;19,19653
 605,07; 7244,981;  320,756;36635,880;19,06705
 605,65; 7230,456;  336,681;36841,312;18,88466
 606,23; 7219,769;  400,984;36980,119;18,64119
 606,80; 7222,726;  453,755;36928,531;18,55795
 607,38; 7185,775;  481,220;37050,467;18,33386
 607,96; 7149,883;  541,601;37115,845;18,06813
 608,54; 7131,349;  612,989;37133,760;17,84837
 609,12; 7079,386;  597,371;37147,512;17,73458
 609,70; 7052,208;  649,680;37186,760;17,52337
 610,27; 7047,232;  655,293;37300,266;17,44288
 610,85; 7027,444;  680,295;37345,002;17,31133
 611,43; 6987,383;  661,680;37253,447;17,28723
 612,01; 6878,915;  626,679;37029,980;17,17491
 612,59; 6850,962;  625,065;37102,484;17,06781
 613,16; 6757,981;  599,523;37003,631;16,91693
 613,74; 6721,824;  567,911;36974,544;16,90327
 614,32; 6708,468;  537,450;36891,889;16,97459
 614,90; 6673,931;  471,295;36804,363;17,07160
 615,48; 6529,426;  420,062;36445,288;16,95857
 616,05; 6495,963;  403,446;36359,949;16,94413
 616,63; 6439,346;  405,676;36269,534;16,82382
 617,21; 6403,832;  403,216;36128,836;16,79639
 617,79; 6369,201;  376,755;36001,585;16,82098
 618,36; 6323,413;  389,141;36018,713;16,65547
 618,94; 6192,524;  325,524;35685,821;16,59205
 619,52; 6171,349;  356,446;35429,786;16,57927
 620,10; 6086,999;  344,294;35357,121;16,40172
 620,67; 6069,775;  349,138;35291,669;16,37156
 621,25; 6022,407;  362,679;35085,009;16,29997
 621,83; 5998,923;  345,293;35076,558;16,27822
 622,41; 5994,160;  385,985;35138,801;16,13732
 622,98; 5931,579;  361,446;34882,002;16,13570
 623,56; 5888,700;  347,753;34793,583;16,08597
 624,14; 5855,470;  333,141;34719,994;16,05942
 624,72; 5826,172;  336,831;34620,071;16,01173
 625,29; 5813,514;  324,984;34556,641;16,03349
 625,87; 5811,923;  364,525;34676,983;15,87586
 626,45; 5697,332;  316,830;34505,849;15,73752
 627,02; 5706,423;  320,294;34437,260;15,78724
 627,60; 5653,301;  312,142;34320,989;15,70520
 628,18; 5603,232;  300,063;34500,281;15,50624
 628,76; 5618,018;  296,061;34362,708;15,62219
 629,33; 5612,410;  328,754;34528,766;15,44928
 629,91; 5624,460;  325,832;34417,275;15,54240
 630,49; 5613,735;  337,523;34500,571;15,44421
 631,06; 5603,317;  313,677;34631,537;15,41367
 631,64; 5573,540;  321,599;34650,864;15,29873
 632,22; 5516,549;  288,829;34586,626;15,24215
 632,79; 5623,671;  306,598;34849,684;15,39258
 633,37; 5577,696;  290,448;34944,712;15,25714
 633,95; 5578,536;  303,522;34924,842;15,23632
 634,52; 5564,790;  286,755;35030,846;15,19117
 635,10; 5601,655;  296,601;35092,620;15,24615
 635,68; 5573,334;  294,367;35219,210;15,11522
 636,25; 5576,440;  281,136;35221,860;15,15511
 636,83; 5579,248;  267,676;35391,785;15,12230
 637,41; 5572,812;  263,290;35481,014;15,07628
 637,98; 5593,711;  300,213;35621,936;14,98652
 638,56; 5571,368;  285,751;35678,857;14,93403
 639,13; 5564,831;  281,138;35691,751;14,92121
 639,71; 5635,776;  318,754;35930,146;14,93068
 640,29; 5515,940;  255,677;35765,254;14,81365
 640,86; 5562,564;  264,369;35942,439;14,85001
 641,44; 5530,266;  273,831;35871,393;14,76628
 642,02; 5519,506;  298,523;35902,501;14,66404
 642,59; 5526,592;  263,677;36033,685;14,71321
 643,17; 5525,448;  261,677;35991,332;14,73222
 643,74; 5558,534;  274,677;36056,286;14,76696
 644,32; 5522,697;  292,446;36035,470;14,63293
 644,89; 5526,091;  294,446;36045,963;14,63335
 645,47; 5544,870;  308,062;36104,686;14,62933
 646,05; 5508,956;  285,677;35986,563;14,63067
 646,62; 5522,811;  284,908;35945,132;14,68836
 647,20; 5510,359;  291,139;36124,778;14,56514
 647,77; 5469,830;  254,062;36026,963;14,58022
 648,35; 5480,609;  245,678;35886,763;14,68791
 648,92; 5497,772;  291,216;35945,563;14,60286
 649,50; 5438,320;  246,832;35814,671;14,59602
 650,08; 5393,406;  254,832;35770,240;14,46858
 650,65; 5456,338;  262,216;35977,117;14,54329
 651,23; 5550,809;  240,293;36800,687;14,52532
 651,80; 5671,203;  244,986;37613,794;14,52071
 652,38; 5713,905;  268,140;37991,210;14,43617
 652,95; 5797,452;  232,755;38391,241;14,58312
 653,53; 5805,615;  271,447;38585,579;14,44420
 654,10; 5914,702;  299,447;38673,302;14,63302
 654,68; 5820,865;  250,294;38691,179;14,49127
 655,25; 5838,797;  254,140;38670,364;14,53724
 655,83; 5814,345;  239,909;38781,164;14,46356
 656,40; 5870,739;  279,755;38703,733;14,55077
 656,98; 5837,594;  254,371;38699,841;14,52245
 657,55; 5803,296;  257,294;38608,487;14,46109
 658,13; 5743,075;  255,602;38136,672;14,48606
 658,70; 5679,392;  267,140;37934,088;14,36870
 659,28; 5618,401;  258,986;37129,349;14,53583
 659,85; 5484,949;  263,448;36325,765;14,47911
 660,43; 5474,727;  272,448;36335,565;14,42548
 661,00; 5463,121;  259,448;36458,288;14,37525
 661,58; 5513,900;  251,371;36802,780;14,39761
 662,15; 5552,909;  250,987;37033,811;14,41413
 662,73; 5656,534;  309,833;37229,842;14,48185
 663,30; 5633,312;  250,448;37468,334;14,46311
 663,88; 5666,552;  265,987;37602,750;14,46447
 664,45; 5689,331;  250,372;37833,935;14,47164
 665,03; 5781,033;  256,449;38173,504;14,57018
 665,60; 5861,426;  330,987;38616,535;14,44524
 666,17; 5836,667;  265,756;38724,489;14,48542
 666,75; 5878,368;  255,526;38961,366;14,52712
 667,32; 5977,685;  274,372;39365,320;14,58986
 667,90; 5995,541;  261,526;39620,735;14,56842
 668,47; 6037,011;  278,834;39864,074;14,54628
 669,05; 6088,559;  251,987;40201,797;14,60976
 669,62; 6066,338;  236,757;40350,674;14,53257
 670,19; 6065,039;  232,218;40365,551;14,53361
 670,77; 6173,433;  254,526;40528,043;14,69677
 671,34; 6174,981;  243,142;40494,074;14,73715
 671,92; 6210,067;  241,142;40791,105;14,71993
 672,49; 6172,000;  266,219;40704,213;14,60454
 673,06; 6208,932;  224,757;40877,166;14,72035
 673,64; 6191,788;  238,373;40717,043;14,70754
 674,21; 6220,720;  237,219;40700,920;14,78733
 674,79; 6270,037;  261,373;40994,721;14,75122
 675,36; 6264,585;  263,219;41119,521;14,68896
 675,93; 6258,209;  246,065;40984,090;14,75807
 676,51; 6309,911;  255,681;41152,659;14,80361
 677,08; 6299,920;  256,142;41186,690;14,76594
 677,65; 6364,468;  259,142;41321,106;14,86857
 678,23; 6383,862;  257,835;41490,444;14,85724
 678,80; 6401,641;  240,835;41631,167;14,88465
 679,38; 6429,727;  237,296;41794,583;14,90095
 679,95; 6451,813;  254,681;42035,152;14,83260
 680,52; 6460,207;  243,989;42287,491;14,78521
 681,10; 6582,986;  270,758;42634,983;14,89990
 681,67; 6654,380;  253,066;42966,398;14,98669
 682,24; 6629,620;  235,912;42974,583;14,96001
 682,82; 6687,860;  244,220;43463,614;14,90914
 683,39; 6796,177;  287,989;43858,952;14,93698
 683,96; 6816,186;  260,758;44134,214;14,94167
 684,54; 6855,426;  232,066;44408,014;14,99314
 685,11; 6971,051;  275,143;44776,584;15,04650
 685,68; 6994,214;  251,682;45228,691;14,99106
 686,25; 7007,300;  235,451;45230,261;15,05029
 686,83; 6980,848;  242,759;45347,138;14,93888
 687,40; 7079,011;  227,143;45852,707;15,01761
 687,97; 7141,867;  275,220;46111,276;14,98088
 688,55; 7133,261;  227,682;46014,692;15,08196
 689,12; 7152,654;  228,682;46371,107;15,00565
 689,69; 7176,202;  238,528;46450,600;15,01269
 690,26; 7203,212;  247,451;46530,246;15,02883
 690,84; 7261,759;  238,836;46740,354;15,10257
 691,41; 7259,615;  259,836;46845,923;15,02547
 691,98; 7309,855;  249,144;47159,646;15,05145
 692,56; 7287,403;  228,452;47242,677;15,01450
 693,13; 7386,874;  297,221;47245,631;15,10094
 693,70; 7381,652;  268,298;47417,815;15,08680
 694,27; 7383,354;  244,298;47459,539;15,12024
 694,84; 7372,132;  238,913;47569,646;15,07101
 695,42; 7440,757;  283,990;47728,062;15,08464
 695,99; 7449,459;  246,683;47899,477;15,11512
 696,56; 7452,929;  241,837;47809,585;15,15963
 697,13; 7543,708;  253,298;48121,077;15,23031
 697,71; 7536,948;  230,452;48189,185;15,23496
 698,28; 7596,803;  249,760;48434,755;15,24758
 698,85; 7630,120;  224,837;48478,324;15,34663
 699,42; 7625,361;  220,914;48608,124;15,30249
 699,99; 7688,293;  265,837;48730,309;15,31525
 700,57; 7717,379;  247,529;48793,878;15,38705
 701,14; 7690,850;  234,991;48957,755;15,30262
 701,71; 7803,090;  263,299;49229,478;15,39796
 702,28; 7771,407;  250,914;49223,278;15,35661
 702,85; 7805,570;  266,914;49325,924;15,36651
 703,43; 7924,349;  266,991;49478,186;15,56019
 704,00; 7940,127;  287,376;49701,755;15,48689
 704,57; 7985,444;  262,684;49634,094;15,64217
 705,14; 8024,531;  287,222;49998,355;15,56454
 705,71; 8027,463;  292,991;49959,540;15,57280
 706,28; 8006,857;  266,607;49877,340;15,60197
 706,86; 8091,712;  298,838;50117,986;15,64233
 707,43; 8062,183;  314,222;50071,248;15,57159
 708,00; 8046,577;  294,222;50116,202;15,56011
 708,57; 8083,971;  260,146;49967,233;15,73986
 709,14; 8052,134;  284,684;50087,187;15,59651
 709,71; 8118,067;  276,915;50163,295;15,71802
 710,28; 8146,538;  269,069;50478,710;15,68916
 710,86; 8187,624;  282,607;50616,125;15,70527
 711,43; 8218,556;  290,838;50647,695;15,74308
 712,00; 8261,565;  266,531;50672,110;15,86141
 712,57; 8271,190;  279,838;50829,449;15,80893
 713,14; 8289,353;  259,531;50931,557;15,84666
 713,71; 8324,286;  275,223;50797,895;15,93159
 714,28; 8339,987;  272,146;50888,618;15,93916
 714,85; 8353,151;  262,685;50582,803;16,07799
 715,42; 8417,621;  263,992;50759,065;16,14738
 716,00; 8495,785;  310,992;50835,095;16,19978
 716,57; 8446,871;  259,146;51087,126;16,10870
 717,14; 8462,111;  248,608;50968,772;16,19376
 717,71; 8503,736;  240,147;50982,419;16,28541
 718,28; 8563,745;  276,762;51066,142;16,31637
 718,85; 8532,831;  245,839;51150,173;16,27954
 719,42; 8612,994;  262,147;51220,665;16,38754
 719,99; 8634,927;  246,839;51029,004;16,51778
 720,56; 8688,782;  263,224;51274,881;16,51693
 721,13; 8712,791;  241,993;51460,911;16,53842
 721,70; 8672,108;  237,455;51378,942;16,49278
 722,27; 8741,887;  273,378;51411,589;16,56004
 722,84; 8826,127;  301,455;51593,619;16,61983
 723,41; 8775,290;  241,070;51451,035;16,66516
 723,98; 8849,453;  259,378;51750,604;16,68260
 724,55; 8928,232;  279,993;51796,943;16,78717
 725,12; 8899,472;  218,070;51651,589;16,87888
 725,69; 9046,020;  250,917;51876,235;17,03641
 726,27; 9051,260;  261,686;51919,497;17,01500
 726,84; 9132,346;  259,609;52233,605;17,07149
 727,41; 9168,971;  265,840;52331,328;17,09987
 727,98; 9240,288;  264,686;52555,205;17,16487
 728,55; 9283,451;  296,917;52463,697;17,22655
 729,12; 9285,768;  246,840;52541,343;17,28466
 729,69; 9344,008;  275,609;52837,451;17,25282
 730,26; 9414,171;  283,379;52959,790;17,33374
 730,82; 9444,411;  262,763;52758,974;17,49012
 731,39; 9452,959;  257,148;52955,005;17,45007
 731,96; 9551,430;  235,610;53267,959;17,56630
 732,53; 9637,747;  265,994;53403,913;17,63666
 733,10; 9728,449;  268,225;53548,021;17,75574
 733,67; 9829,150;  274,379;53826,129;17,84213
 734,24; 9783,083;  255,764;53472,390;17,90290
 734,81; 9819,246;  277,918;53489,267;17,93100
 735,38; 9864,486;  263,225;53211,067;18,13343
 735,95; 9840,110;  265,533;53159,021;18,10162
 736,52; 9863,351;  276,533;53224,360;18,10616
 737,09; 9859,821;  276,456;52940,006;18,19734
 737,66;10013,831;  309,995;53113,498;18,37726
 738,23;10011,532;  250,226;53280,529;18,40704
 738,80;10162,849;  320,226;53503,252;18,50708
 739,37;10160,166;  291,610;53579,899;18,51918
 739,94;10200,945;  275,764;53700,006;18,57805
 740,51;10348,800;  361,380;53777,037;18,69755
 741,07;10298,964;  261,995;53699,068;18,78278
 741,64;10337,665;  300,149;53977,560;18,69970
 742,21;10379,136;  277,149;53957,437;18,81880
 742,78;10417,915;  236,688;53762,930;19,02100
 743,35;10491,770;  264,918;53988,730;19,03598
 743,92;10690,779;  291,303;54009,222;19,35942
 744,49;10696,096;  291,842;54095,330;19,33751
 745,06;10666,106;  255,765;54010,976;19,36620
 745,63;10684,807;  252,996;53956,392;19,42486
 746,19;10774,047;  257,303;54033,038;19,55667
 746,76;10816,057;  269,227;54104,684;19,59086
 747,33;10848,374;  263,611;54032,330;19,68573
 747,90;10907,768;  288,150;54195,515;19,69975
 748,47;10950,315;  265,227;54112,854;19,84319
 749,04;11044,094;  267,150;54050,192;20,03781
 749,61;11044,642;  297,150;54039,685;19,99811
 750,17;11110,343;  286,073;54174,408;20,08648
 750,74;11151,506;  275,612;54227,900;20,15836
 751,31;11151,977;  254,766;53959,239;20,29107
 751,88;11172,141;  239,073;53816,193;20,40622
 752,45;11333,765;  263,304;54025,685;20,59146
 753,02;11324,698;  278,304;53907,485;20,59773
 753,58;11322,553;  255,997;53784,824;20,67401
 754,15;11428,870;  264,304;53908,547;20,81223
 754,72;11390,110;  263,381;53687,347;20,82722
 755,29;11394,196;  253,843;53517,839;20,91535
 755,86;11513,129;  268,228;53714,793;21,03952
 756,42;11574,907;  280,074;53615,824;21,17685
 756,99;11567,378;  233,689;53605,316;21,23542
 757,56;11624,695;  251,074;53438,040;21,38423
 758,13;11603,089;  202,843;53342,455;21,45339
 758,70;11777,868;  238,612;53485,871;21,67108
 759,26;11806,877;  231,843;53543,363;21,71207
 759,83;11823,963;  242,690;53597,701;21,70607
 760,40;11893,896;  224,766;53439,425;21,92841
 760,97;11876,059;  222,074;53577,840;21,84203
 761,53;11856,376;  197,767;53155,179;22,01507
 762,10;11915,000;  200,459;53100,517;22,14467
 762,67;11946,856;  243,997;53066,471;22,15507
 763,24;11980,019;  194,074;52673,502;22,45822
 763,80;12052,644;  228,459;52864,840;22,46390
 764,37;12091,807;  230,459;52847,794;22,54266
 764,94;11998,355;  204,690;52333,133;22,62424
 765,50;12037,364;  220,229;52431,856;22,63315
 766,07;12211,450;  251,152;52474,810;22,90207
 766,64;12107,767;  233,690;52105,610;22,89115
 767,21;12134,161;  241,613;52041,333;22,95871
 767,77;12256,940;  257,152;51874,749;23,24747
 768,34;12275,488;  263,537;51923,164;23,25211
 768,91;12330,881;  258,921;51652,733;23,48913
 769,47;12396,891;  264,229;51713,995;23,58157
 770,04;12389,362;  261,383;51591,564;23,62738
 770,61;12364,679;  239,460;51321,364;23,73682
 771,18;12426,611;  230,845;51306,472;23,87786
 771,74;12550,082;  247,152;51408,272;24,04742
 772,31;12519,630;  260,537;51215,995;24,05845
 772,88;12489,639;  217,460;51015,796;24,15862
 773,44;12524,264;  234,306;50704,211;24,35106
 774,01;12613,119;  253,460;50873,011;24,41677
 774,58;12533,128;  227,614;50524,888;24,46557
 775,14;12652,599;  235,383;50646,534;24,63188
 775,71;12664,455;  236,537;50602,334;24,67531
 776,27;12726,541;  294,076;50495,673;24,76508
 776,84;12811,627;  314,076;50490,473;24,90723
 777,41;12819,867;  252,230;50294,273;25,11416
 777,97;12754,338;  234,768;50072,227;25,12080
 778,54;12811,194;  251,076;50143,104;25,17460
 779,11;12902,895;  275,845;50132,981;25,32646
 779,67;12928,520;  233,615;50049,627;25,48358
 780,24;12981,452;  248,538;49709,273;25,74348
 780,80;13039,000;  259,923;49830,381;25,77962
 781,37;13032,240;  255,692;49825,258;25,77499
 781,94;13033,250;  257,000;49628,289;25,87789
 782,50;13078,797;  265,769;49526,935;26,01040
 783,07;13151,576;  267,230;49610,043;26,11190
 783,63;13118,508;  243,154;49346,612;26,22087
 784,20;13150,671;  273,538;49235,874;26,30008
 784,77;13168,219;  254,692;49056,366;26,46124
 785,33;13207,921;  225,000;49013,166;26,61080
 785,90;13288,238;  248,000;48855,120;26,82783
 786,46;13314,247;  269,154;48795,228;26,88265
 787,03;13315,103;  239,462;48650,028;27,00989
 787,59;13350,650;  249,769;48497,059;27,15361
 788,16;13379,737;  263,616;48397,090;27,24948
 788,73;13442,054;  262,693;48264,352;27,45605
 789,29;13436,832;  241,693;47991,306;27,63402
 789,86;13452,841;  272,693;47967,567;27,63431
 790,42;13470,697;  256,462;47746,444;27,82531
 790,99;13403,783;  259,539;47483,552;27,83381
 791,55;13454,869;  257,847;47356,352;28,02005
 792,12;13450,571;  272,924;47388,844;27,96857
 792,68;13453,811;  254,155;47230,337;28,09861
 793,25;13430,051;  259,693;46912,445;28,23061
 793,81;13341,907;  309,847;46489,245;28,22051
 794,38;13318,685;  226,693;46236,122;28,45502
 794,94;13329,694;  247,001;46233,306;28,44911
 795,51;13345,627;  272,540;46008,106;28,58407
 796,07;13248,559;  265,616;45694,522;28,57859
 796,64;13430,492;  262,001;45837,553;28,89376
 797,20;13281,347;  262,617;45321,814;28,89250
 797,77;13196,972;  221,309;45021,230;28,96358
 798,33;13210,597;  252,386;44822,030;29,07407
 798,90;13303,914;  272,540;44715,291;29,32171
 799,46;13210,231;  251,771;44308,938;29,41283
 800,03;13230,778;  264,155;44235,661;29,48869
 800,59;13168,711;  265,155;44109,076;29,43066
 801,15;13238,258;  278,232;43747,799;29,81402
 801,72;13175,114;  266,463;43511,369;29,85011
 802,28;13221,354;  286,694;43292,015;30,07688
 802,85;13171,748;  266,310;43099,123;30,12979
 803,41;13128,603;  250,079;42940,307;30,16738
 803,98;13139,767;  256,925;42430,954;30,54686
 804,54;13091,391;  262,848;42266,677;30,54137
 805,11;13074,093;  262,541;42124,708;30,60413
 805,67;13048,410;  280,387;42014,277;30,59390
 806,23;12942,804;  257,002;41549,462;30,72184
 806,80;13019,505;  285,541;41500,339;30,89658
 807,36;13004,053;  286,310;41529,985;30,83562
 807,93;12955,139;  289,233;41223,016;30,94243
 808,49;12887,687;  247,618;40757,124;31,20272
 809,05;12836,081;  241,695;40697,693;31,13107
 809,62;12918,629;  280,310;40505,570;31,41886
 810,18;12940,331;  274,387;40620,831;31,39296
 810,74;12810,571;  243,541;40270,555;31,39637
 811,31;12808,811;  258,926;39953,201;31,61636
 811,87;12798,974;  258,695;39798,155;31,71586
 812,44;12918,906;  286,003;39928,339;31,86720
 813,00;12811,300;  219,157;39609,524;31,96757
 813,56;12900,771;  262,849;39650,555;32,08596
 814,13;12856,550;  252,080;39523,663;32,09565
 814,69;12882,636;  265,003;39435,924;32,21173
 815,25;12787,568;  235,695;38988,417;32,38966
 815,82;12820,578;  271,696;38942,601;32,45045
 816,38;12870,510;  290,003;38710,709;32,74408
 816,94;12767,058;  240,619;38478,048;32,75963
 817,51;12764,375;  237,311;38330,848;32,88501
 818,07;12742,538;  233,542;38000,802;33,12127
 818,63;12752,316;  247,927;37888,217;33,22076
 819,20;12783,480;  245,388;37838,710;33,35191
 819,76;12607,797;  236,465;37409,971;33,27997
 820,32;12662,575;  282,158;37334,387;33,41342
 820,89;12676,046;  272,773;37156,956;33,62762
 821,45;12615,517;  234,696;36860,448;33,80359
 822,01;12621,680;  277,619;36592,018;33,99219
 822,57;12567,689;  276,696;36485,125;33,94512
 823,14;12485,622;  237,619;36228,541;34,03081
 823,70;12439,554;  241,773;36000,649;34,11120
 824,26;12386,563;  234,850;35881,833;34,08904
 824,82;12413,727;  270,081;35724,403;34,25152
 825,39;12319,351;  251,850;35427,972;34,30594
 825,95;12371,053;  261,312;35480,618;34,38381
 826,51;12276,831;  258,620;35061,034;34,53270
 827,08;12323,225;  287,774;35137,295;34,53549
 827,64;12307,542;  281,235;34987,788;34,65140
 828,20;12219,782;  241,235;34619,126;34,84375
 828,76;12252,176;  271,082;34609,696;34,89103
 829,32;12276,032;  284,697;34482,034;35,06511
 829,89;12245,657;  239,851;34316,603;35,23166
 830,45;12237,974;  257,466;34267,634;35,22625
 831,01;12256,214;  253,236;34099,050;35,46370
 831,57;12216,608;  256,467;34030,081;35,41268
 832,14;12249,771;  254,851;34033,650;35,51020
 832,70;12187,472;  240,928;33800,758;35,59775
 833,26;12221,559;  217,928;33754,635;35,79251
 833,82;12176,029;  252,313;33616,204;35,73839
 834,38;12181,346;  237,544;33650,543;35,74598
 834,95;12175,048;  239,236;33518,112;35,86603
 835,51;12095,134;  211,313;33357,066;35,85322
 836,07;12226,990;  246,698;33520,635;36,00503
 836,63;12216,845;  264,390;33420,051;36,04952
 837,19;12179,085;  255,159;33199,928;36,19369
 837,75;12127,941;  213,544;32933,189;36,41359
 838,32;12225,335;  279,006;33077,682;36,42321
 838,88;12288,190;  259,852;33050,866;36,68181
 839,44;12261,507;  252,006;33047,666;36,61918
 840,00;12277,132;  251,083;32951,620;36,77630
 840,56;12167,680;  238,391;32616,036;36,84421
 841,12;12231,766;  233,391;32632,913;37,03257
 841,68;12120,160;  223,391;32391,328;36,98331
 842,25;12202,246;  232,545;32427,744;37,17853
 842,81;12099,332;  228,314;32220,621;37,10585
 843,37;12189,342;  218,775;32213,344;37,41437
 843,93;12104,505;  238,237;32166,375;37,16555
 844,49;12224,822;  251,776;32134,098;37,55387
 845,05;12168,062;  208,237;31930,667;37,70148
 845,61;12214,302;  261,391;32077,313;37,56896
 846,17;12147,234;  236,776;31936,036;37,57330
 846,73;12148,474;  235,468;31862,452;37,66722
 847,29;12060,945;  216,776;31612,560;37,72535
 847,86;12034,185;  232,776;31654,667;37,55792
 848,42;11981,887;  224,622;31431,237;37,67555
 848,98;12019,512;  243,699;31382,114;37,81764
 849,54;12048,367;  215,930;31349,606;38,00527
 850,10;12024,376;  251,545;31304,791;37,91176
 850,66;11978,155;  224,546;31162,129;37,99136
 851,22;11981,780;  226,161;31012,929;38,18400
 851,78;12057,251;  268,699;31106,422;38,22770
 852,34;11984,491;  244,007;30879,068;38,32368
 852,90;11949,500;  233,853;30702,253;38,45180
 853,46;11923,740;  227,161;30589,668;38,52310
 854,02;11925,980;  243,623;30587,468;38,49992
 854,58;11874,220;  244,854;30316,345;38,67240
 855,14;11883,306;  220,084;30263,530;38,82119
 855,70;11824,393;  202,238;30114,869;38,85367
 856,26;11890,017;  242,238;30010,207;39,12856
 856,82;11806,565;  232,623;29942,392;38,95669
 857,38;11772,190;  266,777;29836,038;38,91005
 857,94;11744,122;  234,008;29629,146;39,15652
 858,50;11667,132;  246,777;29607,946;38,89612
 859,06;11627,987;  236,546;29410,361;39,04680
 859,62;11648,304;  248,085;29409,008;39,09416
 860,18;11631,313;  238,239;29189,423;39,35271
 860,74;11563,861;  212,162;29036,915;39,38177
 861,30;11501,409;  213,008;28922,254;39,31974
 861,86;11618,034;  269,701;28999,593;39,50009
 862,42;11475,966;  237,162;28743,239;39,42599
 862,98;11549,591;  260,162;28761,500;39,61017
 863,54;11487,062;  241,239;28520,300;39,76731
 864,10;11547,532;  236,932;28588,101;39,89465
 864,66;11422,311;  215,239;28363,670;39,81420
 865,22;11422,551;  238,239;28203,855;39,99308
 865,78;11372,022;  235,470;28141,270;39,90766
 866,34;11391,416;  228,163;28057,301;40,11354
 866,90;11345,502;  245,547;27957,101;40,05533
 867,45;11311,357;  242,547;27757,132;40,22888
 868,01;11229,367;  239,470;27556,163;40,23143
 868,57;11193,145;  231,163;27363,501;40,40191
 869,13;11205,155;  222,471;27212,147;40,69217
 869,69;11124,856;  226,471;27172,563;40,44514
 870,25;11119,404;  217,701;27015,824;40,68084
 870,81;11165,490;  231,625;27081,009;40,72297
 871,37;11107,269;  242,009;26956,040;40,67248
 871,93;11097,278;  251,240;26773,379;40,89428
 872,49;11047,672;  260,933;26531,563;41,06007
 873,04;10893,297;  220,625;26358,748;40,83182
 873,60;10916,306;  219,933;26264,010;41,07027
 874,16;10931,085;  239,240;26176,733;41,22158
 874,72;10910,623;  228,933;26168,117;41,17975
 875,28;10939,931;  250,163;26000,733;41,51274
 875,84;10899,700;  230,240;25987,271;41,42348
 876,40;10912,700;  233,702;25977,579;41,48170
 876,95;10923,392;  251,163;25943,656;41,53832
 877,51;10919,085;  264,010;25877,656;41,59921
 878,07;10948,085;  271,856;25927,271;41,61394
 878,63;10999,469;  230,856;25864,194;42,01019
 879,19;10957,162;  253,240;25914,425;41,71250
 879,75;11034,931;  238,240;25953,348;41,98579
 880,30;11048,777;  240,317;25904,348;42,11521
 880,86;11118,931;  269,548;26079,271;42,03603
 881,42;11124,931;  216,779;26075,887;42,18302
 881,98;11191,854;  244,317;26144,963;42,26743
 882,54;11262,469;  220,471;26231,348;42,45146
 883,09;11330,854;  246,317;26360,963;42,44567
 883,65;11378,162;  224,548;26393,733;42,62117
 884,21;11535,623;  269,779;26645,810;42,71243
 884,77;11486,546;  224,317;26669,117;42,58769
 885,32;11650,392;  243,163;26823,271;42,91641
 885,88;11741,392;  266,625;27016,117;42,89714
 886,44;11797,469;  241,779;27082,348;43,05307
 887,00;11797,469;  255,779;27061,271;43,05718
 887,56;11824,623;  228,625;27290,271;42,85031
 888,11;11883,546;  225,702;27247,117;43,14298
 888,67;11971,931;  267,317;27369,579;43,18685
 889,23;12009,162;  240,471;27425,040;43,29180
 889,79;11950,469;  233,240;27282,040;43,31885
 890,34;11926,315;  239,933;27273,348;43,22940
 890,90;12082,238;  292,394;27396,810;43,49787
 891,46;12027,469;  224,240;27235,194;43,69793
 892,01;12057,315;  262,010;27282,502;43,65319
 892,57;12019,315;  271,087;27144,733;43,71654
 893,13;11941,623;  250,394;27068,963;43,59378
 893,69;11973,392;  234,625;26951,579;43,93752
 894,24;12003,238;  235,317;26883,502;44,16031
 894,80;11943,700;  245,779;26747,117;44,14087
 895,36;11921,469;  242,548;26590,579;44,32559
 895,91;11831,854;  233,856;26489,194;44,17387
 896,47;11857,469;  251,702;26326,425;44,50965
 897,03;11773,854;  232,856;26157,656;44,51721
 897,58;11741,315;  254,394;26075,656;44,48629
 898,14;11728,700;  250,317;25913,040;44,72784
 898,70;11677,085;  214,625;25698,271;44,97967
 899,25;11686,162;  238,548;25740,117;44,88984
 899,81;11657,700;  251,933;25551,810;45,08230
 900,37;11544,546;  218,625;25411,194;44,95739
 900,92;11565,546;  241,625;25430,887;44,95535
 901,48;11552,854;  234,394;25193,502;45,34801
 902,03;11495,238;  236,702;25072,425;45,33203
 902,59;11501,931;  239,779;24977,425;45,52637
 903,15;11506,008;  257,240;24842,194;45,75468
 903,70;11349,008;  246,779;24638,348;45,51666
 904,26;11373,777;  225,240;24525,117;45,87898
 904,82;11380,008;  230,163;24430,040;46,07397
 905,37;11393,238;  248,240;24383,425;46,17739
 905,93;11346,546;  228,087;24198,887;46,38335
 906,48;11369,469;  248,471;24148,887;46,53056
 907,04;11402,700;  262,087;24069,194;46,79533
 907,60;11335,315;  242,933;23863,271;46,96115
 908,15;11312,315;  226,471;23767,040;47,09251
 908,71;11271,008;  254,779;23777,579;46,83213
 909,26;11255,623;  232,240;23524,425;47,32653
 909,82;11160,546;  255,856;23558,271;46,79640
 910,37;11193,854;  281,163;23385,348;47,23253
 910,93;11084,315;  229,548;23196,579;47,26239
 911,48;11044,700;  223,625;23092,117;47,31871
 912,04;11021,623;  224,010;22961,502;47,48815
 912,60;11066,085;  245,471;23040,271;47,46966
 913,15;10956,315;  239,933;22832,271;47,43370
 913,71;10921,469;  224,856;22646,117;47,70746
 914,26;10945,623;  216,779;22565,810;48,00586
 914,82;10847,931;  250,087;22457,579;47,72193
 915,37;10857,777;  221,087;22481,117;47,78381
 915,93;10929,623;  287,087;22242,194;48,47408
 916,48;10816,315;  228,625;22159,502;48,27755
 917,04;10804,777;  247,163;22092,887;48,32806
 917,59;10810,854;  256,010;22017,348;48,50273
 918,15;10707,546;  206,010;21794,810;48,64345
 918,70;10649,623;  228,394;21782,656;48,34881
 919,26;10682,392;  237,779;21653,887;48,76990
 919,81;10606,777;  219,240;21495,425;48,82237
 920,37;10605,623;  228,856;21411,348;48,98747
 920,92;10580,623;  247,087;21405,887;48,83801
 921,48;10460,777;  213,394;21047,117;49,18652
 922,03;10503,162;  220,856;21107,502;49,22909
 922,59;10478,238;  228,317;20946,040;49,47417
 923,14;10470,546;  235,856;20873,963;49,59122
 923,69;10504,162;  251,087;20763,656;49,98435
 924,25;10469,008;  254,933;20707,194;49,94105
 924,80;10422,700;  235,548;20567,040;50,10528
 925,36;10381,162;  228,548;20503,656;50,07428
 925,91;10330,162;  231,702;20377,194;50,12764
 926,47;10313,392;  204,471;20324,579;50,24288
 927,02;10363,623;  276,702;20289,579;50,40215
 927,57;10276,777;  233,087;20066,963;50,63907
 928,13;10266,777;  220,702;20007,117;50,77259
 928,68;10275,931;  230,163;19941,425;50,96461
 929,24;10226,392;  203,087;19722,194;51,35125
 929,79;10189,700;  219,779;19652,502;51,30481
 930,34;10126,315;  230,856;19548,040;51,22620
 930,90;10154,238;  213,625;19480,040;51,59555
 931,45;10124,162;  237,087;19492,502;51,34698
 932,01;10138,162;  233,163;19371,963;51,75350
 932,56;10003,700;  246,087;19179,425;51,53668
 933,11;10040,854;  254,933;19098,425;51,93263
 933,67; 9943,085;  227,933;18951,963;51,88601
 934,22; 9931,085;  234,240;18965,656;51,76781
 934,77; 9935,777;  258,702;18836,271;52,09010
 935,33; 9871,777;  230,856;18641,887;52,36492
 935,88; 9822,854;  232,625;18650,117;52,07131
 936,43; 9830,777;  224,548;18470,810;52,64766
 936,99; 9763,085;  234,702;18419,040;52,39884
 937,54; 9719,162;  220,010;18225,656;52,75652
 938,09; 9729,469;  237,933;18269,194;52,63934
 938,65; 9672,546;  234,394;18199,656;52,53557
 939,20; 9617,238;  227,779;18103,579;52,52609
 939,75; 9648,777;  218,240;17957,271;53,16264
 940,31; 9579,238;  202,933;17923,733;52,91130
 940,86; 9603,700;  232,163;17809,963;53,31462
 941,41; 9634,392;  293,163;17808,271;53,33241
 941,96; 9533,392;  226,240;17668,271;53,36048
 942,52; 9517,008;  230,625;17565,963;53,56909
 943,07; 9480,315;  205,548;17440,887;53,81250
 943,62; 9494,315;  214,471;17351,656;54,15034
 944,18; 9449,546;  210,087;17283,271;54,11679
 944,73; 9442,700;  237,010;17179,194;54,33591
 945,28; 9343,623;  196,856;17038,656;54,30992
 945,83; 9433,854;  224,394;17029,963;54,80005
 946,39; 9413,854;  215,933;17007,887;54,77576
 946,94; 9400,623;  246,471;16895,502;54,98309
 947,49; 9373,931;  223,010;16792,656;55,22702
 948,04; 9406,546;  254,779;16805,348;55,29579
 948,59; 9372,392;  241,933;16731,425;55,37138
 949,15; 9333,315;  220,856;16591,579;55,66315
 949,70; 9316,469;  222,702;16480,425;55,93506
 950,25; 9337,162;  243,163;16409,733;56,25187
 950,80; 9251,162;  199,933;16345,040;56,06174
 951,36; 9275,008;  194,163;16234,502;56,61255
 951,91; 9292,700;  239,163;16263,887;56,49730
 952,46; 9230,700;  206,933;16077,271;56,85932
 953,01; 9258,469;  240,163;16074,963;56,95245
 953,56; 9157,469;  196,856;15870,502;57,16994
 954,11; 9243,854;  236,625;15920,194;57,43099
 954,67; 9150,238;  222,394;15847,348;57,13837
 955,22; 9070,085;  212,933;15738,117;57,05022
 955,77; 9144,469;  248,010;15700,117;57,57441
 956,32; 9043,315;  264,779;15594,810;57,26366
 956,87; 8975,008;  213,548;15416,887;57,62852
 957,42; 8994,392;  219,394;15405,887;57,78160
 957,98; 9004,623;  220,394;15304,963;58,23321
 958,53; 8986,392;  244,702;15264,810;58,19992
 959,08; 8911,008;  216,471;15164,810;58,16390
 959,63; 8867,623;  218,394;15105,887;58,09729
 960,18; 8874,392;  236,010;15002,963;58,49807
 960,73; 8858,238;  227,087;15025,579;58,32454
 961,28; 8837,392;  204,548;14850,579;58,94323
 961,83; 8847,623;  248,625;14847,656;58,90116
 962,39; 8771,238;  210,856;14684,733;59,14367
 962,94; 8778,931;  238,240;14644,040;59,28647
 963,49; 8695,931;  224,933;14529,117;59,22042
 964,04; 8698,469;  239,010;14469,502;59,44601
 964,59; 8697,854;  190,471;14412,348;59,81899
 965,14; 8680,700;  234,702;14368,117;59,75907
 965,69; 8650,931;  229,933;14263,194;60,00742
 966,24; 8601,623;  209,010;14167,810;60,12418
 966,79; 8554,546;  244,933;14090,810;60,01508
 967,34; 8524,469;  195,087;13945,733;60,57448
 967,89; 8532,623;  223,933;13893,733;60,78136
 968,44; 8506,008;  232,471;13815,425;60,91117
 968,99; 8538,777;  231,625;13772,117;61,35044
 969,55; 8519,623;  235,471;13685,117;61,59383
 970,10; 8469,777;  226,317;13608,271;61,60132
 970,65; 8421,700;  258,010;13515,117;61,57972
 971,20; 8334,162;  218,856;13464,579;61,26737
 971,75; 8239,008;  220,702;13239,348;61,59093
 972,30; 8307,392;  226,933;13232,579;62,13040
 972,85; 8232,469;  216,548;13120,579;62,11951
 973,40; 8203,777;  209,163;12982,502;62,58828
 973,95; 8170,623;  238,702;12957,733;62,36262
 974,50; 8157,469;  251,087;12897,425;62,51915
 975,05; 8115,392;  230,548;12728,963;63,08675
 975,60; 8104,469;  237,933;12745,425;62,89459
 976,15; 8030,162;  222,548;12616,733;62,99417
 976,70; 8040,777;  233,240;12572,579;63,27354
 977,25; 7972,777;  237,394;12466,963;63,25147
 977,80; 7901,085;  217,317;12321,502;63,48026
 978,35; 7849,315;  234,471;12220,040;63,53344
 978,89; 7838,162;  213,394;12155,425;63,84816
 979,44; 7852,623;  228,779;12134,040;64,03760
 979,99; 7768,854;  217,625;11915,733;64,55086
 980,54; 7755,008;  253,625;11844,425;64,71842
 981,09; 7720,315;  247,856;11860,040;64,35016
 981,64; 7660,854;  232,548;11711,656;64,71153
 982,19; 7719,931;  263,010;11643,117;65,52593
 982,74; 7607,392;  241,548;11500,656;65,42121
 983,29; 7556,085;  218,548;11375,733;65,76513
 983,84; 7523,085;  239,394;11356,117;65,52012
 984,39; 7503,854;  294,856;11262,194;65,73152
 984,94; 7409,392;  209,779;11049,502;66,41880
 985,49; 7420,315;  253,471;11087,887;66,14888
 986,03; 7361,700;  254,010;11008,963;66,08760
 986,58; 7328,854;  274,010;10856,348;66,66621
 987,13; 7261,469;  235,163;10734,425;66,92190
 987,68; 7169,085;  242,702;10680,579;66,35816
 988,23; 7131,623;  242,163;10603,887;66,48952
 988,78; 7096,777;  231,702;10441,733;67,23853
 989,33; 7047,238;  253,087;10362,271;67,20771
 989,88; 7062,469;  250,087;10311,656;67,70696
 990,42; 6982,238;  226,702;10186,963;67,82489
 990,97; 6905,392;  229,779;10115,040;67,53097
 991,52; 6885,700;  252,163;10000,810;68,04572
 992,07; 6863,854;  270,471; 9886,271;68,56822
 992,62; 6799,623;  246,163; 9856,963;68,18849
 993,17; 6735,085;  243,010; 9701,810;68,63529
 993,71; 6690,931;  241,471; 9651,733;68,53645
 994,26; 6621,700;  232,087; 9479,579;69,09563
 994,81; 6596,008;  257,625; 9438,425;69,03955
 995,36; 6517,700;  233,317; 9288,040;69,40447
 995,91; 6453,315;  242,779; 9273,271;68,77296
 996,45; 6401,854;  231,856; 9155,656;69,14093
 997,00; 6331,931;  219,471; 9022,810;69,43343
 997,55; 6329,238;  242,163; 9020,502;69,34199
 998,10; 6237,238;  260,779; 8888,425;69,27103
 998,65; 6244,392;  233,548; 8830,348;69,91955
 999,19; 6163,469;  254,240; 8704,810;69,92699
 999,74; 6130,315;  277,548; 8626,656;70,10051
1000,29; 6068,008;  247,625; 8537,810;70,20812
1000,84; 5975,623;  232,933; 8390,810;70,39442
1001,38; 5963,238;  238,317; 8326,733;70,77927
1001,93; 5945,162;  259,702; 8267,271;71,00107
1002,48; 5819,315;  228,471; 8102,733;71,00151
1003,03; 5810,469;  241,548; 8090,733;70,94904
1003,57; 5724,162;  251,394; 7970,810;70,89614
1004,12; 5710,546;  261,394; 7947,271;70,89825
1004,67; 5647,008;  235,856; 7818,656;71,36087
1005,22; 5576,008;  226,471; 7679,733;71,77444
1005,76; 5490,162;  218,471; 7550,040;71,90398
1006,31; 5496,238;  264,010; 7519,963;72,10946
1006,86; 5351,546;  231,471; 7421,810;71,20770
1007,40; 5300,777;  216,394; 7259,810;72,18632
1007,95; 5267,162;  239,394; 7223,194;71,99186
1008,50; 5204,931;  240,163; 7064,117;72,75500
1009,04; 5124,700;  242,240; 6983,194;72,42980
1009,59; 5050,546;  240,240; 6841,040;72,87459
1010,14; 4980,777;  232,240; 6779,810;72,52366
1010,68; 4920,931;  238,625; 6652,117;73,00712
1011,23; 4861,931;  228,625; 6538,733;73,42673
1011,78; 4830,315;  256,548; 6507,579;73,16821
1012,32; 4747,008;  253,702; 6425,733;72,80109
1012,87; 4741,700;  259,856; 6388,425;73,13035
1013,42; 4673,700;  227,010; 6256,194;73,75277
1013,96; 4667,623;  256,625; 6258,040;73,49930
1014,51; 4627,700;  210,240; 6162,656;74,21289
1015,06; 4616,315;  214,702; 6187,656;73,69241
1015,60; 4697,777;  269,625; 6225,502;74,34929
1016,15; 4654,469;  228,856; 6175,579;74,42105
1016,69; 4703,315;  241,471; 6220,348;74,62680
1017,24; 4748,008;  215,163; 6187,656;75,89535
1017,79; 4776,700;  267,317; 6267,040;75,15985
1018,33; 4721,238;  228,856; 6238,040;74,75861
1018,88; 4814,469;  240,933; 6339,271;74,99644
1019,42; 4851,546;  231,856; 6320,810;75,87002
1019,97; 4841,392;  232,087; 6321,656;75,69182
1020,51; 4896,008;  250,471; 6375,963;75,83940
1021,06; 4900,085;  216,548; 6323,502;76,69186
1021,61; 4856,777;  199,856; 6306,579;76,25892
1022,15; 4869,854;  189,548; 6268,579;76,99099
1022,70; 4887,008;  234,933; 6261,194;77,19670
1023,24; 4831,854;  214,779; 6249,040;76,51433
1023,79; 4829,392;  233,010; 6178,963;77,30270
1024,33; 4782,085;  223,317; 6110,348;77,43746
1024,88; 4746,085;  246,548; 6042,887;77,62722
1025,42; 4663,546;  232,240; 5945,656;77,55966
1025,97; 4602,469;  222,240; 5867,348;77,59336
1026,51; 4502,008;  197,702; 5788,963;76,98273
1027,06; 4506,623;  214,702; 5714,963;78,03122
1027,60; 4404,777;  233,087; 5645,271;77,07960
1028,15; 4361,700;  239,625; 5542,271;77,73619
1028,69; 4253,931;  197,933; 5420,963;77,65602
1029,24; 4264,238;  226,702; 5382,271;78,31408
1029,78; 4162,238;  217,779; 5260,502;78,22083
1030,33; 4088,854;  204,394; 5155,502;78,45637
1030,87; 4061,238;  221,856; 5120,656;78,37394
1031,42; 4002,854;  203,240; 5044,194;78,48894
1031,96; 4007,085;  227,779; 4995,117;79,27496
1032,51; 3889,392;  215,779; 4894,810;78,51227
1033,05; 3891,162;  229,548; 4845,117;79,33179
1033,60; 3766,931;  193,394; 4753,656;78,36253
1034,14; 3748,315;  222,702; 4676,733;79,15557
1034,69; 3731,546;  221,240; 4599,194;80,18142
1035,23; 3634,008;  223,625; 4565,502;78,54628
1035,77; 3673,854;  226,471; 4503,271;80,60659
1036,32; 3585,546;  194,471; 4408,963;80,46224
1036,86; 3530,854;  224,010; 4393,040;79,31926
1037,41; 3516,931;  223,163; 4290,348;80,98396
1037,95; 3460,700;  197,933; 4207,271;81,37919
1038,50; 3434,700;  206,317; 4166,810;81,51468
1039,04; 3407,392;  229,933; 4143,887;81,18286
1039,58; 3312,162;  206,010; 4072,348;80,33833
1040,13; 3299,238;  226,163; 4017,271;81,06008
1040,67; 3321,931;  254,548; 3991,963;82,07230
1041,21; 3260,700;  251,240; 3921,271;82,00094
1041,76; 3184,854;  215,317; 3817,117;82,44590
1042,30; 3152,315;  218,087; 3786,348;82,23133
1042,85; 3126,854;  215,702; 3720,040;83,07280
1043,39; 3076,469;  207,240; 3680,579;82,60723
1043,93; 3063,931;  232,856; 3683,271;82,05027
1044,48; 3008,931;  230,933; 3588,887;82,72889
1045,02; 2952,777;  220,394; 3519,348;82,82573
1045,56; 2961,546;  237,548; 3511,271;83,20796
1046,11; 2892,315;  229,625; 3464,502;82,31195
1046,65; 2838,854;  234,240; 3390,963;82,51004
1047,19; 2825,700;  218,010; 3303,963;84,50192
1047,74; 2765,085;  204,010; 3279,271;83,27991
1048,28; 2753,546;  234,087; 3254,502;83,41434
1048,82; 2719,931;  249,702; 3219,040;83,19122
1049,37; 2672,162;  232,010; 3171,194;83,02139
1049,91; 2645,623;  221,240; 3126,117;83,45905
1050,45; 2618,623;  241,471; 3095,425;83,29329
1050,99; 2557,238;  232,856; 3027,348;83,17728
1051,54; 2508,546;  220,317; 2989,040;82,64564
1052,08; 2534,085;  237,010; 2958,117;84,41691
1052,62; 2487,315;  239,163; 2924,656;83,71470
1053,16; 2429,162;  212,087; 2848,425;84,09675
1053,71; 2413,931;  236,779; 2870,425;82,66684
1054,25; 2390,238;  237,779; 2782,810;84,57499
1054,79; 2359,238;  239,471; 2752,425;84,35361
1055,33; 2295,315;  207,856; 2678,348;84,49569
1055,88; 2312,238;  232,548; 2670,271;85,31282
1056,42; 2299,931;  248,240; 2650,040;85,42303
1056,96; 2265,700;  247,240; 2617,194;85,16873
1057,50; 2217,315;  238,471; 2587,348;84,24640
1058,05; 2172,623;  232,779; 2525,579;84,60591
1058,59; 2181,469;  261,625; 2518,502;85,06641
1059,13; 2113,238;  206,240; 2434,810;85,57051
1059,67; 2090,162;  236,625; 2431,810;84,43648
1060,21; 2059,008;  221,933; 2362,117;85,83722
1060,76; 2047,623;  243,471; 2345,963;85,81016
1061,30; 2039,238;  251,317; 2325,425;86,20194
1061,84; 1981,623;  238,933; 2285,425;85,15499
1062,38; 1948,854;  221,240; 2225,733;86,18708
1062,92; 1990,469;  272,471; 2270,425;85,98788
1063,46; 1906,931;  245,010; 2183,963;85,71226
1064,01; 1870,392;  225,779; 2175,579;84,34780
1064,55; 1856,238;  242,856; 2135,425;85,24828
1065,09; 1803,854;  207,702; 2084,579;85,04297
1065,63; 1850,469;  270,163; 2099,502;86,38674
1066,17; 1824,931;  259,317; 2072,887;86,32775
1066,71; 1794,546;  253,471; 2052,271;85,67239
1067,25; 1741,238;  232,548; 1992,194;85,73828
1067,80; 1762,623;  256,856; 1990,040;86,87864
1068,34; 1754,854;  271,779; 2016,656;84,99597
1068,88; 1685,008;  233,625; 1913,887;86,37838
1069,42; 1716,315;  271,087; 1923,040;87,48603
1069,96; 1675,623;  237,856; 1875,194;87,81125
1070,50; 1689,777;  276,779; 1908,194;86,61179
1071,04; 1611,777;  233,240; 1836,810;85,96676
1071,58; 1618,623;  234,856; 1806,810;88,02849
1072,12; 1582,008;  239,163; 1795,579;86,27801
1072,66; 1610,085;  236,394; 1772,194;89,44461
1073,21; 1581,700;  259,856; 1773,887;87,30630
1073,75; 1562,469;  238,933; 1738,040;88,28829
1074,29; 1538,162;  237,087; 1717,733;87,87211
1074,83; 1536,777;  257,856; 1708,502;88,16217
1075,37; 1528,700;  246,471; 1675,117;89,75132
1075,91; 1501,238;  262,163; 1664,271;88,37231
1076,45; 1480,700;  250,933; 1651,271;87,81929
1076,99; 1460,162;  262,163; 1629,348;87,62519
1077,53; 1428,085;  238,471; 1599,887;87,38064
1078,07; 1432,700;  248,702; 1604,810;87,30856
1078,61; 1398,854;  241,856; 1568,733;87,19709
1079,15; 1373,700;  232,163; 1538,963;87,35358
1079,69; 1390,008;  242,240; 1508,194;90,66423
1080,23; 1383,546;  261,933; 1514,810;89,52304
1080,77; 1387,008;  285,317; 1531,040;88,43782
1081,31; 1334,162;  238,625; 1481,733;88,12885
1081,85; 1347,854;  248,625; 1469,733;90,01899
1082,39; 1300,623;  239,240; 1426,733;89,38017
1082,93; 1302,854;  247,163; 1425,887;89,56221
1083,47; 1261,315;  226,933; 1380,810;89,64411
1084,01; 1272,700;  252,317; 1416,733;87,63047
1084,55; 1252,162;  232,471; 1388,425;88,21203
1085,09; 1252,777;  251,702; 1367,810;89,69341
1085,63; 1240,469;  254,471; 1342,271;90,64149
1086,17; 1193,931;  238,010; 1296,579;90,30313
1086,71; 1192,469;  237,317; 1306,733;89,31533
1087,24; 1218,854;  264,394; 1315,810;90,77855
1087,78; 1191,238;  255,933; 1303,271;89,30311
1088,32; 1150,085;  232,548; 1254,271;89,80286
1088,86; 1178,238;  250,548; 1267,425;91,22937
1089,40; 1141,469;  240,240; 1244,348;89,75420
1089,94; 1113,085;  220,010; 1205,810;90,59393
1090,48; 1103,008;  247,933; 1202,733;89,55540
1091,02; 1123,008;  259,317; 1201,656;91,65395
1091,56; 1108,854;  249,317; 1192,117;91,16849
1092,10; 1046,546;  223,702; 1155,887;88,27052
1092,63; 1090,700;  262,779; 1177,579;90,50297
1093,17; 1062,777;  260,163; 1161,194;89,07725
1093,71; 1025,238;  251,087; 1131,502;87,93030
1094,25; 1046,546;  265,240; 1151,963;88,11159
1094,79; 1031,008;  236,625; 1110,733;90,87927
1095,33;  999,162;  243,163; 1102,117;88,01382
1095,87;  983,315;  240,856; 1083,810;88,07832
1096,40;  937,623;  230,163; 1064,194;84,82416
1096,94;  978,238;  248,087; 1069,579;88,88116
1097,48;  954,238;  243,471; 1063,040;86,72450
1098,02;  927,931;  243,779; 1040,887;85,82930
1098,56;  910,623;  212,471; 1004,733;88,12140
1099,10;  917,162;  215,087;  985,963;91,07485
1099,63;  912,854;  222,317;  992,963;89,60488
1100,17;  920,854;  252,702;  991,502;90,43746
1100,71;  924,315;  259,317;  991,733;90,79521

