
Integration time [ms]: 120,000
Averaging Nr. [scans]: 13
Smoothing Nr. [pixels]: 0
Data measured with spectrometer [name]: 2009305U1
Wave   ;Sample   ;Dark     ;Reference;Reflectance
[nm]   ;[counts] ;[counts] ;[counts] ;[%]

 175,72;  200,281;  202,886;  214,253;-22,91771
 176,32;  222,250;  236,502;  224,563; 0,00000
 176,92;  261,898;  261,810;  259,279; 0,00000
 177,52;  263,090;  256,040;  268,411;56,99196
 178,12;  229,537;  228,579;  233,833;18,23571
 178,72;  259,813;  258,810;  256,007; 0,00000
 179,32;  234,777;  260,733;  253,210; 0,00000
 179,92;  254,272;  251,194;  250,799; 0,00000
 180,52;  233,799;  248,194;  249,355;-1239,82625
 181,12;  259,821;  252,963;  254,248;533,97452
 181,73;  272,739;  279,733;  279,385; 0,00000
 182,33;  349,786;  348,886;  358,111; 9,75108
 182,93;  271,427;  273,348;  275,613;-84,81704
 183,53;  232,370;  241,425;  236,281; 0,00000
 184,13;  226,931;  249,502;  235,332; 0,00000
 184,73;  280,397;  275,272;  271,335; 0,00000
 185,33;  259,531;  236,428;  336,101;23,17848
 185,93;  277,811;  234,583;  359,342;34,64914
 186,53;  289,832;  252,198;  384,040;28,54514
 187,13;  313,900;  282,736;  409,296;24,62382
 187,73;  274,392;  254,890;  367,277;17,35224
 188,33;  269,706;  248,737;  369,705;17,33504
 188,93;  283,644;  255,430;  366,881;25,31511
 189,53;  286,325;  251,969;  374,863;27,95576
 190,13;  330,956;  287,585;  411,451;35,01412
 190,73;  262,330;  233,430;  364,758;22,00540
 191,34;  299,132;  259,584;  390,135;30,29338
 191,94;  273,528;  241,583;  374,569;24,02111
 192,54;  285,113;  259,889;  412,605;16,51640
 193,14;  298,646;  261,198;  394,187;28,15913
 193,74;  289,713;  260,890;  382,181;23,76375
 194,34;  295,789;  260,505;  382,000;29,04121
 194,94;  265,905;  222,505;  351,466;33,65378
 195,54;  237,575;  209,121;  329,710;23,59601
 196,14;  253,292;  234,043;  365,416;14,65191
 196,74;  249,432;  222,736;  356,742;19,92150
 197,34;  235,936;  205,659;  339,451;22,62989
 197,94;  265,280;  232,351;  378,492;22,53221
 198,54;  271,434;  243,428;  386,908;19,51880
 199,14;  251,611;  223,966;  379,479;17,77669
 199,74;  234,121;  205,351;  372,661;17,19579
 200,34;  231,306;  202,428;  400,858;14,55318
 200,94;  280,217;  238,736;  424,673;22,30938
 201,54;  268,626;  213,428;  425,103;26,07667
 202,14;  283,326;  244,043;  464,005;17,85920
 202,74;  278,834;  219,351;  461,776;24,53687
 203,34;  255,066;  193,735;  478,391;21,54555
 203,94;  231,260;  181,966;  496,607;15,66686
 204,54;  299,101;  242,813;  571,497;17,12531
 205,14;  267,830;  206,274;  583,049;16,33761
 205,74;  322,815;  248,274;  675,642;17,44200
 206,34;  292,420;  206,197;  683,700;18,05704
 206,94;  309,418;  217,274;  760,936;16,94873
 207,54;  279,441;  184,428;  772,738;16,15016
 208,14;  309,998;  217,735;  847,890;14,64125
 208,74;  330,466;  207,735;  933,625;16,90763
 209,34;  337,627;  205,043; 1021,039;16,24805
 209,94;  350,902;  228,043; 1123,399;13,72184
 210,54;  365,627;  209,735; 1225,007;15,35472
 211,14;  395,806;  215,351; 1308,727;16,50438
 211,73;  397,420;  223,120; 1428,637;14,45853
 212,33;  423,476;  230,889; 1519,106;14,94989
 212,93;  446,293;  212,505; 1626,646;16,53215
 213,53;  428,591;  188,966; 1698,269;15,87656
 214,13;  460,486;  201,043; 1758,559;16,65753
 214,73;  458,019;  185,428; 1791,774;16,96963
 215,33;  458,056;  188,658; 1829,553;16,41774
 215,93;  504,694;  204,120; 1943,802;17,27755
 216,53;  485,184;  174,428; 2018,775;16,84911
 217,13;  572,510;  215,427; 2222,682;17,78959
 217,73;  598,329;  204,351; 2416,551;17,80937
 218,33;  617,877;  151,427; 2607,742;18,98984
 218,93;  730,103;  195,196; 2888,264;19,86238
 219,53;  797,849;  206,120; 3172,770;19,94604
 220,13;  821,789;  173,427; 3452,633;19,77193
 220,73;  908,230;  194,274; 3805,609;19,76986
 221,32;  998,235;  200,428; 4215,010;19,87275
 221,92; 1109,478;  196,581; 4630,656;20,58823
 222,52; 1182,309;  174,274; 5017,128;20,81489
 223,12; 1279,146;  190,889; 5440,521;20,73016
 223,72; 1374,963;  204,581; 5856,549;20,70752
 224,32; 1439,210;  198,427; 6211,109;20,63609
 224,92; 1520,801;  192,120; 6488,018;21,10392
 225,52; 1615,774;  215,428; 6819,349;21,20477
 226,12; 1647,142;  202,658; 7124,839;20,86746
 226,72; 1690,422;  171,351; 7400,541;21,01302
 227,31; 1766,782;  160,274; 7750,450;21,16563
 227,91; 1850,443;  201,812; 8154,932;20,72936
 228,51; 1930,766;  182,120; 8521,044;20,96969
 229,11; 1999,597;  187,043; 8878,963;20,85332
 229,71; 2065,451;  175,120; 9158,296;21,04301
 230,31; 2123,126;  181,658; 9533,880;20,75943
 230,91; 2163,289;  174,813; 9847,932;20,55672
 231,51; 2235,382;  168,043;10155,152;20,70008
 232,10; 2285,209;  170,043;10488,064;20,49973
 232,70; 2373,404;  196,351;10637,077;20,85155
 233,30; 2371,549;  203,504;10982,179;20,11421
 233,90; 2382,064;  175,351;11123,242;20,15651
 234,50; 2377,832;  184,581;11182,491;19,94243
 235,10; 2387,570;  182,043;11331,633;19,78124
 235,70; 2361,844;  199,812;11398,781;19,30563
 236,29; 2365,127;  200,582;11347,754;19,41788
 236,89; 2292,085;  176,274;11296,000;19,02755
 237,49; 2268,514;  192,889;11256,101;18,76151
 238,09; 2184,881;  180,581;11083,700;18,38281
 238,69; 2145,802;  216,967;10925,828;18,01158
 239,29; 2047,332;  182,197;10627,175;17,85676
 239,89; 1961,956;  199,197;10325,321;17,40803
 240,48; 1855,242;  175,889;10003,455;17,08818
 241,08; 1754,547;  182,351; 9657,845;16,59224
 241,68; 1685,298;  216,735; 9405,264;15,98257
 242,28; 1572,262;  164,889; 9092,140;15,76491
 242,88; 1523,458;  217,120; 8844,048;15,14256
 243,48; 1474,697;  210,428; 8539,688;15,17865
 244,07; 1395,496;  198,197; 8305,456;14,76823
 244,67; 1354,941;  212,428; 8180,638;14,33839
 245,27; 1299,036;  207,582; 8020,637;13,96962
 245,87; 1281,601;  202,735; 7940,984;13,94199
 246,47; 1249,060;  195,120; 7905,266;13,66951
 247,06; 1230,551;  188,658; 7917,206;13,48109
 247,66; 1226,820;  182,658; 8001,876;13,35378
 248,26; 1264,674;  213,889; 8155,823;13,23084
 248,86; 1270,003;  196,274; 8323,092;13,21216
 249,46; 1268,795;  170,581; 8488,355;13,20322
 250,05; 1375,760;  208,505; 8889,937;13,44543
 250,65; 1403,409;  166,582; 9173,342;13,73221
 251,25; 1496,309;  189,658; 9635,681;13,83281
 251,85; 1603,227;  187,120;10180,646;14,17024
 252,44; 1713,673;  158,197;10737,534;14,70296
 253,04; 1883,538;  200,120;11459,686;14,95100
 253,64; 1967,002;  153,043;12098,464;15,18539
 254,24; 2217,251;  200,581;12955,909;15,81041
 254,84; 2380,642;  183,504;13809,432;16,12468
 255,43; 2591,397;  180,043;14792,636;16,50189
 256,03; 2794,070;  188,120;15635,471;16,86988
 256,63; 3044,446;  193,505;16648,755;17,32542
 257,23; 3235,016;  179,736;17466,164;17,67444
 257,82; 3507,536;  190,659;18317,750;18,29790
 258,42; 3687,535;  171,428;19093,814;18,58173
 259,02; 3987,785;  210,505;20034,920;19,05368
 259,62; 4172,865;  169,274;20667,680;19,53123
 260,21; 4374,300;  180,889;21124,964;20,02194
 260,81; 4569,737;  197,581;21563,090;20,46362
 261,41; 4769,549;  167,505;21953,623;21,12375
 262,01; 4973,215;  208,813;22371,429;21,49747
 262,60; 5088,862;  165,582;22700,703;21,84714
 263,20; 5252,514;  182,274;22984,717;22,23551
 263,80; 5419,693;  213,044;23145,817;22,70397
 264,40; 5501,073;  172,736;23239,186;23,09994
 264,99; 5667,241;  199,659;23434,194;23,53213
 265,59; 5711,496;  188,813;23637,145;23,55256
 266,19; 5859,742;  168,428;23854,922;24,02767
 266,78; 5970,119;  223,736;23827,111;24,34560
 267,38; 6015,628;  186,352;23809,664;24,67595
 267,98; 6105,600;  176,275;23888,705;25,00514
 268,58; 6167,758;  192,352;23919,496;25,18384
 269,17; 6221,388;  175,352;23946,242;25,43462
 269,77; 6263,958;  192,120;23651,977;25,88182
 270,37; 6217,334;  163,967;23594,736;25,83512
 270,96; 6248,524;  229,890;23477,474;25,88929
 271,56; 6197,114;  192,966;23174,664;26,12578
 272,16; 6175,724;  177,044;23038,738;26,23900
 272,75; 6254,140;  193,813;22949,456;26,63220
 273,35; 6259,758;  182,351;22947,835;26,69571
 273,95; 6280,573;  186,120;22897,791;26,83401
 274,54; 6266,239;  168,966;22845,018;26,88860
 275,14; 6387,766;  209,736;23211,307;26,85916
 275,74; 6412,606;  167,967;23262,106;27,03993
 276,33; 6555,691;  212,120;23670,379;27,04195
 276,93; 6685,524;  195,274;24000,998;27,26340
 277,53; 6829,098;  188,966;24480,551;27,33511
 278,12; 7026,991;  170,120;24882,707;27,74647
 278,72; 7213,172;  220,659;25607,498;27,54385
 279,32; 7383,399;  185,966;26004,984;27,87648
 279,91; 7647,267;  164,812;26785,849;28,10730
 280,51; 7814,337;  183,043;27319,255;28,12218
 281,11; 8058,782;  190,120;27968,527;28,32654
 281,70; 8132,281;  170,736;28412,107;28,19107
 282,30; 8437,575;  178,505;28968,664;28,68713
 282,90; 8578,154;  191,813;29335,835;28,77551
 283,49; 8767,652;  204,813;29850,094;28,88433
 284,09; 9048,621;  220,197;30314,267;29,33609
 284,69; 9195,315;  211,120;30676,434;29,48991
 285,28; 9478,727;  199,966;31044,701;30,08215
 285,88; 9670,303;  241,428;31267,217;30,39044
 286,47; 9654,106;  192,428;31271,345;30,44404
 287,07; 9892,351;  222,120;31492,417;30,92465
 287,67;10069,543;  205,428;31487,842;31,53246
 288,26;10164,586;  177,659;31433,606;31,95209
 288,86;10402,888;  186,889;31461,481;32,66549
 289,46;10552,518;  197,428;31623,521;32,95061
 290,05;10796,722;  187,966;31607,345;33,76501
 290,65;11093,528;  194,659;31866,156;34,41223
 291,24;11381,289;  196,274;31915,746;35,26230
 291,84;11597,446;  207,659;32091,063;35,72325
 292,44;11817,351;  196,966;32171,186;36,34298
 293,03;12099,739;  263,735;32350,547;36,88744
 293,63;12293,669;  186,351;32543,282;37,41800
 294,22;12507,563;  213,197;32649,881;37,90266
 294,82;12636,157;  189,121;32769,966;38,20354
 295,41;12589,819;  181,889;32461,722;38,43864
 296,01;12669,725;  219,505;32380,643;38,71200
 296,61;12663,998;  201,735;32124,057;39,03934
 297,20;12557,882;  194,736;31846,388;39,06003
 297,80;12538,457;  202,658;31633,357;39,24761
 298,39;12356,919;  184,659;31252,493;39,17962
 298,99;12290,317;  212,274;31083,950;39,12338
 299,58;12142,892;  203,120;30912,072;38,88043
 300,18;12132,523;  222,428;30839,754;38,89985
 300,78;11896,883;  190,735;30427,035;38,71554
 301,37;11878,963;  210,121;30360,455;38,70220
 301,97;11852,725;  204,428;30473,968;38,48191
 302,56;11738,973;  192,890;30297,075;38,35375
 303,16;11610,291;  179,197;30194,819;38,08381
 303,75;11522,521;  186,812;30292,221;37,65340
 304,35;11529,701;  189,581;30519,139;37,38966
 304,94;11480,886;  189,351;30455,364;37,30764
 305,54;11426,312;  205,966;30414,317;37,14319
 306,13;11258,963;  160,504;30389,472;36,71465
 306,73;11083,931;  174,504;30209,665;36,32218
 307,33;10967,422;  198,043;30187,156;35,91096
 307,92;10907,148;  198,582;30198,638;35,69515
 308,52;10938,797;  174,274;30562,024;35,42389
 309,11;11057,787;  188,582;30980,083;35,29937
 309,71;10993,920;  169,505;31409,706;34,64899
 310,30;10975,270;  176,505;31509,075;34,46498
 310,90;11016,116;  213,889;31888,998;34,10320
 311,49;10963,598;  194,582;32070,343;33,78434
 312,09;10912,086;  162,120;32165,614;33,58998
 312,68;10924,591;  242,274;32598,653;33,01456
 313,28;10863,917;  162,505;32749,253;32,83977
 313,87;10743,634;  153,659;32846,403;32,39243
 314,47;10751,894;  186,967;33115,126;32,08478
 315,06;10609,362;  170,428;33197,019;31,60766
 315,66;10546,393;  169,351;33394,153;31,23282
 316,25;10384,962;  160,736;33337,011;30,81788
 316,85;10260,146;  160,351;33403,688;30,38141
 317,44;10210,677;  175,274;33484,692;30,12782
 318,04;10062,256;  157,351;33544,541;29,66678
 318,63; 9886,712;  168,197;33588,018;29,08009
 319,22; 9861,314;  182,120;33732,082;28,85009
 319,82; 9719,654;  178,659;33856,351;28,33031
 320,41; 9562,576;  204,043;33677,799;27,95782
 321,01; 9487,366;  199,274;33829,393;27,61837
 321,60; 9378,124;  185,274;33806,977;27,34201
 322,20; 9204,001;  172,812;33782,649;26,87067
 322,79; 9105,759;  210,735;33976,603;26,34324
 323,39; 8960,584;  172,966;34015,257;25,96638
 323,98; 8881,389;  168,043;33951,241;25,79195
 324,58; 8761,271;  172,736;33805,455;25,53625
 325,17; 8588,290;  185,582;33734,222;25,04634
 325,76; 8459,639;  205,582;33616,207;24,70489
 326,36; 8242,561;  173,120;33254,411;24,39276
 326,95; 8082,309;  199,505;32984,694;24,04380
 327,55; 7886,582;  174,043;32616,539;23,77295
 328,14; 7717,384;  180,812;32335,871;23,43821
 328,74; 7585,925;  205,351;31792,817;23,36551
 329,33; 7413,411;  198,043;31487,061;23,06039
 329,92; 7144,564;  164,505;31012,632;22,62717
 330,52; 6981,658;  194,043;30355,557;22,50423
 331,11; 6788,443;  183,966;30015,561;22,13920
 331,71; 6596,114;  189,505;29379,388;21,94805
 332,30; 6390,809;  202,197;28964,056;21,51673
 332,89; 6278,509;  227,428;28481,791;21,41645
 333,49; 6097,552;  199,351;27864,817;21,31972
 334,08; 5885,262;  191,889;27511,186;20,84011
 334,68; 5780,298;  193,505;27072,400;20,78506
 335,27; 5613,410;  201,812;26754,803;20,38037
 335,86; 5556,597;  239,889;26513,330;20,23605
 336,46; 5455,571;  194,428;26268,199;20,17792
 337,05; 5325,573;  183,813;26067,162;19,86513
 337,65; 5233,695;  173,813;26075,676;19,53482
 338,24; 5279,045;  232,120;25997,027;19,58837
 338,83; 5168,579;  211,505;25833,685;19,34681
 339,43; 5075,970;  175,120;25884,022;19,06285
 340,02; 5061,469;  195,890;25775,602;19,02124
 340,61; 5014,350;  176,274;25788,589;18,88965
 341,21; 5010,925;  209,813;25862,432;18,71588
 341,80; 4983,392;  185,351;25820,403;18,71672
 342,40; 4956,192;  189,966;25815,138;18,59978
 342,99; 4944,355;  184,889;25916,022;18,49692
 343,58; 4931,180;  188,351;26076,522;18,32045
 344,18; 4959,030;  197,889;26284,422;18,25134
 344,77; 5003,510;  182,197;26547,850;18,28634
 345,36; 5045,617;  170,120;26860,156;18,26710
 345,96; 5115,358;  209,889;27115,306;18,23227
 346,55; 5120,592;  181,504;27346,653;18,18171
 347,14; 5161,844;  178,581;27617,274;18,16144
 347,74; 5232,305;  157,581;28018,754;18,21432
 348,33; 5340,128;  186,120;28696,644;18,07756
 348,92; 5491,086;  196,889;29244,677;18,22582
 349,52; 5532,886;  157,350;29666,997;18,21620
 350,11; 5628,891;  185,043;29898,258;18,32130
 350,70; 5636,313;  182,812;30043,991;18,26285
 351,29; 5603,710;  177,659;29821,173;18,30434
 351,89; 5626,852;  188,736;29913,883;18,29466
 352,48; 5606,354;  162,197;29795,470;18,37177
 353,07; 5613,790;  191,889;29824,384;18,29715
 353,67; 5659,486;  198,581;29731,006;18,49122
 354,26; 5611,241;  184,043;29434,935;18,55396
 354,85; 5625,567;  188,812;29332,440;18,65504
 355,45; 5600,134;  171,813;29224,412;18,68446
 356,04; 5618,024;  179,812;29136,514;18,78049
 356,63; 5651,625;  216,043;28939,013;18,92416
 357,22; 5634,759;  186,505;28850,138;19,00755
 357,82; 5607,777;  186,198;28602,308;19,07925
 358,41; 5615,234;  209,736;28457,074;19,13631
 359,00; 5656,290;  176,274;28327,452;19,46638
 359,60; 5703,495;  189,274;28233,366;19,66268
 360,19; 5675,922;  179,966;28068,903;19,70658
 360,78; 5681,132;  199,351;27988,969;19,72600
 361,37; 5693,104;  181,659;27727,305;20,00841
 361,97; 5702,859;  187,351;27642,220;20,08936
 362,56; 5671,292;  181,582;27310,954;20,23530
 363,15; 5713,024;  232,889;27156,483;20,35439
 363,74; 5655,339;  186,351;26775,123;20,56879
 364,34; 5666,383;  210,120;26303,456;20,91056
 364,93; 5571,572;  181,813;25956,887;20,91074
 365,52; 5563,366;  153,505;25583,023;21,27394
 366,11; 5566,456;  178,043;25307,498;21,44262
 366,71; 5515,391;  183,813;24973,774;21,50700
 367,30; 5534,747;  191,813;24528,603;21,95414
 367,89; 5532,045;  222,428;24395,366;21,96513
 368,48; 5533,513;  199,351;24142,025;22,27889
 369,07; 5471,621;  192,043;23618,453;22,53686
 369,67; 5511,269;  207,659;23342,537;22,92474
 370,26; 5460,718;  178,659;23107,740;23,03651
 370,85; 5459,124;  187,428;22796,515;23,31671
 371,44; 5486,709;  190,889;22626,101;23,60495
 372,03; 5418,241;  172,659;22354,886;23,64768
 372,63; 5450,447;  161,197;22096,153;24,11334
 373,22; 5416,257;  177,582;21745,260;24,28947
 373,81; 5424,650;  162,582;21484,393;24,67927
 374,40; 5467,088;  169,735;21237,763;25,14404
 374,99; 5389,579;  174,428;21021,717;25,01597
 375,59; 5362,085;  169,120;20697,787;25,29616
 376,18; 5425,457;  191,966;20598,819;25,64575
 376,77; 5451,623;  198,659;20408,493;25,99212
 377,36; 5512,087;  208,505;20319,456;26,37161
 377,95; 5454,026;  203,505;20092,600;26,39899
 378,55; 5497,905;  170,197;19882,163;27,02778
 379,14; 5551,844;  189,120;19870,180;27,24815
 379,73; 5542,738;  191,351;19660,041;27,48714
 380,32; 5635,871;  199,505;19781,111;27,76261
 380,91; 5610,492;  173,582;19652,911;27,91118
 381,50; 5724,494;  194,428;19493,751;28,65420
 382,10; 5672,025;  164,659;19444,188;28,56587
 382,69; 5730,039;  160,120;19410,351;28,93430
 383,28; 5825,327;  203,120;19366,878;29,33770
 383,87; 5791,380;  175,505;19281,403;29,39341
 384,46; 5810,578;  165,813;19211,102;29,63864
 385,05; 5916,636;  207,659;19192,321;30,07152
 385,64; 5979,456;  189,274;19153,267;30,53250
 386,24; 5982,404;  165,274;19094,815;30,73043
 386,83; 6035,252;  201,428;19194,181;30,71605
 387,42; 6177,706;  198,043;19286,631;31,32585
 388,01; 6284,566;  188,352;19384,455;31,75756
 388,60; 6411,115;  181,428;19675,890;31,95619
 389,19; 6526,434;  163,890;19851,507;32,31749
 389,78; 6703,023;  172,506;20053,837;32,84748
 390,37; 6921,028;  235,198;20545,717;32,91806
 390,96; 7007,551;  185,813;20697,881;33,25719
 391,56; 7112,587;  181,814;20839,801;33,55009
 392,15; 7241,515;  172,429;21159,881;33,68244
 392,74; 7324,068;  151,968;21210,378;34,05813
 393,33; 7506,025;  182,352;21574,769;34,23490
 393,92; 7738,747;  195,045;21936,229;34,69775
 394,51; 7849,941;  165,198;22105,604;35,02553
 395,10; 8017,850;  206,353;22334,791;35,30071
 395,69; 8086,713;  197,122;22467,115;35,42700
 396,28; 8213,265;  191,276;22616,925;35,77149
 396,87; 8285,529;  200,354;22620,824;36,06158
 397,46; 8401,981;  196,277;22812,755;36,28197
 398,06; 8535,262;  207,585;23021,439;36,50272
 398,65; 8574,646;  186,971;23034,531;36,71147
 399,24; 8791,834;  204,048;23153,410;37,42059
 399,83; 8809,594;  181,434;23194,845;37,49188
 400,42; 8941,879;  216,897;23340,592;37,73178
 401,01; 9014,155;  192,744;23410,225;37,99470
 401,60; 9129,537;  206,900;23408,472;38,45704
 402,19; 9172,626;  219,055;23452,836;38,53687
 402,78; 9223,461;  218,596;23456,829;38,75021
 403,37; 9227,975;  204,675;23295,193;39,07795
 403,96; 9182,879;  206,986;23138,574;39,14205
 404,55; 9277,284;  217,604;23104,145;39,58519
 405,14; 9244,828;  202,607;22971,214;39,71355
 405,73; 9338,142;  213,840;22778,482;40,43628
 406,32; 9321,416;  212,996;22757,039;40,40278
 406,91; 9274,313;  217,076;22488,069;40,66831
 407,50; 9226,498;  215,077;22286,033;40,82932
 408,09; 9212,160;  191,539;22091,556;41,19002
 408,68; 9228,497;  207,925;21913,293;41,55918
 409,27; 9203,866;  193,770;21733,089;41,83092
 409,86; 9248,862;  206,306;21625,582;42,21691
 410,45; 9272,852;  233,151;21523,443;42,45926
 411,04; 9273,108;  223,996;21489,152;42,55371
 411,63; 9149,824;  218,147;21239,526;42,48854
 412,22; 9144,329;  215,145;21033,757;42,89039
 412,81; 9101,010;  229,222;20785,249;43,15906
 413,40; 8987,596;  237,144;20533,190;43,11407
 413,99; 8944,374;  278,067;20126,196;43,66309
 414,58; 8795,032;  196,990;19770,317;43,92734
 415,17; 8685,674;  210,914;19589,046;43,73363
 415,76; 8718,922;  206,145;19412,475;44,32277
 416,35; 8651,610;  202,068;19219,997;44,42935
 416,94; 8716,058;  237,761;19264,907;44,55896
 417,53; 8902,688;  201,606;19490,625;45,10899
 418,12; 8964,808;  208,221;19585,976;45,18886
 418,71; 9151,227;  233,759;19823,904;45,52017
 419,30; 9237,125;  216,452;20003,289;45,58926
 419,89; 9355,177;  209,529;20200,787;45,74824
 420,48; 9542,364;  235,221;20350,440;46,26916
 421,07; 9587,225;  227,913;20547,339;46,06091
 421,66; 9640,762;  197,605;20523,452;46,45886
 422,25; 9651,384;  208,681;20441,884;46,66934
 422,84; 9684,241;  244,296;20467,133;46,67963
 423,43; 9622,135;  217,835;20204,469;47,05294
 424,02; 9549,919;  236,219;19962,138;47,21554
 424,60; 9363,025;  217,065;19606,941;47,16874
 425,19; 9318,183;  218,296;19336,560;47,59787
 425,78; 9249,676;  232,604;19274,681;47,35341
 426,37; 9247,012;  238,373;19108,498;47,74022
 426,96; 9159,138;  203,834;19034,526;47,55695
 427,55; 9165,282;  219,757;18843,583;48,03269
 428,14; 9107,533;  210,372;18597,684;48,38750
 428,73; 9046,058;  212,680;18535,934;48,20857
 429,32; 9083,816;  232,603;18493,947;48,46967
 429,91; 9094,996;  242,834;18528,494;48,41041
 430,50; 9029,437;  228,372;18356,212;48,54999
 431,08; 9003,776;  234,295;18080,146;49,14017
 431,67; 8975,622;  279,987;18101,671;48,79244
 432,26; 8935,820;  287,602;17955,940;48,94755
 432,85; 8851,697;  294,064;17598,413;49,45366
 433,44; 8669,410;  316,986;17209,777;49,44372
 434,03; 8518,738;  324,832;16901,479;49,43042
 434,62; 8344,668;  279,909;16528,690;49,63301
 435,21; 8290,295;  308,371;16289,582;49,94568
 435,79; 8213,606;  283,140;16073,929;50,22210
 436,38; 8145,696;  282,370;16032,005;49,92703
 436,97; 8148,066;  277,678;15945,304;50,23344
 437,56; 8033,750;  273,831;15686,080;50,34904
 438,15; 8004,441;  261,677;15673,361;50,23957
 438,74; 8080,078;  277,600;15653,412;50,74514
 439,33; 8080,745;  258,216;15678,154;50,72997
 439,91; 8159,500;  232,754;15758,901;51,05417
 440,50; 8195,794;  284,215;15791,105;51,01977
 441,09; 8275,477;  264,753;15927,054;51,14653
 441,68; 8262,269;  251,599;15847,027;51,36550
 442,27; 8210,327;  250,215;15855,998;51,00745
 442,86; 8224,067;  213,829;15895,016;51,08183
 443,44; 8242,781;  230,137;15949,850;50,97195
 444,03; 8304,649;  293,060;16007,625;50,98193
 444,62; 8253,252;  228,522;15839,041;51,40592
 445,21; 8174,373;  247,060;15662,234;51,42539
 445,80; 8156,110;  275,752;15579,797;51,49199
 446,39; 8058,234;  300,829;15382,504;51,43597
 446,97; 7910,625;  227,828;15161,275;51,44691
 447,56; 7806,919;  226,905;14913,420;51,61206
 448,15; 7758,718;  234,290;14828,971;51,55596
 448,74; 7623,530;  249,213;14518,444;51,67985
 449,33; 7623,873;  250,597;14418,740;52,04123
 449,91; 7465,099;  229,597;14204,505;51,77495
 450,50; 7381,601;  232,059;14000,971;51,92525
 451,09; 7385,295;  238,828;13895,427;52,32977
 451,68; 7295,382;  267,443;13811,310;51,89019
 452,26; 7277,334;  260,520;13742,481;52,04595
 452,85; 7202,861;  236,289;13641,557;51,96891
 453,44; 7197,446;  248,750;13616,667;51,98040
 454,03; 7208,637;  230,827;13558,093;52,35740
 454,61; 7166,979;  221,442;13543,266;52,13653
 455,20; 7309,110;  262,596;13727,143;52,33384
 455,79; 7315,778;  265,827;13714,342;52,42179
 456,38; 7407,827;  262,519;13841,772;52,61930
 456,97; 7379,498;  243,288;13823,702;52,54781
 457,55; 7375,400;  241,134;13864,112;52,36936
 458,14; 7373,853;  265,673;13856,102;52,30284
 458,73; 7338,010;  258,057;13794,557;52,30268
 459,31; 7385,620;  272,133;13801,002;52,58006
 459,90; 7394,733;  292,287;13894,709;52,21456
 460,49; 7538,846;  326,364;13979,122;52,82802
 461,08; 7488,144;  239,441;14041,256;52,51993
 461,66; 7555,730;  249,518;14148,009;52,56839
 462,25; 7563,317;  249,671;14169,362;52,54172
 462,84; 7571,370;  266,210;14233,855;52,30058
 463,43; 7540,436;  220,671;14197,392;52,37111
 464,01; 7619,539;  252,825;14211,433;52,77542
 464,60; 7558,676;  294,902;14133,045;52,49095
 465,19; 7445,531;  226,901;13917,146;52,72827
 465,77; 7394,022;  245,901;13931,470;52,23108
 466,36; 7325,217;  263,748;13781,592;52,23813
 466,95; 7204,248;  249,517;13545,097;52,30859
 467,53; 7046,079;  262,209;13231,631;52,30665
 468,12; 6962,708;  287,516;12985,825;52,56757
 468,71; 6799,780;  256,517;12769,913;52,29007
 469,29; 6683,301;  244,747;12563,421;52,26662
 469,88; 6524,923;  243,285;12255,789;52,29249
 470,47; 6645,867;  308,824;12429,383;52,28342
 471,06; 6528,307;  245,747;12327,576;52,00008
 471,64; 6629,914;  258,439;12426,475;52,36239
 472,23; 6595,068;  238,515;12484,723;51,90629
 472,81; 6670,618;  235,669;12537,077;52,31067
 473,40; 6723,088;  244,438;12699,088;52,01792
 473,99; 6848,035;  337,131;12877,102;51,92121
 474,57; 6880,647;  254,746;13007,664;51,95596
 475,16; 6944,972;  259,900;13135,527;51,92036
 475,75; 6985,395;  277,361;13270,843;51,62615
 476,33; 7028,406;  273,438;13301,278;51,85025
 476,92; 7096,677;  284,515;13382,495;52,00925
 477,51; 7124,689;  273,746;13473,078;51,90371
 478,09; 7081,430;  274,361;13432,183;51,73401
 478,68; 7068,345;  266,592;13402,743;51,77889
 479,27; 7130,131;  285,746;13431,990;52,06343
 479,85; 7038,301;  260,592;13449,749;51,38850
 480,44; 7145,628;  258,591;13565,837;51,75404
 481,02; 7785,373;  276,822;14805,194;51,68199
 481,61; 8839,021;  287,591;16767,418;51,89029
 482,20; 9381,203;  272,207;17955,114;51,51300
 482,78; 9800,420;  308,668;18742,703;51,49036
 483,37;10044,546;  304,745;19311,268;51,24452
 483,95;10187,285;  325,591;19524,179;51,36676
 484,54;10316,949;  324,668;19721,819;51,51417
 485,13;10220,873;  299,667;19674,419;51,20688
 485,71;10124,727;  267,283;19359,168;51,63159
 486,30; 9979,160;  311,514;19163,734;51,28121
 486,88; 9828,497;  350,129;18790,873;51,39906
 487,47; 9427,681;  319,360;18111,474;51,19302
 488,05; 9017,251;  314,975;17285,299;51,27937
 488,64; 8406,978;  298,052;16075,825;51,39462
 489,23; 7457,386;  315,129;14276,871;51,15591
 489,81; 6409,209;  318,436;12269,871;50,96269
 490,40; 6061,389;  283,282;11577,264;51,16094
 490,98; 5876,466;  255,051;11339,911;50,71254
 491,57; 5862,498;  291,129;11214,719;51,00310
 492,15; 5842,573;  261,051;11135,031;51,32915
 492,74; 5779,278;  270,052;11148,520;50,64340
 493,32; 5701,989;  290,436;10980,505;50,62225
 493,91; 5616,321;  275,820;10887,486;50,32670
 494,50; 5624,085;  273,128;10879,117;50,45223
 495,08; 5547,686;  260,205;10835,710;49,99743
 495,67; 5589,635;  291,359;10817,349;50,33518
 496,25; 5469,143;  222,974;10657,382;50,27759
 496,84; 5486,939;  249,359;10687,065;50,17942
 497,42; 5438,140;  241,974;10616,052;50,08797
 498,01; 5430,079;  259,513;10542,979;50,28038
 498,59; 5300,365;  221,359;10499,036;49,41784
 499,18; 5315,385;  244,051;10458,382;49,64920
 499,76; 5318,357;  256,589;10363,917;50,08018
 500,35; 5176,814;  255,589;10202,439;49,47521
 500,93; 5147,391;  245,282;10220,783;49,14149
 501,52; 5110,612;  244,051;10134,040;49,20694
 502,10; 5105,600;  259,743;10034,794;49,57373
 502,69; 5008,193;  239,896; 9925,268;49,23195
 503,27; 4920,526;  222,743; 9663,925;49,75842
 503,86; 4874,828;  245,127; 9678,542;49,07767
 504,44; 4801,296;  218,819; 9571,680;48,99545
 505,03; 4696,769;  208,358; 9369,418;48,99446
 505,61; 4610,812;  219,127; 9253,244;48,61222
 506,19; 4528,583;  242,666; 9039,700;48,72003
 506,78; 4451,247;  224,588; 8895,900;48,74301
 507,36; 4367,653;  230,742; 8739,459;48,61968
 507,95; 4273,306;  229,127; 8601,409;48,30438
 508,53; 4219,097;  227,358; 8497,550;48,26659
 509,12; 4144,984;  239,357; 8385,061;47,94707
 509,70; 4097,588;  250,511; 8219,490;48,27566
 510,29; 4011,999;  258,126; 8094,530;47,90300
 510,87; 3926,842;  227,742; 7879,152;48,34534
 511,46; 3810,617;  218,434; 7755,661;47,65921
 512,04; 3737,189;  224,665; 7594,866;47,65846
 512,62; 3677,973;  243,050; 7412,305;47,91186
 513,21; 3587,978;  212,357; 7288,646;47,70326
 513,79; 3522,059;  222,741; 7188,436;47,36524
 514,38; 3437,475;  198,818; 7033,647;47,38461
 514,96; 3420,772;  251,511; 6942,352;47,36716
 515,54; 3305,707;  213,510; 6836,429;46,68933
 516,13; 3313,446;  222,664; 6752,168;47,33563
 516,71; 3224,693;  225,203; 6620,696;46,90007
 517,30; 3161,735;  213,356; 6522,758;46,72992
 517,88; 3103,703;  240,048; 6434,733;46,22760
 518,46; 3031,813;  222,279; 6292,771;46,28181
 519,05; 3041,641;  225,048; 6254,049;46,71741
 519,63; 2990,433;  231,433; 6195,050;46,26388
 520,22; 2952,927;  244,663; 6145,151;45,89898
 520,80; 2892,234;  231,971; 6080,477;45,48619
 521,38; 2908,705;  260,587; 6102,253;45,33155
 521,97; 2865,062;  229,971; 6046,601;45,30271
 522,55; 2827,795;  241,048; 6010,541;44,83491
 523,13; 2839,151;  219,817; 6021,370;45,14884
 523,72; 2800,781;  226,510; 5992,977;44,64208
 524,30; 2850,972;  235,432; 6131,945;44,35740
 524,89; 2848,753;  218,048; 6108,543;44,66018
 525,47; 2885,929;  243,740; 6228,118;44,15143
 526,05; 2867,526;  206,355; 6263,749;43,93261
 526,64; 2929,458;  238,201; 6358,619;43,97179
 527,22; 2990,176;  250,047; 6505,122;43,80649
 527,80; 3012,236;  266,816; 6599,458;43,35347
 528,39; 3002,616;  226,586; 6700,301;42,88157
 528,97; 3056,659;  224,124; 6868,512;42,63049
 529,55; 3159,791;  248,432; 6996,615;43,14285
 530,14; 3214,641;  252,739; 7200,328;42,63209
 530,72; 3227,400;  229,509; 7309,155;42,34521
 531,30; 3271,871;  208,585; 7461,193;42,23703
 531,89; 3300,001;  231,201; 7525,255;42,07262
 532,47; 3364,990;  267,355; 7669,762;41,84632
 533,05; 3367,419;  251,740; 7672,660;41,98507
 533,63; 3353,162;  261,355; 7705,221;41,53497
 534,22; 3358,121;  239,431; 7765,742;41,43717
 534,80; 3398,506;  251,277; 7789,344;41,75113
 535,38; 3445,368;  334,893; 7959,271;40,79644
 535,97; 3375,754;  251,508; 7886,881;40,91806
 536,55; 3412,901;  280,354; 7904,562;41,08685
 537,13; 3414,649;  288,047; 7905,877;41,04321
 537,71; 3430,496;  322,047; 7940,628;40,80090
 538,30; 3430,199;  334,893; 7993,909;40,41389
 538,88; 3483,182;  352,277; 8073,924;40,54712
 539,46; 3540,469;  410,585; 8243,361;39,95881
 540,05; 3589,910;  405,200; 8356,739;40,05148
 540,63; 3631,687;  441,046; 8556,673;39,31477
 541,21; 3701,111;  479,739; 8696,818;39,20337
 541,79; 3743,394;  478,508; 8803,419;39,21827
 542,38; 3781,757;  501,893; 8941,490;38,86281
 542,96; 3827,322;  520,892; 9065,114;38,69785
 543,54; 3924,893;  539,200; 9251,537;38,86090
 544,12; 3910,324;  493,816; 9436,371;38,20505
 544,70; 3939,544;  494,431; 9440,660;38,50911
 545,29; 3984,510;  504,893; 9648,795;38,05396
 545,87; 3984,856;  486,816; 9679,265;38,05341
 546,45; 3938,571;  465,200; 9709,311;37,57388
 547,03; 3972,761;  452,662; 9797,249;37,66993
 547,62; 3990,895;  418,585; 9934,378;37,54086
 548,20; 4060,105;  435,200;10100,372;37,50482
 548,78; 4038,472;  396,507;10219,879;37,07449
 549,36; 4096,826;  366,430;10373,605;37,27721
 549,94; 4087,816;  335,892;10554,876;36,71523
 550,53; 4186,950;  355,277;10762,159;36,81865
 551,11; 4190,906;  322,661;10924,151;36,48775
 551,69; 4326,653;  334,046;11276,010;36,48894
 552,27; 4339,420;  286,507;11465,523;36,25465
 552,85; 4410,396;  305,046;11817,508;35,66006
 553,44; 4519,977;  298,430;12110,552;35,73910
 554,02; 4663,468;  314,046;12431,922;35,89261
 554,60; 4665,201;  263,122;12768,432;35,20167
 555,18; 4805,187;  306,969;13114,437;35,12183
 555,76; 4881,634;  288,199;13433,121;34,94455
 556,34; 5018,878;  299,891;13810,378;34,92833
 556,93; 5078,769;  281,738;14192,200;34,48506
 557,51; 5196,105;  253,661;14467,113;34,77300
 558,09; 5294,040;  280,892;14830,679;34,45513
 558,67; 5399,322;  278,968;15220,656;34,26891
 559,25; 5468,617;  289,199;15470,982;34,11600
 559,83; 5526,719;  271,430;15684,502;34,09631
 560,41; 5590,136;  258,968;16098,894;33,65652
 561,00; 5704,500;  272,122;16391,747;33,70040
 561,58; 5744,092;  271,815;16682,131;33,34657
 562,16; 5824,635;  259,661;16993,673;33,25547
 562,74; 5922,581;  242,353;17349,904;33,20304
 563,32; 6049,747;  248,737;17697,474;33,24602
 563,90; 6122,642;  274,507;18129,547;32,75341
 564,48; 6188,701;  277,199;18495,332;32,44845
 565,06; 6419,501;  261,661;19084,344;32,71500
 565,65; 6568,812;  272,506;19659,953;32,47620
 566,23; 6821,152;  320,507;20376,806;32,41199
 566,81; 6961,030;  266,584;21113,723;32,11206
 567,39; 7210,579;  284,353;21934,158;31,99210
 567,97; 7351,947;  286,814;22473,937;31,84339
 568,55; 7652,881;  308,737;23278,264;31,97342
 569,13; 7767,301;  284,891;24018,772;31,52628
 569,71; 8035,279;  260,276;24926,337;31,52105
 570,29; 8318,709;  306,661;25849,126;31,36756
 570,87; 8482,337;  304,969;26426,877;31,30464
 571,45; 8644,764;  295,814;27080,061;31,17112
 572,03; 8712,018;  266,430;27550,446;30,95435
 572,61; 8906,590;  254,660;28285,190;30,86609
 573,20; 9129,278;  266,122;28927,400;30,92380
 573,78; 9183,759;  257,968;29476,135;30,54877
 574,36; 9307,697;  284,814;30004,297;30,36016
 574,94; 9409,689;  332,045;30271,657;30,31984
 575,52; 9427,645;  269,737;30613,817;30,18021
 576,10; 9587,237;  330,429;31103,233;30,08113
 576,68; 9623,136;  308,199;31576,386;29,79046
 577,26; 9835,256;  327,583;32303,583;29,73378
 577,84; 9862,392;  332,276;32728,658;29,41722
 578,42; 9955,204;  376,737;32927,349;29,42638
 579,00; 9853,079;  317,122;33151,719;29,04241
 579,58; 9928,364;  367,506;33271,577;29,05676
 580,16; 9853,915;  328,429;33317,731;28,87447
 580,74; 9867,699;  331,199;33552,907;28,70563
 581,32; 9793,553;  324,583;33524,886;28,52073
 581,90; 9739,624;  351,122;33594,888;28,24139
 582,48; 9706,081;  340,352;33723,007;28,05567
 583,06; 9663,526;  347,737;33760,973;27,88054
 583,64; 9631,664;  327,737;33886,412;27,72436
 584,22; 9535,222;  344,275;33797,948;27,47366
 584,80; 9365,507;  355,737;33566,622;27,12897
 585,38; 9223,846;  354,276;33161,122;27,03573
 585,96; 9145,636;  330,891;33270,794;26,76008
 586,54; 9106,297;  342,121;33252,646;26,63031
 587,12; 9016,665;  324,583;33408,996;26,27244
 587,70; 9038,805;  357,583;33443,200;26,23866
 588,28; 8986,078;  335,737;33477,737;26,10084
 588,86; 8928,756;  344,198;33657,805;25,76892
 589,44; 8857,194;  324,275;33671,790;25,58787
 590,02; 8833,756;  321,660;33925,022;25,33108
 590,59; 8801,929;  313,045;34083,572;25,13696
 591,17; 8844,248;  315,121;34274,314;25,11581
 591,75; 8799,384;  303,506;34374,881;24,93553
 592,33; 8815,898;  327,967;34620,470;24,75156
 592,91; 8793,603;  283,198;34771,483;24,67622
 593,49; 8764,690;  283,429;35189,194;24,29760
 594,07; 8785,015;  308,429;35345,736;24,19303
 594,65; 8752,810;  319,583;35391,958;24,04521
 595,23; 8834,748;  308,506;35716,319;24,08012
 595,81; 8764,766;  315,275;35977,566;23,69307
 596,39; 8732,449;  288,890;35999,112;23,64466
 596,97; 8708,194;  279,121;36227,315;23,44783
 597,55; 8681,058;  293,044;36122,513;23,41094
 598,12; 8562,400;  274,198;36072,980;23,15219
 598,70; 8608,232;  284,429;36219,292;23,16359
 599,28; 8570,884;  296,813;36361,352;22,94240
 599,86; 8491,342;  286,429;36401,068;22,71908
 600,44; 8502,793;  259,121;36511,113;22,73991
 601,02; 8438,002;  309,428;36583,477;22,40879
 601,60; 8365,522;  288,967;36581,955;22,25376
 602,18; 8346,794;  260,967;36646,587;22,22259
 602,75; 8272,904;  258,044;36623,544;22,03974
 603,33; 8241,600;  296,352;36645,520;21,85813
 603,91; 8150,396;  264,044;36615,284;21,69486
 604,49; 8155,940;  286,890;36678,160;21,62345
 605,07; 8047,182;  299,044;36855,161;21,19519
 605,65; 8044,277;  298,352;36857,453;21,18741
 606,23; 8020,817;  352,198;36919,186;20,97142
 606,80; 7995,342;  371,967;36917,299;20,86005
 607,38; 7934,045;  397,736;36983,195;20,59919
 607,96; 7963,589;  448,737;37046,533;20,53362
 608,54; 7902,176;  494,352;37144,670;20,21217
 609,12; 7851,455;  495,890;37068,744;20,11209
 609,70; 7827,553;  516,121;37209,858;19,92556
 610,27; 7780,833;  525,737;37198,868;19,78314
 610,85; 7725,894;  547,275;37267,095;19,54971
 611,43; 7691,989;  532,352;37325,555;19,45913
 612,01; 7538,017;  495,429;37049,020;19,26647
 612,59; 7526,618;  507,582;37110,812;19,17600
 613,16; 7464,862;  476,198;37032,424;19,11757
 613,74; 7375,714;  458,582;36940,426;18,96048
 614,32; 7283,042;  432,352;36958,187;18,75574
 614,90; 7206,119;  404,429;36767,355;18,70501
 615,48; 7097,147;  353,506;36608,174;18,60075
 616,05; 6980,442;  345,198;36442,961;18,38132
 616,63; 6961,044;  355,660;36314,979;18,36905
 617,21; 6890,744;  355,891;36290,669;18,18532
 617,79; 6799,421;  334,660;36184,525;18,03287
 618,36; 6798,389;  348,275;36073,224;18,05493
 618,94; 6644,430;  294,968;35842,409;17,86194
 619,52; 6559,606;  312,275;35522,166;17,74311
 620,10; 6543,208;  293,506;35553,048;17,72485
 620,67; 6469,311;  312,814;35336,347;17,57817
 621,25; 6381,202;  323,890;35166,448;17,38481
 621,83; 6334,057;  307,968;35156,147;17,29241
 622,41; 6319,859;  354,121;35207,230;17,11680
 622,98; 6188,215;  314,429;34947,136;16,96023
 623,56; 6183,783;  323,506;34908,705;16,94446
 624,14; 6114,510;  301,583;34790,615;16,85442
 624,72; 6024,547;  301,660;34705,503;16,63444
 625,29; 5965,896;  291,968;34756,457;16,46311
 625,87; 5999,753;  337,352;34837,231;16,41281
 626,45; 5918,497;  287,583;34537,878;16,44048
 627,02; 5863,294;  297,967;34593,361;16,22762
 627,60; 5755,501;  284,505;34423,962;16,02543
 628,18; 5717,532;  267,044;34534,974;15,90551
 628,76; 5718,845;  274,814;34532,158;15,89157
 629,33; 5698,744;  299,506;34593,022;15,74420
 629,91; 5641,592;  298,352;34596,202;15,57894
 630,49; 5678,997;  291,583;34616,041;15,69555
 631,06; 5609,411;  293,814;34768,072;15,41903
 631,64; 5558,589;  299,045;34820,439;15,23561
 632,22; 5490,412;  260,506;34666,778;15,20044
 632,79; 5528,833;  295,199;34991,453;15,08415
 633,37; 5475,397;  284,275;35015,678;14,94648
 633,95; 5463,490;  281,276;35039,175;14,90946
 634,52; 5435,718;  268,891;35190,506;14,79550
 635,10; 5436,759;  268,198;35175,229;14,80665
 635,68; 5401,347;  268,506;35361,208;14,62652
 636,25; 5367,977;  256,276;35344,339;14,56821
 636,83; 5339,307;  247,122;35544,697;14,42645
 637,41; 5349,600;  265,814;35562,766;14,40290
 637,98; 5330,993;  295,660;35762,758;14,19719
 638,56; 5308,849;  275,276;35837,239;14,15437
 639,13; 5277,029;  259,275;35831,727;14,10573
 639,71; 5287,164;  322,429;36043,761;13,89852
 640,29; 5163,403;  236,506;35850,715;13,83408
 640,86; 5167,935;  263,583;36069,057;13,69721
 641,44; 5173,390;  257,121;36085,707;13,72164
 642,02; 5144,153;  278,045;36048,048;13,60388
 642,59; 5098,992;  258,968;36266,775;13,44160
 643,17; 5088,755;  259,968;36193,270;13,43819
 643,74; 5054,748;  252,121;36194,381;13,36206
 644,32; 5020,742;  274,814;36117,261;13,24108
 644,89; 4996,043;  283,045;36183,449;13,12798
 645,47; 4979,805;  296,891;36196,868;13,04434
 646,05; 4960,799;  276,275;36075,132;13,08568
 646,62; 4911,638;  265,506;36104,320;12,96397
 647,20; 4890,016;  273,968;36276,047;12,82162
 647,77; 4838,240;  246,506;36035,696;12,82995
 648,35; 4819,080;  238,891;36043,038;12,79234
 648,92; 4793,919;  276,121;36050,379;12,62863
 649,50; 4743,144;  240,891;35983,798;12,59621
 650,08; 4684,675;  230,198;35946,140;12,47196
 650,65; 4712,823;  244,275;36039,712;12,48357
 651,23; 4758,662;  220,121;36745,823;12,42561
 651,80; 4875,502;  237,583;37683,165;12,38576
 652,38; 4944,572;  243,814;38092,660;12,41982
 652,95; 4915,335;  231,352;38508,002;12,23718
 653,53; 4954,636;  252,583;38739,728;12,21720
 654,10; 4988,014;  280,198;38903,685;12,18900
 654,68; 4915,623;  238,275;38753,873;12,14403
 655,25; 4920,924;  235,198;38879,907;12,12514
 655,83; 4874,225;  236,352;38977,403;11,97147
 656,40; 4891,987;  265,890;38915,821;11,96922
 656,98; 4849,212;  250,275;38815,932;11,92495
 657,55; 4804,359;  247,967;38672,659;11,85798
 658,13; 4763,891;  247,814;38286,923;11,87219
 658,70; 4718,961;  269,429;38035,342;11,78187
 659,28; 4581,647;  252,429;37316,914;11,68023
 659,85; 4472,179;  252,429;36447,487;11,65836
 660,43; 4456,710;  267,737;36491,752;11,56408
 661,00; 4439,858;  245,660;36550,939;11,55258
 661,58; 4452,851;  248,275;36974,358;11,44847
 662,15; 4478,844;  231,429;37100,700;11,52021
 662,73; 4517,453;  304,044;37354,734;11,37201
 663,30; 4513,754;  244,736;37524,922;11,45117
 663,88; 4491,363;  248,429;37750,802;11,31378
 664,45; 4487,049;  235,506;37858,682;11,30033
 665,03; 4541,427;  252,736;38361,639;11,25378
 665,60; 4634,266;  331,506;38779,135;11,19122
 666,17; 4557,875;  250,506;38898,553;11,14512
 666,75; 4589,792;  239,275;39253,895;11,15099
 667,32; 4644,554;  263,044;39464,698;11,17685
 667,90; 4613,394;  246,890;39756,347;11,05179
 668,47; 4690,926;  265,198;39945,535;11,15345
 669,05; 4693,304;  240,813;40359,877;11,09819
 669,62; 4692,682;  213,198;40359,911;11,15778
 670,19; 4680,906;  229,736;40585,253;11,02989
 670,77; 4695,207;  251,121;40779,671;10,96532
 671,34; 4687,585;  249,736;40614,244;10,99443
 671,92; 4730,271;  228,890;40997,816;11,04120
 672,49; 4720,725;  260,582;40982,850;10,95259
 673,06; 4723,642;  217,813;41101,115;11,02120
 673,64; 4673,558;  232,582;41085,918;10,87053
 674,21; 4659,783;  217,967;41002,568;10,89091
 674,79; 4698,699;  246,736;41187,525;10,87415
 675,36; 4717,462;  259,582;41342,174;10,85102
 675,93; 4631,763;  232,429;41124,900;10,75830
 676,51; 4717,756;  252,967;41300,550;10,87711
 677,08; 4684,596;  256,813;41486,814;10,73922
 677,65; 4735,051;  249,659;41574,925;10,85387
 678,23; 4736,506;  245,967;41732,806;10,82401
 678,80; 4737,884;  230,659;41832,301;10,83425
 679,38; 4717,338;  241,582;41962,950;10,72773
 679,95; 4766,101;  247,044;42179,446;10,77701
 680,52; 4805,556;  234,659;42490,095;10,81730
 681,10; 4858,011;  256,352;42735,129;10,83284
 681,67; 4901,389;  249,121;43149,548;10,84434
 682,24; 4869,229;  230,428;43186,197;10,79902
 682,82; 4929,683;  238,352;43766,462;10,77771
 683,39; 5015,523;  288,275;44063,112;10,79901
 683,96; 5019,516;  240,505;44259,915;10,85660
 684,54; 5038,971;  220,505;44663,795;10,84183
 685,11; 5146,734;  268,813;45022,521;10,89948
 685,68; 5148,727;  240,967;45434,324;10,85947
 686,25; 5118,490;  223,659;45448,743;10,82327
 686,83; 5182,176;  231,198;45624,777;10,90678
 687,40; 5207,631;  218,275;45970,350;10,90520
 687,97; 5313,009;  280,967;46409,537;10,90873
 688,55; 5252,848;  218,736;46411,725;10,89800
 689,12; 5304,457;  205,274;46692,990;10,96888
 689,69; 5313,681;  227,659;46772,870;10,92706
 690,26; 5328,213;  245,044;46844,366;10,90825
 690,84; 5345,899;  249,274;47133,323;10,87070
 691,41; 5370,661;  251,967;47222,664;10,89763
 691,98; 5403,424;  244,967;47439,622;10,93017
 692,56; 5419,417;  233,044;47516,809;10,96861
 693,13; 5482,334;  287,659;47545,766;10,99213
 693,70; 5512,327;  256,274;47684,877;11,08203
 694,27; 5490,705;  243,890;47890,604;11,01191
 694,84; 5488,391;  238,044;47984,253;10,99636
 695,42; 5594,615;  276,582;48083,133;11,12407
 695,99; 5553,147;  238,351;48293,629;11,05975
 696,56; 5542,602;  243,121;48149,124;11,06225
 697,13; 5589,672;  241,197;48488,697;11,08550
 697,71; 5585,512;  225,582;48519,500;11,09856
 698,28; 5639,274;  244,120;48871,380;11,09492
 698,85; 5635,652;  196,659;48863,106;11,17606
 699,42; 5700,415;  214,505;49072,371;11,22830
 699,99; 5737,639;  242,044;49106,405;11,24663
 700,57; 5765,632;  243,428;49142,055;11,29317
 701,14; 5735,549;  231,505;49239,550;11,23090
 701,71; 5793,158;  250,967;49401,815;11,27588
 702,28; 5813,074;  242,351;49536,310;11,30103
 702,85; 5871,683;  245,967;49647,575;11,38772
 703,43; 5906,292;  257,197;49848,763;11,39124
 704,00; 5963,593;  280,582;50070,028;11,41409
 704,57; 5964,202;  247,274;50047,293;11,47977
 705,14; 5968,118;  289,582;50348,250;11,34376
 705,71; 6029,419;  280,582;50303,822;11,49233
 706,28; 6030,259;  253,274;50223,010;11,56097
 706,86; 6070,098;  276,966;50540,890;11,52543
 707,43; 6091,245;  298,351;50541,540;11,52971
 708,00; 6098,623;  284,582;50501,266;11,57791
 708,57; 6086,232;  263,043;50353,838;11,62527
 709,14; 6189,610;  285,966;50567,488;11,74118
 709,71; 6172,527;  264,582;50621,368;11,73217
 710,28; 6213,443;  258,428;50908,556;11,75716
 710,86; 6270,590;  260,351;50935,205;11,86040
 711,43; 6317,199;  282,197;50873,316;11,92898
 712,00; 6321,270;  266,582;51054,350;11,92155
 712,57; 6378,801;  278,659;51204,769;11,97842
 713,14; 6389,410;  255,813;51192,956;12,04150
 713,71; 6449,250;  265,120;51185,606;12,14468
 714,28; 6467,397;  257,197;51191,640;12,19254
 714,85; 6428,160;  239,505;50995,212;12,19302
 715,42; 6481,230;  249,351;51154,477;12,24214
 716,00; 6584,454;  309,120;51281,819;12,31117
 716,57; 6618,986;  250,659;51370,237;12,45771
 717,14; 6587,979;  238,197;51300,656;12,43532
 717,71; 6590,588;  230,659;51458,690;12,41494
 718,28; 6688,658;  268,889;51516,032;12,52708
 718,85; 6667,421;  227,351;51475,758;12,56638
 719,42; 6715,568;  260,889;51744,023;12,53746
 719,99; 6701,023;  224,197;51414,134;12,65254
 720,56; 6758,709;  265,428;51757,552;12,61024
 721,13; 6787,779;  251,735;51795,432;12,68059
 721,70; 6850,388;  232,812;51767,620;12,84098
 722,27; 6877,228;  265,659;51710,962;12,85165
 722,84; 7000,298;  306,889;51891,996;12,97547
 723,41; 6911,830;  236,197;51914,799;12,91760
 723,98; 7005,746;  241,428;52137,295;13,03441
 724,55; 7056,663;  275,351;52288,021;13,03781
 725,12; 7040,348;  207,812;52124,978;13,16046
 725,69; 7111,188;  238,197;52401,166;13,17600
 726,27; 7133,797;  230,812;52349,815;13,24466
 726,84; 7199,252;  249,120;52729,234;13,24336
 727,41; 7219,783;  268,428;52672,729;13,26486
 727,98; 7277,392;  266,043;52998,533;13,29607
 728,55; 7396,078;  287,428;52891,797;13,51342
 729,12; 7361,610;  243,581;53017,524;13,48777
 729,69; 7411,911;  254,658;53168,481;13,52624
 730,26; 7480,135;  274,274;53258,976;13,59989
 730,82; 7463,744;  261,274;53209,857;13,60276
 731,39; 7519,891;  261,581;53284,198;13,68908
 731,96; 7571,807;  237,735;53591,617;13,74609
 732,53; 7652,032;  247,274;53811,420;13,82409
 733,10; 7735,179;  268,504;53949,377;13,90938
 733,67; 7791,403;  266,504;54133,257;13,96947
 734,24; 7742,935;  250,120;53825,907;13,98545
 734,81; 7824,621;  280,197;53907,941;14,06814
 735,38; 7851,768;  261,889;53674,436;14,20992
 735,95; 7807,684;  266,735;53612,393;14,13601
 736,52; 7905,755;  266,504;53784,735;14,27411
 737,09; 7898,133;  269,504;53470,384;14,33929
 737,66; 7984,818;  307,889;53595,111;14,40670
 738,23; 7997,504;  265,043;53768,299;14,45232
 738,80; 8138,190;  318,197;53982,333;14,57210
 739,37; 8138,952;  279,274;54149,367;14,59006
 739,94; 8189,792;  261,581;54157,554;14,71021
 740,51; 8253,478;  367,658;54254,204;14,63412
 741,07; 8260,779;  261,350;54232,007;14,82181
 741,64; 8337,387;  286,504;54400,810;14,87755
 742,21; 8345,535;  251,504;54471,152;14,92822
 742,78; 8364,836;  234,812;54224,647;15,05843
 743,35; 8406,060;  254,427;54522,528;15,02104
 743,92; 8539,361;  286,581;54626,946;15,18720
 744,49; 8526,662;  289,581;54517,211;15,18982
 745,06; 8551,502;  251,812;54451,630;15,31313
 745,63; 8609,495;  249,504;54530,587;15,40130
 746,19; 8650,335;  251,197;54526,851;15,47496
 746,76; 8645,713;  267,273;54505,039;15,44761
 747,33; 8670,014;  251,966;54474,919;15,52488
 747,90; 8753,469;  281,658;54680,415;15,57354
 748,47; 8795,924;  267,658;54590,757;15,69915
 749,04; 8786,225;  273,966;54630,714;15,65999
 749,61; 8847,987;  298,043;54583,517;15,74997
 750,17; 8926,519;  276,658;54671,782;15,90191
 750,74; 8898,436;  280,966;54532,585;15,88426
 751,31; 8888,506;  246,350;54392,927;15,96067
 751,88; 8877,115;  240,581;54357,653;15,95898
 752,45; 9002,108;  263,581;54516,610;16,10698
 753,02; 8989,025;  274,812;54288,567;16,13332
 753,58; 9025,787;  246,043;54164,678;16,28332
 754,15; 9089,781;  246,889;54373,251;16,33750
 754,72; 9059,851;  246,581;54159,054;16,34737
 755,29; 9057,152;  236,043;53881,165;16,44345
 755,86; 9118,453;  264,966;54187,891;16,41878
 756,42; 9172,908;  272,735;54064,848;16,54550
 756,99; 9166,363;  224,273;53975,420;16,63609
 757,56; 9166,818;  239,966;53913,455;16,63177
 758,13; 9181,734;  201,042;53854,412;16,73836
 758,70; 9345,343;  232,966;53871,292;16,98856
 759,26; 9330,875;  221,273;53980,710;16,94512
 759,83; 9355,561;  229,042;54191,898;16,91259
 760,40; 9415,939;  218,581;53906,778;17,13106
 760,97; 9425,701;  211,119;54007,966;17,12848
 761,53; 9408,541;  198,119;53582,769;17,25294
 762,10; 9402,919;  209,581;53551,419;17,23476
 762,67; 9499,835;  230,042;53514,530;17,39679
 763,24; 9415,521;  184,658;53247,179;17,39620
 763,80; 9523,130;  214,427;53340,675;17,52185
 764,37; 9572,354;  230,504;53361,093;17,58281
 764,94; 9525,655;  208,119;52822,589;17,70907
 765,50; 9542,264;  211,965;52946,777;17,69286
 766,07; 9609,103;  254,042;52927,195;17,76059
 766,64; 9588,327;  224,350;52552,614;17,89468
 767,21; 9574,936;  218,965;52491,648;17,89839
 767,77; 9589,853;  248,581;52366,682;17,92328
 768,34; 9668,000;  242,812;52319,100;18,09881
 768,91; 9670,301;  262,735;52172,519;18,12292
 769,47; 9732,987;  241,581;52192,476;18,26996
 770,04; 9789,288;  247,581;52132,818;18,39002
 770,61; 9690,127;  231,658;51836,467;18,32866
 771,18; 9703,736;  222,658;51851,347;18,36397
 771,74; 9812,268;  246,658;51982,997;18,48915
 772,31; 9840,415;  250,119;51604,877;18,67460
 772,88; 9770,639;  222,658;51556,680;18,59971
 773,44; 9804,325;  222,273;51181,022;18,80355
 774,01; 9842,395;  249,196;51415,979;18,74888
 774,58; 9903,543;  233,273;50939,090;19,07132
 775,14; 9968,921;  227,658;51202,201;19,11005
 775,71; 9926,453;  248,042;51110,619;19,02855
 776,27;10005,138;  278,504;51012,346;19,17189
 776,84;10069,209;  313,965;51026,226;19,23646
 777,41;10069,048;  246,504;50938,414;19,37695
 777,97;10006,426;  242,888;50616,140;19,38239
 778,54;10038,573;  243,504;50645,482;19,43390
 779,11;10131,951;  258,657;50606,285;19,61025
 779,67;10102,637;  230,350;50565,857;19,61297
 780,24;10086,015;  239,888;50341,968;19,65213
 780,80;10175,624;  261,657;50384,002;19,77953
 781,37;10208,002;  254,657;50403,267;19,84770
 781,94;10174,918;  253,119;50158,455;19,88124
 782,50;10227,758;  253,965;50067,104;20,02241
 783,07;10284,367;  271,350;50151,600;20,07411
 783,63;10239,052;  233,196;49872,172;20,15726
 784,20;10258,430;  263,657;49880,052;20,14409
 784,77;10217,501;  255,196;49742,240;20,13114
 785,33;10263,109;  234,273;49513,582;20,35101
 785,90;10292,334;  243,273;49440,231;20,42618
 786,46;10368,789;  265,965;49383,727;20,56857
 787,03;10270,243;  234,888;49132,992;20,52299
 787,59;10369,545;  239,350;49034,026;20,76086
 788,16;10353,230;  256,196;48985,906;20,72049
 788,73;10343,454;  250,888;48871,863;20,75764
 789,29;10270,525;  253,042;48540,282;20,74561
 789,86;10380,749;  273,811;48516,469;20,95021
 790,42;10390,435;  242,042;48302,273;21,11599
 790,99;10344,120;  260,427;48008,922;21,11835
 791,55;10373,575;  237,965;47900,725;21,26526
 792,12;10426,799;  276,657;47962,375;21,28550
 792,68;10384,100;  254,503;47577,101;21,40541
 793,25;10392,863;  257,734;47439,366;21,48109
 793,81;10400,318;  312,888;47116,861;21,55251
 794,38;10322,850;  225,350;46937,588;21,61639
 794,94;10335,382;  251,196;46873,237;21,62965
 795,51;10315,837;  260,503;46507,963;21,74246
 796,07;10315,368;  259,119;46349,459;21,81856
 796,64;10361,362;  274,426;46439,262;21,84982
 797,20;10311,894;  255,349;45954,296;22,00607
 797,77;10234,733;  219,657;45690,868;22,02509
 798,33;10225,573;  253,888;45435,595;22,07018
 798,90;10243,797;  275,965;45412,090;22,08393
 799,46;10194,944;  249,042;44974,894;22,23748
 800,03;10238,168;  261,273;44955,543;22,32254
 800,59;10188,085;  267,734;44679,269;22,33733
 801,15;10181,540;  266,119;44432,534;22,45014
 801,72;10117,841;  263,965;44141,568;22,45764
 802,28;10091,834;  291,888;43863,833;22,49141
 802,85;10071,982;  250,196;43600,405;22,65684
 803,41;10090,052;  259,042;43474,132;22,74902
 803,98;10035,507;  235,657;42993,704;22,91931
 804,54;10015,423;  247,042;42791,046;22,96065
 805,11; 9982,647;  265,426;42648,464;22,92715
 805,67;10040,487;  273,734;42621,344;23,06329
 806,23;10027,096;  260,195;42224,840;23,27412
 806,80; 9997,781;  267,119;42102,182;23,25959
 807,36;10002,390;  278,965;41985,985;23,31364
 807,93;10054,537;  295,426;41694,557;23,57323
 808,49; 9889,454;  244,349;41342,053;23,46872
 809,05; 9861,447;  235,811;41225,856;23,48286
 809,62; 9926,979;  266,042;41166,275;23,62074
 810,18; 9956,665;  271,272;41068,693;23,74021
 810,74; 9882,197;  224,042;40746,189;23,83426
 811,31; 9861,959;  238,118;40570,069;23,86158
 811,87; 9843,722;  258,272;40436,872;23,85710
 812,44; 9919,561;  289,811;40546,599;23,92081
 813,00; 9883,939;  226,349;40155,940;24,18655
 813,56; 9990,779;  260,272;40242,051;24,33735
 814,13; 9948,696;  250,811;40061,777;24,35983
 814,69; 9909,920;  250,426;39945,965;24,33395
 815,25; 9868,990;  221,118;39573,230;24,51678
 815,82; 9853,753;  264,272;39530,956;24,42142
 816,38; 9904,208;  280,657;39299,606;24,66379
 816,94; 9805,278;  244,811;38886,178;24,74153
 817,51; 9808,656;  227,272;38760,135;24,86549
 818,07; 9819,418;  245,118;38539,862;25,00160
 818,63; 9771,566;  253,272;38295,049;25,02063
 819,20; 9795,098;  253,349;38296,314;25,08151
 819,76; 9696,706;  236,272;37903,656;25,11572
 820,32; 9784,777;  281,349;37784,228;25,34053
 820,89; 9680,924;  267,657;37660,032;25,17430
 821,45; 9624,840;  241,580;37324,604;25,30339
 822,01; 9595,218;  254,580;37095,177;25,35420
 822,57; 9614,212;  250,426;36942,826;25,51969
 823,14; 9579,205;  227,580;36796,168;25,57284
 823,70; 9531,199;  240,964;36530,817;25,60009
 824,26; 9533,192;  250,811;36390,697;25,68459
 824,82; 9585,878;  260,503;36265,347;25,90033
 825,39; 9570,871;  241,272;36022,457;26,07404
 825,95; 9552,326;  254,426;35859,568;26,11392
 826,51; 9515,858;  260,810;35522,910;26,24644
 827,08; 9600,620;  296,964;35612,790;26,34416
 827,64; 9578,152;  261,118;35487,747;26,44884
 828,20; 9522,607;  239,580;35122,166;26,61221
 828,76; 9544,985;  268,964;35188,892;26,56369
 829,32; 9531,979;  276,272;34981,542;26,66946
 829,89; 9527,434;  229,272;34848,191;26,85861
 830,45; 9522,427;  251,503;34805,840;26,82999
 831,01; 9573,266;  255,657;34690,874;27,05837
 831,57; 9531,029;  257,118;34537,831;27,05285
 832,14; 9564,869;  241,887;34546,942;27,17670
 832,70; 9565,477;  234,503;34260,438;27,42313
 833,26; 9528,163;  212,887;34083,087;27,50287
 833,82; 9597,926;  241,580;34121,660;27,61607
 834,38; 9594,765;  233,349;34183,001;27,57441
 834,95; 9617,682;  231,041;33988,959;27,80575
 835,51; 9571,444;  211,349;33844,300;27,83013
 836,07; 9643,438;  246,041;33888,180;27,93341
 836,63; 9712,662;  258,656;33850,522;28,14373
 837,19; 9714,732;  249,503;33726,556;28,27378
 837,75; 9621,187;  209,195;33442,667;28,32082
 838,32; 9698,104;  258,041;33587,701;28,32331
 838,88; 9711,636;  259,041;33486,197;28,44840
 839,44; 9719,321;  246,887;33432,615;28,54370
 840,00; 9672,238;  246,349;33356,726;28,46808
 840,56; 9617,693;  225,041;33103,299;28,56797
 841,12; 9684,455;  222,887;33079,640;28,79642
 841,68; 9586,756;  219,733;32875,597;28,68405
 842,25; 9633,211;  236,118;32940,862;28,73312
 842,81; 9644,512;  217,733;32632,511;29,08173
 843,37; 9681,044;  209,349;32700,392;29,15171
 843,93; 9661,884;  234,579;32576,503;29,14887
 844,49; 9740,339;  247,887;32638,537;29,30615
 845,05; 9652,024;  210,964;32443,263;29,29068
 845,61; 9775,018;  248,349;32504,758;29,53419
 846,17; 9691,011;  225,964;32370,639;29,44515
 846,73; 9747,774;  238,195;32263,057;29,69436
 847,29; 9681,767;  223,656;32047,553;29,72015
 847,86; 9727,068;  226,041;32067,202;29,83882
 848,42; 9668,292;  215,733;31826,159;29,90330
 848,98; 9678,209;  240,810;31801,424;29,90246
 849,54; 9750,741;  222,425;31832,996;30,14281
 850,10; 9783,734;  232,502;31676,723;30,37516
 850,66; 9735,804;  220,733;31480,757;30,43847
 851,22; 9732,567;  224,118;31414,098;30,48559
 851,78; 9746,637;  261,964;31578,363;30,28660
 852,34; 9693,631;  240,887;31278,320;30,45595
 852,90; 9709,163;  223,964;31231,739;30,58974
 853,46; 9691,848;  224,887;30953,927;30,80787
 854,02; 9765,919;  240,118;31026,961;30,94114
 854,58; 9695,604;  231,810;30759,610;31,00058
 855,14; 9689,136;  216,964;30743,029;31,02979
 855,70; 9648,053;  193,733;30599,063;31,09428
 856,26; 9698,046;  237,810;30437,712;31,32539
 856,82; 9644,501;  215,502;30324,054;31,31668
 857,38; 9678,956;  258,656;30237,626;31,42303
 857,94; 9663,334;  243,579;30083,737;31,56738
 858,50; 9618,481;  244,502;30073,694;31,42552
 859,06; 9549,936;  228,733;29930,113;31,38306
 859,62; 9548,699;  241,271;29801,531;31,48628
 860,18; 9559,000;  234,502;29588,796;31,76536
 860,74; 9526,609;  205,656;29468,676;31,85233
 861,30; 9469,833;  205,887;29284,633;31,85813
 861,86; 9559,749;  274,041;29379,437;31,90374
 862,42; 9545,435;  236,271;29162,471;32,18246
 862,98; 9552,428;  256,348;29163,658;32,15823
 863,54; 9525,191;  227,502;28876,616;32,45367
 864,10; 9535,415;  234,194;29001,265;32,33287
 864,66; 9471,024;  216,579;28799,914;32,37706
 865,22; 9483,094;  233,194;28585,025;32,62541
 865,78; 9446,857;  239,964;28516,752;32,55990
 866,34; 9452,312;  221,656;28415,478;32,73999
 866,90; 9428,536;  240,425;28320,973;32,72055
 867,45; 9438,837;  235,117;28097,546;33,03273
 868,01; 9426,215;  235,271;27947,888;33,16520
 868,57; 9368,439;  235,502;27802,614;33,12983
 869,13; 9272,356;  215,271;27682,725;32,97388
 869,69; 9294,118;  222,579;27569,297;33,17231
 870,25; 9266,573;  206,348;27467,793;33,23457
 870,81; 9336,105;  223,579;27456,596;33,46132
 871,37; 9317,483;  235,425;27348,322;33,49719
 871,93; 9333,323;  249,040;27184,664;33,72590
 872,49; 9284,085;  256,271;27013,160;33,74015
 873,04; 9226,925;  228,271;26833,040;33,82346
 873,60; 9234,995;  214,579;26649,381;34,12326
 874,16; 9212,219;  239,348;26672,877;33,94504
 874,72; 9238,912;  233,656;26534,338;34,23963
 875,28; 9242,988;  234,579;26443,877;34,37104
 875,84; 9260,758;  234,348;26347,569;34,56643
 876,40; 9266,681;  231,117;26285,031;34,68025
 876,95; 9295,296;  239,117;26397,723;34,62027
 877,51; 9280,912;  258,425;26291,569;34,65769
 878,07; 9306,142;  264,810;26318,031;34,70332
 878,63; 9333,219;  233,040;26292,262;34,92115
 879,19; 9362,450;  243,656;26245,262;35,07012
 879,75; 9342,373;  229,117;26307,185;34,94606
 880,30; 9342,912;  228,502;26332,646;34,91557
 880,86; 9471,527;  272,271;26449,569;35,14211
 881,42; 9459,604;  226,425;26546,800;35,07997
 881,98; 9560,758;  244,194;26562,262;35,39988
 882,54; 9663,758;  219,271;26599,877;35,80087
 883,09; 9676,142;  242,425;26769,646;35,56240
 883,65; 9729,604;  219,579;26777,877;35,80811
 884,21; 9887,296;  256,194;27130,338;35,83780
 884,77; 9892,065;  218,656;27104,800;35,97916
 885,32;10010,604;  229,887;27285,415;36,15053
 885,88;10123,912;  263,348;27356,031;36,39567
 886,44;10144,219;  237,348;27508,108;36,32782
 887,00;10198,450;  250,117;27509,954;36,49447
 887,56;10337,604;  226,425;27624,338;36,90492
 888,11;10423,450;  235,733;27709,415;37,08173
 888,67;10463,912;  262,502;27831,877;37,00269
 889,23;10483,681;  248,348;27862,108;37,06606
 889,79;10504,296;  219,271;27716,108;37,40439
 890,34;10522,835;  245,348;27647,262;37,50646
 890,90;10570,527;  300,656;27796,338;37,35085
 891,46;10515,988;  225,963;27674,569;37,48833
 892,01;10517,142;  253,963;27663,262;37,44415
 892,57;10562,912;  269,117;27668,338;37,56966
 893,13;10530,604;  228,887;27430,723;37,87140
 893,69;10537,219;  218,194;27336,492;38,05189
 894,24;10530,142;  234,271;27304,492;38,03394
 894,80;10613,296;  237,733;27165,954;38,53045
 895,36;10484,835;  248,579;26965,415;38,31388
 895,91;10488,681;  238,117;26828,185;38,55035
 896,47;10467,681;  246,579;26687,031;38,65706
 897,03;10455,912;  232,040;26525,569;38,88360
 897,58;10439,758;  243,194;26447,646;38,91157
 898,14;10368,758;  248,348;26272,569;38,88842
 898,70;10348,296;  209,425;26179,877;39,04003
 899,25;10332,758;  232,194;26114,954;39,02429
 899,81;10291,065;  250,425;25893,338;39,15561
 900,37;10304,604;  214,656;25744,646;39,52194
 900,92;10326,681;  242,963;25775,262;39,49397
 901,48;10245,450;  232,194;25568,185;39,52186
 902,03;10236,835;  228,425;25457,415;39,67027
 902,59;10224,912;  225,579;25299,031;39,88016
 903,15;10220,219;  256,579;25161,108;40,00734
 903,70;10072,142;  237,117;24939,800;39,81359
 904,26;10038,912;  228,117;24813,646;39,90475
 904,82;10082,065;  241,656;24794,262;40,07888
 905,37;10086,296;  243,194;24693,954;40,25683
 905,93;10021,296;  225,887;24486,569;40,37566
 906,48;10034,296;  246,963;24453,954;40,43184
 907,04;10076,219;  252,194;24380,108;40,71643
 907,60;10028,988;  234,348;24218,262;40,83837
 908,15; 9950,065;  232,425;24148,569;40,63214
 908,71; 9978,681;  255,733;24069,338;40,82938
 909,26; 9888,758;  225,733;23896,108;40,82329
 909,82; 9886,912;  254,733;23816,338;40,88083
 910,37; 9870,142;  271,271;23729,954;40,91820
 910,93; 9835,604;  227,810;23522,415;41,24472
 911,48; 9755,912;  229,425;23429,415;41,06246
 912,04; 9785,681;  229,425;23388,415;41,26370
 912,60; 9892,912;  247,963;23303,954;41,83272
 913,15; 9753,758;  238,887;23178,262;41,47834
 913,71; 9720,219;  231,733;22948,954;41,76781
 914,26; 9702,835;  209,887;22946,262;41,75225
 914,82; 9728,219;  235,040;22802,338;42,06609
 915,37; 9622,912;  220,348;22777,646;41,68302
 915,93; 9673,450;  275,117;22773,569;41,77324
 916,48; 9665,219;  227,887;22531,185;42,31362
 917,04; 9601,065;  241,656;22381,415;42,27422
 917,59; 9593,681;  271,117;22314,569;42,29176
 918,15; 9465,758;  208,502;22112,108;42,26362
 918,70; 9531,142;  226,963;22023,031;42,68742
 919,26; 9564,835;  235,271;22030,262;42,80600
 919,81; 9450,912;  209,810;21829,646;42,74363
 920,37; 9455,296;  225,733;21741,031;42,89768
 920,92; 9493,988;  246,425;21623,185;43,25989
 921,48; 9369,142;  215,348;21512,108;42,98210
 922,03; 9370,835;  229,040;21410,338;43,15974
 922,59; 9365,758;  231,040;21317,338;43,32063
 923,14; 9368,373;  222,194;21176,262;43,64870
 923,69; 9320,527;  240,194;21132,877;43,46178
 924,25; 9339,527;  253,194;21044,415;43,70274
 924,80; 9239,604;  226,579;20868,262;43,66420
 925,36; 9195,219;  211,117;20797,262;43,64150
 925,91; 9177,142;  224,425;20721,262;43,67853
 926,47; 9131,912;  202,040;20647,646;43,67624
 927,02; 9161,373;  276,579;20512,646;43,90574
 927,57; 9035,450;  228,733;20392,800;43,67530
 928,13; 9039,527;  218,117;20377,415;43,75852
 928,68; 9040,219;  224,194;20252,646;44,01751
 929,24; 8940,296;  202,502;20031,723;44,06524
 929,79; 8956,527;  217,810;19900,800;44,39731
 930,34; 8934,681;  226,425;19804,877;44,47878
 930,90; 8911,296;  217,271;19774,800;44,45360
 931,45; 8966,835;  244,887;19713,338;44,80042
 932,01; 8933,142;  231,117;19565,954;45,00697
 932,56; 8916,296;  251,348;19435,800;45,16651
 933,11; 8931,296;  251,579;19512,569;45,06371
 933,67; 8824,988;  213,502;19313,800;45,08561
 934,22; 8814,758;  234,810;19217,723;45,19827
 934,77; 8804,681;  255,656;19087,492;45,39666
 935,33; 8736,912;  239,425;19034,415;45,21144
 935,88; 8709,988;  240,963;18921,108;45,33704
 936,43; 8743,758;  230,271;18932,108;45,52220
 936,99; 8660,758;  230,502;18751,185;45,51806
 937,54; 8653,296;  206,887;18640,338;45,82110
 938,09; 8624,065;  236,887;18619,262;45,62620
 938,65; 8571,681;  236,656;18427,492;45,81991
 939,20; 8552,912;  198,963;18364,569;45,98772
 939,75; 8531,219;  214,733;18285,185;46,02257
 940,31; 8492,835;  211,887;18130,646;46,21385
 940,86; 8525,758;  226,502;18268,877;45,99869
 941,41; 8490,065;  304,656;18127,185;45,92732
 941,96; 8448,681;  219,040;17919,954;46,49274
 942,52; 8406,450;  222,194;17816,492;46,51652
 943,07; 8355,912;  211,656;17773,031;46,37596
 943,62; 8347,527;  221,194;17692,492;46,51247
 944,18; 8370,604;  200,502;17581,338;47,00638
 944,73; 8298,219;  230,502;17509,415;46,69111
 945,28; 8240,912;  201,271;17347,800;46,88786
 945,83; 8262,758;  223,733;17334,569;46,98207
 946,39; 8309,065;  221,579;17267,262;47,44595
 946,94; 8301,835;  246,194;17123,185;47,73150
 947,49; 8214,219;  214,502;17098,723;47,37984
 948,04; 8229,681;  254,425;17040,723;47,51051
 948,59; 8213,219;  245,348;16976,415;47,62321
 949,15; 8157,835;  201,040;16849,031;47,79432
 949,70; 8098,065;  215,887;16771,954;47,60900
 950,25; 8128,450;  232,579;16707,415;47,92686
 950,80; 8065,681;  192,887;16579,646;48,04363
 951,36; 8000,373;  195,887;16531,262;47,77660
 951,91; 8091,450;  237,502;16589,569;48,03031
 952,46; 7961,604;  206,887;16310,492;48,15516
 953,01; 8020,373;  243,040;16344,108;48,30321
 953,56; 7929,142;  200,656;16269,031;48,09750
 954,11; 7898,450;  235,579;16165,723;48,10296
 954,67; 7890,219;  221,194;16106,800;48,27657
 955,22; 7845,065;  200,348;15992,262;48,40906
 955,77; 7916,527;  248,733;15869,108;49,08841
 956,32; 7886,296;  271,656;15821,108;48,97047
 956,87; 7826,296;  216,194;15694,492;49,16627
 957,42; 7799,527;  209,579;15672,954;49,08339
 957,98; 7789,988;  213,348;15545,646;49,41621
 958,53; 7771,912;  251,656;15550,108;49,15697
 959,08; 7730,758;  213,502;15369,954;49,59773
 959,63; 7752,065;  212,271;15321,185;49,90295
 960,18; 7721,373;  238,656;15256,800;49,82451
 960,73; 7694,758;  227,271;15170,108;49,97369
 961,28; 7643,142;  208,963;15061,338;50,05381
 961,83; 7672,527;  239,117;15030,723;50,25424
 962,39; 7566,912;  199,348;14948,031;49,95404
 962,94; 7566,912;  235,040;14895,031;50,01280
 963,49; 7514,604;  222,733;14785,877;50,07072
 964,04; 7504,065;  234,117;14735,646;50,13229
 964,59; 7441,450;  203,348;14598,338;50,28209
 965,14; 7459,988;  239,733;14495,877;50,64662
 965,69; 7377,219;  226,656;14423,108;50,36867
 966,24; 7399,296;  221,579;14324,569;50,89500
 966,79; 7390,758;  233,502;14256,800;51,03832
 967,34; 7304,835;  203,194;14163,338;50,87082
 967,89; 7312,527;  216,963;14142,108;50,95504
 968,44; 7272,681;  227,040;14020,262;51,08046
 968,99; 7302,604;  238,887;13980,492;51,40387
 969,55; 7327,912;  234,194;13892,723;51,93617
 970,10; 7214,142;  233,348;13798,185;51,46243
 970,65; 7225,142;  240,040;13688,492;51,93982
 971,20; 7177,681;  216,348;13657,108;51,79270
 971,75; 7116,835;  202,117;13495,031;52,01807
 972,30; 7137,758;  220,040;13411,723;52,43999
 972,85; 7120,604;  209,271;13331,338;52,66954
 973,40; 7044,604;  213,887;13211,185;52,55490
 973,95; 7061,758;  231,194;13158,954;52,83641
 974,50; 7038,604;  246,502;13112,185;52,79239
 975,05; 6997,296;  224,040;12960,723;53,17912
 975,60; 6952,681;  243,271;12940,185;52,84284
 976,15; 6899,142;  216,271;12856,492;52,86989
 976,70; 6905,758;  224,733;12813,569;53,07103
 977,25; 6869,373;  232,963;12737,338;53,07270
 977,80; 6764,527;  216,040;12609,108;52,83992
 978,35; 6741,988;  244,194;12436,646;53,29358
 978,89; 6696,142;  205,579;12416,723;53,15279
 979,44; 6716,835;  224,656;12397,262;53,33434
 979,99; 6629,988;  215,348;12183,800;53,59624
 980,54; 6617,912;  242,271;12102,185;53,75790
 981,09; 6582,065;  246,579;12018,492;53,81866
 981,64; 6541,065;  227,963;11855,492;54,29444
 982,19; 6526,373;  257,810;11853,108;54,06125
 982,74; 6523,142;  238,502;11709,338;54,78799
 983,29; 6416,988;  219,810;11567,569;54,61147
 983,84; 6362,681;  235,810;11517,877;54,30628
 984,39; 6367,681;  297,040;11455,031;54,40622
 984,94; 6279,527;  208,117;11331,262;54,58357
 985,49; 6306,988;  251,425;11260,108;55,00716
 986,03; 6255,065;  250,963;11164,723;55,01406
 986,58; 6196,450;  272,117;11078,338;54,82335
 987,13; 6116,065;  233,194;10914,569;55,07597
 987,68; 6069,373;  238,963;10783,492;55,29322
 988,23; 6051,758;  253,579;10731,646;55,33634
 988,78; 5996,604;  222,810;10619,108;55,53702
 989,33; 6007,450;  251,502;10543,569;55,92606
 989,88; 5994,604;  264,963;10469,646;56,14717
 990,42; 5908,527;  235,425;10364,415;56,00856
 990,97; 5788,142;  228,579;10242,415;55,51882
 991,52; 5768,912;  253,656;10198,415;55,45891
 992,07; 5732,912;  272,656;10096,338;55,58257
 992,62; 5665,142;  241,271; 9974,338;55,72623
 993,17; 5678,142;  257,733; 9848,569;56,51655
 993,71; 5619,527;  250,271; 9817,954;56,11866
 994,26; 5556,604;  230,733; 9626,262;56,68517
 994,81; 5546,912;  258,810; 9635,262;56,39769
 995,36; 5451,450;  228,887; 9457,569;56,59056
 995,91; 5457,219;  237,810; 9411,492;56,89547
 996,45; 5434,527;  240,502; 9291,338;57,38724
 997,00; 5342,219;  216,271; 9174,877;57,21815
 997,55; 5330,758;  238,810; 9163,108;57,05713
 998,10; 5284,296;  257,579; 9031,031;57,29464
 998,65; 5207,065;  228,579; 8961,031;57,01132
 999,19; 5169,373;  255,425; 8856,569;57,13133
 999,74; 5114,912;  267,194; 8783,338;56,92385
1000,29; 5076,219;  249,579; 8710,338;57,04736
1000,84; 4986,527;  238,963; 8544,338;57,16254
1001,38; 4941,912;  240,502; 8451,569;57,25699
1001,93; 4916,681;  249,194; 8414,262;57,16409
1002,48; 4883,142;  218,579; 8240,185;58,15000
1003,03; 4826,219;  250,117; 8217,877;57,43273
1003,57; 4836,758;  239,425; 8132,415;58,24577
1004,12; 4769,758;  271,656; 8023,415;58,02685
1004,67; 4723,912;  232,502; 7896,338;58,60524
1005,22; 4637,373;  219,733; 7790,723;58,34957
1005,76; 4547,988;  218,963; 7644,338;58,30042
1006,31; 4527,450;  246,502; 7624,185;58,02565
1006,86; 4496,142;  233,502; 7478,646;58,83444
1007,40; 4389,604;  216,579; 7400,800;58,08598
1007,95; 4391,835;  235,502; 7289,185;58,92429
1008,50; 4317,604;  244,425; 7210,492;58,47171
1009,04; 4276,604;  231,656; 7102,031;58,87522
1009,59; 4185,988;  243,733; 6969,262;58,61629
1010,14; 4116,988;  221,810; 6848,877;58,77681
1010,68; 4100,681;  233,656; 6776,415;59,10388
1011,23; 4043,681;  229,656; 6692,031;59,01894
1011,78; 4023,373;  249,579; 6658,415;58,88423
1012,32; 3954,219;  255,887; 6525,723;58,98611
1012,87; 3988,219;  259,502; 6550,492;59,27075
1013,42; 3847,912;  222,963; 6384,338;58,83343
1013,96; 3911,835;  265,733; 6379,723;59,63539
1014,51; 3817,373;  194,194; 6280,877;59,52633
1015,06; 3839,527;  204,348; 6287,954;59,75369
1015,60; 3876,988;  271,425; 6351,492;59,30137
1016,15; 3850,450;  229,348; 6284,108;59,80587
1016,69; 3902,758;  236,348; 6322,877;60,23810
1017,24; 3866,142;  214,733; 6312,262;59,88343
1017,79; 3954,219;  264,040; 6395,800;60,18140
1018,33; 3948,296;  224,271; 6389,492;60,40375
1018,88; 3983,988;  246,963; 6421,569;60,52249
1019,42; 4023,296;  231,887; 6428,877;61,18147
1019,97; 3998,373;  223,117; 6424,492;60,87772
1020,51; 4072,681;  257,810; 6518,415;60,93454
1021,06; 4034,681;  227,040; 6444,415;61,24193
1021,61; 4021,373;  202,040; 6436,646;61,26021
1022,15; 4004,296;  193,040; 6387,723;61,52463
1022,70; 4033,912;  231,348; 6428,954;61,35536
1023,24; 4028,758;  218,040; 6360,723;62,03669
1023,79; 3997,604;  225,733; 6285,185;62,24773
1024,33; 3979,527;  238,502; 6243,723;62,29621
1024,88; 3953,912;  237,810; 6147,646;62,87994
1025,42; 3880,373;  227,810; 6068,800;62,53329
1025,97; 3835,450;  222,425; 5988,262;62,66263
1026,51; 3741,450;  185,733; 5866,185;62,59568
1027,06; 3732,373;  216,887; 5799,877;62,96781
1027,60; 3677,604;  230,887; 5729,877;62,67909
1028,15; 3642,450;  239,579; 5657,954;62,80243
1028,69; 3535,988;  197,810; 5499,492;62,96452
1029,24; 3522,835;  205,579; 5504,108;62,60711
1029,78; 3468,373;  220,810; 5407,954;62,60793
1030,33; 3398,912;  204,810; 5274,415;63,00494
1030,87; 3371,835;  217,271; 5212,646;63,14968
1031,42; 3285,527;  210,579; 5106,108;62,81136
1031,96; 3299,758;  233,117; 5087,108;63,17772
1032,51; 3222,373;  210,810; 4997,877;62,91041
1033,05; 3219,988;  221,425; 4939,492;63,55491
1033,60; 3129,912;  193,502; 4842,108;63,16753
1034,14; 3068,988;  217,194; 4740,338;63,04893
1034,69; 3077,681;  217,810; 4734,800;63,31364
1035,23; 3042,296;  223,963; 4670,338;63,38495
1035,77; 2997,296;  206,348; 4589,723;63,67121
1036,32; 2965,450;  202,348; 4498,723;64,31240
1036,86; 2929,296;  223,887; 4455,338;63,93573
1037,41; 2895,219;  235,579; 4392,646;63,97877
1037,95; 2829,450;  202,194; 4299,262;64,12528
1038,50; 2814,758;  213,425; 4267,262;64,16965
1039,04; 2791,681;  234,425; 4237,492;63,88241
1039,58; 2755,681;  195,963; 4155,415;64,64827
1040,13; 2714,527;  223,194; 4076,954;64,64681
1040,67; 2715,296;  252,271; 4112,800;63,80020
1041,21; 2675,219;  254,502; 4004,954;64,54468
1041,76; 2578,373;  203,502; 3916,723;63,95717
1042,30; 2569,219;  213,579; 3875,800;64,32272
1042,85; 2525,604;  214,579; 3803,877;64,38654
1043,39; 2490,373;  204,656; 3776,262;63,99691
1043,93; 2495,604;  242,887; 3720,185;64,78355
1044,48; 2435,450;  232,887; 3651,646;64,42581
1045,02; 2383,065;  228,810; 3589,954;64,09293
1045,56; 2388,758;  236,040; 3571,723;64,53603
1046,11; 2390,912;  223,425; 3528,877;65,57308
1046,65; 2336,296;  226,963; 3464,800;65,14636
1047,19; 2291,450;  219,656; 3415,108;64,83572
1047,74; 2263,219;  205,271; 3355,185;65,33348
1048,28; 2254,988;  237,887; 3336,031;65,10678
1048,82; 2231,912;  243,117; 3300,800;65,04253
1049,37; 2210,373;  236,579; 3249,646;65,50780
1049,91; 2177,988;  228,425; 3218,492;65,20132
1050,45; 2161,296;  236,425; 3167,569;65,66962
1050,99; 2112,296;  230,963; 3094,031;65,71039
1051,54; 2077,142;  212,656; 3051,338;65,68140
1052,08; 2070,988;  250,810; 3051,031;65,00125
1052,62; 2053,912;  245,040; 2967,262;66,44835
1053,16; 2018,604;  220,502; 2939,031;66,14246
1053,71; 1995,219;  231,348; 2928,800;65,39027
1054,25; 1987,296;  250,348; 2871,723;66,26095
1054,79; 1942,065;  236,194; 2834,723;65,64757
1055,33; 1906,296;  205,425; 2745,338;66,96571
1055,88; 1900,527;  227,733; 2742,031;66,53126
1056,42; 1877,373;  248,271; 2701,108;66,41706
1056,96; 1856,835;  240,579; 2691,954;65,93262
1057,50; 1862,527;  231,117; 2631,646;67,96043
1058,05; 1815,912;  230,194; 2593,492;67,09764
1058,59; 1803,835;  261,040; 2549,723;67,40970
1059,13; 1723,604;  220,963; 2494,877;66,08169
1059,67; 1750,450;  243,040; 2494,877;66,94134
1060,21; 1703,296;  227,502; 2447,338;66,48211
1060,76; 1718,604;  240,963; 2425,646;67,63638
1061,30; 1675,912;  260,040; 2402,108;66,09835
1061,84; 1641,758;  229,425; 2340,569;66,89892
1062,38; 1597,681;  224,963; 2288,569;66,52033
1062,92; 1629,604;  266,348; 2291,569;67,31392
1063,46; 1579,450;  242,502; 2226,338;67,39205
1064,01; 1546,912;  221,579; 2198,954;67,02485
1064,55; 1546,988;  237,271; 2185,185;67,23693
1065,09; 1486,219;  209,502; 2115,800;66,97365
1065,63; 1528,373;  256,656; 2158,185;66,87868
1066,17; 1507,065;  264,810; 2132,108;66,52691
1066,71; 1493,912;  244,733; 2082,262;67,98146
1067,25; 1418,758;  235,733; 2033,262;65,81396
1067,80; 1464,296;  249,810; 2043,492;67,70911
1068,34; 1441,758;  265,271; 2001,723;67,75232
1068,88; 1381,912;  232,502; 1952,262;66,83548
1069,42; 1400,758;  263,810; 1965,877;66,79807
1069,96; 1361,604;  228,194; 1935,415;66,38915
1070,50; 1400,219;  274,117; 1929,108;68,04281
1071,04; 1325,681;  226,117; 1859,031;67,33752
1071,58; 1325,912;  233,271; 1835,646;68,18881
1072,12; 1310,219;  241,040; 1829,108;67,32579
1072,66; 1305,450;  227,656; 1794,877;68,77104
1073,21; 1322,065;  263,579; 1804,108;68,70930
1073,75; 1294,912;  238,656; 1770,108;68,97087
1074,29; 1254,758;  239,040; 1763,492;66,62836
1074,83; 1276,604;  255,656; 1743,415;68,62319
1075,37; 1268,912;  259,656; 1720,185;69,10208
1075,91; 1248,604;  253,040; 1706,492;68,49648
1076,45; 1211,988;  243,194; 1687,877;67,05931
1076,99; 1198,450;  248,502; 1652,185;67,67541
1077,53; 1166,065;  221,502; 1613,492;67,85704
1078,07; 1194,681;  246,887; 1641,646;67,95395
1078,61; 1169,065;  244,887; 1574,723;69,49567
1079,15; 1151,296;  236,271; 1582,569;67,96600
1079,69; 1154,142;  237,271; 1560,108;69,31099
1080,23; 1148,912;  266,810; 1560,646;68,17723
1080,77; 1159,450;  285,502; 1570,800;67,99575
1081,31; 1099,835;  228,579; 1496,492;68,71571
1081,85; 1104,450;  243,810; 1501,954;68,40554
1082,39; 1091,065;  232,194; 1446,031;70,75674
1082,93; 1075,527;  250,887; 1446,800;68,95485
1083,47; 1035,527;  234,117; 1421,415;67,49860
1084,01; 1073,065;  253,810; 1440,415;69,04195
1084,55; 1051,142;  233,963; 1397,185;70,25137
1085,09; 1059,373;  255,040; 1391,646;70,76620
1085,63; 1038,835;  245,579; 1357,108;71,36619
1086,17; 1009,758;  233,502; 1338,415;70,25489
1086,71;  993,296;  231,425; 1309,723;70,65497
1087,24; 1020,142;  266,502; 1353,877;69,30823
1087,78; 1006,450;  255,963; 1318,492;70,63211
1088,32;  955,988;  226,271; 1264,415;70,29055
1088,86;  979,219;  255,733; 1294,415;69,65424
1089,40;  954,681;  243,348; 1259,723;69,98723
1089,94;  923,450;  225,348; 1232,954;69,28324
1090,48;  923,065;  257,733; 1234,185;68,13778
1091,02;  938,296;  253,963; 1229,800;70,12780
1091,56;  914,835;  252,656; 1207,338;69,36114
1092,10;  899,988;  228,348; 1182,646;70,38057
1092,63;  911,835;  257,963; 1209,723;68,70129
1093,17;  895,835;  256,502; 1174,185;69,66817
1093,71;  882,296;  238,194; 1144,338;71,08161
1094,25;  891,142;  257,425; 1153,492;70,72207
1094,79;  848,604;  248,425; 1127,800;68,25062
1095,33;  868,142;  256,271; 1120,031;70,83813
1095,87;  856,604;  251,425; 1102,492;71,10822
1096,40;  809,450;  223,963; 1088,492;67,72319
1096,94;  827,373;  242,117; 1075,877;70,19478
1097,48;  831,758;  252,040; 1080,031;70,01498
1098,02;  814,296;  245,040; 1037,646;71,82080
1098,56;  782,681;  212,348; 1026,800;70,02656
1099,10;  776,835;  227,348; 1004,877;70,67089
1099,63;  773,296;  233,040;  997,723;70,65097
1100,17;  789,604;  248,963; 1012,646;70,79385
1100,71;  796,296;  262,733; 1020,338;70,42759

