
Integration time [ms]: 120,000
Averaging Nr. [scans]: 13
Smoothing Nr. [pixels]: 0
Data measured with spectrometer [name]: 2009305U1
Wave   ;Sample   ;Dark     ;Reference;Reflectance
[nm]   ;[counts] ;[counts] ;[counts] ;[%]

 175,72;  211,212;  202,886;  214,253;73,25227
 176,32;  231,832;  236,502;  224,563; 0,00000
 176,92;  254,692;  261,810;  259,279; 0,00000
 177,52;  256,369;  256,040;  268,411; 2,66048
 178,12;  231,588;  228,579;  233,833;57,26726
 178,72;  276,349;  258,810;  256,007; 0,00000
 179,32;  244,973;  260,733;  253,210; 0,00000
 179,92;  249,159;  251,194;  250,799; 0,00000
 180,52;  234,986;  248,194;  249,355;-1137,59653
 181,12;  255,952;  252,963;  254,248;232,72598
 181,73;  269,964;  279,733;  279,385; 0,00000
 182,33;  354,198;  348,886;  358,111;57,58143
 182,93;  269,088;  273,348;  275,613;-188,07680
 183,53;  241,492;  241,425;  236,281; 0,00000
 184,13;  244,387;  249,502;  235,332; 0,00000
 184,73;  278,725;  275,272;  271,335; 0,00000
 185,33;  256,567;  236,428;  336,101;20,20496
 185,93;  264,938;  234,583;  359,342;24,33135
 186,53;  270,804;  252,198;  384,040;14,11216
 187,13;  306,944;  282,736;  409,296;19,12806
 187,73;  264,770;  254,890;  367,277; 8,79072
 188,33;  264,238;  248,737;  369,705;12,81452
 188,93;  267,311;  255,430;  366,881;10,66054
 189,53;  263,879;  251,969;  374,863; 9,69135
 190,13;  305,431;  287,585;  411,451;14,40773
 190,73;  247,169;  233,430;  364,758;10,46161
 191,34;  279,651;  259,584;  390,135;15,37091
 191,94;  262,053;  241,583;  374,569;15,39261
 192,54;  282,037;  259,889;  412,605;14,50269
 193,14;  288,523;  261,198;  394,187;20,54686
 193,74;  283,410;  260,890;  382,181;18,56657
 194,34;  274,315;  260,505;  382,000;11,36623
 194,94;  252,087;  222,505;  351,466;22,93852
 195,54;  233,926;  209,121;  329,710;20,56976
 196,14;  260,850;  234,043;  365,416;20,40518
 196,74;  252,826;  222,736;  356,742;22,45405
 197,34;  232,663;  205,659;  339,451;20,18366
 197,94;  262,867;  232,351;  378,492;20,88112
 198,54;  268,299;  243,428;  386,908;17,33398
 199,14;  244,235;  223,966;  379,479;13,03371
 199,74;  223,594;  205,351;  372,661;10,90382
 200,34;  235,951;  202,428;  400,858;16,89441
 200,94;  262,690;  238,736;  424,673;12,88327
 201,54;  249,763;  213,428;  425,103;17,16559
 202,14;  270,320;  244,043;  464,005;11,94605
 202,74;  253,531;  219,351;  461,776;14,09910
 203,34;  231,968;  193,735;  478,391;13,43131
 203,94;  221,344;  181,966;  496,607;12,51526
 204,54;  272,776;  242,813;  571,497; 9,11625
 205,14;  240,684;  206,274;  583,049; 9,13281
 205,74;  288,020;  248,274;  675,642; 9,30023
 206,34;  257,025;  206,197;  683,700;10,64459
 206,94;  275,001;  217,274;  760,936;10,61827
 207,54;  248,039;  184,428;  772,738;10,81248
 208,14;  262,152;  217,735;  847,890; 7,04861
 208,74;  275,851;  207,735;  933,625; 9,38378
 209,34;  283,645;  205,043; 1021,039; 9,63260
 209,94;  303,991;  228,043; 1123,399; 8,48247
 210,54;  306,112;  209,735; 1225,007; 9,49271
 211,14;  317,351;  215,351; 1308,727; 9,32890
 211,73;  332,162;  223,120; 1428,637; 9,04520
 212,33;  340,409;  230,889; 1519,106; 8,50161
 212,93;  338,826;  212,505; 1626,646; 8,93274
 213,53;  321,518;  188,966; 1698,269; 8,78231
 214,13;  346,977;  201,043; 1758,559; 9,36966
 214,73;  337,089;  185,428; 1791,774; 9,44138
 215,33;  319,376;  188,658; 1829,553; 7,96624
 215,93;  362,277;  204,120; 1943,802; 9,09115
 216,53;  349,634;  174,428; 2018,775; 9,49966
 217,13;  416,535;  215,427; 2222,682;10,01903
 217,73;  423,687;  204,351; 2416,551; 9,91484
 218,33;  419,001;  151,427; 2607,742;10,89329
 218,93;  475,296;  195,196; 2888,264;10,40077
 219,53;  514,052;  206,120; 3172,770;10,37980
 220,13;  530,485;  173,427; 3452,633;10,88855
 220,73;  590,093;  194,274; 3805,609;10,96048
 221,32;  638,159;  200,428; 4215,010;10,90353
 221,92;  708,858;  196,581; 4630,656;11,55318
 222,52;  734,289;  174,274; 5017,128;11,56374
 223,12;  792,980;  190,889; 5440,521;11,46921
 223,72;  872,954;  204,581; 5856,549;11,82549
 224,32;  897,594;  198,427; 6211,109;11,62821
 224,92;  931,338;  192,120; 6488,018;11,74127
 225,52;  994,668;  215,428; 6819,349;11,79966
 226,12; 1032,933;  202,658; 7124,839;11,99440
 226,72; 1045,357;  171,351; 7400,541;12,08996
 227,31; 1098,716;  160,274; 7750,450;12,36390
 227,91; 1179,323;  201,812; 8154,932;12,29091
 228,51; 1221,792;  182,120; 8521,044;12,46769
 229,11; 1278,293;  187,043; 8878,963;12,55476
 229,71; 1322,673;  175,120; 9158,296;12,77446
 230,31; 1371,541;  181,658; 9533,880;12,72299
 230,91; 1411,347;  174,813; 9847,932;12,78320
 231,51; 1448,507;  168,043;10155,152;12,82117
 232,10; 1517,334;  170,043;10488,064;13,05765
 232,70; 1550,699;  196,351;10637,077;12,97178
 233,30; 1616,047;  203,504;10982,179;13,10497
 233,90; 1630,790;  175,351;11123,242;13,29425
 234,50; 1630,110;  184,581;11182,491;13,14367
 235,10; 1663,415;  182,043;11331,633;13,28634
 235,70; 1713,182;  199,812;11398,781;13,51347
 236,29; 1725,890;  200,582;11347,754;13,68337
 236,89; 1688,769;  176,274;11296,000;13,60191
 237,49; 1717,228;  192,889;11256,101;13,77844
 238,09; 1676,794;  180,581;11083,700;13,72280
 238,69; 1690,901;  216,967;10925,828;13,76369
 239,29; 1633,847;  182,197;10627,175;13,89807
 239,89; 1606,718;  199,197;10325,321;13,89989
 240,48; 1548,384;  175,889;10003,455;13,96577
 241,08; 1535,360;  182,351; 9657,845;14,27904
 241,68; 1496,448;  216,735; 9405,264;13,92728
 242,28; 1444,906;  164,889; 9092,140;14,33831
 242,88; 1449,951;  217,120; 8844,048;14,29050
 243,48; 1405,253;  210,428; 8539,688;14,34492
 244,07; 1340,836;  198,197; 8305,456;14,09402
 244,67; 1345,178;  212,428; 8180,638;14,21586
 245,27; 1331,085;  207,582; 8020,637;14,37982
 245,87; 1341,465;  202,735; 7940,984;14,71560
 246,47; 1312,956;  195,120; 7905,266;14,49825
 247,06; 1293,526;  188,658; 7917,206;14,29593
 247,66; 1321,050;  182,658; 8001,876;14,55889
 248,26; 1356,045;  213,889; 8155,823;14,38133
 248,86; 1398,443;  196,274; 8323,092;14,79262
 249,46; 1373,456;  170,581; 8488,355;14,46150
 250,05; 1440,513;  208,505; 8889,937;14,19130
 250,65; 1475,060;  166,582; 9173,342;14,52774
 251,25; 1574,886;  189,658; 9635,681;14,66467
 251,85; 1645,833;  187,120;10180,646;14,59658
 252,44; 1710,364;  158,197;10737,534;14,67169
 253,04; 1835,247;  200,120;11459,686;14,52212
 253,64; 1932,869;  153,043;12098,464;14,89965
 254,24; 2075,231;  200,581;12955,909;14,69699
 254,84; 2207,533;  183,504;13809,432;14,85425
 255,43; 2346,633;  180,043;14792,636;14,82687
 256,03; 2484,868;  188,120;15635,471;14,86823
 256,63; 2651,051;  193,505;16648,755;14,93472
 257,23; 2763,935;  179,736;17466,164;14,94930
 257,82; 2956,236;  190,659;18317,750;15,25660
 258,42; 3054,123;  171,428;19093,814;15,23431
 259,02; 3217,337;  210,505;20034,920;15,16732
 259,62; 3330,356;  169,274;20667,680;15,42111
 260,21; 3435,685;  180,889;21124,964;15,54041
 260,81; 3525,754;  197,581;21563,090;15,57731
 261,41; 3593,237;  167,505;21953,623;15,72438
 262,01; 3717,217;  208,813;22371,429;15,83028
 262,60; 3751,397;  165,582;22700,703;15,91212
 263,20; 3838,175;  182,274;22984,717;16,03293
 263,80; 3906,769;  213,044;23145,817;16,10675
 264,40; 3931,857;  172,736;23239,186;16,29692
 264,99; 3989,693;  199,659;23434,194;16,31207
 265,59; 4007,624;  188,813;23637,145;16,28607
 266,19; 4034,128;  168,428;23854,922;16,32027
 266,78; 4123,145;  223,736;23827,111;16,52056
 267,38; 4080,622;  186,352;23809,664;16,48486
 267,98; 4094,632;  176,275;23888,705;16,52449
 268,58; 4110,212;  192,352;23919,496;16,51214
 269,17; 4076,462;  175,352;23946,242;16,41129
 269,77; 4126,310;  192,120;23651,977;16,76988
 270,37; 4074,937;  163,967;23594,736;16,69160
 270,96; 4089,377;  229,890;23477,474;16,60167
 271,56; 4024,718;  192,966;23174,664;16,67306
 272,16; 4019,250;  177,044;23038,738;16,80631
 272,75; 3991,058;  193,813;22949,456;16,68705
 273,35; 4006,466;  182,351;22947,835;16,79786
 273,95; 3955,955;  186,120;22897,791;16,59867
 274,54; 3961,295;  168,966;22845,018;16,72394
 275,14; 4039,324;  209,736;23211,307;16,64925
 275,74; 4035,058;  167,967;23262,106;16,74490
 276,33; 4139,502;  212,120;23670,379;16,74200
 276,93; 4232,755;  195,274;24000,998;16,96013
 277,53; 4293,864;  188,966;24480,551;16,89844
 278,12; 4364,921;  170,120;24882,707;16,97435
 278,72; 4522,852;  220,659;25607,498;16,94655
 279,32; 4582,456;  185,966;26004,984;17,02811
 279,91; 4756,996;  164,812;26785,849;17,25021
 280,51; 4835,261;  183,043;27319,255;17,14395
 281,11; 4995,355;  190,120;27968,527;17,29845
 281,70; 5099,766;  170,736;28412,107;17,45323
 282,30; 5246,949;  178,505;28968,664;17,60478
 282,90; 5383,295;  191,813;29335,835;17,81320
 283,49; 5567,902;  204,813;29850,094;18,09087
 284,09; 5684,792;  220,197;30314,267;18,15838
 284,69; 5803,059;  211,120;30676,434;18,35510
 285,28; 5968,126;  199,966;31044,701;18,70063
 285,88; 6087,058;  241,428;31267,217;18,84120
 286,47; 6138,167;  192,428;31271,345;19,13110
 287,07; 6300,559;  222,120;31492,417;19,43838
 287,67; 6426,715;  205,428;31487,842;19,88749
 288,26; 6575,328;  177,659;31433,606;20,46865
 288,86; 6666,754;  186,889;31461,481;20,71926
 289,46; 6879,021;  197,428;31623,521;21,26129
 290,05; 7042,759;  187,966;31607,345;21,81708
 290,65; 7259,194;  194,659;31866,156;22,30566
 291,24; 7496,814;  196,274;31915,746;23,01596
 291,84; 7713,205;  207,659;32091,063;23,54061
 292,44; 7920,458;  196,966;32171,186;24,15537
 293,03; 8222,648;  263,735;32350,547;24,80431
 293,63; 8319,654;  186,351;32543,282;25,13620
 294,22; 8531,445;  213,197;32649,881;25,64457
 294,82; 8601,485;  189,121;32769,966;25,81997
 295,41; 8644,997;  181,889;32461,722;26,21794
 296,01; 8818,546;  219,505;32380,643;26,73737
 296,61; 8802,135;  201,735;32124,057;26,94165
 297,20; 8764,558;  194,736;31846,388;27,07543
 297,80; 8819,129;  202,658;31633,357;27,41419
 298,39; 8749,372;  184,659;31252,493;27,56778
 298,99; 8797,095;  212,274;31083,950;27,80808
 299,58; 8731,434;  203,120;30912,072;27,77143
 300,18; 8720,335;  222,428;30839,754;27,75522
 300,78; 8638,812;  190,735;30427,035;27,94018
 301,37; 8613,707;  210,121;30360,455;27,87228
 301,97; 8604,919;  204,428;30473,968;27,75229
 302,56; 8584,873;  192,890;30297,075;27,87647
 303,16; 8522,247;  179,197;30194,819;27,79569
 303,75; 8543,080;  186,812;30292,221;27,75670
 304,35; 8604,455;  189,581;30519,139;27,74479
 304,94; 8524,470;  189,351;30455,364;27,53953
 305,54; 8572,851;  205,966;30414,317;27,69726
 306,13; 8437,493;  160,504;30389,472;27,38098
 306,73; 8381,112;  174,504;30209,665;27,32333
 307,33; 8322,510;  198,043;30187,156;27,09139
 307,92; 8342,904;  198,582;30198,638;27,14769
 308,52; 8388,670;  174,274;30562,024;27,03193
 309,11; 8561,522;  188,582;30980,083;27,19237
 309,71; 8543,769;  169,505;31409,706;26,80605
 310,30; 8615,097;  176,505;31509,075;26,93233
 310,90; 8666,250;  213,889;31888,998;26,68455
 311,49; 8651,725;  194,582;32070,343;26,53158
 312,09; 8646,437;  162,120;32165,614;26,51060
 312,68; 8727,287;  242,274;32598,653;26,22362
 313,28; 8670,288;  162,505;32749,253;26,10811
 313,87; 8660,379;  153,659;32846,403;26,02021
 314,47; 8691,571;  186,967;33115,126;25,82776
 315,06; 8678,352;  170,428;33197,019;25,76083
 315,66; 8658,591;  169,351;33394,153;25,55091
 316,25; 8609,387;  160,736;33337,011;25,46594
 316,85; 8510,117;  160,351;33403,688;25,11711
 317,44; 8533,495;  175,274;33484,692;25,09267
 318,04; 8508,398;  157,351;33544,541;25,01273
 318,63; 8427,047;  168,197;33588,018;24,71243
 319,22; 8425,822;  182,120;33732,082;24,57142
 319,82; 8387,588;  178,659;33856,351;24,37498
 320,41; 8273,937;  204,043;33677,799;24,10812
 321,01; 8199,938;  199,274;33829,393;23,79018
 321,60; 8176,293;  185,274;33806,977;23,76744
 322,20; 8067,455;  172,812;33782,649;23,48908
 322,79; 8013,365;  210,735;33976,603;23,10804
 323,39; 8002,635;  172,966;34015,257;23,13575
 323,98; 7927,390;  168,043;33951,241;22,96806
 324,58; 7830,837;  172,736;33805,455;22,76979
 325,17; 7728,720;  185,582;33734,222;22,48418
 325,76; 7646,841;  205,582;33616,207;22,27213
 326,36; 7523,515;  173,120;33254,411;22,21919
 326,95; 7408,023;  199,505;32984,694;21,98712
 327,55; 7282,050;  174,043;32616,539;21,90955
 328,14; 7081,218;  180,812;32335,871;21,45978
 328,74; 7020,822;  205,351;31792,817;21,57650
 329,33; 6895,285;  198,043;31487,061;21,40445
 329,92; 6748,149;  164,505;31012,632;21,34212
 330,52; 6557,268;  194,043;30355,557;21,09717
 331,11; 6416,613;  183,966;30015,561;20,89277
 331,71; 6226,457;  189,505;29379,388;20,68166
 332,30; 6112,777;  202,197;28964,056;20,55006
 332,89; 6035,606;  227,428;28481,791;20,55675
 333,49; 5832,497;  199,351;27864,817;20,36165
 334,08; 5739,499;  191,889;27511,186;20,30656
 334,68; 5581,614;  193,505;27072,400;20,04587
 335,27; 5440,959;  201,812;26754,803;19,73091
 335,86; 5453,228;  239,889;26513,330;19,84262
 336,46; 5326,664;  194,428;26268,199;19,68352
 337,05; 5243,511;  183,813;26067,162;19,54808
 337,65; 5176,703;  173,813;26075,676;19,31479
 338,24; 5222,352;  232,120;25997,027;19,36833
 338,83; 5122,505;  211,505;25833,685;19,16699
 339,43; 5074,553;  175,120;25884,022;19,05734
 340,02; 5055,887;  195,890;25775,602;18,99942
 340,61; 5016,109;  176,274;25788,589;18,89651
 341,21; 5078,976;  209,813;25862,432;18,98115
 341,80; 5011,396;  185,351;25820,403;18,82596
 342,40; 4989,729;  189,966;25815,138;18,73066
 342,99; 4995,068;  184,889;25916,022;18,69400
 343,58; 4994,900;  188,351;26076,522;18,56659
 344,18; 5021,835;  197,889;26284,422;18,49209
 344,77; 5047,311;  182,197;26547,850;18,45247
 345,36; 5046,561;  170,120;26860,156;18,27064
 345,96; 5131,387;  209,889;27115,306;18,29185
 346,55; 5155,417;  181,504;27346,653;18,30990
 347,14; 5226,152;  178,581;27617,274;18,39581
 347,74; 5269,217;  157,581;28018,754;18,34681
 348,33; 5381,949;  186,120;28696,644;18,22425
 348,92; 5502,892;  196,889;29244,677;18,26646
 349,52; 5567,587;  157,350;29666,997;18,33379
 350,11; 5585,529;  185,043;29898,258;18,17537
 350,70; 5641,378;  182,812;30043,991;18,27981
 351,29; 5555,350;  177,659;29821,173;18,14121
 351,89; 5561,586;  188,736;29913,883;18,07510
 352,48; 5605,878;  162,197;29795,470;18,37017
 353,07; 5552,420;  191,889;29824,384;18,09004
 353,67; 5581,686;  198,581;29731,006;18,22778
 354,26; 5517,627;  184,043;29434,935;18,23392
 354,85; 5511,539;  188,812;29332,440;18,26378
 355,45; 5497,512;  171,813;29224,412;18,33123
 356,04; 5491,663;  179,812;29136,514;18,34412
 356,63; 5523,266;  216,043;28939,013;18,47728
 357,22; 5460,206;  186,505;28850,138;18,39858
 357,82; 5413,485;  186,198;28602,308;18,39551
 358,41; 5465,508;  209,736;28457,074;18,60626
 359,00; 5455,181;  176,274;28327,452;18,75199
 359,60; 5452,800;  189,274;28233,366;18,76875
 360,19; 5427,034;  179,966;28068,903;18,81416
 360,78; 5453,986;  199,351;27988,969;18,90862
 361,37; 5418,498;  181,659;27727,305;19,01150
 361,97; 5448,047;  187,351;27642,220;19,16125
 362,56; 5393,466;  181,582;27310,954;19,21122
 363,15; 5421,717;  232,889;27156,483;19,27242
 363,74; 5375,866;  186,351;26775,123;19,51769
 364,34; 5355,348;  210,120;26303,456;19,71855
 364,93; 5284,736;  181,813;25956,887;19,79790
 365,52; 5241,228;  153,505;25583,023;20,00716
 366,11; 5246,425;  178,043;25307,498;20,16909
 366,71; 5192,822;  183,813;24973,774;20,20580
 367,30; 5164,305;  191,813;24528,603;20,43200
 367,89; 5183,860;  222,428;24395,366;20,52474
 368,48; 5158,506;  199,351;24142,025;20,71262
 369,07; 5115,070;  192,043;23618,453;21,01486
 369,67; 5094,813;  207,659;23342,537;21,12462
 370,26; 5041,326;  178,659;23107,740;21,20743
 370,85; 5043,677;  187,428;22796,515;21,47919
 371,44; 5065,817;  190,889;22626,101;21,72891
 372,03; 5014,899;  172,659;22354,886;21,82937
 372,63; 5015,241;  161,197;22096,153;22,12926
 373,22; 4985,007;  177,582;21745,260;22,28995
 373,81; 4936,126;  162,582;21484,393;22,38808
 374,40; 4983,230;  169,735;21237,763;22,84739
 374,99; 4955,192;  174,428;21021,717;22,93230
 375,59; 4949,295;  169,120;20697,787;23,28537
 376,18; 4976,460;  191,966;20598,819;23,44553
 376,77; 4993,124;  198,659;20408,493;23,72343
 377,36; 5027,485;  208,505;20319,456;23,96197
 377,95; 5014,540;  203,505;20092,600;24,18931
 378,55; 4979,554;  170,197;19882,163;24,39816
 379,14; 5030,549;  189,120;19870,180;24,59943
 379,73; 5070,334;  191,351;19660,041;25,06066
 380,32; 5130,983;  199,505;19781,111;25,18424
 380,91; 5118,108;  173,582;19652,911;25,38345
 381,50; 5161,132;  194,428;19493,751;25,73512
 382,10; 5163,291;  164,659;19444,188;25,92715
 382,69; 5259,357;  160,120;19410,351;26,48923
 383,28; 5289,054;  203,120;19366,878;26,53933
 383,87; 5266,952;  175,505;19281,403;26,64856
 384,46; 5302,062;  165,813;19211,102;26,96861
 385,05; 5363,042;  207,659;19192,321;27,15552
 385,64; 5417,656;  189,274;19153,267;27,57005
 386,24; 5417,267;  165,274;19094,815;27,74496
 386,83; 5549,256;  201,428;19194,181;28,15720
 387,42; 5592,142;  198,043;19286,631;28,25824
 388,01; 5719,724;  188,352;19384,455;28,81508
 388,60; 5829,843;  181,428;19675,890;28,97446
 389,19; 5946,028;  163,890;19851,507;29,36941
 389,78; 6062,102;  172,506;20053,837;29,62375
 390,37; 6326,386;  235,198;20545,717;29,99031
 390,96; 6351,255;  185,813;20697,881;30,05763
 391,56; 6471,377;  181,814;20839,801;30,44616
 392,15; 6610,998;  172,429;21159,881;30,67819
 392,74; 6667,722;  151,968;21210,378;30,94134
 393,33; 6873,032;  182,352;21574,769;31,27594
 393,92; 7058,407;  195,045;21936,229;31,56849
 394,51; 7153,096;  165,198;22105,604;31,84945
 395,10; 7334,156;  206,353;22334,791;32,21105
 395,69; 7363,743;  197,122;22467,115;32,18061
 396,28; 7475,803;  191,276;22616,925;32,48302
 396,87; 7563,191;  200,354;22620,824;32,83980
 397,46; 7626,830;  196,277;22812,755;32,85460
 398,06; 7774,497;  207,585;23021,439;33,16805
 398,65; 7840,527;  186,971;23034,531;33,49835
 399,24; 7958,879;  204,048;23153,410;33,79105
 399,83; 7999,951;  181,434;23194,845;33,97374
 400,42; 8121,377;  216,897;23340,592;34,18347
 401,01; 8207,873;  192,744;23410,225;34,52196
 401,60; 8295,130;  206,900;23408,472;34,86070
 402,19; 8325,014;  219,055;23452,836;34,88868
 402,78; 8408,708;  218,596;23456,829;35,24413
 403,37; 8383,821;  204,675;23295,193;35,42210
 403,96; 8416,793;  206,986;23138,574;35,80130
 404,55; 8454,686;  217,604;23104,145;35,99094
 405,14; 8432,749;  202,607;22971,214;36,14688
 405,73; 8412,327;  213,840;22778,482;36,33333
 406,32; 8433,486;  212,996;22757,039;36,46413
 406,91; 8437,221;  217,076;22488,069;36,90965
 407,50; 8468,467;  215,077;22286,033;37,39480
 408,09; 8326,560;  191,539;22091,556;37,14619
 408,68; 8409,427;  207,925;21913,293;37,78560
 409,27; 8304,490;  193,770;21733,089;37,65542
 409,86; 8313,364;  206,306;21625,582;37,84935
 410,45; 8336,580;  233,151;21523,443;38,06161
 411,04; 8333,462;  223,996;21489,152;38,13499
 411,63; 8298,070;  218,147;21239,526;38,43670
 412,22; 8269,545;  215,145;21033,757;38,68846
 412,81; 8169,792;  229,222;20785,249;38,62891
 413,40; 8101,173;  237,144;20533,190;38,74661
 413,99; 8050,618;  278,067;20126,196;39,16012
 414,58; 7844,728;  196,990;19770,317;39,07224
 415,17; 7840,535;  210,914;19589,046;39,37233
 415,76; 7761,111;  206,145;19412,475;39,33581
 416,35; 7725,099;  202,068;19219,997;39,55757
 416,94; 7804,080;  237,761;19264,907;39,76592
 417,53; 7921,802;  201,606;19490,625;40,02379
 418,12; 7960,681;  208,221;19585,976;40,00701
 418,71; 8144,967;  233,759;19823,904;40,38361
 419,30; 8174,102;  216,452;20003,289;40,21689
 419,89; 8303,828;  209,529;20200,787;40,48919
 420,48; 8439,569;  235,221;20350,440;40,78677
 421,07; 8457,488;  227,913;20547,339;40,50102
 421,66; 8521,718;  197,605;20523,452;40,95334
 422,25; 8529,244;  208,681;20441,884;41,12331
 422,84; 8583,316;  244,296;20467,133;41,23566
 423,43; 8396,006;  217,835;20204,469;40,91820
 424,02; 8378,770;  236,219;19962,138;41,27844
 424,60; 8233,073;  217,065;19606,941;41,34121
 425,19; 8168,128;  218,296;19336,560;41,58239
 425,78; 8159,254;  232,604;19274,681;41,62703
 426,37; 8057,179;  238,373;19108,498;41,43484
 426,96; 8057,230;  203,834;19034,526;41,70530
 427,55; 8011,187;  219,757;18843,583;41,83582
 428,14; 7944,987;  210,372;18597,684;42,06496
 428,73; 7873,117;  212,680;18535,934;41,80719
 429,32; 7835,732;  232,603;18493,947;41,63510
 429,91; 7943,757;  242,834;18528,494;42,11455
 430,50; 7831,530;  228,372;18356,212;41,94189
 431,08; 7796,124;  234,295;18080,146;42,37304
 431,67; 7782,603;  279,987;18101,671;42,09825
 432,26; 7714,121;  287,602;17955,940;42,03293
 432,85; 7561,047;  294,064;17598,413;41,99513
 433,44; 7429,356;  316,986;17209,777;42,10299
 434,03; 7310,712;  324,832;16901,479;42,14290
 434,62; 7132,778;  279,909;16528,690;42,17466
 435,21; 7053,122;  308,371;16289,582;42,20426
 435,79; 6984,051;  283,140;16073,929;42,43557
 436,38; 6929,625;  282,370;16032,005;42,20577
 436,97; 6918,636;  277,678;15945,304;42,38650
 437,56; 6832,126;  273,831;15686,080;42,55248
 438,15; 6817,901;  261,677;15673,361;42,54060
 438,74; 6816,719;  277,600;15653,412;42,52861
 439,33; 6801,581;  258,216;15678,154;42,43444
 439,91; 6849,994;  232,754;15758,901;42,61997
 440,50; 6868,916;  284,215;15791,105;42,46306
 441,09; 6918,672;  264,753;15927,054;42,48366
 441,68; 6915,159;  251,599;15847,027;42,72765
 442,27; 6900,382;  250,215;15855,998;42,61348
 442,86; 6889,071;  213,829;15895,016;42,56847
 443,44; 6888,256;  230,137;15949,850;42,35522
 444,03; 6957,506;  293,060;16007,625;42,40936
 444,62; 6846,109;  228,522;15839,041;42,39185
 445,21; 6807,805;  247,060;15662,234;42,56030
 445,80; 6749,879;  275,752;15579,797;42,30337
 446,39; 6708,817;  300,829;15382,504;42,48857
 446,97; 6596,030;  227,828;15161,275;42,64388
 447,56; 6468,632;  226,905;14913,420;42,49972
 448,15; 6405,428;  234,290;14828,971;42,28347
 448,74; 6317,644;  249,213;14518,444;42,52809
 449,33; 6249,712;  250,597;14418,740;42,34228
 449,91; 6117,811;  229,597;14204,505;42,13419
 450,50; 6010,276;  232,059;14000,971;41,96568
 451,09; 6039,377;  238,828;13895,427;42,47433
 451,68; 5963,768;  267,443;13811,310;42,05833
 452,26; 5944,338;  260,520;13742,481;42,15869
 452,85; 5859,432;  236,289;13641,557;41,94726
 453,44; 5858,796;  248,750;13616,667;41,96649
 454,03; 5856,154;  230,827;13558,093;42,20916
 454,61; 5831,576;  221,442;13543,266;42,11236
 455,20; 5883,018;  262,596;13727,143;41,74238
 455,79; 5873,159;  265,827;13714,342;41,69480
 456,38; 5940,789;  262,519;13841,772;41,81578
 456,97; 5926,959;  243,288;13823,702;41,85197
 457,55; 5911,578;  241,134;13864,112;41,62412
 458,14; 5954,590;  265,673;13856,102;41,85973
 458,73; 5902,513;  258,057;13794,557;41,69804
 459,31; 5970,654;  272,133;13801,002;42,12119
 459,90; 5941,840;  292,287;13894,709;41,53343
 460,49; 6020,831;  326,364;13979,122;41,70928
 461,08; 5980,173;  239,441;14041,256;41,59404
 461,66; 6030,449;  249,518;14148,009;41,59395
 462,25; 6049,180;  249,671;14169,362;41,66406
 462,84; 6044,723;  266,210;14233,855;41,37070
 463,43; 6003,077;  220,671;14197,392;41,37169
 464,01; 6055,558;  252,825;14211,433;41,57100
 464,60; 6034,261;  294,902;14133,045;41,47492
 465,19; 5917,823;  226,901;13917,146;41,56918
 465,77; 5894,163;  245,901;13931,470;41,27166
 466,36; 5887,474;  263,748;13781,592;41,60224
 466,95; 5726,908;  249,517;13545,097;41,19708
 467,53; 5586,924;  262,209;13231,631;41,05592
 468,12; 5485,653;  287,516;12985,825;40,93566
 468,71; 5396,783;  256,517;12769,913;41,07811
 469,29; 5237,805;  244,747;12563,421;40,53243
 469,88; 5156,492;  243,285;12255,789;40,90077
 470,47; 5219,800;  308,824;12429,383;40,51774
 471,06; 5165,479;  245,747;12327,576;40,72010
 471,64; 5202,739;  258,439;12426,475;40,63351
 472,23; 5195,626;  238,515;12484,723;40,47874
 472,81; 5215,740;  235,669;12537,077;40,48374
 473,40; 5271,343;  244,438;12699,088;40,36168
 473,99; 5417,907;  337,131;12877,102;40,51665
 474,57; 5402,357;  254,746;13007,664;40,36418
 475,16; 5421,122;  259,900;13135,527;40,08521
 475,75; 5473,130;  277,361;13270,843;39,98750
 476,33; 5495,172;  273,438;13301,278;40,08135
 476,92; 5519,418;  284,515;13382,495;39,96726
 477,51; 5519,868;  273,746;13473,078;39,74536
 478,09; 5501,150;  274,361;13432,183;39,72382
 478,68; 5507,800;  266,592;13402,743;39,89912
 479,27; 5496,104;  285,746;13431,990;39,63381
 479,85; 5466,211;  260,592;13449,749;39,46893
 480,44; 5503,899;  258,591;13565,837;39,41693
 481,02; 6063,660;  276,822;14805,194;39,83129
 481,61; 6767,882;  287,591;16767,418;39,32256
 482,20; 7233,032;  272,207;17955,114;39,36471
 482,78; 7540,285;  308,668;18742,703;39,22970
 483,37; 7765,904;  304,745;19311,268;39,25578
 483,95; 7843,671;  325,591;19524,179;39,15954
 484,54; 7915,024;  324,668;19721,819;39,13129
 485,13; 7836,840;  299,667;19674,419;38,90203
 485,71; 7736,728;  267,283;19359,168;39,12367
 486,30; 7678,471;  311,514;19163,734;39,07740
 486,88; 7549,225;  350,129;18790,873;39,03908
 487,47; 7198,517;  319,360;18111,474;38,66408
 488,05; 6922,756;  314,975;17285,299;38,93727
 488,64; 6395,285;  298,052;16075,825;38,64445
 489,23; 5696,997;  315,129;14276,871;38,54725
 489,81; 4864,315;  318,436;12269,871;38,03626
 490,40; 4580,826;  283,282;11577,264;38,05162
 490,98; 4475,565;  255,051;11339,911;38,07458
 491,57; 4443,816;  291,129;11214,719;38,01578
 492,15; 4368,461;  261,051;11135,031;37,77283
 492,74; 4372,332;  270,052;11148,520;37,71009
 493,32; 4342,079;  290,436;10980,505;37,90100
 493,91; 4276,879;  275,820;10887,486;37,70434
 494,50; 4280,529;  273,128;10879,117;37,78433
 495,08; 4240,889;  260,205;10835,710;37,64061
 495,67; 4247,022;  291,359;10817,349;37,57996
 496,25; 4157,717;  222,974;10657,382;37,70931
 496,84; 4126,548;  249,359;10687,065;37,14599
 497,42; 4112,752;  241,974;10616,052;37,31202
 498,01; 4099,482;  259,513;10542,979;37,34119
 498,59; 4066,072;  221,359;10499,036;37,40838
 499,18; 4045,109;  244,051;10458,382;37,21299
 499,76; 4034,781;  256,589;10363,917;37,38072
 500,35; 3955,692;  255,589;10202,439;37,19874
 500,93; 3928,227;  245,282;10220,783;36,91991
 501,52; 3857,392;  244,051;10134,040;36,53534
 502,10; 3896,633;  259,743;10034,794;37,20585
 502,69; 3802,910;  239,896; 9925,268;36,78757
 503,27; 3696,208;  222,743; 9663,925;36,79057
 503,86; 3705,822;  245,127; 9678,542;36,68550
 504,44; 3639,971;  218,819; 9571,680;36,57866
 505,03; 3536,368;  208,358; 9369,418;36,32779
 505,61; 3501,922;  219,127; 9253,244;36,33775
 506,19; 3474,792;  242,666; 9039,700;36,74109
 506,78; 3358,446;  224,588; 8895,900;36,14052
 507,36; 3326,010;  230,742; 8739,459;36,37761
 507,95; 3256,645;  229,127; 8601,409;36,16121
 508,53; 3166,215;  227,358; 8497,550;35,53554
 509,12; 3165,224;  239,357; 8385,061;35,91914
 509,70; 3098,555;  250,511; 8219,490;35,73913
 510,29; 3062,728;  258,126; 8094,530;35,78940
 510,87; 2967,113;  227,742; 7879,152;35,80217
 511,46; 2887,303;  218,434; 7755,661;35,40915
 512,04; 2850,488;  224,665; 7594,866;35,62757
 512,62; 2780,277;  243,050; 7412,305;35,39039
 513,21; 2720,561;  212,357; 7288,646;35,44518
 513,79; 2671,247;  222,741; 7188,436;35,15092
 514,38; 2585,894;  198,818; 7033,647;34,92518
 514,96; 2602,793;  251,511; 6942,352;35,14180
 515,54; 2502,238;  213,510; 6836,429;34,55768
 516,13; 2487,993;  222,664; 6752,168;34,69373
 516,71; 2430,100;  225,203; 6620,696;34,47580
 517,30; 2372,606;  213,356; 6522,758;34,22273
 517,88; 2364,799;  240,048; 6434,733;34,29957
 518,46; 2309,949;  222,279; 6292,771;34,39046
 519,05; 2312,380;  225,048; 6254,049;34,62151
 519,63; 2281,677;  231,433; 6195,050;34,37921
 520,22; 2271,922;  244,663; 6145,151;34,35748
 520,80; 2222,011;  231,971; 6080,477;34,02646
 521,38; 2229,379;  260,587; 6102,253;33,70258
 521,97; 2163,979;  229,971; 6046,601;33,24964
 522,55; 2169,403;  241,048; 6010,541;33,42330
 523,13; 2142,655;  219,817; 6021,370;33,14350
 523,72; 2151,065;  226,510; 5992,977;33,37494
 524,30; 2208,842;  235,432; 6131,945;33,46741
 524,89; 2171,991;  218,048; 6108,543;33,17113
 525,47; 2206,365;  243,740; 6228,118;32,79581
 526,05; 2195,595;  206,355; 6263,749;32,83986
 526,64; 2237,566;  238,201; 6358,619;32,66712
 527,22; 2274,301;  250,047; 6505,122;32,36179
 527,80; 2335,566;  266,816; 6599,458;32,66804
 528,39; 2301,767;  226,586; 6700,301;32,05549
 528,97; 2362,782;  224,124; 6868,512;32,18744
 529,55; 2433,526;  248,432; 6996,615;32,38048
 530,14; 2491,674;  252,739; 7200,328;32,22607
 530,72; 2500,141;  229,509; 7309,155;32,07268
 531,30; 2519,532;  208,585; 7461,193;31,86367
 531,89; 2546,968;  231,201; 7525,255;31,74869
 532,47; 2593,529;  267,355; 7669,762;31,42457
 533,05; 2603,361;  251,740; 7672,660;31,68908
 533,63; 2617,951;  261,355; 7705,221;31,65823
 534,22; 2592,143;  239,431; 7765,742;31,25982
 534,80; 2631,853;  251,277; 7789,344;31,58071
 535,38; 2693,582;  334,893; 7959,271;30,93615
 535,97; 2605,144;  251,508; 7886,881;30,82542
 536,55; 2660,492;  280,354; 7904,562;31,21817
 537,13; 2629,687;  288,047; 7905,877;30,73893
 537,71; 2652,213;  322,047; 7940,628;30,58530
 538,30; 2666,178;  334,893; 7993,909;30,43844
 538,88; 2730,307;  352,277; 8073,924;30,79692
 539,46; 2763,891;  410,585; 8243,361;30,04434
 540,05; 2753,617;  405,200; 8356,739;29,53412
 540,63; 2824,322;  441,046; 8556,673;29,36650
 541,21; 2874,343;  479,739; 8696,818;29,14179
 541,79; 2914,625;  478,508; 8803,419;29,26298
 542,38; 2952,913;  501,893; 8941,490;29,04191
 542,96; 2970,092;  520,892; 9065,114;28,66499
 543,54; 3042,344;  539,200; 9251,537;28,73102
 544,12; 3059,187;  493,816; 9436,371;28,68723
 544,70; 3040,399;  494,431; 9440,660;28,45857
 545,29; 3103,285;  504,893; 9648,795;28,41667
 545,87; 3118,240;  486,816; 9679,265;28,62593
 546,45; 3076,183;  465,200; 9709,311;28,24482
 547,03; 3089,499;  452,662; 9797,249;28,21781
 547,62; 3107,675;  418,585; 9934,378;28,25923
 548,20; 3177,863;  435,200;10100,372;28,37676
 548,78; 3176,038;  396,507;10219,879;28,29508
 549,36; 3207,373;  366,430;10373,605;28,38906
 549,94; 3239,545;  335,892;10554,876;28,41429
 550,53; 3287,773;  355,277;10762,159;28,17844
 551,11; 3299,125;  322,661;10924,151;28,07590
 551,69; 3393,886;  334,046;11276,010;27,96427
 552,27; 3388,739;  286,507;11465,523;27,75049
 552,85; 3510,843;  305,046;11817,508;27,84632
 553,44; 3590,130;  298,430;12110,552;27,86714
 554,02; 3670,422;  314,046;12431,922;27,69773
 554,60; 3697,047;  263,122;12768,432;27,45973
 555,18; 3788,348;  306,969;13114,437;27,18241
 555,76; 3849,897;  288,199;13433,121;27,09561
 556,34; 3946,489;  299,891;13810,378;26,99087
 556,93; 4060,398;  281,738;14192,200;27,16416
 557,51; 4085,412;  253,661;14467,113;26,95862
 558,09; 4160,975;  280,892;14830,679;26,66763
 558,67; 4283,766;  278,968;15220,656;26,80285
 559,25; 4346,179;  289,199;15470,982;26,72268
 559,83; 4368,749;  271,430;15684,502;26,58340
 560,41; 4410,107;  258,968;16098,894;26,20680
 561,00; 4494,560;  272,122;16391,747;26,19440
 561,58; 4569,979;  271,815;16682,131;26,19184
 562,16; 4634,855;  259,661;16993,673;26,14552
 562,74; 4657,230;  242,353;17349,904;25,80660
 563,32; 4767,005;  248,737;17697,474;25,89453
 563,90; 4860,625;  274,507;18129,547;25,68528
 564,48; 4948,416;  277,199;18495,332;25,64048
 565,06; 5029,472;  261,661;19084,344;25,33014
 565,65; 5178,164;  272,506;19659,953;25,30327
 566,23; 5435,522;  320,507;20376,806;25,50328
 566,81; 5526,590;  266,584;21113,723;25,23131
 567,39; 5728,554;  284,353;21934,158;25,14666
 567,97; 5814,985;  286,814;22473,937;24,91612
 568,55; 6084,288;  308,737;23278,264;25,14440
 569,13; 6160,906;  284,891;24018,772;24,75792
 569,71; 6371,189;  260,276;24926,337;24,77458
 570,29; 6609,027;  306,661;25849,126;24,67407
 570,87; 6780,460;  304,969;26426,877;24,78950
 571,45; 6844,971;  295,814;27080,061;24,45153
 572,03; 6922,399;  266,430;27550,446;24,39512
 572,61; 7064,455;  254,660;28285,190;24,29421
 573,20; 7153,976;  266,122;28927,400;24,03191
 573,78; 7276,941;  257,968;29476,135;24,02263
 574,36; 7395,315;  284,814;30004,297;23,92539
 574,94; 7436,166;  332,045;30271,657;23,72817
 575,52; 7449,169;  269,737;30613,817;23,66007
 576,10; 7607,327;  330,429;31103,233;23,64717
 576,68; 7643,514;  308,199;31576,386;23,45936
 577,26; 7811,062;  327,583;32303,583;23,40342
 577,84; 7874,173;  332,276;32728,658;23,28006
 578,42; 7901,253;  376,737;32927,349;23,11636
 579,00; 7887,723;  317,122;33151,719;23,05678
 579,58; 7932,922;  367,506;33271,577;22,99234
 580,16; 7896,521;  328,429;33317,731;22,94105
 580,74; 7848,161;  331,199;33552,907;22,62666
 581,32; 7792,588;  324,583;33524,886;22,49378
 581,90; 7824,919;  351,122;33594,888;22,48180
 582,48; 7753,303;  340,352;33723,007;22,20599
 583,06; 7761,935;  347,737;33760,973;22,18940
 583,64; 7742,525;  327,737;33886,412;22,09500
 584,22; 7630,000;  344,275;33797,948;21,77855
 584,80; 7550,714;  355,737;33566,622;21,66452
 585,38; 7414,913;  354,276;33161,122;21,52184
 585,96; 7382,145;  330,891;33270,794;21,40642
 586,54; 7383,745;  342,121;33252,646;21,39627
 587,12; 7354,993;  324,583;33408,996;21,24992
 587,70; 7329,323;  357,583;33443,200;21,07182
 588,28; 7327,096;  335,737;33477,737;21,09516
 588,86; 7299,645;  344,198;33657,805;20,87869
 589,44; 7236,903;  324,275;33671,790;20,72906
 590,02; 7221,277;  321,660;33925,022;20,53252
 590,59; 7227,912;  313,045;34083,572;20,47604
 591,17; 7244,238;  315,121;34274,314;20,40425
 591,75; 7232,142;  303,506;34374,881;20,33565
 592,33; 7225,158;  327,967;34620,470;20,11282
 592,91; 7174,023;  283,198;34771,483;19,98019
 593,49; 7266,633;  283,429;35189,194;20,00588
 594,07; 7241,261;  308,429;35345,736;19,78700
 594,65; 7142,732;  319,583;35391,958;19,45448
 595,23; 7263,880;  308,506;35716,319;19,64362
 595,81; 7237,160;  315,275;35977,566;19,40953
 596,39; 7217,851;  288,890;35999,112;19,40330
 596,97; 7191,843;  279,121;36227,315;19,22968
 597,55; 7152,780;  293,044;36122,513;19,14551
 598,12; 7117,374;  274,198;36072,980;19,11567
 598,70; 7086,828;  284,429;36219,292;18,92981
 599,28; 7095,559;  296,813;36361,352;18,85161
 599,86; 7089,932;  286,429;36401,068;18,83863
 600,44; 7079,647;  259,121;36511,113;18,81421
 601,02; 7066,467;  309,428;36583,477;18,62775
 601,60; 6993,129;  288,967;36581,955;18,47233
 602,18; 7010,297;  260,967;36646,587;18,54944
 602,75; 6925,058;  258,044;36623,544;18,33335
 603,33; 6910,738;  296,352;36645,520;18,19680
 603,91; 6889,190;  264,044;36615,284;18,22536
 604,49; 6889,469;  286,890;36678,160;18,14330
 605,07; 6880,630;  299,044;36855,161;18,00406
 605,65; 6807,761;  298,352;36857,453;17,80517
 606,23; 6796,632;  352,198;36919,186;17,62364
 606,80; 6810,879;  371,967;36917,299;17,61897
 607,38; 6746,820;  397,736;36983,195;17,35412
 607,96; 6723,969;  448,737;37046,533;17,14647
 608,54; 6697,043;  494,352;37144,670;16,92398
 609,12; 6676,917;  495,890;37068,744;16,90059
 609,70; 6666,906;  516,121;37209,858;16,76249
 610,27; 6632,739;  525,737;37198,868;16,65252
 610,85; 6587,163;  547,275;37267,095;16,44858
 611,43; 6591,123;  532,352;37325,555;16,46710
 612,01; 6479,528;  495,429;37049,020;16,37076
 612,59; 6444,047;  507,582;37110,812;16,21842
 613,16; 6359,718;  476,198;37032,424;16,09444
 613,74; 6308,161;  458,582;36940,426;16,03422
 614,32; 6281,760;  432,352;36958,187;16,01444
 614,90; 6213,051;  404,429;36767,355;15,97402
 615,48; 6113,024;  353,506;36608,174;15,88628
 616,05; 6049,591;  345,198;36442,961;15,80262
 616,63; 6024,543;  355,660;36314,979;15,76471
 617,21; 5982,342;  355,891;36290,669;15,65740
 617,79; 5932,364;  334,660;36184,525;15,61430
 618,36; 5854,527;  348,275;36073,224;15,41290
 618,94; 5773,318;  294,968;35842,409;15,41138
 619,52; 5726,964;  312,275;35522,166;15,37832
 620,10; 5649,596;  293,506;35553,048;15,19047
 620,67; 5666,350;  312,814;35336,347;15,28554
 621,25; 5628,039;  323,890;35166,448;15,22319
 621,83; 5563,176;  307,968;35156,147;15,08030
 622,41; 5605,356;  354,121;35207,230;15,06676
 622,98; 5474,786;  314,429;34947,136;14,90024
 623,56; 5441,878;  323,506;34908,705;14,79931
 624,14; 5431,536;  301,583;34790,615;14,87416
 624,72; 5366,587;  301,660;34705,503;14,72198
 625,29; 5348,916;  291,968;34756,457;14,67292
 625,87; 5344,390;  337,352;34837,231;14,51320
 626,45; 5262,187;  287,583;34537,878;14,52427
 627,02; 5238,786;  297,967;34593,361;14,40665
 627,60; 5190,429;  284,505;34423,962;14,37024
 628,18; 5175,686;  267,044;34534,974;14,32430
 628,76; 5167,965;  274,814;34532,158;14,28351
 629,33; 5156,602;  299,506;34593,022;14,16331
 629,91; 5129,058;  298,352;34596,202;14,08457
 630,49; 5150,681;  291,583;34616,041;14,15637
 631,06; 5144,003;  293,814;34768,072;14,06902
 631,64; 5087,366;  299,045;34820,439;13,87059
 632,22; 5003,601;  260,506;34666,778;13,78555
 632,79; 5081,793;  295,199;34991,453;13,79571
 633,37; 5037,759;  284,275;35015,678;13,68641
 633,95; 5024,713;  281,276;35039,175;13,64708
 634,52; 5014,215;  268,891;35190,506;13,58850
 635,10; 5016,905;  268,198;35175,229;13,60387
 635,68; 5014,844;  268,506;35361,208;13,52514
 636,25; 5008,094;  256,276;35344,339;13,54255
 636,83; 4982,504;  247,122;35544,697;13,41560
 637,41; 5008,077;  265,814;35562,766;13,43533
 637,98; 5030,539;  295,660;35762,758;13,35006
 638,56; 5024,635;  275,276;35837,239;13,35516
 639,13; 4971,979;  259,275;35831,727;13,24818
 639,71; 5037,297;  322,429;36043,761;13,19903
 640,29; 4922,614;  236,506;35850,715;13,15797
 640,86; 4961,457;  263,583;36069,057;13,12055
 641,44; 4900,839;  257,121;36085,707;12,96093
 642,02; 4932,529;  278,045;36048,048;13,01226
 642,59; 4921,065;  258,968;36266,775;12,94746
 643,17; 4913,601;  259,968;36193,270;12,95075
 643,74; 4862,752;  252,121;36194,381;12,82788
 644,32; 4880,826;  274,814;36117,261;12,85072
 644,89; 4849,516;  283,045;36183,449;12,71983
 645,47; 4874,436;  296,891;36196,868;12,75083
 646,05; 4788,203;  276,275;36075,132;12,60355
 646,62; 4753,200;  265,506;36104,320;12,52188
 647,20; 4801,890;  273,968;36276,047;12,57683
 647,77; 4719,810;  246,506;36035,696;12,49904
 648,35; 4675,884;  238,891;36043,038;12,39240
 648,92; 4695,958;  276,121;36050,379;12,35480
 649,50; 4651,879;  240,891;35983,798;12,34088
 650,08; 4663,568;  230,198;35946,140;12,41286
 650,65; 4645,797;  244,275;36039,712;12,29632
 651,23; 4708,717;  220,121;36745,823;12,28887
 651,80; 4849,330;  237,583;37683,165;12,31586
 652,38; 4899,712;  243,814;38092,660;12,30129
 652,95; 4914,478;  231,352;38508,002;12,23494
 653,53; 4964,783;  252,583;38739,728;12,24357
 654,10; 4976,627;  280,198;38903,685;12,15951
 654,68; 4941,009;  238,275;38753,873;12,20995
 655,25; 4968,929;  235,198;38879,907;12,24936
 655,83; 4932,465;  236,352;38977,403;12,12180
 656,40; 4973,231;  265,890;38915,821;12,17943
 656,98; 4920,536;  250,275;38815,932;12,10990
 657,55; 4898,149;  247,967;38672,659;12,10207
 658,13; 4831,993;  247,814;38286,923;12,05123
 658,70; 4810,221;  269,429;38035,342;12,02352
 659,28; 4677,833;  252,429;37316,914;11,93974
 659,85; 4571,062;  252,429;36447,487;11,93155
 660,43; 4599,290;  267,737;36491,752;11,95768
 661,00; 4569,979;  245,660;36550,939;11,91099
 661,58; 4600,823;  248,275;36974,358;11,85138
 662,15; 4614,282;  231,429;37100,700;11,88755
 662,73; 4717,048;  304,044;37354,734;11,91072
 663,30; 4679,738;  244,736;37524,922;11,89640
 663,88; 4725,581;  248,429;37750,802;11,93832
 664,45; 4721,348;  235,506;37858,682;11,92308
 665,03; 4752,807;  252,736;38361,639;11,80845
 665,60; 4854,266;  331,506;38779,135;11,76343
 666,17; 4827,417;  250,506;38898,553;11,84254
 666,75; 4829,568;  239,275;39253,895;11,76557
 667,32; 4922,181;  263,044;39464,698;11,88505
 667,90; 4909,101;  246,890;39756,347;11,80024
 668,47; 4945,483;  265,198;39945,535;11,79497
 669,05; 4953,942;  240,813;40359,877;11,74785
 669,62; 4958,785;  213,198;40359,911;11,82061
 670,19; 4989,090;  229,736;40585,253;11,79356
 670,77; 5017,011;  251,121;40779,671;11,75934
 671,34; 5003,547;  249,736;40614,244;11,77720
 671,92; 5019,775;  228,890;40997,816;11,75131
 672,49; 5026,926;  260,582;40982,850;11,70451
 673,06; 5010,385;  217,813;41101,115;11,72256
 673,64; 5015,536;  232,582;41085,918;11,70762
 674,21; 5021,995;  217,967;41002,568;11,77902
 674,79; 5107,761;  246,736;41187,525;11,87331
 675,36; 5109,143;  259,582;41342,174;11,80442
 675,93; 5039,217;  232,429;41124,900;11,75470
 676,51; 5085,369;  252,967;41300,550;11,77268
 677,08; 5062,597;  256,813;41486,814;11,65604
 677,65; 5128,209;  249,659;41574,925;11,80525
 678,23; 5124,207;  245,967;41732,806;11,75852
 678,80; 5155,820;  230,659;41832,301;11,83886
 679,38; 5164,586;  241,582;41962,950;11,79972
 679,95; 5241,506;  247,044;42179,446;11,91075
 680,52; 5283,196;  234,659;42490,095;11,94766
 681,10; 5311,501;  256,352;42735,129;11,90041
 681,67; 5364,037;  249,121;43149,548;11,92276
 682,24; 5358,342;  230,428;43186,197;11,93766
 682,82; 5401,416;  238,352;43766,462;11,86145
 683,39; 5513,260;  288,275;44063,112;11,93605
 683,96; 5555,180;  240,505;44259,915;12,07348
 684,54; 5547,024;  220,505;44663,795;11,98498
 685,11; 5642,790;  268,813;45022,521;12,00789
 685,68; 5642,557;  240,967;45434,324;11,95218
 686,25; 5693,554;  223,659;45448,743;12,09483
 686,83; 5716,321;  231,198;45624,777;12,08348
 687,40; 5756,703;  218,275;45970,350;12,10530
 687,97; 5847,008;  280,967;46409,537;12,06636
 688,55; 5806,236;  218,736;46411,725;12,09599
 689,12; 5864,387;  205,274;46692,990;12,17335
 689,69; 5874,307;  227,659;46772,870;12,13153
 690,26; 5919,766;  245,044;46844,366;12,17769
 690,84; 5969,840;  249,274;47133,323;12,20152
 691,41; 6021,530;  251,967;47222,664;12,28332
 691,98; 6064,143;  244,967;47439,622;12,33016
 692,56; 6050,832;  233,044;47516,809;12,30399
 693,13; 6132,522;  287,659;47545,766;12,36796
 693,70; 6144,289;  256,274;47684,877;12,41448
 694,27; 6175,670;  243,890;47890,604;12,44951
 694,84; 6165,129;  238,044;47984,253;12,41373
 695,42; 6250,281;  276,582;48083,133;12,49556
 695,99; 6255,509;  238,351;48293,629;12,52132
 696,56; 6301,044;  243,121;48149,124;12,64544
 697,13; 6332,503;  241,197;48488,697;12,62512
 697,71; 6355,270;  225,582;48519,500;12,69246
 698,28; 6397,806;  244,120;48871,380;12,65481
 698,85; 6401,649;  196,659;48863,106;12,75004
 699,42; 6454,570;  214,505;49072,371;12,77187
 699,99; 6533,567;  242,044;49106,405;12,87548
 700,57; 6515,564;  243,428;49142,055;12,82681
 701,14; 6555,331;  231,505;49239,550;12,90365
 701,71; 6597,636;  250,967;49401,815;12,91263
 702,28; 6599,018;  242,351;49536,310;12,89543
 702,85; 6618,246;  245,967;49647,575;12,89893
 703,43; 6687,474;  257,197;49848,763;12,96647
 704,00; 6743,164;  280,582;50070,028;12,97982
 704,57; 6737,315;  247,274;50047,293;13,03221
 705,14; 6839,235;  289,582;50348,250;13,08395
 705,71; 6864,694;  280,582;50303,822;13,16211
 706,28; 6849,922;  253,274;50223,010;13,20129
 706,86; 6901,766;  276,966;50540,890;13,18003
 707,43; 6972,378;  298,351;50541,540;13,28345
 708,00; 6981,837;  284,582;50501,266;13,33671
 708,57; 6948,065;  263,043;50353,838;13,34581
 709,14; 7018,524;  285,966;50567,488;13,38973
 709,71; 7078,752;  264,582;50621,368;13,53178
 710,28; 7132,673;  258,428;50908,556;13,57202
 710,86; 7137,593;  260,351;50935,205;13,57131
 711,43; 7190,360;  282,197;50873,316;13,65489
 712,00; 7222,895;  266,582;51054,350;13,69683
 712,57; 7307,893;  278,659;51204,769;13,80281
 713,14; 7352,736;  255,813;51192,956;13,93271
 713,71; 7352,272;  265,120;51185,606;13,91808
 714,28; 7327,654;  257,197;51191,640;13,88148
 714,85; 7305,113;  239,505;50995,212;13,92081
 715,42; 7377,418;  249,351;51154,477;14,00265
 716,00; 7471,492;  309,120;51281,819;14,05139
 716,57; 7460,489;  250,659;51370,237;14,10385
 717,14; 7433,333;  238,197;51300,656;14,09085
 717,71; 7482,715;  230,659;51458,690;14,15642
 718,28; 7525,635;  268,889;51516,032;14,16029
 718,85; 7586,633;  227,351;51475,758;14,36002
 719,42; 7633,399;  260,889;51744,023;14,32024
 719,99; 7616,012;  224,197;51414,134;14,43998
 720,56; 7655,240;  265,428;51757,552;14,35134
 721,13; 7682,776;  251,735;51795,432;14,41697
 721,70; 7710,850;  232,812;51767,620;14,51065
 722,27; 7757,232;  265,659;51710,962;14,56221
 722,84; 7902,229;  306,889;51891,996;14,72390
 723,41; 7851,534;  236,197;51914,799;14,73596
 723,98; 7875,685;  241,428;52137,295;14,71072
 724,55; 7970,221;  275,351;52288,021;14,79422
 725,12; 7929,142;  207,812;52124,978;14,87240
 725,69; 8036,831;  238,197;52401,166;14,95052
 726,27; 8098,675;  230,812;52349,815;15,09596
 726,84; 8126,211;  249,120;52729,234;15,00967
 727,41; 8173,669;  268,428;52672,729;15,08510
 727,98; 8198,667;  266,043;52998,533;15,04314
 728,55; 8327,279;  287,428;52891,797;15,28362
 729,12; 8316,584;  243,581;53017,524;15,29733
 729,69; 8384,582;  254,658;53168,481;15,36446
 730,26; 8390,118;  274,274;53258,976;15,31733
 730,82; 8429,192;  261,274;53209,857;15,42613
 731,39; 8487,881;  261,581;53284,198;15,51470
 731,96; 8584,571;  237,735;53591,617;15,64429
 732,53; 8680,184;  247,274;53811,420;15,74357
 733,10; 8706,950;  268,504;53949,377;15,71965
 733,67; 8798,563;  266,504;54133,257;15,83919
 734,24; 8755,791;  250,120;53825,907;15,87596
 734,81; 8871,019;  280,197;53907,941;16,01936
 735,38; 8863,940;  261,889;53674,436;16,10493
 735,95; 8857,245;  266,735;53612,393;16,10348
 736,52; 8873,857;  266,504;53784,735;16,08303
 737,09; 8938,393;  269,504;53470,384;16,29463
 737,66; 9048,544;  307,889;53595,111;16,40291
 738,23; 9006,465;  265,043;53768,299;16,33811
 738,80; 9115,693;  318,197;53982,333;16,39362
 739,37; 9162,229;  279,274;54149,367;16,48959
 739,94; 9202,534;  261,581;54157,554;16,58928
 740,51; 9335,454;  367,658;54254,204;16,64199
 741,07; 9252,451;  261,350;54232,007;16,65924
 741,64; 9281,449;  286,504;54400,810;16,62212
 742,21; 9328,523;  251,504;54471,152;16,74120
 742,78; 9398,751;  234,812;54224,647;16,97345
 743,35; 9442,441;  254,427;54522,528;16,93078
 743,92; 9511,823;  286,581;54626,946;16,97678
 744,49; 9518,282;  289,581;54517,211;17,01845
 745,06; 9528,125;  251,812;54451,630;17,11503
 745,63; 9586,122;  249,504;54530,587;17,20050
 746,19; 9604,658;  251,197;54526,851;17,23325
 746,76; 9578,963;  267,273;54505,039;17,16828
 747,33; 9660,884;  251,966;54474,919;17,35228
 747,90; 9760,266;  281,658;54680,415;17,42431
 748,47; 9817,801;  267,658;54590,757;17,58026
 749,04; 9810,645;  273,966;54630,714;17,54461
 749,61; 9838,796;  298,043;54583,517;17,57515
 750,17; 9922,947;  276,658;54671,782;17,73374
 750,74; 9944,945;  280,966;54532,585;17,81325
 751,31; 9980,326;  246,350;54392,927;17,97709
 751,88; 9944,939;  240,581;54357,653;17,93216
 752,45;10049,552;  263,581;54516,610;18,03765
 753,02;10063,934;  274,812;54288,567;18,12339
 753,58;10067,393;  246,043;54164,678;18,21513
 754,15;10151,852;  246,889;54373,251;18,29970
 754,72;10183,464;  246,581;54159,054;18,43151
 755,29;10109,231;  236,043;53881,165;18,40463
 755,86;10205,997;  264,966;54187,891;18,43563
 756,42;10307,149;  272,735;54064,848;18,65406
 756,99;10241,915;  224,273;53975,420;18,63708
 757,56;10325,374;  239,966;53913,455;18,79030
 758,13;10387,910;  201,042;53854,412;18,98644
 758,70;10442,830;  232,966;53871,292;19,03464
 759,26;10454,135;  221,273;53980,710;19,03454
 759,83;10524,133;  229,042;54191,898;19,07810
 760,40;10564,745;  218,581;53906,778;19,27084
 760,97;10542,512;  211,119;54007,966;19,20446
 761,53;10523,201;  198,119;53582,769;19,34092
 762,10;10517,430;  209,581;53551,419;19,32413
 762,67;10582,119;  230,042;53514,530;19,42794
 763,24;10565,347;  184,658;53247,179;19,56313
 763,80;10604,652;  214,427;53340,675;19,55761
 764,37;10654,111;  230,504;53361,093;19,61884
 764,94;10610,647;  208,119;52822,589;19,77123
 765,50;10672,337;  211,965;52946,777;19,83580
 766,07;10786,488;  254,042;52927,195;19,99585
 766,64;10692,562;  224,350;52552,614;20,00489
 767,21;10731,098;  218,965;52491,648;20,11018
 767,77;10780,557;  248,581;52366,682;20,20790
 768,34;10712,631;  242,812;52319,100;20,10477
 768,91;10777,321;  262,735;52172,519;20,25550
 769,47;10811,164;  241,581;52192,476;20,34533
 770,04;10819,161;  247,581;52132,818;20,37493
 770,61;10778,774;  231,658;51836,467;20,43824
 771,18;10795,310;  222,658;51851,347;20,47825
 771,74;10872,000;  246,658;51982,997;20,53748
 772,31;10929,228;  250,119;51604,877;20,79478
 772,88;10888,071;  222,658;51556,680;20,77650
 773,44;10932,761;  222,273;51181,022;21,01796
 774,01;10945,066;  249,196;51415,979;20,90393
 774,58;10933,525;  233,273;50939,090;21,10261
 775,14;10985,445;  227,658;51202,201;21,10424
 775,71;11023,135;  248,042;51110,619;21,18472
 776,27;11145,517;  278,504;51012,346;21,41965
 776,84;11139,745;  313,965;51026,226;21,34746
 777,41;11084,511;  246,504;50938,414;21,38015
 777,97;11102,509;  242,888;50616,140;21,55831
 778,54;11079,737;  243,504;50645,482;21,49962
 779,11;11195,042;  258,657;50606,285;21,72175
 779,67;11208,270;  230,350;50565,857;21,80950
 780,24;11193,959;  239,888;50341,968;21,86351
 780,80;11251,880;  261,657;50384,002;21,92679
 781,37;11236,108;  254,657;50403,267;21,89782
 781,94;11238,567;  253,119;50158,455;22,01257
 782,50;11287,949;  253,965;50067,104;22,15075
 783,07;11345,254;  271,350;50151,600;22,20098
 783,63;11299,097;  233,196;49872,172;22,29277
 784,20;11360,479;  263,657;49880,052;22,36523
 784,77;11263,092;  255,196;49742,240;22,24400
 785,33;11268,243;  234,273;49513,582;22,39068
 785,90;11330,164;  243,273;49440,231;22,53572
 786,46;11360,546;  265,965;49383,727;22,58772
 787,03;11303,004;  234,888;49132,992;22,63506
 787,59;11387,540;  239,350;49034,026;22,84715
 788,16;11375,461;  256,196;48985,906;22,81825
 788,73;11393,612;  250,888;48871,863;22,91752
 789,29;11294,763;  253,042;48540,282;22,86675
 789,86;11408,068;  273,811;48516,469;23,07969
 790,42;11374,065;  242,042;48302,273;23,16265
 790,99;11395,293;  260,427;48008,922;23,31983
 791,55;11411,445;  237,965;47900,725;23,44279
 792,12;11423,673;  276,657;47962,375;23,37600
 792,68;11435,285;  254,503;47577,101;23,62673
 793,25;11423,206;  257,734;47439,366;23,66487
 793,81;11389,357;  312,888;47116,861;23,66566
 794,38;11333,277;  225,350;46937,588;23,77948
 794,94;11321,736;  251,196;46873,237;23,74529
 795,51;11375,657;  260,503;46507,963;24,03408
 796,07;11312,039;  259,119;46349,459;23,98099
 796,64;11374,113;  274,426;46439,262;24,04360
 797,20;11279,495;  255,349;45954,296;24,12341
 797,77;11215,184;  219,657;45690,868;24,18129
 798,33;11218,105;  253,888;45435,595;24,26694
 798,90;11172,102;  275,965;45412,090;24,14061
 799,46;11147,330;  249,042;44974,894;24,36687
 800,03;11143,251;  261,273;44955,543;24,34759
 800,59;11176,094;  267,734;44679,269;24,56200
 801,15;11177,091;  266,119;44432,534;24,70423
 801,72;11086,089;  263,965;44141,568;24,66435
 802,28;11059,548;  291,888;43863,833;24,71237
 802,85;11079,776;  250,196;43600,405;24,98161
 803,41;11017,158;  259,042;43474,132;24,89435
 803,98;10953,924;  235,657;42993,704;25,06725
 804,54;10972,537;  247,042;42791,046;25,21036
 805,11;10961,304;  265,426;42648,464;25,23622
 805,67;10986,685;  273,734;42621,344;25,29765
 806,23;10891,298;  260,195;42224,840;25,33347
 806,80;10932,757;  267,119;42102,182;25,49450
 807,36;10942,908;  278,965;41985,985;25,56870
 807,93;10891,675;  295,426;41694,557;25,59534
 808,49;10856,518;  244,349;41342,053;25,82181
 809,05;10868,362;  235,811;41225,856;25,93935
 809,62;10915,590;  266,042;41166,275;26,03787
 810,18;10931,126;  271,272;41068,693;26,12874
 810,74;10863,585;  224,042;40746,189;26,25612
 811,31;10800,274;  238,118;40570,069;26,18806
 811,87;10832,348;  258,272;40436,872;26,31768
 812,44;10883,423;  289,811;40546,599;26,31509
 813,00;10786,189;  226,349;40155,940;26,44615
 813,56;10919,571;  260,272;40242,051;26,66039
 814,13;10841,184;  250,811;40061,777;26,60165
 814,69;10898,950;  250,426;39945,965;26,82549
 815,25;10844,102;  221,118;39573,230;26,99470
 815,82;10855,176;  264,272;39530,956;26,97173
 816,38;10792,404;  280,657;39299,606;26,94011
 816,94;10675,324;  244,811;38886,178;26,99313
 817,51;10671,552;  227,272;38760,135;27,10486
 818,07;10657,781;  245,118;38539,862;27,19084
 818,63;10609,086;  253,272;38295,049;27,22221
 819,20;10641,852;  253,349;38296,314;27,30729
 819,76;10516,388;  236,272;37903,656;27,29182
 820,32;10584,154;  281,349;37784,228;27,47204
 820,89;10563,306;  267,657;37660,032;27,53409
 821,45;10501,534;  241,580;37324,604;27,66752
 822,01;10527,608;  254,580;37095,177;27,88508
 822,57;10516,836;  250,426;36942,826;27,97966
 823,14;10403,987;  227,580;36796,168;27,82828
 823,70;10391,215;  240,964;36530,817;27,96994
 824,26;10386,597;  250,811;36390,697;28,04598
 824,82;10403,133;  260,503;36265,347;28,17018
 825,39;10340,515;  241,272;36022,457;28,22501
 825,95;10429,128;  254,426;35859,568;28,57650
 826,51;10303,125;  260,810;35522,910;28,47906
 827,08;10316,046;  296,964;35612,790;28,36995
 827,64;10283,427;  261,118;35487,747;28,45095
 828,20;10276,963;  239,580;35122,166;28,77477
 828,76;10329,422;  268,964;35188,892;28,81008
 829,32;10256,650;  276,272;34981,542;28,75753
 829,89;10244,801;  229,272;34848,191;28,93080
 830,45;10290,799;  251,503;34805,840;29,05365
 831,01;10229,873;  255,657;34690,874;28,96516
 831,57;10236,947;  257,118;34537,831;29,11208
 832,14;10275,175;  241,887;34546,942;29,24726
 832,70;10227,865;  234,503;34260,438;29,36984
 833,26;10245,555;  212,887;34083,087;29,62093
 833,82;10218,552;  241,580;34121,660;29,44790
 834,38;10296,318;  233,349;34183,001;29,64086
 834,95;10245,700;  231,041;33988,959;29,66611
 835,51;10213,313;  211,349;33844,300;29,73859
 836,07;10270,080;  246,041;33888,180;29,79608
 836,63;10333,539;  258,656;33850,522;29,99203
 837,19;10335,151;  249,503;33726,556;30,12705
 837,75;10273,995;  209,195;33442,667;30,28513
 838,32;10308,223;  258,041;33587,701;30,15387
 838,88;10367,297;  259,041;33486,197;30,42167
 839,44;10411,833;  246,887;33432,615;30,63047
 840,00;10356,676;  246,349;33356,726;30,53522
 840,56;10291,674;  225,041;33103,299;30,61790
 841,12;10317,748;  222,887;33079,640;30,72385
 841,68;10304,899;  219,733;32875,597;30,88317
 842,25;10305,743;  236,118;32940,862;30,78949
 842,81;10306,125;  217,733;32632,511;31,12281
 843,37;10320,045;  209,349;32700,392;31,11841
 843,93;10330,119;  234,579;32576,503;31,21503
 844,49;10439,963;  247,887;32638,537;31,46610
 845,05;10364,883;  210,964;32443,263;31,50231
 845,61;10454,650;  248,349;32504,758;31,64116
 846,17;10419,032;  225,964;32370,639;31,70997
 846,73;10442,337;  238,195;32263,057;31,86319
 847,29;10425,180;  223,656;32047,553;32,05617
 847,86;10362,331;  226,041;32067,202;31,83392
 848,42;10391,098;  215,733;31826,159;32,18990
 848,98;10406,634;  240,810;31801,424;32,21047
 849,54;10400,708;  222,425;31832,996;32,19898
 850,10;10408,090;  232,502;31676,723;32,36076
 850,66;10350,779;  220,733;31480,757;32,40575
 851,22;10370,008;  224,118;31414,098;32,52932
 851,78;10374,390;  261,964;31578,363;32,29115
 852,34;10374,156;  240,887;31278,320;32,64854
 852,90;10374,769;  223,964;31231,739;32,73632
 853,46;10306,228;  224,887;30953,927;32,80721
 854,02;10369,225;  240,118;31026,961;32,90077
 854,58;10284,838;  231,810;30759,610;32,93073
 855,14;10298,450;  216,964;30743,029;33,02583
 855,70;10262,679;  193,733;30599,063;33,11573
 856,26;10260,753;  237,810;30437,712;33,18866
 856,82;10239,365;  215,502;30324,054;33,29241
 857,38;10215,055;  258,656;30237,626;33,21128
 857,94;10166,206;  243,579;30083,737;33,25260
 858,50;10204,050;  244,502;30073,694;33,38859
 859,06;10153,432;  228,733;29930,113;33,41494
 859,62;10131,044;  241,271;29801,531;33,45631
 860,18;10090,811;  234,502;29588,796;33,57706
 860,74;10075,885;  205,656;29468,676;33,72936
 861,30;10025,421;  205,887;29284,633;33,76877
 861,86;10164,880;  274,041;29379,437;33,98284
 862,42;10040,031;  236,271;29162,471;33,89232
 862,98;10073,105;  256,348;29163,658;33,95943
 863,54;10011,564;  227,502;28876,616;34,15136
 864,10;10036,792;  234,194;29001,265;34,07576
 864,66; 9983,636;  216,579;28799,914;34,17046
 865,22; 9990,325;  233,194;28585,025;34,41447
 865,78; 9940,554;  239,964;28516,752;34,30584
 866,34; 9952,935;  221,656;28415,478;34,51565
 866,90; 9977,087;  240,425;28320,973;34,67404
 867,45; 9893,930;  235,117;28097,546;34,66608
 868,01; 9867,697;  235,271;27947,888;34,75827
 868,57; 9838,079;  235,502;27802,614;34,83345
 869,13; 9878,537;  215,271;27682,725;35,18079
 869,69; 9852,996;  222,579;27569,297;35,21599
 870,25; 9801,224;  206,348;27467,793;35,19577
 870,81; 9848,837;  223,579;27456,596;35,34408
 871,37; 9832,758;  235,425;27348,322;35,39766
 871,93; 9800,370;  249,040;27184,664;35,45984
 872,49; 9783,752;  256,271;27013,160;35,60758
 873,04; 9721,365;  228,271;26833,040;35,68193
 873,60; 9701,362;  214,579;26649,381;35,88748
 874,16; 9697,744;  239,348;26672,877;35,78181
 874,72; 9704,283;  233,656;26534,338;36,00905
 875,28; 9708,437;  234,579;26443,877;36,14693
 875,84; 9692,821;  234,348;26347,569;36,22101
 876,40; 9683,667;  231,117;26285,031;36,28073
 876,95; 9707,898;  239,117;26397,723;36,19757
 877,51; 9771,052;  258,425;26291,569;36,54045
 878,07; 9790,360;  264,810;26318,031;36,56189
 878,63; 9752,513;  233,040;26292,262;36,53015
 879,19; 9808,898;  243,656;26245,262;36,78712
 879,75; 9840,744;  229,117;26307,185;36,85713
 880,30; 9871,821;  228,502;26332,646;36,94172
 880,86; 9932,667;  272,271;26449,569;36,90372
 881,42; 9968,129;  226,425;26546,800;37,01203
 881,98; 9998,360;  244,194;26562,262;37,06262
 882,54;10006,821;  219,271;26599,877;37,10131
 883,09;10115,360;  242,425;26769,646;37,21813
 883,65;10116,360;  219,579;26777,877;37,26436
 884,21;10283,437;  256,194;27130,338;37,31186
 884,77;10272,437;  218,656;27104,800;37,39391
 885,32;10317,052;  229,887;27285,415;37,28319
 885,88;10376,821;  263,348;27356,031;37,32917
 886,44;10441,821;  237,348;27508,108;37,41910
 887,00;10463,437;  250,117;27509,954;37,46655
 887,56;10506,898;  226,425;27624,338;37,52283
 888,11;10572,821;  235,733;27709,415;37,62542
 888,67;10677,590;  262,502;27831,877;37,77775
 889,23;10688,898;  248,348;27862,108;37,80923
 889,79;10631,206;  219,271;27716,108;37,86594
 890,34;10679,975;  245,348;27647,262;38,07992
 890,90;10793,744;  300,656;27796,338;38,16268
 891,46;10676,052;  225,963;27674,569;38,07147
 892,01;10725,052;  253,963;27663,262;38,20269
 892,57;10784,744;  269,117;27668,338;38,37929
 893,13;10685,052;  228,887;27430,723;38,43919
 893,69;10715,590;  218,194;27336,492;38,70964
 894,24;10702,744;  234,271;27304,492;38,67155
 894,80;10704,821;  237,733;27165,954;38,87033
 895,36;10637,590;  248,579;26965,415;38,88563
 895,91;10638,821;  238,117;26828,185;39,11500
 896,47;10620,360;  246,579;26687,031;39,23451
 897,03;10517,590;  232,040;26525,569;39,11818
 897,58;10495,513;  243,194;26447,646;39,12434
 898,14;10548,206;  248,348;26272,569;39,57797
 898,70;10437,590;  209,425;26179,877;39,38386
 899,25;10484,129;  232,194;26114,954;39,60913
 899,81;10433,821;  250,425;25893,338;39,71232
 900,37;10390,129;  214,656;25744,646;39,85694
 900,92;10426,513;  242,963;25775,262;39,88497
 901,48;10376,052;  232,194;25568,185;40,03734
 902,03;10304,437;  228,425;25457,415;39,93823
 902,59;10293,667;  225,579;25299,031;40,15438
 903,15;10335,206;  256,579;25161,108;40,46905
 903,70;10252,898;  237,117;24939,800;40,54532
 904,26;10222,513;  228,117;24813,646;40,65154
 904,82;10244,744;  241,656;24794,262;40,74145
 905,37;10192,898;  243,194;24693,954;40,69282
 905,93;10161,667;  225,887;24486,569;40,95425
 906,48;10115,437;  246,963;24453,954;40,76704
 907,04;10130,437;  252,194;24380,108;40,94114
 907,60;10085,437;  234,348;24218,262;41,07373
 908,15;10037,052;  232,425;24148,569;40,99585
 908,71;10071,129;  255,733;24069,338;41,21760
 909,26;10030,513;  225,733;23896,108;41,42216
 909,82;10001,513;  254,733;23816,338;41,36722
 910,37;10003,590;  271,271;23729,954;41,48707
 910,93; 9911,129;  227,810;23522,415;41,56893
 911,48; 9838,206;  229,425;23429,415;41,41718
 912,04; 9845,667;  229,425;23388,415;41,52272
 912,60; 9905,667;  247,963;23303,954;41,88805
 913,15; 9841,667;  238,887;23178,262;41,86156
 913,71; 9777,360;  231,733;22948,954;42,01934
 914,26; 9749,283;  209,887;22946,262;41,95654
 914,82; 9785,052;  235,040;22802,338;42,31792
 915,37; 9759,052;  220,348;22777,646;42,28655
 915,93; 9768,975;  275,117;22773,569;42,19783
 916,48; 9717,206;  227,887;22531,185;42,54671
 917,04; 9695,437;  241,656;22381,415;42,70047
 917,59; 9747,898;  271,117;22314,569;42,99136
 918,15; 9593,052;  208,502;22112,108;42,84477
 918,70; 9634,129;  226,963;22023,031;43,15992
 919,26; 9644,821;  235,271;22030,262;43,17299
 919,81; 9548,590;  209,810;21829,646;43,19543
 920,37; 9521,975;  225,733;21741,031;43,20759
 920,92; 9523,513;  246,425;21623,185;43,39801
 921,48; 9442,513;  215,348;21512,108;43,32662
 922,03; 9448,975;  229,040;21410,338;43,52866
 922,59; 9469,898;  231,040;21317,338;43,81451
 923,14; 9428,821;  222,194;21176,262;43,93718
 923,69; 9429,513;  240,194;21132,877;43,98343
 924,25; 9476,590;  253,194;21044,415;44,36197
 924,80; 9315,513;  226,579;20868,262;44,03195
 925,36; 9326,590;  211,117;20797,262;44,27965
 925,91; 9293,129;  224,425;20721,262;44,24441
 926,47; 9276,129;  202,040;20647,646;44,38161
 927,02; 9316,206;  276,579;20512,646;44,67087
 927,57; 9225,590;  228,733;20392,800;44,61827
 928,13; 9248,821;  218,117;20377,415;44,79672
 928,68; 9198,975;  224,194;20252,646;44,81016
 929,24; 9151,206;  202,502;20031,723;45,12887
 929,79; 9125,590;  217,810;19900,800;45,25624
 930,34; 9116,360;  226,425;19804,877;45,40673
 930,90; 9096,898;  217,271;19774,800;45,40260
 931,45; 9136,975;  244,887;19713,338;45,67435
 932,01; 9118,513;  231,117;19565,954;45,96572
 932,56; 9068,360;  251,348;19435,800;45,95915
 933,11; 9078,283;  251,579;19512,569;45,82684
 933,67; 8981,667;  213,502;19313,800;45,90591
 934,22; 8972,898;  234,810;19217,723;46,03133
 934,77; 8970,437;  255,656;19087,492;46,27685
 935,33; 8894,821;  239,425;19034,415;46,05161
 935,88; 8880,744;  240,963;18921,108;46,25115
 936,43; 8855,513;  230,271;18932,108;46,11976
 936,99; 8814,283;  230,502;18751,185;46,34700
 937,54; 8735,590;  206,887;18640,338;46,26754
 938,09; 8753,206;  236,887;18619,262;46,32872
 938,65; 8729,283;  236,656;18427,492;46,68629
 939,20; 8629,206;  198,963;18364,569;46,40771
 939,75; 8618,667;  214,733;18285,185;46,50650
 940,31; 8539,052;  211,887;18130,646;46,47177
 940,86; 8586,513;  226,502;18268,877;46,33543
 941,41; 8612,129;  304,656;18127,185;46,61220
 941,96; 8562,513;  219,040;17919,954;47,13583
 942,52; 8478,513;  222,194;17816,492;46,92611
 943,07; 8462,360;  211,656;17773,031;46,98211
 943,62; 8446,206;  221,194;17692,492;47,07728
 944,18; 8395,744;  200,502;17581,338;47,15102
 944,73; 8400,744;  230,502;17509,415;47,28447
 945,28; 8310,437;  201,271;17347,800;47,29334
 945,83; 8320,437;  223,733;17334,569;47,31916
 946,39; 8289,052;  221,579;17267,262;47,32854
 946,94; 8341,898;  246,194;17123,185;47,96888
 947,49; 8247,206;  214,502;17098,723;47,57521
 948,04; 8307,898;  254,425;17040,723;47,97647
 948,59; 8242,667;  245,348;16976,415;47,79922
 949,15; 8233,821;  201,040;16849,031;48,25075
 949,70; 8184,744;  215,887;16771,954;48,13255
 950,25; 8125,898;  232,579;16707,415;47,91137
 950,80; 8131,360;  192,887;16579,646;48,44443
 951,36; 8101,206;  195,887;16531,262;48,39386
 951,91; 8125,821;  237,502;16589,569;48,24050
 952,46; 7979,975;  206,887;16310,492;48,26924
 953,01; 8016,898;  243,040;16344,108;48,28163
 953,56; 7975,360;  200,656;16269,031;48,38513
 954,11; 7996,898;  235,579;16165,723;48,72096
 954,67; 7961,590;  221,194;16106,800;48,72585
 955,22; 7837,360;  200,348;15992,262;48,36027
 955,77; 7890,513;  248,733;15869,108;48,92188
 956,32; 7954,206;  271,656;15821,108;49,40721
 956,87; 7817,667;  216,194;15694,492;49,11052
 957,42; 7832,590;  209,579;15672,954;49,29720
 957,98; 7791,513;  213,348;15545,646;49,42615
 958,53; 7819,590;  251,656;15550,108;49,46863
 959,08; 7727,360;  213,502;15369,954;49,57531
 959,63; 7689,898;  212,271;15321,185;49,49149
 960,18; 7704,283;  238,656;15256,800;49,71072
 960,73; 7737,437;  227,271;15170,108;50,25930
 961,28; 7661,283;  208,963;15061,338;50,17594
 961,83; 7655,513;  239,117;15030,723;50,13922
 962,39; 7598,821;  199,348;14948,031;50,17040
 962,94; 7586,206;  235,040;14895,031;50,14441
 963,49; 7500,667;  222,733;14785,877;49,97502
 964,04; 7521,513;  234,117;14735,646;50,25261
 964,59; 7481,898;  203,348;14598,338;50,56308
 965,14; 7486,667;  239,733;14495,877;50,83376
 965,69; 7408,206;  226,656;14423,108;50,58694
 966,24; 7364,052;  221,579;14324,569;50,64510
 966,79; 7327,513;  233,502;14256,800;50,58733
 967,34; 7262,360;  203,194;14163,338;50,56656
 967,89; 7293,206;  216,963;14142,108;50,81629
 968,44; 7254,513;  227,040;14020,262;50,94875
 968,99; 7249,744;  238,887;13980,492;51,01920
 969,55; 7254,283;  234,194;13892,723;51,39711
 970,10; 7242,898;  233,348;13798,185;51,67442
 970,65; 7148,898;  240,040;13688,492;51,37288
 971,20; 7083,744;  216,348;13657,108;51,09381
 971,75; 7036,283;  202,117;13495,031;51,41210
 972,30; 7021,206;  220,040;13411,723;51,55647
 972,85; 7003,821;  209,271;13331,338;51,77957
 973,40; 6930,052;  213,887;13211,185;51,67355
 973,95; 6895,898;  231,194;13158,954;51,55343
 974,50; 6914,667;  246,502;13112,185;51,82908
 975,05; 6860,821;  224,040;12960,723;52,10761
 975,60; 6809,360;  243,271;12940,185;51,71405
 976,15; 6782,744;  216,271;12856,492;51,94904
 976,70; 6727,129;  224,733;12813,569;51,65208
 977,25; 6735,437;  232,963;12737,338;52,00158
 977,80; 6659,360;  216,040;12609,108;51,99132
 978,35; 6562,206;  244,194;12436,646;51,81904
 978,89; 6541,513;  205,579;12416,723;51,88649
 979,44; 6592,513;  224,656;12397,262;52,31302
 979,99; 6477,975;  215,348;12183,800;52,32612
 980,54; 6465,360;  242,271;12102,185;52,47162
 981,09; 6442,975;  246,579;12018,492;52,63712
 981,64; 6368,052;  227,963;11855,492;52,80648
 982,19; 6381,821;  257,810;11853,108;52,81461
 982,74; 6339,206;  238,502;11709,338;53,18447
 983,29; 6180,590;  219,810;11567,569;52,52826
 983,84; 6173,437;  235,810;11517,877;52,62889
 984,39; 6241,129;  297,040;11455,031;53,27203
 984,94; 6097,975;  208,117;11331,262;52,95137
 985,49; 6135,360;  251,425;11260,108;53,44813
 986,03; 6062,437;  250,963;11164,723;53,24905
 986,58; 6009,513;  272,117;11078,338;53,09345
 987,13; 5969,283;  233,194;10914,569;53,70178
 987,68; 5894,437;  238,963;10783,492;53,63419
 988,23; 5909,206;  253,579;10731,646;53,97586
 988,78; 5847,744;  222,810;10619,108;54,10517
 989,33; 5785,052;  251,502;10543,569;53,76519
 989,88; 5750,360;  264,963;10469,646;53,75372
 990,42; 5699,590;  235,425;10364,415;53,94580
 990,97; 5611,513;  228,579;10242,415;53,75497
 991,52; 5617,975;  253,656;10198,415;53,94117
 992,07; 5629,513;  272,656;10096,338;54,53004
 992,62; 5556,975;  241,271; 9974,338;54,61489
 993,17; 5505,898;  257,733; 9848,569;54,72062
 993,71; 5458,129;  250,271; 9817,954;54,43176
 994,26; 5394,206;  230,733; 9626,262;54,95671
 994,81; 5354,437;  258,810; 9635,262;54,34494
 995,36; 5287,821;  228,887; 9457,569;54,81752
 995,91; 5267,975;  237,810; 9411,492;54,83256
 996,45; 5201,206;  240,502; 9291,338;54,80934
 997,00; 5154,821;  216,271; 9174,877;55,12632
 997,55; 5152,898;  238,810; 9163,108;55,06415
 998,10; 5091,052;  257,579; 9031,031;55,09203
 998,65; 5071,283;  228,579; 8961,031;55,45640
 999,19; 4993,667;  255,425; 8856,569;55,08851
 999,74; 4980,206;  267,194; 8783,338;55,34208
1000,29; 4937,590;  249,579; 8710,338;55,40887
1000,84; 4831,744;  238,963; 8544,338;55,29890
1001,38; 4824,052;  240,502; 8451,569;55,82161
1001,93; 4825,206;  249,194; 8414,262;56,04377
1002,48; 4712,513;  218,579; 8240,185;56,02288
1003,03; 4716,513;  250,117; 8217,877;56,05586
1003,57; 4687,206;  239,425; 8132,415;56,35102
1004,12; 4628,744;  271,656; 8023,415;56,20773
1004,67; 4567,513;  232,502; 7896,338;56,56451
1005,22; 4491,975;  219,733; 7790,723;56,42911
1005,76; 4444,206;  218,963; 7644,338;56,90275
1006,31; 4436,821;  246,502; 7624,185;56,79723
1006,86; 4369,052;  233,502; 7478,646;57,08030
1007,40; 4270,667;  216,579; 7400,800;56,43045
1007,95; 4277,206;  235,502; 7289,185;57,29920
1008,50; 4183,129;  244,425; 7210,492;56,54128
1009,04; 4152,898;  231,656; 7102,031;57,07465
1009,59; 4095,898;  243,733; 6969,262;57,27677
1010,14; 4036,667;  221,810; 6848,877;57,56479
1010,68; 3985,437;  233,656; 6776,415;57,34248
1011,23; 3926,206;  229,656; 6692,031;57,20111
1011,78; 3897,206;  249,579; 6658,415;56,91559
1012,32; 3851,283;  255,887; 6525,723;57,34434
1012,87; 3857,206;  259,502; 6550,492;57,18819
1013,42; 3795,590;  222,963; 6384,338;57,98425
1013,96; 3781,821;  265,733; 6379,723;57,50890
1014,51; 3698,821;  194,194; 6280,877;57,57860
1015,06; 3717,437;  204,348; 6287,954;57,74681
1015,60; 3822,821;  271,425; 6351,492;58,41047
1016,15; 3758,283;  229,348; 6284,108;58,28365
1016,69; 3782,744;  236,348; 6322,877;58,26632
1017,24; 3800,975;  214,733; 6312,262;58,81468
1017,79; 3869,206;  264,040; 6395,800;58,79496
1018,33; 3823,206;  224,271; 6389,492;58,37479
1018,88; 3877,898;  246,963; 6421,569;58,80431
1019,42; 3911,744;  231,887; 6428,877;59,38137
1019,97; 3880,283;  223,117; 6424,492;58,97346
1020,51; 3945,052;  257,810; 6518,415;58,89594
1021,06; 3926,744;  227,040; 6444,415;59,50588
1021,61; 3904,129;  202,040; 6436,646;59,37967
1022,15; 3900,667;  193,040; 6387,723;59,85176
1022,70; 3936,898;  231,348; 6428,954;59,79002
1023,24; 3899,129;  218,040; 6360,723;59,92640
1023,79; 3912,283;  225,733; 6285,185;60,83966
1024,33; 3882,513;  238,502; 6243,723;60,68072
1024,88; 3835,975;  237,810; 6147,646;60,88435
1025,42; 3766,437;  227,810; 6068,800;60,58265
1025,97; 3749,360;  222,425; 5988,262;61,16952
1026,51; 3629,975;  185,733; 5866,185;60,63324
1027,06; 3668,667;  216,887; 5799,877;61,82674
1027,60; 3597,206;  230,887; 5729,877;61,21704
1028,15; 3560,283;  239,579; 5657,954;61,28597
1028,69; 3458,590;  197,810; 5499,492;61,50464
1029,24; 3434,513;  205,579; 5504,108;60,94021
1029,78; 3407,129;  220,810; 5407,954;61,42723
1030,33; 3329,283;  204,810; 5274,415;61,63148
1030,87; 3307,283;  217,271; 5212,646;61,85745
1031,42; 3228,744;  210,579; 5106,108;61,65147
1031,96; 3233,283;  233,117; 5087,108;61,80823
1032,51; 3168,744;  210,810; 4997,877;61,79012
1033,05; 3139,667;  221,425; 4939,492;61,85249
1033,60; 3061,590;  193,502; 4842,108;61,69782
1034,14; 3039,052;  217,194; 4740,338;62,38708
1034,69; 3006,206;  217,810; 4734,800;61,73128
1035,23; 2992,283;  223,963; 4670,338;62,26014
1035,77; 2931,975;  206,348; 4589,723;62,18101
1036,32; 2871,821;  202,348; 4498,723;62,13315
1036,86; 2858,437;  223,887; 4455,338;62,26114
1037,41; 2824,513;  235,579; 4392,646;62,27791
1037,95; 2760,437;  202,194; 4299,262;62,44082
1038,50; 2735,898;  213,425; 4267,262;62,22434
1039,04; 2749,052;  234,425; 4237,492;62,81750
1039,58; 2685,437;  195,963; 4155,415;62,87418
1040,13; 2639,590;  223,194; 4076,954;62,70231
1040,67; 2638,437;  252,271; 4112,800;61,80929
1041,21; 2600,898;  254,502; 4004,954;62,56302
1041,76; 2531,975;  203,502; 3916,723;62,70763
1042,30; 2498,283;  213,579; 3875,800;62,38574
1042,85; 2485,283;  214,579; 3803,877;63,26317
1043,39; 2428,283;  204,656; 3776,262;62,25846
1043,93; 2420,206;  242,887; 3720,185;62,61526
1044,48; 2395,975;  232,887; 3651,646;63,27115
1045,02; 2359,744;  228,810; 3589,954;63,39908
1045,56; 2337,590;  236,040; 3571,723;63,00210
1046,11; 2304,052;  223,425; 3528,877;62,94531
1046,65; 2303,206;  226,963; 3464,800;64,12437
1047,19; 2274,129;  219,656; 3415,108;64,29366
1047,74; 2196,513;  205,271; 3355,185;63,21578
1048,28; 2185,975;  237,887; 3336,031;62,87920
1048,82; 2166,206;  243,117; 3300,800;62,89366
1049,37; 2149,975;  236,579; 3249,646;63,50327
1049,91; 2109,898;  228,425; 3218,492;62,92410
1050,45; 2101,513;  236,425; 3167,569;63,63005
1050,99; 2090,283;  230,963; 3094,031;64,94151
1051,54; 2035,513;  212,656; 3051,338;64,21492
1052,08; 2026,975;  250,810; 3051,031;63,42947
1052,62; 1989,283;  245,040; 2967,262;64,07423
1053,16; 1952,129;  220,502; 2939,031;63,69721
1053,71; 1966,283;  231,348; 2928,800;64,31754
1054,25; 1906,667;  250,348; 2871,723;63,18513
1054,79; 1899,667;  236,194; 2834,723;64,01596
1055,33; 1840,821;  205,425; 2745,338;64,38787
1055,88; 1863,206;  227,733; 2742,031;65,04690
1056,42; 1830,744;  248,271; 2701,108;64,51604
1056,96; 1808,744;  240,579; 2691,954;63,97085
1057,50; 1776,206;  231,117; 2631,646;64,36450
1058,05; 1725,052;  230,194; 2593,492;63,25303
1058,59; 1763,360;  261,040; 2549,723;65,64122
1059,13; 1664,437;  220,963; 2494,877;63,47968
1059,67; 1689,437;  243,040; 2494,877;64,23184
1060,21; 1650,360;  227,502; 2447,338;64,09741
1060,76; 1653,052;  240,963; 2425,646;64,63586
1061,30; 1611,052;  260,040; 2402,108;63,07045
1061,84; 1577,975;  229,425; 2340,569;63,87768
1062,38; 1543,975;  224,963; 2288,569;63,91781
1062,92; 1564,360;  266,348; 2291,569;64,09234
1063,46; 1539,206;  242,502; 2226,338;65,36344
1064,01; 1512,283;  221,579; 2198,954;65,27360
1064,55; 1504,283;  237,271; 2185,185;65,04455
1065,09; 1447,283;  209,502; 2115,800;64,93112
1065,63; 1466,590;  256,656; 2158,185;63,62957
1066,17; 1476,821;  264,810; 2132,108;64,90723
1066,71; 1450,513;  244,733; 2082,262;65,61969
1067,25; 1425,975;  235,733; 2033,262;66,21548
1067,80; 1424,898;  249,810; 2043,492;65,51262
1068,34; 1437,437;  265,271; 2001,723;67,50347
1068,88; 1363,975;  232,502; 1952,262;65,79251
1069,42; 1385,667;  263,810; 1965,877;65,91148
1069,96; 1336,052;  228,194; 1935,415;64,89245
1070,50; 1366,513;  274,117; 1929,108;66,00619
1071,04; 1308,283;  226,117; 1859,031;66,27206
1071,58; 1304,898;  233,271; 1835,646;66,87741
1072,12; 1279,975;  241,040; 1829,108;65,42132
1072,66; 1290,360;  227,656; 1794,877;67,80816
1073,21; 1274,283;  263,579; 1804,108;65,60759
1073,75; 1266,590;  238,656; 1770,108;67,12157
1074,29; 1255,590;  239,040; 1763,492;66,68298
1074,83; 1235,513;  255,656; 1743,415;65,86129
1075,37; 1224,975;  259,656; 1720,185;66,09381
1075,91; 1231,129;  253,040; 1706,492;67,29417
1076,45; 1189,667;  243,194; 1687,877;65,51425
1076,99; 1171,821;  248,502; 1652,185;65,77834
1077,53; 1147,283;  221,502; 1613,492;66,50770
1078,07; 1163,360;  246,887; 1641,646;65,70832
1078,61; 1145,437;  244,887; 1574,723;67,71885
1079,15; 1146,975;  236,271; 1582,569;67,64504
1079,69; 1127,975;  237,271; 1560,108;67,33287
1080,23; 1120,513;  266,810; 1560,646;65,98236
1080,77; 1163,283;  285,502; 1570,800;68,29395
1081,31; 1081,283;  228,579; 1496,492;67,25253
1081,85; 1101,590;  243,810; 1501,954;68,17825
1082,39; 1072,283;  232,194; 1446,031;69,20936
1082,93; 1073,898;  250,887; 1446,800;68,81865
1083,47; 1035,206;  234,117; 1421,415;67,47155
1084,01; 1044,283;  253,810; 1440,415;66,61632
1084,55; 1016,744;  233,963; 1397,185;67,29423
1085,09; 1023,129;  255,040; 1391,646;67,57739
1085,63; 1026,360;  245,579; 1357,108;70,24386
1086,17;  983,283;  233,502; 1338,415;67,85878
1086,71;  970,360;  231,425; 1309,723;68,52786
1087,24;  994,744;  266,502; 1353,877;66,97251
1087,78;  980,667;  255,963; 1318,492;68,20557
1088,32;  930,513;  226,271; 1264,415;67,83665
1088,86;  961,975;  255,733; 1294,415;67,99404
1089,40;  957,590;  243,348; 1259,723;70,27350
1089,94;  909,898;  225,348; 1232,954;67,93828
1090,48;  904,898;  257,733; 1234,185;66,27724
1091,02;  906,360;  253,963; 1229,800;66,85507
1091,56;  902,513;  252,656; 1207,338;68,07054
1092,10;  867,437;  228,348; 1182,646;66,96948
1092,63;  903,129;  257,963; 1209,723;67,78659
1093,17;  881,975;  256,502; 1174,185;68,15788
1093,71;  857,744;  238,194; 1144,338;68,37212
1094,25;  887,052;  257,425; 1153,492;70,26558
1094,79;  844,052;  248,425; 1127,800;67,73298
1095,33;  853,513;  256,271; 1120,031;69,14450
1095,87;  832,975;  251,425; 1102,492;68,33185
1096,40;  804,437;  223,963; 1088,492;67,14329
1096,94;  812,129;  242,117; 1075,877;68,36641
1097,48;  823,975;  252,040; 1080,031;69,07503
1098,02;  792,283;  245,040; 1037,646;69,04344
1098,56;  760,821;  212,348; 1026,800;67,34260
1099,10;  769,206;  227,348; 1004,877;69,68972
1099,63;  766,360;  233,040;  997,723;69,74386
1100,17;  788,052;  248,963; 1012,646;70,59063
1100,71;  779,283;  262,733; 1020,338;68,18190

