
Integration time [ms]: 120,000
Averaging Nr. [scans]: 13
Smoothing Nr. [pixels]: 0
Data measured with spectrometer [name]: 2009305U1
Wave   ;Sample   ;Dark     ;Reference;Reflectance
[nm]   ;[counts] ;[counts] ;[counts] ;[%]

 175,72;  200,109;  214,011;  210,491; 0,00000
 176,32;  235,361;  234,854;  221,035; 0,00000
 176,92;  267,558;  252,010;  252,105; 0,00000
 177,52;  258,429;  257,703;  269,755; 6,02768
 178,12;  234,255;  259,162;  226,222; 0,00000
 178,72;  269,041;  267,700;  262,977; 0,00000
 179,32;  266,805;  267,008;  252,990; 0,00000
 179,92;  252,604;  252,086;  260,981; 5,82525
 180,52;  256,641;  237,474;  255,204;108,10476
 181,12;  258,816;  264,779;  246,111; 0,00000
 181,73;  277,812;  271,317;  278,774;87,10442
 182,33;  357,640;  340,858;  349,872;186,17065
 182,93;  267,433;  273,087;  278,576;-103,02875
 183,53;  252,792;  244,776;  235,582; 0,00000
 184,13;  248,909;  240,007;  242,458;363,26072
 184,73;  277,672;  276,391;  275,425; 0,00000
 185,33;  296,596;  235,450;  343,179;56,75927
 185,93;  292,367;  251,371;  366,993;35,45631
 186,53;  308,840;  264,296;  383,324;37,42363
 187,13;  339,440;  281,913;  402,614;47,66048
 187,73;  306,974;  244,295;  367,374;50,92588
 188,33;  307,504;  247,370;  376,787;46,46527
 188,93;  317,695;  256,828;  379,932;49,44387
 189,53;  309,324;  255,441;  383,528;42,06815
 190,13;  351,349;  286,282;  413,440;51,17033
 190,73;  279,884;  230,670;  367,501;35,96736
 191,34;  328,064;  264,519;  392,473;49,66217
 191,94;  298,023;  250,061;  358,025;44,42399
 192,54;  323,824;  255,069;  412,450;43,68737
 193,14;  316,594;  270,067;  393,208;37,78360
 193,74;  316,419;  258,913;  388,839;44,26080
 194,34;  303,509;  265,375;  387,456;31,23625
 194,94;  270,367;  225,298;  364,182;32,45103
 195,54;  254,933;  208,066;  338,321;35,98115
 196,14;  290,464;  238,222;  374,307;38,38913
 196,74;  283,865;  230,758;  370,073;38,12008
 197,34;  263,490;  208,454;  361,345;35,99681
 197,94;  297,088;  243,683;  382,730;38,40810
 198,54;  306,292;  244,914;  393,339;41,35257
 199,14;  294,477;  217,916;  394,871;43,26576
 199,74;  280,089;  208,609;  371,590;43,85801
 200,34;  270,678;  197,455;  397,849;36,53955
 200,94;  323,483;  244,838;  422,816;44,18808
 201,54;  310,031;  218,531;  427,054;43,88011
 202,14;  333,373;  237,763;  478,271;39,75314
 202,74;  312,195;  222,455;  491,403;33,36729
 203,34;  304,074;  199,611;  485,145;36,58521
 203,94;  291,431;  171,302;  499,632;36,58785
 204,54;  356,860;  250,990;  582,263;31,95855
 205,14;  333,305;  201,839;  591,288;33,75690
 205,74;  387,235;  250,149;  673,170;32,40651
 206,34;  356,512;  217,610;  685,661;29,67672
 206,94;  385,542;  223,994;  767,684;29,71328
 207,54;  370,157;  195,609;  803,859;28,69669
 208,14;  409,112;  211,917;  871,919;29,87794
 208,74;  430,719;  210,147;  953,332;29,67934
 209,34;  436,810;  211,686; 1030,270;27,50170
 209,94;  465,876;  227,224; 1107,404;27,11405
 210,54;  508,101;  224,456; 1213,557;28,67700
 211,14;  520,807;  219,378; 1305,660;27,74871
 211,73;  542,720;  217,608; 1452,751;26,32183
 212,33;  587,103;  227,377; 1547,098;27,25771
 212,93;  594,804;  212,531; 1631,895;26,93265
 213,53;  580,408;  184,455; 1698,742;26,14782
 214,13;  625,871;  201,765; 1768,735;27,06533
 214,73;  599,296;  205,686; 1818,655;24,40278
 215,33;  627,107;  170,070; 1843,865;27,30543
 215,93;  666,514;  215,533; 1939,797;26,15496
 216,53;  669,178;  171,916; 2008,260;27,07889
 217,13;  765,771;  218,225; 2228,230;27,24100
 217,73;  830,429;  197,226; 2419,695;28,49099
 218,33;  865,039;  167,689; 2608,289;28,57290
 218,93;  989,144;  193,075; 2925,847;29,13044
 219,53; 1097,420;  187,919; 3199,315;30,20195
 220,13; 1163,184;  160,997; 3492,152;30,08528
 220,73; 1321,792;  196,301; 3855,225;30,76016
 221,32; 1485,489;  196,224; 4241,486;31,87098
 221,92; 1631,639;  194,535; 4611,645;32,53493
 222,52; 1765,477;  175,534; 5028,421;32,76283
 223,12; 1943,850;  188,611; 5452,883;33,34249
 223,72; 2125,462;  193,149; 5839,909;34,21985
 224,32; 2321,949;  201,457; 6225,846;35,19845
 224,92; 2422,758;  187,995; 6528,218;35,24739
 225,52; 2610,923;  204,225; 6824,864;36,35145
 226,12; 2743,526;  197,995; 7150,236;36,61453
 226,72; 2880,867;  170,610; 7430,639;37,33121
 227,31; 3067,061;  166,918; 7784,703;38,07069
 227,91; 3250,693;  199,224; 8174,074;38,26365
 228,51; 3452,849;  190,762; 8542,716;39,05778
 229,11; 3668,127;  200,610; 8901,221;39,85372
 229,71; 3812,079;  190,147; 9201,856;40,19140
 230,31; 4013,600;  176,996; 9611,594;40,66526
 230,91; 4186,660;  180,376; 9901,870;41,21058
 231,51; 4394,239;  172,918;10149,144;42,31381
 232,10; 4597,383;  179,689;10549,763;42,60041
 232,70; 4801,278;  187,529;10728,456;43,76986
 233,30; 5002,987;  211,687;11067,642;44,13522
 233,90; 5115,104;  185,456;11173,783;44,86259
 234,50; 5259,913;  186,380;11254,406;45,83955
 235,10; 5352,451;  185,611;11410,449;46,03042
 235,70; 5515,140;  196,070;11478,618;47,14422
 236,29; 5514,785;  198,301;11520,004;46,95835
 236,89; 5538,704;  177,761;11422,929;47,67330
 237,49; 5589,123;  191,072;11328,499;48,46767
 238,09; 5520,358;  187,917;11123,585;48,76192
 238,69; 5449,998;  216,068;10997,794;48,54446
 239,29; 5287,223;  181,686;10689,070;48,58999
 239,89; 5206,125;  195,299;10454,865;48,84052
 240,48; 4980,937;  185,225;10118,418;48,27966
 241,08; 4808,505;  193,763; 9742,825;48,32666
 241,68; 4653,215;  213,763; 9520,143;47,70332
 242,28; 4412,016;  178,995; 9134,763;47,26587
 242,88; 4273,944;  227,611; 8920,992;46,54498
 243,48; 4052,742;  223,533; 8575,165;45,84982
 244,07; 3912,579;  203,532; 8415,676;45,16539
 244,67; 3733,336;  202,841; 8270,125;43,76312
 245,27; 3572,489;  220,454; 8104,289;42,51782
 245,87; 3432,963;  209,534; 8052,016;41,10215
 246,47; 3319,218;  203,454; 8026,533;39,82785
 247,06; 3210,743;  192,917; 8066,640;38,32782
 247,66; 3102,460;  189,225; 8140,829;36,63708
 248,26; 3056,104;  214,147; 8246,541;35,38120
 248,86; 2960,672;  204,377; 8416,278;33,56464
 249,46; 2866,858;  163,226; 8637,810;31,90283
 250,05; 2869,944;  200,225; 9001,750;30,33247
 250,65; 2835,431;  180,146; 9283,159;29,16930
 251,25; 2863,993;  186,609; 9749,741;27,99693
 251,85; 2863,532;  200,838;10301,961;26,36037
 252,44; 2889,067;  165,147;10896,011;25,38398
 253,04; 2937,484;  199,916;11586,994;24,04100
 253,64; 2988,201;  155,377;12285,600;23,35344
 254,24; 3079,487;  207,379;13194,570;22,11493
 254,84; 3126,550;  178,226;14003,964;21,32490
 255,43; 3240,540;  184,455;14937,800;20,71452
 256,03; 3350,421;  188,992;15838,293;20,20172
 256,63; 3475,590;  193,992;16841,839;19,71185
 257,23; 3543,986;  186,761;17628,321;19,24842
 257,82; 3699,519;  195,299;18538,267;19,10389
 258,42; 3739,817;  162,990;19328,589;18,66274
 259,02; 3964,931;  209,301;20139,462;18,84395
 259,62; 4030,268;  180,221;20731,471;18,73388
 260,21; 4165,393;  194,685;21289,210;18,82341
 260,81; 4287,918;  184,071;21702,030;19,07173
 261,41; 4392,805;  174,606;22078,227;19,25800
 262,01; 4552,749;  221,682;22455,243;19,47986
 262,60; 4679,986;  173,146;22837,551;19,88510
 263,20; 4843,090;  180,300;23017,834;20,41722
 263,80; 5037,427;  212,297;23269,479;20,92680
 264,40; 5154,884;  179,605;23417,988;21,40975
 264,99; 5335,746;  197,605;23557,247;21,99580
 265,59; 5477,913;  173,065;23634,504;22,61093
 266,19; 5673,192;  175,220;23791,813;23,28012
 266,78; 5868,168;  219,527;23890,966;23,86269
 267,38; 5996,155;  190,604;23883,007;24,50385
 267,98; 6153,007;  178,373;23945,249;25,13849
 268,58; 6298,118;  196,219;23961,147;25,67607
 269,17; 6478,161;  181,526;23839,644;26,61511
 269,77; 6560,276;  194,607;23667,926;27,11874
 270,37; 6719,885;  171,759;23642,100;27,89958
 270,96; 6812,347;  220,837;23534,837;28,27275
 271,56; 6890,631;  185,069;23236,441;29,08964
 272,16; 6992,142;  179,683;23018,809;29,82802
 272,75; 7126,769;  201,914;22979,060;30,40264
 273,35; 7323,662;  197,760;22937,037;31,33741
 273,95; 7366,996;  193,144;22835,086;31,68390
 274,54; 7582,699;  178,456;22986,372;32,46348
 275,14; 7872,636;  202,453;23256,121;33,27099
 275,74; 7976,428;  173,606;23292,559;33,75076
 276,33; 8297,298;  226,684;23662,406;34,43723
 276,93; 8548,940;  196,687;23913,182;35,21706
 277,53; 8894,397;  199,608;24534,799;35,72928
 278,12; 9211,451;  170,454;25029,700;36,36875
 278,72; 9607,159;  220,070;25611,676;36,96926
 279,32; 9903,460;  187,070;26204,399;37,34584
 279,91;10329,757;  181,377;26885,050;38,00369
 280,51;10764,448;  188,224;27319,345;38,98189
 281,11;11151,413;  188,762;28027,807;39,37869
 281,70;11474,736;  172,300;28516,318;39,87591
 282,30;11924,169;  167,761;29008,980;40,76252
 282,90;12308,883;  183,530;29518,614;41,33396
 283,49;12751,812;  205,760;29882,679;42,27545
 284,09;13136,014;  215,684;30373,638;42,84220
 284,69;13493,640;  211,147;30792,239;43,43368
 285,28;13946,557;  202,300;31094,996;44,49031
 285,88;14327,087;  247,452;31228,136;45,44650
 286,47;14593,349;  203,684;31397,204;46,13030
 287,07;14880,848;  224,916;31454,989;46,92891
 287,67;15275,203;  212,456;31525,935;48,10308
 288,26;15598,662;  191,070;31458,104;49,27743
 288,86;16010,146;  185,915;31527,080;50,49024
 289,46;16414,288;  194,608;31602,333;51,64233
 290,05;16935,227;  179,994;31644,792;53,25073
 290,65;17459,825;  188,530;31961,330;54,35874
 291,24;17952,104;  197,531;32071,772;55,70195
 291,84;18427,436;  210,376;32187,916;56,96830
 292,44;18841,881;  197,687;32306,192;58,06621
 293,03;19288,778;  256,993;32436,881;59,14186
 293,63;19793,616;  192,530;32589,832;60,50222
 294,22;20267,662;  223,916;32787,544;61,55256
 294,82;20564,166;  189,298;32749,534;62,57592
 295,41;20630,505;  178,377;32409,549;63,45450
 296,01;20940,795;  233,298;32385,570;64,40446
 296,61;20867,398;  208,916;32144,624;64,68772
 297,20;20832,110;  197,375;31749,385;65,39911
 297,80;20957,373;  208,763;31707,096;65,87209
 298,39;20786,532;  181,530;31272,269;66,27376
 298,99;20774,922;  218,914;31171,619;66,41102
 299,58;20748,416;  210,610;31033,330;66,63204
 300,18;20752,315;  220,225;30806,427;67,12860
 300,78;20577,269;  199,378;30449,890;67,36379
 301,37;20631,171;  207,451;30432,521;67,57212
 301,97;20585,636;  206,454;30430,936;67,42608
 302,56;20618,455;  188,992;30386,632;67,65252
 303,16;20656,427;  176,837;30333,084;67,91160
 303,75;20606,653;  193,763;30285,065;67,83651
 304,35;20691,682;  186,380;30508,043;67,62591
 304,94;20728,149;  203,993;30569,558;67,59023
 305,54;20652,489;  216,608;30541,178;67,39050
 306,13;20549,923;  174,611;30450,525;67,29875
 306,73;20397,826;  178,225;30252,904;67,23131
 307,33;20303,482;  199,994;30222,023;66,96245
 307,92;20198,892;  201,916;30257,048;66,53431
 308,52;20459,108;  169,760;30726,910;66,39804
 309,11;20737,539;  184,221;31172,556;66,32598
 309,71;20768,075;  163,374;31424,518;65,91154
 310,30;20839,881;  177,224;31627,643;65,69915
 310,90;21009,804;  210,300;32022,412;65,38234
 311,49;20928,372;  194,839;32175,456;64,83156
 312,09;21012,352;  164,994;32204,056;65,06856
 312,68;21124,716;  252,685;32703,819;64,31834
 313,28;21024,815;  169,993;32749,894;64,01131
 313,87;20947,350;  163,916;32908,745;63,47089
 314,47;21059,359;  188,298;33239,584;63,14750
 315,06;20971,599;  169,839;33319,657;62,75075
 315,66;20877,659;  182,455;33472,056;62,16717
 316,25;20712,166;  167,299;33362,117;61,89179
 316,85;20504,366;  169,532;33522,281;60,96899
 317,44;20402,414;  180,990;33591,852;60,52350
 318,04;20230,228;  168,299;33530,704;60,13334
 318,63;20093,613;  172,149;33780,949;59,27455
 319,22;19980,811;  199,991;33815,029;58,84515
 319,82;19745,062;  180,300;33826,265;58,14891
 320,41;19602,129;  206,684;33832,818;57,67968
 321,01;19364,846;  198,763;34009,304;56,68671
 321,60;19204,575;  187,454;34014,887;56,21804
 322,20;18969,558;  179,839;33994,132;55,56739
 322,79;18780,694;  219,685;34137,856;54,72291
 323,39;18574,466;  198,610;34160,862;54,10671
 323,98;18313,335;  167,839;34069,793;53,52345
 324,58;18066,742;  176,760;34045,955;52,82081
 325,17;17763,928;  186,914;33877,862;52,17132
 325,76;17427,317;  211,223;33732,398;51,35886
 326,36;17043,330;  165,994;33385,708;50,80518
 326,95;16685,278;  212,531;33068,215;50,13667
 327,55;16248,414;  180,915;32656,611;49,47546
 328,14;15822,534;  180,686;32347,296;48,62759
 328,74;15518,997;  212,915;32037,375;48,09534
 329,33;15125,220;  201,378;31622,900;47,49561
 329,92;14712,667;  174,067;31077,948;47,04458
 330,52;14257,025;  195,994;30413,899;46,53212
 331,11;13877,978;  191,531;30040,471;45,85237
 331,71;13365,142;  182,839;29481,743;44,99248
 332,30;13016,841;  202,300;28987,558;44,51772
 332,89;12587,481;  234,224;28535,328;43,64938
 333,49;12179,758;  190,300;28010,722;43,09589
 334,08;11864,242;  191,915;27613,335;42,56646
 334,68;11523,451;  195,223;27126,085;42,06411
 335,27;11209,387;  211,533;26843,055;41,29638
 335,86;10915,901;  231,915;26509,548;40,65810
 336,46;10641,361;  202,764;26375,601;39,88332
 337,05;10413,480;  182,838;26198,842;39,32441
 337,65;10231,007;  171,300;26069,592;38,84313
 338,24;10128,203;  225,916;25957,889;38,48242
 338,83; 9897,082;  211,609;25960,928;37,61448
 339,43; 9691,756;  173,607;25897,586;37,00108
 340,02; 9566,771;  182,760;25765,097;36,68160
 340,61; 9405,888;  182,839;25888,382;35,87961
 341,21; 9329,151;  219,838;25863,991;35,52199
 341,80; 9104,051;  185,684;25785,399;34,83776
 342,40; 9047,211;  197,148;25992,092;34,30929
 342,99; 8932,865;  194,993;25933,790;33,94825
 343,58; 8859,528;  187,301;26161,746;33,38753
 344,18; 8776,689;  198,532;26237,792;32,94317
 344,77; 8735,870;  182,683;26542,732;32,44754
 345,36; 8724,124;  170,069;26864,292;32,04459
 345,96; 8717,565;  210,301;27234,220;31,48049
 346,55; 8654,209;  174,918;27441,869;31,09732
 347,14; 8648,497;  161,840;27771,304;30,73822
 347,74; 8615,646;  156,458;28145,362;30,22336
 348,33; 8671,877;  186,689;28707,341;29,75103
 348,92; 8797,791;  195,920;29365,093;29,48959
 349,52; 8771,638;  165,920;29764,897;29,07438
 350,11; 8749,171;  184,606;30038,993;28,68779
 350,70; 8671,372;  177,147;30054,247;28,43055
 351,29; 8509,055;  169,681;29940,415;28,01199
 351,89; 8407,597;  203,913;29866,511;27,65666
 352,48; 8285,240;  165,916;29935,189;27,27418
 353,07; 8210,804;  194,148;29823,556;27,05642
 353,67; 8084,739;  200,997;29713,261;26,71344
 354,26; 7934,515;  198,917;29488,810;26,41047
 354,85; 7842,652;  193,302;29422,646;26,17011
 355,45; 7667,777;  174,684;29183,647;25,83027
 356,04; 7594,734;  173,533;29054,525;25,69580
 356,63; 7513,791;  210,915;28904,684;25,45108
 357,22; 7419,830;  193,605;28869,734;25,19944
 357,82; 7273,441;  193,759;28557,879;24,95999
 358,41; 7215,556;  207,762;28547,116;24,72814
 359,00; 7123,928;  174,607;28296,092;24,71179
 359,60; 7045,338;  194,608;28288,921;24,38476
 360,19; 6977,738;  201,687;28002,597;24,37348
 360,78; 6911,125;  194,530;27936,809;24,21068
 361,37; 6852,582;  194,300;27711,758;24,19658
 361,97; 6772,336;  197,377;27527,653;24,05742
 362,56; 6708,079;  180,299;27236,461;24,12678
 363,15; 6674,421;  225,838;27027,789;24,06013
 363,74; 6576,296;  192,529;26720,347;24,06443
 364,34; 6457,067;  213,530;26316,252;23,91910
 364,93; 6361,266;  189,222;25886,940;24,01787
 365,52; 6278,670;  160,223;25558,163;24,09033
 366,11; 6203,408;  190,530;25238,522;24,00543
 366,71; 6080,195;  190,530;24836,259;23,89731
 367,30; 6052,087;  195,992;24520,356;24,07502
 367,89; 6072,330;  231,994;24276,421;24,28977
 368,48; 5990,519;  191,914;24039,399;24,31538
 369,07; 5890,602;  199,147;23550,247;24,37339
 369,67; 5889,003;  215,375;23316,747;24,55970
 370,26; 5835,133;  192,070;22970,222;24,77402
 370,85; 5762,421;  194,300;22808,426;24,62231
 371,44; 5825,842;  193,531;22547,537;25,19598
 372,03; 5751,624;  169,684;22257,143;25,27199
 372,63; 5720,216;  163,069;21982,440;25,46887
 373,22; 5715,786;  177,531;21741,752;25,68261
 373,81; 5680,249;  160,300;21415,612;25,96974
 374,40; 5683,014;  171,148;21239,725;26,16155
 374,99; 5662,561;  172,992;20929,180;26,44787
 375,59; 5631,699;  176,917;20639,602;26,65722
 376,18; 5707,879;  211,607;20573,354;26,99313
 376,77; 5728,677;  199,531;20440,307;27,31687
 377,36; 5707,981;  214,838;20258,752;27,40554
 377,95; 5756,188;  205,299;20033,619;27,99475
 378,55; 5740,231;  179,917;19882,074;28,22186
 379,14; 5787,194;  196,146;19750,092;28,59294
 379,73; 5848,796;  194,299;19681,440;29,01655
 380,32; 5961,662;  198,762;19774,467;29,43904
 380,91; 5958,567;  174,606;19592,048;29,78745
 381,50; 6042,460;  192,376;19510,641;30,28266
 382,10; 6043,508;  174,916;19439,929;30,46244
 382,69; 6107,293;  156,531;19346,111;31,01038
 383,28; 6199,020;  211,299;19309,219;31,35274
 383,87; 6240,291;  187,684;19220,437;31,80101
 384,46; 6306,221;  181,451;19105,130;32,36564
 385,05; 6418,134;  212,453;19159,596;32,75260
 385,64; 6453,023;  187,299;19117,061;33,09986
 386,24; 6537,997;  162,682;19102,309;33,66125
 386,83; 6682,650;  206,220;19170,224;34,15117
 387,42; 6770,016;  205,684;19213,959;34,53408
 388,01; 6924,718;  203,835;19424,021;34,96784
 388,60; 7136,414;  190,682;19714,984;35,57480
 389,19; 7307,264;  179,294;19877,154;36,18652
 389,78; 7479,999;  180,756;20081,850;36,67760
 390,37; 7767,922;  237,989;20500,938;37,16109
 390,96; 7899,716;  194,067;20605,686;37,75129
 391,56; 8040,408;  186,602;20828,246;38,04836
 392,15; 8278,742;  180,295;21066,263;38,77458
 392,74; 8394,790;  160,599;21195,009;39,14629
 393,33; 8597,101;  190,294;21529,532;39,39600
 393,92; 8947,136;  195,445;21971,070;40,19031
 394,51; 9080,742;  171,678;22011,525;40,79270
 395,10; 9396,396;  212,980;22320,561;41,53967
 395,69; 9523,776;  197,980;22370,861;42,05947
 396,28; 9671,655;  206,671;22541,372;42,37793
 396,87; 9838,467;  206,976;22536,878;43,13270
 397,46; 9984,423;  212,051;22681,522;43,49178
 398,06;10187,615;  215,202;22883,559;43,99266
 398,65;10341,604;  205,812;22987,241;44,49147
 399,24;10516,409;  214,965;23177,174;44,86260
 399,83;10638,804;  181,341;23191,498;45,44716
 400,42;10861,732;  227,642;23303,087;46,08401
 401,01;11024,435;  208,095;23360,851;46,71729
 401,60;11187,866;  213,699;23426,923;47,27550
 402,19;11217,856;  236,228;23302,605;47,60881
 402,78;11371,655;  237,521;23374,864;48,12192
 403,37;11423,486;  229,585;23262,227;48,60016
 403,96;11437,212;  229,339;23087,261;49,03277
 404,55;11533,351;  222,244;23012,735;49,63082
 405,14;11559,305;  210,382;22907,620;50,00134
 405,73;11601,868;  225,825;22750,232;50,50541
 406,32;11723,122;  236,505;22705,050;51,12310
 406,91;11720,779;  232,721;22386,749;51,85539
 407,50;11757,824;  221,867;22256,863;52,35289
 408,09;11691,542;  206,708;22011,041;52,67225
 408,68;11773,913;  221,012;21957,970;53,14865
 409,27;11819,888;  202,556;21688,442;54,06960
 409,86;11803,520;  219,259;21532,125;54,35337
 410,45;11911,038;  239,038;21510,112;54,87264
 411,04;11975,574;  249,971;21493,166;55,19698
 411,63;11900,001;  245,060;21150,964;55,74952
 412,22;11886,592;  233,610;20948,065;56,25531
 412,81;11793,254;  252,076;20697,197;56,44955
 413,40;11767,906;  255,158;20348,179;57,29725
 413,99;11722,510;  301,233;20118,113;57,63408
 414,58;11574,167;  221,080;19696,334;58,29494
 415,17;11545,712;  233,922;19499,762;58,71423
 415,76;11573,091;  227,841;19327,113;59,40148
 416,35;11533,658;  215,843;19197,441;59,62520
 416,94;11693,426;  249,072;19219,494;60,32736
 417,53;11897,700;  220,076;19349,245;61,04616
 418,12;12082,973;  219,539;19529,697;61,43623
 418,71;12366,008;  247,081;19865,270;61,77393
 419,30;12501,301;  222,078;19975,758;62,16170
 419,89;12736,354;  222,463;20130,901;62,85722
 420,48;13005,177;  254,158;20399,802;63,29417
 421,07;13159,405;  249,236;20499,272;63,75381
 421,66;13088,364;  219,931;20508,953;63,42559
 422,25;13248,329;  231,397;20479,076;64,28851
 422,84;13284,283;  245,705;20448,585;64,53821
 423,43;13166,862;  227,934;20130,868;65,01015
 424,02;13108,091;  251,627;19882,953;65,48953
 424,60;12825,874;  231,094;19474,399;65,45019
 425,19;12814,298;  240,168;19222,393;66,24160
 425,78;12832,425;  251,399;19095,114;66,76510
 426,37;12801,538;  256,632;19052,522;66,74281
 426,96;12828,227;  233,709;18995,471;67,12865
 427,55;12788,799;  230,174;18799,755;67,63009
 428,14;12698,159;  231,021;18600,632;67,86827
 428,73;12672,406;  244,711;18385,860;68,50556
 429,32;12713,777;  256,093;18374,449;68,75725
 429,91;12761,893;  273,096;18409,951;68,85867
 430,50;12666,963;  254,020;18227,048;69,06428
 431,08;12618,227;  268,714;18036,209;69,50621
 431,67;12654,403;  305,793;18056,735;69,56594
 432,26;12531,030;  316,563;17833,318;69,73019
 432,85;12416,570;  337,486;17562,660;70,12460
 433,44;12187,133;  356,873;17172,839;70,35136
 434,03;12067,361;  354,491;16845,627;71,02525
 434,62;11764,946;  324,642;16417,436;71,08960
 435,21;11715,701;  327,794;16185,278;71,81409
 435,79;11626,840;  324,413;16105,592;71,61966
 436,38;11548,709;  311,493;15987,757;71,68300
 436,97;11580,617;  318,493;15888,959;72,33004
 437,56;11461,670;  320,113;15697,521;72,45407
 438,15;11515,266;  304,650;15652,858;73,04186
 438,74;11583,613;  311,727;15625,964;73,60397
 439,33;11594,797;  289,957;15635,812;73,66706
 439,91;11648,266;  247,344;15693,001;73,81312
 440,50;11760,211;  291,344;15760,426;74,14058
 441,09;11897,426;  299,423;15826,024;74,69763
 441,68;11933,882;  276,041;15843,795;74,88454
 442,27;11986,415;  259,271;15816,972;75,37839
 442,86;11945,836;  242,507;15760,416;75,41821
 443,44;12101,623;  257,121;15863,457;75,89546
 444,03;12169,865;  317,353;15933,096;75,90105
 444,62;12096,386;  252,969;15771,282;76,31897
 445,21;12009,827;  258,968;15603,276;76,58122
 445,80;11985,630;  285,817;15537,769;76,71027
 446,39;11810,847;  306,893;15259,887;76,93412
 446,97;11653,675;  248,973;15117,031;76,70607
 447,56;11549,462;  258,822;14881,744;77,21193
 448,15;11437,738;  257,358;14708,575;77,36636
 448,74;11319,807;  277,435;14532,033;77,46533
 449,33;11226,386;  259,591;14381,855;77,65606
 449,91;11105,808;  268,363;14127,784;78,19551
 450,50;10964,743;  256,901;13936,125;78,27814
 451,09;10954,175;  274,670;13823,256;78,82376
 451,68;10908,707;  276,441;13806,388;78,58321
 452,26;10846,386;  285,673;13669,188;78,90837
 452,85;10763,549;  274,672;13602,072;78,70160
 453,44;10795,101;  276,214;13548,990;79,25160
 454,03;10811,853;  246,673;13497,682;79,73114
 454,61;10807,020;  250,984;13505,037;79,64384
 455,20;11005,582;  275,293;13698,541;79,93809
 455,79;11025,857;  277,983;13652,470;80,36102
 456,38;11078,651;  274,910;13745,297;80,20364
 456,97;11209,648;  262,832;13788,874;80,93140
 457,55;11198,103;  260,449;13837,587;80,55935
 458,14;11210,327;  294,293;13814,915;80,73618
 458,73;11169,637;  281,680;13714,557;81,05454
 459,31;11225,896;  296,529;13813,654;80,85570
 459,90;11292,276;  290,758;13818,272;81,32698
 460,49;11332,589;  351,450;13955,721;80,71832
 461,08;11458,084;  263,068;14026,081;81,34132
 461,66;11476,098;  271,067;14062,666;81,24533
 462,25;11565,551;  279,377;14116,827;81,56252
 462,84;11602,234;  303,915;14197,590;81,31987
 463,43;11546,000;  242,072;14152,035;81,26497
 464,01;11601,748;  276,304;14173,250;81,49592
 464,60;11601,423;  317,302;14104,271;81,84627
 465,19;11390,977;  248,458;13829,929;82,04207
 465,77;11398,887;  276,152;13818,651;82,13207
 466,36;11315,633;  298,995;13807,157;81,55542
 466,95;11083,761;  269,303;13465,801;81,94945
 467,53;10810,071;  265,999;13120,818;82,02428
 468,12;10676,136;  303,077;12935,455;82,11485
 468,71;10519,856;  289,766;12720,528;82,29657
 469,29;10319,992;  261,769;12462,573;82,43902
 469,88;10152,056;  272,001;12264,044;82,38843
 470,47;10281,235;  337,696;12320,684;82,98046
 471,06;10254,821;  282,619;12328,948;82,78208
 471,64;10254,760;  297,772;12438,032;82,01626
 472,23;10328,864;  267,468;12412,909;82,84093
 472,81;10451,620;  255,697;12530,520;83,06370
 473,40;10564,318;  275,007;12617,038;83,36806
 473,99;10762,663;  351,776;12868,974;83,17266
 474,57;10814,348;  274,930;12922,774;83,32976
 475,16;10938,311;  282,390;13021,408;83,64790
 475,75;11033,418;  299,162;13219,026;83,08335
 476,33;11129,806;  311,472;13281,143;83,41256
 476,92;11192,669;  302,623;13358,503;83,41105
 477,51;11221,412;  308,932;13445,136;83,07179
 478,09;11204,870;  294,240;13419,778;83,12520
 478,68;11185,946;  304,164;13362,918;83,32940
 479,27;11289,370;  322,162;13398,552;83,87030
 479,85;11213,378;  291,010;13395,238;83,34996
 480,44;11304,882;  280,934;13514,284;83,30429
 481,02;12422,945;  299,166;14890,258;83,09028
 481,61;14039,675;  328,627;16791,592;83,28420
 482,20;14979,344;  307,320;17952,021;83,15258
 482,78;15637,795;  336,164;18747,165;83,11134
 483,37;16062,471;  331,168;19181,214;83,45498
 483,95;16296,008;  360,861;19498,872;83,26439
 484,54;16447,910;  368,858;19706,929;83,14713
 485,13;16299,305;  336,709;19610,632;82,81965
 485,71;16146,075;  324,785;19346,645;83,17425
 486,30;15898,379;  362,016;19083,825;82,98537
 486,88;15662,624;  393,094;18700,169;83,40781
 487,47;15031,484;  374,325;18071,129;82,82376
 488,05;14365,082;  352,480;17169,758;83,32266
 488,64;13279,738;  351,866;15953,196;82,86391
 489,23;11859,408;  361,172;14158,845;83,33460
 489,81;10135,842;  357,173;12161,741;82,83801
 490,40; 9596,618;  314,096;11526,192;82,79024
 490,98; 9438,745;  298,174;11308,263;83,01995
 491,57; 9364,887;  340,942;11203,911;83,07070
 492,15; 9274,949;  309,097;11135,984;82,81099
 492,74; 9266,357;  307,095;11077,048;83,18757
 493,32; 9145,566;  325,097;10976,864;82,80756
 493,91; 9062,969;  310,714;10834,780;83,16421
 494,50; 9035,740;  298,255;10840,332;82,88200
 495,08; 8970,637;  300,255;10785,164;82,69392
 495,67; 8921,589;  309,021;10786,502;82,20075
 496,25; 8838,032;  268,254;10615,216;82,82411
 496,84; 8829,582;  276,790;10577,609;83,03021
 497,42; 8792,306;  260,869;10584,471;82,64012
 498,01; 8715,567;  288,944;10561,658;82,02918
 498,59; 8664,763;  253,793;10434,210;82,61911
 499,18; 8600,145;  263,791;10398,051;82,25913
 499,76; 8539,201;  288,869;10342,133;82,06620
 500,35; 8354,767;  285,871;10129,230;81,97300
 500,93; 8310,720;  261,869;10119,745;81,64893
 501,52; 8261,441;  253,254;10037,370;81,84885
 502,10; 8203,889;  277,026;10058,292;81,04128
 502,69; 8079,411;  264,873; 9867,788;81,37672
 503,27; 7956,941;  246,717; 9738,365;81,23167
 503,86; 7926,855;  262,258; 9683,778;81,35202
 504,44; 7773,919;  239,797; 9545,710;80,96059
 505,03; 7622,937;  237,182; 9315,293;81,35784
 505,61; 7490,879;  246,643; 9187,757;81,02163
 506,19; 7399,542;  269,259; 9027,042;81,41652
 506,78; 7236,687;  232,415; 8888,742;80,91506
 507,36; 7109,260;  244,105; 8713,035;81,06283
 507,95; 6977,099;  242,108; 8589,276;80,68594
 508,53; 6865,885;  244,184; 8456,010;80,63615
 509,12; 6734,726;  255,415; 8346,177;80,08283
 509,70; 6602,641;  271,031; 8164,040;80,21794
 510,29; 6456,158;  265,109; 8054,871;79,47675
 510,87; 6329,771;  235,184; 7870,536;79,82065
 511,46; 6144,364;  239,954; 7731,482;78,81449
 512,04; 6062,087;  252,032; 7561,320;79,48866
 512,62; 5952,975;  255,184; 7416,354;79,56509
 513,21; 5776,975;  240,571; 7270,673;78,75283
 513,79; 5684,228;  235,805; 7148,133;78,82183
 514,38; 5588,794;  213,958; 7017,481;79,00078
 514,96; 5476,506;  262,881; 6925,351;78,25363
 515,54; 5374,958;  226,112; 6757,621;78,83089
 516,13; 5321,994;  249,805; 6727,193;78,30609
 516,71; 5187,156;  239,729; 6619,494;77,54873
 517,30; 5059,545;  237,884; 6475,415;77,30079
 517,88; 5010,842;  259,423; 6415,318;77,18486
 518,46; 4873,786;  239,192; 6278,555;76,73978
 519,05; 4869,198;  246,270; 6242,089;77,10252
 519,63; 4800,994;  253,731; 6210,271;76,34068
 520,22; 4752,114;  264,118; 6145,802;76,30461
 520,80; 4668,308;  241,657; 6089,502;75,69712
 521,38; 4665,219;  270,117; 6038,283;76,19584
 521,97; 4616,873;  249,504; 5990,268;76,07645
 522,55; 4603,741;  262,042; 6003,363;75,62195
 523,13; 4526,403;  218,197; 5979,922;74,77285
 523,72; 4504,929;  237,962; 5996,919;74,09270
 524,30; 4601,917;  265,121; 6118,603;74,08917
 524,89; 4566,990;  226,966; 6066,737;74,31839
 525,47; 4658,821;  259,737; 6228,831;73,69769
 526,05; 4679,645;  217,891; 6252,679;73,93389
 526,64; 4726,783;  249,507; 6357,749;73,29893
 527,22; 4795,268;  252,660; 6508,375;72,61533
 527,80; 4838,563;  280,045; 6594,363;72,19336
 528,39; 4852,723;  252,046; 6668,319;71,70326
 528,97; 4990,742;  249,430; 6866,475;71,65301
 529,55; 5077,747;  266,428; 7027,242;71,16479
 530,14; 5226,000;  272,739; 7183,548;71,67411
 530,72; 5236,123;  251,507; 7257,578;71,14709
 531,30; 5324,194;  230,431; 7432,633;70,72507
 531,89; 5367,157;  255,970; 7539,082;70,17862
 532,47; 5418,072;  291,740; 7590,484;70,23581
 533,05; 5408,490;  270,968; 7713,952;69,02503
 533,63; 5430,642;  290,048; 7722,775;69,16162
 534,22; 5431,390;  243,663; 7745,987;69,14827
 534,80; 5477,489;  284,664; 7824,512;68,87174
 535,38; 5500,673;  347,355; 7905,161;68,18537
 535,97; 5472,566;  261,817; 7892,984;68,28246
 536,55; 5496,855;  315,588; 7965,181;67,73258
 537,13; 5471,205;  321,585; 7858,632;68,32410
 537,71; 5492,550;  353,893; 7955,855;67,59646
 538,30; 5500,092;  377,817; 8017,895;67,04479
 538,88; 5569,486;  420,820; 8103,024;67,02069
 539,46; 5637,280;  478,126; 8345,762;65,57439
 540,05; 5672,916;  488,358; 8432,250;65,26471
 540,63; 5798,275;  537,896; 8601,642;65,23492
 541,21; 5894,232;  572,589; 8769,894;64,91943
 541,79; 5895,965;  606,359; 8848,188;64,18000
 542,38; 5952,184;  642,127; 9037,319;63,25116
 542,96; 6048,146;  653,206; 9214,436;63,01594
 543,54; 6114,903;  677,666; 9375,238;62,51442
 544,12; 6191,595;  649,590; 9532,588;62,38890
 544,70; 6220,596;  631,745; 9606,284;62,27452
 545,29; 6305,352;  626,434; 9729,236;62,38648
 545,87; 6247,273;  614,743; 9737,035;61,74468
 546,45; 6228,711;  569,973; 9822,068;61,16170
 547,03; 6233,816;  541,512; 9883,120;60,93495
 547,62; 6267,335;  494,205; 9992,292;60,78202
 548,20; 6337,124;  507,052;10146,627;60,48059
 548,78; 6375,107;  466,209;10274,288;60,24521
 549,36; 6469,518;  430,978;10394,721;60,60513
 549,94; 6466,030;  389,205;10572,924;59,67196
 550,53; 6586,735;  389,977;10738,146;59,88265
 551,11; 6592,805;  374,132;10949,838;58,80149
 551,69; 6747,064;  366,670;11268,515;58,52581
 552,27; 6822,890;  327,669;11472,391;58,28069
 552,85; 6995,424;  338,748;11863,966;57,75749
 553,44; 7136,280;  334,054;12133,291;57,64971
 554,02; 7243,832;  345,901;12468,942;56,89934
 554,60; 7380,058;  289,594;12718,570;57,04785
 555,18; 7579,789;  322,285;13074,631;56,91112
 555,76; 7659,619;  309,286;13447,218;55,94742
 556,34; 7854,476;  309,057;13842,074;55,75563
 556,93; 7969,433;  300,439;14178,466;55,25998
 557,51; 8099,125;  274,134;14476,498;55,09640
 558,09; 8225,301;  310,670;14837,023;54,48464
 558,67; 8394,965;  301,058;15198,301;54,33158
 559,25; 8463,245;  305,057;15449,809;53,86808
 559,83; 8567,341;  289,443;15778,647;53,44302
 560,41; 8719,895;  293,672;16128,609;53,21286
 561,00; 8787,463;  293,750;16426,544;52,64874
 561,58; 8889,096;  298,749;16679,390;52,44207
 562,16; 9018,860;  285,440;16973,896;52,33210
 562,74; 9172,887;  276,209;17314,693;52,21520
 563,32; 9290,575;  272,135;17738,159;51,63419
 563,90; 9437,060;  287,673;18093,499;51,38423
 564,48; 9555,313;  305,518;18457,836;50,95655
 565,06; 9787,039;  287,288;19075,613;50,56199
 565,65;10057,426;  289,445;19656,717;50,43550
 566,23;10411,133;  336,981;20425,448;50,14894
 566,81;10712,095;  276,288;21002,398;50,35101
 567,39;11009,098;  292,290;21894,362;49,61010
 567,97;11181,398;  312,288;22508,907;48,96741
 568,55;11592,121;  322,828;23293,877;49,05868
 569,13;11786,705;  296,443;24016,949;48,44021
 569,71;12207,787;  291,286;24939,408;48,34648
 570,29;12547,880;  325,978;25746,318;48,07923
 570,87;12852,370;  322,286;26569,040;47,73956
 571,45;13033,896;  309,596;27135,710;47,43251
 572,03;13175,647;  272,059;27443,018;47,49037
 572,61;13364,030;  275,904;28328,806;46,65516
 573,20;13621,886;  300,518;28878,165;46,61464
 573,78;13754,671;  302,443;29474,820;46,11290
 574,36;13944,686;  303,520;29950,156;46,01253
 574,94;14015,888;  369,367;30213,213;45,72642
 575,52;13974,661;  320,369;30537,736;45,18690
 576,10;14140,728;  361,907;30981,499;45,00002
 576,68;14317,438;  355,059;31623,345;44,65348
 577,26;14420,051;  373,985;32256,769;44,05533
 577,84;14636,693;  379,827;32712,202;44,09471
 578,42;14555,169;  407,829;33020,570;43,37979
 579,00;14519,535;  376,135;33029,095;43,31430
 579,58;14534,749;  404,752;33254,515;43,01400
 580,16;14429,355;  377,830;33335,092;42,63560
 580,74;14389,611;  382,907;33507,337;42,28512
 581,32;14297,613;  376,137;33540,043;41,97779
 581,90;14154,725;  398,060;33576,483;41,46269
 582,48;14080,451;  395,522;33604,522;41,20849
 583,06;14027,569;  396,906;33768,984;40,84452
 583,64;13968,775;  384,983;33800,585;40,65105
 584,22;13683,224;  403,600;33708,849;39,87247
 584,80;13517,433;  414,291;33481,302;39,62602
 585,38;13220,158;  422,749;33106,746;39,15497
 585,96;13107,875;  386,982;33164,848;38,80940
 586,54;13004,023;  402,754;33248,641;38,36483
 587,12;12931,373;  385,215;33360,103;38,04761
 587,70;12925,747;  410,136;33465,708;37,86233
 588,28;12776,684;  390,753;33453,692;37,46168
 588,86;12769,284;  386,600;33685,663;37,18628
 589,44;12633,741;  372,678;33715,469;36,77276
 590,02;12571,307;  376,601;33922,343;36,35247
 590,59;12549,086;  361,061;34107,262;36,11673
 591,17;12513,737;  357,757;34262,814;35,85300
 591,75;12411,154;  356,064;34345,136;35,46755
 592,33;12449,876;  368,679;34627,138;35,26486
 592,91;12405,877;  305,603;34796,008;35,08302
 593,49;12412,985;  330,066;35057,440;34,79365
 594,07;12408,355;  350,527;35296,446;34,50425
 594,65;12332,027;  346,292;35351,482;34,23988
 595,23;12261,794;  342,062;35692,797;33,71848
 595,81;12263,174;  329,909;35827,020;33,61757
 596,39;12164,701;  322,063;35958,252;33,23206
 596,97;12083,610;  327,680;36203,457;32,76843
 597,55;12016,945;  322,524;36069,089;32,71481
 598,12;11893,057;  312,604;36040,277;32,41312
 598,70;11877,866;  309,296;36141,723;32,28520
 599,28;11854,305;  336,065;36318,165;32,01103
 599,86;11729,375;  310,526;36300,350;31,72799
 600,44;11657,290;  292,912;36473,906;31,40980
 601,02;11678,102;  335,145;36531,305;31,33746
 601,60;11512,014;  307,449;36567,438;30,90063
 602,18;11376,300;  293,681;36546,584;30,57029
 602,75;11322,841;  294,063;36644,544;30,34012
 603,33;11241,265;  306,527;36620,332;30,11179
 603,91;11191,525;  293,298;36534,464;30,07140
 604,49;11124,814;  311,219;36607,045;29,79294
 605,07;10996,465;  320,756;36635,880;29,39742
 605,65;10990,751;  336,681;36841,312;29,18553
 606,23;10912,683;  400,984;36980,119;28,73687
 606,80;10812,266;  453,755;36928,531;28,39911
 607,38;10739,148;  481,220;37050,467;28,05069
 607,96;10667,867;  541,601;37115,845;27,68688
 608,54;10625,637;  612,989;37133,760;27,41631
 609,12;10585,398;  597,371;37147,512;27,32692
 609,70;10490,690;  649,680;37186,760;26,93431
 610,27;10413,845;  655,293;37300,266;26,62999
 610,85;10350,661;  680,295;37345,002;26,37513
 611,43;10233,309;  661,680;37253,447;26,15787
 612,01;10040,715;  626,679;37029,980;25,86039
 612,59; 9997,441;  625,065;37102,484;25,69364
 613,16; 9877,107;  599,523;37003,631;25,48499
 613,74; 9734,166;  567,911;36974,544;25,17743
 614,32; 9637,630;  537,450;36891,889;25,03182
 614,90; 9547,223;  471,295;36804,363;24,97980
 615,48; 9426,886;  420,062;36445,288;25,00144
 616,05; 9322,166;  403,446;36359,949;24,80419
 616,63; 9172,984;  405,676;36269,534;24,44608
 617,21; 9114,750;  403,216;36128,836;24,38455
 617,79; 8953,236;  376,755;36001,585;24,07445
 618,36; 8857,582;  389,141;36018,713;23,76801
 618,94; 8689,351;  325,524;35685,821;23,65316
 619,52; 8626,676;  356,446;35429,786;23,57982
 620,10; 8503,412;  344,294;35357,121;23,30323
 620,67; 8409,039;  349,138;35291,669;23,06616
 621,25; 8332,073;  362,679;35085,009;22,95178
 621,83; 8241,446;  345,293;35076,558;22,73500
 622,41; 8208,340;  385,985;35138,801;22,50855
 622,98; 8096,046;  361,446;34882,002;22,40578
 623,56; 7991,164;  347,753;34793,583;22,18966
 624,14; 7835,621;  333,141;34719,994;21,81787
 624,72; 7833,835;  336,831;34620,071;21,86784
 625,29; 7722,603;  324,984;34556,641;21,61046
 625,87; 7736,965;  364,525;34676,983;21,48619
 626,45; 7600,692;  316,830;34505,849;21,30468
 627,02; 7529,510;  320,294;34437,260;21,13088
 627,60; 7416,044;  312,142;34320,989;20,88839
 628,18; 7369,090;  300,063;34500,281;20,66954
 628,76; 7318,687;  296,061;34362,708;20,61437
 629,33; 7274,469;  328,754;34528,766;20,30910
 629,91; 7154,951;  325,832;34417,275;20,03177
 630,49; 7157,151;  337,523;34500,571;19,96200
 631,06; 7128,654;  313,677;34631,537;19,85840
 631,64; 7051,333;  321,599;34650,864;19,60349
 632,22; 6933,400;  288,829;34586,626;19,37317
 632,79; 6931,917;  306,598;34849,684;19,17987
 633,37; 6913,978;  290,448;34944,712;19,11317
 633,95; 6859,103;  303,522;34924,842;18,93510
 634,52; 6833,589;  286,755;35030,846;18,84302
 635,10; 6784,698;  296,601;35092,620;18,64609
 635,68; 6772,188;  294,367;35219,210;18,54789
 636,25; 6712,077;  281,136;35221,860;18,40529
 636,83; 6632,302;  267,676;35391,785;18,12039
 637,41; 6626,101;  263,290;35481,014;18,06707
 637,98; 6599,420;  300,213;35621,936;17,83380
 638,56; 6585,418;  285,751;35678,857;17,79914
 639,13; 6526,112;  281,138;35691,751;17,63588
 639,71; 6539,437;  318,754;35930,146;17,46824
 640,29; 6384,527;  255,677;35765,254;17,25971
 640,86; 6403,249;  264,369;35942,439;17,20631
 641,44; 6350,355;  273,831;35871,393;17,07006
 642,02; 6324,539;  298,523;35902,501;16,92512
 642,59; 6293,184;  263,677;36033,685;16,85632
 643,17; 6261,290;  261,677;35991,332;16,79169
 643,74; 6217,396;  274,677;36056,286;16,60831
 644,32; 6182,657;  292,446;36035,470;16,47933
 644,89; 6161,994;  294,446;36045,963;16,41202
 645,47; 6101,716;  308,062;36104,686;16,18492
 646,05; 6076,515;  285,677;35986,563;16,22043
 646,62; 6031,236;  284,908;35945,132;16,11411
 647,20; 6008,881;  291,139;36124,778;15,95635
 647,77; 5880,449;  254,062;36026,963;15,72807
 648,35; 5819,556;  245,678;35886,763;15,63891
 648,92; 5835,201;  291,216;35945,563;15,54925
 649,50; 5764,615;  246,832;35814,671;15,51341
 650,08; 5726,183;  254,832;35770,240;15,40557
 650,65; 5714,751;  262,216;35977,117;15,26683
 651,23; 5795,319;  240,293;36800,687;15,19411
 651,80; 5916,887;  244,986;37613,794;15,17817
 652,38; 5917,224;  268,140;37991,210;14,97514
 652,95; 5923,022;  232,755;38391,241;14,91219
 653,53; 5950,744;  271,447;38585,579;14,82298
 654,10; 5960,543;  299,447;38673,302;14,75248
 654,68; 5885,188;  250,294;38691,179;14,65860
 655,25; 5879,371;  254,140;38670,364;14,64285
 655,83; 5848,324;  239,909;38781,164;14,55172
 656,40; 5845,584;  279,755;38703,733;14,48530
 656,98; 5773,998;  254,371;38699,841;14,35703
 657,55; 5746,105;  257,294;38608,487;14,31197
 658,13; 5681,365;  255,602;38136,672;14,32315
 658,70; 5570,394;  267,140;37934,088;14,07933
 659,28; 5450,347;  258,986;37129,349;14,08004
 659,85; 5313,453;  263,448;36325,765;14,00355
 660,43; 5288,483;  272,448;36335,565;13,90904
 661,00; 5267,128;  259,448;36458,288;13,83381
 661,58; 5237,542;  251,371;36802,780;13,64153
 662,15; 5260,879;  250,987;37033,811;13,62020
 662,73; 5360,678;  309,833;37229,842;13,68051
 663,30; 5341,707;  250,448;37468,334;13,67960
 663,88; 5348,506;  265,987;37602,750;13,61264
 664,45; 5336,459;  250,372;37833,935;13,53274
 665,03; 5375,873;  256,449;38173,504;13,50164
 665,60; 5497,979;  330,987;38616,535;13,49593
 666,17; 5385,009;  265,756;38724,489;13,31103
 666,75; 5464,577;  255,526;38961,366;13,45805
 667,32; 5476,299;  274,372;39365,320;13,30724
 667,90; 5490,251;  261,526;39620,735;13,28463
 668,47; 5525,819;  278,834;39864,074;13,25490
 669,05; 5522,387;  251,987;40201,797;13,19255
 669,62; 5539,032;  236,757;40350,674;13,21804
 670,19; 5537,369;  232,218;40365,551;13,21881
 670,77; 5535,014;  254,526;40528,043;13,11156
 671,34; 5579,428;  243,142;40494,074;13,25755
 671,92; 5576,919;  241,142;40791,105;13,15853
 672,49; 5550,872;  266,219;40704,213;13,06853
 673,06; 5534,824;  224,757;40877,166;13,06212
 673,64; 5539,623;  238,373;40717,043;13,09640
 674,21; 5502,422;  237,219;40700,920;13,01216
 674,79; 5531,451;  261,373;40994,721;12,93800
 675,36; 5539,019;  263,219;41119,521;12,91306
 675,93; 5533,895;  246,065;40984,090;12,98008
 676,51; 5545,463;  255,681;41152,659;12,93441
 677,08; 5549,108;  256,142;41186,690;12,93158
 677,65; 5595,907;  259,142;41321,106;12,99686
 678,23; 5604,859;  257,835;41490,444;12,96795
 678,80; 5575,581;  240,835;41631,167;12,88887
 679,38; 5610,457;  237,296;41794,583;12,92953
 679,95; 5663,102;  254,681;42035,152;12,94485
 680,52; 5649,977;  243,989;42287,491;12,85808
 681,10; 5731,315;  270,758;42634,983;12,88955
 681,67; 5761,190;  253,066;42966,398;12,89556
 682,24; 5761,066;  235,912;42974,583;12,92776
 682,82; 5838,865;  244,220;43463,614;12,94476
 683,39; 5890,509;  287,989;43858,952;12,85838
 683,96; 5921,462;  260,758;44134,214;12,90234
 684,54; 5942,107;  232,066;44408,014;12,92568
 685,11; 6038,213;  275,143;44776,584;12,95030
 685,68; 6096,474;  251,682;45228,691;12,99507
 686,25; 6019,119;  235,451;45230,261;12,85408
 686,83; 6122,225;  242,759;45347,138;13,03525
 687,40; 6164,793;  227,143;45852,707;13,01387
 687,97; 6250,284;  275,220;46111,276;13,03573
 688,55; 6225,083;  227,682;46014,692;13,09848
 689,12; 6275,112;  228,682;46371,107;13,10384
 689,69; 6316,680;  238,528;46450,600;13,15274
 690,26; 6342,094;  247,451;46530,246;13,16827
 690,84; 6386,201;  238,836;46740,354;13,21971
 691,41; 6390,923;  259,836;46845,923;13,16077
 691,98; 6466,644;  249,144;47159,646;13,25396
 692,56; 6490,443;  228,452;47242,677;13,31936
 693,13; 6556,703;  297,221;47245,631;13,33268
 693,70; 6584,502;  268,298;47417,815;13,39612
 694,27; 6596,455;  244,298;47459,539;13,45362
 694,84; 6601,869;  238,913;47569,646;13,44360
 695,42; 6689,668;  283,990;47728,062;13,50153
 695,99; 6657,697;  246,683;47899,477;13,45360
 696,56; 6696,419;  241,837;47809,585;13,56924
 697,13; 6768,910;  253,298;48121,077;13,61169
 697,71; 6758,863;  230,452;48189,185;13,61256
 698,28; 6826,892;  249,760;48434,755;13,64975
 698,85; 6825,614;  224,837;48478,324;13,67938
 699,42; 6900,720;  220,914;48608,124;13,80490
 699,99; 6968,519;  265,837;48730,309;13,83009
 700,57; 6973,318;  247,529;48793,878;13,85437
 701,14; 6986,655;  234,991;48957,755;13,85731
 701,71; 7079,300;  263,299;49229,478;13,91981
 702,28; 7111,176;  250,914;49223,278;14,00843
 702,85; 7120,051;  266,914;49325,924;13,96917
 703,43; 7200,081;  266,991;49478,186;14,08844
 704,00; 7250,418;  287,376;49701,755;14,09113
 704,57; 7264,371;  262,684;49634,094;14,18166
 705,14; 7327,708;  287,222;49998,355;14,16279
 705,71; 7351,660;  292,991;49959,540;14,21212
 706,28; 7360,613;  266,607;49877,340;14,29934
 706,86; 7463,027;  298,838;50117,986;14,38039
 707,43; 7505,364;  314,222;50071,248;14,45252
 708,00; 7531,625;  294,222;50116,202;14,52652
 708,57; 7523,962;  260,146;49967,233;14,61324
 709,14; 7575,530;  284,684;50087,187;14,63952
 709,71; 7652,175;  276,915;50163,295;14,78411
 710,28; 7703,435;  269,069;50478,710;14,80665
 710,86; 7686,849;  282,607;50616,125;14,71036
 711,43; 7785,340;  290,838;50647,695;14,88278
 712,00; 7803,985;  266,531;50672,110;14,95361
 712,57; 7890,630;  279,838;50829,449;15,05608
 713,14; 7920,967;  259,531;50931,557;15,11966
 713,71; 7950,381;  275,223;50797,895;15,19151
 714,28; 7989,180;  272,146;50888,618;15,24609
 714,85; 7948,671;  262,685;50582,803;15,27418
 715,42; 8058,623;  263,992;50759,065;15,43642
 716,00; 8161,653;  310,992;50835,095;15,53845
 716,57; 8141,452;  259,146;51087,126;15,50781
 717,14; 8146,481;  248,608;50968,772;15,57147
 717,71; 8209,895;  240,147;50982,419;15,70633
 718,28; 8295,310;  276,762;51066,142;15,78784
 718,85; 8311,339;  245,839;51150,173;15,84443
 719,42; 8413,138;  262,147;51220,665;15,99535
 719,99; 8453,475;  246,839;51029,004;16,16047
 720,56; 8493,966;  263,224;51274,881;16,13502
 721,13; 8547,226;  241,993;51460,911;16,21517
 721,70; 8572,102;  237,455;51378,942;16,29723
 722,27; 8644,747;  273,378;51411,589;16,37009
 722,84; 8670,084;  301,455;51593,619;16,31561
 723,41; 8713,114;  241,070;51451,035;16,54374
 723,98; 8820,758;  259,378;51750,604;16,62687
 724,55; 8864,096;  279,993;51796,943;16,66268
 725,12; 8835,433;  218,070;51651,589;16,75437
 725,69; 8968,462;  250,917;51876,235;16,88618
 726,27; 9059,338;  261,686;51919,497;17,03063
 726,84; 9125,906;  259,609;52233,605;17,05910
 727,41; 9207,782;  265,840;52331,328;17,17441
 727,98; 9238,580;  264,686;52555,205;17,16161
 728,55; 9360,610;  296,917;52463,697;17,37445
 729,12; 9366,255;  246,840;52541,343;17,43857
 729,69; 9502,361;  275,609;52837,451;17,55409
 730,26; 9558,391;  283,379;52959,790;17,60752
 730,82; 9608,728;  262,763;52758,974;17,80312
 731,39; 9692,604;  257,148;52955,005;17,90482
 731,96; 9806,172;  235,610;53267,959;18,04665
 732,53; 9884,586;  265,994;53403,913;18,10118
 733,10; 9988,231;  268,225;53548,021;18,24332
 733,67;10059,799;  274,379;53826,129;18,27283
 734,24;10064,597;  255,764;53472,390;18,43190
 734,81;10171,781;  277,918;53489,267;18,59352
 735,38;10156,272;  263,225;53211,067;18,68451
 735,95;10139,609;  265,533;53159,021;18,66785
 736,52;10170,408;  276,533;53224,360;18,68608
 737,09;10197,129;  276,456;52940,006;18,83784
 737,66;10345,697;  309,995;53113,498;19,00575
 738,23;10338,573;  250,226;53280,529;19,02374
 738,80;10516,218;  320,226;53503,252;19,17152
 739,37;10558,017;  291,610;53579,899;19,26578
 739,94;10595,123;  275,764;53700,006;19,31587
 740,51;10728,230;  361,380;53777,037;19,40789
 741,07;10649,644;  261,995;53699,068;19,43903
 741,64;10844,135;  300,149;53977,560;19,64325
 742,21;10889,087;  277,149;53957,437;19,76878
 742,78;10923,809;  236,688;53762,930;19,96613
 743,35;10944,762;  264,918;53988,730;19,87916
 743,92;11126,022;  291,303;54009,222;20,16965
 744,49;11118,590;  291,842;54095,330;20,12276
 745,06;11139,235;  255,765;54010,976;20,24635
 745,63;11255,418;  252,996;53956,392;20,48739
 746,19;11273,832;  257,303;54033,038;20,48606
 746,76;11370,170;  269,227;54104,684;20,62013
 747,33;11424,276;  263,611;54032,330;20,75680
 747,90;11531,305;  288,150;54195,515;20,85644
 748,47;11559,027;  265,227;54112,854;20,97363
 749,04;11611,518;  267,150;54050,192;21,09284
 749,61;11734,625;  297,150;54039,685;21,28198
 750,17;11794,577;  286,073;54174,408;21,35621
 750,74;11834,453;  275,612;54227,900;21,42419
 751,31;11830,713;  254,766;53959,239;21,55490
 751,88;11866,051;  239,073;53816,193;21,70139
 752,45;11949,003;  263,304;54025,685;21,73583
 753,02;11996,263;  278,304;53907,485;21,84997
 753,58;12011,216;  255,997;53784,824;21,96054
 754,15;12123,476;  264,304;53908,547;22,10707
 754,72;12085,275;  263,381;53687,347;22,12845
 755,29;12150,997;  253,843;53517,839;22,33620
 755,86;12291,411;  268,228;53714,793;22,49571
 756,42;12310,594;  280,074;53615,824;22,55620
 756,99;12316,855;  233,689;53605,316;22,63968
 757,56;12425,269;  251,074;53438,040;22,88943
 758,13;12476,606;  202,843;53342,455;23,09720
 758,70;12601,020;  238,612;53485,871;23,21698
 759,26;12592,049;  231,843;53543,363;23,18487
 759,83;12756,079;  242,690;53597,701;23,45307
 760,40;12693,109;  224,766;53439,425;23,43028
 760,97;12747,676;  222,074;53577,840;23,47563
 761,53;12744,629;  197,767;53155,179;23,69236
 762,10;12785,889;  200,459;53100,517;23,79096
 762,67;12939,765;  243,997;53066,471;24,03478
 763,24;12873,410;  194,074;52673,502;24,16058
 763,80;12966,978;  228,459;52864,840;24,20098
 764,37;13019,392;  230,459;52847,794;24,30555
 764,94;12996,729;  204,690;52333,133;24,53946
 765,50;13015,220;  220,229;52431,856;24,50602
 766,07;13149,557;  251,152;52474,810;24,69840
 766,64;13087,125;  233,690;52105,610;24,77918
 767,21;13136,540;  241,613;52041,333;24,89381
 767,77;13175,261;  257,152;51874,749;25,02656
 768,34;13178,906;  263,537;51923,164;25,00090
 768,91;13256,859;  258,921;51652,733;25,29086
 769,47;13260,119;  264,229;51713,995;25,25938
 770,04;13310,072;  261,383;51591,564;25,42108
 770,61;13324,794;  239,460;51321,364;25,61638
 771,18;13304,285;  230,845;51306,472;25,59624
 771,74;13418,391;  247,152;51408,272;25,74463
 772,31;13409,651;  260,537;51215,995;25,80511
 772,88;13418,219;  217,460;51015,796;25,98660
 773,44;13383,249;  234,306;50704,211;26,05304
 774,01;13489,201;  253,460;50873,011;26,14749
 774,58;13457,846;  227,614;50524,888;26,30407
 775,14;13564,183;  235,383;50646,534;26,44018
 775,71;13621,444;  236,537;50602,334;26,57539
 776,27;13671,858;  294,076;50495,673;26,64812
 776,84;13774,657;  314,076;50490,473;26,82652
 777,41;13789,686;  252,230;50294,273;27,05217
 777,97;13673,485;  234,768;50072,227;26,96509
 778,54;13811,360;  251,076;50143,104;27,17926
 779,11;13845,544;  275,845;50132,981;27,21716
 779,67;13862,727;  233,615;50049,627;27,35890
 780,24;13911,372;  248,538;49709,273;27,62360
 780,80;13969,094;  259,923;49830,381;27,65593
 781,37;13963,431;  255,692;49825,258;27,65354
 781,94;13944,076;  257,000;49628,289;27,72274
 782,50;14047,413;  265,769;49526,935;27,97669
 783,07;14131,827;  267,230;49610,043;28,09851
 783,63;14169,395;  243,154;49346,612;28,36102
 784,20;14243,656;  273,538;49235,874;28,53238
 784,77;14149,070;  254,692;49056,366;28,47111
 785,33;14192,253;  225,000;49013,166;28,62836
 785,90;14211,283;  248,000;48855,120;28,72683
 786,46;14229,620;  269,154;48795,228;28,76900
 787,03;14307,188;  239,462;48650,028;29,05921
 787,59;14255,833;  249,769;48497,059;29,02974
 788,16;14337,862;  263,616;48397,090;29,24004
 788,73;14376,353;  262,693;48264,352;29,40244
 789,29;14339,383;  241,693;47991,306;29,52420
 789,86;14438,951;  272,693;47967,567;29,70185
 790,42;14407,057;  256,462;47746,444;29,79701
 790,99;14413,164;  259,539;47483,552;29,97124
 791,55;14407,193;  257,847;47356,352;30,04203
 792,12;14434,992;  272,924;47388,844;30,05792
 792,68;14483,560;  254,155;47230,337;30,29068
 793,25;14534,435;  259,693;46912,445;30,59786
 793,81;14474,926;  309,847;46489,245;30,67402
 794,38;14467,341;  226,693;46236,122;30,95159
 794,94;14494,909;  247,001;46233,306;30,98294
 795,51;14512,938;  272,540;46008,106;31,13638
 796,07;14480,121;  265,616;45694,522;31,28956
 796,64;14558,228;  262,001;45837,553;31,36819
 797,20;14493,334;  262,617;45321,814;31,58227
 797,77;14453,979;  221,309;45021,230;31,76941
 798,33;14441,932;  252,386;44822,030;31,83679
 798,90;14528,346;  272,540;44715,291;32,07679
 799,46;14504,375;  251,771;44308,938;32,35025
 800,03;14492,866;  264,155;44235,661;32,35894
 800,59;14498,357;  265,155;44109,076;32,46334
 801,15;14512,464;  278,232;43747,799;32,74528
 801,72;14412,032;  266,463;43511,369;32,71037
 802,28;14446,908;  286,694;43292,015;32,92665
 802,85;14460,322;  266,310;43099,123;33,13817
 803,41;14445,351;  250,079;42940,307;33,25181
 803,98;14402,688;  256,925;42430,954;33,54141
 804,54;14386,641;  262,848;42266,677;33,62501
 805,11;14410,901;  262,541;42124,708;33,79749
 805,67;14471,854;  280,387;42014,277;34,00466
 806,23;14298,499;  257,002;41549,462;34,00499
 806,80;14382,759;  285,541;41500,339;34,20426
 807,36;14411,404;  286,310;41529,985;34,24790
 807,93;14374,895;  289,233;41223,016;34,41085
 808,49;14317,771;  247,618;40757,124;34,73297
 809,05;14252,877;  241,695;40697,693;34,63314
 809,62;14328,214;  280,310;40505,570;34,92309
 810,18;14397,782;  274,387;40620,831;35,00530
 810,74;14308,658;  243,541;40270,555;35,13906
 811,31;14336,687;  258,926;39953,201;35,46547
 811,87;14399,563;  258,695;39798,155;35,76394
 812,44;14456,977;  286,003;39928,339;35,74707
 813,00;14399,391;  219,157;39609,524;35,99924
 813,56;14539,421;  262,849;39650,555;36,24626
 814,13;14511,527;  252,080;39523,663;36,30984
 814,69;14463,326;  265,003;39435,924;36,24710
 815,25;14397,355;  235,695;38988,417;36,54365
 815,82;14465,077;  271,696;38942,601;36,70300
 816,38;14441,799;  290,003;38710,709;36,83377
 816,94;14390,906;  240,619;38478,048;37,00638
 817,51;14412,858;  237,311;38330,848;37,21247
 818,07;14348,734;  233,542;38000,802;37,37415
 818,63;14370,148;  247,927;37888,217;37,51890
 819,20;14439,024;  245,388;37838,710;37,75574
 819,76;14294,976;  236,465;37409,971;37,81863
 820,32;14339,621;  282,158;37334,387;37,93959
 820,89;14355,420;  272,773;37156,956;38,18072
 821,45;14274,449;  234,696;36860,448;38,33301
 822,01;14243,633;  277,619;36592,018;38,45861
 822,57;14220,431;  276,696;36485,125;38,50964
 823,14;14175,692;  237,619;36228,541;38,72663
 823,70;14203,875;  241,773;36000,649;39,04514
 824,26;14134,058;  234,850;35881,833;38,99126
 824,82;14137,780;  270,081;35724,403;39,11427
 825,39;14044,117;  251,850;35427,972;39,20917
 825,95;14120,608;  261,312;35480,618;39,35142
 826,51;14014,023;  258,620;35061,034;39,52428
 827,08;14139,821;  287,774;35137,295;39,74817
 827,64;14039,928;  281,235;34987,788;39,64292
 828,20;13979,496;  241,235;34619,126;39,96249
 828,76;14095,602;  271,082;34609,696;40,25940
 829,32;14071,093;  284,697;34482,034;40,31424
 829,89;14030,969;  239,851;34316,603;40,47075
 830,45;14068,075;  257,466;34267,634;40,60729
 831,01;14041,720;  253,236;34099,050;40,73911
 831,57;14080,288;  256,467;34030,081;40,93083
 832,14;14097,702;  254,851;34033,650;40,98089
 832,70;14073,501;  240,928;33800,758;41,21765
 833,26;14115,146;  217,928;33754,635;41,43883
 833,82;14123,098;  252,313;33616,204;41,57424
 834,38;14185,436;  237,544;33650,543;41,74391
 834,95;14145,465;  239,236;33518,112;41,78696
 835,51;14128,264;  211,313;33357,066;41,98713
 836,07;14269,678;  246,698;33520,635;42,14404
 836,63;14339,477;  264,390;33420,051;42,45153
 837,19;14320,352;  255,159;33199,928;42,69325
 837,75;14225,228;  213,544;32933,189;42,82346
 838,32;14399,642;  279,006;33077,682;43,05246
 838,88;14433,595;  259,852;33050,866;43,22447
 839,44;14465,470;  252,006;33047,666;43,33947
 840,00;14413,654;  251,083;32951,620;43,30990
 840,56;14363,914;  238,391;32616,036;43,62740
 841,12;14437,405;  233,391;32632,913;43,84020
 841,68;14425,512;  223,391;32391,328;44,14993
 842,25;14463,772;  232,545;32427,744;44,20295
 842,81;14396,263;  228,314;32220,621;44,28549
 843,37;14439,139;  218,775;32213,344;44,44618
 843,93;14461,014;  238,237;32166,375;44,54622
 844,49;14535,736;  251,776;32134,098;44,80213
 845,05;14431,073;  208,237;31930,667;44,83527
 845,61;14562,257;  261,391;32077,313;44,94877
 846,17;14486,748;  236,776;31936,036;44,95364
 846,73;14556,316;  235,468;31862,452;45,28047
 847,29;14484,653;  216,776;31612,560;45,44520
 847,86;14588,990;  232,776;31654,667;45,68857
 848,42;14497,404;  224,622;31431,237;45,73640
 848,98;14562,511;  243,699;31382,114;45,98439
 849,54;14672,232;  215,930;31349,606;46,43301
 850,10;14654,877;  251,545;31304,791;46,38269
 850,66;14557,907;  224,546;31162,129;46,32993
 851,22;14617,552;  226,161;31012,929;46,74538
 851,78;14749,120;  268,699;31106,422;46,95684
 852,34;14688,995;  244,007;30879,068;47,15182
 852,90;14764,794;  233,853;30702,253;47,69184
 853,46;14692,054;  227,161;30589,668;47,64064
 854,02;14665,007;  243,623;30587,468;47,52655
 854,58;14623,267;  244,854;30316,345;47,81410
 855,14;14691,451;  220,084;30263,530;48,16813
 855,70;14660,326;  202,238;30114,869;48,33439
 856,26;14692,817;  242,238;30010,207;48,54405
 856,82;14666,078;  232,623;29942,392;48,58151
 857,38;14710,030;  266,777;29836,038;48,84550
 857,94;14702,829;  234,008;29629,146;49,22182
 858,50;14747,166;  246,777;29607,946;49,38628
 859,06;14655,657;  236,546;29410,361;49,42484
 859,62;14739,994;  248,085;29409,008;49,69633
 860,18;14630,562;  238,239;29189,423;49,71238
 860,74;14600,899;  212,162;29036,915;49,91799
 861,30;14565,314;  213,008;28922,254;49,99193
 861,86;14729,728;  269,701;28999,593;50,33095
 862,42;14630,680;  237,162;28743,239;50,49281
 862,98;14726,864;  260,162;28761,500;50,75797
 863,54;14575,816;  241,239;28520,300;50,68972
 864,10;14603,307;  236,932;28588,101;50,67296
 864,66;14551,337;  215,239;28363,670;50,93036
 865,22;14563,136;  238,239;28203,855;51,22325
 865,78;14530,780;  235,470;28141,270;51,22702
 866,34;14539,964;  228,163;28057,301;51,42740
 866,90;14499,609;  245,547;27957,101;51,43725
 867,45;14415,407;  242,547;27757,132;51,51035
 868,01;14397,898;  239,470;27556,163;51,83068
 868,57;14277,159;  231,163;27363,501;51,76847
 869,13;14290,650;  222,471;27212,147;52,12430
 869,69;14318,756;  226,471;27172,563;52,29807
 870,25;14317,940;  217,701;27015,824;52,61651
 870,81;14328,046;  231,625;27081,009;52,50184
 871,37;14300,691;  242,009;26956,040;52,62658
 871,93;14336,028;  251,240;26773,379;53,10578
 872,49;14275,135;  260,933;26531,563;53,34551
 873,04;14167,241;  220,625;26358,748;53,35737
 873,60;14152,347;  219,933;26264,010;53,49552
 874,16;14161,377;  239,240;26176,733;53,67572
 874,72;14208,762;  228,933;26168,117;53,89463
 875,28;14138,223;  250,163;26000,733;53,93302
 875,84;14183,685;  230,240;25987,271;54,17334
 876,40;14262,377;  233,702;25977,579;54,49325
 876,95;14259,608;  251,163;25943,656;54,52349
 877,51;14326,608;  264,010;25877,656;54,90276
 878,07;14345,223;  271,856;25927,271;54,85535
 878,63;14392,377;  230,856;25864,194;55,24650
 879,19;14483,762;  253,240;25914,425;55,45543
 879,75;14515,762;  238,240;25953,348;55,52192
 880,30;14614,915;  240,317;25904,348;56,01068
 880,86;14733,300;  269,548;26079,271;56,03993
 881,42;14774,838;  216,779;26075,887;56,29761
 881,98;14917,069;  244,317;26144,963;56,65014
 882,54;15055,608;  220,471;26231,348;57,03436
 883,09;15101,762;  246,317;26360,963;56,88549
 883,65;15207,838;  224,548;26393,733;57,25547
 884,21;15389,838;  269,779;26645,810;57,32500
 884,77;15485,762;  224,317;26669,117;57,71057
 885,32;15645,531;  243,163;26823,271;57,94697
 885,88;15815,454;  266,625;27016,117;58,12757
 886,44;15995,531;  241,779;27082,348;58,69381
 887,00;16022,915;  255,779;27061,271;58,82054
 887,56;16103,992;  228,625;27290,271;58,66372
 888,11;16210,531;  225,702;27247,117;59,15615
 888,67;16335,838;  267,317;27369,579;59,28849
 889,23;16401,762;  240,471;27425,040;59,45024
 889,79;16394,069;  233,240;27282,040;59,74693
 890,34;16356,146;  239,933;27273,348;59,61590
 890,90;16570,531;  292,394;27396,810;60,05714
 891,46;16528,608;  224,240;27235,194;60,36206
 892,01;16553,223;  262,010;27282,502;60,29207
 892,57;16555,377;  271,087;27144,733;60,59576
 893,13;16476,069;  250,394;27068,963;60,50164
 893,69;16564,069;  234,625;26951,579;61,12016
 894,24;16535,608;  235,317;26883,502;61,16848
 894,80;16537,762;  245,779;26747,117;61,47607
 895,36;16494,685;  242,548;26590,579;61,68255
 895,91;16341,762;  233,856;26489,194;61,35097
 896,47;16391,223;  251,702;26326,425;61,89719
 897,03;16346,223;  232,856;26157,656;62,15426
 897,58;16272,838;  254,394;26075,656;62,03587
 898,14;16245,377;  250,317;25913,040;62,32799
 898,70;16201,992;  214,625;25698,271;62,73579
 899,25;16289,454;  238,548;25740,117;62,94086
 899,81;16278,454;  251,933;25551,810;63,34624
 900,37;16113,069;  218,625;25411,194;63,09180
 900,92;16156,069;  241,625;25430,887;63,17948
 901,48;16174,915;  234,394;25193,502;63,86655
 902,03;16076,992;  236,702;25072,425;63,78027
 902,59;16061,454;  239,779;24977,425;63,95788
 903,15;16075,454;  257,240;24842,194;64,34103
 903,70;15963,377;  246,779;24638,348;64,43455
 904,26;15822,992;  225,240;24525,117;64,18860
 904,82;15944,608;  230,163;24430,040;64,93605
 905,37;15956,146;  248,240;24383,425;65,08301
 905,93;15868,762;  228,087;24198,887;65,24887
 906,48;15845,377;  248,471;24148,887;65,25789
 907,04;15841,762;  262,087;24069,194;65,44128
 907,60;15786,838;  242,933;23863,271;65,80729
 908,15;15740,838;  226,471;23767,040;65,90481
 908,71;15761,377;  254,779;23777,579;65,92157
 909,26;15695,608;  232,240;23524,425;66,38865
 909,82;15661,146;  255,856;23558,271;66,11027
 910,37;15647,915;  281,163;23385,348;66,51069
 910,93;15521,838;  229,548;23196,579;66,58366
 911,48;15544,838;  223,625;23092,117;66,99704
 912,04;15454,069;  224,010;22961,502;66,98214
 912,60;15550,377;  245,471;23040,271;67,14209
 913,15;15444,069;  239,933;22832,271;67,29775
 913,71;15378,069;  224,856;22646,117;67,58413
 914,26;15344,915;  216,779;22565,810;67,69035
 914,82;15272,838;  250,087;22457,579;67,64722
 915,37;15300,454;  221,087;22481,117;67,74190
 915,93;15272,454;  287,087;22242,194;68,25458
 916,48;15234,069;  228,625;22159,502;68,42154
 917,04;15237,685;  247,163;22092,887;68,61994
 917,59;15186,685;  256,010;22017,348;68,61101
 918,15;15115,992;  206,010;21794,810;69,06351
 918,70;15074,838;  228,394;21782,656;68,87939
 919,26;15091,685;  237,779;21653,887;69,35857
 919,81;14985,992;  219,240;21495,425;69,40508
 920,37;14945,685;  228,856;21411,348;69,47638
 920,92;14962,915;  247,087;21405,887;69,54945
 921,48;14859,608;  213,394;21047,117;70,30051
 922,03;14873,915;  220,856;21107,502;70,15516
 922,59;14856,454;  228,317;20946,040;70,60687
 923,14;14820,454;  235,856;20873,963;70,66829
 923,69;14746,838;  251,087;20763,656;70,66766
 924,25;14848,069;  254,933;20707,194;71,35219
 924,80;14703,531;  235,548;20567,040;71,16046
 925,36;14669,454;  228,548;20503,656;71,22480
 925,91;14580,992;  231,702;20377,194;71,22829
 926,47;14611,069;  204,471;20324,579;71,60299
 927,02;14637,454;  276,702;20289,579;71,75756
 927,57;14531,838;  233,087;20066,963;72,09257
 928,13;14544,223;  220,702;20007,117;72,39068
 928,68;14534,685;  230,163;19941,425;72,57030
 929,24;14422,685;  203,087;19722,194;72,84963
 929,79;14445,992;  219,779;19652,502;73,20751
 930,34;14342,146;  230,856;19548,040;73,05045
 930,90;14296,915;  213,625;19480,040;73,09762
 931,45;14374,454;  237,087;19492,502;73,42021
 932,01;14358,838;  233,163;19371,963;73,80648
 932,56;14238,762;  246,087;19179,425;73,90495
 933,11;14298,223;  254,933;19098,425;74,52594
 933,67;14121,685;  227,933;18951,963;74,20278
 934,22;14096,915;  234,240;18965,656;74,00762
 934,77;14009,915;  258,702;18836,271;74,02052
 935,33;13993,069;  230,856;18641,887;74,74983
 935,88;14008,992;  232,625;18650,117;74,80045
 936,43;13892,915;  224,548;18470,810;74,91051
 936,99;13907,762;  234,702;18419,040;75,19141
 937,54;13786,531;  220,010;18225,656;75,34593
 938,09;13771,608;  237,933;18269,194;75,05673
 938,65;13751,300;  234,394;18199,656;75,23913
 939,20;13679,608;  227,779;18103,579;75,25162
 939,75;13588,454;  218,240;17957,271;75,37172
 940,31;13579,838;  202,933;17923,733;75,48703
 940,86;13611,915;  232,163;17809,963;76,11733
 941,41;13510,146;  293,163;17808,271;75,46047
 941,96;13459,992;  226,240;17668,271;75,87277
 942,52;13379,223;  230,625;17565,963;75,84852
 943,07;13361,685;  205,548;17440,887;76,33234
 943,62;13324,838;  214,471;17351,656;76,50246
 944,18;13193,069;  210,087;17283,271;76,04312
 944,73;13176,992;  237,010;17179,194;76,37730
 945,28;13037,838;  196,856;17038,656;76,24472
 945,83;13105,992;  224,394;17029,963;76,65077
 946,39;13070,377;  215,933;17007,887;76,55121
 946,94;13070,992;  246,471;16895,502;77,02864
 947,49;13071,915;  223,010;16792,656;77,54484
 948,04;13107,223;  254,779;16805,348;77,65560
 948,59;12979,377;  241,933;16731,425;77,24582
 949,15;13005,838;  220,856;16591,579;78,09663
 949,70;13011,762;  222,702;16480,425;78,66452
 950,25;12968,454;  243,163;16409,733;78,71361
 950,80;12962,069;  199,933;16345,040;79,04646
 951,36;12883,762;  194,163;16234,502;79,11054
 951,91;13002,454;  239,163;16263,887;79,64749
 952,46;12862,762;  206,933;16077,271;79,74517
 953,01;12874,838;  240,163;16074,963;79,79056
 953,56;12836,531;  196,856;15870,502;80,64285
 954,11;12797,762;  236,625;15920,194;80,09106
 954,67;12799,069;  222,394;15847,348;80,49096
 955,22;12746,377;  212,933;15738,117;80,72976
 955,77;12801,223;  248,010;15700,117;81,23949
 956,32;12687,454;  264,779;15594,810;81,03490
 956,87;12629,223;  213,548;15416,887;81,66414
 957,42;12623,069;  219,394;15405,887;81,67571
 957,98;12669,762;  220,394;15304,963;82,53048
 958,53;12673,300;  244,702;15264,810;82,74640
 959,08;12607,992;  216,471;15164,810;82,89564
 959,63;12535,992;  218,394;15105,887;82,73790
 960,18;12550,300;  236,010;15002,963;83,39086
 960,73;12555,223;  227,087;15025,579;83,30671
 961,28;12505,685;  204,548;14850,579;83,98956
 961,83;12500,915;  248,625;14847,656;83,92537
 962,39;12419,146;  210,856;14684,733;84,34707
 962,94;12465,223;  238,240;14644,040;84,87542
 963,49;12338,377;  224,933;14529,117;84,68462
 964,04;12335,608;  239,010;14469,502;85,00478
 964,59;12295,685;  190,471;14412,348;85,11685
 965,14;12373,915;  234,702;14368,117;85,89016
 965,69;12299,069;  229,933;14263,194;86,00379
 966,24;12239,069;  209,010;14167,810;86,18262
 966,79;12256,762;  244,933;14090,810;86,75383
 967,34;12181,915;  195,087;13945,733;87,17284
 967,89;12166,300;  223,933;13893,733;87,36315
 968,44;12145,685;  232,471;13815,425;87,70709
 968,99;12107,838;  231,625;13772,117;87,70887
 969,55;11997,608;  235,471;13685,117;87,45313
 970,10;11974,531;  226,317;13608,271;87,79147
 970,65;11934,608;  258,010;13515,117;88,07802
 971,20;11841,608;  218,856;13464,579;87,74721
 971,75;11760,915;  220,702;13239,348;88,64373
 972,30;11712,300;  226,933;13232,579;88,31062
 972,85;11651,762;  216,548;13120,579;88,61738
 973,40;11563,146;  209,163;12982,502;88,88814
 973,95;11517,915;  238,702;12957,733;88,67982
 974,50;11514,762;  251,087;12897,425;89,06669
 975,05;11473,915;  230,548;12728,963;89,95834
 975,60;11378,300;  237,933;12745,425;89,06955
 976,15;11335,454;  222,548;12616,733;89,66226
 976,70;11301,762;  233,240;12572,579;89,70109
 977,25;11308,069;  237,394;12466,963;90,52383
 977,80;11217,992;  217,317;12321,502;90,88324
 978,35;11135,608;  234,471;12220,040;90,95218
 978,89;11020,608;  213,394;12155,425;90,49728
 979,44;11041,377;  228,779;12134,040;90,82201
 979,99;10916,685;  217,625;11915,733;91,45975
 980,54;10933,762;  253,625;11844,425;92,14322
 981,09;10887,531;  247,856;11860,040;91,62509
 981,64;10746,762;  232,548;11711,656;91,59434
 982,19;10779,377;  263,010;11643,117;92,41009
 982,74;10687,454;  241,548;11500,656;92,77739
 983,29;10557,146;  218,548;11375,733;92,66314
 983,84;10516,454;  239,394;11356,117;92,44684
 984,39;10553,146;  294,856;11262,194;93,53491
 984,94;10378,531;  209,779;11049,502;93,81007
 985,49;10397,838;  253,471;11087,887;93,63096
 986,03;10344,608;  254,010;11008,963;93,82279
 986,58;10236,608;  274,010;10856,348;94,14363
 987,13;10196,838;  235,163;10734,425;94,87977
 987,68;10109,531;  242,702;10680,579;94,52908
 988,23;10111,685;  242,163;10603,887;95,24981
 988,78; 9961,300;  231,702;10441,733;95,29450
 989,33; 9929,377;  253,087;10362,271;95,71781
 989,88; 9915,223;  250,087;10311,656;96,05993
 990,42; 9823,146;  226,702;10186,963;96,34731
 990,97; 9722,300;  229,779;10115,040;96,02701
 991,52; 9708,685;  252,163;10000,810;97,00343
 992,07; 9698,685;  270,471; 9886,271;98,04918
 992,62; 9599,069;  246,163; 9856,963;97,31662
 993,17; 9514,069;  243,010; 9701,810;98,01518
 993,71; 9483,992;  241,471; 9651,733;98,21747
 994,26; 9388,454;  232,087; 9479,579;99,01460
 994,81; 9354,608;  257,625; 9438,425;99,08704
 995,36; 9219,992;  233,317; 9288,040;99,24848
 995,91; 9209,300;  242,779; 9273,271;99,29161
 996,45; 9114,838;  231,856; 9155,656;99,54260
 997,00; 9003,300;  219,471; 9022,810;99,77838
 997,55; 8970,685;  242,163; 9020,502;99,43250
 998,10; 8880,608;  260,779; 8888,425;99,90939
 998,65; 8831,685;  233,548; 8830,348;100,01555
 999,19; 8750,762;  254,240; 8704,810;100,54377
 999,74; 8707,300;  277,548; 8626,656;100,96590
1000,29; 8622,992;  247,625; 8537,810;101,02751
1000,84; 8489,762;  232,933; 8390,810;101,21296
1001,38; 8456,223;  238,317; 8326,733;101,60094
1001,93; 8400,377;  259,702; 8267,271;101,66225
1002,48; 8223,762;  228,471; 8102,733;101,53702
1003,03; 8227,915;  241,548; 8090,733;101,74773
1003,57; 8165,377;  251,394; 7970,810;102,52049
1004,12; 8054,992;  261,394; 7947,271;101,40155
1004,67; 7998,223;  235,856; 7818,656;102,36809
1005,22; 7868,685;  226,471; 7679,733;102,53516
1005,76; 7747,531;  218,471; 7550,040;102,69370
1006,31; 7748,992;  264,010; 7519,963;103,15643
1006,86; 7629,377;  231,471; 7421,810;102,88675
1007,40; 7507,300;  216,394; 7259,810;103,51378
1007,95; 7441,531;  239,394; 7223,194;103,12633
1008,50; 7301,531;  240,163; 7064,117;103,47912
1009,04; 7225,992;  242,240; 6983,194;103,60184
1009,59; 7089,146;  240,240; 6841,040;103,75872
1010,14; 6995,069;  232,240; 6779,810;103,28763
1010,68; 6919,992;  238,625; 6652,117;104,17674
1011,23; 6832,146;  228,625; 6538,733;104,64990
1011,78; 6781,377;  256,548; 6507,579;104,38005
1012,32; 6611,685;  253,702; 6425,733;103,01282
1012,87; 6605,069;  259,856; 6388,425;103,53499
1013,42; 6508,531;  227,010; 6256,194;104,18525
1013,96; 6545,454;  256,625; 6258,040;104,78909
1014,51; 6406,838;  210,240; 6162,656;104,10225
1015,06; 6473,608;  214,702; 6187,656;104,78745
1015,60; 6497,069;  269,625; 6225,502;104,55965
1016,15; 6508,838;  228,856; 6175,579;105,60409
1016,69; 6542,377;  241,471; 6220,348;105,38611
1017,24; 6570,608;  215,163; 6187,656;106,41193
1017,79; 6644,762;  267,317; 6267,040;106,29564
1018,33; 6650,223;  228,856; 6238,040;106,85921
1018,88; 6739,992;  240,933; 6339,271;106,57099
1019,42; 6748,915;  231,856; 6320,810;107,03086
1019,97; 6718,762;  232,087; 6321,656;106,52108
1020,51; 6843,915;  250,471; 6375,963;107,63942
1021,06; 6805,992;  216,548; 6323,502;107,90067
1021,61; 6821,223;  199,856; 6306,579;108,42750
1022,15; 6776,223;  189,548; 6268,579;108,35074
1022,70; 6812,685;  234,933; 6261,194;109,15145
1023,24; 6790,762;  214,779; 6249,040;108,97742
1023,79; 6759,915;  233,010; 6178,963;109,77054
1024,33; 6697,300;  223,317; 6110,348;109,97025
1024,88; 6634,992;  246,548; 6042,887;110,21517
1025,42; 6519,685;  232,240; 5945,656;110,04704
1025,97; 6458,454;  222,240; 5867,348;110,47112
1026,51; 6341,069;  197,702; 5788,963;109,87444
1027,06; 6289,608;  214,702; 5714,963;110,44758
1027,60; 6188,454;  233,087; 5645,271;110,03629
1028,15; 6122,992;  239,625; 5542,271;110,95154
1028,69; 6028,838;  197,933; 5420,963;111,63836
1029,24; 5970,685;  226,702; 5382,271;111,41316
1029,78; 5870,454;  217,779; 5260,502;112,09569
1030,33; 5766,531;  204,394; 5155,502;112,34126
1030,87; 5747,762;  221,856; 5120,656;112,80121
1031,42; 5632,838;  203,240; 5044,194;112,15967
1031,96; 5576,146;  227,779; 4995,117;112,18770
1032,51; 5510,146;  215,779; 4894,810;113,15094
1033,05; 5482,531;  229,548; 4845,117;113,81007
1033,60; 5328,838;  193,394; 4753,656;112,61293
1034,14; 5280,838;  222,702; 4676,733;113,56313
1034,69; 5250,454;  221,240; 4599,194;114,87589
1035,23; 5146,838;  223,625; 4565,502;113,38906
1035,77; 5100,377;  226,471; 4503,271;113,96151
1036,32; 5026,377;  194,471; 4408,963;114,64977
1036,86; 4977,685;  224,010; 4393,040;114,02350
1037,41; 4871,838;  223,163; 4290,348;114,29712
1037,95; 4813,377;  197,933; 4207,271;115,11735
1038,50; 4782,608;  206,317; 4166,810;115,54852
1039,04; 4761,223;  229,933; 4143,887;115,77271
1039,58; 4648,377;  206,010; 4072,348;114,89856
1040,13; 4573,838;  226,163; 4017,271;114,68086
1040,67; 4564,377;  254,548; 3991,963;115,31576
1041,21; 4508,762;  251,240; 3921,271;116,00778
1041,76; 4419,377;  215,317; 3817,117;116,72107
1042,30; 4338,377;  218,087; 3786,348;115,47053
1042,85; 4303,146;  215,702; 3720,040;116,63954
1043,39; 4229,685;  207,240; 3680,579;115,80916
1043,93; 4210,300;  232,856; 3683,271;115,27436
1044,48; 4105,992;  230,933; 3588,887;115,39943
1045,02; 4063,915;  220,394; 3519,348;116,50727
1045,56; 4065,069;  237,548; 3511,271;116,91646
1046,11; 3983,685;  229,625; 3464,502;116,04953
1046,65; 3921,685;  234,240; 3390,963;116,81241
1047,19; 3883,915;  218,010; 3303,963;118,79328
1047,74; 3814,685;  204,010; 3279,271;117,41034
1048,28; 3759,377;  234,087; 3254,502;116,71542
1048,82; 3791,069;  249,702; 3219,040;119,26452
1049,37; 3690,300;  232,010; 3171,194;117,66156
1049,91; 3611,377;  221,240; 3126,117;116,70500
1050,45; 3601,762;  241,471; 3095,425;117,74158
1050,99; 3565,915;  232,856; 3027,348;119,27246
1051,54; 3474,146;  220,317; 2989,040;117,52092
1052,08; 3452,992;  237,010; 2958,117;118,18653
1052,62; 3437,838;  239,163; 2924,656;119,10945
1053,16; 3340,454;  212,087; 2848,425;118,66334
1053,71; 3342,069;  236,779; 2870,425;117,90841
1054,25; 3327,146;  237,779; 2782,810;121,38821
1054,79; 3277,223;  239,471; 2752,425;120,88371
1055,33; 3166,685;  207,856; 2678,348;119,76677
1055,88; 3189,992;  232,548; 2670,271;121,31994
1056,42; 3147,377;  248,240; 2650,040;120,70683
1056,96; 3095,838;  247,240; 2617,194;120,19635
1057,50; 3028,838;  238,471; 2587,348;118,79581
1058,05; 3000,223;  232,779; 2525,579;120,70151
1058,59; 2970,146;  261,625; 2518,502;120,01191
1059,13; 2888,146;  206,240; 2434,810;120,34204
1059,67; 2878,762;  236,625; 2431,810;120,36056
1060,21; 2828,377;  221,933; 2362,117;121,78595
1060,76; 2811,838;  243,471; 2345,963;122,15823
1061,30; 2788,146;  251,317; 2325,425;122,30941
1061,84; 2754,685;  238,933; 2285,425;122,92995
1062,38; 2653,069;  221,240; 2225,733;121,31894
1062,92; 2671,531;  272,471; 2270,425;120,07583
1063,46; 2606,838;  245,010; 2183,963;121,80944
1064,01; 2566,223;  225,779; 2175,579;120,03509
1064,55; 2518,454;  242,856; 2135,425;120,23856
1065,09; 2464,223;  207,702; 2084,579;120,22744
1065,63; 2471,915;  270,163; 2099,502;120,35782
1066,17; 2447,531;  259,317; 2072,887;120,65784
1066,71; 2406,992;  253,471; 2052,271;119,71988
1067,25; 2362,223;  232,548; 1992,194;121,02859
1067,80; 2336,915;  256,856; 1990,040;120,01374
1068,34; 2344,223;  271,779; 2016,656;118,77309
1068,88; 2273,531;  233,625; 1913,887;121,40406
1069,42; 2272,300;  271,087; 1923,040;121,14221
1069,96; 2208,762;  237,856; 1875,194;120,37253
1070,50; 2238,531;  276,779; 1908,194;120,24846
1071,04; 2174,915;  233,240; 1836,810;121,08458
1071,58; 2169,531;  234,856; 1806,810;123,07454
1072,12; 2103,992;  239,163; 1795,579;119,81563
1072,66; 2109,300;  236,394; 1772,194;121,94985
1073,21; 2094,377;  259,856; 1773,887;121,16802
1073,75; 2052,838;  238,933; 1738,040;120,99903
1074,29; 2046,069;  237,087; 1717,733;122,17522
1074,83; 2015,300;  257,856; 1708,502;121,14906
1075,37; 2005,146;  246,471; 1675,117;123,10081
1075,91; 1991,838;  262,163; 1664,271;123,36249
1076,45; 1949,146;  250,933; 1651,271;121,27164
1076,99; 1948,838;  262,163; 1629,348;123,36849
1077,53; 1886,377;  238,471; 1599,887;121,04357
1078,07; 1887,454;  248,702; 1604,810;120,84231
1078,61; 1839,608;  241,856; 1568,733;120,41448
1079,15; 1855,146;  232,163; 1538,963;124,19519
1079,69; 1821,762;  242,240; 1508,194;124,76925
1080,23; 1805,762;  261,933; 1514,810;123,22271
1080,77; 1799,223;  285,317; 1531,040;121,52828
1081,31; 1738,838;  238,625; 1481,733;120,68250
1081,85; 1771,838;  248,625; 1469,733;124,74031
1082,39; 1741,992;  239,240; 1426,733;126,54835
1082,93; 1709,608;  247,163; 1425,887;124,07021
1083,47; 1657,454;  226,933; 1380,810;123,97519
1084,01; 1671,223;  252,317; 1416,733;121,85564
1084,55; 1614,300;  232,471; 1388,425;119,54014
1085,09; 1634,454;  251,702; 1367,810;123,89055
1085,63; 1623,838;  254,471; 1342,271;125,88411
1086,17; 1593,454;  238,010; 1296,579;128,04493
1086,71; 1573,762;  237,317; 1306,733;124,96961
1087,24; 1586,069;  264,394; 1315,810;125,70436
1087,78; 1562,454;  255,933; 1303,271;124,74679
1088,32; 1496,838;  232,548; 1254,271;123,74100
1088,86; 1533,762;  250,548; 1267,425;126,19162
1089,40; 1497,992;  240,240; 1244,348;125,26066
1089,94; 1475,300;  220,010; 1205,810;127,33723
1090,48; 1456,531;  247,933; 1202,733;126,58128
1091,02; 1450,992;  259,317; 1201,656;126,45934
1091,56; 1421,146;  249,317; 1192,117;124,29241
1092,10; 1393,915;  223,702; 1155,887;125,53452
1092,63; 1417,685;  262,779; 1177,579;126,24680
1093,17; 1387,300;  260,163; 1161,194;125,09412
1093,71; 1357,685;  251,087; 1131,502;125,69045
1094,25; 1356,377;  265,240; 1151,963;123,05268
1094,79; 1329,608;  236,625; 1110,733;125,03982
1095,33; 1311,377;  243,163; 1102,117;124,36215
1095,87; 1293,454;  240,856; 1083,810;124,87019
1096,40; 1244,608;  230,163; 1064,194;121,63151
1096,94; 1270,454;  248,087; 1069,579;124,45245
1097,48; 1268,531;  243,471; 1063,040;125,07297
1098,02; 1227,223;  243,779; 1040,887;123,37658
1098,56; 1197,069;  212,471; 1004,733;124,27690
1099,10; 1186,454;  215,087;  985,963;126,00809
1099,63; 1188,915;  222,317;  992,963;125,42696
1100,17; 1202,531;  252,702;  991,502;128,56373
1100,71; 1192,531;  259,317;  991,733;127,41587

