
Integration time [ms]: 120,000
Averaging Nr. [scans]: 13
Smoothing Nr. [pixels]: 0
Data measured with spectrometer [name]: 2009305U1
Wave   ;Sample   ;Dark     ;Reference;Reflectance
[nm]   ;[counts] ;[counts] ;[counts] ;[%]

 175,72;  206,430;  202,886;  214,253;31,17443
 176,32;  224,516;  236,502;  224,563; 0,00000
 176,92;  251,449;  261,810;  259,279; 0,00000
 177,52;  256,906;  256,040;  268,411; 7,00107
 178,12;  233,809;  228,579;  233,833;99,55856
 178,72;  264,256;  258,810;  256,007; 0,00000
 179,32;  253,804;  260,733;  253,210; 0,00000
 179,92;  248,064;  251,194;  250,799; 0,00000
 180,52;  243,245;  248,194;  249,355;-426,22404
 181,12;  254,226;  252,963;  254,248;98,32062
 181,73;  283,410;  279,733;  279,385; 0,00000
 182,33;  350,231;  348,886;  358,111;14,57460
 182,93;  273,674;  273,348;  275,613;14,38507
 183,53;  238,180;  241,425;  236,281; 0,00000
 184,13;  241,966;  249,502;  235,332; 0,00000
 184,73;  279,779;  275,272;  271,335; 0,00000
 185,33;  262,936;  236,428;  336,101;26,59487
 185,93;  283,501;  234,583;  359,342;39,21011
 186,53;  298,433;  252,198;  384,040;35,06867
 187,13;  319,106;  282,736;  409,296;28,73744
 187,73;  278,687;  254,890;  367,277;21,17352
 188,33;  275,599;  248,737;  369,705;22,20593
 188,93;  288,439;  255,430;  366,881;29,61808
 189,53;  289,683;  251,969;  374,863;30,68862
 190,13;  321,005;  287,585;  411,451;26,98059
 190,73;  251,582;  233,430;  364,758;13,82138
 191,34;  308,201;  259,584;  390,135;37,24037
 191,94;  277,334;  241,583;  374,569;26,88326
 192,54;  301,408;  259,889;  412,605;27,18666
 193,14;  310,232;  261,198;  394,187;36,87076
 193,74;  294,311;  260,890;  382,181;27,55435
 194,34;  291,830;  260,505;  382,000;25,78294
 194,94;  268,307;  222,505;  351,466;35,51587
 195,54;  243,441;  209,121;  329,710;28,46012
 196,14;  275,159;  234,043;  365,416;31,29674
 196,74;  263,534;  222,736;  356,742;30,44497
 197,34;  245,602;  205,659;  339,451;29,85493
 197,94;  267,224;  232,351;  378,492;23,86242
 198,54;  285,139;  243,428;  386,908;29,07079
 199,14;  264,615;  223,966;  379,479;26,13879
 199,74;  250,771;  205,351;  372,661;27,14726
 200,34;  256,321;  202,428;  400,858;27,16005
 200,94;  281,857;  238,736;  424,673;23,19120
 201,54;  273,965;  213,428;  425,103;28,59898
 202,14;  310,405;  244,043;  464,005;30,16970
 202,74;  290,632;  219,351;  461,776;29,40321
 203,34;  279,387;  193,735;  478,391;30,08977
 203,94;  259,106;  181,966;  496,607;24,51673
 204,54;  335,712;  242,813;  571,497;28,26406
 205,14;  287,750;  206,274;  583,049;21,62449
 205,74;  346,076;  248,274;  675,642;22,88484
 206,34;  318,460;  206,197;  683,700;23,51050
 206,94;  329,062;  217,274;  760,936;20,56202
 207,54;  314,552;  184,428;  772,738;22,11826
 208,14;  348,775;  217,735;  847,890;20,79484
 208,74;  376,764;  207,735;  933,625;23,28571
 209,34;  391,737;  205,043; 1021,039;22,87924
 209,94;  412,714;  228,043; 1123,399;20,62539
 210,54;  414,193;  209,735; 1225,007;20,13824
 211,14;  441,095;  215,351; 1308,727;20,64651
 211,73;  465,938;  223,120; 1428,637;20,14223
 212,33;  503,316;  230,889; 1519,106;21,14761
 212,93;  505,991;  212,505; 1626,646;20,75370
 213,53;  496,381;  188,966; 1698,269;20,36801
 214,13;  536,438;  201,043; 1758,559;21,53400
 214,73;  528,251;  185,428; 1791,774;21,34181
 215,33;  531,791;  188,658; 1829,553;20,91129
 215,93;  594,956;  204,120; 1943,802;22,46598
 216,53;  584,660;  174,428; 2018,775;22,24271
 217,13;  675,329;  215,427; 2222,682;22,91196
 217,73;  715,114;  204,351; 2416,551;23,08847
 218,33;  738,642;  151,427; 2607,742;23,90632
 218,93;  875,043;  195,196; 2888,264;25,24433
 219,53;  974,566;  206,120; 3172,770;25,90285
 220,13; 1024,471;  173,427; 3452,633;25,95275
 220,73; 1144,717;  194,274; 3805,609;26,31833
 221,32; 1271,610;  200,428; 4215,010;26,68229
 221,92; 1396,677;  196,581; 4630,656;27,06530
 222,52; 1519,868;  174,274; 5017,128;27,78516
 223,12; 1661,720;  190,889; 5440,521;28,01779
 223,72; 1782,029;  204,581; 5856,549;27,90971
 224,32; 1895,151;  198,427; 6211,109;28,21908
 224,92; 1983,496;  192,120; 6488,018;28,45307
 225,52; 2142,217;  215,428; 6819,349;29,17645
 226,12; 2223,692;  202,658; 7124,839;29,19649
 226,72; 2307,243;  171,351; 7400,541;29,54539
 227,31; 2432,742;  160,274; 7750,450;29,93960
 227,91; 2604,189;  201,812; 8154,932;30,20672
 228,51; 2690,327;  182,120; 8521,044;30,07830
 229,11; 2837,642;  187,043; 8878,963;30,49498
 229,71; 2880,412;  175,120; 9158,296;30,11509
 230,31; 3033,862;  181,658; 9533,880;30,49761
 230,91; 3134,510;  174,813; 9847,932;30,59714
 231,51; 3230,459;  168,043;10155,152;30,66369
 232,10; 3336,527;  170,043;10488,064;30,68887
 232,70; 3452,907;  196,351;10637,077;31,19089
 233,30; 3542,797;  203,504;10982,179;30,98055
 233,90; 3579,143;  175,351;11123,242;31,09085
 234,50; 3638,285;  184,581;11182,491;31,40328
 235,10; 3656,342;  182,043;11331,633;31,16078
 235,70; 3698,398;  199,812;11398,781;31,24025
 236,29; 3677,741;  200,582;11347,754;31,19320
 236,89; 3630,497;  176,274;11296,000;31,06393
 237,49; 3596,365;  192,889;11256,101;30,76390
 238,09; 3485,768;  180,581;11083,700;30,31414
 238,69; 3435,083;  216,967;10925,828;30,05097
 239,29; 3292,836;  182,197;10627,175;29,78120
 239,89; 3180,460;  199,197;10325,321;29,44130
 240,48; 2995,190;  175,889;10003,455;28,68768
 241,08; 2899,561;  182,351; 9657,845;28,67618
 241,68; 2741,483;  216,735; 9405,264;27,47718
 242,28; 2588,043;  164,889; 9092,140;27,14333
 242,88; 2488,748;  217,120; 8844,048;26,33183
 243,48; 2368,132;  210,428; 8539,688;25,90512
 244,07; 2215,150;  198,197; 8305,456;24,87836
 244,67; 2115,855;  212,428; 8180,638;23,88777
 245,27; 2004,630;  207,582; 8020,637;23,00059
 245,87; 1928,893;  202,735; 7940,984;22,30682
 246,47; 1859,208;  195,120; 7905,266;21,58309
 247,06; 1814,355;  188,658; 7917,206;21,03496
 247,66; 1757,043;  182,658; 8001,876;20,13481
 248,26; 1763,274;  213,889; 8155,823;19,50891
 248,86; 1759,212;  196,274; 8323,092;19,23185
 249,46; 1692,380;  170,581; 8488,355;18,29575
 250,05; 1761,341;  208,505; 8889,937;17,88686
 250,65; 1784,853;  166,582; 9173,342;17,96729
 251,25; 1809,885;  189,658; 9635,681;17,15247
 251,85; 1880,555;  187,120;10180,646;16,94531
 252,44; 1910,879;  158,197;10737,534;16,56703
 253,04; 2074,409;  200,120;11459,686;16,64620
 253,64; 2132,209;  153,043;12098,464;16,56840
 254,24; 2354,723;  200,581;12955,909;16,88817
 254,84; 2483,150;  183,504;13809,432;16,87698
 255,43; 2661,902;  180,043;14792,636;16,98438
 256,03; 2842,676;  188,120;15635,471;17,18453
 256,63; 3046,766;  193,505;16648,755;17,33952
 257,23; 3251,558;  179,736;17466,164;17,77014
 257,82; 3484,651;  190,659;18317,750;18,17165
 258,42; 3640,725;  171,428;19093,814;18,33435
 259,02; 3920,619;  210,505;20034,920;18,71487
 259,62; 4101,674;  169,274;20667,680;19,18393
 260,21; 4297,744;  180,889;21124,964;19,65642
 260,81; 4495,381;  197,581;21563,090;20,11560
 261,41; 4660,528;  167,505;21953,623;20,62333
 262,01; 4925,021;  208,813;22371,429;21,28002
 262,60; 5051,404;  165,582;22700,703;21,68092
 263,20; 5238,917;  182,274;22984,717;22,17588
 263,80; 5455,231;  213,044;23145,817;22,85893
 264,40; 5588,491;  172,736;23239,186;23,47893
 264,99; 5799,918;  199,659;23434,194;24,10317
 265,59; 5921,512;  188,813;23637,145;24,44821
 266,19; 6096,386;  168,428;23854,922;25,02674
 266,78; 6298,641;  223,736;23827,111;25,73744
 267,38; 6414,948;  186,352;23809,664;26,36631
 267,98; 6494,799;  176,275;23888,705;26,64646
 268,58; 6592,832;  192,352;23919,496;26,97535
 269,17; 6706,728;  175,352;23946,242;27,47636
 269,77; 6806,713;  192,120;23651,977;28,19537
 270,37; 6863,742;  163,967;23594,736;28,59392
 270,96; 6935,400;  229,890;23477,474;28,84390
 271,56; 6963,727;  192,966;23174,664;29,46153
 272,16; 6994,465;  177,044;23038,738;29,82028
 272,75; 7046,796;  193,813;22949,456;30,11553
 273,35; 7175,041;  182,351;22947,835;30,71619
 273,95; 7226,105;  186,120;22897,791;30,99721
 274,54; 7349,781;  168,966;22845,018;31,66695
 275,14; 7494,717;  209,736;23211,307;31,67167
 275,74; 7574,524;  167,967;23262,106;32,07116
 276,33; 7802,731;  212,120;23670,379;32,35794
 276,93; 8041,371;  195,274;24000,998;32,95887
 277,53; 8259,281;  188,966;24480,551;33,22268
 278,12; 8476,969;  170,120;24882,707;33,61384
 278,72; 8843,872;  220,659;25607,498;33,96726
 279,32; 9048,693;  185,966;26004,984;34,32635
 279,91; 9412,949;  164,812;26785,849;34,73996
 280,51; 9632,649;  183,043;27319,255;34,82287
 281,11; 9997,987;  190,120;27968,527;35,30752
 281,70;10255,518;  170,736;28412,107;35,70925
 282,30;10617,111;  178,505;28968,664;36,25755
 282,90;10839,591;  191,813;29335,835;36,53503
 283,49;11172,350;  204,813;29850,094;36,99590
 284,09;11466,168;  220,197;30314,267;37,36939
 284,69;11717,709;  211,120;30676,434;37,76947
 285,28;11977,935;  199,966;31044,701;38,18470
 285,88;12311,714;  241,428;31267,217;38,90404
 286,47;12433,974;  192,428;31271,345;39,38858
 287,07;12742,768;  222,120;31492,417;40,04007
 287,67;12925,055;  205,428;31487,842;40,66063
 288,26;13129,112;  177,659;31433,606;41,43676
 288,86;13408,688;  186,889;31461,481;42,27649
 289,46;13662,722;  197,428;31623,521;42,84750
 290,05;13933,806;  187,966;31607,345;43,74956
 290,65;14280,967;  194,659;31866,156;44,47629
 291,24;14577,274;  196,274;31915,746;45,33808
 291,84;14888,612;  207,659;32091,063;46,04575
 292,44;15131,370;  196,966;32171,186;46,70764
 293,03;15460,485;  263,735;32350,547;47,36136
 293,63;15704,551;  186,351;32543,282;47,95943
 294,22;15943,391;  213,197;32649,881;48,49507
 294,82;16078,552;  189,121;32769,966;48,76924
 295,41;16131,903;  181,889;32461,722;49,41170
 296,01;16207,399;  219,505;32380,643;49,71184
 296,61;16146,022;  201,735;32124,057;49,94714
 297,20;16026,578;  194,736;31846,388;50,01901
 297,80;16029,299;  202,658;31633,357;50,35409
 298,39;15850,862;  184,659;31252,493;50,42580
 298,99;15675,132;  212,274;31083,950;50,08752
 299,58;15683,084;  203,120;30912,072;50,40864
 300,18;15547,445;  222,428;30839,754;50,05341
 300,78;15339,018;  190,735;30427,035;50,09966
 301,37;15231,081;  210,121;30360,455;49,82021
 301,97;15225,298;  204,428;30473,968;49,62371
 302,56;15148,757;  192,890;30297,075;49,68036
 303,16;15056,148;  179,197;30194,819;49,56403
 303,75;14970,277;  186,812;30292,221;49,10568
 304,35;14966,160;  189,581;30519,139;48,72006
 304,94;14961,359;  189,351;30455,364;48,80725
 305,54;14867,610;  205,966;30414,317;48,53507
 306,13;14703,491;  160,504;30389,472;48,10944
 306,73;14492,696;  174,504;30209,665;47,67143
 307,33;14345,859;  198,043;30187,156;47,17651
 307,92;14266,063;  198,582;30198,638;46,89152
 308,52;14321,509;  174,274;30562,024;46,55572
 309,11;14453,047;  188,582;30980,083;46,32598
 309,71;14494,502;  169,505;31409,706;45,85437
 310,30;14456,963;  176,505;31509,075;45,57704
 310,90;14576,732;  213,889;31888,998;45,34426
 311,49;14481,977;  194,582;32070,343;44,82213
 312,09;14344,869;  162,120;32165,614;44,31625
 312,68;14431,843;  242,274;32598,653;43,85401
 313,28;14310,217;  162,505;32749,253;43,41554
 313,87;14193,421;  153,659;32846,403;42,94458
 314,47;14178,752;  186,967;33115,126;42,49185
 315,06;14074,238;  170,428;33197,019;42,09884
 315,66;13973,561;  169,351;33394,153;41,54791
 316,25;13761,902;  160,736;33337,011;40,99667
 316,85;13598,736;  160,351;33403,688;40,42430
 317,44;13529,090;  175,274;33484,692;40,09021
 318,04;13275,476;  157,351;33544,541;39,29089
 318,63;13080,100;  168,197;33588,018;38,63546
 319,22;12969,484;  182,120;33732,082;38,11439
 319,82;12785,510;  178,659;33856,351;37,43383
 320,41;12568,045;  204,043;33677,799;36,93640
 321,01;12454,189;  199,274;33829,393;36,44030
 321,60;12298,570;  185,274;33806,977;36,02821
 322,20;12069,816;  172,812;33782,649;35,39739
 322,79;11905,104;  210,735;33976,603;34,63370
 323,39;11768,076;  172,966;34015,257;34,26219
 323,98;11530,533;  168,043;33951,241;33,63355
 324,58;11319,683;  172,736;33805,455;33,14316
 325,17;11131,290;  185,582;33734,222;32,62639
 325,76;10845,072;  205,582;33616,207;31,84463
 326,36;10589,745;  173,120;33254,411;31,48797
 326,95;10357,747;  199,505;32984,694;30,98424
 327,55;10059,776;  174,043;32616,539;30,47155
 328,14; 9784,632;  180,812;32335,871;29,86721
 328,74; 9553,371;  205,351;31792,817;29,59408
 329,33; 9268,704;  198,043;31487,061;28,98992
 329,92; 9005,262;  164,505;31012,632;28,65897
 330,52; 8688,675;  194,043;30355,557;28,16381
 331,11; 8420,052;  183,966;30015,561;27,60860
 331,71; 8125,641;  189,505;29379,388;27,18797
 332,30; 7903,820;  202,197;28964,056;26,77721
 332,89; 7660,796;  227,428;28481,791;26,30874
 333,49; 7382,536;  199,351;27864,817;25,96445
 334,08; 7177,372;  191,889;27511,186;25,56977
 334,68; 6923,123;  193,505;27072,400;25,03681
 335,27; 6712,916;  201,812;26754,803;24,52117
 335,86; 6572,436;  239,889;26513,330;24,10246
 336,46; 6383,361;  194,428;26268,199;23,73624
 337,05; 6214,858;  183,813;26067,162;23,30087
 337,65; 6094,374;  173,813;26075,676;22,85767
 338,24; 6049,013;  232,120;25997,027;22,57680
 338,83; 5923,361;  211,505;25833,685;22,29263
 339,43; 5766,348;  175,120;25884,022;21,74822
 340,02; 5717,956;  195,890;25775,602;21,58768
 340,61; 5626,142;  176,274;25788,589;21,27831
 341,21; 5571,909;  209,813;25862,432;20,90273
 341,80; 5457,256;  185,351;25820,403;20,56522
 342,40; 5422,947;  189,966;25815,138;20,42125
 342,99; 5354,027;  184,889;25916,022;20,08904
 343,58; 5324,474;  188,351;26076,522;19,83965
 344,18; 5284,883;  197,889;26284,422;19,50046
 344,77; 5259,359;  182,197;26547,850;19,25673
 345,36; 5235,209;  170,120;26860,156;18,97745
 345,96; 5291,128;  209,889;27115,306;18,88556
 346,55; 5264,906;  181,504;27346,653;18,71295
 347,14; 5201,006;  178,581;27617,274;18,30417
 347,74; 5258,135;  157,581;28018,754;18,30703
 348,33; 5342,568;  186,120;28696,644;18,08612
 348,92; 5376,146;  196,889;29244,677;17,83013
 349,52; 5435,321;  157,350;29666,997;17,88558
 350,11; 5480,103;  185,043;29898,258;17,82055
 350,70; 5415,544;  182,812;30043,991;17,52353
 351,29; 5326,679;  177,659;29821,173;17,36980
 351,89; 5313,027;  188,736;29913,883;17,23891
 352,48; 5266,485;  162,197;29795,470;17,22485
 353,07; 5279,265;  191,889;29824,384;17,16823
 353,67; 5217,268;  198,581;29731,006;16,99382
 354,26; 5172,641;  184,043;29434,935;17,05451
 354,85; 5134,949;  188,812;29332,440;16,97159
 355,45; 5125,038;  171,813;29224,412;17,04916
 356,04; 5077,367;  179,812;29136,514;16,91337
 356,63; 5068,270;  216,043;28939,013;16,89319
 357,22; 5046,453;  186,505;28850,138;16,95510
 357,82; 5036,973;  186,198;28602,308;17,07051
 358,41; 5006,530;  209,736;28457,074;16,98140
 359,00; 4991,521;  176,274;28327,452;17,10496
 359,60; 5021,070;  189,274;28233,366;17,22928
 360,19; 4999,393;  179,966;28068,903;17,28078
 360,78; 5029,334;  199,351;27988,969;17,38053
 361,37; 4976,875;  181,659;27727,305;17,40825
 361,97; 5020,294;  187,351;27642,220;17,60323
 362,56; 5000,928;  181,582;27310,954;17,76431
 363,15; 5011,619;  232,889;27156,483;17,74923
 363,74; 4963,542;  186,351;26775,123;17,96695
 364,34; 4966,269;  210,120;26303,456;18,22745
 364,93; 4917,556;  181,813;25956,887;18,37334
 365,52; 4876,052;  153,505;25583,023;18,57112
 366,11; 4895,233;  178,043;25307,498;18,77156
 366,71; 4884,253;  183,813;24973,774;18,96106
 367,30; 4874,016;  191,813;24528,603;19,23920
 367,89; 4910,312;  222,428;24395,366;19,39311
 368,48; 4902,699;  199,351;24142,025;19,64421
 369,07; 4881,775;  192,043;23618,453;20,01900
 369,67; 4874,746;  207,659;23342,537;20,17338
 370,26; 4850,317;  178,659;23107,740;20,37438
 370,85; 4867,955;  187,428;22796,515;20,70197
 371,44; 4921,100;  190,889;22626,101;21,08387
 372,03; 4919,596;  172,659;22354,886;21,39973
 372,63; 4881,384;  161,197;22096,153;21,51902
 373,22; 4936,405;  177,582;21745,260;22,06461
 373,81; 4900,012;  162,582;21484,393;22,21871
 374,40; 4951,344;  169,735;21237,763;22,69604
 374,99; 4983,751;  174,428;21021,717;23,06930
 375,59; 4948,242;  169,120;20697,787;23,28024
 376,18; 5054,313;  191,966;20598,819;23,82703
 376,77; 5018,874;  198,659;20408,493;23,85084
 377,36; 5065,358;  208,505;20319,456;24,15029
 377,95; 5124,410;  203,505;20092,600;24,74173
 378,55; 5146,958;  170,197;19882,163;25,24741
 379,14; 5155,492;  189,120;19870,180;25,23427
 379,73; 5244,260;  191,351;19660,041;25,95403
 380,32; 5359,776;  199,505;19781,111;26,35264
 380,91; 5354,070;  173,582;19652,911;26,59480
 381,50; 5440,699;  194,428;19493,751;27,18370
 382,10; 5474,083;  164,659;19444,188;27,53918
 382,69; 5534,663;  160,120;19410,351;27,91937
 383,28; 5608,360;  203,120;19366,878;28,20553
 383,87; 5645,706;  175,505;19281,403;28,63095
 384,46; 5688,919;  165,813;19211,102;28,99985
 385,05; 5817,295;  207,659;19192,321;29,54825
 385,64; 5875,618;  189,274;19153,267;29,98495
 386,24; 5928,069;  165,274;19094,815;30,44339
 386,83; 6048,772;  201,428;19194,181;30,78724
 387,42; 6157,621;  198,043;19286,631;31,22063
 388,01; 6284,300;  188,352;19384,455;31,75618
 388,60; 6451,292;  181,428;19675,890;32,16228
 389,19; 6590,485;  163,890;19851,507;32,64283
 389,78; 6759,039;  172,506;20053,837;33,12924
 390,37; 6997,830;  235,198;20545,717;33,29621
 390,96; 7133,239;  185,813;20697,881;33,86995
 391,56; 7275,097;  181,814;20839,801;34,33676
 392,15; 7459,974;  172,429;21159,881;34,72334
 392,74; 7582,356;  151,968;21210,378;35,28466
 393,33; 7807,530;  182,352;21574,769;35,64431
 393,92; 8055,177;  195,045;21936,229;36,15319
 394,51; 8158,931;  165,198;22105,604;36,43384
 395,10; 8407,260;  206,353;22334,791;37,06049
 395,69; 8501,010;  197,122;22467,115;37,28734
 396,28; 8651,134;  191,276;22616,925;37,72403
 396,87; 8737,344;  200,354;22620,824;38,07677
 397,46; 8903,209;  196,277;22812,755;38,49818
 398,06; 9090,169;  207,585;23021,439;38,93504
 398,65; 9184,136;  186,971;23034,531;39,37911
 399,24; 9434,574;  204,048;23153,410;40,22127
 399,83; 9413,963;  181,434;23194,845;40,11804
 400,42; 9661,620;  216,897;23340,592;40,84435
 401,01; 9747,750;  192,744;23410,225;41,15436
 401,60; 9880,988;  206,900;23408,472;41,69583
 402,19; 9971,169;  219,055;23452,836;41,97385
 402,78;10056,510;  218,596;23456,829;42,33503
 403,37;10112,901;  204,675;23295,193;42,91036
 403,96;10143,505;  206,986;23138,574;43,33114
 404,55;10212,746;  217,604;23104,145;43,67258
 405,14;10196,401;  202,607;22971,214;43,89287
 405,73;10282,539;  213,840;22778,482;44,62158
 406,32;10396,696;  212,996;22757,039;45,17247
 406,91;10297,620;  217,076;22488,069;45,26311
 407,50;10373,161;  215,077;22286,033;46,02467
 408,09;10293,195;  191,539;22091,556;46,12625
 408,68;10391,234;  207,925;21913,293;46,91609
 409,27;10429,913;  193,770;21733,089;47,52306
 409,86;10429,472;  206,306;21625,582;47,72881
 410,45;10489,305;  233,151;21523,443;48,17291
 411,04;10547,493;  223,996;21489,152;48,54654
 411,63;10525,880;  218,147;21239,526;49,03452
 412,22;10499,891;  215,145;21033,757;49,40169
 412,81;10471,845;  229,222;20785,249;49,82783
 413,40;10306,635;  237,144;20533,190;49,61307
 413,99;10340,108;  278,067;20126,196;50,69516
 414,58;10155,439;  196,990;19770,317;50,87765
 415,17;10167,769;  210,914;19589,046;51,38192
 415,76;10174,335;  206,145;19412,475;51,90055
 416,35;10113,429;  202,068;19219,997;52,11588
 416,94;10221,184;  237,761;19264,907;52,46937
 417,53;10429,803;  201,606;19490,625;53,02601
 418,12;10598,826;  208,221;19585,976;53,62131
 418,71;10849,295;  233,759;19823,904;54,18814
 419,30;10980,824;  216,452;20003,289;54,40168
 419,89;11145,381;  209,529;20200,787;54,70317
 420,48;11438,470;  235,221;20350,440;55,69539
 421,07;11485,430;  227,913;20547,339;55,40273
 421,66;11585,856;  197,605;20523,452;56,02842
 422,25;11631,175;  208,681;20441,884;56,45421
 422,84;11649,945;  244,296;20467,133;56,39985
 423,43;11594,729;  217,835;20204,469;56,92251
 424,02;11504,997;  236,219;19962,138;57,12675
 424,60;11384,567;  217,065;19606,941;57,59450
 425,19;11274,548;  218,296;19336,560;57,83083
 425,78;11329,406;  232,604;19274,681;58,27517
 426,37;11278,237;  238,373;19108,498;58,50446
 426,96;11303,008;  203,834;19034,526;58,94193
 427,55;11298,288;  219,757;18843,583;59,48579
 428,14;11246,824;  210,372;18597,684;60,02211
 428,73;11189,431;  212,680;18535,934;59,90612
 429,32;11258,743;  232,603;18493,947;60,37967
 429,91;11273,168;  242,834;18528,494;60,32232
 430,50;11281,906;  228,372;18356,212;60,97546
 431,08;11276,605;  234,295;18080,146;61,87606
 431,67;11188,973;  279,987;18101,671;61,21187
 432,26;11188,319;  287,602;17955,940;61,69633
 432,85;11021,723;  294,064;17598,413;61,99401
 433,44;10860,021;  316,986;17209,777;62,41145
 434,03;10703,926;  324,832;16901,479;62,61275
 434,62;10526,316;  279,909;16528,690;63,05954
 435,21;10382,118;  308,371;16289,582;63,03494
 435,79;10330,421;  283,140;16073,929;63,62748
 436,38;10344,727;  282,370;16032,005;63,88946
 436,97;10317,762;  277,678;15945,304;64,08172
 437,56;10253,894;  273,831;15686,080;64,75410
 438,15;10281,581;  261,677;15673,361;65,01498
 438,74;10211,290;  277,600;15653,412;64,60595
 439,33;10327,556;  258,216;15678,154;65,30078
 439,91;10397,267;  232,754;15758,901;65,46707
 440,50;10506,544;  284,215;15791,105;65,92121
 441,09;10554,217;  264,753;15927,054;65,69574
 441,68;10596,682;  251,599;15847,027;66,33408
 442,27;10627,160;  250,215;15855,998;66,49423
 442,86;10651,797;  213,829;15895,016;66,56363
 443,44;10723,446;  230,137;15949,850;66,75254
 444,03;10775,455;  293,060;16007,625;66,70496
 444,62;10705,820;  228,522;15839,041;67,11691
 445,21;10604,255;  247,060;15662,234;67,18831
 445,80;10596,661;  275,752;15579,797;67,43909
 446,39;10434,506;  300,829;15382,504;67,19199
 446,97;10310,677;  227,828;15161,275;67,51856
 447,56;10176,622;  226,905;14913,420;67,74730
 448,15;10074,886;  234,290;14828,971;67,42591
 448,74;10017,610;  249,213;14518,444;68,45777
 449,33; 9929,796;  250,597;14418,740;68,31664
 449,91; 9776,585;  229,597;14204,505;68,31521
 450,50; 9633,292;  232,059;14000,971;68,27869
 451,09; 9627,690;  238,828;13895,427;68,74964
 451,68; 9555,218;  267,443;13811,310;68,57550
 452,26; 9515,519;  260,520;13742,481;68,64728
 452,85; 9506,354;  236,289;13641,557;69,15240
 453,44; 9486,238;  248,750;13616,667;69,10192
 454,03; 9529,398;  230,827;13558,093;69,77103
 454,61; 9496,268;  221,442;13543,266;69,62129
 455,20; 9636,377;  262,596;13727,143;69,61824
 455,79; 9659,670;  265,827;13714,342;69,85041
 456,38; 9716,710;  262,519;13841,772;69,62233
 456,97; 9780,089;  243,288;13823,702;70,22467
 457,55; 9828,981;  241,134;13864,112;70,37996
 458,14; 9825,395;  265,673;13856,102;70,34158
 458,73; 9761,319;  258,057;13794,557;70,20472
 459,31; 9832,104;  272,133;13801,002;70,66349
 459,90; 9875,246;  292,287;13894,709;70,45038
 460,49;10053,544;  326,364;13979,122;71,24699
 461,08;10041,208;  239,441;14041,256;71,01796
 461,66;10095,523;  249,518;14148,009;70,84226
 462,25;10145,731;  249,671;14169,362;71,09396
 462,84;10195,931;  266,210;14233,855;71,09087
 463,43;10145,200;  220,671;14197,392;71,00756
 464,01;10163,860;  252,825;14211,433;71,00304
 464,60;10197,280;  294,902;14133,045;71,55857
 465,19; 9949,484;  226,901;13917,146;71,01833
 465,77; 9943,015;  245,901;13931,470;70,85649
 466,36; 9910,220;  263,748;13781,592;71,36102
 466,95; 9648,770;  249,517;13545,097;70,69457
 467,53; 9453,226;  262,209;13231,631;70,86682
 468,12; 9282,260;  287,516;12985,825;70,83419
 468,71; 9106,092;  256,517;12769,913;70,72081
 469,29; 8976,773;  244,747;12563,421;70,88446
 469,88; 8802,814;  243,285;12255,789;71,25516
 470,47; 8861,496;  308,824;12429,383;70,56335
 471,06; 8817,405;  245,747;12327,576;70,94669
 471,64; 8861,572;  258,439;12426,475;70,70272
 472,23; 8847,457;  238,515;12484,723;70,29884
 472,81; 8899,337;  235,669;12537,077;70,42826
 473,40; 8933,461;  244,438;12699,088;69,76529
 473,99; 9146,116;  337,131;12877,102;70,24725
 474,57; 9221,168;  254,746;13007,664;70,30878
 475,16; 9307,932;  259,900;13135,527;70,27255
 475,75; 9400,214;  277,361;13270,843;70,21099
 476,33; 9455,591;  273,438;13301,278;70,48101
 476,92; 9490,092;  284,515;13382,495;70,28242
 477,51; 9482,867;  273,746;13473,078;69,76960
 478,09; 9531,254;  274,361;13432,183;70,35277
 478,68; 9449,262;  266,592;13402,743;69,90381
 479,27; 9525,333;  285,746;13431,990;70,28310
 479,85; 9495,450;  260,592;13449,749;70,01856
 480,44; 9584,445;  258,591;13565,837;70,08102
 481,02;10448,620;  276,822;14805,194;70,01334
 481,61;11806,882;  287,591;16767,418;69,89934
 482,20;12595,334;  272,207;17955,114;69,68949
 482,78;13151,240;  308,668;18742,703;69,66772
 483,37;13478,907;  304,745;19311,268;69,31390
 483,95;13655,579;  325,591;19524,179;69,43212
 484,54;13774,852;  324,668;19721,819;69,34103
 485,13;13689,270;  299,667;19674,419;69,10851
 485,71;13543,493;  267,283;19359,168;69,53850
 486,30;13396,033;  311,514;19163,734;69,40572
 486,88;13127,726;  350,129;18790,873;69,29003
 487,47;12628,804;  319,360;18111,474;69,18484
 488,05;12053,281;  314,975;17285,299;69,16960
 488,64;11156,466;  298,052;16075,825;68,82096
 489,23; 9971,203;  315,129;14276,871;69,16096
 489,81; 8440,244;  318,436;12269,871;67,95676
 490,40; 7978,220;  283,282;11577,264;68,13308
 490,98; 7785,674;  255,051;11339,911;67,93611
 491,57; 7731,251;  291,129;11214,719;68,11060
 492,15; 7672,455;  261,051;11135,031;68,15723
 492,74; 7637,499;  270,052;11148,520;67,72504
 493,32; 7504,552;  290,436;10980,505;67,48428
 493,91; 7442,586;  275,820;10887,486;67,53667
 494,50; 7389,594;  273,128;10879,117;67,09857
 495,08; 7330,242;  260,205;10835,710;66,85295
 495,67; 7272,094;  291,359;10817,349;66,31904
 496,25; 7184,530;  222,974;10657,382;66,71731
 496,84; 7183,300;  249,359;10687,065;66,43166
 497,42; 7130,497;  241,974;10616,052;66,40130
 498,01; 7086,413;  259,513;10542,979;66,38714
 498,59; 6982,835;  221,359;10499,036;65,78798
 499,18; 6958,786;  244,051;10458,382;65,73837
 499,76; 6895,398;  256,589;10363,917;65,68312
 500,35; 6742,953;  255,589;10202,439;65,22029
 500,93; 6693,820;  245,282;10220,783;64,64375
 501,52; 6645,198;  244,051;10134,040;64,72351
 502,10; 6595,695;  259,743;10034,794;64,81759
 502,69; 6449,123;  239,896; 9925,268;64,10933
 503,27; 6309,118;  222,743; 9663,925;64,46624
 503,86; 6239,970;  245,127; 9678,542;63,54902
 504,44; 6146,704;  218,819; 9571,680;63,38045
 505,03; 5972,570;  208,358; 9369,418;62,92080
 505,61; 5882,994;  219,127; 9253,244;62,69420
 506,19; 5804,470;  242,666; 9039,700;63,22362
 506,78; 5630,370;  224,588; 8895,900;62,34099
 507,36; 5526,871;  230,742; 8739,459;62,24356
 507,95; 5419,911;  229,127; 8601,409;61,99963
 508,53; 5329,714;  227,358; 8497,550;61,69573
 509,12; 5207,493;  239,357; 8385,061;60,99087
 509,70; 5138,553;  250,511; 8219,490;61,33837
 510,29; 5042,290;  258,126; 8094,530;61,05050
 510,87; 4929,059;  227,742; 7879,152;61,44380
 511,46; 4775,482;  218,434; 7755,661;60,46054
 512,04; 4694,049;  224,665; 7594,866;60,64128
 512,62; 4587,253;  243,050; 7412,305;60,59491
 513,21; 4492,276;  212,357; 7288,646;60,48253
 513,79; 4383,974;  222,741; 7188,436;59,73895
 514,38; 4298,695;  198,818; 7033,647;59,98507
 514,96; 4229,148;  251,511; 6942,352;59,44898
 515,54; 4094,774;  213,510; 6836,429;58,60353
 516,13; 4055,919;  222,664; 6752,168;58,70668
 516,71; 3956,804;  225,203; 6620,696;58,34736
 517,30; 3865,586;  213,356; 6522,758;57,88552
 517,88; 3810,101;  240,048; 6434,733;57,63091
 518,46; 3731,204;  222,279; 6292,771;57,80298
 519,05; 3700,130;  225,048; 6254,049;57,63943
 519,63; 3596,089;  231,433; 6195,050;56,41973
 520,22; 3589,330;  244,663; 6145,151;56,68457
 520,80; 3509,396;  231,971; 6080,477;56,03866
 521,38; 3501,868;  260,587; 6102,253;55,48557
 521,97; 3432,013;  229,971; 6046,601;55,04978
 522,55; 3390,108;  241,048; 6010,541;54,58122
 523,13; 3386,255;  219,817; 6021,370;54,57915
 523,72; 3354,027;  226,510; 5992,977;54,23628
 524,30; 3391,043;  235,432; 6131,945;53,51656
 524,89; 3373,464;  218,048; 6108,543;53,56793
 525,47; 3443,311;  243,740; 6228,118;53,46538
 526,05; 3402,244;  206,355; 6263,749;52,76013
 526,64; 3444,462;  238,201; 6358,619;52,38630
 527,22; 3496,366;  250,047; 6505,122;51,89897
 527,80; 3542,072;  266,816; 6599,458;51,72021
 528,39; 3524,951;  226,586; 6700,301;50,95011
 528,97; 3599,452;  224,124; 6868,512;50,79969
 529,55; 3673,064;  248,432; 6996,615;50,74894
 530,14; 3724,762;  252,739; 7200,328;49,97450
 530,72; 3760,377;  229,509; 7309,155;49,87351
 531,30; 3799,905;  208,585; 7461,193;49,51764
 531,89; 3818,481;  231,201; 7525,255;49,18088
 532,47; 3870,310;  267,355; 7669,762;48,67276
 533,05; 3848,224;  251,740; 7672,660;48,46413
 533,63; 3884,226;  261,355; 7705,221;48,66922
 534,22; 3853,131;  239,431; 7765,742;48,01422
 534,80; 3839,115;  251,277; 7789,344;47,59626
 535,38; 3952,492;  334,893; 7959,271;47,44779
 535,97; 3856,813;  251,508; 7886,881;47,21845
 536,55; 3876,431;  280,354; 7904,562;47,16657
 537,13; 3808,515;  288,047; 7905,877;46,21353
 537,71; 3868,603;  322,047; 7940,628;46,55140
 538,30; 3861,519;  334,893; 7993,909;46,04541
 538,88; 3885,054;  352,277; 8073,924;45,75160
 539,46; 3973,210;  410,585; 8243,361;45,48355
 540,05; 3996,110;  405,200; 8356,739;45,15993
 540,63; 4060,325;  441,046; 8556,673;44,59641
 541,21; 4070,016;  479,739; 8696,818;43,69286
 541,79; 4127,669;  478,508; 8803,419;43,83423
 542,38; 4182,660;  501,893; 8941,490;43,61306
 542,96; 4208,084;  520,892; 9065,114;43,15421
 543,54; 4264,816;  539,200; 9251,537;42,76253
 544,12; 4287,180;  493,816; 9436,371;42,41924
 544,70; 4312,166;  494,431; 9440,660;42,67424
 545,29; 4347,066;  504,893; 9648,795;42,01896
 545,87; 4324,361;  486,816; 9679,265;41,74671
 546,45; 4278,944;  465,200; 9709,311;41,25593
 547,03; 4271,303;  452,662; 9797,249;40,86474
 547,62; 4319,753;  418,585; 9934,378;40,99677
 548,20; 4361,961;  435,200;10100,372;40,62795
 548,78; 4364,565;  396,507;10219,879;40,39405
 549,36; 4335,399;  366,430;10373,605;39,66123
 549,94; 4431,115;  335,892;10554,876;40,07466
 550,53; 4459,782;  355,277;10762,159;39,44030
 551,11; 4456,877;  322,661;10924,151;38,99656
 551,69; 4566,165;  334,046;11276,010;38,67787
 552,27; 4581,467;  286,507;11465,523;38,41984
 552,85; 4669,337;  305,046;11817,508;37,90928
 553,44; 4788,143;  298,430;12110,552;38,00937
 554,02; 4881,452;  314,046;12431,922;37,69148
 554,60; 4916,385;  263,122;12768,432;37,21029
 555,18; 5050,052;  306,969;13114,437;37,03373
 555,76; 5112,702;  288,199;13433,121;36,70241
 556,34; 5238,027;  299,891;13810,378;36,55039
 556,93; 5325,095;  281,738;14192,200;36,25585
 557,51; 5332,838;  253,661;14467,113;35,73500
 558,09; 5495,805;  280,892;14830,679;35,84185
 558,67; 5591,953;  278,968;15220,656;35,55813
 559,25; 5641,622;  289,199;15470,982;35,25557
 559,83; 5660,579;  271,430;15684,502;34,96480
 560,41; 5757,550;  258,968;16098,894;34,71343
 561,00; 5835,223;  272,122;16391,747;34,51135
 561,58; 5878,354;  271,815;16682,131;34,16472
 562,16; 5926,859;  259,661;16993,673;33,86635
 562,74; 6020,742;  242,353;17349,904;33,77683
 563,32; 6096,116;  248,737;17697,474;33,51176
 563,90; 6223,665;  274,507;18129,547;33,31921
 564,48; 6305,227;  277,199;18495,332;33,08806
 565,06; 6452,080;  261,661;19084,344;32,88808
 565,65; 6585,157;  272,506;19659,953;32,56051
 566,23; 6804,282;  320,507;20376,806;32,32787
 566,81; 6960,928;  266,584;21113,723;32,11157
 567,39; 7162,459;  284,353;21934,158;31,76983
 567,97; 7371,651;  286,814;22473,937;31,93220
 568,55; 7570,805;  308,737;23278,264;31,61610
 569,13; 7747,707;  284,891;24018,772;31,44372
 569,71; 7944,165;  260,276;24926,337;31,15167
 570,29; 8216,227;  306,661;25849,126;30,96634
 570,87; 8379,942;  304,969;26426,877;30,91265
 571,45; 8470,718;  295,814;27080,061;30,52131
 572,03; 8541,280;  266,430;27550,446;30,32856
 572,61; 8674,245;  254,660;28285,190;30,03719
 573,20; 8825,918;  266,122;28927,400;29,86537
 573,78; 8959,520;  257,968;29476,135;29,78131
 574,36; 9012,639;  284,814;30004,297;29,36735
 574,94; 9106,331;  332,045;30271,657;29,30661
 575,52; 9095,198;  269,737;30613,817;29,08462
 576,10; 9241,013;  330,429;31103,233;28,95603
 576,68; 9309,682;  308,199;31576,386;28,78799
 577,26; 9405,692;  327,583;32303,583;28,39038
 577,84; 9526,741;  332,276;32728,658;28,38115
 578,42; 9599,295;  376,737;32927,349;28,33298
 579,00; 9524,232;  317,122;33151,719;28,04088
 579,58; 9541,968;  367,506;33271,577;27,88245
 580,16; 9454,133;  328,429;33317,731;27,66262
 580,74; 9459,793;  331,199;33552,907;27,47780
 581,32; 9376,708;  324,583;33524,886;27,26519
 581,90; 9333,650;  351,122;33594,888;27,02019
 582,48; 9248,461;  340,352;33723,007;26,68484
 583,06; 9264,183;  347,737;33760,973;26,68537
 583,64; 9199,677;  327,737;33886,412;26,43710
 584,22; 9086,271;  344,275;33797,948;26,13165
 584,80; 8923,105;  355,737;33566,622;25,79687
 585,38; 8775,235;  354,276;33161,122;25,66830
 585,96; 8703,071;  330,891;33270,794;25,41653
 586,54; 8619,257;  342,121;33252,646;25,15042
 587,12; 8588,825;  324,583;33408,996;24,97926
 587,70; 8586,654;  357,583;33443,200;24,87205
 588,28; 8515,823;  335,737;33477,737;24,68193
 588,86; 8462,397;  344,198;33657,805;24,36902
 589,44; 8393,575;  324,275;33671,790;24,19760
 590,02; 8425,458;  321,660;33925,022;24,11603
 590,59; 8392,466;  313,045;34083,572;23,92448
 591,17; 8373,907;  315,121;34274,314;23,73079
 591,75; 8316,472;  303,506;34374,881;23,51818
 592,33; 8296,122;  327,967;34620,470;23,23585
 592,91; 8292,521;  283,198;34771,483;23,22332
 593,49; 8297,906;  283,429;35189,194;22,96033
 594,07; 8345,577;  308,429;35345,736;22,93883
 594,65; 8249,822;  319,583;35391,958;22,61107
 595,23; 8274,935;  308,506;35716,319;22,49907
 595,81; 8278,532;  315,275;35977,566;22,32963
 596,39; 8250,614;  288,890;35999,112;22,29536
 596,97; 8215,251;  279,121;36227,315;22,07657
 597,55; 8142,419;  293,044;36122,513;21,90759
 598,12; 8074,272;  274,198;36072,980;21,78866
 598,70; 8043,862;  284,429;36219,292;21,59305
 599,28; 8040,537;  296,813;36361,352;21,47185
 599,86; 8039,435;  286,429;36401,068;21,46777
 600,44; 7952,956;  259,121;36511,113;21,22321
 601,02; 7905,764;  309,428;36583,477;20,94152
 601,60; 7887,570;  288,967;36581,955;20,93684
 602,18; 7844,421;  260,967;36646,587;20,84190
 602,75; 7780,180;  258,044;36623,544;20,68481
 603,33; 7738,191;  296,352;36645,520;20,47320
 603,91; 7667,459;  264,044;36615,284;20,36633
 604,49; 7670,830;  286,890;36678,160;20,29041
 605,07; 7620,086;  299,044;36855,161;20,02686
 605,65; 7596,523;  298,352;36857,453;19,96267
 606,23; 7573,188;  352,198;36919,186;19,74729
 606,80; 7537,371;  371,967;36917,299;19,60689
 607,38; 7487,735;  397,736;36983,195;19,37928
 607,96; 7438,119;  448,737;37046,533;19,09782
 608,54; 7442,099;  494,352;37144,670;18,95686
 609,12; 7431,738;  495,890;37068,744;18,96447
 609,70; 7407,585;  516,121;37209,858;18,78104
 610,27; 7340,458;  525,737;37198,868;18,58233
 610,85; 7312,389;  547,275;37267,095;18,42360
 611,43; 7250,920;  532,352;37325,555;18,26035
 612,01; 7167,000;  495,429;37049,020;18,25148
 612,59; 7088,796;  507,582;37110,812;17,97987
 613,16; 7043,464;  476,198;37032,424;17,96484
 613,74; 6993,635;  458,582;36940,426;17,91316
 614,32; 6923,718;  432,352;36958,187;17,77199
 614,90; 6872,042;  404,429;36767,355;17,78628
 615,48; 6742,592;  353,506;36608,174;17,62280
 616,05; 6717,185;  345,198;36442,961;17,65203
 616,63; 6663,163;  355,660;36314,979;17,54066
 617,21; 6583,207;  355,891;36290,669;17,32950
 617,79; 6516,078;  334,660;36184,525;17,24251
 618,36; 6460,277;  348,275;36073,224;17,10850
 618,94; 6321,004;  294,968;35842,409;16,95210
 619,52; 6303,422;  312,275;35522,166;17,01552
 620,10; 6242,990;  293,506;35553,048;16,87340
 620,67; 6203,376;  312,814;35336,347;16,81887
 621,25; 6115,781;  323,890;35166,448;16,62304
 621,83; 6071,716;  307,968;35156,147;16,53960
 622,41; 6064,134;  354,121;35207,230;16,38308
 622,98; 5973,218;  314,429;34947,136;16,33944
 623,56; 5937,381;  323,506;34908,705;16,23202
 624,14; 5857,400;  301,583;34790,615;16,10894
 624,72; 5855,560;  301,660;34705,503;16,14326
 625,29; 5789,902;  291,968;34756,457;15,95246
 625,87; 5808,578;  337,352;34837,231;15,85868
 626,45; 5750,868;  287,583;34537,878;15,95106
 627,02; 5694,449;  297,967;34593,361;15,73530
 627,60; 5642,320;  284,505;34423,962;15,69391
 628,18; 5612,738;  267,044;34534,974;15,59970
 628,76; 5568,801;  274,814;34532,158;15,45358
 629,33; 5594,215;  299,506;34593,022;15,43939
 629,91; 5553,452;  298,352;34596,202;15,32195
 630,49; 5552,702;  291,583;34616,041;15,32761
 631,06; 5504,558;  293,814;34768,072;15,11488
 631,64; 5506,375;  299,045;34820,439;15,08436
 632,22; 5414,805;  260,506;34666,778;14,98069
 632,79; 5454,787;  295,199;34991,453;14,87074
 633,37; 5445,349;  284,275;35015,678;14,85996
 633,95; 5420,269;  281,276;35039,175;14,78511
 634,52; 5400,539;  268,891;35190,506;14,69476
 635,10; 5362,559;  268,198;35175,229;14,59408
 635,68; 5367,132;  268,506;35361,208;14,52902
 636,25; 5361,182;  256,276;35344,339;14,54884
 636,83; 5343,878;  247,122;35544,697;14,43940
 637,41; 5313,850;  265,814;35562,766;14,30162
 637,98; 5347,076;  295,660;35762,758;14,24254
 638,56; 5312,320;  275,276;35837,239;14,16414
 639,13; 5323,580;  259,275;35831,727;14,23659
 639,71; 5351,733;  322,429;36043,761;14,07927
 640,29; 5199,285;  236,506;35850,715;13,93483
 640,86; 5221,400;  263,583;36069,057;13,84653
 641,44; 5210,206;  257,121;36085,707;13,82439
 642,02; 5252,859;  278,045;36048,048;13,90778
 642,59; 5187,974;  258,968;36266,775;13,68871
 643,17; 5194,319;  259,968;36193,270;13,73197
 643,74; 5177,433;  252,121;36194,381;13,70340
 644,32; 5148,701;  274,814;36117,261;13,59809
 644,89; 5113,739;  283,045;36183,449;13,45582
 645,47; 5093,776;  296,891;36196,868;13,36181
 646,05; 5126,583;  276,275;36075,132;13,54878
 646,62; 5091,082;  265,506;36104,320;13,46466
 647,20; 5080,350;  273,968;36276,047;13,35029
 647,77; 5025,849;  246,506;36035,696;13,35415
 648,35; 5017,118;  238,891;36043,038;13,34546
 648,92; 5008,771;  276,121;36050,379;13,22920
 649,50; 4964,270;  240,891;35983,798;13,21487
 650,08; 4958,615;  230,198;35946,140;13,23895
 650,65; 4981,114;  244,275;36039,712;13,23308
 651,23; 5027,536;  220,121;36745,823;13,16173
 651,80; 5126,189;  237,583;37683,165;13,05523
 652,38; 5196,611;  243,814;38092,660;13,08573
 652,95; 5229,802;  231,352;38508,002;13,05875
 653,53; 5247,917;  252,583;38739,728;12,97923
 654,10; 5267,416;  280,198;38903,685;12,91240
 654,68; 5228,222;  238,275;38753,873;12,95565
 655,25; 5220,875;  235,198;38879,907;12,90132
 655,83; 5214,836;  236,352;38977,403;12,85067
 656,40; 5262,335;  265,890;38915,821;12,92743
 656,98; 5206,142;  250,275;38815,932;12,85047
 657,55; 5162,487;  247,967;38672,659;12,79000
 658,13; 5086,447;  247,814;38286,923;12,72016
 658,70; 5091,792;  269,429;38035,342;12,76909
 659,28; 4910,753;  252,429;37316,914;12,56816
 659,85; 4827,175;  252,429;36447,487;12,63915
 660,43; 4801,674;  267,737;36491,752;12,51639
 661,00; 4820,250;  245,660;36550,939;12,60034
 661,58; 4878,441;  248,275;36974,358;12,60730
 662,15; 4897,325;  231,429;37100,700;12,65524
 662,73; 4965,901;  304,044;37354,734;12,58238
 663,30; 4970,862;  244,736;37524,922;12,67731
 663,88; 4972,668;  248,429;37750,802;12,59717
 664,45; 4945,552;  235,506;37858,682;12,51900
 665,03; 5014,974;  252,736;38361,639;12,49639
 665,60; 5133,704;  331,506;38779,135;12,49023
 666,17; 5063,126;  250,506;38898,553;12,45243
 666,75; 5096,317;  239,275;39253,895;12,44929
 667,32; 5165,739;  263,044;39464,698;12,50635
 667,90; 5177,931;  246,890;39756,347;12,48066
 668,47; 5230,199;  265,198;39945,535;12,51250
 669,05; 5252,544;  240,813;40359,877;12,49214
 669,62; 5213,658;  213,198;40359,911;12,45547
 670,19; 5274,773;  229,736;40585,253;12,50148
 670,77; 5290,272;  251,121;40779,671;12,43358
 671,34; 5283,002;  249,736;40614,244;12,46953
 671,92; 5271,116;  228,890;40997,816;12,36782
 672,49; 5280,307;  260,582;40982,850;12,32673
 673,06; 5258,653;  217,813;41101,115;12,32982
 673,64; 5318,536;  232,582;41085,918;12,44930
 674,21; 5274,728;  217,967;41002,568;12,39870
 674,79; 5339,534;  246,736;41187,525;12,43942
 675,36; 5345,649;  259,582;41342,174;12,38010
 675,93; 5328,225;  232,429;41124,900;12,46145
 676,51; 5327,878;  252,967;41300,550;12,36348
 677,08; 5428,453;  256,813;41486,814;12,54339
 677,65; 5448,568;  249,659;41574,925;12,58046
 678,23; 5454,067;  245,967;41732,806;12,55362
 678,80; 5475,797;  230,659;41832,301;12,60801
 679,38; 5528,142;  241,582;41962,950;12,67111
 679,95; 5571,564;  247,044;42179,446;12,69787
 680,52; 5612,294;  234,659;42490,095;12,72649
 681,10; 5703,793;  256,352;42735,129;12,82391
 681,67; 5721,753;  249,121;43149,548;12,75659
 682,24; 5739,406;  230,428;43186,197;12,82477
 682,82; 5851,905;  238,352;43766,462;12,89639
 683,39; 5908,558;  288,275;44063,112;12,83907
 683,96; 5966,134;  240,505;44259,915;13,00705
 684,54; 6006,479;  220,505;44663,795;13,01878
 685,11; 6080,594;  268,813;45022,521;12,98614
 685,68; 6109,247;  240,967;45434,324;12,98483
 686,25; 6155,284;  223,659;45448,743;13,11579
 686,83; 6200,091;  231,198;45624,777;13,14920
 687,40; 6261,744;  218,275;45970,350;13,20917
 687,97; 6320,550;  280,967;46409,537;13,09293
 688,55; 6331,049;  218,736;46411,725;13,23212
 689,12; 6384,318;  205,274;46692,990;13,29178
 689,69; 6458,894;  227,659;46772,870;13,38749
 690,26; 6476,239;  245,044;46844,366;13,37186
 690,84; 6508,199;  249,274;47133,323;13,34980
 691,41; 6559,006;  251,967;47222,664;13,42760
 691,98; 6621,813;  244,967;47439,622;13,51180
 692,56; 6622,312;  233,044;47516,809;13,51260
 693,13; 6730,349;  287,659;47545,766;13,63298
 693,70; 6728,233;  256,274;47684,877;13,64569
 694,27; 6748,732;  243,890;47890,604;13,65224
 694,84; 6779,154;  238,044;47984,253;13,69975
 695,42; 6869,191;  276,582;48083,133;13,79018
 695,99; 6860,460;  238,351;48293,629;13,78019
 696,56; 6850,343;  243,121;48149,124;13,79206
 697,13; 6920,150;  241,197;48488,697;13,84311
 697,71; 6966,341;  225,582;48519,500;13,95778
 698,28; 7008,302;  244,120;48871,380;13,91027
 698,85; 7005,801;  196,659;48863,106;13,99145
 699,42; 7050,608;  214,505;49072,371;13,99182
 699,99; 7129,722;  242,044;49106,405;14,09551
 700,57; 7158,298;  243,428;49142,055;14,14124
 701,14; 7172,259;  231,505;49239,550;14,16248
 701,71; 7243,835;  250,967;49401,815;14,22736
 702,28; 7262,334;  242,351;49536,310;14,24106
 702,85; 7304,217;  245,967;49647,575;14,28749
 703,43; 7352,562;  257,197;49848,763;14,30760
 704,00; 7422,446;  280,582;50070,028;14,34413
 704,57; 7430,483;  247,274;50047,293;14,42411
 705,14; 7489,444;  289,582;50348,250;14,38285
 705,71; 7526,482;  280,582;50303,822;14,48507
 706,28; 7507,211;  253,274;50223,010;14,51666
 706,86; 7638,864;  276,966;50540,890;14,64648
 707,43; 7672,132;  298,351;50541,540;14,67618
 708,00; 7676,555;  284,582;50501,266;14,72015
 708,57; 7690,361;  263,043;50353,838;14,82771
 709,14; 7704,860;  285,966;50567,488;14,75471
 709,71; 7767,359;  264,582;50621,368;14,89924
 710,28; 7851,935;  258,428;50908,556;14,99208
 710,86; 7869,819;  260,351;50935,205;15,01626
 711,43; 7966,703;  282,197;50873,316;15,18944
 712,00; 8043,586;  266,582;51054,350;15,31275
 712,57; 8031,316;  278,659;51204,769;15,22334
 713,14; 8095,584;  255,813;51192,956;15,39107
 713,71; 8162,699;  265,120;51185,606;15,50963
 714,28; 8188,198;  257,197;51191,640;15,57100
 714,85; 8197,312;  239,505;50995,212;15,67865
 715,42; 8266,426;  249,351;51154,477;15,74905
 716,00; 8384,079;  309,120;51281,819;15,84173
 716,57; 8381,578;  250,659;51370,237;15,90569
 717,14; 8434,154;  238,197;51300,656;16,05085
 717,71; 8475,499;  230,659;51458,690;16,09439
 718,28; 8549,999;  268,889;51516,032;16,15916
 718,85; 8582,344;  227,351;51475,758;16,30293
 719,42; 8678,073;  260,889;51744,023;16,34940
 719,99; 8668,111;  224,197;51414,134;16,49526
 720,56; 8750,379;  265,428;51757,552;16,47815
 721,13; 8888,186;  251,735;51795,432;16,75559
 721,70; 8827,531;  232,812;51767,620;16,67750
 722,27; 8898,953;  265,659;51710,962;16,78150
 722,84; 8984,145;  306,889;51891,996;16,82124
 723,41; 8984,567;  236,197;51914,799;16,92842
 723,98; 9046,296;  241,428;52137,295;16,96642
 724,55; 9136,565;  275,351;52288,021;17,03664
 725,12; 9111,448;  207,812;52124,978;17,14970
 725,69; 9286,332;  238,197;52401,166;17,34590
 726,27; 9321,293;  230,812;52349,815;17,44178
 726,84; 9459,638;  249,120;52729,234;17,55049
 727,41; 9495,367;  268,428;52672,729;17,60722
 727,98; 9570,405;  266,043;52998,533;17,64446
 728,55; 9652,827;  287,428;52891,797;17,80346
 729,12; 9680,403;  243,581;53017,524;17,88159
 729,69; 9721,671;  254,658;53168,481;17,89138
 730,26; 9852,247;  274,274;53258,976;18,07687
 730,82; 9890,439;  261,274;53209,857;18,18588
 731,39; 9972,630;  261,581;53284,198;18,31492
 731,96;10080,667;  237,735;53591,617;18,44839
 732,53;10232,628;  247,274;53811,420;18,64186
 733,10;10303,281;  268,504;53949,377;18,69339
 733,67;10342,549;  266,504;54133,257;18,70550
 734,24;10379,356;  250,120;53825,907;18,90637
 734,81;10530,624;  280,197;53907,941;19,11404
 735,38;10484,738;  261,889;53674,436;19,13942
 735,95;10503,776;  266,735;53612,393;19,19002
 736,52;10652,660;  266,504;53784,735;19,40676
 737,09;10587,851;  269,504;53470,384;19,39507
 737,66;10763,504;  307,889;53595,111;19,62124
 738,23;10822,926;  265,043;53768,299;19,73316
 738,80;10971,886;  318,197;53982,333;19,85253
 739,37;10976,539;  279,274;54149,367;19,85752
 739,94;11091,346;  261,581;54157,554;20,09383
 740,51;11195,076;  367,658;54254,204;20,09299
 741,07;11186,959;  261,350;54232,007;20,24361
 741,64;11241,074;  286,504;54400,810;20,24339
 742,21;11282,804;  251,504;54471,152;20,34558
 742,78;11317,841;  234,812;54224,647;20,52799
 743,35;11382,725;  254,427;54522,528;20,50615
 743,92;11540,531;  286,581;54626,946;20,71011
 744,49;11627,954;  289,581;54517,211;20,90885
 745,06;11585,530;  251,812;54451,630;20,91099
 745,63;11656,567;  249,504;54530,587;21,01480
 746,19;11715,297;  251,197;54526,851;21,12199
 746,76;11747,027;  267,273;54505,039;21,16561
 747,33;11832,218;  251,966;54474,919;21,35673
 747,90;11948,717;  281,658;54680,415;21,44729
 748,47;11996,601;  267,658;54590,757;21,59108
 749,04;12034,638;  273,966;54630,714;21,63609
 749,61;12095,060;  298,043;54583,517;21,73144
 750,17;12159,482;  276,658;54671,782;21,84539
 750,74;12222,751;  280,966;54532,585;22,01185
 751,31;12229,096;  246,350;54392,927;22,13020
 751,88;12238,518;  240,581;54357,653;22,17034
 752,45;12427,555;  263,581;54516,610;22,42082
 753,02;12430,747;  274,812;54288,567;22,50526
 753,58;12474,092;  246,043;54164,678;22,67871
 754,15;12536,898;  246,889;54373,251;22,70614
 754,72;12548,090;  246,581;54159,054;22,81756
 755,29;12564,589;  236,043;53881,165;22,98167
 755,86;12700,857;  264,966;54187,891;23,06235
 756,42;12838,895;  272,735;54064,848;23,36060
 756,99;12837,086;  224,273;53975,420;23,46520
 757,56;12868,354;  239,966;53913,455;23,52817
 758,13;12920,930;  201,042;53854,412;23,70753
 758,70;13101,891;  232,966;53871,292;23,99203
 759,26;13124,005;  221,273;53980,710;24,00087
 759,83;13220,889;  229,042;54191,898;24,07554
 760,40;13275,388;  218,581;53906,778;24,31970
 760,97;13300,425;  211,119;54007,966;24,33099
 761,53;13269,386;  198,119;53582,769;24,48507
 762,10;13395,423;  209,581;53551,419;24,71951
 762,67;13450,076;  230,042;53514,530;24,81029
 763,24;13446,806;  184,658;53247,179;24,99344
 763,80;13491,920;  214,427;53340,675;24,99234
 764,37;13593,189;  230,504;53361,093;25,15064
 764,94;13540,149;  208,119;52822,589;25,33909
 765,50;13604,494;  211,965;52946,777;25,39599
 766,07;13700,686;  254,042;52927,195;25,52846
 766,64;13689,954;  224,350;52552,614;25,73295
 767,21;13707,607;  218,965;52491,648;25,80438
 767,77;13833,183;  248,581;52366,682;26,06504
 768,34;13913,836;  242,812;52319,100;26,25192
 768,91;13917,873;  262,735;52172,519;26,30552
 769,47;14046,295;  241,581;52192,476;26,57262
 770,04;14027,563;  247,581;52132,818;26,55858
 770,61;14073,755;  231,658;51836,467;26,82327
 771,18;14130,177;  222,658;51851,347;26,93758
 771,74;14259,599;  246,658;51982,997;27,08530
 772,31;14272,636;  250,119;51604,877;27,30520
 772,88;14322,443;  222,658;51556,680;27,46675
 773,44;14323,019;  222,273;51181,022;27,67090
 774,01;14448,749;  249,196;51415,979;27,75151
 774,58;14424,094;  233,273;50939,090;27,98657
 775,14;14567,362;  227,658;51202,201;28,13111
 775,71;14626,477;  248,042;51110,619;28,26918
 776,27;14677,514;  278,504;51012,346;28,38147
 776,84;14864,090;  313,965;51026,226;28,69153
 777,41;14862,743;  246,504;50938,414;28,83348
 777,97;14804,857;  242,888;50616,140;28,90814
 778,54;14962,510;  243,504;50645,482;29,20323
 779,11;15039,856;  258,657;50606,285;29,35828
 779,67;15102,047;  230,350;50565,857;29,54514
 780,24;15126,469;  239,888;50341,968;29,71250
 780,80;15203,199;  261,657;50384,002;29,81014
 781,37;15308,159;  254,657;50403,267;30,01779
 781,94;15261,889;  253,119;50158,455;30,07448
 782,50;15359,234;  253,965;50067,104;30,32387
 783,07;15396,426;  271,350;50151,600;30,32277
 783,63;15446,078;  233,196;49872,172;30,64705
 784,20;15530,347;  263,657;49880,052;30,76944
 784,77;15543,307;  255,196;49742,240;30,89316
 785,33;15571,268;  234,273;49513,582;31,12259
 785,90;15626,075;  243,273;49440,231;31,26779
 786,46;15679,958;  265,965;49383,727;31,38171
 787,03;15686,226;  234,888;49132,992;31,59905
 787,59;15731,033;  239,350;49034,026;31,74872
 788,16;15865,148;  256,196;48985,906;32,03169
 788,73;15890,493;  250,888;48871,863;32,16637
 789,29;15818,069;  253,042;48540,282;32,23424
 789,86;15832,798;  273,811;48516,469;32,25151
 790,42;15882,913;  242,042;48302,273;32,54431
 790,99;15817,335;  260,427;48008,922;32,58094
 791,55;15955,219;  237,965;47900,725;32,97596
 792,12;16001,256;  276,657;47962,375;32,97549
 792,68;15910,140;  254,503;47577,101;33,08279
 793,25;15894,254;  257,734;47439,366;33,14112
 793,81;15990,984;  312,888;47116,861;33,49736
 794,38;15831,483;  225,350;46937,588;33,40909
 794,94;15926,213;  251,196;46873,237;33,62147
 795,51;16000,250;  260,503;46507,963;34,03375
 796,07;15920,134;  259,119;46349,459;33,97895
 796,64;16021,787;  274,426;46439,262;34,11116
 797,20;15959,670;  255,349;45954,296;34,36473
 797,77;15833,323;  219,657;45690,868;34,33748
 798,33;15815,668;  253,888;45435,595;34,44266
 798,90;15897,783;  275,965;45412,090;34,61045
 799,46;15791,436;  249,042;44974,894;34,75036
 800,03;15773,089;  261,273;44955,543;34,70650
 800,59;15852,511;  267,734;44679,269;35,09173
 801,15;15825,856;  266,119;44432,534;35,22979
 801,72;15807,816;  263,965;44141,568;35,42548
 802,28;15754,239;  291,888;43863,833;35,48694
 802,85;15790,353;  250,196;43600,405;35,84794
 803,41;15812,544;  259,042;43474,132;35,99091
 803,98;15739,966;  235,657;42993,704;36,26056
 804,54;15730,004;  247,042;42791,046;36,39282
 805,11;15710,887;  265,426;42648,464;36,44255
 805,67;15738,771;  273,734;42621,344;36,51927
 806,23;15665,424;  260,195;42224,840;36,71002
 806,80;15699,769;  267,119;42102,182;36,88927
 807,36;15780,653;  278,965;41985,985;37,16805
 807,93;15764,229;  295,426;41694,557;37,36504
 808,49;15670,189;  244,349;41342,053;37,53455
 809,05;15707,996;  235,811;41225,856;37,74620
 809,62;15766,418;  266,042;41166,275;37,89802
 810,18;15738,609;  271,272;41068,693;37,91254
 810,74;15667,878;  224,042;40746,189;38,11209
 811,31;15711,915;  238,118;40570,069;38,36610
 811,87;15656,491;  258,272;40436,872;38,32443
 812,44;15841,606;  289,811;40546,599;38,63148
 813,00;15762,412;  226,349;40155,940;38,90865
 813,56;15872,527;  260,272;40242,051;39,04842
 814,13;15849,410;  250,811;40061,777;39,18166
 814,69;15836,832;  250,426;39945,965;39,26488
 815,25;15705,101;  221,118;39573,230;39,34727
 815,82;15792,984;  264,272;39530,956;39,54679
 816,38;15822,406;  280,657;39299,606;39,83129
 816,94;15695,829;  244,811;38886,178;39,98569
 817,51;15675,712;  227,272;38760,135;40,09160
 818,07;15717,057;  245,118;38539,862;40,40225
 818,63;15619,172;  253,272;38295,049;40,39217
 819,20;15753,671;  253,349;38296,314;40,74425
 819,76;15583,708;  236,272;37903,656;40,74463
 820,32;15620,130;  281,349;37784,228;40,90028
 820,89;15623,706;  267,657;37660,032;41,06733
 821,45;15536,282;  241,580;37324,604;41,24449
 822,01;15549,704;  254,580;37095,177;41,51704
 822,57;15533,588;  250,426;36942,826;41,65212
 823,14;15501,318;  227,580;36796,168;41,76737
 823,70;15451,817;  240,964;36530,817;41,91489
 824,26;15395,085;  250,811;36390,697;41,90460
 824,82;15469,353;  260,503;36265,347;42,24112
 825,39;15404,545;  241,272;36022,457;42,37778
 825,95;15494,044;  254,426;35859,568;42,80173
 826,51;15381,620;  260,810;35522,910;42,88119
 827,08;15465,272;  296,964;35612,790;42,95046
 827,64;15455,541;  261,118;35487,747;43,13334
 828,20;15357,578;  239,580;35122,166;43,33967
 828,76;15433,385;  268,964;35188,892;43,42627
 829,32;15437,730;  276,272;34981,542;43,68633
 829,89;15422,306;  229,272;34848,191;43,88651
 830,45;15516,497;  251,503;34805,840;44,17678
 831,01;15450,996;  255,657;34690,874;44,12732
 831,57;15454,495;  257,118;34537,831;44,33215
 832,14;15536,841;  241,887;34546,942;44,58513
 832,70;15510,186;  234,503;34260,438;44,89423
 833,26;15513,069;  212,887;34083,087;45,17299
 833,82;15578,645;  241,580;34121,660;45,26868
 834,38;15557,144;  233,349;34183,001;45,13683
 834,95;15604,951;  231,041;33988,959;45,54164
 835,51;15516,065;  211,349;33844,300;45,50513
 836,07;15583,565;  246,041;33888,180;45,59021
 836,63;15684,910;  258,656;33850,522;45,92259
 837,19;15645,870;  249,503;33726,556;45,99081
 837,75;15610,523;  209,195;33442,667;46,34282
 838,32;15673,945;  258,041;33587,701;46,25281
 838,88;15749,367;  259,041;33486,197;46,61948
 839,44;15752,097;  246,887;33432,615;46,72252
 840,00;15796,519;  246,349;33356,726;46,96464
 840,56;15673,864;  225,041;33103,299;46,98796
 841,12;15754,440;  222,887;33079,640;47,27051
 841,68;15701,093;  219,733;32875,597;47,40760
 842,25;15780,515;  236,118;32940,862;47,52949
 842,81;15716,091;  217,733;32632,511;47,81263
 843,37;15744,667;  209,349;32700,392;47,81416
 843,93;15798,320;  234,579;32576,503;48,12250
 844,49;15864,281;  247,887;32638,537;48,21266
 845,05;15780,472;  210,964;32443,263;48,30406
 845,61;15926,125;  248,349;32504,758;48,60360
 846,17;15951,008;  225,964;32370,639;48,91959
 846,73;15985,815;  238,195;32263,057;49,17311
 847,29;15916,083;  223,656;32047,553;49,31020
 847,86;15924,506;  226,041;32067,202;49,30243
 848,42;15986,389;  215,733;31826,159;49,89068
 848,98;16018,042;  240,810;31801,424;49,99026
 849,54;16072,003;  222,425;31832,996;50,14012
 850,10;16084,348;  232,502;31676,723;50,41259
 850,66;16045,924;  220,733;31480,757;50,62437
 851,22;16049,115;  224,118;31414,098;50,73744
 851,78;16191,306;  261,964;31578,363;50,86582
 852,34;16128,575;  240,887;31278,320;51,18879
 852,90;16107,689;  223,964;31231,739;51,22498
 853,46;16106,111;  224,887;30953,927;51,68149
 854,02;16126,918;  240,118;31026,961;51,60256
 854,58;16127,109;  231,810;30759,610;52,06828
 855,14;16121,147;  216,964;30743,029;52,10034
 855,70;16044,415;  193,733;30599,063;52,13126
 856,26;16103,375;  237,810;30437,712;52,53516
 856,82;16096,644;  215,502;30324,054;52,74628
 857,38;16097,297;  258,656;30237,626;52,83250
 857,94;16098,334;  243,579;30083,737;53,13228
 858,50;16064,910;  244,502;30073,694;53,03666
 859,06;15983,332;  228,733;29930,113;53,04332
 859,62;16011,754;  241,271;29801,531;53,35028
 860,18;16030,176;  234,502;29588,796;53,81044
 860,74;15966,752;  205,656;29468,676;53,86011
 861,30;15999,482;  205,887;29284,633;54,31319
 861,86;16044,673;  274,041;29379,437;54,18457
 862,42;16024,326;  236,271;29162,471;54,58047
 862,98;16076,825;  256,348;29163,658;54,72829
 863,54;15981,863;  227,502;28876,616;54,99074
 864,10;16053,977;  234,194;29001,265;54,99268
 864,66;15990,092;  216,579;28799,914;55,18430
 865,22;16017,514;  233,194;28585,025;55,67302
 865,78;15998,782;  239,964;28516,752;55,73058
 866,34;16001,512;  221,656;28415,478;55,96920
 866,90;15996,857;  240,425;28320,973;56,11155
 867,45;15913,971;  235,117;28097,546;56,27239
 868,01;15893,470;  235,271;27947,888;56,50206
 868,57;15858,969;  235,502;27802,614;56,67430
 869,13;15900,776;  215,271;27682,725;57,10578
 869,69;15904,121;  222,579;27569,297;57,34342
 870,25;15838,774;  206,348;27467,793;57,34262
 870,81;15854,965;  223,579;27456,596;57,39866
 871,37;15889,926;  235,425;27348,322;57,73821
 871,93;15860,348;  249,040;27184,664;57,95785
 872,49;15723,232;  256,271;27013,160;57,80553
 873,04;15702,731;  228,271;26833,040;58,16423
 873,60;15719,461;  214,579;26649,381;58,65329
 874,16;15718,806;  239,348;26672,877;58,55994
 874,72;15647,267;  233,656;26534,338;58,60537
 875,28;15635,037;  234,579;26443,877;58,75952
 875,84;15629,806;  234,348;26347,569;58,95656
 876,40;15706,575;  231,117;26285,031;59,39782
 876,95;15659,421;  239,117;26397,723;58,94926
 877,51;15658,575;  258,425;26291,569;59,15594
 878,07;15789,113;  264,810;26318,031;59,58689
 878,63;15764,190;  233,040;26292,262;59,59944
 879,19;15847,498;  243,656;26245,262;60,01107
 879,75;15859,960;  229,117;26307,185;59,93865
 880,30;15907,037;  228,502;26332,646;60,06148
 880,86;16115,037;  272,271;26449,569;60,52101
 881,42;16161,421;  226,425;26546,800;60,54244
 881,98;16238,037;  244,194;26562,262;60,77134
 882,54;16372,883;  219,271;26599,877;61,23291
 883,09;16507,729;  242,425;26769,646;61,31552
 883,65;16502,575;  219,579;26777,877;61,31039
 884,21;16752,960;  256,194;27130,338;61,38527
 884,77;16763,652;  218,656;27104,800;61,53726
 885,32;16899,421;  229,887;27285,415;61,61230
 885,88;17068,498;  263,348;27356,031;62,02837
 886,44;17233,267;  237,348;27508,108;62,32287
 887,00;17293,421;  250,117;27509,954;62,52167
 887,56;17433,190;  226,425;27624,338;62,80320
 888,11;17475,037;  235,733;27709,415;62,74843
 888,67;17540,267;  262,502;27831,877;62,67014
 889,23;17617,960;  248,348;27862,108;62,90202
 889,79;17602,037;  219,271;27716,108;63,21733
 890,34;17608,575;  245,348;27647,262;63,36502
 890,90;17804,652;  300,656;27796,338;63,66089
 891,46;17760,806;  225,963;27674,569;63,88245
 892,01;17835,344;  253,963;27663,262;64,14386
 892,57;17756,575;  269,117;27668,338;63,82465
 893,13;17653,267;  228,887;27430,723;64,05590
 893,69;17641,960;  218,194;27336,492;64,25095
 894,24;17608,883;  234,271;27304,492;64,18349
 894,80;17601,267;  237,733;27165,954;64,48081
 895,36;17611,267;  248,579;26965,415;64,98782
 895,91;17583,806;  238,117;26828,185;65,23371
 896,47;17602,267;  246,579;26687,031;65,64066
 897,03;17525,652;  232,040;26525,569;65,77136
 897,58;17477,960;  243,194;26447,646;65,77037
 898,14;17455,421;  248,348;26272,569;66,11945
 898,70;17382,729;  209,425;26179,877;66,12632
 899,25;17454,498;  232,194;26114,954;66,53967
 899,81;17434,883;  250,425;25893,338;67,01445
 900,37;17315,652;  214,656;25744,646;66,98395
 900,92;17363,498;  242,963;25775,262;67,05442
 901,48;17284,344;  232,194;25568,185;67,30406
 902,03;17259,190;  228,425;25457,415;67,50474
 902,59;17162,806;  225,579;25299,031;67,55044
 903,15;17178,113;  256,579;25161,108;67,94561
 903,70;17078,806;  237,117;24939,800;68,17757
 904,26;17057,883;  228,117;24813,646;68,45395
 904,82;17007,037;  241,656;24794,262;68,28351
 905,37;17004,498;  243,194;24693,954;68,55126
 905,93;16912,037;  225,887;24486,569;68,77857
 906,48;16971,729;  246,963;24453,954;69,09064
 907,04;16978,652;  252,194;24380,108;69,32410
 907,60;16927,037;  234,348;24218,262;69,59952
 908,15;16813,729;  232,425;24148,569;69,33101
 908,71;16872,729;  255,733;24069,338;69,77942
 909,26;16713,960;  225,733;23896,108;69,65765
 909,82;16708,806;  254,733;23816,338;69,83426
 910,37;16749,190;  271,271;23729,954;70,24230
 910,93;16678,344;  227,810;23522,415;70,61950
 911,48;16592,883;  229,425;23429,415;70,53217
 912,04;16537,960;  229,425;23388,415;70,41989
 912,60;16592,037;  247,963;23303,954;70,88862
 913,15;16556,267;  238,887;23178,262;71,13263
 913,71;16432,729;  231,733;22948,954;71,31592
 914,26;16442,960;  209,887;22946,262;71,39693
 914,82;16353,037;  235,040;22802,338;71,42191
 915,37;16381,190;  220,348;22777,646;71,64352
 915,93;16377,498;  275,117;22773,569;71,57106
 916,48;16350,190;  227,887;22531,185;72,28664
 917,04;16354,806;  241,656;22381,415;72,77925
 917,59;16313,113;  271,117;22314,569;72,77443
 918,15;16153,113;  208,502;22112,108;72,79446
 918,70;16215,344;  226,963;22023,031;73,35443
 919,26;16212,652;  235,271;22030,262;73,30758
 919,81;16125,806;  209,810;21829,646;73,61756
 920,37;16147,729;  225,733;21741,031;74,00314
 920,92;16073,344;  246,425;21623,185;74,03797
 921,48;16037,113;  215,348;21512,108;74,29189
 922,03;16073,729;  229,040;21410,338;74,80509
 922,59;15941,113;  231,040;21317,338;74,50370
 923,14;15930,729;  222,194;21176,262;74,96652
 923,69;15978,113;  240,194;21132,877;75,32742
 924,25;15935,729;  253,194;21044,415;75,42864
 924,80;15861,113;  226,579;20868,262;75,74254
 925,36;15836,960;  211,117;20797,262;75,90466
 925,91;15781,421;  224,425;20721,262;75,89950
 926,47;15777,729;  202,040;20647,646;76,18111
 927,02;15799,113;  276,579;20512,646;76,70727
 927,57;15703,113;  228,733;20392,800;76,74236
 928,13;15653,806;  218,117;20377,415;76,56858
 928,68;15639,037;  224,194;20252,646;76,96472
 929,24;15554,883;  202,502;20031,723;77,42301
 929,79;15469,344;  217,810;19900,800;77,48586
 930,34;15407,883;  226,425;19804,877;77,54167
 930,90;15449,190;  217,271;19774,800;77,88264
 931,45;15473,575;  244,887;19713,338;78,22239
 932,01;15360,113;  231,117;19565,954;78,24734
 932,56;15329,190;  251,348;19435,800;78,59407
 933,11;15393,960;  251,579;19512,569;78,61683
 933,67;15246,113;  213,502;19313,800;78,70354
 934,22;15265,575;  234,810;19217,723;79,18050
 934,77;15200,267;  255,656;19087,492;79,35823
 935,33;15159,652;  239,425;19034,415;79,38406
 935,88;15089,037;  240,963;18921,108;79,48586
 936,43;15073,575;  230,271;18932,108;79,36816
 936,99;15042,113;  230,502;18751,185;79,97336
 937,54;14927,344;  206,887;18640,338;79,85730
 938,09;14967,883;  236,887;18619,262;80,13652
 938,65;14885,575;  236,656;18427,492;80,52911
 939,20;14882,652;  198,963;18364,569;80,83236
 939,75;14785,883;  214,733;18285,185;80,63523
 940,31;14813,806;  211,887;18130,646;81,48956
 940,86;14845,190;  226,502;18268,877;81,02419
 941,41;14787,498;  304,656;18127,185;81,26143
 941,96;14738,652;  219,040;17919,954;82,02747
 942,52;14683,498;  222,194;17816,492;82,19313
 943,07;14622,806;  211,656;17773,031;82,06163
 943,62;14619,037;  221,194;17692,492;82,40854
 944,18;14611,190;  200,502;17581,338;82,91136
 944,73;14558,498;  230,502;17509,415;82,92186
 945,28;14444,113;  201,271;17347,800;83,06546
 945,83;14497,421;  223,733;17334,569;83,41900
 946,39;14522,575;  221,579;17267,262;83,89805
 946,94;14568,190;  246,194;17123,185;84,86108
 947,49;14466,037;  214,502;17098,723;84,40741
 948,04;14435,037;  254,425;17040,723;84,47730
 948,59;14425,498;  245,348;16976,415;84,75341
 949,15;14387,421;  201,040;16849,031;85,21377
 949,70;14415,729;  215,887;16771,954;85,76821
 950,25;14375,267;  232,579;16707,415;85,84418
 950,80;14276,883;  192,887;16579,646;85,94741
 951,36;14198,575;  195,887;16531,262;85,72003
 951,91;14265,575;  237,502;16589,569;85,78777
 952,46;14129,344;  206,887;16310,492;86,45553
 953,01;14246,421;  243,040;16344,108;86,97175
 953,56;14087,652;  200,656;16269,031;86,42440
 954,11;14134,113;  235,579;16165,723;87,24676
 954,67;14026,960;  221,194;16106,800;86,90739
 955,22;13985,190;  200,348;15992,262;87,29051
 955,77;13990,883;  248,733;15869,108;87,97580
 956,32;13947,575;  271,656;15821,108;87,95113
 956,87;13894,190;  216,194;15694,492;88,36886
 957,42;13890,806;  209,579;15672,954;88,47504
 957,98;13843,344;  213,348;15545,646;88,89728
 958,53;13869,344;  251,656;15550,108;89,01351
 959,08;13779,498;  213,502;15369,954;89,50641
 959,63;13718,344;  212,271;15321,185;89,39143
 960,18;13707,267;  238,656;15256,800;89,68226
 960,73;13729,652;  227,271;15170,108;90,36023
 961,28;13608,652;  208,963;15061,338;90,21916
 961,83;13628,113;  239,117;15030,723;90,51753
 962,39;13574,421;  199,348;14948,031;90,68656
 962,94;13466,883;  235,040;14895,031;90,25819
 963,49;13475,190;  222,733;14785,877;90,99998
 964,04;13457,421;  234,117;14735,646;91,18558
 964,59;13391,729;  203,348;14598,338;91,61785
 965,14;13347,729;  239,733;14495,877;91,94629
 965,69;13250,883;  226,656;14423,108;91,74283
 966,24;13212,960;  221,579;14324,569;92,11792
 966,79;13158,113;  233,502;14256,800;92,16528
 967,34;13051,883;  203,194;14163,338;92,03836
 967,89;13079,575;  216,963;14142,108;92,36968
 968,44;13058,498;  227,040;14020,262;93,02727
 968,99;12978,575;  238,887;13980,492;92,70888
 969,55;12874,113;  234,194;13892,723;92,54232
 970,10;12811,344;  233,348;13798,185;92,72501
 970,65;12756,883;  240,040;13688,492;93,07274
 971,20;12677,190;  216,348;13657,108;92,70936
 971,75;12577,960;  202,117;13495,031;93,10105
 972,30;12584,883;  220,040;13411,723;93,73211
 972,85;12492,037;  209,271;13331,338;93,60389
 973,40;12312,190;  213,887;13211,185;93,08322
 973,95;12340,267;  231,194;13158,954;93,66722
 974,50;12360,960;  246,502;13112,185;94,16102
 975,05;12279,498;  224,040;12960,723;94,65147
 975,60;12240,344;  243,271;12940,185;94,48811
 976,15;12123,498;  216,271;12856,492;94,20110
 976,70;12066,421;  224,733;12813,569;94,06500
 977,25;12060,267;  232,963;12737,338;94,58533
 977,80;11946,267;  216,040;12609,108;94,65152
 978,35;11849,421;  244,194;12436,646;95,18370
 978,89;11816,421;  205,579;12416,723;95,08398
 979,44;11779,498;  224,656;12397,262;94,92497
 979,99;11620,806;  215,348;12183,800;95,29601
 980,54;11641,960;  242,271;12102,185;96,11949
 981,09;11595,960;  246,579;12018,492;96,41067
 981,64;11495,652;  227,963;11855,492;96,90527
 982,19;11437,806;  257,810;11853,108;96,41836
 982,74;11323,267;  238,502;11709,338;96,63432
 983,29;11215,113;  219,810;11567,569;96,89405
 983,84;11167,113;  235,810;11517,877;96,89096
 984,39;11214,960;  297,040;11455,031;97,84844
 984,94;11036,729;  208,117;11331,262;97,35207
 985,49;11004,421;  251,425;11260,108;97,67741
 986,03;10973,421;  250,963;11164,723;98,24715
 986,58;10905,267;  272,117;11078,338;98,39841
 987,13;10778,575;  233,194;10914,569;98,72681
 987,68;10793,652;  238,963;10783,492;100,09635
 988,23;10738,729;  253,579;10731,646;100,06760
 988,78;10546,037;  222,810;10619,108;99,29714
 989,33;10505,037;  251,502;10543,569;99,62561
 989,88;10496,652;  264,963;10469,646;100,26464
 990,42;10329,806;  235,425;10364,415;99,65831
 990,97;10237,113;  228,579;10242,415;99,94705
 991,52;10210,037;  253,656;10198,415;100,11686
 992,07;10140,652;  272,656;10096,338;100,45109
 992,62;10055,883;  241,271; 9974,338;100,83781
 993,17; 9884,344;  257,733; 9848,569;100,37301
 993,71; 9835,037;  250,271; 9817,954;100,17855
 994,26; 9710,498;  230,733; 9626,262;100,89656
 994,81; 9745,344;  258,810; 9635,262;101,17403
 995,36; 9609,806;  228,887; 9457,569;101,64960
 995,91; 9539,190;  237,810; 9411,492;101,39200
 996,45; 9466,498;  240,502; 9291,338;101,93529
 997,00; 9338,883;  216,271; 9174,877;101,83071
 997,55; 9301,037;  238,810; 9163,108;101,54554
 998,10; 9169,729;  257,579; 9031,031;101,58088
 998,65; 9146,729;  228,579; 8961,031;102,12653
 999,19; 8992,806;  255,425; 8856,569;101,58394
 999,74; 8930,883;  267,194; 8783,338;101,73252
1000,29; 8860,421;  249,579; 8710,338;101,77387
1000,84; 8781,960;  238,963; 8544,338;102,86105
1001,38; 8714,498;  240,502; 8451,569;103,20213
1001,93; 8634,575;  249,194; 8414,262;102,69824
1002,48; 8495,498;  218,579; 8240,185;103,18282
1003,03; 8510,421;  250,117; 8217,877;103,67160
1003,57; 8432,037;  239,425; 8132,415;103,79604
1004,12; 8322,267;  271,656; 8023,415;103,85528
1004,67; 8270,037;  232,502; 7896,338;104,87612
1005,22; 8178,498;  219,733; 7790,723;105,12185
1005,76; 8042,729;  218,963; 7644,338;105,36526
1006,31; 8001,113;  246,502; 7624,185;105,10904
1006,86; 7857,190;  233,502; 7478,646;105,22480
1007,40; 7727,113;  216,579; 7400,800;104,54209
1007,95; 7685,498;  235,502; 7289,185;105,61853
1008,50; 7616,267;  244,425; 7210,492;105,82502
1009,04; 7496,037;  231,656; 7102,031;105,73485
1009,59; 7370,190;  243,733; 6969,262;105,96130
1010,14; 7304,037;  221,810; 6848,877;106,86819
1010,68; 7222,344;  233,656; 6776,415;106,81561
1011,23; 7077,190;  229,656; 6692,031;105,96003
1011,78; 7066,113;  249,579; 6658,415;106,36150
1012,32; 6950,037;  255,887; 6525,723;106,76754
1012,87; 6951,806;  259,502; 6550,492;106,37918
1013,42; 6797,498;  222,963; 6384,338;106,70564
1013,96; 6889,267;  265,733; 6379,723;108,33407
1014,51; 6724,498;  194,194; 6280,877;107,28839
1015,06; 6724,883;  204,348; 6287,954;107,18207
1015,60; 6827,498;  271,425; 6351,492;107,82896
1016,15; 6815,575;  229,348; 6284,108;108,77768
1016,69; 6835,806;  236,348; 6322,877;108,42728
1017,24; 6874,498;  214,733; 6312,262;109,22073
1017,79; 6913,267;  264,040; 6395,800;108,43913
1018,33; 6888,344;  224,271; 6389,492;108,09139
1018,88; 7008,575;  246,963; 6421,569;109,50677
1019,42; 6979,190;  231,887; 6428,877;108,88033
1019,97; 7035,806;  223,117; 6424,492;109,85771
1020,51; 7051,421;  257,810; 6518,415;108,51365
1021,06; 7022,652;  227,040; 6444,415;109,30033
1021,61; 7065,344;  202,040; 6436,646;110,08401
1022,15; 7009,498;  193,040; 6387,723;110,03724
1022,70; 7030,960;  231,348; 6428,954;109,71352
1023,24; 7035,190;  218,040; 6360,723;110,98001
1023,79; 6927,344;  225,733; 6285,185;110,59765
1024,33; 6895,421;  238,502; 6243,723;110,85219
1024,88; 6871,575;  237,810; 6147,646;112,24956
1025,42; 6722,960;  227,810; 6068,800;111,19946
1025,97; 6681,113;  222,425; 5988,262;112,01650
1026,51; 6540,267;  185,733; 5866,185;111,86671
1027,06; 6476,037;  216,887; 5799,877;112,11107
1027,60; 6368,113;  230,887; 5729,877;111,60643
1028,15; 6301,883;  239,579; 5657,954;111,88417
1028,69; 6156,960;  197,810; 5499,492;112,40111
1029,24; 6169,037;  205,579; 5504,108;112,54931
1029,78; 6027,267;  220,810; 5407,954;111,93939
1030,33; 5912,421;  204,810; 5274,415;112,58492
1030,87; 5887,190;  217,271; 5212,646;113,50338
1031,42; 5776,421;  210,579; 5106,108;113,69236
1031,96; 5763,960;  233,117; 5087,108;113,94424
1032,51; 5669,190;  210,810; 4997,877;114,02348
1033,05; 5626,729;  221,425; 4939,492;114,56606
1033,60; 5497,267;  193,502; 4842,108;114,09368
1034,14; 5477,498;  217,194; 4740,338;116,29750
1034,69; 5404,037;  217,810; 4734,800;114,81598
1035,23; 5330,190;  223,963; 4670,338;114,84022
1035,77; 5300,806;  206,348; 4589,723;116,22226
1036,32; 5199,883;  202,348; 4498,723;116,31980
1036,86; 5187,037;  223,887; 4455,338;117,29189
1037,41; 5103,037;  235,579; 4392,646;117,08874
1037,95; 5035,729;  202,194; 4299,262;117,97547
1038,50; 4986,575;  213,425; 4267,262;117,74402
1039,04; 4959,113;  234,425; 4237,492;118,02671
1039,58; 4877,498;  195,963; 4155,415;118,23694
1040,13; 4811,498;  223,194; 4076,954;119,06046
1040,67; 4783,267;  252,271; 4112,800;117,36724
1041,21; 4690,960;  254,502; 4004,954;118,29128
1041,76; 4632,498;  203,502; 3916,723;119,27639
1042,30; 4578,113;  213,579; 3875,800;119,17725
1042,85; 4516,037;  214,579; 3803,877;119,84119
1043,39; 4441,652;  204,656; 3776,262;118,63001
1043,93; 4416,652;  242,887; 3720,185;120,02898
1044,48; 4336,190;  232,887; 3651,646;120,02318
1045,02; 4273,113;  228,810; 3589,954;120,32521
1045,56; 4243,344;  236,040; 3571,723;120,13444
1046,11; 4200,037;  223,425; 3528,877;120,30462
1046,65; 4121,498;  226,963; 3464,800;120,28200
1047,19; 4088,652;  219,656; 3415,108;121,07822
1047,74; 4007,806;  205,271; 3355,185;120,71870
1048,28; 3938,960;  237,887; 3336,031;119,46097
1048,82; 3929,652;  243,117; 3300,800;120,56629
1049,37; 3844,421;  236,579; 3249,646;119,73985
1049,91; 3822,960;  228,425; 3218,492;120,21584
1050,45; 3763,267;  236,425; 3167,569;120,32306
1050,99; 3737,190;  230,963; 3094,031;122,46401
1051,54; 3673,652;  212,656; 3051,338;121,92261
1052,08; 3664,498;  250,810; 3051,031;121,90782
1052,62; 3574,190;  245,040; 2967,262;122,29535
1053,16; 3504,421;  220,502; 2939,031;120,79766
1053,71; 3513,960;  231,348; 2928,800;121,69305
1054,25; 3438,729;  250,348; 2871,723;121,63009
1054,79; 3400,960;  236,194; 2834,723;121,79066
1055,33; 3317,960;  205,425; 2745,338;122,54491
1055,88; 3327,190;  227,733; 2742,031;123,27328
1056,42; 3282,037;  248,271; 2701,108;123,68396
1056,96; 3219,806;  240,579; 2691,954;121,53289
1057,50; 3193,960;  231,117; 2631,646;123,42457
1058,05; 3115,575;  230,194; 2593,492;122,09128
1058,59; 3102,113;  261,040; 2549,723;124,13573
1059,13; 3036,883;  220,963; 2494,877;123,83581
1059,67; 3015,498;  243,040; 2494,877;123,11985
1060,21; 2971,960;  227,502; 2447,338;123,63332
1060,76; 2937,960;  240,963; 2425,646;123,45025
1061,30; 2890,652;  260,040; 2402,108;122,80714
1061,84; 2861,883;  229,425; 2340,569;124,69341
1062,38; 2800,421;  224,963; 2288,569;124,80376
1062,92; 2825,575;  266,348; 2291,569;126,36778
1063,46; 2755,960;  242,502; 2226,338;126,69681
1064,01; 2705,883;  221,579; 2198,954;125,63645
1064,55; 2653,037;  237,271; 2185,185;124,01811
1065,09; 2624,652;  209,502; 2115,800;126,69320
1065,63; 2629,190;  256,656; 2158,185;124,76985
1066,17; 2594,883;  264,810; 2132,108;124,78313
1066,71; 2547,498;  244,733; 2082,262;125,31860
1067,25; 2515,113;  235,733; 2033,262;126,80635
1067,80; 2503,113;  249,810; 2043,492;125,62444
1068,34; 2495,113;  265,271; 2001,723;128,41371
1068,88; 2410,498;  232,502; 1952,262;126,64538
1069,42; 2431,421;  263,810; 1965,877;127,35169
1069,96; 2364,960;  228,194; 1935,415;125,16043
1070,50; 2376,344;  274,117; 1929,108;127,02351
1071,04; 2298,037;  226,117; 1859,031;126,88482
1071,58; 2292,883;  233,271; 1835,646;128,53493
1072,12; 2249,729;  241,040; 1829,108;126,48636
1072,66; 2256,498;  227,656; 1794,877;129,45476
1073,21; 2224,883;  263,579; 1804,108;127,31367
1073,75; 2191,037;  238,656; 1770,108;127,48561
1074,29; 2174,190;  239,040; 1763,492;126,94070
1074,83; 2134,806;  255,656; 1743,415;126,30737
1075,37; 2108,267;  259,656; 1720,185;126,57138
1075,91; 2082,883;  253,040; 1706,492;125,89631
1076,45; 2068,113;  243,194; 1687,877;126,31973
1076,99; 2033,037;  248,502; 1652,185;127,13234
1077,53; 1983,960;  221,502; 1613,492;126,61421
1078,07; 2011,113;  246,887; 1641,646;126,48968
1078,61; 1963,806;  244,887; 1574,723;129,25793
1079,15; 1947,037;  236,271; 1582,569;127,07181
1079,69; 1925,344;  237,271; 1560,108;127,61010
1080,23; 1921,344;  266,810; 1560,646;127,87818
1080,77; 1925,883;  285,502; 1570,800;127,62649
1081,31; 1845,729;  228,579; 1496,492;127,54419
1081,85; 1864,498;  243,810; 1501,954;128,81579
1082,39; 1830,037;  232,194; 1446,031;131,63571
1082,93; 1825,113;  250,887; 1446,800;131,63385
1083,47; 1790,575;  234,117; 1421,415;131,09241
1084,01; 1785,267;  253,810; 1440,415;129,06205
1084,55; 1748,037;  233,963; 1397,185;130,16210
1085,09; 1745,113;  255,040; 1391,646;131,09850
1085,63; 1723,037;  245,579; 1357,108;132,92122
1086,17; 1697,421;  233,502; 1338,415;132,49175
1086,71; 1671,806;  231,425; 1309,723;133,57909
1087,24; 1689,113;  266,502; 1353,877;130,82989
1087,78; 1645,652;  255,963; 1318,492;130,79066
1088,32; 1621,344;  226,271; 1264,415;134,38143
1088,86; 1635,113;  255,733; 1294,415;132,80098
1089,40; 1572,037;  243,348; 1259,723;130,72817
1089,94; 1557,806;  225,348; 1232,954;132,23998
1090,48; 1544,652;  257,733; 1234,185;131,79545
1091,02; 1540,344;  253,963; 1229,800;131,82339
1091,56; 1528,575;  252,656; 1207,338;133,64851
1092,10; 1483,575;  228,348; 1182,646;131,53405
1092,63; 1499,960;  257,963; 1209,723;130,49473
1093,17; 1473,498;  256,502; 1174,185;132,61623
1093,71; 1453,037;  238,194; 1144,338;134,06721
1094,25; 1449,267;  257,425; 1153,492;133,00812
1094,79; 1406,498;  248,425; 1127,800;131,69275
1095,33; 1392,267;  256,271; 1120,031;131,51763
1095,87; 1372,806;  251,425; 1102,492;131,76170
1096,40; 1337,113;  223,963; 1088,492;128,75799
1096,94; 1360,267;  242,117; 1075,877;134,10940
1097,48; 1346,421;  252,040; 1080,031;132,17313
1098,02; 1314,498;  245,040; 1037,646;134,92933
1098,56; 1277,037;  212,348; 1026,800;130,72453
1099,10; 1262,113;  227,348; 1004,877;133,08386
1099,63; 1245,806;  233,040;  997,723;132,44257
1100,17; 1238,190;  248,963; 1012,646;129,53376
1100,71; 1268,190;  262,733; 1020,338;132,71516

