
Integration time [ms]: 120,000
Averaging Nr. [scans]: 13
Smoothing Nr. [pixels]: 0
Data measured with spectrometer [name]: 2009305U1
Wave   ;Sample   ;Dark     ;Reference;Reflectance
[nm]   ;[counts] ;[counts] ;[counts] ;[%]

 175,72;  206,546;  214,011;  210,491; 0,00000
 176,32;  231,317;  234,854;  221,035; 0,00000
 176,92;  254,350;  252,010;  252,105; 0,00000
 177,52;  266,035;  257,703;  269,755;69,12845
 178,12;  240,638;  259,162;  226,222; 0,00000
 178,72;  270,363;  267,700;  262,977; 0,00000
 179,32;  250,302;  267,008;  252,990; 0,00000
 179,92;  250,831;  252,086;  260,981;-14,10843
 180,52;  245,451;  237,474;  255,204;44,99191
 181,12;  269,750;  264,779;  246,111; 0,00000
 181,73;  277,129;  271,317;  278,774;77,94393
 182,33;  346,293;  340,858;  349,872;60,29986
 182,93;  275,512;  273,087;  278,576;44,18575
 183,53;  248,403;  244,776;  235,582; 0,00000
 184,13;  253,240;  240,007;  242,458;540,02493
 184,73;  281,549;  276,391;  275,425; 0,00000
 185,33;  262,272;  235,450;  343,179;24,89730
 185,93;  260,840;  251,371;  366,993; 8,18952
 186,53;  273,355;  264,296;  383,324; 7,61077
 187,13;  301,567;  281,913;  402,614;16,28336
 187,73;  266,049;  244,295;  367,374;17,67518
 188,33;  268,397;  247,370;  376,787;16,24748
 188,93;  288,893;  256,828;  379,932;26,04736
 189,53;  291,170;  255,441;  383,528;27,89499
 190,13;  311,701;  286,282;  413,440;19,99045
 190,73;  259,495;  230,670;  367,501;21,06605
 191,34;  295,517;  264,519;  392,473;24,22538
 191,94;  264,840;  250,061;  358,025;13,68813
 192,54;  291,131;  255,069;  412,450;22,91421
 193,14;  278,557;  270,067;  393,208; 6,89428
 193,74;  289,888;  258,913;  388,839;23,84087
 194,34;  282,853;  265,375;  387,456;14,31688
 194,94;  246,034;  225,298;  364,182;14,93096
 195,54;  226,039;  208,066;  338,321;13,79836
 196,14;  258,812;  238,222;  374,307;15,13042
 196,74;  252,050;  230,758;  370,073;15,28353
 197,34;  239,644;  208,454;  361,345;20,39997
 197,94;  266,197;  243,683;  382,730;16,19181
 198,54;  274,951;  244,914;  393,339;20,23694
 199,14;  252,089;  217,916;  394,871;19,31141
 199,74;  235,073;  208,609;  371,590;16,23742
 200,34;  238,728;  197,455;  397,849;20,59590
 200,94;  266,436;  244,838;  422,816;12,13496
 201,54;  257,989;  218,531;  427,054;18,92263
 202,14;  284,392;  237,763;  478,271;19,38756
 202,74;  272,521;  222,455;  491,403;18,61565
 203,34;  239,264;  199,611;  485,145;13,88740
 203,94;  211,003;  171,302;  499,632;12,09177
 204,54;  299,455;  250,990;  582,263;14,62969
 205,14;  261,381;  201,839;  591,288;15,28879
 205,74;  314,758;  250,149;  673,170;15,27324
 206,34;  271,393;  217,610;  685,661;11,49093
 206,94;  289,139;  223,994;  767,684;11,98196
 207,54;  278,688;  195,609;  803,859;13,65859
 208,14;  289,636;  211,917;  871,919;11,77547
 208,74;  307,676;  210,147;  953,332;13,12313
 209,34;  311,378;  211,686; 1030,270;12,17863
 209,94;  324,165;  227,224; 1107,404;11,01373
 210,54;  346,444;  224,456; 1213,557;12,33319
 211,14;  344,505;  219,378; 1305,660;11,51884
 211,73;  362,347;  217,608; 1452,751;11,71838
 212,33;  384,606;  227,377; 1547,098;11,91382
 212,93;  375,862;  212,531; 1631,895;11,50734
 213,53;  361,275;  184,455; 1698,742;11,67681
 214,13;  398,909;  201,765; 1768,735;12,58124
 214,73;  391,315;  205,686; 1818,655;11,50850
 215,33;  387,242;  170,070; 1843,865;12,97479
 215,93;  422,375;  215,533; 1939,797;11,99597
 216,53;  412,187;  171,916; 2008,260;13,08423
 217,13;  490,489;  218,225; 2228,230;13,54543
 217,73;  503,728;  197,226; 2419,695;13,79105
 218,33;  479,611;  167,689; 2608,289;12,78058
 218,93;  561,964;  193,075; 2925,847;13,49870
 219,53;  607,057;  187,919; 3199,315;13,91838
 220,13;  624,523;  160,997; 3492,152;13,91489
 220,73;  699,748;  196,301; 3855,225;13,75941
 221,32;  765,599;  196,224; 4241,486;14,07512
 221,92;  844,326;  194,535; 4611,645;14,71078
 222,52;  877,125;  175,534; 5028,421;14,45720
 223,12;  970,153;  188,611; 5452,883;14,84617
 223,72; 1018,137;  193,149; 5839,909;14,60993
 224,32; 1065,349;  201,457; 6225,846;14,33992
 224,92; 1108,242;  187,995; 6528,218;14,51442
 225,52; 1162,584;  204,225; 6824,864;14,47533
 226,12; 1228,798;  197,995; 7150,236;14,82692
 226,72; 1244,724;  170,610; 7430,639;14,79491
 227,31; 1302,079;  166,918; 7784,703;14,90146
 227,91; 1343,342;  199,224; 8174,074;14,34658
 228,51; 1417,431;  190,762; 8542,716;14,68722
 229,11; 1452,096;  200,610; 8901,221;14,38389
 229,71; 1494,541;  190,147; 9201,856;14,47443
 230,31; 1573,401;  176,996; 9611,594;14,80090
 230,91; 1570,061;  180,376; 9901,870;14,29497
 231,51; 1649,697;  172,918;10149,144;14,80298
 232,10; 1690,719;  179,689;10549,763;14,57106
 232,70; 1744,546;  187,529;10728,456;14,77115
 233,30; 1805,194;  211,687;11067,642;14,67864
 233,90; 1782,625;  185,456;11173,783;14,53514
 234,50; 1813,759;  186,380;11254,406;14,70343
 235,10; 1797,473;  185,611;11410,449;14,35978
 235,70; 1840,420;  196,070;11478,618;14,57428
 236,29; 1852,078;  198,301;11520,004;14,60714
 236,89; 1800,058;  177,761;11422,929;14,42661
 237,49; 1834,783;  191,072;11328,499;14,75845
 238,09; 1772,162;  187,917;11123,585;14,48695
 238,69; 1779,719;  216,068;10997,794;14,50279
 239,29; 1706,397;  181,686;10689,070;14,51086
 239,89; 1652,703;  195,299;10454,865;14,20532
 240,48; 1605,209;  185,225;10118,418;14,29534
 241,08; 1561,647;  193,763; 9742,825;14,32480
 241,68; 1556,299;  213,763; 9520,143;14,42597
 242,28; 1453,181;  178,995; 9134,763;14,22754
 242,88; 1476,201;  227,611; 8920,992;14,36253
 243,48; 1432,107;  223,533; 8575,165;14,47111
 244,07; 1365,927;  203,532; 8415,676;14,15459
 244,67; 1372,526;  202,841; 8270,125;14,49913
 245,27; 1344,808;  220,454; 8104,289;14,26151
 245,87; 1362,436;  209,534; 8052,016;14,70073
 246,47; 1336,608;  203,454; 8026,533;14,48475
 247,06; 1350,536;  192,917; 8066,640;14,70231
 247,66; 1368,452;  189,225; 8140,829;14,83004
 248,26; 1423,281;  214,147; 8246,541;15,05322
 248,86; 1444,268;  204,377; 8416,278;15,09870
 249,46; 1430,175;  163,226; 8637,810;14,94999
 250,05; 1563,780;  200,225; 9001,750;15,49226
 250,65; 1559,813;  180,146; 9283,159;15,15615
 251,25; 1696,617;  186,609; 9749,741;15,78989
 251,85; 1811,427;  200,838;10301,961;15,94466
 252,44; 1909,569;  165,147;10896,011;16,25612
 253,04; 2087,594;  199,916;11586,994;16,57736
 253,64; 2147,417;  155,377;12285,600;16,42213
 254,24; 2388,642;  207,379;13194,570;16,79550
 254,84; 2552,406;  178,226;14003,964;17,17218
 255,43; 2737,859;  184,455;14937,800;17,30729
 256,03; 2935,445;  188,992;15838,293;17,55001
 256,63; 3137,104;  193,992;16841,839;17,67864
 257,23; 3341,702;  186,761;17628,321;18,08864
 257,82; 3562,616;  195,299;18538,267;18,35754
 258,42; 3686,535;  162,990;19328,589;18,38474
 259,02; 3938,518;  209,301;20139,462;18,71142
 259,62; 4089,465;  180,221;20731,471;19,02193
 260,21; 4193,815;  194,685;21289,210;18,95814
 260,81; 4319,984;  184,071;21702,030;19,22075
 261,41; 4470,112;  174,606;22078,227;19,61094
 262,01; 4607,381;  221,682;22455,243;19,72558
 262,60; 4674,318;  173,146;22837,551;19,86009
 263,20; 4762,348;  180,300;23017,834;20,06367
 263,80; 4854,536;  212,297;23269,479;20,13359
 264,40; 4886,608;  179,605;23417,988;20,25529
 264,99; 4952,046;  197,605;23557,247;20,35323
 265,59; 5018,954;  173,065;23634,504;20,65470
 266,19; 5068,674;  175,220;23791,813;20,72040
 266,78; 5149,968;  219,527;23890,966;20,82865
 267,38; 5158,639;  190,604;23883,007;20,96890
 267,98; 5177,397;  178,373;23945,249;21,03357
 268,58; 5208,224;  196,219;23961,147;21,08992
 269,17; 5184,217;  181,526;23839,644;21,14577
 269,77; 5175,589;  194,607;23667,926;21,21976
 270,37; 5130,817;  171,759;23642,100;21,12904
 270,96; 5196,447;  220,837;23534,837;21,34173
 271,56; 5062,843;  185,069;23236,441;21,16045
 272,16; 5009,022;  179,683;23018,809;21,14503
 272,75; 5005,313;  201,914;22979,060;21,08868
 273,35; 4978,952;  197,760;22937,037;21,02614
 273,95; 4979,758;  193,144;22835,086;21,14047
 274,54; 4995,935;  178,456;22986,372;21,12196
 275,14; 5020,519;  202,453;23256,121;20,89935
 275,74; 5042,299;  173,606;23292,559;21,05931
 276,33; 5153,236;  226,684;23662,406;21,02155
 276,93; 5204,851;  196,687;23913,182;21,11680
 277,53; 5326,985;  199,608;24534,799;21,06980
 278,12; 5421,653;  170,454;25029,700;21,12373
 278,72; 5593,249;  220,070;25611,676;21,16124
 279,32; 5662,898;  187,070;26204,399;21,04685
 279,91; 5771,366;  181,377;26885,050;20,93341
 280,51; 5939,014;  188,224;27319,345;21,19629
 281,11; 6110,413;  188,762;28027,807;21,27103
 281,70; 6232,016;  172,300;28516,318;21,37917
 282,30; 6318,536;  167,761;29008,980;21,32633
 282,90; 6486,182;  183,530;29518,614;21,48503
 283,49; 6643,089;  205,760;29882,679;21,69137
 284,09; 6809,403;  215,684;30373,638;21,86395
 284,69; 6943,638;  211,147;30792,239;22,01521
 285,28; 7040,343;  202,300;31094,996;22,13482
 285,88; 7179,131;  247,452;31228,136;22,37420
 286,47; 7281,968;  203,684;31397,204;22,69152
 287,07; 7378,684;  224,916;31454,989;22,90666
 287,67; 7513,645;  212,456;31525,935;23,31644
 288,26; 7637,054;  191,070;31458,104;23,81417
 288,86; 7808,064;  185,915;31527,080;24,31993
 289,46; 7984,642;  194,608;31602,333;24,80292
 290,05; 8184,634;  179,994;31644,792;25,43999
 290,65; 8399,725;  188,530;31961,330;25,84347
 291,24; 8581,050;  197,531;32071,772;26,30186
 291,84; 8856,027;  210,376;32187,916;27,03664
 292,44; 9022,119;  197,687;32306,192;27,48316
 293,03; 9316,189;  256,993;32436,881;28,15173
 293,63; 9468,844;  192,530;32589,832;28,63298
 294,22; 9654,197;  223,916;32787,544;28,95955
 294,82; 9792,560;  189,298;32749,534;29,49384
 295,41; 9796,709;  178,377;32409,549;29,84171
 296,01; 9906,119;  233,298;32385,570;30,08441
 296,61; 9915,359;  208,916;32144,624;30,39370
 297,20; 9831,393;  197,375;31749,385;30,53377
 297,80; 9821,458;  208,763;31707,096;30,51811
 298,39; 9718,043;  181,530;31272,269;30,67316
 298,99; 9700,170;  218,914;31171,619;30,63143
 299,58; 9656,466;  210,610;31033,330;30,64576
 300,18; 9606,462;  220,225;30806,427;30,68782
 300,78; 9472,813;  199,378;30449,890;30,65546
 301,37; 9473,159;  207,451;30432,521;30,65571
 301,97; 9437,227;  206,454;30430,936;30,54071
 302,56; 9385,878;  188,992;30386,632;30,45565
 303,16; 9320,869;  176,837;30333,084;30,32218
 303,75; 9309,362;  193,763;30285,065;30,29314
 304,35; 9311,693;  186,380;30508,043;30,09503
 304,94; 9311,640;  203,993;30569,558;29,99334
 305,54; 9247,138;  216,608;30541,178;29,77958
 306,13; 9104,137;  174,611;30450,525;29,49383
 306,73; 9084,073;  178,225;30252,904;29,61245
 307,33; 9022,032;  199,994;30222,023;29,38521
 307,92; 8992,527;  201,916;30257,048;29,24829
 308,52; 9004,041;  169,760;30726,910;28,91068
 309,11; 9129,445;  184,221;31172,556;28,86642
 309,71; 9142,166;  163,374;31424,518;28,72189
 310,30; 9128,929;  177,224;31627,643;28,46291
 310,90; 9187,390;  210,300;32022,412;28,21909
 311,49; 9157,839;  194,839;32175,456;28,02635
 312,09; 9085,877;  164,994;32204,056;27,84377
 312,68; 9235,198;  252,685;32703,819;27,68012
 313,28; 9086,219;  169,993;32749,894;27,36726
 313,87; 9089,653;  163,916;32908,745;27,25846
 314,47; 9098,947;  188,298;33239,584;26,96007
 315,06; 9015,910;  169,839;33319,657;26,68513
 315,66; 9022,339;  182,455;33472,056;26,55449
 316,25; 8908,805;  167,299;33362,117;26,33395
 316,85; 8837,646;  169,532;33522,281;25,98920
 317,44; 8761,058;  180,990;33591,852;25,68047
 318,04; 8723,905;  168,299;33530,704;25,64445
 318,63; 8602,781;  172,149;33780,949;25,08460
 319,22; 8572,726;  199,991;33815,029;24,90771
 319,82; 8539,636;  180,300;33826,265;24,84499
 320,41; 8392,247;  206,684;33832,818;24,34286
 321,01; 8311,804;  198,763;34009,304;23,99560
 321,60; 8250,435;  187,454;34014,887;23,83563
 322,20; 8153,940;  179,839;33994,132;23,58204
 322,79; 8080,002;  219,685;34137,856;23,17435
 323,39; 7989,219;  198,610;34160,862;22,93902
 323,98; 7901,445;  167,839;34069,793;22,81168
 324,58; 7803,133;  176,760;34045,955;22,51713
 325,17; 7650,388;  186,914;33877,862;22,15276
 325,76; 7608,716;  211,223;33732,398;22,06812
 326,36; 7479,297;  165,994;33385,708;22,01495
 326,95; 7324,725;  212,531;33068,215;21,64677
 327,55; 7171,776;  180,915;32656,611;21,52644
 328,14; 6996,655;  180,686;32347,296;21,18958
 328,74; 6899,356;  212,915;32037,375;21,01038
 329,33; 6764,821;  201,378;31622,900;20,88837
 329,92; 6557,474;  174,067;31077,948;20,65568
 330,52; 6393,730;  195,994;30413,899;20,51014
 331,11; 6221,681;  191,531;30040,471;20,20222
 331,71; 6071,443;  182,839;29481,743;20,09838
 332,30; 5962,871;  202,300;28987,558;20,01223
 332,89; 5848,654;  234,224;28535,328;19,83820
 333,49; 5652,586;  190,300;28010,722;19,63409
 334,08; 5552,838;  191,915;27613,335;19,55013
 334,68; 5430,114;  195,223;27126,085;19,43826
 335,27; 5309,017;  211,533;26843,055;19,14079
 335,86; 5244,604;  231,915;26509,548;19,07588
 336,46; 5129,277;  202,764;26375,601;18,82300
 337,05; 5051,189;  182,838;26198,842;18,71291
 337,65; 4984,591;  171,300;26069,592;18,58536
 338,24; 4986,631;  225,916;25957,889;18,50116
 338,83; 4918,491;  211,609;25960,928;18,27964
 339,43; 4888,373;  173,607;25897,586;18,32829
 340,02; 4845,746;  182,760;25765,097;18,22736
 340,61; 4820,741;  182,839;25888,382;18,04242
 341,21; 4830,202;  219,838;25863,991;17,97823
 341,80; 4789,192;  185,684;25785,399;17,98265
 342,40; 4790,436;  197,148;25992,092;17,80693
 342,99; 4761,347;  194,993;25933,790;17,74113
 343,58; 4802,513;  187,301;26161,746;17,76828
 344,18; 4804,326;  198,532;26237,792;17,68788
 344,77; 4835,623;  182,683;26542,732;17,65149
 345,36; 4868,264;  170,069;26864,292;17,60004
 345,96; 4987,851;  210,301;27234,220;17,67897
 346,55; 5009,403;  174,918;27441,869;17,73020
 347,14; 5033,866;  161,840;27771,304;17,64622
 347,74; 5104,128;  156,458;28145,362;17,67726
 348,33; 5240,040;  186,689;28707,341;17,71822
 348,92; 5368,051;  195,920;29365,093;17,73150
 349,52; 5424,799;  165,920;29764,897;17,76710
 350,11; 5472,042;  184,606;30038,993;17,71075
 350,70; 5498,234;  177,147;30054,247;17,80992
 351,29; 5445,476;  169,681;29940,415;17,72141
 351,89; 5493,968;  203,913;29866,511;17,83409
 352,48; 5460,266;  165,916;29935,189;17,78461
 353,07; 5523,108;  194,148;29823,556;17,98537
 353,67; 5469,263;  200,997;29713,261;17,85111
 354,26; 5446,266;  198,917;29488,810;17,91522
 354,85; 5427,999;  193,302;29422,646;17,90905
 355,45; 5424,734;  174,684;29183,647;18,09803
 356,04; 5388,382;  173,533;29054,525;18,05634
 356,63; 5407,985;  210,915;28904,684;18,11219
 357,22; 5409,002;  193,605;28869,734;18,18724
 357,82; 5385,007;  193,759;28557,879;18,30217
 358,41; 5401,056;  207,762;28547,116;18,32538
 359,00; 5355,158;  174,607;28296,092;18,42204
 359,60; 5385,154;  194,608;28288,921;18,47543
 360,19; 5396,871;  201,687;28002,597;18,68710
 360,78; 5379,253;  194,530;27936,809;18,68888
 361,37; 5376,160;  194,300;27711,758;18,83117
 361,97; 5310,567;  197,377;27527,653;18,70888
 362,56; 5328,658;  180,299;27236,461;19,02842
 363,15; 5348,193;  225,838;27027,789;19,11187
 363,74; 5286,945;  192,529;26720,347;19,20405
 364,34; 5323,005;  213,530;26316,252;19,57449
 364,93; 5184,200;  189,222;25886,940;19,43744
 365,52; 5127,373;  160,223;25558,163;19,55729
 366,11; 5159,173;  190,530;25238,522;19,83649
 366,71; 5126,957;  190,530;24836,259;20,02954
 367,30; 5057,464;  195,992;24520,356;19,98602
 367,89; 5099,692;  231,994;24276,421;20,24460
 368,48; 5020,451;  191,914;24039,399;20,24758
 369,07; 4991,234;  199,147;23550,247;20,52189
 369,67; 4955,878;  215,375;23316,747;20,52044
 370,26; 4944,586;  192,070;22970,222;20,86436
 370,85; 4885,281;  194,300;22808,426;20,74359
 371,44; 4878,014;  193,531;22547,537;20,95590
 372,03; 4877,866;  169,684;22257,143;21,31609
 372,63; 4846,570;  163,069;21982,440;21,46488
 373,22; 4855,221;  177,531;21741,752;21,69190
 373,81; 4783,420;  160,300;21415,612;21,75042
 374,40; 4807,055;  171,148;21239,725;22,00389
 374,99; 4753,271;  172,992;20929,180;22,06705
 375,59; 4724,627;  176,917;20639,602;22,22440
 376,18; 4776,177;  211,607;20573,354;22,41738
 376,77; 4760,504;  199,531;20440,307;22,53359
 377,36; 4811,851;  214,838;20258,752;22,93470
 377,95; 4776,386;  205,299;20033,619;23,05332
 378,55; 4759,804;  179,917;19882,074;23,24561
 379,14; 4775,605;  196,146;19750,092;23,41961
 379,73; 4765,507;  194,299;19681,440;23,45756
 380,32; 4832,813;  198,762;19774,467;23,67246
 380,91; 4831,695;  174,606;19592,048;23,98405
 381,50; 4881,027;  192,376;19510,641;24,27056
 382,10; 4870,044;  174,916;19439,929;24,37127
 382,69; 4878,021;  156,531;19346,111;24,60445
 383,28; 4956,069;  211,299;19309,219;24,84443
 383,87; 4886,961;  187,684;19220,437;24,69048
 384,46; 4949,375;  181,451;19105,130;25,19554
 385,05; 4967,319;  212,453;19159,596;25,09543
 385,64; 5015,788;  187,299;19117,061;25,50739
 386,24; 5032,484;  162,682;19102,309;25,71224
 386,83; 5133,581;  206,220;19170,224;25,98270
 387,42; 5142,525;  205,684;19213,959;25,97206
 388,01; 5250,006;  203,835;19424,021;26,25454
 388,60; 5362,509;  190,682;19714,984;26,48918
 389,19; 5457,946;  179,294;19877,154;26,79810
 389,78; 5559,031;  180,756;20081,850;27,02502
 390,37; 5754,221;  237,989;20500,938;27,22324
 390,96; 5793,070;  194,067;20605,686;27,43047
 391,56; 5859,096;  186,602;20828,246;27,48083
 392,15; 5971,378;  180,295;21066,263;27,72715
 392,74; 6045,802;  160,599;21195,009;27,97893
 393,33; 6179,316;  190,294;21529,532;28,06577
 393,92; 6341,778;  195,445;21971,070;28,22575
 394,51; 6397,748;  171,678;22011,525;28,50785
 395,10; 6495,043;  212,980;22320,561;28,41588
 395,69; 6568,126;  197,980;22370,861;28,72944
 396,28; 6663,191;  206,671;22541,372;28,90802
 396,87; 6742,235;  206,976;22536,878;29,26685
 397,46; 6772,905;  212,051;22681,522;29,19897
 398,06; 6934,339;  215,202;22883,559;29,64104
 398,65; 6963,115;  205,812;22987,241;29,66145
 399,24; 7065,845;  214,965;23177,174;29,83545
 399,83; 7082,556;  181,341;23191,498;29,99204
 400,42; 7186,141;  227,642;23303,087;30,15543
 401,01; 7228,919;  208,095;23360,851;30,32392
 401,60; 7291,005;  213,699;23426,923;30,48825
 402,19; 7358,719;  236,228;23302,605;30,87824
 402,78; 7376,722;  237,521;23374,864;30,85575
 403,37; 7348,771;  229,585;23262,227;30,90912
 403,96; 7383,698;  229,339;23087,261;31,29925
 404,55; 7385,355;  222,244;23012,735;31,43026
 405,14; 7368,025;  210,382;22907,620;31,53530
 405,73; 7370,890;  225,825;22750,232;31,72143
 406,32; 7402,720;  236,505;22705,050;31,89444
 406,91; 7360,992;  232,721;22386,749;32,17596
 407,50; 7336,238;  221,867;22256,863;32,28669
 408,09; 7325,132;  206,708;22011,041;32,64683
 408,68; 7314,918;  221,012;21957,970;32,63523
 409,27; 7308,771;  202,556;21688,442;33,07388
 409,86; 7277,829;  219,259;21532,125;33,11882
 410,45; 7318,062;  239,038;21510,112;33,28005
 411,04; 7305,782;  249,971;21493,166;33,21445
 411,63; 7237,595;  245,060;21150,964;33,44765
 412,22; 7225,155;  233,610;20948,065;33,75201
 412,81; 7178,779;  252,076;20697,197;33,87949
 413,40; 7131,502;  255,158;20348,179;34,22255
 413,99; 7077,889;  301,233;20118,113;34,19638
 414,58; 6940,313;  221,080;19696,334;34,50139
 415,17; 6904,071;  233,922;19499,762;34,62164
 415,76; 6858,933;  227,841;19327,113;34,71909
 416,35; 6814,594;  215,843;19197,441;34,76394
 416,94; 6880,128;  249,072;19219,494;34,95471
 417,53; 6977,725;  220,076;19349,245;35,32641
 418,12; 7016,150;  219,539;19529,697;35,19708
 418,71; 7227,483;  247,081;19865,270;35,58128
 419,30; 7276,203;  222,078;19975,758;35,71043
 419,89; 7355,599;  222,463;20130,901;35,82971
 420,48; 7477,790;  254,158;20399,802;35,85704
 421,07; 7566,525;  249,236;20499,272;36,13470
 421,66; 7553,844;  219,931;20508,953;36,14720
 422,25; 7580,858;  231,397;20479,076;36,29780
 422,84; 7562,146;  245,705;20448,585;36,21484
 423,43; 7548,080;  227,934;20130,868;36,77923
 424,02; 7501,046;  251,627;19882,953;36,92781
 424,60; 7371,286;  231,094;19474,399;37,10481
 425,19; 7277,237;  240,168;19222,393;37,07189
 425,78; 7300,123;  251,399;19095,114;37,40623
 426,37; 7272,498;  256,632;19052,522;37,32659
 426,96; 7246,097;  233,709;18995,471;37,37595
 427,55; 7216,833;  230,174;18799,755;37,62421
 428,14; 7149,327;  231,021;18600,632;37,66169
 428,73; 7124,719;  244,711;18385,860;37,92488
 429,32; 7175,904;  256,093;18374,449;38,19227
 429,91; 7187,547;  273,096;18409,951;38,12376
 430,50; 7118,452;  254,020;18227,048;38,19296
 431,08; 7106,789;  268,714;18036,209;38,48643
 431,67; 7056,604;  305,793;18056,735;38,03072
 432,26; 7072,129;  316,563;17833,318;38,56631
 432,85; 6943,877;  337,486;17562,660;38,35312
 433,44; 6805,280;  356,873;17172,839;38,34693
 434,03; 6689,205;  354,491;16845,627;38,41284
 434,62; 6544,199;  324,642;16417,436;38,64809
 435,21; 6528,241;  327,794;16185,278;39,10108
 435,79; 6470,073;  324,413;16105,592;38,94297
 436,38; 6440,047;  311,493;15987,757;39,09448
 436,97; 6410,685;  318,493;15888,959;39,12658
 437,56; 6368,044;  320,113;15697,521;39,32998
 438,15; 6348,805;  304,650;15652,858;39,38020
 438,74; 6337,719;  311,727;15625,964;39,34895
 439,33; 6382,070;  289,957;15635,812;39,69875
 439,91; 6399,985;  247,344;15693,001;39,83411
 440,50; 6445,027;  291,344;15760,426;39,78053
 441,09; 6470,778;  299,423;15826,024;39,74698
 441,68; 6479,358;  276,041;15843,795;39,84722
 442,27; 6487,810;  259,271;15816,972;40,03509
 442,86; 6479,917;  242,507;15760,416;40,19492
 443,44; 6519,016;  257,121;15863,457;40,12405
 444,03; 6594,377;  317,353;15933,096;40,19677
 444,62; 6551,669;  252,969;15771,282;40,58882
 445,21; 6452,298;  258,968;15603,276;40,36239
 445,80; 6477,792;  285,817;15537,769;40,59792
 446,39; 6369,772;  306,893;15259,887;40,54625
 446,97; 6279,797;  248,973;15117,031;40,56228
 447,56; 6219,870;  258,822;14881,744;40,76509
 448,15; 6149,029;  257,358;14708,575;40,76937
 448,74; 6095,622;  277,435;14532,033;40,81621
 449,33; 6026,002;  259,591;14381,855;40,83206
 449,91; 5950,128;  268,363;14127,784;40,99569
 450,50; 5883,309;  256,901;13936,125;41,13105
 451,09; 5805,948;  274,670;13823,256;40,82550
 451,68; 5838,909;  276,441;13806,388;41,11227
 452,26; 5809,530;  285,673;13669,188;41,27359
 452,85; 5735,376;  274,672;13602,072;40,97351
 453,44; 5787,206;  276,214;13548,990;41,52102
 454,03; 5771,759;  246,673;13497,682;41,69559
 454,61; 5741,893;  250,984;13505,037;41,42815
 455,20; 5834,236;  275,293;13698,541;41,41280
 455,79; 5856,329;  277,983;13652,470;41,70886
 456,38; 5855,240;  274,910;13745,297;41,42665
 456,97; 5936,114;  262,832;13788,874;41,94340
 457,55; 5901,250;  260,449;13837,587;41,54632
 458,14; 5943,017;  294,293;13814,915;41,77858
 458,73; 5923,168;  281,680;13714,557;41,99761
 459,31; 5962,290;  296,529;13813,654;41,91543
 459,90; 5978,500;  290,758;13818,272;42,04573
 460,49; 6055,946;  351,450;13955,721;41,93165
 461,08; 6046,066;  263,068;14026,081;42,01840
 461,66; 6103,215;  271,067;14062,666;42,28768
 462,25; 6133,153;  279,377;14116,827;42,30386
 462,84; 6195,445;  303,915;14197,590;42,40441
 463,43; 6102,008;  242,072;14152,035;42,12762
 464,01; 6169,047;  276,304;14173,250;42,40315
 464,60; 6191,764;  317,302;14104,271;42,60880
 465,19; 6031,310;  248,458;13829,929;42,57898
 465,77; 6025,700;  276,152;13818,651;42,45559
 466,36; 5995,792;  298,995;13807,157;42,17300
 466,95; 5880,140;  269,303;13465,801;42,51762
 467,53; 5785,086;  265,999;13120,818;42,93399
 468,12; 5654,740;  303,077;12935,455;42,36466
 468,71; 5568,181;  289,766;12720,528;42,46252
 469,29; 5454,965;  261,769;12462,573;42,56437
 469,88; 5353,190;  272,001;12264,044;42,37133
 470,47; 5468,823;  337,696;12320,684;42,82010
 471,06; 5425,144;  282,619;12328,948;42,68956
 471,64; 5426,802;  297,772;12438,032;42,24811
 472,23; 5442,191;  267,468;12412,909;42,60630
 472,81; 5503,925;  255,697;12530,520;42,75604
 473,40; 5614,928;  275,007;12617,038;43,26614
 473,99; 5715,882;  351,776;12868,974;42,85388
 474,57; 5661,377;  274,930;12922,774;42,58786
 475,16; 5767,255;  282,390;13021,408;43,05563
 475,75; 5797,897;  299,162;13219,026;42,56032
 476,33; 5853,555;  311,472;13281,143;42,73110
 476,92; 5889,859;  302,623;13358,503;42,79478
 477,51; 5906,924;  308,932;13445,136;42,61499
 478,09; 5926,446;  294,240;13419,778;42,91029
 478,68; 5885,940;  304,164;13362,918;42,74356
 479,27; 5967,049;  322,162;13398,552;43,16854
 479,85; 5892,327;  291,010;13395,238;42,74435
 480,44; 5920,125;  280,934;13514,284;42,61349
 481,02; 6535,757;  299,166;14890,258;42,74245
 481,61; 7296,370;  328,627;16791,592;42,32374
 482,20; 7845,679;  307,320;17952,021;42,72307
 482,78; 8141,286;  336,164;18747,165;42,39379
 483,37; 8331,678;  331,168;19181,214;42,44292
 483,95; 8461,392;  360,861;19498,872;42,32692
 484,54; 8558,529;  368,858;19706,929;42,34999
 485,13; 8529,907;  336,709;19610,632;42,50924
 485,71; 8364,029;  324,785;19346,645;42,26318
 486,30; 8323,859;  362,016;19083,825;42,52710
 486,88; 8190,033;  393,094;18700,169;42,58976
 487,47; 7874,746;  374,325;18071,129;42,38291
 488,05; 7527,713;  352,480;17169,758;42,66584
 488,64; 6984,631;  351,866;15953,196;42,51410
 489,23; 6256,980;  361,172;14158,845;42,73045
 489,81; 5385,339;  357,173;12161,741;42,59509
 490,40; 5121,085;  314,096;11526,192;42,87324
 490,98; 5010,224;  298,174;11308,263;42,79756
 491,57; 4960,314;  340,942;11203,911;42,52403
 492,15; 4922,033;  309,097;11135,984;42,60630
 492,74; 4843,402;  307,095;11077,048;42,12003
 493,32; 4835,550;  325,097;10976,864;42,34464
 493,91; 4751,954;  310,714;10834,780;42,20080
 494,50; 4776,291;  298,255;10840,332;42,47774
 495,08; 4731,309;  300,255;10785,164;42,26126
 495,67; 4729,805;  309,021;10786,502;42,19320
 496,25; 4660,970;  268,254;10615,216;42,45416
 496,84; 4659,531;  276,790;10577,609;42,54750
 497,42; 4614,911;  260,869;10584,471;42,17561
 498,01; 4603,016;  288,944;10561,658;41,99544
 498,59; 4563,136;  253,793;10434,210;42,32973
 499,18; 4549,304;  263,791;10398,051;42,28738
 499,76; 4559,045;  288,869;10342,133;42,47552
 500,35; 4451,244;  285,871;10129,230;42,31658
 500,93; 4449,513;  261,869;10119,745;42,48019
 501,52; 4384,368;  253,254;10037,370;42,22266
 502,10; 4357,080;  277,026;10058,292;41,71295
 502,69; 4293,212;  264,873; 9867,788;41,94913
 503,27; 4208,996;  246,717; 9738,365;41,74491
 503,86; 4199,560;  262,258; 9683,778;41,79052
 504,44; 4125,631;  239,797; 9545,710;41,75662
 505,03; 4043,416;  237,182; 9315,293;41,92760
 505,61; 3961,717;  246,643; 9187,757;41,55046
 506,19; 3948,049;  269,259; 9027,042;42,00595
 506,78; 3814,525;  232,415; 8888,742;41,38141
 507,36; 3781,250;  244,105; 8713,035;41,76614
 507,95; 3721,643;  242,108; 8589,276;41,68521
 508,53; 3664,434;  244,184; 8456,010;41,65029
 509,12; 3592,911;  255,415; 8346,177;41,25070
 509,70; 3536,285;  271,031; 8164,040;41,36893
 510,29; 3508,093;  265,109; 8054,871;41,63136
 510,87; 3408,173;  235,184; 7870,536;41,55655
 511,46; 3335,624;  239,954; 7731,482;41,32228
 512,04; 3296,077;  252,032; 7561,320;41,64626
 512,62; 3224,916;  255,184; 7416,354;41,46992
 513,21; 3120,029;  240,571; 7270,673;40,95898
 513,79; 3093,265;  235,805; 7148,133;41,33861
 514,38; 2990,721;  213,958; 7017,481;40,81360
 514,96; 3002,110;  262,881; 6925,351;41,11431
 515,54; 2926,417;  226,112; 6757,621;41,34275
 516,13; 2888,074;  249,805; 6727,193;40,73044
 516,71; 2809,121;  239,729; 6619,494;40,27408
 517,30; 2757,372;  237,884; 6475,415;40,39239
 517,88; 2717,005;  259,423; 6415,318;39,92241
 518,46; 2687,530;  239,192; 6278,555;40,53967
 519,05; 2647,571;  246,270; 6242,089;40,04959
 519,63; 2642,443;  253,731; 6210,271;40,10235
 520,22; 2618,015;  264,118; 6145,802;40,02080
 520,80; 2582,688;  241,657; 6089,502;40,03236
 521,38; 2576,998;  270,117; 6038,283;39,99332
 521,97; 2539,498;  249,504; 5990,268;39,89006
 522,55; 2547,837;  262,042; 6003,363;39,81304
 523,13; 2509,651;  218,197; 5979,922;39,77029
 523,72; 2523,009;  237,962; 5996,919;39,67814
 524,30; 2565,894;  265,121; 6118,603;39,30606
 524,89; 2538,324;  226,966; 6066,737;39,57961
 525,47; 2597,439;  259,737; 6228,831;39,16343
 526,05; 2573,187;  217,891; 6252,679;39,02865
 526,64; 2648,682;  249,507; 6357,749;39,27767
 527,22; 2682,824;  252,660; 6508,375;38,84711
 527,80; 2724,116;  280,045; 6594,363;38,70680
 528,39; 2722,345;  252,046; 6668,319;38,50053
 528,97; 2761,877;  249,430; 6866,475;37,96932
 529,55; 2837,220;  266,428; 7027,242;38,02489
 530,14; 2905,072;  272,739; 7183,548;38,09008
 530,72; 2922,630;  251,507; 7257,578;38,12583
 531,30; 2963,360;  230,431; 7432,633;37,94574
 531,89; 2991,176;  255,970; 7539,082;37,55546
 532,47; 3031,319;  291,740; 7590,484;37,53494
 533,05; 3043,824;  270,968; 7713,952;37,25463
 533,63; 3055,344;  290,048; 7722,775;37,20433
 534,22; 3054,851;  243,663; 7745,987;37,47089
 534,80; 3060,897;  284,664; 7824,512;36,82080
 535,38; 3176,848;  347,355; 7905,161;37,43802
 535,97; 3085,102;  261,817; 7892,984;36,99677
 536,55; 3105,739;  315,588; 7965,181;36,47450
 537,13; 3074,332;  321,585; 7858,632;36,52288
 537,71; 3080,352;  353,893; 7955,855;35,86520
 538,30; 3113,316;  377,817; 8017,895;35,80460
 538,88; 3165,654;  420,820; 8103,024;35,72977
 539,46; 3228,390;  478,126; 8345,762;34,95667
 540,05; 3258,080;  488,358; 8432,250;34,86606
 540,63; 3304,955;  537,896; 8601,642;34,31481
 541,21; 3353,644;  572,589; 8769,894;33,92645
 541,79; 3383,383;  606,359; 8848,188;33,69427
 542,38; 3479,176;  642,127; 9037,319;33,79374
 542,96; 3515,512;  653,206; 9214,436;33,43334
 543,54; 3588,756;  677,666; 9375,238;33,47014
 544,12; 3599,777;  649,590; 9532,588;33,21162
 544,70; 3605,617;  631,745; 9606,284;33,13677
 545,29; 3645,944;  626,434; 9729,236;33,17122
 545,87; 3656,460;  614,743; 9737,035;33,34378
 546,45; 3625,501;  569,973; 9822,068;33,02526
 547,03; 3661,608;  541,512; 9883,120;33,39999
 547,62; 3676,472;  494,205; 9992,292;33,50429
 548,20; 3732,700;  507,052;10146,627;33,46256
 548,78; 3715,945;  466,209;10274,288;33,13326
 549,36; 3792,367;  430,978;10394,721;33,73621
 549,94; 3816,356;  389,205;10572,924;33,65323
 550,53; 3852,731;  389,977;10738,146;33,46248
 551,11; 3936,626;  374,132;10949,838;33,68563
 551,69; 4023,784;  366,670;11268,515;33,54583
 552,27; 4069,699;  327,669;11472,391;33,57670
 552,85; 4161,257;  338,748;11863,966;33,16648
 553,44; 4270,785;  334,054;12133,291;33,36428
 554,02; 4404,959;  345,901;12468,942;33,48218
 554,60; 4398,052;  289,594;12718,570;33,05548
 555,18; 4557,490;  322,285;13074,631;33,21118
 555,76; 4645,898;  309,286;13447,218;33,00833
 556,34; 4757,060;  309,057;13842,074;32,86778
 556,93; 4851,565;  300,439;14178,466;32,79375
 557,51; 4927,151;  274,134;14476,498;32,76227
 558,09; 5033,212;  310,670;14837,023;32,51017
 558,67; 5110,408;  301,058;15198,301;32,28349
 559,25; 5204,620;  305,057;15449,809;32,35155
 559,83; 5296,100;  289,443;15778,647;32,32353
 560,41; 5382,206;  293,672;16128,609;32,13486
 561,00; 5446,362;  293,750;16426,544;31,93874
 561,58; 5537,054;  298,749;16679,390;31,97864
 562,16; 5583,133;  285,440;16973,896;31,74465
 562,74; 5661,620;  276,209;17314,693;31,60734
 563,32; 5764,117;  272,135;17738,159;31,44380
 563,90; 5884,808;  287,673;18093,499;31,43429
 564,48; 5954,583;  305,518;18457,836;31,12035
 565,06; 6126,535;  287,288;19075,613;31,07912
 565,65; 6285,148;  289,445;19656,717;30,95791
 566,23; 6514,946;  336,981;20425,448;30,75379
 566,81; 6647,713;  276,288;21002,398;30,74106
 567,39; 6921,062;  292,290;21894,362;30,68582
 567,97; 7068,630;  312,288;22508,907;30,43861
 568,55; 7295,611;  322,828;23293,877;30,35466
 569,13; 7456,114;  296,443;24016,949;30,18347
 569,71; 7668,226;  291,286;24939,408;29,92901
 570,29; 8023,182;  325,978;25746,318;30,27970
 570,87; 8160,662;  322,286;26569,040;29,86417
 571,45; 8312,825;  309,596;27135,710;29,83373
 572,03; 8367,056;  272,059;27443,018;29,79283
 572,61; 8558,381;  275,904;28328,806;29,52449
 573,20; 8720,041;  300,518;28878,165;29,46192
 573,78; 8842,978;  302,443;29474,820;29,27610
 574,36; 8946,263;  303,520;29950,156;29,15253
 574,94; 9034,665;  369,367;30213,213;29,03546
 575,52; 9012,333;  320,369;30537,736;28,76479
 576,10; 9189,702;  361,907;30981,499;28,83055
 576,68; 9270,010;  355,059;31623,345;28,51116
 577,26; 9432,254;  373,985;32256,769;28,41116
 577,84; 9518,768;  379,827;32712,202;28,26560
 578,42; 9574,562;  407,829;33020,570;28,10783
 579,00; 9526,609;  376,135;33029,095;28,02341
 579,58; 9539,817;  404,752;33254,515;27,80862
 580,16; 9475,663;  377,830;33335,092;27,60494
 580,74; 9499,260;  382,907;33507,337;27,52154
 581,32; 9465,459;  376,137;33540,043;27,40727
 581,90; 9442,280;  398,060;33576,483;27,25934
 582,48; 9449,602;  395,522;33604,522;27,26393
 583,06; 9409,616;  396,906;33768,984;27,00674
 583,64; 9398,250;  384,983;33800,585;26,97323
 584,22; 9315,863;  403,600;33708,849;26,75934
 584,80; 9202,576;  414,291;33481,302;26,57720
 585,38; 9061,692;  422,749;33106,746;26,43172
 585,96; 8959,556;  386,982;33164,848;26,15355
 586,54; 9010,763;  402,754;33248,641;26,20727
 587,12; 8946,315;  385,215;33360,103;25,96249
 587,70; 9007,923;  410,136;33465,708;26,01010
 588,28; 8879,947;  390,753;33453,692;25,67586
 588,86; 8928,970;  386,600;33685,663;25,65348
 589,44; 8856,836;  372,678;33715,469;25,44525
 590,02; 8902,401;  376,601;33922,343;25,41544
 590,59; 8873,533;  361,061;34107,262;25,22498
 591,17; 8896,702;  357,757;34262,814;25,18487
 591,75; 8862,097;  356,064;34345,136;25,02579
 592,33; 8890,293;  368,679;34627,138;24,87448
 592,91; 8866,913;  305,603;34796,008;24,82229
 593,49; 8978,970;  330,066;35057,440;24,90515
 594,07; 8962,817;  350,527;35296,446;24,64462
 594,65; 8901,559;  346,292;35351,482;24,44000
 595,23; 8974,679;  342,062;35692,797;24,41991
 595,81; 8956,915;  329,909;35827,020;24,30340
 596,39; 8949,789;  322,063;35958,252;24,21058
 596,97; 8926,651;  327,680;36203,457;23,96874
 597,55; 8879,718;  322,524;36069,089;23,93851
 598,12; 8854,360;  312,604;36040,277;23,90795
 598,70; 8843,490;  309,296;36141,723;23,81696
 599,28; 8836,689;  336,065;36318,165;23,62459
 599,86; 8804,107;  310,526;36300,350;23,59995
 600,44; 8758,558;  292,912;36473,906;23,39805
 601,02; 8725,525;  335,145;36531,305;23,18031
 601,60; 8635,404;  307,449;36567,438;22,96734
 602,18; 8627,485;  293,681;36546,584;22,98796
 602,75; 8589,626;  294,063;36644,544;22,82105
 603,33; 8550,643;  306,527;36620,332;22,70243
 603,91; 8517,666;  293,298;36534,464;22,69344
 604,49; 8502,625;  311,219;36607,045;22,56845
 605,07; 8423,882;  320,756;36635,880;22,31337
 605,65; 8392,723;  336,681;36841,312;22,06855
 606,23; 8423,123;  400,984;36980,119;21,93091
 606,80; 8375,826;  453,755;36928,531;21,71931
 607,38; 8343,919;  481,220;37050,467;21,50085
 607,96; 8334,289;  541,601;37115,845;21,30649
 608,54; 8322,231;  612,989;37133,760;21,10920
 609,12; 8309,026;  597,371;37147,512;21,09884
 609,70; 8266,217;  649,680;37186,760;20,84605
 610,27; 8247,401;  655,293;37300,266;20,71800
 610,85; 8191,142;  680,295;37345,002;20,48522
 611,43; 8134,244;  661,680;37253,447;20,42143
 612,01; 8015,810;  626,679;37029,980;20,29797
 612,59; 8040,971;  625,065;37102,484;20,33013
 613,16; 7911,586;  599,523;37003,631;20,08582
 613,74; 7873,611;  567,911;36974,544;20,06695
 614,32; 7832,506;  537,450;36891,889;20,06648
 614,90; 7782,998;  471,295;36804,363;20,12410
 615,48; 7681,272;  420,062;36445,288;20,15590
 616,05; 7614,329;  403,446;36359,949;20,05446
 616,63; 7554,233;  405,676;36269,534;19,93248
 617,21; 7479,847;  403,216;36128,836;19,80828
 617,79; 7395,235;  376,755;36001,585;19,70109
 618,36; 7407,621;  389,141;36018,713;19,69847
 618,94; 7245,837;  325,524;35685,821;19,57086
 619,52; 7201,244;  356,446;35429,786;19,51567
 620,10; 7115,332;  344,294;35357,121;19,33874
 620,67; 7033,971;  349,138;35291,669;19,13093
 621,25; 7011,234;  362,679;35085,009;19,14778
 621,83; 6949,776;  345,293;35076,558;19,01596
 622,41; 6947,393;  385,985;35138,801;18,88022
 622,98; 6857,850;  361,446;34882,002;18,81894
 623,56; 6797,885;  347,753;34793,583;18,72544
 624,14; 6715,469;  333,141;34719,994;18,56037
 624,72; 6682,099;  336,831;34620,071;18,50837
 625,29; 6629,162;  324,984;34556,641;18,41622
 625,87; 6629,880;  364,525;34676,983;18,25971
 626,45; 6573,969;  316,830;34505,849;18,30160
 627,02; 6484,770;  320,294;34437,260;18,06865
 627,60; 6475,098;  312,142;34320,989;18,12162
 628,18; 6425,410;  300,063;34500,281;17,91026
 628,76; 6386,293;  296,061;34362,708;17,87740
 629,33; 6395,555;  328,754;34528,766;17,73918
 629,91; 6340,794;  325,832;34417,275;17,64361
 630,49; 6356,100;  337,523;34500,571;17,61721
 631,06; 6338,982;  313,677;34631,537;17,55734
 631,64; 6310,181;  321,599;34650,864;17,44454
 632,22; 6215,782;  288,829;34586,626;17,28085
 632,79; 6279,289;  306,598;34849,684;17,29055
 633,37; 6273,593;  290,448;34944,712;17,26525
 633,95; 6211,786;  303,522;34924,842;17,06539
 634,52; 6251,793;  286,755;35030,846;17,16850
 635,10; 6210,367;  296,601;35092,620;16,99552
 635,68; 6250,951;  294,367;35219,210;17,05543
 636,25; 6204,866;  281,136;35221,860;16,95366
 636,83; 6164,677;  267,676;35391,785;16,78904
 637,41; 6146,649;  263,290;35481,014;16,70568
 637,98; 6184,391;  300,213;35621,936;16,65881
 638,56; 6192,782;  285,751;35678,857;16,68978
 639,13; 6140,482;  281,138;35691,751;16,54686
 639,71; 6208,211;  318,754;35930,146;16,53813
 640,29; 6083,683;  255,677;35765,254;16,41249
 640,86; 6096,926;  264,369;35942,439;16,34774
 641,44; 6072,706;  273,831;35871,393;16,29009
 642,02; 6097,256;  298,523;35902,501;16,28676
 642,59; 6092,113;  263,677;36033,685;16,29420
 643,17; 6049,663;  261,677;35991,332;16,19939
 643,74; 6002,905;  274,677;36056,286;16,00886
 644,32; 5995,532;  292,446;36035,470;15,95580
 644,89; 5970,851;  294,446;36045,963;15,87738
 645,47; 5959,478;  308,062;36104,686;15,78757
 646,05; 5916,566;  285,677;35986,563;15,77241
 646,62; 5906,192;  284,908;35945,132;15,76346
 647,20; 5917,204;  291,139;36124,778;15,70051
 647,77; 5864,677;  254,062;36026,963;15,68398
 648,35; 5819,457;  245,678;35886,763;15,63864
 648,92; 5884,084;  291,216;35945,563;15,68636
 649,50; 5806,480;  246,832;35814,671;15,63111
 650,08; 5811,491;  254,832;35770,240;15,64577
 650,65; 5776,118;  262,216;35977,117;15,43866
 651,23; 5892,129;  240,293;36800,687;15,45890
 651,80; 6002,987;  244,986;37613,794;15,40858
 652,38; 6067,767;  268,140;37991,210;15,37422
 652,95; 6087,855;  232,755;38391,241;15,34416
 653,53; 6164,944;  271,447;38585,579;15,38204
 654,10; 6164,878;  299,447;38673,302;15,28497
 654,68; 6091,505;  250,294;38691,179;15,19531
 655,25; 6119,362;  254,140;38670,364;15,26757
 655,83; 6053,066;  239,909;38781,164;15,08295
 656,40; 6086,154;  279,755;38703,733;15,11139
 656,98; 6058,165;  254,371;38699,841;15,09617
 657,55; 6034,177;  257,294;38608,487;15,06311
 658,13; 5932,265;  255,602;38136,672;14,98549
 658,70; 5906,045;  267,140;37934,088;14,97043
 659,28; 5789,672;  258,986;37129,349;15,00036
 659,85; 5657,530;  263,448;36325,765;14,95767
 660,43; 5639,695;  272,448;36335,565;14,88293
 661,00; 5614,629;  259,448;36458,288;14,79379
 661,58; 5654,025;  251,371;36802,780;14,78097
 662,15; 5681,190;  250,987;37033,811;14,76288
 662,73; 5756,125;  309,833;37229,842;14,75160
 663,30; 5743,136;  250,448;37468,334;14,75819
 663,88; 5767,147;  265,987;37602,750;14,73390
 664,45; 5778,928;  250,372;37833,935;14,71004
 665,03; 5855,631;  256,449;38173,504;14,76692
 665,60; 5974,104;  330,987;38616,535;14,73955
 666,17; 5892,885;  265,756;38724,489;14,63160
 666,75; 5928,588;  255,526;38961,366;14,65687
 667,32; 6029,215;  274,372;39365,320;14,72168
 667,90; 5987,457;  261,526;39620,735;14,54788
 668,47; 6089,007;  278,834;39864,074;14,67763
 669,05; 6145,403;  251,987;40201,797;14,75205
 669,62; 6103,645;  236,757;40350,674;14,62557
 670,19; 6114,810;  232,218;40365,551;14,65762
 670,77; 6140,668;  254,526;40528,043;14,61541
 671,34; 6110,064;  243,142;40494,074;14,57587
 671,92; 6177,459;  241,142;40791,105;14,63951
 672,49; 6177,471;  266,219;40704,213;14,61806
 673,06; 6155,790;  224,757;40877,166;14,58962
 673,64; 6178,570;  238,373;40717,043;14,67488
 674,21; 6152,351;  237,219;40700,920;14,61837
 674,79; 6182,670;  261,373;40994,721;14,53673
 675,36; 6231,220;  263,219;41119,521;14,60730
 675,93; 6202,616;  246,065;40984,090;14,62160
 676,51; 6256,473;  255,681;41152,659;14,67295
 677,08; 6222,023;  256,142;41186,690;14,57562
 677,65; 6242,419;  259,142;41321,106;14,57134
 678,23; 6317,122;  257,835;41490,444;14,69538
 678,80; 6331,134;  240,835;41631,167;14,71430
 679,38; 6283,607;  237,296;41794,583;14,54934
 679,95; 6378,772;  254,681;42035,152;14,65778
 680,52; 6340,475;  243,989;42287,491;14,50043
 681,10; 6441,179;  270,758;42634,983;14,56517
 681,67; 6457,652;  253,066;42966,398;14,52611
 682,24; 6477,125;  235,912;42974,583;14,60320
 682,82; 6570,059;  244,220;43463,614;14,63658
 683,39; 6664,840;  287,989;43858,952;14,63555
 683,96; 6680,082;  260,758;44134,214;14,63145
 684,54; 6729,016;  232,066;44408,014;14,70698
 685,11; 6829,566;  275,143;44776,584;14,72856
 685,68; 6888,116;  251,682;45228,691;14,75517
 686,25; 6863,281;  235,451;45230,261;14,73021
 686,83; 6908,677;  242,759;45347,138;14,77887
 687,40; 6934,457;  227,143;45852,707;14,70078
 687,97; 7083,084;  275,220;46111,276;14,85264
 688,55; 7061,864;  227,682;46014,692;14,92603
 689,12; 7091,337;  228,682;46371,107;14,87277
 689,69; 7121,502;  238,528;46450,600;14,89432
 690,26; 7088,745;  247,451;46530,246;14,78150
 690,84; 7178,602;  238,836;46740,354;14,92374
 691,41; 7176,536;  259,836;46845,923;14,84714
 691,98; 7284,702;  249,144;47159,646;14,99783
 692,56; 7297,251;  228,452;47242,677;15,03545
 693,13; 7355,955;  297,221;47245,631;15,03509
 693,70; 7358,582;  268,298;47417,815;15,03787
 694,27; 7393,516;  244,298;47459,539;15,14176
 694,84; 7408,912;  238,913;47569,646;15,14872
 695,42; 7484,308;  283,990;47728,062;15,17643
 695,99; 7472,704;  246,683;47899,477;15,16390
 696,56; 7437,638;  241,837;47809,585;15,12748
 697,13; 7528,342;  253,298;48121,077;15,19821
 697,71; 7567,276;  230,452;48189,185;15,29820
 698,28; 7642,826;  249,760;48434,755;15,34309
 698,85; 7627,914;  224,837;48478,324;15,34206
 699,42; 7687,618;  220,914;48608,124;15,43115
 699,99; 7750,783;  265,837;48730,309;15,44419
 700,57; 7790,640;  247,529;48793,878;15,53796
 701,14; 7814,421;  234,991;48957,755;15,55624
 701,71; 7882,817;  263,299;49229,478;15,56078
 702,28; 7890,290;  250,914;49223,278;15,59936
 702,85; 7975,301;  266,914;49325,924;15,71248
 703,43; 7978,697;  266,991;49478,186;15,67063
 704,00; 8066,862;  287,376;49701,755;15,74337
 704,57; 8100,335;  262,684;49634,094;15,87488
 705,14; 8146,808;  287,222;49998,355;15,81051
 705,71; 8160,127;  292,991;49959,540;15,83991
 706,28; 8201,600;  266,607;49877,340;15,99451
 706,86; 8224,534;  298,838;50117,986;15,90894
 707,43; 8270,853;  314,222;50071,248;15,99097
 708,00; 8299,711;  294,222;50116,202;16,06819
 708,57; 8312,030;  260,146;49967,233;16,19866
 709,14; 8333,349;  284,684;50087,187;16,16116
 709,71; 8372,437;  276,915;50163,295;16,22792
 710,28; 8421,833;  269,069;50478,710;16,23745
 710,86; 8403,613;  282,607;50616,125;16,13439
 711,43; 8520,086;  290,838;50647,695;16,34186
 712,00; 8516,174;  266,531;50672,110;16,36653
 712,57; 8596,340;  279,838;50829,449;16,45216
 713,14; 8656,428;  259,531;50931,557;16,57107
 713,71; 8677,055;  275,223;50797,895;16,62982
 714,28; 8670,989;  272,146;50888,618;16,59310
 714,85; 8673,154;  262,685;50582,803;16,71393
 715,42; 8726,473;  263,992;50759,065;16,75902
 716,00; 8818,023;  310,992;50835,095;16,83757
 716,57; 8831,111;  259,146;51087,126;16,86466
 717,14; 8863,045;  248,608;50968,772;16,98425
 717,71; 8887,134;  240,147;50982,419;17,04099
 718,28; 8957,760;  276,762;51066,142;17,09215
 718,85; 8970,618;  245,839;51150,173;17,13956
 719,42; 9008,245;  262,147;51220,665;17,16317
 719,99; 8981,794;  246,839;51029,004;17,20083
 720,56; 9085,113;  263,224;51274,881;17,29387
 721,13; 9120,740;  241,993;51460,911;17,33490
 721,70; 9107,828;  237,455;51378,942;17,34477
 722,27; 9191,993;  273,378;51411,589;17,44022
 722,84; 9262,851;  301,455;51593,619;17,47128
 723,41; 9268,478;  241,070;51451,035;17,62822
 723,98; 9355,950;  259,378;51750,604;17,66626
 724,55; 9407,962;  279,993;51796,943;17,71838
 725,12; 9401,512;  218,070;51651,589;17,85497
 725,69; 9471,061;  250,917;51876,235;17,85973
 726,27; 9485,226;  261,686;51919,497;17,85507
 726,84; 9610,776;  259,609;52233,605;17,99201
 727,41; 9645,557;  265,840;52331,328;18,01523
 727,98; 9721,876;  264,686;52555,205;18,08586
 728,55; 9760,502;  296,917;52463,697;18,14102
 729,12; 9779,668;  246,840;52541,343;18,22912
 729,69; 9902,987;  275,609;52837,451;18,31629
 730,26; 9933,306;  283,379;52959,790;18,31926
 730,82; 9939,394;  262,763;52758,974;18,43301
 731,39;10019,944;  257,148;52955,005;18,52598
 731,96;10147,109;  235,610;53267,959;18,68953
 732,53;10163,043;  265,994;53403,913;18,62521
 733,10;10255,131;  268,225;53548,021;18,74427
 733,67;10326,297;  274,379;53826,129;18,77047
 734,24;10315,308;  255,764;53472,390;18,90301
 734,81;10359,627;  277,918;53489,267;18,94654
 735,38;10392,023;  263,225;53211,067;19,12976
 735,95;10339,265;  265,533;53159,021;19,04532
 736,52;10460,199;  276,533;53224,360;19,23340
 737,09;10452,057;  276,456;52940,006;19,32190
 737,66;10503,914;  309,995;53113,498;19,30538
 738,23;10510,233;  250,226;53280,529;19,34744
 738,80;10720,783;  320,226;53503,252;19,55616
 739,37;10723,025;  291,610;53579,899;19,57544
 739,94;10776,652;  275,764;53700,006;19,65566
 740,51;10928,279;  361,380;53777,037;19,78240
 741,07;10852,982;  261,995;53699,068;19,81955
 741,64;10960,993;  300,149;53977,560;19,86095
 742,21;11022,851;  277,149;53957,437;20,01797
 742,78;11054,478;  236,688;53762,930;20,21025
 743,35;11087,797;  264,918;53988,730;20,14540
 743,92;11249,423;  291,303;54009,222;20,39938
 744,49;11257,281;  291,842;54095,330;20,38054
 745,06;11271,215;  255,765;54010,976;20,49187
 745,63;11291,303;  252,996;53956,392;20,55421
 746,19;11372,007;  257,303;54033,038;20,66862
 746,76;11362,865;  269,227;54104,684;20,60656
 747,33;11455,030;  263,611;54032,330;20,81399
 747,90;11562,964;  288,150;54195,515;20,91516
 748,47;11517,591;  265,227;54112,854;20,89668
 749,04;11552,756;  267,150;54050,192;20,98358
 749,61;11621,844;  297,150;54039,685;21,07213
 750,17;11669,163;  286,073;54174,408;21,12348
 750,74;11679,405;  275,612;54227,900;21,13681
 751,31;11661,263;  254,766;53959,239;21,23938
 751,88;11697,120;  239,073;53816,193;21,38608
 752,45;11750,824;  263,304;54025,685;21,36721
 753,02;11790,297;  278,304;53907,485;21,46591
 753,58;11834,693;  255,997;53784,824;21,63077
 754,15;11907,473;  264,304;53908,547;21,70441
 754,72;11827,638;  263,381;53687,347;21,64620
 755,29;11900,650;  253,843;53517,839;21,86619
 755,86;11990,353;  268,228;53714,793;21,93242
 756,42;12040,211;  280,074;53615,824;22,04926
 756,99;11998,068;  233,689;53605,316;22,04238
 757,56;12069,079;  251,074;53438,040;22,21974
 758,13;12070,706;  202,843;53342,455;22,33336
 758,70;12193,948;  238,612;53485,871;22,45249
 759,26;12229,883;  231,843;53543,363;22,50553
 759,83;12285,586;  242,690;53597,701;22,57126
 760,40;12312,751;  224,766;53439,425;22,71552
 760,97;12391,532;  222,074;53577,840;22,80814
 761,53;12294,928;  197,767;53155,179;22,84319
 762,10;12357,093;  200,459;53100,517;22,98038
 762,67;12470,181;  243,997;53066,471;23,14580
 763,24;12387,346;  194,074;52673,502;23,23438
 763,80;12525,281;  228,459;52864,840;23,36183
 764,37;12530,369;  230,459;52847,794;23,37615
 764,94;12460,227;  204,690;52333,133;23,51027
 765,50;12525,469;  220,229;52431,856;23,56801
 766,07;12620,557;  251,152;52474,810;23,68544
 766,64;12572,491;  233,690;52105,610;23,78705
 767,21;12591,118;  241,613;52041,333;23,84087
 767,77;12668,437;  257,152;51874,749;24,04468
 768,34;12632,679;  263,537;51923,164;23,94354
 768,91;12610,921;  258,921;51652,733;24,03402
 769,47;12655,086;  264,229;51713,995;24,08341
 770,04;12627,251;  261,383;51591,564;24,09083
 770,61;12608,801;  239,460;51321,364;24,21472
 771,18;12694,736;  230,845;51306,472;24,40282
 771,74;12717,747;  247,152;51408,272;24,37514
 772,31;12721,758;  260,537;51215,995;24,45513
 772,88;12695,769;  217,460;51015,796;24,56441
 773,44;12703,627;  234,306;50704,211;24,70645
 774,01;12719,408;  253,460;50873,011;24,62674
 774,58;12690,034;  227,614;50524,888;24,77753
 775,14;12780,892;  235,383;50646,534;24,88638
 775,71;12802,749;  236,537;50602,334;24,94989
 776,27;12888,607;  294,076;50495,673;25,08791
 776,84;12983,003;  314,076;50490,473;25,24878
 777,41;12910,245;  252,230;50294,273;25,29476
 777,97;12943,641;  234,768;50072,227;25,50064
 778,54;12951,883;  251,076;50143,104;25,45659
 779,11;12965,586;  275,845;50132,981;25,45221
 779,67;12967,521;  233,615;50049,627;25,56187
 780,24;12991,993;  248,538;49709,273;25,76479
 780,80;13072,543;  259,923;49830,381;25,84729
 781,37;13055,631;  255,692;49825,258;25,82217
 781,94;13064,566;  257,000;49628,289;25,94132
 782,50;13143,039;  265,769;49526,935;26,14081
 783,07;13214,281;  267,230;49610,043;26,23898
 783,63;13113,831;  243,154;49346,612;26,21134
 784,20;13197,534;  273,538;49235,874;26,39579
 784,77;13164,238;  254,692;49056,366;26,45308
 785,33;13120,095;  225,000;49013,166;26,43078
 785,90;13188,260;  248,000;48855,120;26,62215
 786,46;13213,349;  269,154;48795,228;26,67472
 787,03;13258,052;  239,462;48650,028;26,89204
 787,59;13255,448;  249,769;48497,059;26,95629
 788,16;13320,536;  263,616;48397,090;27,12649
 788,73;13222,471;  262,693;48264,352;26,99860
 789,29;13187,482;  241,693;47991,306;27,11182
 789,86;13277,570;  272,693;47967,567;27,26682
 790,42;13255,197;  256,462;47746,444;27,37153
 790,99;13169,132;  259,539;47483,552;27,33692
 791,55;13209,220;  257,847;47356,352;27,49848
 792,12;13268,154;  272,924;47388,844;27,58140
 792,68;13254,473;  254,155;47230,337;27,67428
 793,25;13197,715;  259,693;46912,445;27,73260
 793,81;13158,188;  309,847;46489,245;27,82267
 794,38;13107,507;  226,693;46236,122;27,99603
 794,94;13117,980;  247,001;46233,306;27,98872
 795,51;13101,453;  272,540;46008,106;28,05019
 796,07;13069,541;  265,616;45694,522;28,18453
 796,64;13157,168;  262,001;45837,553;28,29404
 797,20;13111,179;  262,617;45321,814;28,51485
 797,77;12988,498;  221,309;45021,230;28,49824
 798,33;13000,125;  252,386;44822,030;28,60184
 798,90;12974,751;  272,540;44715,291;28,58106
 799,46;12953,070;  251,771;44308,938;28,82913
 800,03;12985,005;  264,155;44235,661;28,92976
 800,59;12916,785;  265,155;44109,076;28,85606
 801,15;12898,104;  278,232;43747,799;29,03151
 801,72;12886,885;  266,463;43511,369;29,18360
 802,28;12847,665;  286,694;43292,015;29,20795
 802,85;12769,446;  266,310;43099,123;29,19056
 803,41;12755,996;  250,079;42940,307;29,29457
 803,98;12676,084;  256,925;42430,954;29,44741
 804,54;12676,403;  262,848;42266,677;29,55339
 805,11;12638,107;  262,541;42124,708;29,56265
 805,67;12671,656;  280,387;42014,277;29,69114
 806,23;12582,975;  257,002;41549,462;29,85042
 806,80;12570,064;  285,541;41500,339;29,80610
 807,36;12602,152;  286,310;41529,985;29,86117
 807,93;12582,163;  289,233;41223,016;30,03126
 808,49;12499,328;  247,618;40757,124;30,24404
 809,05;12470,570;  241,695;40697,693;30,22760
 809,62;12501,966;  280,310;40505,570;30,38304
 810,18;12551,132;  274,387;40620,831;30,42832
 810,74;12420,758;  243,541;40270,555;30,42250
 811,31;12438,846;  258,926;39953,201;30,68433
 811,87;12413,319;  258,695;39798,155;30,74049
 812,44;12452,638;  286,003;39928,339;30,69101
 813,00;12393,265;  219,157;39609,524;30,90631
 813,56;12421,584;  262,849;39650,555;30,86937
 814,13;12483,134;  252,080;39523,663;31,14479
 814,69;12400,837;  265,003;39435,924;30,98174
 815,25;12361,541;  235,695;38988,417;31,29031
 815,82;12387,860;  271,696;38942,601;31,33147
 816,38;12388,025;  290,003;38710,709;31,48829
 816,94;12300,652;  240,619;38478,048;31,53986
 817,51;12238,817;  237,311;38330,848;31,50536
 818,07;12253,751;  233,542;38000,802;31,82706
 818,63;12225,147;  247,927;37888,217;31,82021
 819,20;12244,620;  245,388;37838,710;31,91852
 819,76;12137,401;  236,465;37409,971;32,01456
 820,32;12136,489;  282,158;37334,387;31,99357
 820,89;12098,962;  272,773;37156,956;32,06304
 821,45;12027,742;  234,696;36860,448;32,19878
 822,01;12013,369;  277,619;36592,018;32,31707
 822,57;11979,150;  276,696;36485,125;32,31969
 823,14;11940,084;  237,619;36228,541;32,51505
 823,70;11914,865;  241,773;36000,649;32,64390
 824,26;11899,799;  234,850;35881,833;32,72352
 824,82;11904,503;  270,081;35724,403;32,81524
 825,39;11836,360;  251,850;35427,972;32,93288
 825,95;11901,833;  261,312;35480,618;33,05153
 826,51;11787,690;  258,620;35061,034;33,12722
 827,08;11841,009;  287,774;35137,295;33,15178
 827,64;11785,790;  281,235;34987,788;33,14808
 828,20;11742,186;  241,235;34619,126;33,45450
 828,76;11745,505;  271,082;34609,696;33,41551
 829,32;11770,285;  284,697;34482,034;33,58621
 829,89;11704,681;  239,851;34316,603;33,64414
 830,45;11793,846;  257,466;34267,634;33,92039
 831,01;11774,396;  253,236;34099,050;34,04013
 831,57;11757,792;  256,467;34030,081;34,05418
 832,14;11758,342;  254,851;34033,650;34,05536
 832,70;11729,199;  240,928;33800,758;34,23221
 833,26;11703,826;  217,928;33754,635;34,24874
 833,82;11703,299;  252,313;33616,204;34,32149
 834,38;11739,003;  237,544;33650,543;34,42211
 834,95;11790,091;  239,236;33518,112;34,70927
 835,51;11741,871;  211,313;33357,066;34,78744
 836,07;11843,113;  246,698;33520,635;34,85135
 836,63;11910,817;  264,390;33420,051;35,12651
 837,19;11820,982;  255,159;33199,928;35,10671
 837,75;11785,378;  213,544;32933,189;35,36662
 838,32;11864,313;  279,006;33077,682;35,32248
 838,88;11898,170;  259,852;33050,866;35,49240
 839,44;11872,489;  252,006;33047,666;35,43299
 840,00;11925,577;  251,083;32951,620;35,70123
 840,56;11810,512;  238,391;32616,036;35,74108
 841,12;11827,523;  233,391;32632,913;35,78489
 841,68;11765,765;  223,391;32391,328;35,88161
 842,25;11799,699;  232,545;32427,744;35,92820
 842,81;11726,403;  228,314;32220,621;35,94017
 843,37;11819,337;  218,775;32213,344;36,25791
 843,93;11804,580;  238,237;32166,375;36,22617
 844,49;11828,052;  251,776;32134,098;36,30939
 845,05;11741,218;  208,237;31930,667;36,35592
 845,61;11865,152;  261,391;32077,313;36,47155
 846,17;11803,856;  236,776;31936,036;36,49006
 846,73;11849,559;  235,468;31862,452;36,72209
 847,29;11791,647;  216,776;31612,560;36,86760
 847,86;11774,966;  232,776;31654,667;36,73296
 848,42;11782,747;  224,622;31431,237;37,03742
 848,98;11796,835;  243,699;31382,114;37,10252
 849,54;11823,308;  215,930;31349,606;37,28239
 850,10;11840,858;  251,545;31304,791;37,32078
 850,66;11748,023;  224,546;31162,129;37,24750
 851,22;11725,957;  226,161;31012,929;37,35305
 851,78;11867,815;  268,699;31106,422;37,61340
 852,34;11852,518;  244,007;30879,068;37,89289
 852,90;11853,068;  233,853;30702,253;38,13530
 853,46;11796,772;  227,161;30589,668;38,10493
 854,02;11809,091;  243,623;30587,468;38,11471
 854,58;11762,179;  244,854;30316,345;38,29981
 855,14;11766,883;  220,084;30263,530;38,43367
 855,70;11742,432;  202,238;30114,869;38,57967
 856,26;11749,675;  242,238;30010,207;38,65711
 856,82;11741,609;  232,623;29942,392;38,73805
 857,38;11728,851;  266,777;29836,038;38,76348
 857,94;11681,170;  234,008;29629,146;38,94237
 858,50;11676,181;  246,777;29607,946;38,92694
 859,06;11656,039;  236,546;29410,361;39,14295
 859,62;11707,665;  248,085;29409,008;39,29773
 860,18;11644,215;  238,239;29189,423;39,39727
 860,74;11540,227;  212,162;29036,915;39,29978
 861,30;11580,930;  213,008;28922,254;39,59673
 861,86;11684,018;  269,701;28999,593;39,72976
 862,42;11584,491;  237,162;28743,239;39,80670
 862,98;11672,580;  260,162;28761,500;40,04169
 863,54;11569,052;  241,239;28520,300;40,05725
 864,10;11586,679;  236,932;28588,101;40,03273
 864,66;11501,383;  215,239;28363,670;40,09511
 865,22;11517,625;  238,239;28203,855;40,33305
 865,78;11545,867;  235,470;28141,270;40,53063
 866,34;11527,263;  228,163;28057,301;40,60169
 866,90;11475,428;  245,547;27957,101;40,52418
 867,45;11435,285;  242,547;27757,132;40,67929
 868,01;11439,220;  239,470;27556,163;40,99965
 868,57;11339,462;  231,163;27363,501;40,94118
 869,13;11244,627;  222,471;27212,147;40,83842
 869,69;11303,946;  226,471;27172,563;41,10977
 870,25;11251,573;  217,701;27015,824;41,17405
 870,81;11276,123;  231,625;27081,009;41,13501
 871,37;11302,826;  242,009;26956,040;41,40452
 871,93;11274,530;  251,240;26773,379;41,56260
 872,49;11221,695;  260,933;26531,563;41,72249
 873,04;11162,706;  220,625;26358,748;41,86254
 873,60;11180,179;  219,933;26264,010;42,08345
 874,16;11171,729;  239,240;26176,733;42,14937
 874,72;11182,190;  228,933;26168,117;42,22668
 875,28;11196,960;  250,163;26000,733;42,51089
 875,84;11161,421;  230,240;25987,271;42,43960
 876,40;11179,344;  233,702;25977,579;42,51746
 876,95;11183,498;  251,163;25943,656;42,55070
 877,51;11244,960;  264,010;25877,656;42,87148
 878,07;11292,498;  271,856;25927,271;42,95640
 878,63;11306,267;  230,856;25864,194;43,20706
 879,19;11348,806;  253,240;25914,425;43,23871
 879,75;11397,344;  238,240;25953,348;43,39513
 880,30;11459,267;  240,317;25904,348;43,71468
 880,86;11568,267;  269,548;26079,271;43,77699
 881,42;11526,960;  216,779;26075,887;43,73771
 881,98;11612,652;  244,317;26144,963;43,89209
 882,54;11756,037;  220,471;26231,348;44,34901
 883,09;11779,729;  246,317;26360,963;44,16453
 883,65;11877,421;  224,548;26393,733;44,52899
 884,21;12008,267;  269,779;26645,810;44,50438
 884,77;12028,575;  224,317;26669,117;44,63735
 885,32;12131,190;  243,163;26823,271;44,72528
 885,88;12279,267;  266,625;27016,117;44,90793
 886,44;12333,037;  241,779;27082,348;45,04844
 887,00;12362,575;  255,779;27061,271;45,16536
 887,56;12467,806;  228,625;27290,271;45,22704
 888,11;12516,652;  225,702;27247,117;45,48596
 888,67;12642,421;  267,317;27369,579;45,66078
 889,23;12650,575;  240,471;27425,040;45,65128
 889,79;12687,883;  233,240;27282,040;46,04508
 890,34;12707,806;  239,933;27273,348;46,12023
 890,90;12882,960;  292,394;27396,810;46,45208
 891,46;12764,037;  224,240;27235,194;46,42485
 892,01;12796,113;  262,010;27282,502;46,38740
 892,57;12792,267;  271,087;27144,733;46,59279
 893,13;12685,960;  250,394;27068,963;46,36923
 893,69;12733,652;  234,625;26951,579;46,78313
 894,24;12765,729;  235,317;26883,502;47,02163
 894,80;12700,575;  245,779;26747,117;46,99686
 895,36;12715,267;  242,548;26590,579;47,33834
 895,91;12636,037;  233,856;26489,194;47,23680
 896,47;12588,421;  251,702;26326,425;47,31294
 897,03;12491,652;  232,856;26157,656;47,28598
 897,58;12528,267;  254,394;26075,656;47,53398
 898,14;12508,575;  250,317;25913,040;47,76678
 898,70;12392,037;  214,625;25698,271;47,78520
 899,25;12426,806;  238,548;25740,117;47,79415
 899,81;12351,652;  251,933;25551,810;47,82521
 900,37;12231,498;  218,625;25411,194;47,68419
 900,92;12315,729;  241,625;25430,887;47,93354
 901,48;12236,190;  234,394;25193,502;48,08584
 902,03;12155,113;  236,702;25072,425;47,98899
 902,59;12225,421;  239,779;24977,425;48,45102
 903,15;12166,421;  257,240;24842,194;48,44093
 903,70;12112,190;  246,779;24638,348;48,64554
 904,26;12067,883;  225,240;24525,117;48,73540
 904,82;12080,113;  230,163;24430,040;48,96698
 905,37;12027,498;  248,240;24383,425;48,80533
 905,93;12019,575;  228,087;24198,887;49,19105
 906,48;12007,190;  248,471;24148,887;49,19881
 907,04;12061,729;  262,087;24069,194;49,56353
 907,60;11956,729;  242,933;23863,271;49,59199
 908,15;11927,113;  226,471;23767,040;49,70416
 908,71;11991,575;  254,779;23777,579;49,89540
 909,26;11905,652;  232,240;23524,425;50,11729
 909,82;11856,575;  255,856;23558,271;49,78333
 910,37;11853,575;  281,163;23385,348;50,08795
 910,93;11792,883;  229,548;23196,579;50,34754
 911,48;11705,806;  223,625;23092,117;50,20961
 912,04;11746,190;  224,010;22961,502;50,67481
 912,60;11694,729;  245,471;23040,271;50,22750
 913,15;11666,037;  239,933;22832,271;50,57513
 913,71;11605,344;  224,856;22646,117;50,75757
 914,26;11636,113;  216,779;22565,810;51,09544
 914,82;11560,806;  250,087;22457,579;50,93200
 915,37;11604,575;  221,087;22481,117;51,13869
 915,93;11559,729;  287,087;22242,194;51,34405
 916,48;11506,960;  228,625;22159,502;51,42674
 917,04;11461,575;  247,163;22092,887;51,33459
 917,59;11483,037;  256,010;22017,348;51,59162
 918,15;11329,113;  206,010;21794,810;51,52257
 918,70;11388,190;  228,394;21782,656;51,77536
 919,26;11350,267;  237,779;21653,887;51,88846
 919,81;11273,806;  219,240;21495,425;51,95746
 920,37;11255,806;  228,856;21411,348;52,05691
 920,92;11230,037;  247,087;21405,887;51,90724
 921,48;11176,498;  213,394;21047,117;52,62191
 922,03;11190,113;  220,856;21107,502;52,51804
 922,59;11155,421;  228,317;20946,040;52,74278
 923,14;11076,960;  235,856;20873,963;52,52954
 923,69;11122,190;  251,087;20763,656;52,99728
 924,25;11148,960;  254,933;20707,194;53,26563
 924,80;11040,806;  235,548;20567,040;53,14542
 925,36;11054,729;  228,548;20503,656;53,39642
 925,91;10951,652;  231,702;20377,194;53,21265
 926,47;10946,344;  204,471;20324,579;53,38875
 927,02;10954,652;  276,702;20289,579;53,35540
 927,57;10923,421;  233,087;20066,963;53,89937
 928,13;10895,960;  220,702;20007,117;53,95246
 928,68;10865,421;  230,163;19941,425;53,95524
 929,24;10741,498;  203,087;19722,194;53,99023
 929,79;10727,960;  219,779;19652,502;54,07467
 930,34;10652,037;  230,856;19548,040;53,94772
 930,90;10693,421;  213,625;19480,040;54,39412
 931,45;10682,498;  237,087;19492,502;54,24662
 932,01;10659,960;  233,163;19371,963;54,47988
 932,56;10649,960;  246,087;19179,425;54,95002
 933,11;10625,498;  254,933;19098,425;55,03526
 933,67;10619,960;  227,933;18951,963;55,50101
 934,22;10627,575;  234,240;18965,656;55,48611
 934,77;10601,267;  258,702;18836,271;55,67233
 935,33;10494,652;  230,856;18641,887;55,74808
 935,88;10541,960;  232,625;18650,117;55,97578
 936,43;10470,652;  224,548;18470,810;56,15454
 936,99;10454,344;  234,702;18419,040;56,20024
 937,54;10414,113;  220,010;18225,656;56,61615
 938,09;10375,652;  237,933;18269,194;56,22302
 938,65;10419,575;  234,394;18199,656;56,69375
 939,20;10363,806;  227,779;18103,579;56,70251
 939,75;10356,575;  218,240;17957,271;57,15270
 940,31;10297,037;  202,933;17923,733;56,96190
 940,86;10314,652;  232,163;17809,963;57,35922
 941,41;10369,960;  293,163;17808,271;57,53203
 941,96;10298,652;  226,240;17668,271;57,74793
 942,52;10320,190;  230,625;17565,963;58,20230
 943,07;10208,883;  205,548;17440,887;58,03968
 943,62;10189,190;  214,471;17351,656;58,20512
 944,18;10188,421;  210,087;17283,271;58,44448
 944,73;10173,960;  237,010;17179,194;58,65212
 945,28;10149,806;  196,856;17038,656;59,09671
 945,83;10165,267;  224,394;17029,963;59,15225
 946,39;10187,806;  215,933;17007,887;59,38483
 946,94;10066,113;  246,471;16895,502;58,98026
 947,49;10047,652;  223,010;16792,656;59,29301
 948,04;10089,037;  254,779;16805,348;59,41945
 948,59;10104,806;  241,933;16731,425;59,81308
 949,15; 9979,421;  220,856;16591,579;59,60986
 949,70;10007,729;  222,702;16480,425;60,18695
 950,25; 9985,190;  243,163;16409,733;60,26032
 950,80; 9910,652;  199,933;16345,040;60,14651
 951,36; 9859,575;  194,163;16234,502;60,25691
 951,91; 9938,806;  239,163;16263,887;60,52924
 952,46; 9784,113;  206,933;16077,271;60,34642
 953,01; 9793,190;  240,163;16074,963;60,32932
 953,56; 9788,190;  196,856;15870,502;61,19402
 954,11; 9785,037;  236,625;15920,194;60,88162
 954,67; 9752,190;  222,394;15847,348;60,99088
 955,22; 9678,806;  212,933;15738,117;60,97108
 955,77; 9735,498;  248,010;15700,117;61,39932
 956,32; 9661,498;  264,779;15594,810;61,29615
 956,87; 9551,421;  213,548;15416,887;61,41989
 957,42; 9612,498;  219,394;15405,887;61,85170
 957,98; 9544,575;  220,394;15304,963;61,81271
 958,53; 9541,113;  244,702;15264,810;61,89311
 959,08; 9470,652;  216,471;15164,810;61,90776
 959,63; 9409,344;  218,394;15105,887;61,73605
 960,18; 9442,652;  236,010;15002,963;62,34625
 960,73; 9415,344;  227,087;15025,579;62,08915
 961,28; 9363,344;  204,548;14850,579;62,53432
 961,83; 9352,113;  248,625;14847,656;62,35680
 962,39; 9316,883;  210,856;14684,733;62,91353
 962,94; 9278,344;  238,240;14644,040;62,75322
 963,49; 9242,652;  224,933;14529,117;63,04253
 964,04; 9221,190;  239,010;14469,502;63,11926
 964,59; 9146,267;  190,471;14412,348;62,97197
 965,14; 9165,960;  234,702;14368,117;63,19249
 965,69; 9138,498;  229,933;14263,194;63,48179
 966,24; 9094,344;  209,010;14167,810;63,65400
 966,79; 9067,344;  244,933;14090,810;63,71869
 967,34; 8974,037;  195,087;13945,733;63,84391
 967,89; 8922,652;  223,933;13893,733;63,63458
 968,44; 8929,190;  232,471;13815,425;64,02672
 968,99; 8906,652;  231,625;13772,117;64,06729
 969,55; 8897,037;  235,471;13685,117;64,39995
 970,10; 8871,575;  226,317;13608,271;64,60385
 970,65; 8832,960;  258,010;13515,117;64,68191
 971,20; 8775,267;  218,856;13464,579;64,59754
 971,75; 8721,421;  220,702;13239,348;65,29649
 972,30; 8677,113;  226,933;13232,579;64,97317
 972,85; 8591,498;  216,548;13120,579;64,90181
 973,40; 8567,113;  209,163;12982,502;65,43278
 973,95; 8585,652;  238,702;12957,733;65,62568
 974,50; 8551,729;  251,087;12897,425;65,63672
 975,05; 8477,037;  230,548;12728,963;65,98027
 975,60; 8497,344;  237,933;12745,425;66,03571
 976,15; 8419,575;  222,548;12616,733;66,13607
 976,70; 8365,344;  233,240;12572,579;65,90389
 977,25; 8407,344;  237,394;12466,963;66,80489
 977,80; 8270,729;  217,317;12321,502;66,53411
 978,35; 8214,113;  234,471;12220,040;66,57708
 978,89; 8224,652;  213,394;12155,425;67,08455
 979,44; 8202,806;  228,779;12134,040;66,97902
 979,99; 8097,883;  217,625;11915,733;67,36352
 980,54; 8053,113;  253,625;11844,425;67,29034
 981,09; 8042,344;  247,856;11860,040;67,12336
 981,64; 7955,344;  232,548;11711,656;67,27697
 982,19; 7957,498;  263,010;11643,117;67,61349
 982,74; 7850,806;  241,548;11500,656;67,58313
 983,29; 7796,113;  218,548;11375,733;67,91647
 983,84; 7743,575;  239,394;11356,117;67,50353
 984,39; 7810,806;  294,856;11262,194;68,53030
 984,94; 7657,498;  209,779;11049,502;68,70765
 985,49; 7673,883;  253,471;11087,887;68,48927
 986,03; 7662,113;  254,010;11008,963;68,88085
 986,58; 7559,037;  274,010;10856,348;68,84137
 987,13; 7455,037;  235,163;10734,425;68,76553
 987,68; 7420,806;  242,702;10680,579;68,76977
 988,23; 7466,960;  242,163;10603,887;69,72582
 988,78; 7332,037;  231,702;10441,733;69,54273
 989,33; 7306,498;  253,087;10362,271;69,77231
 989,88; 7252,267;  250,087;10311,656;69,59333
 990,42; 7144,037;  226,702;10186,963;69,44933
 990,97; 7127,960;  229,779;10115,040;69,78248
 991,52; 7127,806;  252,163;10000,810;70,52920
 992,07; 7085,806;  270,471; 9886,271;70,87642
 992,62; 7042,498;  246,163; 9856,963;70,71560
 993,17; 6946,344;  243,010; 9701,810;70,86876
 993,71; 6905,344;  241,471; 9651,733;70,81496
 994,26; 6816,729;  232,087; 9479,579;71,20463
 994,81; 6808,037;  257,625; 9438,425;71,34903
 995,36; 6710,344;  233,317; 9288,040;71,53203
 995,91; 6681,344;  242,779; 9273,271;71,29806
 996,45; 6632,190;  231,856; 9155,656;71,72208
 997,00; 6550,960;  219,471; 9022,810;71,92145
 997,55; 6541,421;  242,163; 9020,502;71,75911
 998,10; 6481,652;  260,779; 8888,425;72,10394
 998,65; 6396,037;  233,548; 8830,348;71,68352
 999,19; 6350,883;  254,240; 8704,810;72,14475
 999,74; 6289,037;  277,548; 8626,656;72,00157
1000,29; 6295,960;  247,625; 8537,810;72,95778
1000,84; 6223,960;  232,933; 8390,810;73,43855
1001,38; 6157,113;  238,317; 8326,733;73,17621
1001,93; 6092,113;  259,702; 8267,271;72,83623
1002,48; 6004,806;  228,471; 8102,733;73,35716
1003,03; 6005,806;  241,548; 8090,733;73,43766
1003,57; 5951,575;  251,394; 7970,810;73,84213
1004,12; 5894,729;  261,394; 7947,271;73,29462
1004,67; 5809,190;  235,856; 7818,656;73,49969
1005,22; 5754,421;  226,471; 7679,733;74,16820
1005,76; 5641,575;  218,471; 7550,040;73,96921
1006,31; 5625,498;  264,010; 7519,963;73,89088
1006,86; 5554,498;  231,471; 7421,810;74,03027
1007,40; 5446,113;  216,394; 7259,810;74,24976
1007,95; 5408,652;  239,394; 7223,194;74,01784
1008,50; 5305,575;  240,163; 7064,117;74,22986
1009,04; 5269,729;  242,240; 6983,194;74,58126
1009,59; 5178,729;  240,240; 6841,040;74,81651
1010,14; 5109,960;  232,240; 6779,810;74,49664
1010,68; 5015,421;  238,625; 6652,117;74,48042
1011,23; 4976,421;  228,625; 6538,733;75,24113
1011,78; 4966,037;  256,548; 6507,579;75,33939
1012,32; 4856,421;  253,702; 6425,733;74,57382
1012,87; 4841,421;  259,856; 6388,425;74,75750
1013,42; 4767,652;  227,010; 6256,194;75,31105
1013,96; 4770,498;  256,625; 6258,040;75,21348
1014,51; 4696,883;  210,240; 6162,656;75,37515
1015,06; 4738,113;  214,702; 6187,656;75,73157
1015,60; 4750,575;  269,625; 6225,502;75,23577
1016,15; 4707,344;  228,856; 6175,579;75,31019
1016,69; 4745,267;  241,471; 6220,348;75,32846
1017,24; 4826,113;  215,163; 6187,656;77,20311
1017,79; 4855,960;  267,317; 6267,040;76,48090
1018,33; 4845,883;  228,856; 6238,040;76,83284
1018,88; 4919,344;  240,933; 6339,271;76,71617
1019,42; 4926,421;  231,856; 6320,810;77,09970
1019,97; 4925,037;  232,087; 6321,656;77,06539
1020,51; 5009,113;  250,471; 6375,963;77,68588
1021,06; 4970,421;  216,548; 6323,502;77,84361
1021,61; 4888,267;  199,856; 6306,579;76,77459
1022,15; 4892,729;  189,548; 6268,579;77,36728
1022,70; 4895,267;  234,933; 6261,194;77,33376
1023,24; 4875,267;  214,779; 6249,040;77,23378
1023,79; 4892,729;  233,010; 6178,963;78,36790
1024,33; 4843,344;  223,317; 6110,348;78,47805
1024,88; 4775,190;  246,548; 6042,887;78,12936
1025,42; 4701,652;  232,240; 5945,656;78,22662
1025,97; 4654,575;  222,240; 5867,348;78,51639
1026,51; 4537,498;  197,702; 5788,963;77,61748
1027,06; 4563,113;  214,702; 5714,963;79,05827
1027,60; 4492,575;  233,087; 5645,271;78,70183
1028,15; 4421,575;  239,625; 5542,271;78,86534
1028,69; 4321,037;  197,933; 5420,963;78,94083
1029,24; 4291,421;  226,702; 5382,271;78,84133
1029,78; 4228,652;  217,779; 5260,502;79,53784
1030,33; 4176,960;  204,394; 5155,502;80,23589
1030,87; 4156,806;  221,856; 5120,656;80,32477
1031,42; 4037,883;  203,240; 5044,194;79,21254
1031,96; 4050,421;  227,779; 4995,117;80,18399
1032,51; 3971,498;  215,779; 4894,810;80,26703
1033,05; 3936,344;  229,548; 4845,117;80,31070
1033,60; 3821,113;  193,394; 4753,656;79,55068
1034,14; 3819,344;  222,702; 4676,733;80,75028
1034,69; 3807,037;  221,240; 4599,194;81,90576
1035,23; 3727,344;  223,625; 4565,502;80,69596
1035,77; 3703,421;  226,471; 4503,271;81,29793
1036,32; 3620,267;  194,471; 4408,963;81,28609
1036,86; 3630,267;  224,010; 4393,040;81,70383
1037,41; 3552,190;  223,163; 4290,348;81,85089
1037,95; 3469,729;  197,933; 4207,271;81,60439
1038,50; 3473,267;  206,317; 4166,810;82,48848
1039,04; 3420,883;  229,933; 4143,887;81,52753
1039,58; 3362,498;  206,010; 4072,348;81,64025
1040,13; 3343,652;  226,163; 4017,271;82,23160
1040,67; 3329,806;  254,548; 3991,963;82,28301
1041,21; 3259,806;  251,240; 3921,271;81,97657
1041,76; 3187,575;  215,317; 3817,117;82,52145
1042,30; 3151,498;  218,087; 3786,348;82,20842
1042,85; 3102,037;  215,702; 3720,040;82,36461
1043,39; 3061,267;  207,240; 3680,579;82,16956
1043,93; 3032,267;  232,856; 3683,271;81,13259
1044,48; 2971,652;  230,933; 3588,887;81,61873
1045,02; 2941,421;  220,394; 3519,348;82,48151
1045,56; 2934,421;  237,548; 3511,271;82,37939
1046,11; 2885,267;  229,625; 3464,502;82,09408
1046,65; 2824,113;  234,240; 3390,963;82,04309
1047,19; 2758,883;  218,010; 3303,963;82,33672
1047,74; 2734,267;  204,010; 3279,271;82,27781
1048,28; 2720,498;  234,087; 3254,502;82,32019
1048,82; 2709,575;  249,702; 3219,040;82,84246
1049,37; 2663,883;  232,010; 3171,194;82,73972
1049,91; 2605,652;  221,240; 3126,117;82,08305
1050,45; 2587,037;  241,471; 3095,425;82,18652
1050,99; 2536,575;  232,856; 3027,348;82,43784
1051,54; 2504,498;  220,317; 2989,040;82,49943
1052,08; 2493,344;  237,010; 2958,117;82,91971
1052,62; 2447,729;  239,163; 2924,656;82,24061
1053,16; 2377,652;  212,087; 2848,425;82,14292
1053,71; 2386,267;  236,779; 2870,425;81,61645
1054,25; 2362,037;  237,779; 2782,810;83,46688
1054,79; 2319,806;  239,471; 2752,425;82,78443
1055,33; 2269,729;  207,856; 2678,348;83,46001
1055,88; 2281,729;  232,548; 2670,271;84,06126
1056,42; 2237,652;  248,240; 2650,040;82,83002
1056,96; 2224,498;  247,240; 2617,194;83,43022
1057,50; 2173,729;  238,471; 2587,348;82,39077
1058,05; 2164,267;  232,779; 2525,579;84,24147
1058,59; 2140,267;  261,625; 2518,502;83,24080
1059,13; 2068,806;  206,240; 2434,810;83,57673
1059,67; 2075,498;  236,625; 2431,810;83,76849
1060,21; 2025,037;  221,933; 2362,117;84,24992
1060,76; 2019,652;  243,471; 2345,963;84,47977
1061,30; 2014,267;  251,317; 2325,425;84,99800
1061,84; 1965,037;  238,933; 2285,425;84,34451
1062,38; 1921,344;  221,240; 2225,733;84,81469
1062,92; 1938,729;  272,471; 2270,425;83,39821
1063,46; 1911,037;  245,010; 2183,963;85,92401
1064,01; 1853,883;  225,779; 2175,579;83,50107
1064,55; 1846,267;  242,856; 2135,425;84,72142
1065,09; 1782,421;  207,702; 2084,579;83,90104
1065,63; 1830,037;  270,163; 2099,502;85,26979
1066,17; 1805,575;  259,317; 2072,887;85,26047
1066,71; 1796,037;  253,471; 2052,271;85,75525
1067,25; 1745,190;  232,548; 1992,194;85,96287
1067,80; 1756,652;  256,856; 1990,040;86,53413
1068,34; 1732,344;  271,779; 2016,656;83,70593
1068,88; 1675,267;  233,625; 1913,887;85,79869
1069,42; 1704,344;  271,087; 1923,040;86,76136
1069,96; 1653,113;  237,856; 1875,194;86,43648
1070,50; 1656,883;  276,779; 1908,194;84,59549
1071,04; 1606,344;  233,240; 1836,810;85,62797
1071,58; 1600,190;  234,856; 1806,810;86,85590
1072,12; 1584,960;  239,163; 1795,579;86,46767
1072,66; 1600,883;  236,394; 1772,194;88,84545
1073,21; 1586,190;  259,856; 1773,887;87,60288
1073,75; 1556,960;  238,933; 1738,040;87,92076
1074,29; 1539,267;  237,087; 1717,733;87,94679
1074,83; 1529,113;  257,856; 1708,502;87,63389
1075,37; 1502,652;  246,471; 1675,117;87,92805
1075,91; 1495,037;  262,163; 1664,271;87,92998
1076,45; 1465,113;  250,933; 1651,271;86,70624
1076,99; 1466,190;  262,163; 1629,348;88,06616
1077,53; 1403,113;  238,471; 1599,887;85,54643
1078,07; 1426,113;  248,702; 1604,810;86,82286
1078,61; 1412,421;  241,856; 1568,733;88,21959
1079,15; 1369,498;  232,163; 1538,963;87,03203
1079,69; 1378,806;  242,240; 1508,194;89,77937
1080,23; 1369,113;  261,933; 1514,810;88,37107
1080,77; 1379,498;  285,317; 1531,040;87,83499
1081,31; 1329,421;  238,625; 1481,733;87,74752
1081,85; 1328,960;  248,625; 1469,733;88,47169
1082,39; 1314,575;  239,240; 1426,733;90,55508
1082,93; 1311,113;  247,163; 1425,887;90,26293
1083,47; 1247,421;  226,933; 1380,810;88,43997
1084,01; 1273,344;  252,317; 1416,733;87,68580
1084,55; 1246,883;  232,471; 1388,425;87,75537
1085,09; 1252,037;  251,702; 1367,810;89,62707
1085,63; 1230,498;  254,471; 1342,271;89,72485
1086,17; 1202,883;  238,010; 1296,579;91,14879
1086,71; 1182,960;  237,317; 1306,733;88,42610
1087,24; 1215,883;  264,394; 1315,810;90,49596
1087,78; 1190,113;  255,933; 1303,271;89,19569
1088,32; 1140,652;  232,548; 1254,271;88,87965
1088,86; 1176,037;  250,548; 1267,425;91,01283
1089,40; 1146,729;  240,240; 1244,348;90,27801
1089,94; 1100,421;  220,010; 1205,810;89,30935
1090,48; 1125,806;  247,933; 1202,733;91,94314
1091,02; 1109,806;  259,317; 1201,656;90,25297
1091,56; 1098,267;  249,317; 1192,117;90,04561
1092,10; 1057,806;  223,702; 1155,887;89,47840
1092,63; 1073,113;  262,779; 1177,579;88,58052
1093,17; 1062,652;  260,163; 1161,194;89,06338
1093,71; 1039,267;  251,087; 1131,502;89,52374
1094,25; 1054,344;  265,240; 1151,963;88,99101
1094,79; 1025,113;  236,625; 1110,733;90,20496
1095,33; 1007,421;  243,163; 1102,117;88,97541
1095,87; 1011,575;  240,856; 1083,810;91,43077
1096,40;  968,421;  230,163; 1064,194;88,51684
1096,94;  983,267;  248,087; 1069,579;89,49332
1097,48;  985,498;  243,471; 1063,040;90,53865
1098,02;  936,806;  243,779; 1040,887;86,94270
1098,56;  914,344;  212,471; 1004,733;88,59108
1099,10;  927,575;  215,087;  985,963;92,42571
1099,63;  910,960;  222,317;  992,963;89,35908
1100,17;  916,344;  252,702;  991,502;89,82706
1100,71;  923,883;  259,317;  991,733;90,73613

