
Integration time [ms]: 120,000
Averaging Nr. [scans]: 13
Smoothing Nr. [pixels]: 0
Data measured with spectrometer [name]: 2009305U1
Wave   ;Sample   ;Dark     ;Reference;Reflectance
[nm]   ;[counts] ;[counts] ;[counts] ;[%]

 175,72;  205,778;  198,232;  210,419;61,91829
 176,32;  221,574;  222,999;  222,812; 0,00000
 176,92;  259,707;  245,000;  247,702;544,43280
 177,52;  265,783;  267,001;  253,977; 0,00000
 178,12;  229,455;  244,383;  234,001; 0,00000
 178,72;  264,241;  260,844;  253,275; 0,00000
 179,32;  255,934;  263,614;  252,920; 0,00000
 179,92;  256,305;  245,307;  258,324;84,48744
 180,52;  260,498;  241,080;  257,401;118,97660
 181,12;  255,480;  254,769;  255,844;66,12207
 181,73;  281,160;  268,154;  268,051; 0,00000
 182,33;  348,093;  347,463;  341,422; 0,00000
 182,93;  275,917;  268,847;  267,950; 0,00000
 183,53;  231,896;  240,152;  231,946; 0,00000
 184,13;  244,938;  248,690;  238,216; 0,00000
 184,73;  284,258;  270,997;  273,779;476,64507
 185,33;  270,443;  232,137;  349,103;32,75001
 185,93;  285,165;  246,135;  359,480;34,43482
 186,53;  290,358;  253,213;  382,070;28,82647
 187,13;  327,099;  279,984;  414,801;34,94725
 187,73;  289,480;  240,981;  362,099;40,04274
 188,33;  291,191;  250,903;  380,559;31,07278
 188,93;  293,466;  257,977;  389,456;26,99173
 189,53;  294,378;  257,513;  393,057;27,19763
 190,13;  318,274;  290,201;  407,545;23,92361
 190,73;  264,086;  229,050;  364,378;25,88946
 191,34;  308,293;  264,438;  406,663;30,83483
 191,94;  274,762;  234,902;  364,766;30,69320
 192,54;  294,748;  255,985;  396,217;27,64193
 193,14;  307,977;  273,061;  390,390;29,75904
 193,74;  295,036;  255,906;  384,088;30,52647
 194,34;  286,029;  249,599;  400,420;24,15434
 194,94;  261,957;  219,753;  357,901;30,54990
 195,54;  242,684;  199,137;  341,632;30,56077
 196,14;  262,341;  226,831;  357,590;27,15704
 196,74;  259,939;  215,829;  349,140;33,08857
 197,34;  243,084;  204,601;  359,202;24,89188
 197,94;  270,551;  234,907;  394,072;22,39445
 198,54;  273,394;  238,908;  397,622;21,72855
 199,14;  278,125;  216,217;  387,209;36,20491
 199,74;  258,683;  205,756;  383,082;29,84720
 200,34;  259,666;  196,140;  407,041;30,12109
 200,94;  287,648;  242,985;  448,588;21,72302
 201,54;  274,232;  218,601;  437,843;25,37396
 202,14;  297,551;  236,910;  484,016;24,54039
 202,74;  293,186;  230,525;  486,277;24,50093
 203,34;  272,718;  202,373;  502,145;23,46629
 203,94;  251,495;  174,757;  502,690;23,40066
 204,54;  315,192;  252,753;  588,379;18,60368
 205,14;  292,023;  206,525;  602,318;21,60189
 205,74;  332,063;  242,296;  681,014;20,46139
 206,34;  306,507;  209,064;  729,406;18,72679
 206,94;  325,427;  219,756;  786,266;18,65305
 207,54;  313,473;  196,372;  806,524;19,19211
 208,14;  335,663;  201,910;  911,898;18,83866
 208,74;  348,758;  207,217;  988,666;18,11264
 209,34;  359,847;  212,756; 1058,611;17,38964
 209,94;  389,091;  233,448; 1177,743;16,48250
 210,54;  390,382;  220,988; 1288,545;15,86748
 211,14;  413,129;  219,756; 1395,919;16,44104
 211,73;  419,745;  215,063; 1510,690;15,79790
 212,33;  461,167;  238,062; 1639,714;15,91729
 212,93;  471,565;  209,448; 1728,458;17,25579
 213,53;  459,008;  191,832; 1779,924;16,82372
 214,13;  474,556;  194,912; 1878,138;16,61361
 214,73;  497,089;  192,064; 1900,324;17,85591
 215,33;  471,861;  175,063; 1953,512;16,68855
 215,93;  514,668;  205,372; 2059,408;16,68231
 216,53;  514,040;  155,294; 2130,282;18,16448
 217,13;  588,531;  225,218; 2355,757;17,05263
 217,73;  637,708;  200,680; 2550,616;18,59742
 218,33;  642,338;  171,835; 2756,160;18,20601
 218,93;  742,934;  178,298; 3051,389;19,65254
 219,53;  803,357;  188,450; 3378,803;19,27394
 220,13;  848,159;  162,297; 3685,344;19,46787
 220,73;  943,900;  190,525; 4069,335;19,42283
 221,32; 1028,681;  199,448; 4487,436;19,33852
 221,92; 1125,769;  201,912; 4923,449;19,56686
 222,52; 1213,127;  187,603; 5348,652;19,87045
 223,12; 1301,493;  186,296; 5797,964;19,87283
 223,72; 1393,282;  196,834; 6270,837;19,69785
 224,32; 1472,312;  208,834; 6606,008;19,75056
 224,92; 1526,649;  181,296; 6936,379;19,91615
 225,52; 1621,755;  209,064; 7275,524;19,99149
 226,12; 1683,641;  191,526; 7597,223;20,14821
 226,72; 1730,587;  175,680; 7943,468;20,01738
 227,31; 1804,539;  168,680; 8381,762;19,91772
 227,91; 1903,633;  198,141; 8738,728;19,96926
 228,51; 1991,823;  187,062; 9143,184;20,15114
 229,11; 2084,783;  187,680; 9509,971;20,35019
 229,71; 2171,882;  185,371; 9816,726;20,62546
 230,31; 2229,297;  178,912;10313,536;20,23149
 230,91; 2292,563;  162,523;10599,783;20,40803
 231,51; 2347,121;  166,526;10904,987;20,30640
 232,10; 2447,693;  177,989;11271,174;20,46035
 232,70; 2457,491;  185,599;11488,805;20,09953
 233,30; 2595,763;  201,988;11777,942;20,67886
 233,90; 2601,484;  180,834;11885,467;20,68113
 234,50; 2625,020;  180,219;12027,172;20,63654
 235,10; 2650,187;  175,142;12073,456;20,80164
 235,70; 2689,127;  196,294;12184,425;20,79418
 236,29; 2673,156;  204,832;12189,721;20,59530
 236,89; 2670,309;  171,370;12123,154;20,90851
 237,49; 2657,540;  190,295;12035,409;20,82922
 238,09; 2598,584;  187,910;11811,944;20,73870
 238,69; 2556,053;  211,138;11643,233;20,51168
 239,29; 2488,332;  182,064;11287,194;20,76760
 239,89; 2440,973;  197,139;10970,014;20,82855
 240,48; 2331,151;  172,679;10623,623;20,65337
 241,08; 2280,072;  182,448;10282,560;20,76832
 241,68; 2211,801;  208,295; 9995,274;20,47114
 242,28; 2116,113;  165,757; 9625,906;20,61655
 242,88; 2072,884;  216,296; 9347,627;20,33206
 243,48; 2024,367;  218,757; 9046,613;20,45355
 244,07; 1952,046;  196,987; 8825,715;20,33972
 244,67; 1931,471;  200,526; 8683,568;20,40477
 245,27; 1896,668;  207,986; 8554,844;20,23135
 245,87; 1869,170;  208,604; 8438,569;20,17708
 246,47; 1828,024;  188,986; 8459,165;19,81865
 247,06; 1833,539;  180,525; 8441,302;20,01039
 247,66; 1849,307;  189,064; 8521,193;19,92579
 248,26; 1882,713;  219,601; 8600,640;19,84374
 248,86; 1929,063;  205,294; 8831,988;19,98180
 249,46; 1893,178;  164,142; 9039,037;19,48233
 250,05; 2033,728;  207,295; 9393,723;19,88186
 250,65; 2069,493;  175,216; 9756,709;19,77016
 251,25; 2185,980;  187,064;10234,090;19,89560
 251,85; 2281,900;  192,831;10874,878;19,55682
 252,44; 2382,248;  158,986;11393,884;19,78890
 253,04; 2592,746;  197,063;12189,412;19,97676
 253,64; 2703,217;  159,216;12868,221;20,01731
 254,24; 2940,323;  210,833;13783,773;20,10979
 254,84; 3084,255;  184,372;14673,652;20,01399
 255,43; 3304,850;  196,602;15616,214;20,15776
 256,03; 3511,353;  195,986;16569,763;20,24803
 256,63; 3727,799;  198,754;17607,679;20,27147
 257,23; 3888,017;  168,293;18412,317;20,38872
 257,82; 4128,753;  201,292;19369,700;20,48924
 258,42; 4271,522;  158,599;20155,701;20,56760
 259,02; 4539,471;  198,063;20987,648;20,88261
 259,62; 4697,183;  183,830;21623,729;21,05119
 260,21; 4813,734;  186,832;22130,698;21,08517
 260,81; 4916,756;  194,141;22595,785;21,08155
 261,41; 5032,011;  178,446;22950,886;21,31333
 262,01; 5180,348;  213,829;23372,875;21,44526
 262,60; 5210,478;  170,447;23607,624;21,50443
 263,20; 5346,547;  188,447;23973,541;21,68627
 263,80; 5429,843;  204,214;24067,264;21,89841
 264,40; 5415,830;  168,445;24262,626;21,77864
 264,99; 5489,784;  190,906;24401,722;21,88641
 265,59; 5556,069;  186,520;24468,097;22,11368
 266,19; 5550,631;  167,060;24599,984;22,03409
 266,78; 5685,004;  218,675;24698,579;22,32986
 267,38; 5644,716;  197,674;24732,069;22,20166
 267,98; 5645,966;  184,367;24764,556;22,21952
 268,58; 5683,976;  190,905;24668,363;22,44134
 269,17; 5682,856;  190,520;24681,524;22,42593
 269,77; 5667,133;  198,369;24472,295;22,52937
 270,37; 5601,278;  174,137;24319,188;22,47724
 270,96; 5587,883;  225,292;24235,424;22,33470
 271,56; 5511,366;  197,216;23960,050;22,36329
 272,16; 5495,438;  176,061;23785,080;22,53112
 272,75; 5451,655;  193,138;23710,026;22,36060
 273,35; 5411,966;  197,446;23740,550;22,14882
 273,95; 5430,136;  196,061;23627,515;22,33782
 274,54; 5445,530;  159,987;23627,266;22,52303
 275,14; 5530,519;  200,215;24053,097;22,34658
 275,74; 5515,203;  175,369;24029,370;22,38548
 276,33; 5628,984;  212,908;24433,390;22,36155
 276,93; 5712,408;  196,987;24819,699;22,39973
 277,53; 5788,868;  181,525;25312,825;22,31219
 278,12; 5894,581;  169,370;25804,393;22,33355
 278,72; 6091,478;  228,909;26367,852;22,42848
 279,32; 6198,164;  181,371;26951,341;22,47591
 279,91; 6327,902;  171,293;27685,446;22,37615
 280,51; 6527,114;  187,294;28141,295;22,67947
 281,11; 6717,853;  194,524;28898,356;22,72634
 281,70; 6846,775;  176,986;29324,094;22,88319
 282,30; 6994,136;  170,524;29980,435;22,89041
 282,90; 7139,602;  177,985;30302,684;23,10933
 283,49; 7289,370;  200,754;30855,885;23,12375
 284,09; 7518,534;  219,216;31271,796;23,50632
 284,69; 7618,303;  219,447;31600,871;23,57718
 285,28; 7761,822;  197,908;31988,615;23,79284
 285,88; 7911,365;  224,907;32159,253;24,06957
 286,47; 8009,582;  196,523;32207,580;24,40738
 287,07; 8159,144;  217,986;32268,853;24,77674
 287,67; 8313,598;  204,987;32462,151;25,13739
 288,26; 8428,077;  183,986;32327,735;25,64757
 288,86; 8584,222;  184,216;32394,700;26,07848
 289,46; 8803,172;  195,217;32567,577;26,59045
 290,05; 9052,960;  174,294;32602,448;27,37950
 290,65; 9242,735;  186,139;32847,548;27,72874
 291,24; 9523,636;  205,371;32915,486;28,48741
 291,84; 9782,876;  208,677;32980,987;29,21429
 292,44;10038,061;  195,988;33101,028;29,91053
 293,03;10282,150;  256,371;33267,671;30,37075
 293,63;10468,861;  186,524;33486,824;30,87761
 294,22;10707,954;  218,832;33596,093;31,42595
 294,82;10872,922;  193,214;33514,096;32,05110
 295,41;10886,237;  171,524;33192,325;32,44837
 296,01;11016,364;  228,830;33113,991;32,80365
 296,61;11025,746;  204,832;32864,875;33,13196
 297,20;11003,370;  186,676;32540,194;33,43282
 297,80;11003,506;  212,679;32359,528;33,56729
 298,39;10885,747;  188,370;31888,340;33,74570
 298,99;10910,623;  199,369;31800,129;33,89556
 299,58;10797,990;  201,064;31598,695;33,75072
 300,18;10793,023;  219,756;31476,239;33,82744
 300,78;10684,821;  193,294;31096,612;33,94952
 301,37;10629,536;  204,060;30989,682;33,86476
 301,97;10654,739;  211,755;31040,102;33,87461
 302,56;10571,932;  192,523;31015,544;33,67421
 303,16;10557,415;  173,985;30913,065;33,77925
 303,75;10541,559;  192,986;30947,869;33,64855
 304,35;10560,988;  186,296;31270,737;33,37584
 304,94;10544,138;  197,294;31171,496;33,40472
 305,54;10548,681;  222,602;31024,359;33,52432
 306,13;10399,590;  167,450;31036,914;33,14648
 306,73;10312,219;  175,372;30778,124;33,12397
 307,33;10276,356;  204,218;30757,391;32,96593
 307,92;10208,429;  200,986;30764,300;32,74332
 308,52;10379,352;  173,754;31205,427;32,88768
 309,11;10435,411;  189,676;31675,050;32,54125
 309,71;10515,064;  167,599;32030,689;32,47477
 310,30;10555,289;  170,371;32144,355;32,47928
 310,90;10612,443;  207,524;32439,586;32,28127
 311,49;10565,870;  199,370;32575,781;32,01868
 312,09;10575,687;  160,371;32719,022;31,98940
 312,68;10687,470;  230,832;33036,309;31,87467
 313,28;10649,352;  173,832;33232,070;31,68808
 313,87;10582,404;  150,063;33453,685;31,32494
 314,47;10645,548;  184,061;33707,162;31,20680
 315,06;10576,242;  169,063;33772,757;30,97034
 315,66;10525,918;  171,371;33983,099;30,62413
 316,25;10450,142;  158,831;33862,101;30,53505
 316,85;10388,961;  155,371;33973,787;30,26041
 317,44;10358,729;  184,215;34031,810;30,05979
 318,04;10322,881;  163,600;34028,774;29,99920
 318,63;10211,782;  165,141;34117,861;29,59009
 319,22;10178,306;  190,062;34310,245;29,27371
 319,82;10069,369;  179,139;34280,113;29,00278
 320,41; 9970,216;  193,293;34189,114;28,75919
 321,01; 9909,556;  197,525;34335,344;28,44948
 321,60; 9841,538;  185,293;34326,121;28,28357
 322,20; 9751,137;  182,986;34352,155;28,00229
 322,79; 9708,959;  220,448;34463,495;27,70931
 323,39; 9654,371;  178,449;34452,322;27,64765
 323,98; 9515,220;  177,371;34414,128;27,27434
 324,58; 9381,299;  182,677;34271,088;26,98460
 325,17; 9371,412;  182,600;34070,232;27,11553
 325,76; 9195,259;  208,370;33980,183;26,61062
 326,36; 9024,330;  162,140;33523,439;26,56428
 326,95; 8932,602;  196,909;33256,528;26,42406
 327,55; 8708,378;  172,601;32885,610;26,09291
 328,14; 8504,973;  180,295;32524,885;25,73747
 328,74; 8451,297;  210,062;32124,517;25,82289
 329,33; 8266,569;  193,525;31744,244;25,58751
 329,92; 8059,580;  173,061;31079,366;25,51751
 330,52; 7814,830;  189,756;30560,953;25,10627
 331,11; 7663,870;  182,447;30156,551;24,95962
 331,71; 7479,209;  190,678;29492,216;24,87423
 332,30; 7329,677;  212,140;29062,957;24,67014
 332,89; 7198,150;  229,679;28588,208;24,57275
 333,49; 7013,395;  195,524;28039,266;24,48619
 334,08; 6825,739;  190,678;27588,411;24,21756
 334,68; 6652,811;  187,216;27199,778;23,93551
 335,27; 6577,101;  205,372;26844,961;23,91827
 335,86; 6430,332;  236,755;26638,397;23,45906
 336,46; 6363,116;  200,372;26340,586;23,57572
 337,05; 6314,514;  191,601;26166,384;23,57253
 337,65; 6198,143;  166,370;25964,208;23,38093
 338,24; 6212,378;  223,217;26016,146;23,22017
 338,83; 6126,446;  211,602;25854,725;23,06601
 339,43; 6068,619;  176,369;25878,725;22,92494
 340,02; 6053,232;  188,446;25735,002;22,95725
 340,61; 6011,834;  182,525;25779,943;22,77304
 341,21; 5997,066;  226,600;25755,517;22,60365
 341,80; 5979,229;  184,370;25715,782;22,69698
 342,40; 6012,513;  183,526;25854,917;22,70616
 342,99; 5970,073;  199,986;25929,901;22,42560
 343,58; 6029,262;  185,525;26089,167;22,55952
 344,18; 6012,729;  193,987;26219,986;22,35742
 344,77; 6063,929;  181,600;26489,404;22,35964
 345,36; 6082,140;  170,524;26754,067;22,23788
 345,96; 6213,387;  207,833;27107,181;22,32602
 346,55; 6262,540;  174,526;27293,100;22,44961
 347,14; 6301,816;  169,756;27558,898;22,38865
 347,74; 6376,037;  151,528;28024,010;22,33210
 348,33; 6524,300;  184,143;28756,291;22,18999
 348,92; 6645,673;  191,913;29284,528;22,18350
 349,52; 6761,891;  166,528;29692,091;22,33781
 350,11; 6785,693;  183,446;29887,278;22,22692
 350,70; 6850,761;  181,601;29977,576;22,38275
 351,29; 6770,110;  165,598;29773,027;22,30694
 351,89; 6767,387;  189,061;29860,235;22,17076
 352,48; 6789,304;  166,294;29695,595;22,42861
 353,07; 6807,015;  193,680;29679,002;22,42925
 353,67; 6823,011;  201,067;29651,315;22,48519
 354,26; 6741,225;  186,680;29352,328;22,47351
 354,85; 6710,111;  190,987;29271,922;22,41717
 355,45; 6659,175;  167,908;29071,181;22,45859
 356,04; 6688,098;  187,680;29098,051;22,48473
 356,63; 6671,155;  211,293;28694,153;22,67982
 357,22; 6662,129;  187,368;28654,898;22,74437
 357,82; 6620,239;  192,676;28523,825;22,68727
 358,41; 6640,066;  196,063;28371,206;22,87124
 359,00; 6612,335;  182,600;28186,847;22,95986
 359,60; 6608,277;  191,525;28141,716;22,95781
 360,19; 6565,278;  187,065;27957,205;22,96788
 360,78; 6624,941;  192,447;27765,040;23,32930
 361,37; 6554,191;  181,755;27625,452;23,22004
 361,97; 6570,853;  187,216;27532,356;23,34469
 362,56; 6518,726;  176,677;27104,821;23,55175
 363,15; 6538,416;  215,601;26925,095;23,67254
 363,74; 6475,361;  189,676;26618,927;23,78306
 364,34; 6403,984;  220,754;26284,775;23,72324
 364,93; 6332,979;  181,907;25807,297;24,00382
 365,52; 6284,485;  150,832;25444,167;24,25008
 366,11; 6243,282;  189,293;25161,508;24,24290
 366,71; 6194,768;  176,908;24765,784;24,47391
 367,30; 6113,246;  186,678;24437,899;24,43822
 367,89; 6160,452;  227,141;24259,388;24,68896
 368,48; 6094,400;  206,061;23956,519;24,79253
 369,07; 6025,377;  197,909;23527,192;24,97920
 369,67; 5983,373;  212,754;23270,487;25,02683
 370,26; 5952,262;  175,602;22985,630;25,32509
 370,85; 5954,000;  187,447;22741,275;25,56796
 371,44; 5910,247;  183,832;22530,315;25,62558
 372,03; 5838,469;  165,369;22359,743;25,56098
 372,63; 5816,645;  163,601;21974,908;25,91795
 373,22; 5848,111;  178,371;21710,540;26,33149
 373,81; 5770,283;  169,832;21369,692;26,41740
 374,40; 5764,151;  179,141;21191,469;26,57968
 374,99; 5662,449;  182,293;20946,407;26,39244
 375,59; 5649,684;  174,525;20635,804;26,75863
 376,18; 5735,205;  210,908;20572,968;27,13034
 376,77; 5660,383;  199,370;20281,012;27,19405
 377,36; 5718,081;  211,755;20271,524;27,44960
 377,95; 5640,961;  193,216;20011,761;27,48812
 378,55; 5662,940;  178,064;19801,497;27,95065
 379,14; 5693,211;  192,370;19741,171;28,13902
 379,73; 5704,462;  195,908;19691,969;28,25470
 380,32; 5775,801;  196,601;19666,940;28,65487
 380,91; 5768,589;  184,600;19659,632;28,67255
 381,50; 5783,668;  195,446;19508,233;28,93535
 382,10; 5798,031;  173,678;19391,016;29,26708
 382,69; 5809,523;  156,832;19421,728;29,34193
 383,28; 5860,026;  204,139;19306,047;29,60902
 383,87; 5862,131;  191,369;19176,341;29,86974
 384,46; 5886,149;  177,984;19199,309;30,00929
 385,05; 5960,183;  210,677;19173,111;30,32051
 385,64; 5934,821;  194,293;19153,123;30,27891
 386,24; 5975,802;  171,291;19108,408;30,65150
 386,83; 6063,266;  200,906;19125,626;30,97726
 387,42; 6163,552;  202,139;19266,408;31,27009
 388,01; 6283,054;  208,059;19417,625;31,62484
 388,60; 6371,607;  191,291;19735,629;31,62203
 389,19; 6453,103;  169,135;19833,873;31,95551
 389,78; 6613,664;  182,135;20059,963;32,35529
 390,37; 6806,359;  233,214;20570,252;32,32105
 390,96; 6907,940;  195,214;20658,476;32,80379
 391,56; 6974,334;  195,134;20803,875;32,89478
 392,15; 7121,801;  174,597;21089,691;33,21622
 392,74; 7179,229;  162,671;21180,586;33,38370
 393,33; 7376,443;  185,134;21576,771;33,61738
 393,92; 7532,283;  200,978;21935,390;33,73132
 394,51; 7683,505;  181,826;22097,532;34,22969
 395,10; 7774,655;  208,129;22368,729;34,14405
 395,69; 7873,226;  195,745;22392,578;34,58818
 396,28; 7978,414;  208,513;22519,664;34,82519
 396,87; 8050,568;  203,664;22622,717;35,00105
 397,46; 8150,402;  206,970;22752,930;35,23218
 398,06; 8262,974;  220,968;22949,909;35,38223
 398,65; 8364,609;  207,041;22986,304;35,81138
 399,24; 8469,067;  223,117;23235,520;35,83263
 399,83; 8495,236;  196,187;23133,642;36,18121
 400,42; 8647,606;  231,027;23312,897;36,46402
 401,01; 8740,576;  211,020;23466,838;36,67708
 401,60; 8757,694;  223,241;23458,475;36,73065
 402,19; 8825,216;  244,310;23392,011;37,07023
 402,78; 8892,557;  222,606;23440,235;37,34210
 403,37; 8862,716;  220,441;23274,040;37,48775
 403,96; 8892,895;  218,889;23141,847;37,83982
 404,55; 8948,235;  235,029;23039,048;38,20908
 405,14; 8869,542;  209,862;22834,009;38,27627
 405,73; 8879,397;  226,692;22810,321;38,31406
 406,32; 8946,997;  230,451;22740,758;38,72246
 406,91; 8893,156;  223,439;22478,874;38,95551
 407,50; 8887,478;  234,048;22281,577;39,24898
 408,09; 8782,668;  214,505;22020,473;39,29274
 408,68; 8825,511;  226,733;21955,542;39,57317
 409,27; 8811,769;  219,276;21694,054;40,01202
 409,86; 8808,947;  237,823;21621,933;40,08174
 410,45; 8849,119;  258,908;21500,383;40,44075
 411,04; 8837,515;  249,378;21394,366;40,61547
 411,63; 8816,898;  241,235;21145,549;41,02341
 412,22; 8785,015;  248,321;20999,238;41,13888
 412,81; 8740,054;  262,171;20693,005;41,49553
 413,40; 8662,435;  260,790;20386,652;41,74552
 413,99; 8569,383;  297,943;20125,317;41,71728
 414,58; 8401,464;  236,021;19777,255;41,78571
 415,17; 8413,074;  246,709;19475,878;42,46863
 415,76; 8335,896;  242,859;19416,583;42,20900
 416,35; 8304,031;  225,553;19238,504;42,48934
 416,94; 8410,241;  264,629;19292,064;42,80983
 417,53; 8544,024;  247,709;19521,601;43,04431
 418,12; 8641,028;  230,095;19581,001;43,46532
 418,71; 8879,311;  248,790;19924,131;43,86466
 419,30; 8944,430;  248,403;19962,457;44,11080
 419,89; 9058,683;  233,481;20207,007;44,18450
 420,48; 9278,124;  259,406;20394,742;44,79050
 421,07; 9353,305;  253,945;20457,002;45,03952
 421,66; 9387,753;  228,562;20558,819;45,05202
 422,25; 9406,749;  243,720;20474,513;45,29248
 422,84; 9476,612;  268,567;20483,890;45,54983
 423,43; 9331,254;  238,181;20233,819;45,47529
 424,02; 9288,281;  259,335;19981,925;45,77972
 424,60; 9169,703;  239,878;19609,580;46,10202
 425,19; 9035,568;  247,876;19286,044;46,15829
 425,78; 9080,474;  259,107;19256,157;46,43546
 426,37; 9085,909;  268,493;19049,382;46,94888
 426,96; 9052,544;  253,032;18976,178;46,99804
 427,55; 9033,898;  247,727;18795,691;47,37000
 428,14; 8968,856;  225,497;18621,678;47,52812
 428,73; 8919,147;  247,264;18431,843;47,68811
 429,32; 8995,594;  260,185;18434,379;48,06491
 429,91; 9012,177;  266,572;18413,399;48,19358
 430,50; 8970,513;  254,265;18250,305;48,43425
 431,08; 8896,416;  276,113;18093,042;48,38265
 431,67; 8943,486;  310,806;18095,681;48,53945
 432,26; 8839,570;  328,115;17841,605;48,59942
 432,85; 8709,479;  344,038;17573,706;48,55254
 433,44; 8621,743;  352,655;17178,474;49,14523
 434,03; 8478,233;  369,581;16821,561;49,28679
 434,62; 8299,643;  326,655;16469,075;49,39153
 435,21; 8248,828;  345,423;16295,099;49,55214
 435,79; 8190,128;  337,580;16106,116;49,79884
 436,38; 8152,527;  338,582;16042,579;49,75768
 436,97; 8166,958;  334,275;15932,329;50,21577
 437,56; 8086,618;  330,586;15779,839;50,20329
 438,15; 8096,542;  306,046;15654,611;50,75716
 438,74; 8174,276;  317,508;15719,881;51,01011
 439,33; 8185,920;  302,969;15707,869;51,17171
 439,91; 8232,114;  260,432;15743,950;51,48495
 440,50; 8273,548;  308,048;15786,379;51,46227
 441,09; 8400,905;  309,973;15868,264;52,00399
 441,68; 8381,940;  282,283;15887,710;51,90282
 442,27; 8365,600;  265,743;15888,324;51,84711
 442,86; 8388,058;  249,902;15819,201;52,27053
 443,44; 8490,183;  273,978;15920,526;52,51130
 444,03; 8554,376;  311,363;15938,500;52,74807
 444,62; 8483,506;  266,286;15852,685;52,72045
 445,21; 8393,673;  277,132;15697,895;52,63385
 445,80; 8378,520;  301,211;15535,842;53,01939
 446,39; 8285,924;  308,826;15304,871;53,19468
 446,97; 8220,846;  267,213;15166,554;53,38244
 447,56; 8112,193;  271,600;14915,865;53,54037
 448,15; 8036,110;  272,829;14806,482;53,41590
 448,74; 7958,579;  290,060;14441,409;54,18931
 449,33; 7927,949;  275,061;14370,042;54,29513
 449,91; 7795,238;  271,064;14160,501;54,17191
 450,50; 7670,781;  269,217;13986,905;53,95635
 451,09; 7702,476;  285,833;13916,968;54,40958
 451,68; 7657,260;  298,218;13832,820;54,37206
 452,26; 7606,852;  286,912;13740,803;54,40761
 452,85; 7514,677;  274,911;13642,131;54,16060
 453,44; 7607,911;  292,452;13654,754;54,74700
 454,03; 7595,378;  271,374;13603,163;54,93640
 454,61; 7572,207;  258,068;13558,731;54,99078
 455,20; 7691,001;  287,915;13737,189;55,04450
 455,79; 7686,424;  301,529;13726,756;55,00760
 456,38; 7758,504;  293,148;13805,763;55,24731
 456,97; 7853,850;  277,378;13882,633;55,68783
 457,55; 7846,724;  272,764;13880,692;55,65843
 458,14; 7841,946;  305,993;13833,969;55,70644
 458,73; 7819,173;  289,149;13798,130;55,74087
 459,31; 7897,616;  311,997;13868,667;55,95488
 459,90; 7956,692;  324,303;13891,716;56,25530
 460,49; 7991,075;  354,149;13949,532;56,17294
 461,08; 8018,659;  278,844;14079,044;56,08480
 461,66; 8042,528;  286,458;14142,138;55,97755
 462,25; 8100,846;  285,383;14221,508;56,08060
 462,84; 8170,878;  323,690;14247,021;56,35999
 463,43; 8146,997;  260,770;14195,085;56,59573
 464,01; 8142,660;  290,232;14209,403;56,41448
 464,60; 8168,095;  330,308;14153,992;56,69825
 465,19; 7985,565;  265,002;13926,944;56,51146
 465,77; 7988,542;  293,003;13930,158;56,43067
 466,36; 7970,560;  309,847;13888,745;56,41630
 466,95; 7754,158;  301,924;13501,396;56,45858
 467,53; 7605,496;  285,081;13242,512;56,49588
 468,12; 7540,600;  314,312;12987,235;57,02148
 468,71; 7382,986;  297,310;12749,242;56,90423
 469,29; 7256,631;  268,082;12517,745;57,05095
 469,88; 7143,948;  289,237;12300,856;57,06734
 470,47; 7203,595;  337,161;12425,316;56,80300
 471,06; 7166,169;  297,700;12388,429;56,80773
 471,64; 7256,923;  307,699;12453,883;57,21323
 472,23; 7221,521;  283,318;12457,863;56,98943
 472,81; 7283,014;  270,701;12603,579;56,85869
 473,40; 7375,945;  291,549;12710,994;57,04278
 473,99; 7583,301;  367,549;12900,623;57,57368
 474,57; 7538,834;  290,087;12986,650;57,09219
 475,16; 7651,874;  302,702;13150,632;57,20121
 475,75; 7696,708;  317,397;13266,786;56,98578
 476,33; 7797,876;  325,167;13372,406;57,27426
 476,92; 7771,506;  323,703;13401,160;56,95146
 477,51; 7835,370;  321,474;13444,073;57,25920
 478,09; 7881,697;  326,013;13444,562;57,59543
 478,68; 7789,602;  317,782;13379,872;57,20233
 479,27; 7869,641;  332,550;13453,238;57,44433
 479,85; 7845,899;  304,090;13473,189;57,26898
 480,44; 7859,935;  309,552;13619,486;56,72742
 481,02; 8722,880;  311,015;15045,880;57,08817
 481,61; 9806,408;  340,399;16952,352;56,98312
 482,20;10462,308;  329,554;18054,568;57,16641
 482,78;10921,595;  358,398;18750,283;57,43401
 483,37;11217,678;  359,479;19340,123;57,20670
 483,95;11366,999;  367,402;19544,868;57,35689
 484,54;11422,420;  386,553;19676,683;57,20991
 485,13;11384,938;  351,634;19569,904;57,41050
 485,71;11255,495;  330,941;19445,978;57,15162
 486,30;11116,361;  362,865;19124,082;57,31769
 486,88;10940,187;  399,096;18757,900;57,41709
 487,47;10519,090;  390,711;18039,564;57,38832
 488,05;10010,458;  375,404;17197,521;57,27611
 488,64; 9290,905;  356,867;15897,462;57,48839
 489,23; 8230,265;  377,943;14048,927;57,43787
 489,81; 7063,832;  376,636;12122,681;56,93147
 490,40; 6688,344;  324,329;11543,372;56,72512
 490,98; 6588,803;  321,868;11331,845;56,92051
 491,57; 6509,565;  337,405;11301,075;56,29647
 492,15; 6498,171;  334,868;11192,881;56,76271
 492,74; 6428,820;  327,097;11134,353;56,45950
 493,32; 6358,926;  338,329;10987,289;56,53695
 493,91; 6298,740;  318,869;10888,774;56,57450
 494,50; 6274,256;  338,102;10880,015;56,31003
 495,08; 6194,688;  312,410;10854,613;55,79743
 495,67; 6230,137;  339,484;10852,413;56,03246
 496,25; 6155,685;  281,947;10677,861;56,50045
 496,84; 6163,439;  289,330;10695,364;56,44907
 497,42; 6099,522;  286,717;10586,131;56,43822
 498,01; 6062,562;  305,484;10542,191;56,23955
 498,59; 6031,818;  261,178;10485,338;56,44121
 499,18; 5997,021;  267,638;10470,358;56,15545
 499,76; 6000,806;  290,947;10417,780;56,38347
 500,35; 5835,095;  294,026;10184,163;56,02621
 500,93; 5799,103;  286,024;10163,480;55,81477
 501,52; 5755,389;  292,024;10117,959;55,60148
 502,10; 5751,355;  290,719;10070,870;55,83387
 502,69; 5633,306;  273,951; 9895,469;55,70177
 503,27; 5553,906;  273,256; 9776,974;55,56405
 503,86; 5495,961;  273,258; 9654,524;55,67162
 504,44; 5399,355;  257,797; 9562,173;55,25956
 505,03; 5287,225;  246,336; 9329,218;55,49878
 505,61; 5220,082;  267,951; 9232,518;55,24116
 506,19; 5129,469;  281,797; 9115,427;54,87747
 506,78; 5015,479;  251,030; 8906,719;55,04413
 507,36; 4934,762;  265,566; 8781,649;54,82798
 507,95; 4861,670;  263,108; 8600,201;55,15786
 508,53; 4789,949;  266,261; 8468,217;55,15378
 509,12; 4734,105;  263,184; 8343,016;55,33432
 509,70; 4629,619;  284,108; 8203,816;54,86958
 510,29; 4528,128;  292,416; 8086,442;54,34562
 510,87; 4378,132;  248,107; 7901,204;53,96541
 511,46; 4323,141;  254,722; 7719,546;54,50120
 512,04; 4233,434;  268,877; 7598,643;54,08846
 512,62; 4121,545;  263,415; 7482,035;53,44692
 513,21; 4047,316;  245,263; 7304,631;53,85827
 513,79; 3966,543;  255,881; 7196,405;53,46371
 514,38; 3875,225;  241,188; 7052,648;53,35181
 514,96; 3851,666;  279,418; 6977,667;53,33107
 515,54; 3723,609;  238,803; 6844,647;52,75339
 516,13; 3682,087;  264,419; 6729,764;52,86135
 516,71; 3626,806;  256,651; 6611,484;53,03295
 517,30; 3502,423;  241,806; 6496,512;52,13062
 517,88; 3501,052;  281,652; 6388,874;52,71463
 518,46; 3418,115;  233,268; 6311,203;52,40015
 519,05; 3347,460;  258,576; 6290,838;51,20606
 519,63; 3319,278;  254,653; 6214,161;51,42412
 520,22; 3322,257;  274,962; 6160,667;51,77451
 520,80; 3285,408;  267,424; 6117,449;51,58925
 521,38; 3242,817;  288,730; 6112,729;50,72266
 521,97; 3225,291;  251,271; 6062,392;51,17808
 522,55; 3198,988;  272,502; 6023,410;50,88738
 523,13; 3171,312;  245,656; 5997,218;50,86716
 523,72; 3132,513;  250,268; 5997,873;50,14689
 524,30; 3243,565;  285,349; 6102,152;50,85639
 524,89; 3185,057;  252,886; 6138,944;49,81554
 525,47; 3259,170;  269,888; 6246,468;50,01659
 526,05; 3259,595;  242,657; 6297,784;49,82452
 526,64; 3343,071;  265,581; 6427,253;49,94570
 527,22; 3382,895;  272,042; 6559,626;49,47613
 527,80; 3457,551;  296,581; 6676,402;49,54637
 528,39; 3464,385;  269,659; 6757,762;49,23975
 528,97; 3549,011;  257,966; 6894,678;49,58849
 529,55; 3615,360;  266,425; 7041,462;49,43050
 530,14; 3707,741;  280,044; 7277,928;48,98190
 530,72; 3724,338;  265,658; 7380,397;48,61289
 531,30; 3761,891;  255,505; 7498,249;48,41240
 531,89; 3781,228;  268,736; 7591,389;47,96747
 532,47; 3822,588;  305,275; 7668,266;47,77017
 533,05; 3845,070;  291,042; 7672,299;48,14936
 533,63; 3868,932;  296,506; 7775,717;47,76474
 534,22; 3830,312;  254,660; 7820,315;47,26163
 534,80; 3872,536;  289,353; 7861,876;47,31821
 535,38; 3922,884;  368,121; 7993,475;46,61768
 535,97; 3848,810;  277,198; 7937,537;46,62472
 536,55; 3900,788;  328,661; 7963,935;46,78453
 537,13; 3848,294;  325,890; 7916,937;46,40208
 537,71; 3877,682;  375,659; 8011,924;45,86041
 538,30; 3897,850;  395,891; 8048,082;45,76413
 538,88; 3945,268;  425,893; 8152,728;45,54744
 539,46; 4023,233;  501,430; 8333,433;44,96682
 540,05; 4066,110;  504,431; 8447,404;44,84063
 540,63; 4143,741;  553,123; 8633,335;44,43717
 541,21; 4172,739;  583,124; 8780,301;43,79086
 541,79; 4267,767;  638,816; 8958,365;43,61957
 542,38; 4301,729;  656,739; 9099,237;43,17431
 542,96; 4355,311;  677,433; 9231,873;42,99380
 543,54; 4432,074;  678,893; 9416,334;42,95515
 544,12; 4480,241;  648,124; 9561,771;42,99157
 544,70; 4497,986;  629,433; 9644,262;42,91321
 545,29; 4518,234;  637,892; 9802,617;42,33997
 545,87; 4552,075;  627,355; 9826,442;42,66424
 546,45; 4509,588;  559,738; 9782,060;42,82924
 547,03; 4560,811;  554,739; 9881,362;42,95309
 547,62; 4548,000;  519,970;10033,396;42,34047
 548,20; 4654,954;  508,356;10161,597;42,95550
 548,78; 4637,523;  480,512;10255,562;42,52675
 549,36; 4743,232;  436,666;10491,911;42,82905
 549,94; 4743,224;  398,048;10597,114;42,60367
 550,53; 4834,944;  397,973;10830,094;42,53182
 551,11; 4825,312;  376,436;10998,818;41,88209
 551,69; 4979,347;  385,819;11316,396;42,02457
 552,27; 5020,116;  359,434;11509,860;41,79824
 552,85; 5173,446;  360,666;11837,176;41,93592
 553,44; 5277,534;  353,973;12151,093;41,73528
 554,02; 5358,206;  366,281;12565,603;40,91969
 554,60; 5462,592;  310,667;12796,786;41,26122
 555,18; 5603,261;  346,050;13166,513;41,00640
 555,76; 5711,538;  327,666;13540,033;40,74873
 556,34; 5870,251;  326,668;13929,163;40,75416
 556,93; 5973,810;  311,358;14257,812;40,60137
 557,51; 6094,703;  300,744;14553,665;40,65103
 558,09; 6243,891;  322,512;14936,214;40,51936
 558,67; 6312,750;  327,053;15262,106;40,07817
 559,25; 6389,033;  332,899;15508,063;39,90820
 559,83; 6454,540;  312,515;15873,086;39,47172
 560,41; 6551,767;  305,667;16228,766;39,22666
 561,00; 6666,952;  315,207;16482,120;39,28854
 561,58; 6728,525;  311,436;16729,237;39,08617
 562,16; 6799,845;  304,974;16986,493;38,93453
 562,74; 6942,432;  278,897;17447,277;38,81284
 563,32; 7069,289;  283,130;17796,444;38,74857
 563,90; 7158,389;  306,053;18141,613;38,41952
 564,48; 7227,513;  312,205;18554,215;37,90870
 565,06; 7487,339;  304,053;19163,184;38,08917
 565,65; 7691,335;  307,286;19820,114;37,84203
 566,23; 7921,793;  349,053;20461,409;37,65218
 566,81; 8084,937;  297,283;21267,420;37,13688
 567,39; 8363,413;  305,823;21980,194;37,17566
 567,97; 8530,694;  322,360;22651,935;36,75992
 568,55; 8829,481;  332,592;23414,544;36,81183
 569,13; 8987,323;  307,207;24091,527;36,49512
 569,71; 9266,057;  300,666;25027,927;36,25711
 570,29; 9632,535;  340,589;26006,893;36,20290
 570,87; 9793,636;  331,358;26633,322;35,97556
 571,45; 9959,018;  326,437;27210,283;35,83037
 572,03;10102,829;  303,670;27631,397;35,85794
 572,61;10274,129;  301,977;28386,010;35,50826
 573,20;10454,819;  320,591;28968,566;35,37503
 573,78;10592,852;  307,823;29651,412;35,05034
 574,36;10751,190;  323,361;30026,431;35,10691
 574,94;10863,784;  374,977;30406,676;34,92578
 575,52;10825,151;  325,671;30646,784;34,62762
 576,10;11016,337;  390,132;31175,682;34,51686
 576,68;11086,757;  367,823;31739,646;34,16739
 577,26;11290,831;  380,057;32271,760;34,21195
 577,84;11357,119;  390,438;32837,404;33,79879
 578,42;11445,427;  418,747;33024,815;33,81788
 579,00;11414,722;  380,823;33226,996;33,59265
 579,58;11454,443;  414,901;33436,056;33,43173
 580,16;11328,463;  395,747;33485,806;33,03928
 580,74;11367,878;  395,594;33619,439;33,02533
 581,32;11286,204;  388,978;33668,667;32,74438
 581,90;11240,574;  414,440;33559,656;32,66273
 582,48;11223,257;  401,670;33812,312;32,38964
 583,06;11194,073;  412,901;33964,142;32,13345
 583,64;11113,043;  405,516;33988,124;31,88414
 584,22;10985,303;  416,518;33820,059;31,63971
 584,80;10920,957;  419,824;33512,933;31,73208
 585,38;10701,495;  435,821;33128,679;31,40036
 585,96;10706,758;  399,054;33273,832;31,35445
 586,54;10654,146;  417,056;33350,689;31,08400
 587,12;10644,116;  394,594;33466,981;30,99118
 587,70;10666,327;  429,285;33575,542;30,88446
 588,28;10605,558;  400,748;33627,415;30,71271
 588,86;10589,989;  404,902;33703,781;30,58688
 589,44;10549,011;  387,596;33804,327;30,40817
 590,02;10557,906;  398,057;34039,496;30,20040
 590,59;10502,872;  367,979;34229,540;29,93038
 591,17;10581,725;  375,059;34360,951;30,03207
 591,75;10519,542;  365,366;34489,090;29,75694
 592,33;10559,571;  378,442;34773,616;29,60046
 592,91;10609,514;  322,212;35003,133;29,66271
 593,49;10610,455;  337,675;35308,742;29,37508
 594,07;10613,488;  356,675;35484,669;29,19840
 594,65;10583,633;  358,979;35567,458;29,04032
 595,23;10651,275;  355,288;35855,257;29,00281
 595,81;10583,847;  344,827;35961,875;28,74753
 596,39;10533,829;  341,673;36184,187;28,43594
 596,97;10577,466;  352,366;36317,658;28,43047
 597,55;10474,359;  331,518;36207,384;28,27204
 598,12;10421,565;  320,137;36068,514;28,25703
 598,70;10387,465;  328,367;36337,010;27,93523
 599,28;10390,229;  337,674;36525,377;27,77893
 599,86;10348,839;  325,520;36508,943;27,70141
 600,44;10284,737;  297,136;36706,358;27,43152
 601,02;10274,070;  352,292;36715,274;27,28538
 601,60;10221,739;  324,750;36643,624;27,25026
 602,18;10139,122;  306,906;36690,202;27,02398
 602,75;10081,509;  302,673;36746,550;26,83259
 603,33;10038,124;  326,136;36774,083;26,64619
 603,91; 9997,937;  316,522;36763,182;26,56324
 604,49; 9988,341;  331,136;36830,182;26,45879
 605,07; 9913,676;  340,443;36880,063;26,19960
 605,65; 9840,783;  353,906;36951,769;25,92194
 606,23; 9889,572;  419,210;37090,468;25,82503
 606,80; 9829,076;  456,211;37144,690;25,54716
 607,38; 9791,699;  510,445;37148,870;25,33202
 607,96; 9753,186;  551,596;37289,233;25,04677
 608,54; 9760,042;  620,136;37268,063;24,93976
 609,12; 9746,995;  613,442;37294,210;24,90011
 609,70; 9673,415;  668,443;37341,273;24,55489
 610,27; 9681,983;  664,211;37314,958;24,60461
 610,85; 9626,020;  666,136;37472,359;24,34339
 611,43; 9556,594;  674,751;37421,350;24,17052
 612,01; 9488,809;  638,442;37164,389;24,23035
 612,59; 9448,698;  646,751;37300,305;24,01390
 613,16; 9333,813;  595,672;37175,381;23,88795
 613,74; 9290,811;  570,290;37044,680;23,90862
 614,32; 9216,235;  531,521;36990,963;23,82021
 614,90; 9169,626;  491,443;36893,401;23,83988
 615,48; 9022,767;  434,210;36582,507;23,75923
 616,05; 8943,359;  410,748;36644,078;23,54907
 616,63; 8885,489;  415,748;36435,496;23,51416
 617,21; 8808,036;  413,365;36356,836;23,35520
 617,79; 8713,771;  394,288;36181,599;23,24702
 618,36; 8635,166;  396,135;36141,434;23,04927
 618,94; 8538,870;  334,211;35768,968;23,15427
 619,52; 8416,688;  371,594;35508,830;22,89620
 620,10; 8398,808;  358,980;35572,437;22,83169
 620,67; 8306,484;  357,902;35415,093;22,67319
 621,25; 8273,946;  389,135;35378,809;22,53468
 621,83; 8197,432;  360,672;35311,397;22,42231
 622,41; 8173,960;  399,134;35318,176;22,26529
 622,98; 8062,984;  358,825;35061,808;22,20028
 623,56; 8017,044;  366,517;35068,153;22,04659
 624,14; 7962,484;  340,905;34925,731;22,03735
 624,72; 7900,721;  352,980;34874,832;21,86366
 625,29; 7861,270;  316,594;34884,442;21,82570
 625,87; 7910,281;  369,981;34859,382;21,86266
 626,45; 7769,859;  332,594;34617,950;21,69225
 627,02; 7729,980;  341,211;34593,123;21,57184
 627,60; 7700,540;  321,598;34492,901;21,59397
 628,18; 7693,149;  315,288;34596,826;21,52138
 628,76; 7600,860;  315,979;34662,134;21,21018
 629,33; 7590,347;  334,287;34607,132;21,17145
 629,91; 7583,808;  328,826;34527,898;21,21397
 630,49; 7624,392;  338,441;34792,698;21,14674
 631,06; 7573,760;  329,133;34793,120;21,02086
 631,64; 7529,350;  345,132;34797,352;20,85270
 632,22; 7486,844;  294,516;34767,635;20,86358
 632,79; 7545,916;  326,209;35036,694;20,79979
 633,37; 7545,492;  309,673;35072,122;20,81504
 633,95; 7532,536;  317,824;35181,941;20,69380
 634,52; 7559,677;  302,441;35231,760;20,77692
 635,10; 7461,681;  294,903;35243,007;20,50691
 635,68; 7483,022;  304,439;35492,142;20,40083
 636,25; 7487,594;  284,284;35477,380;20,46796
 636,83; 7466,552;  279,133;35636,826;20,32774
 637,41; 7439,298;  295,824;35629,862;20,21698
 637,98; 7533,778;  313,593;35981,858;20,24260
 638,56; 7458,187;  300,130;35852,521;20,13383
 639,13; 7433,228;  290,671;36001,247;20,00124
 639,71; 7495,265;  316,441;36174,423;20,02016
 640,29; 7389,513;  262,364;35961,608;19,96443
 640,86; 7406,115;  278,364;36177,102;19,85516
 641,44; 7426,640;  282,133;36150,673;19,91859
 642,02; 7382,627;  303,287;36124,244;19,76312
 642,59; 7387,998;  278,595;36216,507;19,78246
 643,17; 7325,907;  284,441;36222,308;19,59345
 643,74; 7335,202;  283,749;36272,264;19,59362
 644,32; 7325,727;  308,902;36206,450;19,54681
 644,89; 7286,405;  293,287;36213,636;19,46840
 645,47; 7316,546;  316,749;36321,361;19,44139
 646,05; 7270,840;  286,826;36147,855;19,47522
 646,62; 7237,673;  286,056;36127,348;19,39555
 647,20; 7288,582;  300,057;36326,919;19,39810
 647,77; 7207,415;  265,518;36254,259;19,28908
 648,35; 7187,786;  268,749;36051,984;19,33597
 648,92; 7199,157;  293,518;36028,555;19,32456
 649,50; 7073,528;  258,211;36084,433;19,02327
 650,08; 7113,823;  268,595;35998,773;19,15811
 650,65; 7106,502;  279,288;36151,806;19,03188
 651,23; 7261,642;  260,826;37044,146;19,03258
 651,80; 7403,090;  263,442;37736,101;19,05295
 652,38; 7502,077;  276,980;38133,056;19,08570
 652,95; 7565,755;  240,672;38555,396;19,11819
 653,53; 7582,742;  281,672;38761,506;18,97376
 654,10; 7653,652;  298,749;38927,538;19,03995
 654,68; 7591,869;  253,365;38797,340;19,03930
 655,25; 7600,778;  259,596;38915,295;18,99120
 655,83; 7610,150;  258,288;38956,866;18,99776
 656,40; 7606,521;  285,673;38901,975;18,95792
 656,98; 7586,123;  261,827;38894,007;18,95905
 657,55; 7536,417;  270,057;38727,809;18,89439
 658,13; 7448,480;  260,673;38412,611;18,83995
 658,70; 7394,082;  282,058;38101,027;18,80544
 659,28; 7212,684;  256,750;37210,521;18,82334
 659,85; 7083,440;  276,673;36512,323;18,78472
 660,43; 7150,427;  282,212;36596,201;18,91341
 661,00; 7102,413;  271,442;36701,926;18,75070
 661,58; 7171,784;  259,596;37023,035;18,80180
 662,15; 7197,309;  244,827;37252,452;18,78662
 662,73; 7289,065;  310,596;37535,485;18,74678
 663,30; 7337,898;  264,827;37722,825;18,88267
 663,88; 7376,346;  282,904;37799,857;18,90730
 664,45; 7381,486;  260,520;38093,889;18,82192
 665,03; 7472,857;  271,827;38413,306;18,87979
 665,60; 7633,536;  328,289;38821,877;18,97783
 666,17; 7540,753;  269,289;38859,371;18,84283
 666,75; 7625,894;  269,443;39260,711;18,86692
 667,32; 7722,265;  298,058;39588,897;18,89552
 667,90; 7725,559;  273,905;39803,160;18,85099
 668,47; 7826,007;  289,981;40021,731;18,96726
 669,05; 7875,071;  265,982;40429,763;18,94515
 669,62; 7809,903;  244,059;40436,873;18,82387
 670,19; 7837,428;  255,289;40583,828;18,80093
 670,77; 7887,415;  246,674;40706,399;18,88481
 671,34; 7909,248;  251,905;40679,047;18,94109
 671,92; 7977,234;  252,366;40982,233;18,96610
 672,49; 7965,759;  280,905;40988,265;18,87829
 673,06; 7990,361;  227,367;41029,990;19,02572
 673,64; 7974,194;  248,213;41040,330;18,93989
 674,21; 7920,488;  240,905;40922,978;18,87707
 674,79; 8022,244;  266,290;41185,856;18,95415
 675,36; 8080,923;  272,982;41330,658;19,01701
 675,93; 8065,909;  241,213;41160,844;19,12211
 676,51; 8090,357;  270,521;41380,107;19,02193
 677,08; 8133,575;  269,598;41463,678;19,09007
 677,65; 8191,946;  260,059;41559,095;19,20599
 678,23; 8231,240;  264,598;41800,127;19,18031
 678,80; 8289,303;  243,675;41922,621;19,30382
 679,38; 8290,290;  248,829;41948,807;19,28409
 679,95; 8403,815;  255,136;42278,070;19,39103
 680,52; 8440,186;  258,906;42537,410;19,35092
 681,10; 8614,096;  262,675;42863,366;19,60396
 681,67; 8618,159;  270,521;43262,706;19,41664
 682,24; 8703,069;  238,137;43222,892;19,69287
 682,82; 8783,671;  249,598;43757,539;19,61498
 683,39; 8931,196;  292,367;44118,033;19,71180
 683,96; 8988,644;  257,983;44352,912;19,79969
 684,54; 9069,400;  246,291;44660,329;19,86559
 685,11; 9192,848;  285,137;45033,746;19,90612
 685,68; 9271,450;  244,829;45380,317;19,99894
 686,25; 9273,282;  239,829;45469,580;19,97237
 686,83; 9359,192;  247,060;45696,612;20,04889
 687,40; 9472,025;  238,291;46025,875;20,16646
 687,97; 9580,550;  280,445;46428,754;20,15265
 688,55; 9599,075;  239,522;46394,555;20,27851
 689,12; 9656,523;  221,753;46729,357;20,28651
 689,69; 9708,125;  231,214;46763,158;20,36646
 690,26; 9704,727;  254,983;46817,114;20,29491
 690,84; 9835,098;  240,983;47084,992;20,48098
 691,41; 9892,546;  256,060;47226,948;20,51587
 691,98; 9989,455;  255,984;47547,518;20,58185
 692,56;10020,442;  243,445;47570,012;20,65858
 693,13;10109,044;  301,061;47542,352;20,76146
 693,70;10157,646;  271,984;47797,000;20,80097
 694,27;10162,017;  252,753;47767,186;20,85527
 694,84;10247,004;  252,753;47924,295;20,96481
 695,42;10359,067;  284,292;48092,174;21,07346
 695,99;10341,130;  256,753;48253,745;21,01044
 696,56;10383,809;  244,599;48123,931;21,17659
 697,13;10519,796;  274,830;48425,579;21,27686
 697,71;10565,859;  237,830;48466,919;21,41452
 698,28;10627,923;  264,830;48842,874;21,33287
 698,85;10682,217;  210,600;48763,753;21,56733
 699,42;10786,973;  225,907;49067,631;21,62304
 699,99;10882,267;  261,292;49073,510;21,75885
 700,57;10869,869;  264,292;49103,080;21,71548
 701,14;10961,086;  254,138;49325,036;21,81934
 701,71;11099,227;  271,908;49544,991;21,97410
 702,28;11103,521;  256,754;49559,716;22,00023
 702,85;11144,507;  257,600;49723,517;22,00891
 703,43;11260,032;  269,215;49775,473;22,20086
 704,00;11381,096;  308,369;50054,659;22,25840
 704,57;11377,390;  265,600;50013,230;22,33632
 705,14;11449,223;  297,985;50434,878;22,24158
 705,71;11557,286;  306,062;50317,679;22,49722
 706,28;11480,350;  266,600;50194,173;22,46003
 706,86;11647,259;  296,216;50475,821;22,62083
 707,43;11702,861;  314,139;50428,699;22,72538
 708,00;11715,386;  298,754;50403,270;22,78563
 708,57;11686,296;  267,524;50375,225;22,78846
 709,14;11868,129;  298,293;50487,642;23,05237
 709,71;11879,115;  278,831;50616,752;23,04482
 710,28;12013,871;  276,601;50769,553;23,24536
 710,86;12096,319;  281,139;50862,509;23,35876
 711,43;12162,921;  302,985;50926,618;23,42767
 712,00;12207,754;  280,985;50977,419;23,52585
 712,57;12316,817;  281,370;51033,759;23,71405
 713,14;12348,880;  268,601;51229,484;23,70500
 713,71;12370,559;  269,909;51046,901;23,83097
 714,28;12463,854;  271,524;51170,933;23,95377
 714,85;12470,379;  254,447;50922,350;24,10980
 715,42;12527,365;  260,678;51102,460;24,12718
 716,00;12660,121;  316,370;51262,723;24,22892
 716,57;12739,492;  261,293;51408,524;24,39663
 717,14;12726,786;  254,294;51230,941;24,46707
 717,71;12803,080;  242,601;51354,127;24,57465
 718,28;12896,529;  285,986;51408,006;24,66754
 718,85;12964,054;  249,909;51506,807;24,80475
 719,42;13026,502;  269,448;51618,763;24,84367
 719,99;12994,027;  253,140;51404,795;24,90806
 720,56;13131,629;  265,371;51520,366;25,10245
 721,13;13168,077;  252,371;51787,860;25,06177
 721,70;13184,294;  249,525;51651,354;25,16403
 722,27;13263,973;  274,679;51660,925;25,27776
 722,84;13453,959;  310,756;51754,803;25,54854
 723,41;13417,484;  232,525;51856,066;25,54059
 723,98;13497,855;  264,448;52054,868;25,55184
 724,55;13615,457;  292,679;52153,439;25,68952
 725,12;13608,213;  216,217;52005,394;25,85868
 725,69;13782,584;  257,140;52219,272;26,02942
 726,27;13798,186;  257,525;52357,074;25,98998
 726,84;13979,019;  255,987;52597,952;26,21803
 727,41;14090,082;  272,602;52502,677;26,45503
 727,98;14198,915;  287,987;52885,940;26,44766
 728,55;14253,286;  298,371;52814,434;26,57266
 729,12;14327,657;  253,448;52960,928;26,70249
 729,69;14453,336;  280,064;52973,653;26,89753
 730,26;14547,323;  271,756;53207,762;26,96759
 730,82;14628,309;  263,295;53088,871;27,19329
 731,39;14718,065;  256,526;53189,057;27,32070
 731,96;14850,359;  250,372;53522,859;27,40624
 732,53;15011,346;  268,526;53787,430;27,54694
 733,10;15071,871;  270,218;53792,154;27,65530
 733,67;15255,857;  279,680;53982,417;27,88718
 734,24;15221,306;  269,449;53733,065;27,96641
 734,81;15362,138;  291,757;53798,251;28,16552
 735,38;15283,202;  274,218;53583,361;28,15461
 735,95;15343,881;  268,064;53532,778;28,30357
 736,52;15363,021;  297,603;53557,656;28,28652
 737,09;15413,700;  284,218;53334,611;28,51907
 737,66;15572,302;  314,757;53578,644;28,64520
 738,23;15711,827;  267,757;53597,368;28,95965
 738,80;15874,890;  322,065;53833,478;29,06450
 739,37;15920,338;  293,142;54041,279;29,07486
 739,94;16051,786;  281,757;53942,696;29,38828
 740,51;16185,465;  377,988;54110,729;29,41871
 741,07;16175,759;  273,296;54000,453;29,59856
 741,64;16358,746;  303,296;54186,947;29,79651
 742,21;16440,194;  272,065;54216,518;29,97181
 742,78;16413,027;  255,065;54108,858;30,00339
 743,35;16516,859;  270,296;54338,813;30,04810
 743,92;16680,154;  305,373;54499,615;30,21498
 744,49;16749,986;  283,527;54360,186;30,45022
 745,06;16780,281;  267,681;54364,372;30,52423
 745,63;16799,806;  250,604;54382,250;30,57214
 746,19;16959,331;  265,296;54464,360;30,80133
 746,76;17012,548;  272,142;54306,084;30,98128
 747,33;17134,688;  277,065;54334,501;31,18465
 747,90;17236,367;  278,065;54608,841;31,21307
 748,47;17264,507;  280,604;54377,258;31,39548
 749,04;17392,648;  281,681;54557,521;31,52594
 749,61;17482,096;  289,989;54406,554;31,76866
 750,17;17545,236;  279,758;54577,740;31,79764
 750,74;17613,300;  288,450;54354,926;32,04361
 751,31;17610,286;  260,143;54384,343;32,05617
 751,88;17658,657;  245,758;54195,452;32,27618
 752,45;17799,644;  265,527;54390,715;32,39548
 753,02;17867,631;  277,758;54151,978;32,64989
 753,58;17849,540;  268,297;54093,242;32,66375
 754,15;17975,988;  268,451;54235,043;32,81204
 754,72;18030,667;  265,143;54019,152;33,04967
 755,29;18000,884;  257,297;53811,108;33,13226
 755,86;18067,717;  283,912;54123,602;33,03103
 756,42;18189,396;  275,912;53781,403;33,47971
 756,99;18269,306;  244,297;53828,359;33,63875
 757,56;18291,907;  263,374;53923,160;33,59785
 758,13;18301,048;  219,374;53770,500;33,76525
 758,70;18547,650;  245,759;53860,148;34,13616
 759,26;18577,175;  233,836;53954,565;34,14574
 759,83;18677,931;  247,220;54011,982;34,28028
 760,40;18680,994;  224,297;53777,399;34,46429
 760,97;18772,981;  218,913;53793,893;34,63196
 761,53;18699,429;  205,682;53397,387;34,76810
 762,10;18712,261;  211,144;53468,188;34,73929
 762,67;18828,017;  243,759;53467,374;34,91732
 763,24;18729,619;  195,682;53005,176;35,09584
 763,80;18934,990;  234,913;53160,439;35,33281
 764,37;18944,515;  234,144;53022,010;35,44445
 764,94;18786,194;  210,759;52576,042;35,47281
 765,50;18898,565;  224,221;52683,536;35,59777
 766,07;19008,398;  269,759;52625,491;35,79100
 766,64;18918,769;  238,606;52424,908;35,79515
 767,21;19061,448;  233,529;52302,018;36,15991
 767,77;19117,127;  259,144;52195,742;36,30962
 768,34;19091,344;  270,683;52138,082;36,28611
 768,91;19177,408;  266,760;52028,807;36,53381
 769,47;19169,702;  251,144;51995,762;36,56140
 770,04;19293,150;  257,298;51769,256;36,95424
 770,61;19180,290;  240,529;51665,212;36,83010
 771,18;19298,661;  235,606;51534,782;37,16055
 771,74;19383,417;  257,991;51698,507;37,17969
 772,31;19419,788;  261,068;51484,232;37,40245
 772,88;19384,852;  230,837;51220,879;37,56423
 773,44;19403,454;  231,837;51145,681;37,65502
 774,01;19520,517;  253,683;51149,252;37,85562
 774,58;19557,350;  240,222;50907,515;38,12544
 775,14;19669,413;  238,068;51031,547;38,25559
 775,71;19702,554;  228,145;50928,118;38,41108
 776,27;19757,233;  288,068;50783,612;38,55620
 776,84;19906,988;  308,068;50934,106;38,71312
 777,41;19888,129;  248,914;50667,984;38,95196
 777,97;19849,884;  248,991;50343,555;39,12778
 778,54;19958,179;  251,453;50408,972;39,28967
 779,11;20032,704;  274,761;50474,158;39,35892
 779,67;20063,767;  242,068;50165,575;39,70414
 780,24;20110,984;  257,838;50133,915;39,80495
 780,80;20228,048;  273,607;50101,101;40,04705
 781,37;20279,111;  264,299;50086,980;40,17209
 781,94;20205,713;  253,376;49797,551;40,27181
 782,50;20304,777;  258,299;49856,968;40,41737
 783,07;20333,994;  278,376;49910,154;40,40882
 783,63;20345,904;  240,453;49566,878;40,76000
 784,20;20407,198;  270,838;49574,449;40,84155
 784,77;20419,031;  258,223;49323,712;41,08959
 785,33;20373,248;  234,453;49128,437;41,18870
 785,90;20460,619;  248,300;49069,623;41,40060
 786,46;20458,067;  284,761;49062,655;41,35748
 787,03;20453,515;  247,069;48944,842;41,49357
 787,59;20523,886;  252,992;48707,566;41,83484
 788,16;20672,104;  269,992;48647,137;42,17304
 788,73;20647,475;  258,915;48501,093;42,26293
 789,29;20558,077;  246,300;48215,817;42,34309
 789,86;20567,909;  269,531;48104,773;42,43394
 790,42;20651,588;  268,146;48012,959;42,69247
 790,99;20563,036;  272,608;47702,914;42,77946
 791,55;20691,638;  256,454;47772,485;43,00693
 792,12;20741,548;  271,839;47628,594;43,22448
 792,68;20767,073;  255,762;47306,857;43,59370
 793,25;20709,906;  265,608;47127,890;43,62634
 793,81;20666,969;  304,531;46737,537;43,85337
 794,38;20576,648;  231,070;46558,647;43,91678
 794,94;20685,711;  244,377;46368,987;44,31763
 795,51;20594,159;  271,762;46245,173;44,20468
 796,07;20629,300;  262,454;45894,359;44,63291
 796,64;20785,671;  273,608;46060,468;44,79902
 797,20;20613,350;  269,070;45523,578;44,95526
 797,77;20576,875;  241,685;45244,610;45,18637
 798,33;20627,708;  250,378;45137,104;45,39723
 798,90;20674,233;  288,224;45068,982;45,52404
 799,46;20514,219;  258,147;44610,092;45,67122
 800,03;20555,359;  265,455;44569,585;45,79687
 800,59;20583,346;  283,070;44394,233;46,02072
 801,15;20448,333;  273,532;44187,189;45,94197
 801,72;20398,704;  274,224;43833,452;46,20027
 802,28;20403,998;  288,301;43487,407;46,56508
 802,85;20333,215;  249,378;43292,055;46,66029
 803,41;20374,817;  255,994;43274,472;46,76786
 803,98;20302,650;  260,917;42855,196;47,05264
 804,54;20171,329;  255,532;42619,383;47,01130
 805,11;20108,315;  262,378;42306,569;47,20257
 805,67;20153,917;  282,840;42294,909;47,29850
 806,23;20047,365;  266,378;41889,172;47,52441
 806,80;20049,659;  289,148;41730,589;47,68297
 807,36;20066,184;  286,763;41696,775;47,76483
 807,93;20027,248;  298,609;41511,730;47,86980
 808,49;19867,004;  269,532;41013,455;48,09913
 809,05;19878,759;  238,763;40984,564;48,20128
 809,62;19902,746;  278,686;40913,443;48,29378
 810,18;19948,348;  280,763;40702,937;48,65544
 810,74;19879,411;  261,687;40483,431;48,77393
 811,31;19827,783;  259,610;40341,232;48,82081
 811,87;19845,154;  273,225;40124,803;49,11205
 812,44;19903,448;  288,917;40086,374;49,28589
 813,00;19803,050;  228,994;39814,945;49,44698
 813,56;19848,498;  272,456;39984,438;49,29505
 814,13;19985,715;  259,071;39753,163;49,94834
 814,69;19862,702;  265,841;39619,657;49,79660
 815,25;19759,535;  229,841;39284,535;50,00601
 815,82;19833,213;  270,687;39224,645;50,21961
 816,38;19816,508;  281,379;39040,908;50,40084
 816,94;19771,340;  238,302;38741,325;50,73118
 817,51;19699,019;  232,841;38578,203;50,76540
 818,07;19656,467;  241,610;38295,312;51,01963
 818,63;19690,915;  272,841;38058,576;51,38996
 819,20;19708,979;  256,918;38115,531;51,38081
 819,76;19557,735;  240,687;37663,333;51,61860
 820,32;19616,260;  280,995;37572,903;51,84842
 820,89;19527,708;  268,687;37417,320;51,84315
 821,45;19439,848;  242,611;37063,583;52,13669
 822,01;19473,681;  268,841;36843,770;52,50821
 822,57;19388,129;  267,688;36750,110;52,41001
 823,14;19388,500;  230,918;36528,988;52,77851
 823,70;19274,256;  243,995;36245,713;52,85931
 824,26;19328,627;  243,380;36012,361;53,35698
 824,82;19386,613;  267,380;35928,162;53,61417
 825,39;19272,600;  247,688;35744,271;53,59646
 825,95;19376,663;  271,688;35715,688;53,90186
 826,51;19241,727;  261,226;35295,259;54,17732
 827,08;19302,944;  304,226;35264,676;54,34346
 827,64;19239,546;  275,380;35174,939;54,33927
 828,20;19240,610;  250,073;34862,433;54,86634
 828,76;19384,750;  266,765;34910,927;55,18386
 829,32;19349,352;  282,919;34701,959;55,39502
 829,89;19206,261;  230,919;34652,068;55,12699
 830,45;19316,710;  255,919;34603,793;55,49336
 831,01;19291,235;  252,227;34279,364;55,95242
 831,57;19318,683;  252,996;34293,704;56,00849
 832,14;19365,977;  240,919;34279,121;56,18704
 832,70;19327,733;  242,304;34071,846;56,41646
 833,26;19340,642;  218,842;33973,263;56,64977
 833,82;19376,783;  252,689;33848,449;56,92413
 834,38;19401,000;  243,381;33890,096;56,93756
 834,95;19390,602;  236,381;33812,898;57,04648
 835,51;19285,281;  216,612;33580,700;57,15328
 836,07;19479,498;  247,766;33630,886;57,60915
 836,63;19507,869;  259,843;33640,995;57,66136
 837,19;19540,548;  252,304;33555,258;57,91752
 837,75;19372,458;  213,843;33196,906;58,08622
 838,32;19461,829;  263,997;33413,630;57,91265
 838,88;19568,277;  267,535;33359,970;58,32373
 839,44;19547,033;  244,228;33232,618;58,51393
 840,00;19583,404;  244,458;33178,804;58,71969
 840,56;19528,929;  235,151;32889,760;59,08439
 841,12;19510,454;  235,305;32808,484;59,17491
 841,68;19442,133;  237,997;32550,440;59,43263
 842,25;19457,965;  230,382;32734,857;59,15365
 842,81;19453,490;  233,305;32439,581;59,67838
 843,37;19412,169;  219,151;32435,152;59,57604
 843,93;19473,156;  242,997;32323,646;59,94317
 844,49;19556,142;  255,920;32425,140;59,99593
 845,05;19486,744;  218,228;32255,018;60,14496
 845,61;19596,500;  255,074;32239,435;60,47151
 846,17;19557,025;  232,690;32052,852;60,72984
 846,73;19462,396;  242,767;32043,116;60,43842
 847,29;19470,767;  212,921;31910,609;60,75473
 847,86;19493,754;  224,998;31750,872;61,12045
 848,42;19437,279;  224,690;31668,443;61,10145
 848,98;19486,804;  247,152;31625,860;61,31435
 849,54;19498,021;  236,767;31613,508;61,38705
 850,10;19502,008;  239,152;31439,233;61,73976
 850,66;19427,763;  228,152;31345,957;61,69976
 851,22;19510,904;  213,229;31255,528;62,16574
 851,78;19494,352;  260,536;31354,330;61,85741
 852,34;19400,261;  247,075;31051,593;62,17655
 852,90;19454,710;  229,306;31009,087;62,46115
 853,46;19303,004;  226,152;30673,119;62,65600
 854,02;19489,529;  240,152;30772,997;63,04482
 854,58;19303,977;  238,306;30519,645;62,96178
 855,14;19336,117;  219,383;30443,754;63,24940
 855,70;19289,104;  205,306;30371,633;63,26192
 856,26;19360,090;  253,075;30287,358;63,61735
 856,82;19376,923;  229,998;30126,698;64,04361
 857,38;19387,756;  250,768;29999,576;64,32859
 857,94;19332,204;  226,383;29928,531;64,32471
 858,50;19325,421;  239,845;29747,333;64,68045
 859,06;19203,869;  220,691;29543,058;64,73958
 859,62;19322,163;  242,768;29625,167;64,93478
 860,18;19210,150;  236,922;29430,276;64,99160
 860,74;19162,906;  205,614;29193,539;65,39720
 861,30;19111,277;  205,768;29092,341;65,44739
 861,86;19262,110;  262,537;29095,373;65,89561
 862,42;19167,173;  234,460;28903,329;66,03927
 862,98;19268,160;  257,153;28992,438;66,15910
 863,54;19243,300;  233,230;28736,009;66,69550
 864,10;19241,210;  238,307;28750,272;66,64887
 864,66;19102,119;  215,076;28470,150;66,84478
 865,22;19068,029;  227,615;28394,798;66,88782
 865,78;19143,938;  239,153;28323,369;67,31463
 866,34;19090,694;  224,922;28208,401;67,41754
 866,90;19095,912;  240,692;28124,433;67,62084
 867,45;18956,667;  244,922;27905,235;67,64835
 868,01;18970,962;  237,615;27718,729;68,16808
 868,57;18862,871;  234,615;27588,530;68,10088
 869,13;18902,319;  222,769;27505,717;68,46603
 869,69;18851,998;  235,307;27372,672;68,60169
 870,25;18801,292;  217,153;27262,474;68,71480
 870,81;18861,202;  234,461;27272,660;68,89046
 871,37;18862,804;  237,615;27089,769;69,36199
 871,93;18719,867;  248,077;27011,801;69,01801
 872,49;18581,392;  252,000;26799,295;69,04429
 873,04;18518,610;  224,308;26635,405;69,26748
 873,60;18468,365;  228,846;26498,360;69,43227
 874,16;18456,275;  235,000;26440,238;69,53295
 874,72;18411,044;  214,846;26402,777;69,48315
 875,28;18433,660;  234,615;26296,777;69,82937
 875,84;18509,198;  239,308;26226,238;70,30415
 876,40;18494,506;  225,077;26142,085;70,49205
 876,95;18501,352;  238,692;26137,777;70,51469
 877,51;18579,660;  265,923;26180,085;70,67077
 878,07;18642,121;  255,000;26120,085;71,08858
 878,63;18629,506;  237,846;26144,008;70,99338
 879,19;18728,813;  246,923;26086,469;71,52560
 879,75;18882,890;  230,231;26082,854;72,14997
 880,30;18896,583;  232,231;26160,546;71,98444
 880,86;19019,121;  270,385;26217,854;72,25651
 881,42;19078,890;  218,923;26193,931;72,60813
 881,98;19223,044;  249,538;26328,315;72,75458
 882,54;19348,737;  238,692;26478,469;72,82853
 883,09;19476,737;  235,385;26570,546;73,06335
 883,65;19578,352;  221,231;26572,085;73,45918
 884,21;19734,121;  251,846;26796,777;73,39358
 884,77;19879,429;  237,385;26880,546;73,72265
 885,32;20021,044;  234,692;27073,238;73,72364
 885,88;20181,737;  265,538;27169,238;74,02773
 886,44;20282,429;  245,462;27241,162;74,22281
 887,00;20407,967;  254,231;27225,238;74,72371
 887,56;20557,890;  237,154;27446,546;74,68280
 888,11;20517,044;  234,462;27362,700;74,76557
 888,67;20776,044;  266,846;27597,085;75,04215
 889,23;20831,813;  251,308;27608,315;75,22937
 889,79;20724,737;  227,077;27417,777;75,38482
 890,34;20698,044;  244,231;27463,162;75,14554
 890,90;20812,429;  299,462;27543,854;75,29244
 891,46;20885,737;  227,154;27400,008;76,02655
 892,01;20921,660;  256,154;27402,392;76,12659
 892,57;20852,275;  263,615;27359,700;75,98389
 893,13;20846,275;  255,615;27207,315;76,39837
 893,69;20870,583;  233,769;27141,777;76,69395
 894,24;20810,121;  238,231;27038,008;76,76142
 894,80;20709,429;  243,846;26960,700;76,60177
 895,36;20697,660;  245,231;26807,931;76,99680
 895,91;20568,967;  235,538;26657,700;76,95596
 896,47;20477,660;  261,462;26510,392;77,01723
 897,03;20427,890;  226,462;26285,315;77,52232
 897,58;20368,660;  247,308;26221,392;77,46703
 898,14;20340,198;  246,923;26019,315;77,96434
 898,70;20242,198;  219,462;25972,546;77,74889
 899,25;20337,813;  232,000;25878,238;78,39673
 899,81;20231,967;  252,231;25715,854;78,46384
 900,37;20072,429;  214,846;25516,546;78,48320
 900,92;20140,044;  228,615;25566,085;78,58492
 901,48;20084,660;  239,692;25381,238;78,93296
 902,03;20015,352;  226,154;25245,777;79,09471
 902,59;19983,506;  228,769;25173,085;79,19534
 903,15;19990,737;  261,385;24992,392;79,77577
 903,70;19850,813;  233,615;24746,777;80,02721
 904,26;19878,198;  224,692;24661,777;80,42492
 904,82;19906,275;  236,615;24542,392;80,92586
 905,37;19854,044;  239,846;24506,623;80,82737
 905,93;19815,352;  222,846;24279,931;81,44173
 906,48;19793,813;  246,462;24322,238;81,19095
 907,04;19697,583;  253,462;24202,085;81,19098
 907,60;19689,198;  227,462;23944,392;82,05841
 908,15;19531,429;  216,077;23927,777;81,45916
 908,71;19692,813;  250,846;23870,546;82,31251
 909,26;19559,121;  224,000;23723,777;82,27789
 909,82;19550,890;  246,385;23658,392;82,45558
 910,37;19532,967;  271,769;23523,162;82,83890
 910,93;19414,737;  225,615;23346,546;82,99459
 911,48;19317,121;  222,385;23146,469;83,29552
 912,04;19318,506;  213,154;23077,854;83,55829
 912,60;19419,121;  247,538;23123,931;83,80510
 913,15;19237,275;  233,385;22918,085;83,77404
 913,71;19174,352;  222,077;22736,546;84,17820
 914,26;19173,044;  212,846;22633,162;84,56704
 914,82;19231,121;  240,308;22603,854;84,91861
 915,37;19124,352;  227,077;22548,623;84,65935
 915,93;19107,890;  273,462;22425,854;85,02210
 916,48;19022,813;  217,615;22260,469;85,31199
 917,04;18961,198;  247,231;22212,546;85,19781
 917,59;18915,660;  253,923;22144,392;85,25051
 918,15;18768,967;  208,308;21948,546;85,37468
 918,70;18730,737;  227,077;21835,623;85,63121
 919,26;18740,737;  231,923;21772,315;85,92607
 919,81;18622,583;  210,308;21575,777;86,17772
 920,37;18695,275;  225,154;21543,469;86,63968
 920,92;18576,737;  247,692;21399,777;86,65361
 921,48;18438,660;  208,846;21194,085;86,86970
 922,03;18484,044;  228,462;21221,931;86,95839
 922,59;18371,044;  227,385;21087,931;86,97596
 923,14;18265,429;  220,846;20992,854;86,86971
 923,69;18236,813;  247,846;20867,238;87,24296
 924,25;18252,429;  240,462;20937,546;87,02659
 924,80;18125,737;  226,077;20694,238;87,45123
 925,36;18080,737;  224,692;20585,085;87,69990
 925,91;17950,890;  229,077;20444,469;87,66495
 926,47;17958,198;  204,385;20403,162;87,89549
 927,02;17916,890;  274,769;20326,777;87,98182
 927,57;17838,121;  220,385;20187,085;88,23559
 928,13;17902,198;  219,846;20120,469;88,85326
 928,68;17724,583;  235,308;20018,238;88,40588
 929,24;17560,967;  204,308;19838,623;88,39962
 929,79;17551,275;  216,154;19740,931;88,78525
 930,34;17530,737;  232,231;19633,238;89,16292
 930,90;17516,890;  216,308;19599,008;89,25786
 931,45;17487,044;  241,077;19486,623;89,61017
 932,01;17391,737;  231,846;19449,162;89,29390
 932,56;17369,121;  246,077;19280,700;89,95736
 933,11;17410,737;  252,385;19323,854;89,96869
 933,67;17252,813;  221,769;19088,085;90,27223
 934,22;17268,890;  231,615;19050,546;90,53264
 934,77;17150,737;  251,692;18906,700;90,58717
 935,33;17067,352;  230,308;18791,777;90,70965
 935,88;17095,967;  245,077;18811,546;90,75980
 936,43;17039,198;  224,154;18653,392;91,24112
 936,99;16922,429;  234,615;18521,623;91,25503
 937,54;16797,890;  211,462;18394,546;91,21900
 938,09;16851,198;  241,846;18355,623;91,69458
 938,65;16768,583;  235,538;18186,700;92,10014
 939,20;16689,813;  219,000;18138,238;91,91693
 939,75;16603,660;  219,615;18080,854;91,72961
 940,31;16563,506;  199,308;17964,623;92,11319
 940,86;16648,890;  233,308;17939,085;92,71315
 941,41;16562,044;  288,385;17839,315;92,72249
 941,96;16424,583;  220,154;17704,700;92,67858
 942,52;16413,506;  225,538;17660,469;92,84790
 943,07;16368,506;  208,308;17474,162;93,59629
 943,62;16276,044;  214,308;17405,008;93,43271
 944,18;16270,813;  197,154;17344,162;93,74032
 944,73;16232,198;  230,231;17280,238;93,85314
 945,28;16022,121;  196,385;17055,623;93,86982
 945,83;16075,352;  224,692;17079,623;94,04168
 946,39;16095,275;  209,385;17108,392;94,00487
 946,94;16072,737;  235,000;16976,931;94,59922
 947,49;15992,198;  221,923;16886,238;94,63500
 948,04;15949,044;  244,538;16820,008;94,74547
 948,59;15977,352;  242,615;16741,085;95,37089
 949,15;15808,275;  212,462;16679,777;94,70769
 949,70;15823,737;  213,154;16585,085;95,34967
 950,25;15793,198;  237,231;16530,777;95,47318
 950,80;15710,737;  192,308;16413,777;95,66599
 951,36;15668,660;  200,000;16316,238;95,98182
 951,91;15750,737;  244,385;16268,546;96,76857
 952,46;15558,275;  200,231;16044,315;96,93235
 953,01;15608,583;  241,846;16161,238;96,52841
 953,56;15522,352;  199,846;15988,238;97,04918
 954,11;15523,352;  233,000;16026,623;96,81345
 954,67;15509,044;  218,077;15899,777;97,50835
 955,22;15377,967;  205,615;15739,700;97,67136
 955,77;15452,198;  242,462;15793,008;97,80838
 956,32;15304,198;  272,231;15637,777;97,82905
 956,87;15279,506;  218,385;15552,931;98,21693
 957,42;15231,429;  221,923;15427,777;98,70873
 957,98;15203,737;  220,308;15392,315;98,75706
 958,53;15178,429;  244,538;15321,315;99,05227
 959,08;15156,121;  211,692;15129,085;100,18124
 959,63;15072,967;  200,154;15101,162;99,81079
 960,18;15110,967;  235,000;15038,315;100,49078
 960,73;15109,198;  225,462;14981,315;100,86666
 961,28;14947,275;  207,615;14890,238;100,38846
 961,83;14947,583;  241,538;14894,546;100,36195
 962,39;14816,890;  202,462;14700,546;100,80248
 962,94;14755,660;  241,077;14641,469;100,79297
 963,49;14678,737;  216,385;14574,777;100,72403
 964,04;14676,275;  232,692;14528,469;101,03391
 964,59;14659,044;  201,308;14407,854;101,76813
 965,14;14622,660;  240,154;14360,162;101,85905
 965,69;14436,506;  227,462;14263,623;101,23169
 966,24;14456,737;  211,692;14145,777;102,23165
 966,79;14308,121;  233,615;14038,469;101,95331
 967,34;14216,506;  202,538;13950,008;101,93852
 967,89;14214,660;  209,923;13874,008;102,49305
 968,44;14176,967;  220,769;13830,238;102,54770
 968,99;14153,506;  230,769;13800,700;102,59991
 969,55;14058,583;  234,077;13729,931;102,43521
 970,10;14008,429;  229,000;13630,315;102,82147
 970,65;13957,506;  246,769;13498,162;103,46638
 971,20;13864,352;  211,154;13438,623;103,21852
 971,75;13693,967;  205,077;13323,392;102,82487
 972,30;13678,660;  225,231;13222,777;103,50745
 972,85;13617,813;  207,769;13143,392;103,66756
 973,40;13503,506;  208,077;13015,315;103,81183
 973,95;13464,583;  227,154;13021,546;103,46274
 974,50;13419,352;  234,846;12928,700;103,86527
 975,05;13326,044;  221,769;12875,931;103,55704
 975,60;13288,660;  238,692;12806,315;103,83799
 976,15;13171,198;  218,846;12677,238;103,96487
 976,70;13169,352;  230,231;12611,392;104,50652
 977,25;13168,352;  226,846;12553,777;104,98563
 977,80;12967,583;  218,769;12395,392;104,69909
 978,35;12942,737;  233,462;12258,315;105,69172
 978,89;12885,890;  208,538;12201,623;105,70552
 979,44;12825,506;  234,769;12142,315;105,73746
 979,99;12642,352;  211,923;11950,469;105,89411
 980,54;12597,737;  258,077;11955,085;105,49416
 981,09;12546,352;  243,000;11844,162;106,05276
 981,64;12493,429;  238,308;11658,315;107,31272
 982,19;12406,352;  272,538;11627,854;106,85580
 982,74;12308,121;  240,923;11550,162;106,70213
 983,29;12201,890;  211,538;11407,854;107,09195
 983,84;12081,506;  235,154;11302,700;107,03684
 984,39;12105,737;  279,077;11285,777;107,44964
 984,94;11963,121;  211,077;11122,700;107,70207
 985,49;11889,352;  251,154;11113,392;107,14364
 986,03;11849,429;  247,000;11012,238;107,77679
 986,58;11690,890;  271,692;10888,777;107,55493
 987,13;11636,813;  239,385;10733,315;108,60972
 987,68;11520,660;  236,923;10609,777;108,78141
 988,23;11463,198;  243,231;10575,854;108,58779
 988,78;11303,890;  226,615;10471,546;108,12445
 989,33;11273,044;  242,923;10415,700;108,42783
 989,88;11207,583;  261,308;10353,315;108,46479
 990,42;11082,275;  231,538;10164,392;109,24088
 990,97;10957,660;  221,385;10070,700;109,00529
 991,52;10918,660;  247,692;10075,315;108,58137
 992,07;10829,890;  260,615; 9953,777;109,03847
 992,62;10725,660;  243,846; 9853,854;109,07185
 993,17;10671,737;  247,769; 9746,238;109,74366
 993,71;10613,044;  243,769; 9647,469;110,26803
 994,26;10484,583;  215,385; 9519,777;110,36936
 994,81;10514,506;  251,769; 9474,700;111,27414
 995,36;10329,813;  230,923; 9357,623;110,65216
 995,91;10233,583;  241,385; 9275,700;110,60271
 996,45;10211,121;  236,000; 9172,315;111,62454
 997,00;10106,429;  209,077; 9043,238;112,03499
 997,55;10019,967;  240,769; 9003,854;111,59539
 998,10; 9946,429;  263,769; 8884,700;112,31571
 998,65; 9872,044;  234,923; 8792,162;112,61952
 999,19; 9764,352;  260,846; 8694,931;112,67975
 999,74; 9678,429;  263,000; 8599,931;112,93639
1000,29; 9589,044;  248,308; 8570,546;112,23827
1000,84; 9435,660;  230,923; 8426,162;112,31810
1001,38; 9367,890;  239,538; 8338,008;112,71700
1001,93; 9369,890;  251,308; 8267,085;113,75794
1002,48; 9175,583;  222,462; 8080,315;113,93850
1003,03; 9174,121;  240,308; 8108,623;113,54163
1003,57; 9073,044;  248,077; 8002,854;113,80040
1004,12; 9024,660;  263,231; 7947,162;114,02275
1004,67; 8885,044;  232,769; 7803,546;114,28517
1005,22; 8794,275;  215,615; 7653,777;115,33306
1005,76; 8665,121;  215,615; 7521,623;115,65148
1006,31; 8645,198;  257,077; 7516,315;115,55098
1006,86; 8516,890;  227,692; 7404,085;115,50648
1007,40; 8346,275;  210,538; 7266,700;115,29975
1007,95; 8260,198;  237,385; 7181,238;115,53834
1008,50; 8157,813;  232,538; 7069,392;115,91991
1009,04; 8077,660;  245,692; 7044,008;115,20453
1009,59; 7907,429;  256,000; 6894,238;115,26294
1010,14; 7778,506;  225,000; 6764,777;115,50097
1010,68; 7676,813;  232,000; 6654,546;115,91685
1011,23; 7564,044;  219,154; 6594,238;115,21244
1011,78; 7561,506;  245,077; 6509,777;116,78818
1012,32; 7399,737;  242,769; 6404,623;116,14958
1012,87; 7388,660;  252,231; 6356,700;116,90499
1013,42; 7294,198;  222,077; 6255,085;117,22380
1013,96; 7282,198;  254,077; 6277,546;116,67896
1014,51; 7203,890;  195,385; 6130,546;118,08450
1015,06; 7241,121;  209,692; 6177,008;117,83237
1015,60; 7281,121;  285,385; 6213,085;118,01772
1016,15; 7263,352;  227,231; 6184,623;118,10740
1016,69; 7340,583;  242,154; 6201,777;119,10869
1017,24; 7337,044;  216,462; 6206,085;118,88198
1017,79; 7398,890;  253,308; 6275,315;118,65781
1018,33; 7429,967;  222,462; 6263,162;119,31574
1018,88; 7539,352;  246,538; 6325,008;119,97780
1019,42; 7564,660;  229,077; 6319,777;120,43907
1019,97; 7544,506;  221,538; 6344,546;119,59755
1020,51; 7632,890;  245,769; 6384,931;120,32785
1021,06; 7619,352;  220,692; 6308,008;121,54224
1021,61; 7576,737;  205,231; 6305,546;120,83811
1022,15; 7567,429;  195,538; 6273,008;121,29869
1022,70; 7574,044;  229,846; 6280,623;121,37612
1023,24; 7540,275;  211,923; 6214,700;122,08270
1023,79; 7485,737;  229,923; 6210,469;121,32359
1024,33; 7449,660;  223,692; 6147,085;121,99036
1024,88; 7394,121;  235,385; 6041,315;123,30041
1025,42; 7251,583;  228,231; 5945,238;122,85014
1025,97; 7183,044;  228,077; 5875,469;123,15361
1026,51; 6988,737;  190,538; 5764,085;121,97258
1027,06; 6962,737;  225,154; 5705,085;122,95014
1027,60; 6860,429;  232,231; 5607,623;123,30631
1028,15; 6754,506;  239,231; 5557,854;122,49928
1028,69; 6647,737;  195,385; 5436,392;123,11281
1029,24; 6560,967;  214,000; 5380,623;122,84556
1029,78; 6439,967;  214,077; 5279,238;122,91593
1030,33; 6332,890;  192,615; 5191,008;122,84500
1030,87; 6300,890;  230,538; 5133,315;123,81457
1031,42; 6191,429;  204,692; 5054,700;123,43767
1031,96; 6126,813;  226,308; 4975,008;124,25518
1032,51; 5999,967;  213,538; 4874,008;124,15979
1033,05; 5925,429;  219,462; 4845,392;123,34744
1033,60; 5799,583;  192,615; 4727,238;123,64792
1034,14; 5756,813;  208,385; 4673,546;124,26043
1034,69; 5663,890;  217,923; 4597,469;124,35004
1035,23; 5630,121;  221,154; 4559,085;124,69003
1035,77; 5563,967;  218,231; 4518,469;124,31256
1036,32; 5444,352;  192,308; 4423,469;124,12772
1036,86; 5406,121;  221,769; 4368,700;125,01660
1037,41; 5336,275;  228,923; 4288,238;125,81806
1037,95; 5235,198;  199,462; 4246,623;124,42638
1038,50; 5224,429;  212,077; 4158,238;127,01842
1039,04; 5130,660;  229,846; 4140,085;125,33285
1039,58; 5053,352;  210,615; 4031,469;126,74488
1040,13; 4984,044;  230,231; 3986,315;126,56300
1040,67; 4976,967;  254,846; 4011,854;125,68835
1041,21; 4915,890;  241,923; 3924,315;126,92747
1041,76; 4808,198;  202,538; 3810,392;127,65649
1042,30; 4785,429;  220,000; 3806,700;127,28773
1042,85; 4681,429;  220,385; 3697,546;128,29557
1043,39; 4646,813;  212,154; 3680,162;127,87341
1043,93; 4603,429;  242,769; 3638,238;128,42583
1044,48; 4514,275;  230,846; 3574,931;128,08973
1045,02; 4470,583;  217,692; 3498,623;129,62451
1045,56; 4455,967;  245,231; 3499,392;129,39544
1046,11; 4416,813;  223,615; 3456,854;129,69034
1046,65; 4344,275;  226,308; 3389,238;130,19467
1047,19; 4274,198;  219,308; 3301,931;131,54026
1047,74; 4193,583;  209,231; 3273,623;130,02095
1048,28; 4137,044;  223,154; 3233,008;130,03589
1048,82; 4107,198;  249,231; 3230,469;129,40821
1049,37; 4022,890;  237,000; 3152,777;129,84156
1049,91; 4013,275;  219,000; 3104,777;131,48192
1050,45; 3960,121;  241,538; 3113,008;129,50105
1050,99; 3901,275;  218,769; 3041,315;130,46751
1051,54; 3855,352;  217,769; 2970,777;132,13122
1052,08; 3850,967;  246,615; 2950,623;133,29666
1052,62; 3789,198;  235,923; 2906,777;133,03892
1053,16; 3717,890;  213,462; 2842,008;133,32194
1053,71; 3668,583;  222,769; 2851,085;131,10350
1054,25; 3642,583;  225,000; 2780,315;133,74407
1054,79; 3581,813;  231,385; 2743,623;133,36428
1055,33; 3512,429;  206,538; 2673,392;134,01241
1055,88; 3487,660;  238,308; 2671,623;133,53600
1056,42; 3428,044;  245,077; 2661,623;131,71556
1056,96; 3396,967;  234,308; 2607,931;133,24186
1057,50; 3365,583;  229,538; 2554,931;134,86087
1058,05; 3298,813;  234,769; 2524,469;133,81859
1058,59; 3248,737;  249,231; 2500,392;133,24258
1059,13; 3181,429;  214,077; 2420,162;134,50762
1059,67; 3161,660;  228,538; 2431,623;133,13702
1060,21; 3107,352;  228,538; 2343,546;136,11362
1060,76; 3108,198;  241,769; 2354,931;135,64646
1061,30; 3069,121;  250,231; 2311,700;136,74181
1061,84; 2966,198;  218,923; 2284,469;133,00477
1062,38; 2915,044;  213,538; 2219,085;134,70175
1062,92; 2959,275;  270,692; 2244,931;136,18328
1063,46; 2860,660;  254,154; 2172,392;135,88017
1064,01; 2837,737;  232,769; 2151,085;135,79453
1064,55; 2796,967;  237,923; 2116,315;136,23588
1065,09; 2734,352;  210,308; 2061,623;136,33788
1065,63; 2755,429;  253,692; 2083,008;136,75808
1066,17; 2697,506;  258,308; 2062,854;135,16961
1066,71; 2664,660;  254,846; 2018,777;136,61610
1067,25; 2606,275;  241,923; 1979,162;136,09829
1067,80; 2624,890;  243,615; 1971,392;137,82306
1068,34; 2593,737;  254,923; 1962,238;136,98778
1068,88; 2509,583;  227,769; 1913,854;135,33208
1069,42; 2514,813;  266,923; 1930,469;135,12642
1069,96; 2501,352;  234,154; 1873,085;138,33397
1070,50; 2499,583;  269,231; 1887,931;137,78661
1071,04; 2398,429;  224,846; 1808,700;137,23379
1071,58; 2366,506;  224,538; 1798,777;136,06371
1072,12; 2380,583;  234,077; 1800,008;137,07539
1072,66; 2342,275;  236,154; 1769,008;137,39869
1073,21; 2327,429;  259,846; 1760,931;137,73925
1073,75; 2319,890;  236,692; 1754,238;137,27412
1074,29; 2270,660;  248,077; 1706,854;138,64921
1074,83; 2238,737;  258,615; 1711,469;136,29183
1075,37; 2211,813;  254,923; 1671,546;138,13769
1075,91; 2200,813;  254,154; 1649,623;139,49857
1076,45; 2173,967;  244,000; 1636,392;138,60801
1076,99; 2165,506;  251,077; 1618,700;139,98220
1077,53; 2105,044;  234,154; 1581,085;138,90026
1078,07; 2116,352;  246,077; 1586,777;139,49989
1078,61; 2081,660;  233,923; 1538,931;141,58817
1079,15; 2018,352;  239,615; 1518,546;139,07997
1079,69; 2045,660;  251,769; 1502,777;143,39563
1080,23; 2020,429;  256,846; 1526,162;138,93968
1080,77; 2026,352;  271,846; 1518,931;140,68859
1081,31; 1954,660;  236,077; 1457,162;140,74231
1081,85; 1946,198;  248,000; 1442,623;142,15346
1082,39; 1925,044;  238,846; 1421,546;142,57192
1082,93; 1901,121;  245,615; 1414,162;141,67226
1083,47; 1865,890;  225,615; 1391,931;140,63735
1084,01; 1884,967;  245,462; 1414,931;140,19230
1084,55; 1837,352;  240,846; 1370,085;141,37898
1085,09; 1828,275;  261,000; 1385,469;139,37909
1085,63; 1798,044;  251,692; 1340,777;141,98639
1086,17; 1780,967;  230,231; 1314,700;142,99498
1086,71; 1764,198;  237,231; 1303,392;143,22101
1087,24; 1754,506;  265,615; 1305,700;143,15089
1087,78; 1742,583;  255,462; 1288,700;143,92816
1088,32; 1691,660;  235,538; 1232,085;146,11678
1088,86; 1717,660;  256,000; 1265,085;144,85005
1089,40; 1662,660;  245,692; 1235,238;143,19366
1089,94; 1646,352;  211,000; 1202,469;144,77019
1090,48; 1642,275;  243,308; 1206,777;145,20104
1091,02; 1631,890;  249,923; 1196,777;145,95360
1091,56; 1601,429;  244,769; 1180,392;145,00066
1092,10; 1570,275;  225,846; 1148,546;145,70595
1092,63; 1570,121;  258,231; 1172,777;143,44715
1093,17; 1536,660;  249,231; 1161,392;141,14044
1093,71; 1499,583;  235,769; 1123,162;142,41880
1094,25; 1514,352;  261,462; 1121,315;145,70969
1094,79; 1501,967;  248,154; 1093,392;148,33843
1095,33; 1472,121;  237,462; 1096,008;143,80818
1095,87; 1463,737;  251,077; 1097,469;143,27394
1096,40; 1428,967;  232,923; 1044,315;147,40640
1096,94; 1426,198;  246,000; 1058,546;145,24690
1097,48; 1418,890;  243,154; 1053,162;145,15128
1098,02; 1381,890;  238,923; 1019,777;146,37404
1098,56; 1352,506;  219,154;  994,931;146,09250
1099,10; 1341,506;  216,538;  992,085;145,05485
1099,63; 1311,737;  224,769;  983,623;143,23803
1100,17; 1333,890;  249,231;  987,854;146,84887
1100,71; 1326,813;  263,308;  991,777;145,99186

