
Integration time [ms]: 120,000
Averaging Nr. [scans]: 13
Smoothing Nr. [pixels]: 0
Data measured with spectrometer [name]: 2009305U1
Wave   ;Sample   ;Dark     ;Reference;Reflectance
[nm]   ;[counts] ;[counts] ;[counts] ;[%]

 175,72;  200,757;  191,113;  210,655;49,35246
 176,32;  216,082;  229,795;  224,344; 0,00000
 176,92;  250,218;  254,187;  251,627; 0,00000
 177,52;  263,474;  266,111;  259,057; 0,00000
 178,12;  230,726;  233,103;  224,535; 0,00000
 178,72;  255,281;  264,100;  258,575; 0,00000
 179,32;  251,150;  263,103;  249,530; 0,00000
 179,92;  254,822;  250,645;  243,092; 0,00000
 180,52;  249,503;  238,426;  257,105;59,30339
 181,12;  258,705;  253,107;  257,536;126,39787
 181,73;  282,866;  275,493;  268,744; 0,00000
 182,33;  343,264;  340,345;  339,198; 0,00000
 182,93;  273,205;  272,188;  270,722; 0,00000
 183,53;  247,256;  244,330;  235,013; 0,00000
 184,13;  246,176;  241,254;  237,977; 0,00000
 184,73;  266,836;  261,636;  271,153;54,64451
 185,33;  255,666;  231,808;  356,565;19,12368
 185,93;  255,397;  239,724;  370,627;11,97306
 186,53;  281,136;  253,958;  377,759;21,95321
 187,13;  304,020;  278,043;  412,345;19,34202
 187,73;  264,596;  242,340;  353,170;20,08115
 188,33;  270,741;  241,182;  363,395;24,18649
 188,93;  267,698;  258,169;  378,970; 7,88834
 189,53;  273,484;  254,236;  388,329;14,35412
 190,13;  315,517;  288,374;  400,338;24,24256
 190,73;  251,940;  224,154;  356,952;20,92336
 191,34;  285,381;  254,935;  384,634;23,47472
 191,94;  263,493;  244,024;  365,443;16,03447
 192,54;  275,120;  251,126;  397,075;16,44005
 193,14;  287,666;  262,119;  391,625;19,72626
 193,74;  285,371;  260,887;  378,860;20,75421
 194,34;  279,142;  258,275;  380,965;17,00804
 194,94;  242,397;  222,504;  348,521;15,78620
 195,54;  220,992;  197,270;  337,172;16,95638
 196,14;  247,137;  220,276;  366,599;18,35742
 196,74;  248,054;  220,037;  356,063;20,59702
 197,34;  230,279;  197,973;  349,293;21,34902
 197,94;  254,615;  239,582;  383,078;10,47667
 198,54;  272,666;  236,430;  383,862;24,57836
 199,14;  245,377;  212,207;  371,380;20,83937
 199,74;  239,185;  195,284;  384,945;23,14697
 200,34;  219,990;  189,131;  395,059;14,98527
 200,94;  257,801;  235,665;  434,600;11,12746
 201,54;  256,564;  215,206;  433,705;18,92821
 202,14;  279,321;  229,825;  467,037;20,86557
 202,74;  259,080;  214,514;  468,601;17,53956
 203,34;  238,053;  206,444;  490,092;11,14360
 203,94;  220,511;  176,288;  498,326;13,73241
 204,54;  292,393;  244,351;  596,232;13,65266
 205,14;  254,676;  197,284;  583,334;14,86641
 205,74;  288,284;  233,982;  673,038;12,36790
 206,34;  268,581;  212,671;  692,272;11,65753
 206,94;  280,199;  221,440;  751,362;11,08838
 207,54;  261,784;  193,748;  800,466;11,21377
 208,14;  288,887;  205,595;  875,535;12,43279
 208,74;  292,263;  203,745;  939,990;12,02293
 209,34;  293,895;  210,438; 1033,321;10,14206
 209,94;  310,040;  218,284; 1129,067;10,07446
 210,54;  315,509;  208,827; 1227,490;10,47277
 211,14;  323,734;  220,822; 1337,859; 9,21289
 211,73;  345,863;  211,590; 1472,089;10,65241
 212,33;  363,994;  222,357; 1563,111;10,56398
 212,93;  355,264;  207,052; 1663,090;10,17911
 213,53;  340,994;  177,284; 1710,402;10,67824
 214,13;  355,209;  198,370; 1785,473; 9,88213
 214,73;  350,552;  184,825; 1838,421;10,02217
 215,33;  331,502;  170,053; 1844,760; 9,64042
 215,93;  371,497;  202,828; 1954,893; 9,62685
 216,53;  357,332;  161,514; 2027,221;10,49567
 217,13;  428,538;  220,442; 2273,087;10,13791
 217,73;  419,034;  200,598; 2426,870; 9,81177
 218,33;  408,226;  156,217; 2636,573;10,16021
 218,93;  467,206;  193,994; 2924,810;10,00479
 219,53;  523,495;  190,448; 3224,523;10,97690
 220,13;  537,318;  162,449; 3504,451;11,21688
 220,73;  596,655;  184,669; 3832,891;11,29279
 221,32;  639,956;  193,822; 4241,375;11,02231
 221,92;  690,886;  202,910; 4629,786;11,02303
 222,52;  729,293;  176,060; 5025,214;11,40886
 223,12;  803,100;  189,906; 5445,757;11,66687
 223,72;  854,753;  199,675; 5831,323;11,63208
 224,32;  905,963;  199,291; 6210,726;11,75546
 224,92;  943,252;  182,830; 6550,712;11,94152
 225,52; 1025,007;  209,363; 6889,620;12,20977
 226,12; 1060,721;  201,135; 7177,245;12,32186
 226,72; 1088,193;  165,365; 7479,720;12,61668
 227,31; 1140,559;  160,903; 7819,476;12,79162
 227,91; 1218,961;  199,900; 8185,516;12,76120
 228,51; 1293,145;  186,281; 8544,352;13,24306
 229,11; 1356,089;  186,749; 8931,915;13,37127
 229,71; 1426,976;  183,129; 9204,434;13,78788
 230,31; 1471,690;  178,062; 9620,794;13,69972
 230,91; 1547,450;  174,817; 9961,717;14,02520
 231,51; 1594,092;  173,598;10222,241;14,13618
 232,10; 1693,399;  172,140;10535,817;14,67876
 232,70; 1737,142;  183,505;10759,581;14,69010
 233,30; 1800,921;  196,366;11024,888;14,81786
 233,90; 1877,133;  183,135;11244,951;15,31392
 234,50; 1886,698;  175,982;11337,965;15,32627
 235,10; 1920,560;  174,599;11427,712;15,51536
 235,70; 1996,144;  191,977;11505,059;15,94761
 236,29; 2013,331;  187,437;11499,198;16,14156
 236,89; 2018,362;  158,125;11379,550;16,57754
 237,49; 2046,481;  193,519;11382,585;16,56047
 238,09; 2013,504;  184,902;11208,118;16,58864
 238,69; 2030,176;  223,353;11047,857;16,69196
 239,29; 1975,775;  183,055;10729,674;16,99805
 239,89; 1960,765;  196,202;10473,410;17,16967
 240,48; 1885,870;  178,441;10104,874;17,20083
 241,08; 1861,565;  187,209; 9800,502;17,41709
 241,68; 1830,205;  204,903; 9484,756;17,51431
 242,28; 1779,816;  177,673; 9202,390;17,75283
 242,88; 1743,632;  219,062; 8918,038;17,52585
 243,48; 1723,596;  218,519; 8674,327;17,79933
 244,07; 1624,865;  189,131; 8388,733;17,50979
 244,67; 1645,425;  209,057; 8248,743;17,86597
 245,27; 1595,171;  205,743; 8109,551;17,57922
 245,87; 1592,442;  211,600; 8051,210;17,61365
 246,47; 1554,267;  194,282; 7987,411;17,45108
 247,06; 1545,381;  187,748; 8011,629;17,35243
 247,66; 1551,099;  171,826; 8107,906;17,37978
 248,26; 1581,756;  212,206; 8242,655;17,05446
 248,86; 1566,266;  206,359; 8419,081;16,55854
 249,46; 1560,131;  159,597; 8620,291;16,55341
 250,05; 1637,178;  202,748; 8950,896;16,39696
 250,65; 1648,750;  173,820; 9339,954;16,09108
 251,25; 1714,114;  181,901; 9793,801;15,94079
 251,85; 1772,121;  179,356;10317,043;15,71133
 252,44; 1789,860;  158,129;10915,438;15,16857
 253,04; 1926,040;  198,977;11645,968;15,08749
 253,64; 1964,704;  157,665;12258,311;14,93341
 254,24; 2111,909;  201,671;13160,561;14,74076
 254,84; 2209,362;  183,905;14038,291;14,61961
 255,43; 2300,484;  188,899;14941,846;14,31297
 256,03; 2402,279;  180,127;15826,162;14,20266
 256,63; 2546,266;  188,971;16872,460;14,12951
 257,23; 2619,197;  180,664;17609,252;13,99157
 257,82; 2731,120;  198,122;18521,015;13,82423
 258,42; 2791,173;  156,428;19273,861;13,78190
 259,02; 2925,915;  197,669;20130,896;13,68693
 259,62; 3004,118;  170,888;20734,580;13,77783
 260,21; 3074,408;  190,283;21245,022;13,69822
 260,81; 3149,568;  191,750;21616,575;13,80556
 261,41; 3164,410;  172,352;22052,893;13,67452
 262,01; 3251,881;  208,579;22470,340;13,67054
 262,60; 3251,505;  170,818;22693,790;13,67798
 263,20; 3322,354;  174,820;23018,171;13,77878
 263,80; 3374,064;  204,964;23182,267;13,79231
 264,40; 3355,303;  173,965;23300,707;13,75610
 264,99; 3390,335;  199,963;23531,878;13,67385
 265,59; 3396,713;  182,266;23539,709;13,76198
 266,19; 3446,795;  175,502;23802,602;13,84551
 266,78; 3543,677;  214,576;23891,810;14,06034
 267,38; 3504,153;  194,113;23826,452;14,00640
 267,98; 3527,445;  185,500;23841,787;14,12709
 268,58; 3554,595;  193,806;23828,746;14,21958
 269,17; 3557,730;  180,571;23825,980;14,28251
 269,77; 3588,865;  191,970;23675,152;14,46522
 270,37; 3539,364;  169,117;23585,652;14,39260
 270,96; 3571,495;  227,199;23454,585;14,39807
 271,56; 3511,708;  176,971;23180,600;14,49657
 272,16; 3528,844;  180,967;22973,472;14,68850
 272,75; 3560,237;  181,198;22888,264;14,88100
 273,35; 3568,234;  186,122;22854,174;14,92017
 273,95; 3540,429;  190,506;22836,676;14,79245
 274,54; 3592,746;  172,209;22924,208;15,03400
 275,14; 3693,532;  204,123;23235,106;15,15093
 275,74; 3686,795;  174,890;23232,992;15,23068
 276,33; 3802,375;  209,354;23707,477;15,29067
 276,93; 3881,570;  192,057;23984,566;15,50704
 277,53; 3983,139;  198,206;24507,764;15,56973
 278,12; 4087,129;  167,126;25027,252;15,76823
 278,72; 4261,092;  217,437;25609,176;15,92508
 279,32; 4335,968;  180,898;26088,433;16,03808
 279,91; 4482,836;  163,204;26852,768;16,18472
 280,51; 4640,821;  181,360;27271,850;16,46135
 281,11; 4825,894;  195,666;27969,677;16,67108
 281,70; 4910,280;  164,588;28439,799;16,78393
 282,30; 5092,247;  174,279;29086,292;17,01012
 282,90; 5244,680;  184,586;29459,618;17,28467
 283,49; 5413,657;  192,507;29900,816;17,57471
 284,09; 5592,570;  212,434;30354,885;17,84903
 284,69; 5735,671;  215,744;30661,732;18,13023
 285,28; 5878,378;  208,742;30982,627;18,42353
 285,88; 6023,738;  236,275;31256,105;18,65730
 286,47; 6136,795;  185,125;31353,052;19,09550
 287,07; 6268,622;  218,744;31294,329;19,46827
 287,67; 6469,212;  212,827;31496,173;19,99909
 288,26; 6574,027;  187,974;31416,981;20,44911
 288,86; 6813,906;  185,280;31465,713;21,19096
 289,46; 7045,605;  206,205;31576,361;21,80225
 290,05; 7270,922;  178,978;31690,466;22,50590
 290,65; 7470,720;  191,893;31867,097;22,97957
 291,24; 7755,448;  204,206;32070,040;23,69699
 291,84; 8054,727;  208,433;32108,767;24,59628
 292,44; 8326,518;  190,981;32177,589;25,43420
 293,03; 8658,438;  253,283;32450,072;26,10557
 293,63; 8819,737;  189,279;32541,066;26,67692
 294,22; 9073,750;  204,127;32626,569;27,35643
 294,82; 9213,523;  193,965;32750,562;27,70424
 295,41; 9360,511;  179,050;32439,569;28,46036
 296,01; 9533,355;  223,813;32365,381;28,96418
 296,61; 9589,631;  209,436;32174,967;29,34472
 297,20; 9623,941;  202,736;31710,277;29,90143
 297,80; 9680,352;  205,440;31715,548;30,06944
 298,39; 9670,275;  177,740;31278,889;30,52149
 298,99; 9730,283;  206,737;31065,368;30,86186
 299,58; 9695,771;  210,903;30931,562;30,87456
 300,18; 9731,777;  215,055;30767,335;31,14897
 300,78; 9635,503;  191,591;30381,244;31,28195
 301,37; 9737,270;  194,655;30430,452;31,56065
 301,97; 9722,893;  207,897;30406,040;31,50855
 302,56; 9760,306;  191,970;30345,939;31,73160
 303,16; 9755,472;  177,739;30280,536;31,81676
 303,75; 9795,395;  184,438;30230,810;31,98708
 304,35; 9884,975;  186,444;30537,377;31,95464
 304,94; 9906,883;  195,436;30526,279;32,01839
 305,54; 9906,648;  191,822;30419,760;32,13857
 306,13; 9854,522;  164,906;30453,938;31,99051
 306,73; 9794,182;  164,981;30222,992;32,03539
 307,33; 9850,347;  202,826;30120,489;32,24691
 307,92; 9829,765;  192,206;30233,701;32,08082
 308,52; 9976,387;  174,661;30652,667;32,16000
 309,11;10128,222;  188,735;31166,671;32,08570
 309,71;10224,429;  170,348;31364,847;32,23030
 310,30;10269,987;  179,052;31630,216;32,08446
 310,90;10448,756;  204,513;31899,370;32,32147
 311,49;10433,959;  204,897;32108,180;32,06273
 312,09;10426,103;  149,670;32300,118;31,96358
 312,68;10588,917;  235,284;32628,941;31,96192
 313,28;10560,380;  165,590;32764,701;31,88673
 313,87;10495,449;  157,590;32879,777;31,59281
 314,47;10608,719;  184,659;33084,246;31,68447
 315,06;10592,351;  176,514;33301,542;31,44401
 315,66;10582,411;  177,286;33382,348;31,33596
 316,25;10511,885;  153,047;33418,111;31,14029
 316,85;10502,766;  159,132;33475,190;31,04699
 317,44;10495,932;  177,966;33588,123;30,88272
 318,04;10458,391;  154,894;33657,708;30,75412
 318,63;10400,960;  168,750;33713,037;30,50359
 319,22;10372,672;  191,816;33893,025;30,20917
 319,82;10289,936;  179,665;33922,433;29,96278
 320,41;10176,219;  196,355;33805,048;29,69430
 321,01;10155,114;  190,516;33953,208;29,51364
 321,60;10105,156;  191,203;34006,750;29,31774
 322,20; 9992,678;  172,514;33981,710;29,04584
 322,79;10007,822;  209,052;34082,357;28,92771
 323,39; 9899,976;  174,059;34144,114;28,63086
 323,98; 9820,417;  176,360;34071,144;28,45292
 324,58; 9712,242;  177,277;33937,251;28,24340
 325,17; 9614,884;  179,201;33844,781;28,02769
 325,76; 9519,238;  209,820;33659,583;27,83104
 326,36; 9289,701;  160,670;33255,765;27,58424
 326,95; 9185,319;  206,204;33086,849;27,30821
 327,55; 8969,648;  170,126;32732,315;27,02374
 328,14; 8774,937;  172,748;32366,982;26,71966
 328,74; 8675,883;  202,278;31936,220;26,70203
 329,33; 8533,336;  192,669;31580,955;26,57255
 329,92; 8308,673;  159,658;31059,449;26,37239
 330,52; 8077,340;  187,133;30451,204;26,07120
 331,11; 7895,089;  177,665;30013,256;25,86650
 331,71; 7706,759;  183,281;29430,691;25,72357
 332,30; 7511,498;  195,205;29045,664;25,35937
 332,89; 7369,616;  232,900;28445,841;25,29590
 333,49; 7178,559;  193,281;27964,279;25,15314
 334,08; 6985,100;  185,895;27528,347;24,86684
 334,68; 6805,513;  190,741;27090,636;24,59033
 335,27; 6706,645;  201,826;26818,675;24,43873
 335,86; 6620,704;  231,280;26566,103;24,26226
 336,46; 6434,789;  202,827;26269,223;23,90803
 337,05; 6365,916;  192,742;26179,320;23,75524
 337,65; 6293,369;  170,818;25987,759;23,71524
 338,24; 6296,773;  213,745;26023,624;23,56860
 338,83; 6188,292;  208,360;25926,126;23,25214
 339,43; 6089,028;  179,816;25958,812;22,92258
 340,02; 6048,876;  177,277;25817,473;22,89998
 340,61; 6023,265;  178,129;25805,189;22,80845
 341,21; 6010,806;  211,740;25899,989;22,57478
 341,80; 5911,696;  185,126;25762,025;22,38962
 342,40; 5905,013;  193,441;25892,399;22,22491
 342,99; 5891,770;  191,823;25989,687;22,09465
 343,58; 5915,798;  179,900;26154,878;22,08240
 344,18; 5908,229;  208,670;26304,697;21,84072
 344,77; 5927,847;  189,892;26492,491;21,81516
 345,36; 5949,396;  164,973;26893,080;21,64172
 345,96; 6021,586;  206,439;27194,199;21,54735
 346,55; 6011,812;  180,444;27348,662;21,46393
 347,14; 6015,349;  170,364;27706,842;21,22633
 347,74; 6078,964;  155,526;28199,654;21,12185
 348,33; 6183,379;  178,525;28749,242;21,01751
 348,92; 6290,717;  203,374;29335,483;20,89565
 349,52; 6350,778;  163,911;29842,275;20,84639
 350,11; 6396,877;  182,277;29978,749;20,85683
 350,70; 6370,390;  182,744;30160,746;20,64062
 351,29; 6297,273;  165,499;29804,565;20,68815
 351,89; 6285,520;  186,197;29764,472;20,62096
 352,48; 6249,515;  155,744;29865,610;20,51093
 353,07; 6248,549;  192,288;29866,254;20,40934
 353,67; 6190,389;  196,990;29701,117;20,31376
 354,26; 6089,666;  194,210;29557,580;20,07759
 354,85; 6104,795;  189,209;29341,326;20,29213
 355,45; 6027,630;  173,587;29181,347;20,18096
 356,04; 5976,903;  181,135;29059,612;20,06951
 356,63; 5963,616;  215,665;28875,243;20,05595
 357,22; 5905,489;  185,501;28742,208;20,03028
 357,82; 5847,158;  186,041;28545,983;19,96167
 358,41; 5832,547;  191,359;28495,221;19,93081
 359,00; 5793,730;  169,893;28243,857;20,03222
 359,60; 5775,071;  187,745;28188,732;19,95403
 360,19; 5716,681;  194,751;27963,920;19,88511
 360,78; 5720,581;  194,741;27818,668;20,00382
 361,37; 5656,157;  196,511;27685,387;19,86129
 361,97; 5641,433;  191,281;27544,062;19,92540
 362,56; 5575,445;  179,123;27269,291;19,91986
 363,15; 5576,956;  210,049;26992,491;20,03890
 363,74; 5477,228;  185,813;26718,626;19,94291
 364,34; 5420,221;  206,047;26354,093;19,94097
 364,93; 5358,610;  178,968;25843,843;20,18183
 365,52; 5268,397;  153,588;25539,718;20,14804
 366,11; 5235,047;  183,816;25227,441;20,16973
 366,71; 5154,595;  177,201;24876,179;20,15223
 367,30; 5127,069;  184,742;24480,297;20,34252
 367,89; 5114,055;  212,286;24289,023;20,35894
 368,48; 5031,535;  185,198;24012,219;20,33967
 369,07; 4975,621;  188,744;23568,977;20,47403
 369,67; 4962,861;  199,506;23329,033;20,59426
 370,26; 4885,082;  176,514;23081,800;20,55669
 370,85; 4852,849;  198,742;22832,596;20,56259
 371,44; 4861,991;  185,819;22581,483;20,87981
 372,03; 4829,923;  170,970;22302,907;21,05081
 372,63; 4766,751;  160,896;22044,460;21,04710
 373,22; 4723,439;  173,667;21660,248;21,17495
 373,81; 4679,839;  168,819;21409,935;21,23721
 374,40; 4668,100;  176,287;21119,874;21,44720
 374,99; 4664,986;  179,587;20917,957;21,62850
 375,59; 4581,900;  169,748;20632,593;21,56177
 376,18; 4637,995;  196,587;20562,826;21,80769
 376,77; 4606,951;  191,281;20326,641;21,92993
 377,36; 4640,436;  201,819;20217,383;22,17583
 377,95; 4589,902;  197,201;20044,233;22,13279
 378,55; 4560,268;  176,362;19863,439;22,26794
 379,14; 4613,503;  190,203;19730,338;22,63700
 379,73; 4609,594;  188,971;19696,057;22,66163
 380,32; 4669,057;  204,358;19713,261;22,88545
 380,91; 4650,794;  165,968;19594,024;23,08428
 381,50; 4716,099;  189,353;19481,780;23,46385
 382,10; 4657,288;  170,281;19432,030;23,29491
 382,69; 4692,244;  164,126;19367,971;23,57922
 383,28; 4754,424;  198,046;19325,210;23,82150
 383,87; 4716,943;  177,046;19171,043;23,90175
 384,46; 4726,705;  169,657;19172,313;23,98111
 385,05; 4808,243;  207,046;19184,196;24,24599
 385,64; 4839,586;  191,201;19096,057;24,58831
 386,24; 4858,014;  163,965;19059,028;24,84273
 386,83; 4917,525;  190,733;19075,860;25,02918
 387,42; 4962,047;  203,201;19256,419;24,97660
 388,01; 5069,747;  182,806;19388,162;25,44572
 388,60; 5157,579;  183,196;19675,788;25,51935
 389,19; 5249,463;  177,647;19913,866;25,69801
 389,78; 5340,422;  183,648;20136,573;25,84470
 390,37; 5516,106;  239,578;20472,638;26,07875
 390,96; 5573,640;  186,118;20715,788;26,24261
 391,56; 5661,593;  189,184;20830,866;26,51145
 392,15; 5753,457;  175,418;21081,378;26,68157
 392,74; 5828,977;  167,715;21161,031;26,96697
 393,33; 5976,778;  182,721;21515,839;27,15991
 393,92; 6163,843;  192,173;21895,139;27,51545
 394,51; 6210,173;  172,183;22083,522;27,55646
 395,10; 6350,861;  208,009;22285,774;27,82370
 395,69; 6431,145;  197,472;22402,163;28,07368
 396,28; 6504,948;  207,389;22557,166;28,17728
 396,87; 6587,137;  196,380;22546,286;28,59411
 397,46; 6647,894;  195,143;22728,338;28,63664
 398,06; 6795,905;  211,520;22893,386;29,02929
 398,65; 6827,857;  195,270;22956,529;29,13981
 399,24; 6912,299;  199,729;23198,818;29,18625
 399,83; 6949,084;  189,701;23189,063;29,38944
 400,42; 7073,861;  228,753;23270,061;29,70798
 401,01; 7117,523;  198,648;23395,432;29,82687
 401,60; 7219,250;  199,148;23454,720;30,18675
 402,19; 7226,572;  231,887;23441,068;30,13758
 402,78; 7307,697;  225,301;23384,240;30,58169
 403,37; 7283,171;  211,256;23272,303;30,66606
 403,96; 7301,896;  209,742;23102,668;30,97967
 404,55; 7342,032;  225,684;23007,189;31,23739
 405,14; 7273,134;  201,631;22891,631;31,16572
 405,73; 7357,366;  212,877;22751,260;31,69921
 406,32; 7376,852;  216,297;22752,881;31,77303
 406,91; 7357,047;  213,017;22382,174;32,22509
 407,50; 7358,882;  215,762;22310,773;32,32911
 408,09; 7296,361;  185,206;22059,651;32,50896
 408,68; 7301,682;  209,040;21855,937;32,76517
 409,27; 7288,880;  193,287;21632,158;33,09686
 409,86; 7298,444;  203,863;21566,002;33,21101
 410,45; 7390,274;  228,433;21501,025;33,66699
 411,04; 7310,390;  228,311;21424,120;33,41263
 411,63; 7285,864;  216,661;21136,812;33,79136
 412,22; 7232,878;  225,930;20916,850;33,86484
 412,81; 7202,044;  234,021;20714,094;34,02343
 413,40; 7151,441;  247,653;20353,221;34,33769
 413,99; 7125,993;  270,340;20083,803;34,60098
 414,58; 6976,321;  198,882;19675,130;34,79848
 415,17; 6898,621;  210,559;19546,813;34,58820
 415,76; 6934,189;  218,852;19379,655;35,04726
 416,35; 6860,323;  206,629;19187,739;35,05429
 416,94; 6918,161;  231,932;19188,140;35,27198
 417,53; 7060,935;  210,330;19450,999;35,60482
 418,12; 7108,647;  206,333;19565,480;35,65402
 418,71; 7249,574;  228,346;19893,701;35,70354
 419,30; 7356,634;  219,642;19963,245;36,14838
 419,89; 7418,231;  207,491;20090,721;36,26544
 420,48; 7556,852;  233,115;20401,312;36,31330
 421,07; 7620,421;  237,118;20536,190;36,37261
 421,66; 7642,448;  194,511;20482,170;36,71166
 422,25; 7663,437;  207,372;20419,650;36,88879
 422,84; 7713,602;  239,991;20392,954;37,08443
 423,43; 7624,821;  219,907;20120,337;37,20982
 424,02; 7553,006;  241,372;19966,907;37,06685
 424,60; 7400,092;  209,621;19510,890;37,25388
 425,19; 7357,088;  221,073;19279,729;37,44238
 425,78; 7361,278;  232,689;19252,535;37,47974
 426,37; 7380,059;  239,388;19041,306;37,97842
 426,96; 7311,174;  231,773;18922,025;37,87750
 427,55; 7309,954;  223,014;18808,241;38,13212
 428,14; 7251,567;  208,326;18551,541;38,39698
 428,73; 7206,253;  234,241;18409,774;38,35933
 429,32; 7251,090;  234,387;18382,917;38,66265
 429,91; 7269,617;  251,703;18371,869;38,72986
 430,50; 7217,209;  238,400;18189,626;38,87650
 431,08; 7208,397;  252,482;18132,832;38,90257
 431,67; 7192,576;  293,333;18081,399;38,78580
 432,26; 7134,131;  311,953;17853,712;38,89107
 432,85; 7019,116;  314,260;17541,811;38,91938
 433,44; 6912,473;  324,959;17233,741;38,95913
 434,03; 6760,342;  336,738;16900,531;38,78100
 434,62; 6690,231;  298,421;16419,112;39,64973
 435,21; 6588,652;  322,414;16257,282;39,32407
 435,79; 6568,620;  304,888;16083,774;39,69692
 436,38; 6507,192;  305,743;16009,709;39,48970
 436,97; 6508,775;  304,360;15930,614;39,70507
 437,56; 6430,450;  303,835;15688,062;39,82400
 438,15; 6387,863;  277,216;15637,138;39,78306
 438,74; 6413,398;  300,756;15668,025;39,77702
 439,33; 6429,586;  268,293;15684,319;39,96681
 439,91; 6432,656;  228,607;15662,407;40,19781
 440,50; 6490,904;  272,838;15788,991;40,07479
 441,09; 6565,941;  266,692;15826,653;40,48371
 441,68; 6552,833;  258,700;15845,031;40,38239
 442,27; 6544,140;  246,081;15857,872;40,34168
 442,86; 6542,383;  223,022;15829,692;40,49141
 443,44; 6594,892;  239,172;15892,396;40,60326
 444,03; 6642,863;  287,714;15939,913;40,60227
 444,62; 6586,392;  252,330;15801,637;40,73533
 445,21; 6512,128;  263,481;15646,999;40,61910
 445,80; 6505,555;  280,799;15520,495;40,84567
 446,39; 6465,569;  299,259;15281,983;41,15613
 446,97; 6341,790;  231,654;15089,909;41,12284
 447,56; 6298,731;  245,662;14858,921;41,42176
 448,15; 6230,358;  242,346;14726,837;41,34085
 448,74; 6125,865;  254,424;14486,149;41,25600
 449,33; 6075,331;  251,276;14337,943;41,34445
 449,91; 6001,950;  238,977;14132,642;41,47914
 450,50; 5899,897;  234,129;13917,198;41,40714
 451,09; 5869,740;  263,131;13868,108;41,20999
 451,68; 5864,086;  267,442;13748,580;41,51463
 452,26; 5796,277;  272,292;13677,414;41,20802
 452,85; 5786,909;  251,213;13545,662;41,63915
 453,44; 5794,126;  259,302;13604,530;41,47418
 454,03; 5766,847;  232,372;13541,315;41,58463
 454,61; 5766,825;  225,149;13503,200;41,73562
 455,20; 5857,651;  263,846;13717,585;41,57807
 455,79; 5835,940;  254,608;13705,067;41,49548
 456,38; 5932,258;  262,468;13762,859;41,99723
 456,97; 5922,850;  242,389;13849,958;41,74486
 457,55; 5919,211;  243,163;13792,792;41,89080
 458,14; 5940,018;  279,541;13840,215;41,74185
 458,73; 5909,603;  256,318;13720,077;41,98890
 459,31; 5959,044;  280,326;13773,546;42,08572
 459,90; 5967,844;  297,552;13850,821;41,83708
 460,49; 6012,667;  320,088;13961,404;41,73043
 461,08; 6056,832;  252,945;13997,465;42,22692
 461,66; 6056,103;  264,018;14065,170;41,96813
 462,25; 6112,833;  258,256;14215,548;41,94637
 462,84; 6146,224;  288,484;14255,674;41,93929
 463,43; 6078,263;  228,803;14134,903;42,06398
 464,01; 6117,945;  248,037;14207,841;42,04864
 464,60; 6127,405;  295,261;14123,884;42,17443
 465,19; 6007,161;  237,732;13866,769;42,33189
 465,77; 6055,582;  257,505;13872,372;42,58637
 466,36; 5988,503;  273,572;13832,872;42,14769
 466,95; 5856,539;  259,650;13477,523;42,34334
 467,53; 5718,070;  257,664;13162,654;42,31236
 468,12; 5611,461;  277,819;12965,225;42,03887
 468,71; 5526,495;  258,733;12700,453;42,33950
 469,29; 5415,901;  249,820;12502,659;42,16232
 469,88; 5323,815;  256,131;12232,235;42,31496
 470,47; 5395,710;  310,291;12355,088;42,22088
 471,06; 5328,968;  254,984;12324,047;42,04124
 471,64; 5400,108;  264,136;12462,345;42,10432
 472,23; 5394,388;  239,842;12438,494;42,25505
 472,81; 5442,733;  233,297;12584,587;42,17726
 473,40; 5481,849;  252,458;12661,548;42,14162
 473,99; 5597,868;  320,227;12889,870;41,98720
 474,57; 5608,206;  249,765;12933,358;42,24703
 475,16; 5681,748;  262,068;13063,719;42,33579
 475,75; 5707,875;  272,848;13187,962;42,08269
 476,33; 5785,168;  291,622;13287,049;42,27291
 476,92; 5774,192;  285,229;13407,716;41,82868
 477,51; 5832,097;  278,697;13417,791;42,26624
 478,09; 5804,135;  284,082;13445,356;41,94164
 478,68; 5807,966;  279,238;13368,438;42,23885
 479,27; 5800,970;  291,617;13457,183;41,84668
 479,85; 5839,409;  271,545;13389,524;42,44453
 480,44; 5881,614;  259,163;13557,285;42,28003
 481,02; 6455,774;  270,783;14988,069;42,02535
 481,61; 7285,654;  298,704;16853,924;42,20391
 482,20; 7791,437;  285,630;17930,296;42,53868
 482,78; 8077,559;  325,470;18740,158;42,09731
 483,37; 8294,080;  324,099;19253,474;42,10378
 483,95; 8431,865;  330,177;19489,606;42,28564
 484,54; 8459,416;  333,011;19659,331;42,04838
 485,13; 8458,079;  314,414;19538,495;42,36179
 485,71; 8348,787;  288,719;19335,874;42,31639
 486,30; 8280,210;  319,797;19113,132;42,35764
 486,88; 8162,196;  358,029;18760,721;42,40775
 487,47; 7780,336;  338,569;18009,925;42,11203
 488,05; 7439,550;  325,264;17161,039;42,25695
 488,64; 6901,477;  327,808;15936,525;42,11537
 489,23; 6131,344;  342,419;14090,754;42,10637
 489,81; 5304,272;  333,575;12110,664;42,20650
 490,40; 5062,596;  292,884;11561,665;42,32678
 490,98; 4974,108;  279,963;11280,371;42,67246
 491,57; 4912,399;  318,574;11220,981;42,13588
 492,15; 4899,452;  282,580;11175,331;42,38481
 492,74; 4860,923;  286,495;11062,872;42,44866
 493,32; 4855,206;  298,809;11004,122;42,56201
 493,91; 4767,300;  288,813;10881,381;42,27952
 494,50; 4753,177;  292,208;10867,633;42,18241
 495,08; 4692,121;  275,207;10773,692;42,07191
 495,67; 4728,524;  291,889;10776,788;42,31451
 496,25; 4662,460;  239,818;10695,858;42,29749
 496,84; 4667,323;  249,889;10613,815;42,62317
 497,42; 4625,541;  242,743;10629,899;42,19440
 498,01; 4635,598;  272,275;10559,644;42,41438
 498,59; 4557,626;  241,283;10455,492;42,25822
 499,18; 4573,318;  246,891;10464,042;42,34475
 499,76; 4504,200;  264,203;10379,469;41,91681
 500,35; 4433,103;  253,364;10156,245;42,20730
 500,93; 4387,591;  246,204;10160,478;41,77196
 501,52; 4367,655;  240,821;10072,728;41,97390
 502,10; 4364,208;  255,215;10047,495;41,96156
 502,69; 4277,622;  238,449; 9874,636;41,91671
 503,27; 4194,282;  224,439; 9746,285;41,69195
 503,86; 4161,904;  237,986; 9677,305;41,56993
 504,44; 4087,588;  222,835; 9567,881;41,35616
 505,03; 3988,520;  206,605; 9349,773;41,36330
 505,61; 3949,822;  231,757; 9167,225;41,61019
 506,19; 3881,896;  251,912; 9090,904;41,06785
 506,78; 3786,242;  218,996; 8860,820;41,27885
 507,36; 3754,291;  242,604; 8707,741;41,48412
 507,95; 3663,521;  225,307; 8562,536;41,23929
 508,53; 3609,954;  225,073; 8451,625;41,14580
 509,12; 3563,823;  231,306; 8372,581;40,93360
 509,70; 3510,068;  241,923; 8201,459;41,05949
 510,29; 3482,904;  254,850; 8054,704;41,38608
 510,87; 3369,550;  214,919; 7882,304;41,14351
 511,46; 3310,440;  225,998; 7722,725;41,14385
 512,04; 3272,189;  225,848; 7586,672;41,38588
 512,62; 3200,324;  229,921; 7439,137;41,20286
 513,21; 3101,471;  219,620; 7286,972;40,77696
 513,79; 3053,412;  219,170; 7171,065;40,76934
 514,38; 3014,884;  208,166; 7057,227;40,97960
 514,96; 2987,616;  262,165; 6966,783;40,65035
 515,54; 2904,138;  213,167; 6790,305;40,91402
 516,13; 2861,280;  240,553; 6720,884;40,44126
 516,71; 2824,643;  233,096; 6619,763;40,57745
 517,30; 2757,151;  208,254; 6506,258;40,47151
 517,88; 2737,912;  237,100; 6435,466;40,34631
 518,46; 2661,098;  216,563; 6302,027;40,17007
 519,05; 2667,301;  218,951; 6251,051;40,58868
 519,63; 2665,604;  228,873; 6184,141;40,91723
 520,22; 2608,893;  233,649; 6158,654;40,08847
 520,80; 2579,997;  232,803; 6074,591;40,17937
 521,38; 2581,319;  263,337; 6061,558;39,97747
 521,97; 2529,507;  232,268; 5977,999;39,98167
 522,55; 2535,017;  234,499; 5976,864;40,06221
 523,13; 2511,260;  218,732; 5998,213;39,66668
 523,72; 2512,013;  229,948; 5964,620;39,79416
 524,30; 2562,012;  243,812; 6078,458;39,73162
 524,89; 2539,534;  218,269; 6058,244;39,74787
 525,47; 2576,095;  243,352; 6223,698;39,00681
 526,05; 2584,631;  213,815; 6281,861;39,07050
 526,64; 2659,645;  247,509; 6386,640;39,29116
 527,22; 2678,201;  232,429; 6516,164;38,92226
 527,80; 2737,530;  275,509; 6606,559;38,88805
 528,39; 2731,408;  228,665; 6715,845;38,57983
 528,97; 2796,171;  227,971; 6876,758;38,62660
 529,55; 2863,895;  245,732; 7032,457;38,57770
 530,14; 2922,220;  260,821; 7240,013;38,13335
 530,72; 2923,133;  234,433; 7310,170;37,99886
 531,30; 2938,709;  215,206; 7471,873;37,53105
 531,89; 2995,844;  237,667; 7556,474;37,68615
 532,47; 3059,935;  258,131; 7612,737;38,09591
 533,05; 3042,185;  259,124; 7668,685;37,56040
 533,63; 3071,808;  261,439; 7675,882;37,90397
 534,22; 3060,452;  242,055; 7793,326;37,32348
 534,80; 3106,246;  269,444; 7829,816;37,52199
 535,38; 3147,303;  328,976; 7940,407;37,02756
 535,97; 3047,608;  243,131; 7820,163;37,01287
 536,55; 3122,744;  300,676; 7934,029;36,97024
 537,13; 3100,902;  314,436; 7886,099;36,80125
 537,71; 3131,106;  343,436; 8007,316;36,37414
 538,30; 3148,399;  359,287; 8025,634;36,38123
 538,88; 3119,600;  395,757; 8136,980;35,18621
 539,46; 3246,756;  452,060; 8313,680;35,54861
 540,05; 3271,604;  453,447; 8445,808;35,26064
 540,63; 3385,671;  508,217; 8632,355;35,41858
 541,21; 3360,259;  542,297; 8812,094;34,07535
 541,79; 3430,933;  565,143; 8953,003;34,16592
 542,38; 3464,424;  610,139; 9040,255;33,85819
 542,96; 3539,258;  620,224; 9188,516;34,06787
 543,54; 3577,703;  639,296; 9393,741;33,56475
 544,12; 3594,872;  602,605; 9495,949;33,64614
 544,70; 3576,526;  594,455; 9605,597;33,09316
 545,29; 3648,010;  599,601; 9783,020;33,19471
 545,87; 3641,240;  571,989; 9797,388;33,26958
 546,45; 3611,799;  525,523; 9793,771;33,29946
 547,03; 3640,571;  499,064; 9864,383;33,54405
 547,62; 3677,931;  464,528; 9968,343;33,81172
 548,20; 3742,318;  479,608;10122,086;33,83684
 548,78; 3721,339;  433,771;10301,369;33,31680
 549,36; 3777,688;  408,386;10398,871;33,72511
 549,94; 3770,601;  375,991;10596,293;33,21438
 550,53; 3849,241;  380,076;10795,821;33,30692
 551,11; 3866,555;  348,543;10984,474;33,07668
 551,69; 3949,689;  348,924;11233,509;33,08132
 552,27; 3995,025;  305,151;11505,354;32,94471
 552,85; 4062,363;  314,850;11853,908;32,47677
 553,44; 4176,949;  317,001;12181,129;32,53461
 554,02; 4300,473;  328,002;12412,871;32,87144
 554,60; 4369,727;  261,928;12785,981;32,79928
 555,18; 4440,515;  298,770;13130,396;32,27763
 555,76; 4522,560;  280,310;13426,609;32,26954
 556,34; 4648,130;  292,855;13790,439;32,26707
 556,93; 4729,380;  281,463;14114,541;32,15421
 557,51; 4824,726;  272,163;14477,787;32,04761
 558,09; 4915,043;  288,540;14881,559;31,70354
 558,67; 5010,564;  287,166;15208,462;31,65541
 559,25; 5094,761;  288,087;15520,494;31,55558
 559,83; 5157,701;  275,399;15826,061;31,39611
 560,41; 5254,018;  266,315;16137,425;31,42630
 561,00; 5330,583;  286,166;16443,091;31,22139
 561,58; 5362,538;  269,392;16680,819;31,03415
 562,16; 5439,661;  266,081;17003,148;30,91091
 562,74; 5520,887;  256,310;17374,623;30,75406
 563,32; 5641,356;  266,399;17731,649;30,77515
 563,90; 5785,881;  270,396;18103,123;30,92900
 564,48; 5824,368;  272,391;18519,719;30,42625
 565,06; 5981,402;  263,627;19081,924;30,38413
 565,65; 6151,295;  278,557;19679,709;30,27004
 566,23; 6418,535;  314,781;20442,381;30,32529
 566,81; 6522,569;  270,933;21100,774;30,01288
 567,39; 6795,170;  277,939;21952,400;30,06871
 567,97; 6949,422;  288,472;22604,444;29,84835
 568,55; 7178,433;  298,398;23313,287;29,89384
 569,13; 7287,130;  266,089;24046,114;29,52495
 569,71; 7553,238;  268,619;24951,890;29,51237
 570,29; 7782,794;  305,463;25923,853;29,18736
 570,87; 7975,366;  302,542;26585,591;29,19305
 571,45; 8125,641;  297,935;27178,870;29,11992
 572,03; 8151,071;  260,632;27537,296;28,92743
 572,61; 8322,847;  264,783;28300,753;28,74188
 573,20; 8452,033;  284,778;28965,073;28,47689
 573,78; 8577,904;  272,630;29466,002;28,44918
 574,36; 8636,782;  288,398;29912,173;28,18137
 574,94; 8735,202;  327,094;30320,423;28,03326
 575,52; 8714,849;  288,409;30574,462;27,82284
 576,10; 8898,779;  337,560;31156,587;27,77900
 576,68; 8935,042;  326,709;31700,853;27,43767
 577,26; 9062,188;  349,565;32330,440;27,24323
 577,84; 9161,675;  352,090;32828,223;27,12634
 578,42; 9176,361;  387,327;33020,487;26,93283
 579,00; 9146,221;  340,937;33194,970;26,80123
 579,58; 9137,558;  374,787;33409,804;26,52570
 580,16; 9126,157;  360,866;33357,555;26,56415
 580,74; 9083,752;  354,713;33659,497;26,20956
 581,32; 9051,921;  356,788;33610,107;26,14817
 581,90; 8991,648;  375,789;33612,868;25,92243
 582,48; 8986,474;  369,174;33764,908;25,80359
 583,06; 8931,855;  365,787;33957,043;25,50089
 583,64; 8895,722;  383,479;34027,102;25,30121
 584,22; 8785,182;  371,564;33736,584;25,21688
 584,80; 8664,188;  386,019;33618,528;24,90985
 585,38; 8522,045;  393,547;33127,955;24,83166
 585,96; 8451,170;  367,861;33255,038;24,57891
 586,54; 8430,108;  373,486;33283,290;24,48092
 587,12; 8399,720;  342,483;33389,579;24,38107
 587,70; 8397,227;  380,093;33513,287;24,19668
 588,28; 8319,067;  361,252;33581,782;23,95451
 588,86; 8305,881;  361,715;33706,226;23,82451
 589,44; 8259,988;  335,414;33773,088;23,69954
 590,02; 8275,675;  349,259;33964,101;23,58011
 590,59; 8226,445;  336,178;34267,063;23,25394
 591,17; 8194,788;  338,728;34390,872;23,07067
 591,75; 8165,606;  329,801;34430,161;22,97866
 592,33; 8237,640;  344,184;34736,916;22,95094
 592,91; 8195,802;  294,727;34927,899;22,81360
 593,49; 8236,582;  299,576;35227,049;22,72425
 594,07; 8267,996;  325,499;35443,361;22,61669
 594,65; 8203,578;  324,102;35446,213;22,43452
 595,23; 8244,916;  317,335;35869,707;22,29832
 595,81; 8204,739;  313,260;35978,635;22,12644
 596,39; 8119,238;  297,030;35986,486;21,91742
 596,97; 8171,321;  312,496;36169,809;21,91694
 597,55; 8063,478;  302,026;36237,218;21,59847
 598,12; 7967,020;  274,347;36070,747;21,49007
 598,70; 7978,654;  291,343;36302,700;21,34691
 599,28; 7980,991;  297,113;36385,067;21,29209
 599,86; 7929,867;  290,574;36409,555;21,15036
 600,44; 7878,266;  269,422;36548,972;20,97282
 601,02; 7893,755;  318,199;36621,282;20,86753
 601,60; 7784,423;  292,263;36584,772;20,64382
 602,18; 7722,598;  268,962;36542,357;20,54849
 602,75; 7657,606;  271,183;36728,232;20,26062
 603,33; 7621,702;  295,959;36659,850;20,14565
 603,91; 7617,744;  284,042;36673,956;20,15312
 604,49; 7578,865;  304,344;36733,795;19,96879
 605,07; 7500,568;  307,340;36735,441;19,74637
 605,65; 7483,081;  316,730;36867,615;19,60651
 606,23; 7498,620;  376,638;37042,991;19,42375
 606,80; 7490,740;  414,798;37027,834;19,32629
 607,38; 7375,698;  462,118;37101,720;18,86915
 607,96; 7341,847;  510,952;37176,685;18,63019
 608,54; 7351,832;  573,422;37194,832;18,50942
 609,12; 7279,615;  572,259;37317,354;18,25374
 609,70; 7233,714;  603,112;37368,578;18,03486
 610,27; 7184,291;  606,874;37359,178;17,89661
 610,85; 7152,695;  627,881;37539,895;17,67667
 611,43; 7110,799;  636,651;37435,270;17,59345
 612,01; 6974,762;  594,262;37092,613;17,48161
 612,59; 6901,704;  601,881;37199,840;17,21359
 613,16; 6850,817;  548,487;37107,905;17,23859
 613,74; 6762,654;  531,344;37053,524;17,06171
 614,32; 6699,369;  486,269;36980,810;17,02474
 614,90; 6616,498;  449,956;36788,858;16,96953
 615,48; 6487,487;  412,026;36565,186;16,80478
 616,05; 6399,992;  384,255;36591,987;16,61451
 616,63; 6376,727;  393,638;36399,556;16,61696
 617,21; 6290,435;  373,720;36208,055;16,51130
 617,79; 6205,814;  358,568;36182,359;16,32224
 618,36; 6177,395;  372,493;36068,582;16,26201
 618,94; 6004,726;  307,181;35757,186;16,07206
 619,52; 5999,697;  336,639;35574,660;16,07087
 620,10; 5898,201;  324,106;35490,427;15,85066
 620,67; 5907,756;  330,253;35328,846;15,93636
 621,25; 5854,721;  350,417;35234,342;15,77891
 621,83; 5761,889;  317,950;35166,539;15,62169
 622,41; 5744,640;  355,950;35213,010;15,45939
 622,98; 5678,141;  333,715;34942,561;15,44237
 623,56; 5600,845;  329,560;34938,750;15,23088
 624,14; 5525,976;  319,496;34857,035;15,07485
 624,72; 5511,236;  327,642;34733,666;15,06595
 625,29; 5460,489;  303,637;34796,655;14,95042
 625,87; 5446,910;  343,184;34653,296;14,87528
 626,45; 5322,791;  309,790;34538,777;14,64548
 627,02; 5269,649;  307,569;34479,500;14,52093
 627,60; 5245,526;  290,191;34515,900;14,47840
 628,18; 5219,384;  278,490;34547,508;14,41796
 628,76; 5160,967;  283,638;34462,117;14,27017
 629,33; 5152,076;  308,871;34659,656;14,09925
 629,91; 5104,047;  294,721;34597,888;14,02006
 630,49; 5060,329;  319,486;34691,145;13,79288
 631,06; 5053,110;  313,100;34815,027;13,73839
 631,64; 5037,308;  303,560;34756,719;13,73967
 632,22; 4953,392;  261,865;34691,845;13,62629
 632,79; 5003,113;  293,096;34875,288;13,61978
 633,37; 4954,050;  271,031;34969,115;13,49648
 633,95; 4952,724;  286,482;35066,614;13,41640
 634,52; 4906,496;  270,257;35172,209;13,28361
 635,10; 4911,184;  272,105;35203,843;13,28041
 635,68; 4929,402;  278,634;35427,582;13,23160
 636,25; 4841,614;  260,169;35345,970;13,05783
 636,83; 4805,659;  246,408;35600,117;12,89611
 637,41; 4830,962;  247,094;35586,147;12,97111
 637,98; 4825,002;  287,094;35822,143;12,77023
 638,56; 4804,348;  272,090;35938,879;12,70722
 639,13; 4806,748;  266,714;35874,538;12,75010
 639,71; 4796,004;  301,254;36166,792;12,53222
 640,29; 4664,010;  229,562;35878,746;12,43913
 640,86; 4690,835;  250,024;36019,317;12,41515
 641,44; 4653,660;  256,793;35963,427;12,31386
 642,02; 4639,023;  281,870;36074,767;12,17323
 642,59; 4627,078;  256,640;36133,261;12,18186
 643,17; 4590,749;  265,640;36116,678;12,06411
 643,74; 4547,035;  248,179;36286,634;11,92853
 644,32; 4514,321;  286,948;36153,128;11,78652
 644,89; 4473,761;  277,256;36164,853;11,69347
 645,47; 4500,970;  294,564;36114,886;11,74307
 646,05; 4449,334;  273,872;36122,457;11,64749
 646,62; 4359,850;  269,487;36112,335;11,41194
 647,20; 4383,983;  274,795;36342,060;11,39312
 647,77; 4339,577;  252,872;36124,785;11,39249
 648,35; 4278,786;  240,565;35997,741;11,29346
 648,92; 4295,841;  279,257;36020,773;11,23787
 649,50; 4236,127;  231,950;35947,575;11,21128
 650,08; 4180,721;  231,950;35918,915;11,06502
 650,65; 4206,315;  255,181;36126,948;11,01461
 651,23; 4264,832;  230,566;36875,134;11,00918
 651,80; 4341,888;  242,028;37746,551;10,93164
 652,38; 4374,020;  246,259;38116,123;10,89986
 652,95; 4358,229;  216,182;38425,617;10,84038
 653,53; 4384,208;  258,798;38662,341;10,74226
 654,10; 4413,725;  277,336;38731,374;10,75671
 654,68; 4343,549;  242,413;38746,791;10,65109
 655,25; 4338,066;  245,183;38871,131;10,59620
 655,83; 4322,660;  232,183;38913,472;10,57482
 656,40; 4308,869;  266,260;38880,966;10,46909
 656,98; 4300,617;  245,645;38820,460;10,51197
 657,55; 4262,749;  248,953;38640,723;10,45484
 658,13; 4179,266;  237,107;38302,910;10,35617
 658,70; 4129,322;  259,030;38101,635;10,22734
 659,28; 4050,608;  248,953;37261,744;10,27119
 659,85; 3929,894;  247,108;36460,469;10,16969
 660,43; 3911,026;  258,800;36515,425;10,07327
 661,00; 3918,697;  239,954;36657,996;10,10143
 661,58; 3894,906;  234,570;36980,797; 9,96112
 662,15; 3916,269;  232,416;37163,907; 9,97483
 662,73; 3986,633;  289,647;37421,016; 9,95650
 663,30; 3932,303;  247,724;37754,587; 9,82375
 663,88; 3935,051;  253,955;37857,620; 9,78919
 664,45; 3928,645;  232,494;38007,037; 9,78477
 665,03; 3976,470;  236,417;38401,300; 9,79972
 665,60; 4052,217;  298,340;38753,794; 9,76162
 666,17; 3976,119;  237,494;38917,827; 9,66544
 666,75; 3982,636;  239,341;39296,475; 9,58415
 667,32; 4037,076;  265,726;39543,123; 9,60183
 667,90; 4028,593;  251,880;39758,386; 9,55972
 668,47; 4061,725;  278,957;39992,727; 9,52508
 669,05; 4050,319;  230,726;40359,990; 9,51822
 669,62; 4027,913;  214,573;40433,253; 9,48152
 670,19; 4024,276;  225,803;40507,747; 9,42971
 670,77; 4053,101;  235,881;40731,011; 9,42637
 671,34; 4045,310;  230,419;40639,120; 9,44076
 671,92; 4038,673;  231,804;40972,307; 9,34419
 672,49; 4018,113;  250,727;41030,647; 9,23833
 673,06; 4033,399;  211,266;41067,141; 9,35516
 673,64; 4018,147;  232,651;40944,481; 9,29827
 674,21; 4022,202;  226,497;40900,821; 9,33194
 674,79; 4042,488;  236,190;41207,546; 9,29015
 675,36; 4043,851;  250,575;41293,117; 9,24230
 675,93; 3995,061;  223,575;41215,381; 9,20058
 676,51; 4050,655;  247,652;41281,721; 9,26792
 677,08; 4015,018;  243,883;41354,138; 9,17322
 677,65; 4019,535;  251,422;41528,171; 9,12890
 678,23; 4037,667;  234,806;41741,126; 9,16212
 678,80; 4014,030;  236,960;41821,543; 9,08286
 679,38; 4033,701;  234,730;42025,730; 9,09040
 679,95; 4065,987;  238,884;42289,532; 9,10118
 680,52; 4043,350;  247,423;42490,564; 8,98590
 681,10; 4122,021;  246,500;42771,597; 9,11349
 681,67; 4119,153;  246,346;43103,245; 9,03660
 682,24; 4093,285;  219,577;43185,354; 9,01580
 682,82; 4150,879;  236,962;43750,233; 8,99477
 683,39; 4238,242;  280,654;44022,342; 9,04763
 683,96; 4186,452;  241,808;44330,375; 8,94709
 684,54; 4194,738;  228,424;44626,254; 8,93358
 685,11; 4261,716;  268,193;44962,055; 8,93528
 685,68; 4259,156;  230,040;45407,626; 8,91840
 686,25; 4264,750;  221,425;45358,659; 8,95785
 686,83; 4287,883;  232,040;45501,999; 8,95924
 687,40; 4291,400;  223,194;45930,493; 8,90056
 687,97; 4389,147;  262,041;46359,295; 8,95304
 688,55; 4357,895;  215,964;46334,405; 8,98107
 689,12; 4364,335;  206,810;46529,360; 8,97516
 689,69; 4408,775;  231,272;46663,701; 8,99695
 690,26; 4401,984;  225,503;46774,502; 8,97223
 690,84; 4413,193;  236,811;46911,073; 8,94793
 691,41; 4452,787;  231,811;46988,414; 9,02755
 691,98; 4459,535;  237,888;47314,523; 8,96761
 692,56; 4465,283;  226,350;47431,017; 8,97990
 693,13; 4532,184;  292,889;47373,127; 9,00441
 693,70; 4522,163;  244,812;47523,313; 9,04714
 694,27; 4496,911;  239,120;47616,346; 8,98700
 694,84; 4500,197;  233,043;47821,686; 8,96675
 695,42; 4604,406;  278,120;47929,488; 9,07904
 695,99; 4583,461;  233,197;48137,597; 9,08114
 696,56; 4553,286;  233,582;47934,091; 9,05589
 697,13; 4618,649;  250,659;48399,047; 9,07193
 697,71; 4619,089;  218,890;48325,310; 9,14680
 698,28; 4626,529;  238,198;48666,958; 9,06142
 698,85; 4626,661;  202,352;48771,145; 9,10937
 699,42; 4628,871;  218,429;48856,331; 9,06791
 699,99; 4723,157;  247,276;48956,902; 9,18890
 700,57; 4688,905;  255,814;49071,858; 9,08122
 701,14; 4709,652;  228,353;49147,429; 9,16064
 701,71; 4763,862;  249,276;49230,307; 9,21701
 702,28; 4805,994;  236,430;49403,340; 9,29398
 702,85; 4774,818;  246,738;49469,603; 9,19914
 703,43; 4854,412;  256,892;49662,867; 9,30560
 704,00; 4841,929;  271,277;49971,976; 9,19635
 704,57; 4840,139;  240,508;49890,162; 9,26417
 705,14; 4883,040;  273,662;50121,887; 9,24682
 705,71; 4916,711;  275,508;50241,997; 9,28863
 706,28; 4895,382;  247,816;50046,183; 9,33277
 706,86; 4940,129;  278,740;50307,293; 9,31746
 707,43; 4974,569;  297,971;50242,479; 9,36359
 708,00; 4936,702;  277,586;50344,358; 9,30580
 708,57; 4919,834;  256,817;50161,852; 9,34378
 709,14; 4967,351;  280,510;50303,423; 9,36939
 709,71; 4974,714;  261,894;50488,532; 9,38311
 710,28; 5036,308;  254,125;50626,488; 9,49366
 710,86; 5035,210;  256,126;50711,290; 9,47194
 711,43; 5064,496;  278,126;50795,246; 9,47475
 712,00; 5018,474;  257,203;50800,740; 9,42014
 712,57; 5101,683;  276,588;51022,080; 9,50842
 713,14; 5133,508;  252,050;51014,036; 9,61637
 713,71; 5100,717;  260,204;50972,376; 9,54507
 714,28; 5125,773;  255,973;51037,101; 9,58978
 714,85; 5112,828;  236,742;50795,287; 9,64443
 715,42; 5176,037;  254,204;50993,473; 9,70024
 716,00; 5219,170;  293,281;51094,429; 9,69641
 716,57; 5217,994;  253,897;51263,231; 9,73174
 717,14; 5209,127;  239,436;51195,263; 9,75294
 717,71; 5213,874;  231,667;51190,450; 9,77694
 718,28; 5298,699;  278,359;51276,790; 9,84411
 718,85; 5272,139;  237,282;51392,130; 9,84238
 719,42; 5334,656;  260,898;51497,778; 9,90255
 719,99; 5342,096;  226,898;51289,426;10,01752
 720,56; 5416,074;  253,129;51547,843;10,06526
 721,13; 5413,899;  240,668;51716,799;10,04977
 721,70; 5399,493;  231,591;51558,678;10,06857
 722,27; 5431,856;  246,130;51621,095;10,09388
 722,84; 5487,296;  297,284;51782,128;10,08066
 723,41; 5463,198;  235,438;51811,006;10,13612
 723,98; 5545,791;  251,284;51935,500;10,24395
 724,55; 5571,155;  265,361;52038,994;10,24806
 725,12; 5516,902;  208,131;51938,873;10,26231
 725,69; 5571,342;  239,900;52163,598;10,26784
 726,27; 5628,321;  244,823;52210,554;10,35971
 726,84; 5614,684;  255,208;52443,279;10,26954
 727,41; 5669,816;  255,285;52494,234;10,36493
 727,98; 5743,102;  265,209;52775,267;10,43208
 728,55; 5779,235;  274,055;52663,607;10,50816
 729,12; 5761,367;  225,594;52702,793;10,54891
 729,69; 5823,653;  260,132;52912,595;10,56650
 730,26; 5850,247;  259,133;53111,089;10,57882
 730,82; 5861,841;  253,671;52993,660;10,63362
 731,39; 5868,666;  241,364;53140,924;10,63771
 731,96; 5955,413;  227,979;53474,264;10,75650
 732,53; 5973,469;  258,056;53579,066;10,71887
 733,10; 6030,678;  260,595;53624,252;10,81276
 733,67; 6066,041;  269,749;53854,900;10,81697
 734,24; 6047,020;  241,596;53542,010;10,89189
 734,81; 6125,306;  262,827;53711,965;10,96833
 735,38; 6050,823;  251,058;53400,459;10,91219
 735,95; 6067,955;  250,135;53241,261;10,97886
 736,52; 6143,318;  267,135;53456,678;11,04763
 737,09; 6097,297;  261,750;53213,249;11,02055
 737,66; 6143,506;  294,828;53433,589;11,00643
 738,23; 6168,946;  247,828;53462,391;11,12688
 738,80; 6270,463;  305,597;53783,347;11,15392
 739,37; 6256,057;  282,136;53840,456;11,15405
 739,94; 6322,497;  261,828;53875,874;11,30425
 740,51; 6420,398;  348,829;54006,675;11,31534
 741,07; 6326,992;  250,983;53907,939;11,32381
 741,64; 6382,201;  285,983;54102,894;11,32770
 742,21; 6459,718;  257,214;54171,619;11,50435
 742,78; 6428,389;  237,829;53999,267;11,51487
 743,35; 6453,137;  254,676;54342,915;11,45991
 743,92; 6595,269;  279,214;54378,332;11,67497
 744,49; 6586,709;  271,292;54216,057;11,70719
 745,06; 6556,611;  252,369;54160,244;11,69447
 745,63; 6633,820;  240,292;54249,815;11,83778
 746,19; 6630,798;  253,754;54181,693;11,82512
 746,76; 6667,931;  259,369;54331,957;11,85178
 747,33; 6708,755;  252,062;54278,528;11,95098
 747,90; 6820,965;  278,524;54505,253;12,06497
 748,47; 6815,789;  268,524;54309,208;12,11544
 749,04; 6831,383;  270,139;54340,779;12,13458
 749,61; 6893,746;  281,755;54211,427;12,26040
 750,17; 6948,263;  268,832;54355,537;12,34949
 750,74; 6956,395;  272,063;54285,954;12,37521
 751,31; 6913,528;  248,756;54194,294;12,35463
 751,88; 6947,276;  231,602;54038,711;12,48102
 752,45; 6981,716;  244,756;54330,513;12,45607
 753,02; 7006,156;  263,064;54052,469;12,53610
 753,58; 7002,749;  245,910;53986,886;12,57297
 754,15; 7070,651;  252,141;54263,149;12,62430
 754,72; 7057,399;  243,911;53934,874;12,69020
 755,29; 7082,608;  220,988;53807,676;12,80471
 755,86; 7083,279;  254,680;53888,478;12,73189
 756,42; 7106,719;  268,142;53864,664;12,75937
 756,99; 7114,774;  233,758;53807,004;12,84413
 757,56; 7142,599;  230,758;53725,498;12,92060
 758,13; 7143,885;  195,835;53647,300;12,99880
 758,70; 7236,863;  240,143;53829,410;13,05620
 759,26; 7248,457;  217,758;53746,673;13,13439
 759,83; 7294,897;  232,989;53937,629;13,14953
 760,40; 7273,107;  225,528;53773,969;13,16113
 760,97; 7278,854;  213,297;53708,078;13,20794
 761,53; 7286,294;  197,298;53388,265;13,32744
 762,10; 7288,811;  191,990;53365,836;13,34645
 762,67; 7373,020;  230,144;53300,561;13,45924
 763,24; 7311,922;  181,606;52894,593;13,52668
 763,80; 7339,208;  227,914;52992,857;13,47731
 764,37; 7337,110;  224,606;53066,658;13,45993
 764,94; 7295,473;  214,530;52589,229;13,51978
 765,50; 7390,067;  205,530;52548,800;13,72581
 766,07; 7446,814;  246,607;52633,833;13,74420
 766,64; 7402,793;  222,607;52337,635;13,77757
 767,21; 7407,925;  220,530;52243,975;13,81568
 767,77; 7461,058;  247,838;52143,392;13,89949
 768,34; 7440,498;  250,531;52192,040;13,84243
 768,91; 7463,399;  251,300;51914,457;13,95985
 769,47; 7491,070;  249,070;51969,182;14,00229
 770,04; 7547,356;  249,916;51853,907;14,14123
 770,61; 7491,873;  234,916;51503,632;14,15475
 771,18; 7512,390;  225,455;51463,357;14,22177
 771,74; 7603,753;  238,224;51720,082;14,30704
 772,31; 7580,501;  240,994;51542,114;14,30672
 772,88; 7545,325;  221,686;51197,993;14,36675
 773,44; 7567,073;  227,225;51069,256;14,43658
 774,01; 7649,052;  239,994;51106,750;14,56562
 774,58; 7601,876;  228,149;50882,706;14,55689
 775,14; 7660,547;  220,226;51056,200;14,63594
 775,71; 7664,218;  228,457;50842,310;14,69116
 776,27; 7721,042;  277,303;50813,573;14,72950
 776,84; 7793,867;  289,380;50867,990;14,83727
 777,41; 7755,692;  242,457;50651,715;14,90447
 777,97; 7733,363;  234,842;50453,132;14,93185
 778,54; 7821,495;  250,150;50468,780;15,07677
 779,11; 7804,858;  272,381;50371,813;15,03505
 779,67; 7843,298;  219,150;50404,845;15,19187
 780,24; 7800,353;  245,535;50056,570;15,16696
 780,80; 7843,563;  262,843;50085,680;15,21535
 781,37; 7841,233;  248,151;50044,174;15,24837
 781,94; 7850,289;  241,843;49860,052;15,33398
 782,50; 7869,037;  260,921;49769,931;15,36713
 783,07; 7932,092;  264,998;49841,348;15,46523
 783,63; 7892,840;  240,229;49639,688;15,49128
 784,20; 7959,818;  263,537;49510,259;15,62801
 784,77; 7933,335;  253,921;49422,215;15,61863
 785,33; 7909,390;  222,383;49099,863;15,72709
 785,90; 7988,138;  243,614;49208,203;15,81658
 786,46; 8004,963;  245,614;49003,313;15,91410
 787,03; 8013,634;  236,615;48797,961;16,01483
 787,59; 8017,535;  244,384;48644,455;16,06021
 788,16; 8044,975;  257,076;48694,872;16,07814
 788,73; 8076,415;  252,538;48527,058;16,20705
 789,29; 8075,701;  243,154;48110,706;16,36296
 789,86; 8067,449;  257,692;48269,047;16,26648
 790,42; 8123,120;  259,847;48038,079;16,45786
 790,99; 8127,252;  265,847;47584,958;16,61359
 791,55; 8109,923;  249,462;47716,990;16,55966
 792,12; 8182,286;  263,693;47649,638;16,71085
 792,68; 8118,957;  253,078;47403,517;16,68251
 793,25; 8115,935;  257,386;47121,242;16,76889
 793,81; 8153,529;  291,309;46777,582;16,91299
 794,38; 7975,892;  227,386;46554,461;16,72565
 794,94; 8063,486;  234,848;46504,570;16,91957
 795,51; 8061,849;  260,079;46218,834;16,97559
 796,07; 8006,674;  252,849;46013,097;16,94446
 796,64; 8077,268;  251,541;46110,668;17,06471
 797,20; 7991,323;  254,311;45563,931;17,07587
 797,77; 7982,071;  228,926;45243,656;17,22357
 798,33; 7960,203;  243,311;45183,227;17,17158
 798,90; 8055,105;  272,157;45065,260;17,37533
 799,46; 7962,237;  249,619;44530,985;17,41730
 800,03; 7976,216;  252,312;44520,017;17,44817
 800,59; 8043,194;  268,235;44388,358;17,62225
 801,15; 8016,788;  272,389;44136,006;17,65563
 801,72; 7914,689;  262,004;43833,884;17,56336
 802,28; 7943,976;  288,312;43513,609;17,71107
 802,85; 7942,108;  260,543;43252,719;17,86736
 803,41; 7945,317;  253,313;43104,982;17,95030
 803,98; 7882,603;  248,236;42782,476;17,94876
 804,54; 7857,966;  251,236;42546,355;17,98489
 805,11; 7881,176;  253,390;42332,080;18,12743
 805,67; 7929,077;  276,544;42257,420;18,22862
 806,23; 7859,133;  256,391;41904,452;18,25473
 806,80; 7844,727;  277,237;41735,870;18,25311
 807,36; 7817,244;  287,622;41698,979;18,18250
 807,93; 7858,684;  288,161;41439,935;18,39659
 808,49; 7819,816;  247,007;41029,890;18,56860
 809,05; 7796,256;  249,622;41000,692;18,51886
 809,62; 7850,619;  266,238;40876,263;18,67613
 810,18; 7873,674;  267,931;40676,450;18,82213
 810,74; 7781,730;  239,008;40493,790;18,73746
 811,31; 7807,093;  238,777;40270,515;18,90579
 811,87; 7813,533;  254,085;40152,624;18,94668
 812,44; 7847,281;  290,085;40117,734;18,97475
 813,00; 7814,028;  214,085;39922,612;19,13932
 813,56; 7852,699;  263,086;39888,953;19,15318
 814,13; 7882,678;  251,547;39688,985;19,34996
 814,69; 7857,348;  249,471;39652,633;19,30778
 815,25; 7781,481;  224,009;39246,204;19,36711
 815,82; 7858,382;  259,010;39165,314;19,53250
 816,38; 7833,822;  283,317;39137,192;19,43308
 816,94; 7780,339;  234,548;38737,302;19,59806
 817,51; 7789,010;  234,549;38566,411;19,70805
 818,07; 7746,142;  239,395;38291,444;19,72758
 818,63; 7763,044;  259,318;38113,169;19,82289
 819,20; 7796,253;  245,857;38034,047;19,98084
 819,76; 7691,539;  226,473;37579,619;19,98511
 820,32; 7725,133;  270,396;37509,959;20,01833
 820,89; 7657,958;  273,319;37211,530;19,99187
 821,45; 7647,167;  238,012;36971,024;20,17029
 822,01; 7679,530;  267,935;36783,441;20,29712
 822,57; 7655,509;  262,474;36622,397;20,33292
 823,14; 7613,487;  221,243;36411,506;20,42606
 823,70; 7611,312;  241,166;36170,308;20,51300
 824,26; 7620,444;  242,474;36027,725;20,61735
 824,82; 7666,807;  259,244;35872,527;20,80000
 825,39; 7614,555;  240,090;35666,021;20,81657
 825,95; 7579,149;  258,244;35674,361;20,67111
 826,51; 7558,820;  248,860;35276,625;20,86904
 827,08; 7679,413;  286,167;35338,580;21,09197
 827,64; 7597,084;  269,245;35257,151;20,94392
 828,20; 7550,524;  231,783;34846,184;21,14363
 828,76; 7661,195;  273,399;34962,370;21,29725
 829,32; 7617,943;  267,784;34810,711;21,27833
 829,89; 7601,306;  229,707;34669,897;21,40406
 830,45; 7625,207;  249,476;34536,699;21,51160
 831,01; 7644,263;  246,630;34372,885;21,67725
 831,57; 7640,395;  248,400;34272,148;21,72599
 832,14; 7589,681;  245,246;34286,643;21,57501
 832,70; 7623,814;  234,939;33942,752;21,92036
 833,26; 7603,331;  215,785;33844,785;21,96778
 833,82; 7623,001;  252,324;33781,586;21,98282
 834,38; 7705,980;  234,016;33889,773;22,20115
 834,95; 7684,574;  225,324;33627,421;22,33168
 835,51; 7644,168;  208,171;33570,838;22,28838
 836,07; 7686,915;  253,402;33658,717;22,25249
 836,63; 7746,586;  265,094;33726,518;22,35856
 837,19; 7692,718;  242,940;33444,474;22,43805
 837,75; 7675,005;  218,018;33211,430;22,60144
 838,32; 7749,137;  256,402;33338,462;22,64894
 838,88; 7795,423;  262,249;33324,495;22,78482
 839,44; 7796,632;  249,018;33201,681;22,90441
 840,00; 7778,072;  259,326;33148,945;22,86055
 840,56; 7719,128;  212,634;32948,131;22,93075
 841,12; 7738,183;  224,326;32849,394;23,03093
 841,68; 7745,469;  210,865;32621,427;23,24737
 842,25; 7760,217;  227,481;32600,921;23,26826
 842,81; 7795,349;  219,481;32428,877;23,52068
 843,37; 7763,097;  215,173;32523,294;23,36231
 843,93; 7820,691;  228,097;32373,942;23,61921
 844,49; 7834,285;  258,712;32446,974;23,53520
 845,05; 7825,263;  202,482;32184,545;23,83455
 845,61; 7873,780;  243,097;32284,347;23,81518
 846,17; 7836,989;  237,867;32104,149;23,84691
 846,73; 7844,660;  241,405;32057,412;23,89758
 847,29; 7791,177;  217,098;31950,214;23,86806
 847,86; 7819,002;  222,637;31838,170;24,02732
 848,42; 7812,673;  216,791;31597,818;24,20533
 848,98; 7831,805;  238,560;31586,235;24,22267
 849,54; 7839,014;  219,560;31660,883;24,23388
 850,10; 7884,300;  236,176;31495,300;24,46685
 850,66; 7818,971;  221,330;31311,871;24,43715
 851,22; 7812,719;  213,330;31275,596;24,46502
 851,78; 7902,159;  258,561;31368,398;24,56971
 852,34; 7875,830;  244,484;31126,584;24,71123
 852,90; 7912,500;  220,100;30985,078;25,00376
 853,46; 7854,864;  215,485;30823,111;24,95907
 854,02; 7891,227;  232,639;30855,066;25,00973
 854,58; 7872,513;  232,870;30512,407;25,23038
 855,14; 7858,184;  223,639;30508,901;25,20878
 855,70; 7830,393;  187,409;30420,010;25,28060
 856,26; 7848,679;  243,101;30309,427;25,29600
 856,82; 7855,042;  224,640;30143,383;25,50375
 857,38; 7816,328;  247,025;30148,800;25,31389
 857,94; 7828,076;  236,256;30012,679;25,49608
 858,50; 7821,593;  252,871;29859,404;25,56436
 859,06; 7825,418;  220,794;29671,052;25,82192
 859,62; 7825,627;  243,872;29692,007;25,74613
 860,18; 7777,221;  228,641;29462,271;25,82156
 860,74; 7737,891;  203,564;29338,765;25,85988
 861,30; 7721,331;  215,641;29087,720;25,99636
 861,86; 7795,848;  264,488;29092,368;26,12527
 862,42; 7750,904;  230,642;28978,939;26,15898
 862,98; 7769,421;  253,719;28929,203;26,20950
 863,54; 7696,168;  242,258;28773,620;26,12532
 864,10; 7753,455;  224,566;28839,037;26,31147
 864,66; 7706,049;  212,566;28549,685;26,44405
 865,22; 7684,412;  229,566;28447,641;26,41869
 865,78; 7734,775;  241,105;28322,058;26,68595
 866,34; 7697,061;  219,259;28235,013;26,69142
 866,90; 7705,270;  234,490;28097,507;26,81253
 867,45; 7681,095;  244,951;27947,617;26,84270
 868,01; 7672,842;  244,490;27696,419;27,05949
 868,57; 7597,744;  221,952;27585,682;26,95463
 869,13; 7562,492;  215,183;27527,561;26,90102
 869,69; 7587,470;  234,260;27387,670;27,08025
 870,25; 7588,218;  210,722;27259,626;27,27466
 870,81; 7621,120;  230,876;27233,428;27,36869
 871,37; 7577,098;  236,261;27175,460;27,24965
 871,93; 7615,000;  243,953;26964,954;27,58522
 872,49; 7591,747;  264,722;26760,141;27,65393
 873,04; 7538,187;  216,953;26613,558;27,73551
 873,60; 7546,550;  208,877;26493,667;27,91604
 874,16; 7546,760;  237,415;26441,238;27,89419
 874,72; 7532,529;  238,954;26420,546;27,85764
 875,28; 7555,452;  239,185;26316,162;28,05642
 875,84; 7565,067;  233,031;26191,008;28,24579
 876,40; 7565,452;  219,185;26172,162;28,30607
 876,95; 7597,683;  232,723;26166,546;28,39905
 877,51; 7651,606;  265,031;26153,315;28,53250
 878,07; 7669,452;  262,415;26133,700;28,63034
 878,63; 7640,683;  226,262;26145,392;28,60598
 879,19; 7655,298;  249,262;26153,623;28,58992
 879,75; 7648,452;  229,415;26179,777;28,58934
 880,30; 7709,606;  236,492;26127,469;28,86378
 880,86; 7792,606;  268,569;26287,623;28,91741
 881,42; 7817,837;  233,338;26267,238;29,13316
 881,98; 7788,606;  252,262;26361,623;28,86453
 882,54; 7829,529;  226,338;26474,162;28,96694
 883,09; 7943,529;  240,185;26600,700;29,22304
 883,65; 7949,913;  227,108;26595,854;29,28772
 884,21; 8026,298;  254,800;26875,546;29,19339
 884,77; 8068,144;  225,262;26935,854;29,36244
 885,32; 8107,067;  227,185;26998,469;29,43409
 885,88; 8244,913;  264,031;27157,546;29,67586
 886,44; 8236,529;  244,877;27312,392;29,52488
 887,00; 8265,606;  250,800;27329,777;29,59789
 887,56; 8306,683;  232,492;27473,392;29,63995
 888,11; 8359,529;  228,569;27538,469;29,77294
 888,67; 8447,221;  259,031;27706,623;29,83209
 889,23; 8467,913;  244,492;27618,777;30,04068
 889,79; 8402,375;  233,415;27529,008;29,92776
 890,34; 8467,837;  237,262;27451,777;30,24333
 890,90; 8531,144;  298,492;27591,392;30,16408
 891,46; 8486,760;  228,262;27544,392;30,23304
 892,01; 8536,683;  241,492;27563,392;30,36096
 892,57; 8467,837;  260,877;27394,162;30,24683
 893,13; 8457,760;  231,031;27195,623;30,50938
 893,69; 8483,837;  228,569;27222,469;30,58197
 894,24; 8447,144;  238,877;27051,008;30,61401
 894,80; 8476,298;  241,185;27010,315;30,76347
 895,36; 8445,837;  241,338;26879,085;30,80027
 895,91; 8390,067;  249,800;26625,700;30,86252
 896,47; 8415,990;  251,262;26559,469;31,03491
 897,03; 8395,529;  226,954;26322,777;31,30223
 897,58; 8354,837;  244,569;26333,162;31,08741
 898,14; 8347,529;  234,031;26067,162;31,40734
 898,70; 8279,298;  215,338;25959,700;31,32321
 899,25; 8348,837;  236,415;25964,315;31,53161
 899,81; 8293,452;  254,492;25807,931;31,45940
 900,37; 8209,452;  209,415;25551,085;31,56870
 900,92; 8239,606;  237,185;25582,623;31,57342
 901,48; 8230,606;  227,877;25391,777;31,80242
 902,03; 8206,529;  230,877;25231,546;31,90175
 902,59; 8205,529;  235,492;25174,469;31,95815
 903,15; 8181,990;  255,262;25065,777;31,94907
 903,70; 8118,067;  231,646;24746,392;32,17011
 904,26; 8105,913;  224,569;24700,931;32,19982
 904,82; 8084,837;  238,262;24633,162;32,16482
 905,37; 8067,606;  243,877;24487,008;32,27194
 905,93; 7999,144;  226,492;24329,931;32,24707
 906,48; 8073,452;  248,954;24276,777;32,56432
 907,04; 8065,452;  251,723;24248,469;32,56162
 907,60; 7999,221;  234,031;24000,854;32,67240
 908,15; 8005,990;  219,877;23853,854;32,94458
 908,71; 7965,683;  251,954;23858,931;32,67563
 909,26; 7912,760;  226,108;23742,854;32,68587
 909,82; 7901,221;  242,185;23625,238;32,75465
 910,37; 7922,913;  274,031;23571,469;32,83143
 910,93; 7848,067;  217,800;23291,931;33,06849
 911,48; 7883,529;  225,262;23164,162;33,38550
 912,04; 7870,683;  228,954;23147,931;33,34236
 912,60; 7878,298;  239,031;23228,085;33,23002
 913,15; 7826,760;  235,108;22910,392;33,47985
 913,71; 7770,529;  218,185;22803,931;33,43854
 914,26; 7714,606;  209,185;22761,469;33,28009
 914,82; 7781,606;  234,338;22715,777;33,57110
 915,37; 7733,067;  230,338;22611,008;33,52326
 915,93; 7755,683;  271,415;22509,700;33,65488
 916,48; 7726,221;  216,338;22311,931;33,98815
 917,04; 7694,837;  244,723;22296,085;33,78528
 917,59; 7678,452;  255,646;22231,162;33,77762
 918,15; 7603,529;  212,108;21998,008;33,92755
 918,70; 7595,837;  232,415;21867,238;34,03504
 919,26; 7607,529;  238,492;21799,392;34,17778
 919,81; 7594,990;  219,569;21644,546;34,42441
 920,37; 7557,606;  224,492;21591,931;34,31910
 920,92; 7540,067;  237,954;21509,469;34,32813
 921,48; 7446,760;  213,338;21282,392;34,33197
 922,03; 7475,990;  223,569;21276,085;34,44919
 922,59; 7442,452;  221,800;21072,469;34,63031
 923,14; 7364,375;  214,954;21009,162;34,38179
 923,69; 7406,913;  244,800;20947,777;34,59461
 924,25; 7392,990;  242,646;20943,469;34,54135
 924,80; 7354,067;  238,338;20729,777;34,72537
 925,36; 7306,760;  232,338;20627,392;34,68695
 925,91; 7292,144;  230,646;20459,008;34,90890
 926,47; 7234,760;  206,185;20395,315;34,81366
 927,02; 7315,452;  269,569;20419,623;34,96707
 927,57; 7216,067;  218,031;20167,623;35,07859
 928,13; 7273,683;  219,800;20174,931;35,34872
 928,68; 7224,913;  229,415;20087,008;35,22833
 929,24; 7164,067;  197,646;19871,623;35,40932
 929,79; 7165,529;  217,646;19794,162;35,49091
 930,34; 7184,837;  228,415;19670,315;35,78056
 930,90; 7141,144;  213,723;19581,700;35,76740
 931,45; 7159,221;  240,108;19582,315;35,77210
 932,01; 7137,913;  236,415;19449,392;35,92102
 932,56; 7105,144;  250,569;19333,700;35,91955
 933,11; 7184,529;  251,800;19356,777;36,28755
 933,67; 7104,837;  227,492;19159,469;36,32660
 934,22; 7085,144;  233,877;19076,546;36,36039
 934,77; 7030,529;  251,723;18998,008;36,16080
 935,33; 7032,683;  244,723;18825,931;36,53132
 935,88; 7014,606;  243,569;18754,085;36,57941
 936,43; 6966,529;  229,800;18758,469;36,35841
 936,99; 7000,760;  230,800;18605,623;36,84367
 937,54; 6891,837;  227,877;18485,085;36,50043
 938,09; 6927,452;  244,185;18458,546;36,69230
 938,65; 6898,375;  233,415;18291,315;36,90883
 939,20; 6894,837;  215,723;18230,162;37,07645
 939,75; 6857,606;  222,185;18083,162;37,15038
 940,31; 6840,452;  202,877;18091,700;37,10459
 940,86; 6840,067;  237,723;17940,546;37,29543
 941,41; 6887,837;  280,569;17938,392;37,41836
 941,96; 6824,913;  220,338;17854,085;37,45418
 942,52; 6768,221;  219,646;17697,238;37,46840
 943,07; 6705,683;  205,492;17527,085;37,52652
 943,62; 6703,683;  216,338;17509,469;37,51400
 944,18; 6695,221;  207,108;17457,623;37,61113
 944,73; 6627,529;  237,338;17382,392;37,27133
 945,28; 6651,913;  195,723;17150,700;38,07844
 945,83; 6677,221;  223,108;17168,469;38,08779
 946,39; 6700,760;  223,185;17120,777;38,33431
 946,94; 6645,221;  242,415;17044,085;38,10815
 947,49; 6632,144;  220,185;16908,238;38,42245
 948,04; 6664,990;  234,338;16915,623;38,55010
 948,59; 6604,144;  244,569;16805,777;38,40043
 949,15; 6567,298;  215,492;16746,546;38,42348
 949,70; 6551,375;  223,569;16618,777;38,59546
 950,25; 6541,375;  243,954;16529,700;38,66830
 950,80; 6508,221;  198,954;16411,315;38,91640
 951,36; 6450,375;  193,415;16347,931;38,73195
 951,91; 6526,298;  233,723;16351,008;39,04240
 952,46; 6393,913;  194,569;16168,008;38,81033
 953,01; 6487,990;  239,723;16175,700;39,20856
 953,56; 6414,837;  202,877;16128,085;39,00709
 954,11; 6416,913;  226,723;16043,392;39,13713
 954,67; 6368,913;  217,338;16015,085;38,93957
 955,22; 6335,990;  190,492;15796,162;39,37991
 955,77; 6337,529;  246,031;15792,546;39,18240
 956,32; 6286,529;  261,031;15713,085;38,99480
 956,87; 6249,529;  210,031;15552,931;39,36347
 957,42; 6236,529;  222,031;15559,162;39,21528
 957,98; 6219,529;  216,954;15411,700;39,50428
 958,53; 6231,683;  233,723;15388,931;39,57689
 959,08; 6186,529;  203,800;15250,546;39,76095
 959,63; 6154,913;  222,954;15152,008;39,73433
 960,18; 6147,606;  231,185;15120,623;39,73569
 960,73; 6097,221;  228,800;14995,469;39,74099
 961,28; 6124,683;  199,954;14975,008;40,09954
 961,83; 6104,990;  245,877;15015,085;39,67114
 962,39; 6123,837;  208,492;14834,623;40,44367
 962,94; 6103,990;  238,723;14743,162;40,43774
 963,49; 6048,221;  223,877;14632,623;40,42228
 964,04; 6060,452;  236,569;14588,469;40,57918
 964,59; 6013,375;  193,800;14464,315;40,78041
 965,14; 6024,990;  232,492;14459,392;40,71511
 965,69; 6002,683;  226,415;14325,162;40,97008
 966,24; 5938,529;  205,723;14261,777;40,78531
 966,79; 5965,837;  232,415;14154,854;41,18116
 967,34; 5894,067;  203,800;14034,315;41,14284
 967,89; 5872,913;  218,415;14003,392;41,01928
 968,44; 5881,913;  224,338;13903,931;41,35777
 968,99; 5894,913;  228,338;13883,931;41,49637
 969,55; 5839,760;  230,338;13770,854;41,42694
 970,10; 5830,375;  234,415;13662,854;41,67245
 970,65; 5851,375;  234,492;13575,008;42,10394
 971,20; 5790,606;  215,185;13483,623;42,02018
 971,75; 5711,375;  200,646;13350,392;41,90749
 972,30; 5751,913;  222,877;13286,700;42,32327
 972,85; 5683,760;  216,723;13202,700;42,09954
 973,40; 5635,298;  213,954;13043,392;42,25707
 973,95; 5658,144;  221,031;13077,162;42,29199
 974,50; 5645,529;  254,954;12999,854;42,29594
 975,05; 5612,837;  228,185;12902,700;42,48409
 975,60; 5566,144;  235,877;12832,700;42,31438
 976,15; 5532,913;  216,262;12734,700;42,47057
 976,70; 5513,529;  223,262;12619,546;42,67623
 977,25; 5482,606;  237,108;12591,777;42,45762
 977,80; 5429,144;  209,569;12465,238;42,58907
 978,35; 5394,221;  232,877;12297,546;42,78065
 978,89; 5320,990;  206,569;12213,546;42,59541
 979,44; 5335,683;  233,108;12232,469;42,52372
 979,99; 5290,990;  211,800;12027,238;42,98774
 980,54; 5281,760;  251,185;11997,008;42,82863
 981,09; 5269,144;  239,646;11890,162;43,16975
 981,64; 5166,067;  239,646;11772,469;42,71652
 982,19; 5211,683;  267,954;11756,700;43,03106
 982,74; 5159,990;  242,492;11628,700;43,18820
 983,29; 5044,529;  207,954;11501,315;42,82671
 983,84; 5062,529;  239,954;11395,931;43,22862
 984,39; 5066,221;  285,031;11341,931;43,24169
 984,94; 4975,913;  205,569;11168,085;43,51505
 985,49; 4994,990;  257,646;11149,546;43,49420
 986,03; 4958,683;  252,800;11043,469;43,61067
 986,58; 4911,144;  269,492;10943,085;43,48725
 987,13; 4839,529;  231,492;10825,854;43,49518
 987,68; 4781,837;  247,492;10679,623;43,46518
 988,23; 4782,298;  240,877;10655,854;43,60472
 988,78; 4727,606;  220,492;10511,854;43,79511
 989,33; 4731,990;  241,415;10456,392;43,96070
 989,88; 4712,837;  266,723;10428,315;43,75410
 990,42; 4647,760;  231,031;10225,623;44,19119
 990,97; 4604,221;  232,415;10096,931;44,31851
 991,52; 4603,452;  254,338;10053,315;44,38334
 992,07; 4591,683;  260,954; 9977,315;44,57151
 992,62; 4509,375;  235,262; 9827,546;44,55783
 993,17; 4470,221;  247,646; 9766,085;44,36206
 993,71; 4464,144;  238,954; 9727,162;44,53096
 994,26; 4389,298;  219,415; 9523,315;44,81865
 994,81; 4388,990;  253,646; 9533,238;44,56386
 995,36; 4321,990;  224,954; 9343,700;44,92982
 995,91; 4300,529;  240,338; 9352,546;44,55770
 996,45; 4248,375;  237,492; 9216,392;44,67009
 997,00; 4184,452;  225,338; 9100,238;44,61023
 997,55; 4167,990;  249,723; 9056,931;44,48933
 998,10; 4156,606;  263,492; 8961,469;44,75884
 998,65; 4143,375;  238,415; 8906,315;45,05082
 999,19; 4090,683;  254,338; 8813,777;44,82005
 999,74; 4043,606;  263,800; 8648,854;45,07790
1000,29; 4047,298;  246,185; 8607,162;45,46255
1000,84; 3951,606;  239,338; 8470,854;45,09822
1001,38; 3945,990;  231,338; 8387,931;45,54171
1001,93; 3906,067;  245,877; 8311,315;45,38117
1002,48; 3841,683;  227,954; 8187,700;45,40005
1003,03; 3824,837;  247,338; 8152,469;45,25539
1003,57; 3804,913;  247,338; 8058,162;45,54674
1004,12; 3800,990;  272,569; 7989,931;45,72056
1004,67; 3741,144;  237,492; 7898,546;45,73329
1005,22; 3688,298;  221,031; 7706,546;46,31969
1005,76; 3583,067;  224,646; 7567,008;45,74034
1006,31; 3600,375;  246,492; 7582,008;45,72116
1006,86; 3529,837;  226,338; 7438,008;45,80768
1007,40; 3491,990;  216,646; 7315,546;46,13876
1007,95; 3455,837;  236,185; 7282,238;45,69440
1008,50; 3398,606;  238,185; 7146,008;45,75133
1009,04; 3351,837;  235,800; 7036,469;45,81956
1009,59; 3309,452;  246,031; 6909,854;45,97093
1010,14; 3254,990;  223,877; 6796,238;46,11909
1010,68; 3222,144;  224,492; 6699,700;46,29430
1011,23; 3214,837;  222,646; 6606,777;46,86919
1011,78; 3167,913;  256,492; 6539,469;46,33824
1012,32; 3128,221;  238,569; 6453,546;46,49497
1012,87; 3123,529;  267,954; 6420,238;46,41487
1013,42; 3068,375;  219,415; 6286,085;46,96085
1013,96; 3095,837;  261,108; 6309,008;46,87129
1014,51; 3007,913;  213,262; 6232,777;46,42653
1015,06; 3016,067;  206,338; 6212,008;46,78461
1015,60; 3075,760;  285,646; 6281,238;46,53608
1016,15; 3029,452;  223,723; 6231,854;46,69886
1016,69; 3054,606;  235,415; 6258,315;46,80786
1017,24; 3069,529;  206,800; 6266,315;47,24353
1017,79; 3116,683;  268,108; 6331,162;46,98251
1018,33; 3092,760;  218,262; 6289,546;47,34580
1018,88; 3141,529;  237,031; 6384,162;47,24965
1019,42; 3146,913;  223,877; 6383,085;47,45800
1019,97; 3136,990;  220,492; 6394,777;47,23621
1020,51; 3186,452;  252,338; 6399,315;47,73263
1021,06; 3129,683;  216,415; 6368,085;47,35735
1021,61; 3119,606;  194,031; 6360,008;47,44706
1022,15; 3131,606;  184,338; 6301,392;48,18116
1022,70; 3165,375;  234,569; 6324,238;48,12750
1023,24; 3119,837;  219,723; 6285,469;47,81132
1023,79; 3125,529;  232,954; 6225,008;48,27351
1024,33; 3080,990;  218,108; 6203,469;47,83141
1024,88; 3052,837;  230,262; 6103,238;48,06038
1025,42; 2986,298;  226,492; 5980,546;47,96281
1025,97; 2965,606;  224,723; 5901,085;48,28591
1026,51; 2896,683;  182,569; 5821,392;48,13262
1027,06; 2893,990;  215,262; 5763,392;48,28165
1027,60; 2829,452;  229,185; 5631,392;48,13342
1028,15; 2817,837;  248,954; 5567,315;48,30214
1028,69; 2748,683;  189,723; 5439,777;48,74159
1029,24; 2726,529;  206,723; 5399,315;48,52693
1029,78; 2679,990;  218,415; 5305,085;48,39267
1030,33; 2603,837;  199,031; 5180,085;48,27906
1030,87; 2617,837;  223,185; 5159,469;48,51122
1031,42; 2561,452;  211,492; 5058,008;48,48761
1031,96; 2579,452;  224,108; 5035,008;48,95849
1032,51; 2511,221;  211,031; 4949,238;48,54558
1033,05; 2491,683;  230,108; 4877,238;48,66605
1033,60; 2426,298;  191,415; 4749,008;49,03648
1034,14; 2413,913;  211,415; 4723,546;48,81282
1034,69; 2375,529;  214,338; 4649,623;48,72721
1035,23; 2334,375;  230,800; 4550,008;48,70280
1035,77; 2330,375;  201,262; 4560,315;48,84348
1036,32; 2283,298;  192,185; 4442,238;49,20205
1036,86; 2279,144;  213,646; 4387,546;49,48605
1037,41; 2257,221;  227,415; 4341,162;49,34203
1037,95; 2201,375;  192,954; 4262,469;49,35283
1038,50; 2183,837;  202,954; 4190,392;49,67808
1039,04; 2184,452;  236,185; 4188,931;49,28896
1039,58; 2172,144;  205,723; 4099,162;50,50603
1040,13; 2111,913;  207,338; 4030,162;49,82117
1040,67; 2103,298;  244,954; 4001,085;49,47496
1041,21; 2091,837;  258,185; 3922,162;50,04540
1041,76; 2023,990;  204,877; 3844,931;49,97491
1042,30; 2009,606;  211,646; 3798,392;50,12787
1042,85; 1975,452;  215,877; 3741,008;49,91517
1043,39; 1962,221;  209,262; 3710,546;50,06618
1043,93; 1941,452;  233,569; 3655,931;49,90363
1044,48; 1917,067;  227,723; 3574,623;50,47489
1045,02; 1880,067;  219,723; 3544,085;49,94476
1045,56; 1875,606;  236,723; 3503,315;50,17102
1046,11; 1849,606;  219,185; 3469,931;50,15529
1046,65; 1810,452;  231,338; 3396,008;49,89822
1047,19; 1794,990;  217,415; 3371,392;50,01860
1047,74; 1755,221;  203,108; 3296,700;50,17188
1048,28; 1759,452;  217,415; 3255,162;50,76252
1048,82; 1749,837;  251,185; 3242,238;50,10448
1049,37; 1701,760;  235,108; 3156,931;50,19647
1049,91; 1701,298;  217,877; 3136,315;50,82928
1050,45; 1704,067;  243,492; 3090,777;51,29712
1050,99; 1659,529;  229,723; 3045,854;50,77199
1051,54; 1608,452;  211,569; 2974,777;50,55294
1052,08; 1619,606;  241,954; 2983,392;50,25289
1052,62; 1607,144;  237,877; 2922,854;50,99736
1053,16; 1570,606;  211,877; 2868,469;51,14555
1053,71; 1566,067;  233,415; 2868,700;50,56956
1054,25; 1543,837;  236,415; 2824,469;50,51754
1054,79; 1525,606;  229,415; 2752,931;51,36447
1055,33; 1460,683;  204,262; 2690,777;50,52939
1055,88; 1492,913;  234,108; 2718,392;50,67075
1056,42; 1475,913;  244,492; 2650,931;51,17194
1056,96; 1452,298;  241,415; 2611,623;51,08762
1057,50; 1432,452;  228,877; 2564,700;51,52680
1058,05; 1413,913;  229,031; 2533,854;51,40883
1058,59; 1415,606;  248,108; 2513,392;51,53869
1059,13; 1353,990;  203,492; 2433,854;51,58348
1059,67; 1360,221;  227,800; 2422,854;51,58968
1060,21; 1342,529;  224,877; 2373,700;52,01228
1060,76; 1332,067;  241,954; 2370,623;51,21103
1061,30; 1331,144;  249,415; 2348,469;51,53412
1061,84; 1279,837;  237,877; 2291,085;50,74789
1062,38; 1258,221;  217,108; 2252,931;51,13968
1062,92; 1299,144;  263,723; 2247,623;52,19120
1063,46; 1270,837;  244,954; 2206,238;52,30667
1064,01; 1223,529;  213,569; 2165,162;51,75054
1064,55; 1229,606;  234,646; 2116,008;52,88508
1065,09; 1187,683;  208,185; 2076,392;52,42983
1065,63; 1236,606;  260,415; 2124,931;52,35625
1066,17; 1201,298;  260,723; 2073,546;51,88454
1066,71; 1186,837;  252,031; 2039,623;52,29413
1067,25; 1158,298;  229,031; 1983,085;52,97827
1067,80; 1164,760;  248,338; 1987,700;52,68722
1068,34; 1168,452;  257,877; 1978,085;52,93402
1068,88; 1111,298;  225,646; 1922,162;52,20418
1069,42; 1137,990;  260,492; 1941,008;52,21601
1069,96; 1093,221;  241,492; 1881,008;51,95004
1070,50; 1121,913;  261,800; 1882,008;53,08662
1071,04; 1075,529;  220,800; 1834,931;52,95289
1071,58; 1067,067;  229,262; 1838,315;52,06822
1072,12; 1050,452;  221,723; 1807,623;52,25606
1072,66; 1055,144;  225,262; 1779,315;53,40115
1073,21; 1041,990;  254,569; 1773,546;51,83891
1073,75; 1024,990;  242,415; 1758,085;51,63231
1074,29; 1027,529;  235,185; 1730,546;52,98680
1074,83; 1021,221;  256,800; 1697,238;53,06864
1075,37; 1006,529;  246,800; 1697,085;52,38481
1075,91; 1009,452;  260,954; 1681,854;52,67774
1076,45;  984,144;  235,569; 1650,008;52,92383
1076,99;  986,990;  250,185; 1641,623;52,95281
1077,53;  934,913;  234,877; 1564,623;52,64437
1078,07;  956,606;  243,954; 1599,623;52,56827
1078,61;  929,913;  243,108; 1553,315;52,41961
1079,15;  914,452;  238,185; 1532,700;52,24096
1079,69;  916,375;  241,338; 1519,008;52,83343
1080,23;  919,913;  257,569; 1534,238;51,88064
1080,77;  943,452;  275,415; 1513,469;53,95860
1081,31;  888,606;  240,800; 1475,392;52,47123
1081,85;  889,683;  253,646; 1468,238;52,36626
1082,39;  886,144;  238,338; 1440,392;53,89158
1082,93;  881,990;  245,415; 1427,085;53,87083
1083,47;  841,990;  233,185; 1388,315;52,70449
1084,01;  869,913;  255,031; 1411,085;53,18807
1084,55;  831,760;  226,954; 1365,085;53,14027
1085,09;  851,375;  262,569; 1362,546;53,52892
1085,63;  827,760;  240,877; 1346,546;53,07941
1086,17;  823,913;  232,415; 1337,162;53,54154
1086,71;  804,913;  236,108; 1300,392;53,44489
1087,24;  838,298;  261,031; 1333,700;53,81597
1087,78;  819,298;  252,569; 1309,392;53,62571
1088,32;  791,837;  229,877; 1256,392;54,74439
1088,86;  810,913;  253,723; 1290,623;53,73617
1089,40;  785,606;  243,185; 1257,777;53,46198
1089,94;  756,913;  220,415; 1190,315;55,31478
1090,48;  773,067;  241,569; 1208,854;54,94743
1091,02;  779,683;  244,262; 1212,777;55,28267
1091,56;  756,067;  240,646; 1175,315;55,14477
1092,10;  718,144;  223,108; 1154,238;53,16509
1092,63;  766,837;  259,108; 1191,008;54,48319
1093,17;  749,760;  251,800; 1155,085;55,12765
1093,71;  721,452;  238,877; 1122,546;54,61037
1094,25;  752,837;  254,338; 1142,392;56,13377
1094,79;  717,221;  247,569; 1108,546;54,54872
1095,33;  721,375;  248,800; 1099,700;55,53825
1095,87;  714,375;  236,262; 1081,238;56,58302
1096,40;  679,298;  225,262; 1045,623;55,34591
1096,94;  675,375;  242,338; 1067,085;52,50543
1097,48;  698,760;  245,877; 1064,469;55,32457
1098,02;  669,067;  237,800; 1053,700;52,85786
1098,56;  639,221;  207,569; 1007,777;53,94249
1099,10;  642,837;  220,492; 1009,085;53,55673
1099,63;  644,298;  227,569;  981,546;55,27077
1100,17;  652,452;  239,646; 1016,700;53,12447
1100,71;  658,452;  260,262; 1000,392;53,80000

