
Integration time [ms]: 120,000
Averaging Nr. [scans]: 13
Smoothing Nr. [pixels]: 0
Data measured with spectrometer [name]: 2009305U1
Wave   ;Sample   ;Dark     ;Reference;Reflectance
[nm]   ;[counts] ;[counts] ;[counts] ;[%]

 175,72;  208,010;  202,886;  214,253;45,07855
 176,32;  234,231;  236,502;  224,563; 0,00000
 176,92;  260,331;  261,810;  259,279; 0,00000
 177,52;  257,670;  256,040;  268,411;13,17425
 178,12;  235,949;  228,579;  233,833;140,27927
 178,72;  269,817;  258,810;  256,007; 0,00000
 179,32;  255,446;  260,733;  253,210; 0,00000
 179,92;  252,559;  251,194;  250,799; 0,00000
 180,52;  253,621;  248,194;  249,355;467,40752
 181,12;  260,577;  252,963;  254,248;592,80850
 181,73;  281,753;  279,733;  279,385; 0,00000
 182,33;  356,174;  348,886;  358,111;79,00655
 182,93;  271,682;  273,348;  275,613;-73,55282
 183,53;  237,964;  241,425;  236,281; 0,00000
 184,13;  245,768;  249,502;  235,332; 0,00000
 184,73;  283,763;  275,272;  271,335; 0,00000
 185,33;  276,782;  236,428;  336,101;40,48580
 185,93;  286,969;  234,583;  359,342;41,98957
 186,53;  296,989;  252,198;  384,040;33,97331
 187,13;  323,755;  282,736;  409,296;32,41045
 187,73;  289,517;  254,890;  367,277;30,81056
 188,33;  293,278;  248,737;  369,705;36,82070
 188,93;  303,906;  255,430;  366,881;43,49545
 189,53;  289,796;  251,969;  374,863;30,78020
 190,13;  323,822;  287,585;  411,451;29,25511
 190,73;  265,497;  233,430;  364,758;24,41759
 191,34;  309,258;  259,584;  390,135;38,05008
 191,94;  288,969;  241,583;  374,569;35,63237
 192,54;  302,346;  259,889;  412,605;27,80097
 193,14;  305,336;  261,198;  394,187;33,18960
 193,74;  302,163;  260,890;  382,181;34,02819
 194,34;  297,688;  260,505;  382,000;30,60440
 194,94;  279,809;  222,505;  351,466;44,43535
 195,54;  256,867;  209,121;  329,710;39,59453
 196,14;  276,315;  234,043;  365,416;32,17704
 196,74;  272,362;  222,736;  356,742;37,03224
 197,34;  256,374;  205,659;  339,451;37,90612
 197,94;  288,237;  232,351;  378,492;38,24089
 198,54;  289,453;  243,428;  386,908;32,07728
 199,14;  271,902;  223,966;  379,479;30,82428
 199,74;  262,813;  205,351;  372,661;34,34478
 200,34;  254,038;  202,428;  400,858;26,00921
 200,94;  297,052;  238,736;  424,673;31,36329
 201,54;  282,531;  213,428;  425,103;32,64573
 202,14;  300,536;  244,043;  464,005;25,68325
 202,74;  286,250;  219,351;  461,776;27,59564
 203,34;  281,819;  193,735;  478,391;30,94389
 203,94;  254,785;  181,966;  496,607;23,14343
 204,54;  337,360;  242,813;  571,497;28,76528
 205,14;  307,578;  206,274;  583,049;26,88715
 205,74;  356,688;  248,274;  675,642;25,36801
 206,34;  335,916;  206,197;  683,700;27,16623
 206,94;  344,396;  217,274;  760,936;23,38253
 207,54;  331,507;  184,428;  772,738;25,00026
 208,14;  352,638;  217,735;  847,890;21,40793
 208,74;  367,399;  207,735;  933,625;21,99556
 209,34;  390,976;  205,043; 1021,039;22,78598
 209,94;  413,983;  228,043; 1123,399;20,76718
 210,54;  440,944;  209,735; 1225,007;22,77314
 211,14;  456,392;  215,351; 1308,727;22,04554
 211,73;  460,716;  223,120; 1428,637;19,70901
 212,33;  478,910;  230,889; 1519,106;19,25298
 212,93;  506,961;  212,505; 1626,646;20,82228
 213,53;  494,156;  188,966; 1698,269;20,22061
 214,13;  522,929;  201,043; 1758,559;20,66667
 214,73;  502,921;  185,428; 1791,774;19,76494
 215,33;  506,983;  188,658; 1829,553;19,39947
 215,93;  562,372;  204,120; 1943,802;20,59296
 216,53;  560,276;  174,428; 2018,775;20,92060
 217,13;  638,455;  215,427; 2222,682;21,07492
 217,73;  665,348;  204,351; 2416,551;20,83888
 218,33;  696,122;  151,427; 2607,742;22,17527
 218,93;  783,867;  195,196; 2888,264;21,85874
 219,53;  865,187;  206,120; 3172,770;22,21587
 220,13;  924,397;  173,427; 3452,633;22,90096
 220,73; 1039,575;  194,274; 3805,609;23,40689
 221,32; 1155,014;  200,428; 4215,010;23,77798
 221,92; 1269,416;  196,581; 4630,656;24,19523
 222,52; 1348,681;  174,274; 5017,128;24,25031
 223,12; 1481,953;  190,889; 5440,521;24,59343
 223,72; 1601,941;  204,581; 5856,549;24,72343
 224,32; 1736,092;  198,427; 6211,109;25,57369
 224,92; 1817,444;  192,120; 6488,018;25,81561
 225,52; 1935,230;  215,428; 6819,349;26,04214
 226,12; 2029,758;  202,658; 7124,839;26,39486
 226,72; 2140,591;  171,351; 7400,541;27,24012
 227,31; 2248,943;  160,274; 7750,450;27,51806
 227,91; 2386,735;  201,812; 8154,932;27,47252
 228,51; 2539,762;  182,120; 8521,044;28,27273
 229,11; 2669,258;  187,043; 8878,963;28,55773
 229,71; 2770,402;  175,120; 9158,296;28,89047
 230,31; 2925,346;  181,658; 9533,880;29,33729
 230,91; 3045,089;  174,813; 9847,932;29,67270
 231,51; 3134,469;  168,043;10155,152;29,70256
 232,10; 3276,462;  170,043;10488,064;30,10673
 232,70; 3409,765;  196,351;10637,077;30,77768
 233,30; 3562,100;  203,504;10982,179;31,15963
 233,90; 3612,683;  175,351;11123,242;31,39721
 234,50; 3752,222;  184,581;11182,491;32,43927
 235,10; 3809,444;  182,043;11331,633;32,53394
 235,70; 3890,961;  199,812;11398,781;32,95972
 236,29; 3890,253;  200,582;11347,754;33,09961
 236,89; 3919,410;  176,274;11296,000;33,66212
 237,49; 3955,511;  192,889;11256,101;34,01021
 238,09; 3869,532;  180,581;11083,700;33,83390
 238,69; 3839,765;  216,967;10925,828;33,82991
 239,29; 3773,899;  182,197;10627,175;34,38688
 239,89; 3689,673;  199,197;10325,321;34,47001
 240,48; 3544,269;  175,889;10003,455;34,27481
 241,08; 3418,902;  182,351; 9657,845;34,15707
 241,68; 3326,678;  216,735; 9405,264;33,84593
 242,28; 3179,844;  164,889; 9092,140;33,77249
 242,88; 3086,148;  217,120; 8844,048;33,25666
 243,48; 2950,292;  210,428; 8539,688;32,89445
 244,07; 2844,317;  198,197; 8305,456;32,63890
 244,67; 2780,153;  212,428; 8180,638;32,22462
 245,27; 2654,100;  207,582; 8020,637;31,31321
 245,87; 2592,746;  202,735; 7940,984;30,88568
 246,47; 2508,133;  195,120; 7905,266;29,99959
 247,06; 2420,190;  188,658; 7917,206;28,87388
 247,66; 2417,683;  182,658; 8001,876;28,58373
 248,26; 2409,980;  213,889; 8155,823;27,65184
 248,86; 2363,648;  196,274; 8323,092;26,66940
 249,46; 2319,866;  170,581; 8488,355;25,83966
 250,05; 2376,138;  208,505; 8889,937;24,96862
 250,65; 2384,929;  166,582; 9173,342;24,62980
 251,25; 2429,019;  189,658; 9635,681;23,70691
 251,85; 2480,393;  187,120;10180,646;22,94759
 252,44; 2522,597;  158,197;10737,534;22,34923
 253,04; 2623,036;  200,120;11459,686;21,51874
 253,64; 2669,279;  153,043;12098,464;21,06444
 254,24; 2830,689;  200,581;12955,909;20,61968
 254,84; 2923,789;  183,504;13809,432;20,11081
 255,43; 3060,359;  180,043;14792,636;19,71119
 256,03; 3199,398;  188,120;15635,471;19,49381
 256,63; 3324,608;  193,505;16648,755;19,02799
 257,23; 3467,600;  179,736;17466,164;19,01992
 257,82; 3618,715;  190,659;18317,750;18,91123
 258,42; 3694,346;  171,428;19093,814;18,61773
 259,02; 3899,340;  210,505;20034,920;18,60754
 259,62; 3984,935;  169,274;20667,680;18,61443
 260,21; 4114,844;  180,889;21124,964;18,78314
 260,81; 4189,859;  197,581;21563,090;18,68562
 261,41; 4290,268;  167,505;21953,623;18,92381
 262,01; 4435,960;  208,813;22371,429;19,07332
 262,60; 4482,293;  165,582;22700,703;19,15548
 263,20; 4618,173;  182,274;22984,717;19,45361
 263,80; 4711,341;  213,044;23145,817;19,61515
 264,40; 4768,517;  172,736;23239,186;19,92409
 264,99; 4898,530;  199,659;23434,194;20,22365
 265,59; 4973,977;  188,813;23637,145;20,40727
 266,19; 5069,252;  168,428;23854,922;20,69037
 266,78; 5244,230;  223,736;23827,111;21,27024
 267,38; 5278,773;  186,352;23809,664;21,55676
 267,98; 5386,437;  176,275;23888,705;21,97228
 268,58; 5454,279;  192,352;23919,496;22,17682
 269,17; 5558,769;  175,352;23946,242;22,64710
 269,77; 5649,132;  192,120;23651,977;23,26106
 270,37; 5620,756;  163,967;23594,736;23,28899
 270,96; 5748,237;  229,890;23477,474;23,73729
 271,56; 5763,191;  192,966;23174,664;24,23765
 272,16; 5788,012;  177,044;23038,738;24,54310
 272,75; 5865,928;  193,813;22949,456;24,92619
 273,35; 5953,987;  182,351;22947,835;25,35257
 273,95; 6020,147;  186,120;22897,791;25,68735
 274,54; 6142,211;  168,966;22845,018;26,34164
 275,14; 6329,793;  209,736;23211,307;26,60713
 275,74; 6407,061;  167,967;23262,106;27,01592
 276,33; 6588,390;  212,120;23670,379;27,18134
 276,93; 6803,391;  195,274;24000,998;27,75852
 277,53; 7013,318;  188,966;24480,551;28,09348
 278,12; 7221,800;  170,120;24882,707;28,53477
 278,72; 7528,568;  220,659;25607,498;28,78621
 279,32; 7760,972;  185,966;26004,984;29,33886
 279,91; 8061,945;  164,812;26785,849;29,66501
 280,51; 8395,355;  183,043;27319,255;30,26329
 281,11; 8717,220;  190,120;27968,527;30,69686
 281,70; 8937,037;  170,736;28412,107;31,04064
 282,30; 9268,652;  178,505;28968,664;31,57380
 282,90; 9507,527;  191,813;29335,835;31,96441
 283,49; 9813,898;  204,813;29850,094;32,41354
 284,09;10183,105;  220,197;30314,267;33,10588
 284,69;10497,473;  211,120;30676,434;33,76415
 285,28;10763,501;  199,966;31044,701;34,24745
 285,88;11117,117;  241,428;31267,217;35,05371
 286,47;11245,692;  192,428;31271,345;35,56515
 287,07;11525,753;  222,120;31492,417;36,14815
 287,67;11831,907;  205,428;31487,842;37,16618
 288,26;12070,963;  177,659;31433,606;38,05133
 288,86;12356,692;  186,889;31461,481;38,91275
 289,46;12740,383;  197,428;31623,521;39,91255
 290,05;13010,415;  187,966;31607,345;40,81064
 290,65;13485,663;  194,659;31866,156;41,96519
 291,24;13856,288;  196,274;31915,746;43,06507
 291,84;14290,377;  207,659;32091,063;44,16943
 292,44;14682,860;  196,966;32171,186;45,30492
 293,03;15069,195;  263,735;32350,547;46,14188
 293,63;15417,571;  186,351;32543,282;47,07251
 294,22;15826,775;  213,197;32649,881;48,13556
 294,82;16085,323;  189,121;32769,966;48,79002
 295,41;16207,806;  181,889;32461,722;49,64684
 296,01;16406,472;  219,505;32380,643;50,33083
 296,61;16494,822;  201,735;32124,057;51,03979
 297,20;16461,607;  194,736;31846,388;51,39343
 297,80;16525,810;  202,658;31633,357;51,93379
 298,39;16404,932;  184,659;31252,493;52,20922
 298,99;16515,346;  212,274;31083,950;52,80916
 299,58;16502,319;  203,120;30912,072;53,07638
 300,18;16438,715;  222,428;30839,754;52,96441
 300,78;16313,315;  190,735;30427,035;53,32193
 301,37;16384,848;  210,121;30360,455;53,64693
 301,97;16378,504;  204,428;30473,968;53,43350
 302,56;16368,359;  192,890;30297,075;53,73163
 303,16;16352,624;  179,197;30194,819;53,88337
 303,75;16419,887;  186,812;30292,221;53,92079
 304,35;16518,487;  189,581;30519,139;53,83826
 304,94;16521,926;  189,351;30455,364;53,96342
 305,54;16511,630;  205,966;30414,317;53,97734
 306,13;16395,711;  160,504;30389,472;53,70745
 306,73;16291,581;  174,504;30209,665;53,66070
 307,33;16323,360;  198,043;30187,156;53,77057
 307,92;16245,074;  198,582;30198,638;53,48821
 308,52;16456,939;  174,274;30562,024;53,58299
 309,11;16668,552;  188,582;30980,083;53,52117
 309,71;16693,438;  169,505;31409,706;52,89317
 310,30;16866,850;  176,505;31509,075;53,26836
 310,90;16992,389;  213,889;31888,998;52,97061
 311,49;16972,902;  194,582;32070,343;52,63661
 312,09;16913,671;  162,120;32165,614;52,34288
 312,68;17134,233;  242,274;32598,653;52,20596
 313,28;17030,304;  162,505;32749,253;51,76276
 313,87;17000,412;  153,659;32846,403;51,53056
 314,47;17040,161;  186,967;33115,126;51,18171
 315,06;16955,693;  170,428;33197,019;50,82349
 315,66;17019,209;  169,351;33394,153;50,71470
 316,25;16803,265;  160,736;33337,011;50,16395
 316,85;16640,752;  160,351;33403,688;49,57505
 317,44;16707,022;  175,274;33484,692;49,63085
 318,04;16474,944;  157,351;33544,541;48,87381
 318,63;16406,058;  168,197;33588,018;48,58752
 319,22;16330,427;  182,120;33732,082;48,13212
 319,82;16161,942;  178,659;33856,351;47,45956
 320,41;15969,420;  204,043;33677,799;47,09772
 321,01;15864,196;  199,274;33829,393;46,58004
 321,60;15713,056;  185,274;33806,977;46,18381
 322,20;15526,034;  172,812;33782,649;45,68074
 322,79;15392,325;  210,735;33976,603;44,96135
 323,39;15309,073;  172,966;34015,257;44,72542
 323,98;15070,168;  168,043;33951,241;44,11106
 324,58;14881,648;  172,736;33805,455;43,73394
 325,17;14711,703;  185,582;33734,222;43,29869
 325,76;14462,699;  205,582;33616,207;42,67241
 326,36;14106,070;  173,120;33254,411;42,11731
 326,95;13923,279;  199,505;32984,694;41,85968
 327,55;13571,844;  174,043;32616,539;41,29707
 328,14;13256,791;  180,812;32335,871;40,66538
 328,74;12964,602;  205,351;31792,817;40,39340
 329,33;12639,281;  198,043;31487,061;39,76231
 329,92;12326,435;  164,505;31012,632;39,42518
 330,52;11904,876;  194,043;30355,557;38,82707
 331,11;11641,072;  183,966;30015,561;38,40595
 331,71;11244,406;  189,505;29379,388;37,87237
 332,30;10933,849;  202,197;28964,056;37,31209
 332,89;10684,871;  227,428;28481,791;37,01178
 333,49;10352,296;  199,351;27864,817;36,69898
 334,08;10125,059;  191,889;27511,186;36,35954
 334,68; 9803,877;  193,505;27072,400;35,75434
 335,27; 9591,805;  201,812;26754,803;35,36322
 335,86; 9407,611;  239,889;26513,330;34,89349
 336,46; 9151,765;  194,428;26268,199;34,35383
 337,05; 9001,886;  183,813;26067,162;34,06852
 337,65; 8788,739;  173,813;26075,676;33,25987
 338,24; 8736,504;  232,120;25997,027;33,00763
 338,83; 8577,371;  211,505;25833,685;32,65088
 339,43; 8483,763;  175,120;25884,022;32,31816
 340,02; 8326,734;  195,890;25775,602;31,78630
 340,61; 8299,985;  176,274;25788,589;31,71799
 341,21; 8173,217;  209,813;25862,432;31,04324
 341,80; 8096,796;  185,351;25820,403;30,86182
 342,40; 8048,205;  189,966;25815,138;30,66609
 342,99; 7962,640;  184,889;25916,022;30,22701
 343,58; 7916,357;  188,351;26076,522;29,85150
 344,18; 7880,107;  197,889;26284,422;29,44898
 344,77; 7815,070;  182,197;26547,850;28,95006
 345,36; 7851,433;  170,120;26860,156;28,77970
 345,96; 7886,467;  209,889;27115,306;28,53172
 346,55; 7847,187;  181,504;27346,653;28,21881
 347,14; 7821,331;  178,581;27617,274;27,85391
 347,74; 7861,132;  157,581;28018,754;27,64977
 348,33; 7948,021;  186,120;28696,644;27,22469
 348,92; 8045,441;  196,889;29244,677;27,01945
 349,52; 8075,834;  157,350;29666,997;26,83355
 350,11; 8078,473;  185,043;29898,258;26,56538
 350,70; 8090,936;  182,812;30043,991;26,48296
 351,29; 7924,736;  177,659;29821,173;26,13414
 351,89; 7869,920;  188,736;29913,883;25,84069
 352,48; 7778,964;  162,197;29795,470;25,70343
 353,07; 7738,442;  191,889;29824,384;25,46715
 353,67; 7647,361;  198,581;29731,006;25,22238
 354,26; 7515,885;  184,043;29434,935;25,06536
 354,85; 7414,186;  188,812;29332,440;24,79229
 355,45; 7341,936;  171,813;29224,412;24,67980
 356,04; 7294,499;  179,812;29136,514;24,57009
 356,63; 7169,086;  216,043;28939,013;24,20725
 357,22; 7115,477;  186,505;28850,138;24,17339
 357,82; 7023,841;  186,198;28602,308;24,06256
 358,41; 6981,415;  209,736;28457,074;23,97281
 359,00; 6900,164;  176,274;28327,452;23,88493
 359,60; 6843,103;  189,274;28233,366;23,72631
 360,19; 6769,468;  179,966;28068,903;23,62766
 360,78; 6722,938;  199,351;27988,969;23,47491
 361,37; 6652,157;  181,659;27727,305;23,49009
 361,97; 6646,297;  187,351;27642,220;23,52569
 362,56; 6513,392;  181,582;27310,954;23,33932
 363,15; 6520,791;  232,889;27156,483;23,35462
 363,74; 6393,858;  186,351;26775,123;23,34635
 364,34; 6299,467;  210,120;26303,456;23,33679
 364,93; 6228,071;  181,813;25956,887;23,45777
 365,52; 6111,765;  153,505;25583,023;23,43049
 366,11; 6052,488;  178,043;25307,498;23,37673
 366,71; 5978,966;  183,813;24973,774;23,37702
 367,30; 5940,170;  191,813;24528,603;23,62003
 367,89; 5911,643;  222,428;24395,366;23,53547
 368,48; 5832,988;  199,351;24142,025;23,52969
 369,07; 5745,244;  192,043;23618,453;23,70487
 369,67; 5743,358;  207,659;23342,537;23,92794
 370,26; 5686,758;  178,659;23107,740;24,02233
 370,85; 5631,210;  187,428;22796,515;24,07785
 371,44; 5592,584;  190,889;22626,101;24,07686
 372,03; 5564,484;  172,659;22354,886;24,30696
 372,63; 5522,668;  161,197;22096,153;24,44259
 373,22; 5470,295;  177,582;21745,260;24,54003
 373,81; 5473,040;  162,582;21484,393;24,90622
 374,40; 5446,576;  169,735;21237,763;25,04668
 374,99; 5445,941;  174,428;21021,717;25,28632
 375,59; 5387,595;  169,120;20697,787;25,42043
 376,18; 5431,779;  191,966;20598,819;25,67673
 376,77; 5436,625;  198,659;20408,493;25,91791
 377,36; 5451,776;  208,505;20319,456;26,07172
 377,95; 5402,404;  203,505;20092,600;26,13944
 378,55; 5380,735;  170,197;19882,163;26,43337
 379,14; 5434,683;  189,120;19870,180;26,65285
 379,73; 5481,303;  191,351;19660,041;27,17159
 380,32; 5561,083;  199,505;19781,111;27,38068
 380,91; 5555,398;  173,582;19652,911;27,62834
 381,50; 5606,226;  194,428;19493,751;28,04139
 382,10; 5613,390;  164,659;19444,188;28,26175
 382,69; 5670,404;  160,120;19410,351;28,62451
 383,28; 5752,365;  203,120;19366,878;28,95698
 383,87; 5697,871;  175,505;19281,403;28,90399
 384,46; 5800,141;  165,813;19211,102;29,58384
 385,05; 5914,672;  207,659;19192,321;30,06118
 385,64; 5931,642;  189,274;19153,267;30,28037
 386,24; 5964,165;  165,274;19094,815;30,63408
 386,83; 6109,855;  201,428;19194,181;31,10885
 387,42; 6205,311;  198,043;19286,631;31,47046
 388,01; 6299,385;  188,352;19384,455;31,83476
 388,60; 6441,527;  181,428;19675,890;32,11219
 389,19; 6563,775;  163,890;19851,507;32,50716
 389,78; 6728,130;  172,506;20053,837;32,97377
 390,37; 7018,524;  235,198;20545,717;33,39809
 390,96; 7068,435;  185,813;20697,881;33,55401
 391,56; 7211,407;  181,814;20839,801;34,02845
 392,15; 7374,431;  172,429;21159,881;34,31576
 392,74; 7484,043;  151,968;21210,378;34,81780
 393,33; 7677,449;  182,352;21574,769;35,03624
 393,92; 7921,367;  195,045;21936,229;35,53773
 394,51; 8054,336;  165,198;22105,604;35,95712
 395,10; 8239,997;  206,353;22334,791;36,30461
 395,69; 8362,745;  197,122;22467,115;36,66648
 396,28; 8488,790;  191,276;22616,925;37,00011
 396,87; 8668,458;  200,354;22620,824;37,76952
 397,46; 8757,392;  196,277;22812,755;37,85344
 398,06; 8953,346;  207,585;23021,439;38,33531
 398,65; 9050,469;  186,971;23034,531;38,79407
 399,24; 9217,243;  204,048;23153,410;39,27427
 399,83; 9269,082;  181,434;23194,845;39,48849
 400,42; 9430,045;  216,897;23340,592;39,84289
 401,01; 9592,851;  192,744;23410,225;40,48720
 401,60; 9677,959;  206,900;23408,472;40,82076
 402,19; 9756,480;  219,055;23452,836;41,04982
 402,78; 9857,921;  218,596;23456,829;41,48046
 403,37; 9859,177;  204,675;23295,193;41,81154
 403,96; 9930,612;  206,986;23138,574;42,40276
 404,55; 9946,968;  217,604;23104,145;42,51129
 405,14; 9983,895;  202,607;22971,214;42,95954
 405,73;10050,575;  213,840;22778,482;43,59358
 406,32;10091,319;  212,996;22757,039;43,81789
 406,91;10075,377;  217,076;22488,069;44,26521
 407,50;10092,693;  215,077;22286,033;44,75391
 408,09;10111,728;  191,539;22091,556;45,29763
 408,68;10158,969;  207,925;21913,293;45,84600
 409,27;10145,173;  193,770;21733,089;46,20110
 409,86;10199,488;  206,306;21625,582;46,65509
 410,45;10201,565;  233,151;21523,443;46,82140
 411,04;10276,691;  223,996;21489,152;47,27309
 411,63;10235,065;  218,147;21239,526;47,65110
 412,22;10220,447;  215,145;21033,757;48,05941
 412,81;10199,569;  229,222;20785,249;48,50328
 413,40;10092,683;  237,144;20533,190;48,55891
 413,99; 9984,902;  278,067;20126,196;48,90554
 414,58; 9897,052;  196,990;19770,317;49,55755
 415,17; 9827,942;  210,914;19589,046;49,62825
 415,76; 9843,719;  206,145;19412,475;50,17915
 416,35; 9828,464;  202,068;19219,997;50,61748
 416,94; 9923,326;  237,761;19264,907;50,90393
 417,53;10094,479;  201,606;19490,625;51,28759
 418,12;10235,858;  208,221;19585,976;51,74819
 418,71;10431,526;  233,759;19823,904;52,05560
 419,30;10595,878;  216,452;20003,289;52,45621
 419,89;10766,601;  209,529;20200,787;52,80844
 420,48;10991,838;  235,221;20350,440;53,47502
 421,07;11096,974;  227,913;20547,339;53,49099
 421,66;11110,931;  197,605;20523,452;53,69186
 422,25;11197,416;  208,681;20441,884;54,31041
 422,84;11304,804;  244,296;20467,133;54,69316
 423,43;11185,069;  217,835;20204,469;54,87284
 424,02;11133,589;  236,219;19962,138;55,24392
 424,60;10870,017;  217,065;19606,941;54,94080
 425,19;10830,212;  218,296;19336,560;55,50669
 425,78;10918,283;  232,604;19274,681;56,11614
 426,37;10915,940;  238,373;19108,498;56,58451
 426,96;10929,390;  203,834;19034,526;56,95784
 427,55;10904,833;  219,757;18843,583;57,37315
 428,14;10792,470;  210,372;18597,684;57,55109
 428,73;10792,209;  212,680;18535,934;57,73827
 429,32;10860,545;  232,603;18493,947;58,19912
 429,91;10881,360;  242,834;18528,494;58,17961
 430,50;10851,740;  228,372;18356,212;58,60250
 431,08;10792,702;  234,295;18080,146;59,16449
 431,67;10786,211;  279,987;18101,671;58,95192
 432,26;10762,419;  287,602;17955,940;59,28581
 432,85;10574,813;  294,064;17598,413;59,41136
 433,44;10423,281;  316,986;17209,777;59,82608
 434,03;10314,581;  324,832;16901,479;60,26399
 434,62;10057,525;  279,909;16528,690;60,17446
 435,21; 9992,972;  308,371;16289,582;60,59992
 435,79; 9934,569;  283,140;16073,929;61,12063
 436,38; 9953,293;  282,370;16032,005;61,40411
 436,97; 9916,434;  277,678;15945,304;61,52021
 437,56; 9871,229;  273,831;15686,080;62,27124
 438,15; 9861,723;  261,677;15673,361;62,29070
 438,74; 9872,989;  277,600;15653,412;62,40574
 439,33; 9935,512;  258,216;15678,154;62,75833
 439,91; 9902,468;  232,754;15758,901;62,28019
 440,50;10081,838;  284,215;15791,105;63,18238
 441,09;10164,065;  264,753;15927,054;63,20471
 441,68;10205,054;  251,599;15847,027;63,82290
 442,27;10239,476;  250,215;15855,998;64,01000
 442,86;10269,129;  213,829;15895,016;64,12333
 443,44;10299,886;  230,137;15949,850;64,05810
 444,03;10405,984;  293,060;16007,625;64,35383
 444,62;10357,429;  228,522;15839,041;64,88514
 445,21;10267,376;  247,060;15662,234;65,00294
 445,80;10241,862;  275,752;15579,797;65,12076
 446,39;10146,482;  300,829;15382,504;65,28222
 446,97;10006,768;  227,828;15161,275;65,48347
 447,56; 9893,401;  226,905;14913,420;65,81885
 448,15; 9813,687;  234,290;14828,971;65,63622
 448,74; 9665,543;  249,213;14518,444;65,99045
 449,33; 9609,717;  250,597;14418,740;66,05750
 449,91; 9490,831;  229,597;14204,505;66,27044
 450,50; 9372,644;  232,059;14000,971;66,38568
 451,09; 9311,011;  238,828;13895,427;66,43076
 451,68; 9314,861;  267,443;13811,310;66,80085
 452,26; 9286,380;  260,520;13742,481;66,94768
 452,85; 9214,533;  236,289;13641,557;66,97549
 453,44; 9198,908;  248,750;13616,667;66,95253
 454,03; 9230,617;  230,827;13558,093;67,52915
 454,61; 9256,468;  221,442;13543,266;67,82124
 455,20; 9405,789;  262,596;13727,143;67,90569
 455,79; 9392,263;  265,827;13714,342;67,86204
 456,38; 9457,083;  262,519;13841,772;67,71038
 456,97; 9565,200;  243,288;13823,702;68,64233
 457,55; 9562,426;  241,134;13864,112;68,42331
 458,14; 9533,589;  265,673;13856,102;68,19444
 458,73; 9456,063;  258,057;13794,557;67,94966
 459,31; 9556,885;  272,133;13801,002;68,62918
 459,90; 9634,427;  292,287;13894,709;68,67997
 460,49; 9654,029;  326,364;13979,122;68,32074
 461,08; 9739,472;  239,441;14041,256;68,83175
 461,66; 9800,261;  249,518;14148,009;68,71784
 462,25; 9892,358;  249,671;14169,362;69,27371
 462,84; 9949,725;  266,210;14233,855;69,32819
 463,43; 9879,939;  220,671;14197,392;69,10968
 464,01; 9919,477;  252,825;14211,433;69,25227
 464,60; 9921,913;  294,902;14133,045;69,56866
 465,19; 9724,425;  226,901;13917,146;69,37439
 465,77; 9750,560;  245,901;13931,470;69,45023
 466,36; 9699,571;  263,748;13781,592;69,80272
 466,95; 9523,642;  249,517;13545,097;69,75344
 467,53; 9307,938;  262,209;13231,631;69,74659
 468,12; 9153,398;  287,516;12985,825;69,81939
 468,71; 8955,172;  256,517;12769,913;69,51475
 469,29; 8811,963;  244,747;12563,421;69,54658
 469,88; 8677,525;  243,285;12255,789;70,21217
 470,47; 8747,609;  308,824;12429,383;69,62372
 471,06; 8724,095;  245,747;12327,576;70,17438
 471,64; 8821,382;  258,439;12426,475;70,37243
 472,23; 8847,676;  238,515;12484,723;70,30062
 472,81; 8913,046;  235,669;12537,077;70,53970
 473,40; 9007,344;  244,438;12699,088;70,35851
 473,99; 9185,223;  337,131;12877,102;70,55912
 474,57; 9198,858;  254,746;13007,664;70,13385
 475,16; 9353,345;  259,900;13135,527;70,62526
 475,75; 9484,007;  277,361;13270,843;70,85588
 476,33; 9567,841;  273,438;13301,278;71,34262
 476,92; 9502,622;  284,515;13382,495;70,37808
 477,51; 9612,208;  273,746;13473,078;70,74950
 478,09; 9622,350;  274,361;13432,183;71,04511
 478,68; 9570,067;  266,592;13402,743;70,82345
 479,27; 9640,477;  285,746;13431,990;71,15896
 479,85; 9683,520;  260,592;13449,749;71,44450
 480,44; 9744,558;  258,591;13565,837;71,28422
 481,02;10616,419;  276,822;14805,194;71,16831
 481,61;12000,811;  287,591;16767,418;71,07611
 482,20;12804,654;  272,207;17955,114;70,87323
 482,78;13477,685;  308,668;18742,703;71,43861
 483,37;13818,427;  304,745;19311,268;71,10023
 483,95;13919,110;  325,591;19524,179;70,80479
 484,54;14084,173;  324,668;19721,819;70,93570
 485,13;14010,666;  299,667;19674,419;70,76735
 485,71;13831,795;  267,283;19359,168;71,04857
 486,30;13666,398;  311,514;19163,734;70,83985
 486,88;13427,548;  350,129;18790,873;70,91589
 487,47;12960,774;  319,360;18111,474;71,05066
 488,05;12348,136;  314,975;17285,299;70,90708
 488,64;11475,387;  298,052;16075,825;70,84229
 489,23;10194,067;  315,129;14276,871;70,75720
 489,81; 8702,941;  318,436;12269,871;70,15480
 490,40; 8233,032;  283,282;11577,264;70,38926
 490,98; 8048,556;  255,051;11339,911;70,30765
 491,57; 7980,809;  291,129;11214,719;70,39518
 492,15; 7884,319;  261,051;11135,031;70,10559
 492,74; 7821,380;  270,052;11148,520;69,41536
 493,32; 7773,482;  290,436;10980,505;69,99998
 493,91; 7682,791;  275,820;10887,486;69,80026
 494,50; 7674,444;  273,128;10879,117;69,78431
 495,08; 7618,293;  260,205;10835,710;69,57671
 495,67; 7613,999;  291,359;10817,349;69,56724
 496,25; 7536,344;  222,974;10657,382;70,08898
 496,84; 7470,557;  249,359;10687,065;69,18377
 497,42; 7482,271;  241,974;10616,052;69,79219
 498,01; 7423,082;  259,513;10542,979;69,66104
 498,59; 7359,601;  221,359;10499,036;69,45384
 499,18; 7337,237;  244,051;10458,382;69,44347
 499,76; 7324,271;  256,589;10363,917;69,92632
 500,35; 7210,555;  255,589;10202,439;69,92129
 500,93; 7154,323;  245,282;10220,783;69,26009
 501,52; 7097,366;  244,051;10134,040;69,29548
 502,10; 7050,519;  259,743;10034,794;69,47049
 502,69; 6960,607;  239,896; 9925,268;69,39033
 503,27; 6815,777;  222,743; 9663,925;69,83272
 503,86; 6791,831;  245,127; 9678,542;69,39909
 504,44; 6713,239;  218,819; 9571,680;69,43779
 505,03; 6508,178;  208,358; 9369,418;68,76738
 505,61; 6458,357;  219,127; 9253,244;69,06298
 506,19; 6403,724;  242,666; 9039,700;70,03563
 506,78; 6195,129;  224,588; 8895,900;68,85395
 507,36; 6115,918;  230,742; 8739,459;69,16643
 507,95; 5996,812;  229,127; 8601,409;68,89024
 508,53; 5943,339;  227,358; 8497,550;69,11546
 509,12; 5836,968;  239,357; 8385,061;68,71856
 509,70; 5748,473;  250,511; 8219,490;68,99205
 510,29; 5632,319;  258,126; 8094,530;68,57983
 510,87; 5462,845;  227,742; 7879,152;68,42011
 511,46; 5375,577;  218,434; 7755,661;68,42229
 512,04; 5249,614;  224,665; 7594,866;68,17926
 512,62; 5131,181;  243,050; 7412,305;68,18185
 513,21; 5045,883;  212,357; 7288,646;68,30594
 513,79; 4932,555;  222,741; 7188,436;67,61442
 514,38; 4811,964;  198,818; 7033,647;67,49468
 514,96; 4764,869;  251,511; 6942,352;67,45577
 515,54; 4630,947;  213,510; 6836,429;66,69924
 516,13; 4601,552;  222,664; 6752,168;67,06310
 516,71; 4523,056;  225,203; 6620,696;67,20128
 517,30; 4386,515;  213,356; 6522,758;66,14190
 517,88; 4380,368;  240,048; 6434,733;66,83665
 518,46; 4267,960;  222,279; 6292,771;66,64502
 519,05; 4232,335;  225,048; 6254,049;66,46685
 519,63; 4182,230;  231,433; 6195,050;66,24834
 520,22; 4109,792;  244,663; 6145,151;65,50524
 520,80; 4086,870;  231,971; 6080,477;65,91254
 521,38; 4087,859;  260,587; 6102,253;65,51679
 521,97; 4003,246;  229,971; 6046,601;64,87046
 522,55; 4000,274;  241,048; 6010,541;65,15695
 523,13; 3975,786;  219,817; 6021,370;64,74074
 523,72; 3974,121;  226,510; 5992,977;64,98972
 524,30; 4059,355;  235,432; 6131,945;64,85058
 524,89; 4055,940;  218,048; 6108,543;65,15398
 525,47; 4120,791;  243,740; 6228,118;64,78620
 526,05; 4132,412;  206,355; 6263,749;64,81430
 526,64; 4170,510;  238,201; 6358,619;64,24902
 527,22; 4260,864;  250,047; 6505,122;64,12100
 527,80; 4319,930;  266,816; 6599,458;64,00352
 528,39; 4384,397;  226,586; 6700,301;64,22605
 528,97; 4484,576;  224,124; 6868,512;64,12107
 529,55; 4561,203;  248,432; 6996,615;63,91010
 530,14; 4659,875;  252,739; 7200,328;63,43403
 530,72; 4670,641;  229,509; 7309,155;62,73099
 531,30; 4767,723;  208,585; 7461,193;62,86204
 531,89; 4808,382;  231,201; 7525,255;62,75222
 532,47; 4849,119;  267,355; 7669,762;61,89560
 533,05; 4866,634;  251,740; 7672,660;62,18763
 533,63; 4908,250;  261,355; 7705,221;62,42584
 534,22; 4895,684;  239,431; 7765,742;61,86633
 534,80; 4917,654;  251,277; 7789,344;61,90416
 535,38; 4985,542;  334,893; 7959,271;60,99710
 535,97; 4909,524;  251,508; 7886,881;61,00575
 536,55; 4959,056;  280,354; 7904,562;61,36641
 537,13; 4923,527;  288,047; 7905,877;60,85040
 537,71; 4937,141;  322,047; 7940,628;60,57682
 538,30; 4930,975;  334,893; 7993,909;60,00878
 538,88; 4995,012;  352,277; 8073,924;60,12622
 539,46; 5115,067;  410,585; 8243,361;60,06149
 540,05; 5169,308;  405,200; 8356,739;59,91428
 540,63; 5238,806;  441,046; 8556,673;59,11755
 541,21; 5338,744;  479,739; 8696,818;59,13300
 541,79; 5341,019;  478,508; 8803,419;58,40916
 542,38; 5438,075;  501,893; 8941,490;58,48837
 542,96; 5523,890;  520,892; 9065,114;58,55417
 543,54; 5620,682;  539,200; 9251,537;58,32513
 544,12; 5678,750;  493,816; 9436,371;57,98045
 544,70; 5697,393;  494,431; 9440,660;58,15816
 545,29; 5754,234;  504,893; 9648,795;57,40811
 545,87; 5726,942;  486,816; 9679,265;57,00468
 546,45; 5708,544;  465,200; 9709,311;56,72091
 547,03; 5719,040;  452,662; 9797,249;56,35753
 547,62; 5779,587;  418,585; 9934,378;56,33794
 548,20; 5838,366;  435,200;10100,372;55,90347
 548,78; 5898,003;  396,507;10219,879;56,00415
 549,36; 5947,471;  366,430;10373,605;55,77039
 549,94; 5968,513;  335,892;10554,876;55,11918
 550,53; 6101,860;  355,277;10762,159;55,21907
 551,11; 6157,436;  322,661;10924,151;55,03731
 551,69; 6271,494;  334,046;11276,010;54,26310
 552,27; 6368,219;  286,507;11465,523;54,40293
 552,85; 6493,448;  305,046;11817,508;53,75395
 553,44; 6624,798;  298,430;12110,552;53,55826
 554,02; 6833,947;  314,046;12431,922;53,80399
 554,60; 6890,114;  263,122;12768,432;52,99342
 555,18; 7098,054;  306,969;13114,437;53,02441
 555,76; 7201,348;  288,199;13433,121;52,59178
 556,34; 7393,239;  299,891;13810,378;52,50253
 556,93; 7502,216;  281,738;14192,200;51,90682
 557,51; 7635,799;  253,661;14467,113;51,93768
 558,09; 7760,398;  280,892;14830,679;51,40629
 558,67; 7951,461;  278,968;15220,656;51,34957
 559,25; 8061,153;  289,199;15470,982;51,19263
 559,83; 8133,693;  271,430;15684,502;51,01036
 560,41; 8284,346;  258,968;16098,894;50,66550
 561,00; 8424,571;  272,122;16391,747;50,57468
 561,58; 8508,414;  271,815;16682,131;50,19159
 562,16; 8610,331;  259,661;16993,673;49,90238
 562,74; 8715,534;  242,353;17349,904;49,52889
 563,32; 8889,782;  248,737;17697,474;49,52247
 563,90; 9047,477;  274,507;18129,547;49,13442
 564,48; 9183,606;  277,199;18495,332;48,88759
 565,06; 9419,184;  261,661;19084,344;48,65153
 565,65; 9722,120;  272,506;19659,953;48,74089
 566,23;10004,004;  320,507;20376,806;48,28157
 566,81;10244,704;  266,584;21113,723;47,86326
 567,39;10674,845;  284,353;21934,158;47,99347
 567,97;10848,495;  286,814;22473,937;47,60275
 568,55;11256,113;  308,737;23278,264;47,66043
 569,13;11469,640;  284,891;24018,772;47,12566
 569,71;11868,189;  260,276;24926,337;47,06026
 570,29;12318,289;  306,661;25849,126;47,02611
 570,87;12608,981;  304,969;26426,877;47,10227
 571,45;12767,639;  295,814;27080,061;46,56403
 572,03;12907,795;  266,430;27550,446;46,33249
 572,61;13106,417;  254,660;28285,190;45,84914
 573,20;13385,467;  266,122;28927,400;45,77376
 573,78;13510,490;  257,968;29476,135;45,35713
 574,36;13684,427;  284,814;30004,297;45,08696
 574,94;13795,668;  332,045;30271,657;44,96926
 575,52;13758,843;  269,737;30613,817;44,45383
 576,10;13944,826;  330,429;31103,233;44,24165
 576,68;14061,977;  308,199;31576,386;43,98649
 577,26;14327,080;  327,583;32303,583;43,78126
 577,84;14382,946;  332,276;32728,658;43,37111
 578,42;14466,234;  376,737;32927,349;43,28489
 579,00;14380,814;  317,122;33151,719;42,83193
 579,58;14414,211;  367,506;33271,577;42,68987
 580,16;14322,673;  328,429;33317,731;42,42055
 580,74;14350,363;  331,199;33552,907;42,19881
 581,32;14186,876;  324,583;33524,886;41,75351
 581,90;14140,361;  351,122;33594,888;41,47917
 582,48;14140,920;  340,352;33723,007;41,34053
 583,06;14082,478;  347,737;33760,973;41,10569
 583,64;14066,712;  327,737;33886,412;40,94016
 584,22;13904,259;  344,275;33797,948;40,53362
 584,80;13667,178;  355,737;33566,622;40,08156
 585,38;13447,554;  354,276;33161,122;39,91020
 585,96;13346,484;  330,891;33270,794;39,51315
 586,54;13361,969;  342,121;33252,646;39,56135
 587,12;13323,219;  324,583;33408,996;39,28931
 587,70;13235,020;  357,583;33443,200;38,92156
 588,28;13200,462;  335,737;33477,737;38,81698
 588,86;13113,525;  344,198;33657,805;38,33066
 589,44;13021,293;  324,275;33671,790;38,07485
 590,02;13031,572;  321,660;33925,022;37,82334
 590,59;12993,965;  313,045;34083,572;37,55026
 591,17;12981,214;  315,121;34274,314;37,29798
 591,75;12918,634;  303,506;34374,881;37,02559
 592,33;12846,926;  327,967;34620,470;36,50640
 592,91;12883,526;  283,198;34771,483;36,53510
 593,49;12904,144;  283,429;35189,194;36,15654
 594,07;12947,832;  308,429;35345,736;36,07413
 594,65;12827,630;  319,583;35391,958;35,66353
 595,23;12849,228;  308,506;35716,319;35,41795
 595,81;12886,591;  315,275;35977,566;35,25101
 596,39;12781,094;  288,890;35999,112;34,98215
 596,97;12753,955;  279,121;36227,315;34,70226
 597,55;12610,302;  293,044;36122,513;34,37745
 598,12;12590,123;  274,198;36072,980;34,40320
 598,70;12548,294;  284,429;36219,292;34,12804
 599,28;12567,266;  296,813;36361,352;34,02359
 599,86;12455,900;  286,429;36401,068;33,69678
 600,44;12365,791;  259,121;36511,113;33,39587
 601,02;12373,155;  309,428;36583,477;33,25718
 601,60;12291,177;  288,967;36581,955;33,07033
 602,18;12140,005;  260,967;36646,587;32,64762
 602,75;12073,979;  258,044;36623,544;32,49216
 603,33;12038,144;  296,352;36645,520;32,30278
 603,91;11933,821;  264,044;36615,284;32,10283
 604,49;11860,137;  286,890;36678,160;31,80226
 605,07;11734,492;  299,044;36855,161;31,28190
 605,65;11755,363;  298,352;36857,453;31,33833
 606,23;11741,453;  352,198;36919,186;31,14627
 606,80;11668,793;  371,967;36917,299;30,91181
 607,38;11623,196;  397,736;36983,195;30,68284
 607,96;11511,096;  448,737;37046,533;30,22684
 608,54;11465,177;  494,352;37144,670;29,93378
 609,12;11339,534;  495,890;37068,744;29,64943
 609,70;11317,770;  516,121;37209,858;29,43731
 610,27;11252,111;  525,737;37198,868;29,24859
 610,85;11188,300;  547,275;37267,095;28,97897
 611,43;11105,970;  532,352;37325,555;28,73797
 612,01;10887,936;  495,429;37049,020;28,43088
 612,59;10876,754;  507,582;37110,812;28,32857
 613,16;10734,215;  476,198;37032,424;28,06093
 613,74;10694,193;  458,582;36940,426;28,05673
 614,32;10502,768;  432,352;36958,187;27,57067
 614,90;10462,106;  404,429;36767,355;27,65915
 615,48;10320,780;  353,506;36608,174;27,49239
 616,05;10189,549;  345,198;36442,961;27,27136
 616,63;10065,011;  355,660;36314,979;27,00093
 617,21; 9968,325;  355,891;36290,669;26,74967
 617,79; 9908,236;  334,660;36184,525;26,70464
 618,36; 9849,767;  348,275;36073,224;26,59624
 618,94; 9649,518;  294,968;35842,409;26,31568
 619,52; 9543,429;  312,275;35522,166;26,21750
 620,10; 9406,846;  293,506;35553,048;25,84645
 620,67; 9317,059;  312,814;35336,347;25,70913
 621,25; 9261,853;  323,890;35166,448;25,65243
 621,83; 9158,919;  307,968;35156,147;25,39860
 622,41; 9147,756;  354,121;35207,230;25,23056
 622,98; 8993,468;  314,429;34947,136;25,06024
 623,56; 8856,632;  323,506;34908,705;24,67277
 624,14; 8718,606;  301,583;34790,615;24,40493
 624,72; 8736,161;  301,660;34705,503;24,51616
 625,29; 8665,758;  291,968;34756,457;24,29686
 625,87; 8634,884;  337,352;34837,231;24,05090
 626,45; 8471,759;  287,583;34537,878;23,89520
 627,02; 8374,173;  297,967;34593,361;23,54895
 627,60; 8294,402;  284,505;34423,962;23,46228
 628,18; 8273,457;  267,044;34534,974;23,36416
 628,76; 8200,926;  274,814;34532,158;23,13697
 629,33; 8159,802;  299,506;34593,022;22,92065
 629,91; 8110,384;  298,352;34596,202;22,77703
 630,49; 8042,083;  291,583;34616,041;22,58011
 631,06; 8030,709;  293,814;34768,072;22,44253
 631,64; 7953,064;  299,045;34820,439;22,17181
 632,22; 7890,277;  260,506;34666,778;22,17552
 632,79; 7877,403;  295,199;34991,453;21,85309
 633,37; 7848,187;  284,275;35015,678;21,77831
 633,95; 7816,491;  281,276;35039,175;21,67915
 634,52; 7738,387;  268,891;35190,506;21,38932
 635,10; 7694,476;  268,198;35175,229;21,27445
 635,68; 7727,216;  268,506;35361,208;21,25431
 636,25; 7629,783;  256,276;35344,339;21,01429
 636,83; 7654,465;  247,122;35544,697;20,98542
 637,41; 7614,959;  265,814;35562,766;20,82091
 637,98; 7619,149;  295,660;35762,758;20,64868
 638,56; 7560,967;  275,276;35837,239;20,48731
 639,13; 7541,014;  259,275;35831,727;20,47016
 639,71; 7568,944;  322,429;36043,761;20,28624
 640,29; 7411,186;  236,506;35850,715;20,14555
 640,86; 7424,204;  263,583;36069,057;19,99868
 641,44; 7310,837;  257,121;36085,707;19,68740
 642,02; 7329,085;  278,045;36048,048;19,71216
 642,59; 7278,949;  258,968;36266,775;19,49572
 643,17; 7203,352;  259,968;36193,270;19,32298
 643,74; 7142,985;  252,121;36194,381;19,17204
 644,32; 7134,541;  274,814;36117,261;19,13856
 644,89; 7061,636;  283,045;36183,449;18,88166
 645,47; 7048,423;  296,891;36196,868;18,80651
 646,05; 6953,902;  276,275;36075,132;18,65318
 646,62; 6869,997;  265,506;36104,320;18,42832
 647,20; 6873,245;  273,968;36276,047;18,33027
 647,77; 6771,801;  246,506;36035,696;18,23259
 648,35; 6698,588;  238,891;36043,038;18,04176
 648,92; 6652,760;  276,121;36050,379;17,82466
 649,50; 6637,239;  240,891;35983,798;17,89543
 650,08; 6575,565;  230,198;35946,140;17,76620
 650,65; 6570,967;  244,275;36039,712;17,67458
 651,23; 6662,831;  220,121;36745,823;17,63884
 651,80; 6804,618;  237,583;37683,165;17,53754
 652,38; 6808,482;  243,814;38092,660;17,34443
 652,95; 6815,038;  231,352;38508,002;17,20027
 653,53; 6805,209;  252,583;38739,728;17,02549
 654,10; 6839,843;  280,198;38903,685;16,98356
 654,68; 6769,091;  238,275;38753,873;16,95629
 655,25; 6759,109;  235,198;38879,907;16,88177
 655,83; 6701,280;  236,352;38977,403;16,68754
 656,40; 6764,606;  265,890;38915,821;16,81430
 656,98; 6641,008;  250,275;38815,932;16,57105
 657,55; 6570,872;  247,967;38672,659;16,45532
 658,13; 6514,428;  247,814;38286,923;16,47414
 658,70; 6433,369;  269,429;38035,342;16,32144
 659,28; 6229,541;  252,429;37316,914;16,12625
 659,85; 6082,097;  252,429;36447,487;16,10625
 660,43; 6092,499;  267,737;36491,752;16,07984
 661,00; 6030,363;  245,660;36550,939;15,93350
 661,58; 6047,689;  248,275;36974,358;15,79099
 662,15; 6081,860;  231,429;37100,700;15,86804
 662,73; 6113,955;  304,044;37354,734;15,68098
 663,30; 6085,280;  244,736;37524,922;15,66662
 663,88; 6121,836;  248,429;37750,802;15,66143
 664,45; 6054,931;  235,506;37858,682;15,46766
 665,03; 6128,718;  252,736;38361,639;15,41892
 665,60; 6261,813;  331,506;38779,135;15,42438
 666,17; 6151,523;  250,506;38898,553;15,26860
 666,75; 6194,387;  239,275;39253,895;15,26380
 667,32; 6235,174;  263,044;39464,698;15,23438
 667,90; 6241,730;  246,890;39756,347;15,17318
 668,47; 6279,824;  265,198;39945,535;15,15770
 669,05; 6323,688;  240,813;40359,877;15,16206
 669,62; 6322,783;  213,198;40359,911;15,21815
 670,19; 6275,801;  229,736;40585,253;14,98200
 670,77; 6338,280;  251,121;40779,671;15,01943
 671,34; 6288,605;  249,736;40614,244;14,96084
 671,92; 6302,085;  228,890;40997,816;14,89663
 672,49; 6319,026;  260,582;40982,850;14,87747
 673,06; 6282,274;  217,813;41101,115;14,83359
 673,64; 6231,907;  232,582;41085,918;14,68503
 674,21; 6208,156;  217,967;41002,568;14,68738
 674,79; 6254,327;  246,736;41187,525;14,67385
 675,36; 6253,576;  259,582;41342,174;14,59011
 675,93; 6184,594;  232,429;41124,900;14,55565
 676,51; 6236,919;  252,967;41300,550;14,57809
 677,08; 6232,167;  256,813;41486,814;14,49273
 677,65; 6184,262;  249,659;41574,925;14,36071
 678,23; 6207,511;  245,967;41732,806;14,36972
 678,80; 6208,067;  230,659;41832,301;14,36820
 679,38; 6223,546;  241,582;41962,950;14,33789
 679,95; 6247,333;  247,044;42179,446;14,30943
 680,52; 6255,966;  234,659;42490,095;14,24978
 681,10; 6309,292;  256,352;42735,129;14,24933
 681,67; 6350,002;  249,121;43149,548;14,22103
 682,24; 6300,635;  230,428;43186,197;14,13129
 682,82; 6379,960;  238,352;43766,462;14,10952
 683,39; 6455,593;  288,275;44063,112;14,08873
 683,96; 6481,534;  240,505;44259,915;14,17790
 684,54; 6483,937;  220,505;44663,795;14,09309
 685,11; 6528,493;  268,813;45022,521;13,98695
 685,68; 6595,203;  240,967;45434,324;14,06011
 686,25; 6586,836;  223,659;45448,743;14,07002
 686,83; 6602,546;  231,198;45624,777;14,03579
 687,40; 6661,102;  218,275;45970,350;14,08204
 687,97; 6735,274;  280,967;46409,537;13,99199
 688,55; 6641,522;  218,736;46411,725;13,90424
 689,12; 6720,078;  205,274;46692,990;14,01403
 689,69; 6688,327;  227,659;46772,870;13,88041
 690,26; 6760,883;  245,044;46844,366;13,98269
 690,84; 6785,285;  249,274;47133,323;13,94080
 691,41; 6794,996;  251,967;47222,664;13,93002
 691,98; 6822,475;  244,967;47439,622;13,93698
 692,56; 6799,569;  233,044;47516,809;13,88748
 693,13; 6898,203;  287,659;47545,766;13,98817
 693,70; 6897,220;  256,274;47684,877;14,00199
 694,27; 6880,392;  243,890;47890,604;13,92856
 694,84; 6892,794;  238,044;47984,253;13,93776
 695,42; 6963,350;  276,582;48083,133;13,98714
 695,99; 6944,676;  238,351;48293,629;13,95544
 696,56; 6905,001;  243,121;48149,124;13,90615
 697,13; 7008,634;  241,197;48488,697;14,02650
 697,71; 7002,421;  225,582;48519,500;14,03249
 698,28; 7092,362;  244,120;48871,380;14,08313
 698,85; 7033,534;  196,659;48863,106;14,04844
 699,42; 7066,013;  214,505;49072,371;14,02335
 699,99; 7157,185;  242,044;49106,405;14,15171
 700,57; 7162,433;  243,428;49142,055;14,14969
 701,14; 7139,989;  231,505;49239,550;14,09663
 701,71; 7215,007;  250,967;49401,815;14,16871
 702,28; 7256,563;  242,351;49536,310;14,22935
 702,85; 7247,581;  245,967;49647,575;14,17285
 703,43; 7305,214;  257,197;49848,763;14,21213
 704,00; 7351,386;  280,582;50070,028;14,20141
 704,57; 7319,019;  247,274;50047,293;14,20029
 705,14; 7406,575;  289,582;50348,250;14,21730
 705,71; 7441,439;  280,582;50303,822;14,31506
 706,28; 7431,995;  253,274;50223,010;14,36614
 706,86; 7516,167;  276,966;50540,890;14,40238
 707,43; 7548,800;  298,351;50541,540;14,43071
 708,00; 7509,664;  284,582;50501,266;14,38781
 708,57; 7489,297;  263,043;50353,838;14,42631
 709,14; 7557,315;  285,966;50567,488;14,46127
 709,71; 7562,025;  264,582;50621,368;14,49148
 710,28; 7596,735;  258,428;50908,556;14,48823
 710,86; 7635,060;  260,351;50935,205;14,55300
 711,43; 7710,386;  282,197;50873,316;14,68279
 712,00; 7676,711;  266,582;51054,350;14,59038
 712,57; 7773,113;  278,659;51204,769;14,71633
 713,14; 7780,670;  255,813;51192,956;14,77283
 713,71; 7784,764;  265,120;51185,606;14,76742
 714,28; 7798,551;  257,197;51191,640;14,80600
 714,85; 7792,646;  239,505;50995,212;14,88136
 715,42; 7888,048;  249,351;51154,477;15,00575
 716,00; 7939,066;  309,120;51281,819;14,96869
 716,57; 7946,545;  250,659;51370,237;15,05468
 717,14; 7935,255;  238,197;51300,656;15,07381
 717,71; 7935,888;  230,659;51458,690;15,04104
 718,28; 8031,137;  268,889;51516,032;15,14669
 718,85; 7966,616;  227,351;51475,758;15,10147
 719,42; 8092,403;  260,889;51744,023;15,21180
 719,99; 8017,959;  224,197;51414,134;15,22518
 720,56; 8105,285;  265,428;51757,552;15,22535
 721,13; 8146,995;  251,735;51795,432;15,31760
 721,70; 8090,474;  232,812;51767,620;15,24729
 722,27; 8145,184;  265,659;51710,962;15,31632
 722,84; 8263,587;  306,889;51891,996;15,42441
 723,41; 8229,835;  236,197;51914,799;15,46798
 723,98; 8294,391;  241,428;52137,295;15,51754
 724,55; 8391,024;  275,351;52288,021;15,60326
 725,12; 8332,273;  207,812;52124,978;15,64889
 725,69; 8440,598;  238,197;52401,166;15,72457
 726,27; 8468,001;  230,812;52349,815;15,80458
 726,84; 8588,095;  249,120;52729,234;15,88978
 727,41; 8611,498;  268,428;52672,729;15,92058
 727,98; 8648,900;  266,043;52998,533;15,89695
 728,55; 8715,149;  287,428;52891,797;16,02095
 729,12; 8752,166;  243,581;53017,524;16,12270
 729,69; 8846,646;  254,658;53168,481;16,23770
 730,26; 8905,433;  274,274;53258,976;16,28991
 730,82; 8875,758;  261,274;53209,857;16,26953
 731,39; 8880,622;  261,581;53284,198;16,25540
 731,96; 9015,563;  237,735;53591,617;16,45209
 732,53; 9082,734;  247,274;53811,420;16,49510
 733,10; 9119,290;  268,504;53949,377;16,48778
 733,67; 9245,462;  266,504;54133,257;16,66883
 734,24; 9170,557;  250,120;53825,907;16,65013
 734,81; 9250,344;  280,197;53907,941;16,72669
 735,38; 9270,669;  261,889;53674,436;16,86641
 735,95; 9267,071;  266,735;53612,393;16,87173
 736,52; 9324,705;  266,504;53784,735;16,92545
 737,09; 9354,261;  269,504;53470,384;17,07633
 737,66; 9433,355;  307,889;53595,111;17,12506
 738,23; 9467,065;  265,043;53768,299;17,19900
 738,80; 9580,852;  318,197;53982,333;17,26042
 739,37; 9642,716;  279,274;54149,367;17,38152
 739,94; 9710,042;  261,581;54157,554;17,53092
 740,51; 9847,829;  367,658;54254,204;17,59283
 741,07; 9777,308;  261,350;54232,007;17,63172
 741,64; 9870,557;  286,504;54400,810;17,71076
 742,21; 9905,882;  251,504;54471,152;17,80605
 742,78; 9975,284;  234,812;54224,647;18,04131
 743,35;10008,379;  254,427;54522,528;17,97364
 743,92;10076,089;  286,581;54626,946;18,01517
 744,49;10130,184;  289,581;54517,211;18,14684
 745,06;10189,586;  251,812;54451,630;18,33544
 745,63;10177,527;  249,504;54530,587;18,29002
 746,19;10252,391;  251,197;54526,851;18,42667
 746,76;10217,178;  267,273;54505,039;18,34497
 747,33;10260,042;  251,966;54474,919;18,45727
 747,90;10431,367;  281,658;54680,415;18,65798
 748,47;10366,923;  267,658;54590,757;18,59111
 749,04;10449,326;  273,966;54630,714;18,71959
 749,61;10408,343;  298,043;54583,517;18,62432
 750,17;10513,284;  276,658;54671,782;18,81901
 750,74;10562,225;  280,966;54532,585;18,95106
 751,31;10534,858;  246,350;54392,927;19,00122
 751,88;10568,799;  240,581;54357,653;19,08495
 752,45;10654,201;  263,581;54516,610;19,15215
 753,02;10660,296;  274,812;54288,567;19,22748
 753,58;10742,775;  246,043;54164,678;19,46773
 754,15;10800,331;  246,889;54373,251;19,49779
 754,72;10807,657;  246,581;54159,054;19,58930
 755,29;10815,982;  236,043;53881,165;19,72209
 755,86;10907,615;  264,966;54187,891;19,73678
 756,42;10989,479;  272,735;54064,848;19,92252
 756,99;11028,112;  224,273;53975,420;20,09974
 757,56;11040,053;  239,966;53913,455;20,12183
 758,13;11090,686;  201,042;53854,412;20,29629
 758,70;11223,704;  232,966;53871,292;20,49046
 759,26;11271,337;  221,273;53980,710;20,55465
 759,83;11250,047;  229,042;54191,898;20,42332
 760,40;11311,373;  218,581;53906,778;20,66151
 760,97;11321,775;  211,119;54007,966;20,65299
 761,53;11330,639;  198,119;53582,769;20,85341
 762,10;11349,657;  209,581;53551,419;20,88431
 762,67;11388,367;  230,042;53514,530;20,94104
 763,24;11396,846;  184,658;53247,179;21,13015
 763,80;11476,864;  214,427;53340,675;21,19938
 764,37;11544,574;  230,504;53361,093;21,29483
 764,94;11426,207;  208,119;52822,589;21,32130
 765,50;11458,378;  211,965;52946,777;21,32635
 766,07;11580,242;  254,042;52927,195;21,50279
 766,64;11557,722;  224,350;52552,614;21,65822
 767,21;11605,355;  218,965;52491,648;21,78268
 767,77;11599,142;  248,581;52366,682;21,77854
 768,34;11678,852;  242,812;52319,100;21,96017
 768,91;11714,716;  262,735;52172,519;22,06131
 769,47;11748,964;  241,581;52192,476;22,15050
 770,04;11744,443;  247,581;52132,818;22,15825
 770,61;11706,692;  231,658;51836,467;22,23637
 771,18;11795,940;  222,658;51851,347;22,41638
 771,74;11852,958;  246,658;51982,997;22,43356
 772,31;11878,514;  250,119;51604,877;22,64327
 772,88;11829,071;  222,658;51556,680;22,60959
 773,44;11783,165;  222,273;51181,022;22,68677
 774,01;11909,875;  249,196;51415,979;22,78955
 774,58;11891,662;  233,273;50939,090;22,99221
 775,14;11980,372;  227,658;51202,201;23,05605
 775,71;11983,928;  248,042;51110,619;23,07372
 776,27;12064,562;  278,504;51012,346;23,23116
 776,84;12153,349;  313,965;51026,226;23,34620
 777,41;12073,982;  246,504;50938,414;23,33208
 777,97;12139,307;  242,888;50616,140;23,61654
 778,54;12117,556;  243,504;50645,482;23,55870
 779,11;12213,343;  258,657;50606,285;23,74429
 779,67;12209,207;  230,350;50565,857;23,79803
 780,24;12268,917;  239,888;50341,968;24,00904
 780,80;12302,627;  261,657;50384,002;24,02316
 781,37;12394,952;  254,657;50403,267;24,20864
 781,94;12392,277;  253,119;50158,455;24,32437
 782,50;12422,757;  253,965;50067,104;24,42888
 783,07;12501,390;  271,350;50151,600;24,51880
 783,63;12490,792;  233,196;49872,172;24,69349
 784,20;12524,887;  263,657;49880,052;24,71205
 784,77;12528,905;  255,196;49742,240;24,80186
 785,33;12554,615;  234,273;49513,582;25,00104
 785,90;12589,171;  243,273;49440,231;25,09484
 786,46;12616,419;  265,965;49383,727;25,14458
 787,03;12654,360;  234,888;49132,992;25,39868
 787,59;12657,839;  239,350;49034,026;25,45050
 788,16;12667,396;  256,196;48985,906;25,46947
 788,73;12689,875;  250,888;48871,863;25,58358
 789,29;12688,354;  253,042;48540,282;25,75279
 789,86;12764,603;  273,811;48516,469;25,89159
 790,42;12693,697;  242,042;48302,273;25,90844
 790,99;12741,869;  260,427;48008,922;26,13997
 791,55;12736,348;  237,965;47900,725;26,22253
 792,12;12750,520;  276,657;47962,375;26,15849
 792,68;12797,307;  254,503;47577,101;26,50489
 793,25;12749,017;  257,734;47439,366;26,47488
 793,81;12804,496;  312,888;47116,861;26,68920
 794,38;12668,975;  225,350;46937,588;26,63890
 794,94;12711,685;  251,196;46873,237;26,72661
 795,51;12690,703;  260,503;46507,963;26,87758
 796,07;12642,567;  259,119;46349,459;26,86777
 796,64;12755,508;  274,426;46439,262;27,03591
 797,20;12664,987;  255,349;45954,296;27,15519
 797,77;12616,620;  219,657;45690,868;27,26332
 798,33;12579,792;  253,888;45435,595;27,28074
 798,90;12623,271;  275,965;45412,090;27,35571
 799,46;12544,827;  249,042;44974,894;27,49145
 800,03;12553,384;  261,273;44955,543;27,50266
 800,59;12565,324;  267,734;44679,269;27,69008
 801,15;12602,419;  266,119;44432,534;27,93141
 801,72;12497,514;  263,965;44141,568;27,88108
 802,28;12523,378;  291,888;43863,833;28,07194
 802,85;12458,857;  250,196;43600,405;28,16287
 803,41;12499,413;  259,042;43474,132;28,32430
 803,98;12445,738;  235,657;42993,704;28,55622
 804,54;12461,833;  247,042;42791,046;28,71096
 805,11;12403,312;  265,426;42648,464;28,63855
 805,67;12468,792;  273,734;42621,344;28,79751
 806,23;12373,886;  260,195;42224,840;28,86642
 806,80;12356,289;  267,119;42102,182;28,89722
 807,36;12437,230;  278,965;41985,985;29,15160
 807,93;12470,709;  295,426;41694,557;29,40951
 808,49;12413,111;  244,349;41342,053;29,60935
 809,05;12342,052;  235,811;41225,856;29,53459
 809,62;12470,608;  266,042;41166,275;29,83985
 810,18;12438,780;  271,272;41068,693;29,82421
 810,74;12419,567;  224,042;40746,189;30,09595
 811,31;12435,969;  238,118;40570,069;30,24364
 811,87;12399,218;  258,272;40436,872;30,21744
 812,44;12483,928;  289,811;40546,599;30,29083
 813,00;12396,638;  226,349;40155,940;30,47937
 813,56;12515,963;  260,272;40242,051;30,65319
 814,13;12545,673;  250,811;40061,777;30,88310
 814,69;12503,383;  250,426;39945,965;30,86734
 815,25;12446,478;  221,118;39573,230;31,06659
 815,82;12462,496;  264,272;39530,956;31,06507
 816,38;12523,052;  280,657;39299,606;31,37551
 816,94;12423,146;  244,811;38886,178;31,51632
 817,51;12426,780;  227,272;38760,135;31,66001
 818,07;12416,336;  245,118;38539,862;31,78300
 818,63;12400,661;  253,272;38295,049;31,93171
 819,20;12438,140;  253,349;38296,314;32,02903
 819,76;12356,312;  236,272;37903,656;32,17648
 820,32;12453,714;  281,349;37784,228;32,45715
 820,89;12370,424;  267,657;37660,032;32,36694
 821,45;12308,365;  241,580;37324,604;32,53992
 822,01;12304,152;  254,580;37095,177;32,70732
 822,57;12303,247;  250,426;36942,826;32,84828
 823,14;12326,419;  227,580;36796,168;33,08533
 823,70;12297,436;  240,964;36530,817;33,22271
 824,26;12241,839;  250,811;36390,697;33,17948
 824,82;12259,549;  260,503;36265,347;33,32620
 825,39;12241,797;  241,272;36022,457;33,53865
 825,95;12281,507;  254,426;35859,568;33,77906
 826,51;12147,525;  260,810;35522,910;33,70960
 827,08;12328,620;  296,964;35612,790;34,06874
 827,64;12257,253;  261,118;35487,747;34,05417
 828,20;12187,963;  239,580;35122,166;34,25315
 828,76;12262,288;  268,964;35188,892;34,34521
 829,32;12243,844;  276,272;34981,542;34,48344
 829,89;12267,247;  229,272;34848,191;34,77282
 830,45;12275,111;  251,503;34805,840;34,79623
 831,01;12244,975;  255,657;34690,874;34,81702
 831,57;12312,608;  257,118;34537,831;35,16697
 832,14;12353,933;  241,887;34546,942;35,30688
 832,70;12259,874;  234,503;34260,438;35,34178
 833,26;12245,661;  212,887;34083,087;35,52614
 833,82;12303,217;  241,580;34121,660;35,60097
 834,38;12315,235;  233,349;34183,001;35,58766
 834,95;12295,099;  231,041;33988,959;35,73697
 835,51;12293,347;  211,349;33844,300;35,92310
 836,07;12385,596;  246,041;33888,180;36,08437
 836,63;12446,075;  258,656;33850,522;36,28086
 837,19;12435,324;  249,503;33726,556;36,40052
 837,75;12297,572;  209,195;33442,667;36,37410
 838,32;12384,051;  258,041;33587,701;36,38204
 838,88;12540,300;  259,041;33486,197;36,96151
 839,44;12484,318;  246,887;33432,615;36,87558
 840,00;12486,566;  246,349;33356,726;36,96792
 840,56;12454,738;  225,041;33103,299;37,19691
 841,12;12466,371;  222,887;33079,640;37,26322
 841,68;12428,773;  219,733;32875,597;37,38698
 842,25;12529,252;  236,118;32940,862;37,58823
 842,81;12490,578;  217,733;32632,511;37,86188
 843,37;12532,365;  209,349;32700,392;37,92743
 843,93;12590,536;  234,579;32576,503;38,20415
 844,49;12692,093;  247,887;32638,537;38,41913
 845,05;12591,341;  210,964;32443,263;38,40985
 845,61;12708,205;  248,349;32504,758;38,62754
 846,17;12691,453;  225,964;32370,639;38,77933
 846,73;12737,010;  238,195;32263,057;39,02847
 847,29;12733,335;  223,656;32047,553;39,30907
 847,86;12715,661;  226,041;32067,202;39,22476
 848,42;12760,755;  215,733;31826,159;39,68634
 848,98;12772,696;  240,810;31801,424;39,70736
 849,54;12819,637;  222,425;31832,996;39,85126
 850,10;12848,347;  232,502;31676,723;40,12135
 850,66;12817,980;  220,733;31480,757;40,29826
 851,22;12825,382;  224,118;31414,098;40,40164
 851,78;12914,785;  261,964;31578,363;40,40318
 852,34;12830,495;  240,887;31278,320;40,56266
 852,90;12869,282;  223,964;31231,739;40,78112
 853,46;12784,223;  224,887;30953,927;40,87123
 854,02;12886,163;  240,118;31026,961;41,07614
 854,58;12827,489;  231,810;30759,610;41,25970
 855,14;12812,045;  216,964;30743,029;41,26009
 855,70;12724,755;  193,733;30599,063;41,21324
 856,26;12825,927;  237,810;30437,712;41,68264
 856,82;12775,483;  215,502;30324,054;41,71566
 857,38;12817,347;  258,656;30237,626;41,89167
 857,94;12750,134;  243,579;30083,737;41,91182
 858,50;12781,459;  244,502;30073,694;42,02915
 859,06;12715,246;  228,733;29930,113;42,04018
 859,62;12721,725;  241,271;29801,531;42,22038
 860,18;12746,589;  234,502;29588,796;42,62438
 860,74;12698,530;  205,656;29468,676;42,69168
 861,30;12683,471;  205,887;29284,633;42,90964
 861,86;12748,642;  274,041;29379,437;42,86010
 862,42;12699,737;  236,271;29162,471;43,08712
 862,98;12779,370;  256,348;29163,658;43,32130
 863,54;12662,542;  227,502;28876,616;43,40462
 864,10;12681,175;  234,194;29001,265;43,26815
 864,66;12635,347;  216,579;28799,914;43,44758
 865,22;12676,057;  233,194;28585,025;43,88733
 865,78;12682,920;  239,964;28516,752;44,00414
 866,34;12690,015;  221,656;28415,478;44,22373
 866,90;12684,341;  240,425;28320,973;44,31507
 867,45;12652,512;  235,117;28097,546;44,56681
 868,01;12561,684;  235,271;27947,888;44,47943
 868,57;12531,163;  235,502;27802,614;44,60264
 869,13;12539,027;  215,271;27682,725;44,86676
 869,69;12547,045;  222,579;27569,297;45,06744
 870,25;12533,985;  206,348;27467,793;45,22004
 870,81;12566,619;  223,579;27456,596;45,32381
 871,37;12577,867;  235,425;27348,322;45,52240
 871,93;12576,885;  249,040;27184,664;45,76781
 872,49;12495,749;  256,271;27013,160;45,74328
 873,04;12454,613;  228,271;26833,040;45,95545
 873,60;12423,630;  214,579;26649,381;46,18552
 874,16;12393,263;  239,348;26672,877;45,97916
 874,72;12399,648;  233,656;26534,338;46,25733
 875,28;12448,033;  234,579;26443,877;46,59970
 875,84;12452,956;  234,348;26347,569;46,79089
 876,40;12437,571;  231,117;26285,031;46,85075
 876,95;12486,110;  239,117;26397,723;46,81822
 877,51;12592,263;  258,425;26291,569;47,37744
 878,07;12648,187;  264,810;26318,031;47,53108
 878,63;12594,494;  233,040;26292,262;47,43601
 879,19;12663,802;  243,656;26245,262;47,76684
 879,75;12750,648;  229,117;26307,185;48,01556
 880,30;12783,802;  228,502;26332,646;48,09696
 880,86;12890,187;  272,271;26449,569;48,20175
 881,42;12981,571;  226,425;26546,800;48,46111
 881,98;13103,802;  244,194;26562,262;48,86228
 882,54;13094,956;  219,271;26599,877;48,80739
 883,09;13219,725;  242,425;26769,646;48,92069
 883,65;13342,187;  219,579;26777,877;49,41057
 884,21;13483,648;  256,194;27130,338;49,22000
 884,77;13559,725;  218,656;27104,800;49,62061
 885,32;13662,571;  229,887;27285,415;49,64858
 885,88;13802,725;  263,348;27356,031;49,97429
 886,44;13878,263;  237,348;27508,108;50,02030
 887,00;13914,033;  250,117;27509,954;50,12472
 887,56;14049,187;  226,425;27624,338;50,45188
 888,11;14118,879;  235,733;27709,415;50,53253
 888,67;14227,725;  262,502;27831,877;50,65484
 889,23;14295,725;  248,348;27862,108;50,87093
 889,79;14275,110;  219,271;27716,108;51,11802
 890,34;14265,648;  245,348;27647,262;51,16540
 890,90;14451,725;  300,656;27796,338;51,46651
 891,46;14383,802;  225,963;27674,569;51,57944
 892,01;14408,417;  253,963;27663,262;51,64107
 892,57;14381,571;  269,117;27668,338;51,50677
 893,13;14382,802;  228,887;27430,723;52,03294
 893,69;14408,110;  218,194;27336,492;52,32598
 894,24;14355,494;  234,271;27304,492;52,16516
 894,80;14373,956;  237,733;27165,954;52,49594
 895,36;14308,571;  248,579;26965,415;52,62596
 895,91;14258,494;  238,117;26828,185;52,72787
 896,47;14291,725;  246,579;26687,031;53,11992
 897,03;14232,263;  232,040;26525,569;53,24589
 897,58;14274,033;  243,194;26447,646;53,54372
 898,14;14175,187;  248,348;26272,569;53,51491
 898,70;14140,956;  209,425;26179,877;53,64377
 899,25;14169,263;  232,194;26114,954;53,84692
 899,81;14161,187;  250,425;25893,338;54,24798
 900,37;14042,725;  214,656;25744,646;54,16402
 900,92;14017,802;  242,963;25775,262;53,95064
 901,48;13992,648;  232,194;25568,185;54,31188
 902,03;13928,956;  228,425;25457,415;54,30471
 902,59;13906,648;  225,579;25299,031;54,56396
 903,15;13892,417;  256,579;25161,108;54,75245
 903,70;13772,033;  237,117;24939,800;54,79128
 904,26;13741,033;  228,117;24813,646;54,96288
 904,82;13773,956;  241,656;24794,262;55,11553
 905,37;13756,802;  243,194;24693,954;55,26866
 905,93;13672,263;  225,887;24486,569;55,42456
 906,48;13706,648;  246,963;24453,954;55,60247
 907,04;13758,340;  252,194;24380,108;55,97727
 907,60;13668,725;  234,348;24218,262;56,01412
 908,15;13578,187;  232,425;24148,569;55,80231
 908,71;13627,571;  255,733;24069,338;56,15209
 909,26;13587,956;  225,733;23896,108;56,45125
 909,82;13564,725;  254,733;23816,338;56,49017
 910,37;13549,417;  271,271;23729,954;56,60227
 910,93;13474,956;  227,810;23522,415;56,86787
 911,48;13437,340;  229,425;23429,415;56,93069
 912,04;13407,033;  229,425;23388,415;56,90061
 912,60;13498,033;  247,963;23303,954;57,46910
 913,15;13436,033;  238,887;23178,262;57,53054
 913,71;13370,187;  231,733;22948,954;57,83478
 914,26;13391,879;  209,887;22946,262;57,97755
 914,82;13412,033;  235,040;22802,338;58,38976
 915,37;13421,725;  220,348;22777,646;58,52375
 915,93;13426,263;  275,117;22773,569;58,45356
 916,48;13382,340;  227,887;22531,185;58,97986
 917,04;13358,417;  241,656;22381,415;59,24528
 917,59;13402,263;  271,117;22314,569;59,56937
 918,15;13242,110;  208,502;22112,108;59,50439
 918,70;13252,340;  226,963;22023,031;59,76022
 919,26;13340,879;  235,271;22030,262;60,13128
 919,81;13210,417;  209,810;21829,646;60,13278
 920,37;13200,725;  225,733;21741,031;60,30589
 920,92;13218,879;  246,425;21623,185;60,68485
 921,48;13128,571;  215,348;21512,108;60,63468
 922,03;13143,263;  229,040;21410,338;60,96993
 922,59;13164,725;  231,040;21317,338;61,33691
 923,14;13101,879;  222,194;21176,262;61,46627
 923,69;13092,725;  240,194;21132,877;61,51690
 924,25;13151,263;  253,194;21044,415;62,03613
 924,80;13093,494;  226,579;20868,262;62,33462
 925,36;13020,956;  211,117;20797,262;62,22554
 925,91;13006,033;  224,425;20721,262;62,35893
 926,47;12967,033;  202,040;20647,646;62,43392
 927,02;12984,725;  276,579;20512,646;62,79949
 927,57;12891,956;  228,733;20392,800;62,80094
 928,13;12961,417;  218,117;20377,415;63,21301
 928,68;12883,033;  224,194;20252,646;63,20428
 929,24;12791,571;  202,502;20031,723;63,48746
 929,79;12846,110;  217,810;19900,800;64,15844
 930,34;12771,879;  226,425;19804,877;64,07786
 930,90;12714,648;  217,271;19774,800;63,90059
 931,45;12790,417;  244,887;19713,338;64,44031
 932,01;12713,956;  231,117;19565,954;64,56139
 932,56;12727,417;  251,348;19435,800;65,03219
 933,11;12750,263;  251,579;19512,569;64,89118
 933,67;12689,187;  213,502;19313,800;65,31670
 934,22;12690,033;  234,810;19217,723;65,61281
 934,77;12650,879;  255,656;19087,492;65,82057
 935,33;12651,263;  239,425;19034,415;66,03801
 935,88;12634,340;  240,963;18921,108;66,34519
 936,43;12621,417;  230,271;18932,108;66,25631
 936,99;12566,340;  230,502;18751,185;66,60574
 937,54;12452,648;  206,887;18640,338;66,43228
 938,09;12518,417;  236,887;18619,262;66,81145
 938,65;12461,956;  236,656;18427,492;67,20582
 939,20;12420,648;  198,963;18364,569;67,27926
 939,75;12408,340;  214,733;18285,185;67,47816
 940,31;12305,879;  211,887;18130,646;67,49347
 940,86;12384,263;  226,502;18268,877;67,38449
 941,41;12366,340;  304,656;18127,185;67,67662
 941,96;12294,494;  219,040;17919,954;68,21938
 942,52;12278,340;  222,194;17816,492;68,52303
 943,07;12303,187;  211,656;17773,031;68,85298
 943,62;12211,802;  221,194;17692,492;68,63032
 944,18;12194,494;  200,502;17581,338;69,00699
 944,73;12194,263;  230,502;17509,415;69,23908
 945,28;12055,187;  201,271;17347,800;69,13303
 945,83;12069,956;  223,733;17334,569;69,23228
 946,39;12133,340;  221,579;17267,262;69,88140
 946,94;12062,879;  246,194;17123,185;70,01654
 947,49;11995,725;  214,502;17098,723;69,77653
 948,04;12042,571;  254,425;17040,723;70,22481
 948,59;12002,802;  245,348;16976,415;70,27318
 949,15;11924,571;  201,040;16849,031;70,42010
 949,70;11885,648;  215,887;16771,954;70,48631
 950,25;11850,802;  232,579;16707,415;70,52102
 950,80;11793,417;  192,887;16579,646;70,79210
 951,36;11808,263;  195,887;16531,262;71,08730
 951,91;11819,879;  237,502;16589,569;70,83127
 952,46;11754,956;  206,887;16310,492;71,71108
 953,01;11768,187;  243,040;16344,108;71,58001
 953,56;11698,263;  200,656;16269,031;71,55427
 954,11;11732,725;  235,579;16165,723;72,17227
 954,67;11690,494;  221,194;16106,800;72,19932
 955,22;11536,033;  200,348;15992,262;71,78158
 955,77;11588,494;  248,733;15869,108;72,59596
 956,32;11579,340;  271,656;15821,108;72,72079
 956,87;11497,033;  216,194;15694,492;72,88165
 957,42;11478,110;  209,579;15672,954;72,87239
 957,98;11423,263;  213,348;15545,646;73,11308
 958,53;11490,725;  251,656;15550,108;73,46540
 959,08;11420,725;  213,502;15369,954;73,94358
 959,63;11376,340;  212,271;15321,185;73,89062
 960,18;11378,879;  238,656;15256,800;74,17843
 960,73;11374,494;  227,271;15170,108;74,59911
 961,28;11303,725;  208,963;15061,338;74,70025
 961,83;11316,263;  239,117;15030,723;74,88806
 962,39;11250,263;  199,348;14948,031;74,92815
 962,94;11247,263;  235,040;14895,031;75,11753
 963,49;11162,417;  222,733;14785,877;75,11897
 964,04;11269,340;  234,117;14735,646;76,09696
 964,59;11217,494;  203,348;14598,338;76,51374
 965,14;11190,033;  239,733;14495,877;76,81109
 965,69;11176,648;  226,656;14423,108;77,13189
 966,24;11099,263;  221,579;14324,569;77,13034
 966,79;11044,263;  233,502;14256,800;77,09143
 967,34;10999,110;  203,194;14163,338;77,33384
 967,89;10956,802;  216,963;14142,108;77,12551
 968,44;11002,494;  227,040;14020,262;78,12137
 968,99;10970,802;  238,887;13980,492;78,09797
 969,55;10974,494;  234,194;13892,723;78,63438
 970,10;10897,110;  233,348;13798,185;78,61327
 970,65;10897,648;  240,040;13688,492;79,24784
 971,20;10891,802;  216,348;13657,108;79,42597
 971,75;10676,571;  202,117;13495,031;78,79728
 972,30;10706,417;  220,040;13411,723;79,49234
 972,85;10699,879;  209,271;13331,338;79,94630
 973,40;10670,879;  213,887;13211,185;80,45512
 973,95;10620,879;  231,194;13158,954;80,36725
 974,50;10581,879;  246,502;13112,185;80,33291
 975,05;10540,725;  224,040;12960,723;80,99978
 975,60;10472,110;  243,271;12940,185;80,56161
 976,15;10380,110;  216,271;12856,492;80,40871
 976,70;10352,956;  224,733;12813,569;80,45400
 977,25;10351,417;  232,963;12737,338;80,91931
 977,80;10234,340;  216,040;12609,108;80,83794
 978,35;10140,648;  244,194;12436,646;81,16869
 978,89;10141,571;  205,579;12416,723;81,36823
 979,44;10099,187;  224,656;12397,262;81,12093
 979,99; 9906,110;  215,348;12183,800;80,96921
 980,54; 9949,879;  242,271;12102,185;81,85226
 981,09; 9897,340;  246,579;12018,492;81,98125
 981,64; 9818,571;  227,963;11855,492;82,48191
 982,19; 9781,033;  257,810;11853,108;82,13004
 982,74; 9669,263;  238,502;11709,338;82,21512
 983,29; 9608,033;  219,810;11567,569;82,73195
 983,84; 9520,648;  235,810;11517,877;82,29731
 984,39; 9552,571;  297,040;11455,031;82,94980
 984,94; 9425,110;  208,117;11331,262;82,86319
 985,49; 9408,571;  251,425;11260,108;83,18113
 986,03; 9310,879;  250,963;11164,723;83,01370
 986,58; 9284,879;  272,117;11078,338;83,40345
 987,13; 9191,340;  233,194;10914,569;83,86698
 987,68; 9141,648;  238,963;10783,492;84,42942
 988,23; 9155,417;  253,579;10731,646;84,95687
 988,78; 9008,033;  222,810;10619,108;84,50338
 989,33; 8958,340;  251,502;10543,569;84,59757
 989,88; 8916,340;  264,963;10469,646;84,77850
 990,42; 8818,725;  235,425;10364,415;84,73994
 990,97; 8755,802;  228,579;10242,415;85,15441
 991,52; 8704,340;  253,656;10198,415;84,97626
 992,07; 8652,187;  272,656;10096,338;85,29928
 992,62; 8601,033;  241,271; 9974,338;85,89031
 993,17; 8575,033;  257,733; 9848,569;86,72132
 993,71; 8491,340;  250,271; 9817,954;86,13443
 994,26; 8364,033;  230,733; 9626,262;86,56564
 994,81; 8365,110;  258,810; 9635,262;86,45381
 995,36; 8222,956;  228,887; 9457,569;86,62200
 995,91; 8148,187;  237,810; 9411,492;86,22902
 996,45; 8120,802;  240,502; 9291,338;87,06709
 997,00; 8012,725;  216,271; 9174,877;87,02754
 997,55; 8024,340;  238,810; 9163,108;87,23970
 998,10; 7913,956;  257,579; 9031,031;87,26755
 998,65; 7870,187;  228,579; 8961,031;87,50816
 999,19; 7765,340;  255,425; 8856,569;87,31298
 999,74; 7710,110;  267,194; 8783,338;87,39771
1000,29; 7606,648;  249,579; 8710,338;86,95519
1000,84; 7488,340;  238,963; 8544,338;87,28537
1001,38; 7492,340;  240,502; 8451,569;88,31785
1001,93; 7446,879;  249,194; 8414,262;88,15218
1002,48; 7267,725;  218,579; 8240,185;87,87700
1003,03; 7290,033;  250,117; 8217,877;88,35502
1003,57; 7208,417;  239,425; 8132,415;88,29343
1004,12; 7152,648;  271,656; 8023,415;88,76684
1004,67; 7083,956;  232,502; 7896,338;89,39979
1005,22; 6921,571;  219,733; 7790,723;88,51997
1005,76; 6821,879;  218,963; 7644,338;88,92366
1006,31; 6833,725;  246,502; 7624,185;89,28580
1006,86; 6728,033;  233,502; 7478,646;89,63977
1007,40; 6628,956;  216,579; 7400,800;89,25640
1007,95; 6618,879;  235,502; 7289,185;90,49708
1008,50; 6498,571;  244,425; 7210,492;89,78016
1009,04; 6450,956;  231,656; 7102,031;90,52344
1009,59; 6374,263;  243,733; 6969,262;91,15314
1010,14; 6268,340;  221,810; 6848,877;91,23992
1010,68; 6160,033;  233,656; 6776,415;90,57916
1011,23; 6091,725;  229,656; 6692,031;90,71076
1011,78; 6038,110;  249,579; 6658,415;90,32109
1012,32; 5973,187;  255,887; 6525,723;91,18739
1012,87; 5928,187;  259,502; 6550,492;90,10798
1013,42; 5790,802;  222,963; 6384,338;90,36682
1013,96; 5868,956;  265,733; 6379,723;91,64593
1014,51; 5732,417;  194,194; 6280,877;90,98919
1015,06; 5772,417;  204,348; 6287,954;91,52581
1015,60; 5870,263;  271,425; 6351,492;92,08514
1016,15; 5819,187;  229,348; 6284,108;92,32139
1016,69; 5867,263;  236,348; 6322,877;92,51440
1017,24; 5858,187;  214,733; 6312,262;92,55313
1017,79; 5923,494;  264,040; 6395,800;92,29739
1018,33; 5914,033;  224,271; 6389,492;92,28804
1018,88; 6025,648;  246,963; 6421,569;93,58791
1019,42; 6002,263;  231,887; 6428,877;93,11580
1019,97; 5993,725;  223,117; 6424,492;93,05368
1020,51; 6094,340;  257,810; 6518,415;93,22629
1021,06; 6051,494;  227,040; 6444,415;93,68027
1021,61; 6033,802;  202,040; 6436,646;93,53858
1022,15; 5995,110;  193,040; 6387,723;93,66209
1022,70; 6050,879;  231,348; 6428,954;93,89966
1023,24; 6010,187;  218,040; 6360,723;94,29343
1023,79; 5981,725;  225,733; 6285,185;94,99196
1024,33; 5951,571;  238,502; 6243,723;95,13503
1024,88; 5885,956;  237,810; 6147,646;95,57195
1025,42; 5827,725;  227,810; 6068,800;95,87270
1025,97; 5787,725;  222,425; 5988,262;96,52199
1026,51; 5672,187;  185,733; 5866,185;96,58481
1027,06; 5674,956;  216,887; 5799,877;97,76247
1027,60; 5586,340;  230,887; 5729,877;97,38977
1028,15; 5478,110;  239,579; 5657,954;96,68085
1028,69; 5349,110;  197,810; 5499,492;97,16349
1029,24; 5310,187;  205,579; 5504,108;96,34009
1029,78; 5192,879;  220,810; 5407,954;95,85369
1030,33; 5127,340;  204,810; 5274,415;97,09889
1030,87; 5115,263;  217,271; 5212,646;98,05054
1031,42; 4999,033;  210,579; 5106,108;97,81280
1031,96; 4983,033;  233,117; 5087,108;97,85589
1032,51; 4850,340;  210,810; 4997,877;96,91802
1033,05; 4819,033;  221,425; 4939,492;97,44684
1033,60; 4694,187;  193,502; 4842,108;96,81795
1034,14; 4651,033;  217,194; 4740,338;98,02558
1034,69; 4610,571;  217,810; 4734,800;97,24974
1035,23; 4544,340;  223,963; 4670,338;97,16627
1035,77; 4451,648;  206,348; 4589,723;96,85003
1036,32; 4397,417;  202,348; 4498,723;97,64206
1036,86; 4374,802;  223,887; 4455,338;98,09672
1037,41; 4341,802;  235,579; 4392,646;98,77692
1037,95; 4254,725;  202,194; 4299,262;98,91297
1038,50; 4227,110;  213,425; 4267,262;99,00953
1039,04; 4218,879;  234,425; 4237,492;99,53502
1039,58; 4120,879;  195,963; 4155,415;99,12774
1040,13; 4069,725;  223,194; 4076,954;99,81242
1040,67; 4066,725;  252,271; 4112,800;98,80651
1041,21; 3984,879;  254,502; 4004,954;99,46473
1041,76; 3903,033;  203,502; 3916,723;99,63131
1042,30; 3912,956;  213,579; 3875,800;101,01457
1042,85; 3829,648;  214,579; 3803,877;100,71800
1043,39; 3771,187;  204,656; 3776,262;99,85791
1043,93; 3735,648;  242,887; 3720,185;100,44470
1044,48; 3642,725;  232,887; 3651,646;99,73905
1045,02; 3615,033;  228,810; 3589,954;100,74614
1045,56; 3602,494;  236,040; 3571,723;100,92248
1046,11; 3562,802;  223,425; 3528,877;101,02633
1046,65; 3524,571;  226,963; 3464,800;101,84602
1047,19; 3447,956;  219,656; 3415,108;101,02796
1047,74; 3430,263;  205,271; 3355,185;102,38352
1048,28; 3379,263;  237,887; 3336,031;101,39544
1048,82; 3392,263;  243,117; 3300,800;102,99127
1049,37; 3316,725;  236,579; 3249,646;102,22626
1049,91; 3298,340;  228,425; 3218,492;102,67044
1050,45; 3245,494;  236,425; 3167,569;102,65852
1050,99; 3202,879;  230,963; 3094,031;103,80180
1051,54; 3147,187;  212,656; 3051,338;103,37650
1052,08; 3109,494;  250,810; 3051,031;102,08782
1052,62; 3103,802;  245,040; 2967,262;105,01577
1053,16; 3030,263;  220,502; 2939,031;103,35596
1053,71; 3005,263;  231,348; 2928,800;102,83466
1054,25; 2974,648;  250,348; 2871,723;103,92637
1054,79; 2939,648;  236,194; 2834,723;104,03786
1055,33; 2862,725;  205,425; 2745,338;104,62167
1055,88; 2896,033;  227,733; 2742,031;106,12505
1056,42; 2877,033;  248,271; 2701,108;107,17231
1056,96; 2809,033;  240,579; 2691,954;104,77605
1057,50; 2764,340;  231,117; 2631,646;105,52771
1058,05; 2735,417;  230,194; 2593,492;106,00538
1058,59; 2729,802;  261,040; 2549,723;107,86823
1059,13; 2610,802;  220,963; 2494,877;105,09804
1059,67; 2630,494;  243,040; 2494,877;106,02252
1060,21; 2586,340;  227,502; 2447,338;106,26181
1060,76; 2581,340;  240,963; 2425,646;107,12663
1061,30; 2519,340;  260,040; 2402,108;105,47288
1061,84; 2495,802;  229,425; 2340,569;107,35301
1062,38; 2395,187;  224,963; 2288,569;105,16655
1062,92; 2442,879;  266,348; 2291,569;107,47126
1063,46; 2372,802;  242,502; 2226,338;107,38284
1064,01; 2316,725;  221,579; 2198,954;105,95593
1064,55; 2319,494;  237,271; 2185,185;106,89505
1065,09; 2261,956;  209,502; 2115,800;107,66699
1065,63; 2278,033;  256,656; 2158,185;106,30272
1066,17; 2261,879;  264,810; 2132,108;106,94968
1066,71; 2221,802;  244,733; 2082,262;107,59392
1067,25; 2179,417;  235,733; 2033,262;108,13093
1067,80; 2173,802;  249,810; 2043,492;107,26492
1068,34; 2169,956;  265,271; 2001,723;109,68830
1068,88; 2106,879;  232,502; 1952,262;108,99063
1069,42; 2142,417;  263,810; 1965,877;110,37212
1069,96; 2068,802;  228,194; 1935,415;107,81308
1070,50; 2078,725;  274,117; 1929,108;109,04037
1071,04; 2009,340;  226,117; 1859,031;109,20500
1071,58; 1997,340;  233,271; 1835,646;110,09091
1072,12; 1979,725;  241,040; 1829,108;109,48432
1072,66; 1971,571;  227,656; 1794,877;111,27436
1073,21; 1967,571;  263,579; 1804,108;110,61087
1073,75; 1928,956;  238,656; 1770,108;110,37238
1074,29; 1907,648;  239,040; 1763,492;109,45624
1074,83; 1896,110;  255,656; 1743,415;110,26337
1075,37; 1879,263;  259,656; 1720,185;110,89187
1075,91; 1845,648;  253,040; 1706,492;109,57416
1076,45; 1837,956;  243,194; 1687,877;110,38836
1076,99; 1815,725;  248,502; 1652,185;111,65081
1077,53; 1774,033;  221,502; 1613,492;111,53315
1078,07; 1761,571;  246,887; 1641,646;108,59826
1078,61; 1739,033;  244,887; 1574,723;112,35562
1079,15; 1727,802;  236,271; 1582,569;110,78756
1079,69; 1704,340;  237,271; 1560,108;110,90329
1080,23; 1710,879;  266,810; 1560,646;111,61141
1080,77; 1690,648;  285,502; 1570,800;109,32454
1081,31; 1637,033;  228,579; 1496,492;111,08438
1081,85; 1650,648;  243,810; 1501,954;111,81854
1082,39; 1625,802;  232,194; 1446,031;114,81016
1082,93; 1605,033;  250,887; 1446,800;113,23112
1083,47; 1556,648;  234,117; 1421,415;111,38995
1084,01; 1578,340;  253,810; 1440,415;111,62349
1084,55; 1547,725;  233,963; 1397,185;112,94168
1085,09; 1542,956;  255,040; 1391,646;113,31241
1085,63; 1510,725;  245,579; 1357,108;113,82036
1086,17; 1503,879;  233,502; 1338,415;114,97524
1086,71; 1468,956;  231,425; 1309,723;114,76704
1087,24; 1489,494;  266,502; 1353,877;112,47199
1087,78; 1471,033;  255,963; 1318,492;114,35635
1088,32; 1442,879;  226,271; 1264,415;117,19062
1088,86; 1436,725;  255,733; 1294,415;113,70097
1089,40; 1416,033;  243,348; 1259,723;115,37913
1089,94; 1376,648;  225,348; 1232,954;114,26096
1090,48; 1391,725;  257,733; 1234,185;116,13396
1091,02; 1362,802;  253,963; 1229,800;113,62953
1091,56; 1328,110;  252,656; 1207,338;112,65040
1092,10; 1303,187;  228,348; 1182,646;112,63131
1092,63; 1323,110;  257,963; 1209,723;111,91336
1093,17; 1311,417;  256,502; 1174,185;114,95426
1093,71; 1257,725;  238,194; 1144,338;112,51308
1094,25; 1274,956;  257,425; 1153,492;113,55517
1094,79; 1238,725;  248,425; 1127,800;112,61407
1095,33; 1236,417;  256,271; 1120,031;113,47441
1095,87; 1221,417;  251,425; 1102,492;113,97363
1096,40; 1191,417;  223,963; 1088,492;111,90533
1096,94; 1189,187;  242,117; 1075,877;113,59020
1097,48; 1182,956;  252,040; 1080,031;112,43070
1098,02; 1170,879;  245,040; 1037,646;116,80945
1098,56; 1135,802;  212,348; 1026,800;113,38347
1099,10; 1117,340;  227,348; 1004,877;114,46422
1099,63; 1117,571;  233,040;  997,723;115,67292
1100,17; 1128,648;  248,963; 1012,646;115,18981
1100,71; 1113,802;  262,733; 1020,338;112,33669

