
Integration time [ms]: 120,000
Averaging Nr. [scans]: 13
Smoothing Nr. [pixels]: 0
Data measured with spectrometer [name]: 2009305U1
Wave   ;Sample   ;Dark     ;Reference;Reflectance
[nm]   ;[counts] ;[counts] ;[counts] ;[%]

 175,72;  214,246;  202,886;  214,253;99,94359
 176,32;  234,549;  236,502;  224,563; 0,00000
 176,92;  263,013;  261,810;  259,279; 0,00000
 177,52;  260,421;  256,040;  268,411;35,41344
 178,12;  240,163;  228,579;  233,833;220,50936
 178,72;  262,530;  258,810;  256,007; 0,00000
 179,32;  248,151;  260,733;  253,210; 0,00000
 179,92;  254,997;  251,194;  250,799; 0,00000
 180,52;  245,492;  248,194;  249,355;-232,67630
 181,12;  256,582;  252,963;  254,248;281,71003
 181,73;  276,466;  279,733;  279,385; 0,00000
 182,33;  355,879;  348,886;  358,111;75,80376
 182,93;  278,135;  273,348;  275,613;211,31807
 183,53;  237,704;  241,425;  236,281; 0,00000
 184,13;  242,797;  249,502;  235,332; 0,00000
 184,73;  280,205;  275,272;  271,335; 0,00000
 185,33;  272,438;  236,428;  336,101;36,12795
 185,93;  282,584;  234,583;  359,342;38,47497
 186,53;  297,646;  252,198;  384,040;34,47192
 187,13;  319,492;  282,736;  409,296;29,04200
 187,73;  281,216;  254,890;  367,277;23,42451
 188,33;  281,175;  248,737;  369,705;26,81584
 188,93;  284,153;  255,430;  366,881;25,77224
 189,53;  292,337;  251,969;  374,863;32,84771
 190,13;  325,697;  287,585;  411,451;30,76866
 190,73;  265,775;  233,430;  364,758;24,62920
 191,34;  302,146;  259,584;  390,135;32,60214
 191,94;  278,933;  241,583;  374,569;28,08531
 192,54;  294,610;  259,889;  412,605;22,73541
 193,14;  304,047;  261,198;  394,187;32,22009
 193,74;  295,660;  260,890;  382,181;28,66680
 194,34;  295,586;  260,505;  382,000;28,87400
 194,94;  262,145;  222,505;  351,466;30,73795
 195,54;  248,730;  209,121;  329,710;32,84686
 196,14;  265,635;  234,043;  365,416;24,04765
 196,74;  254,884;  222,736;  356,742;23,98968
 197,34;  238,443;  205,659;  339,451;24,50388
 197,94;  277,344;  232,351;  378,492;30,78714
 198,54;  283,698;  243,428;  386,908;28,06679
 199,14;  265,405;  223,966;  379,479;26,64663
 199,74;  250,691;  205,351;  372,661;27,09967
 200,34;  254,002;  202,428;  400,858;25,99129
 200,94;  282,818;  238,736;  424,673;23,70819
 201,54;  271,046;  213,428;  425,103;27,22025
 202,14;  297,358;  244,043;  464,005;24,23846
 202,74;  279,077;  219,351;  461,776;24,63712
 203,34;  253,724;  193,735;  478,391;21,07414
 203,94;  232,097;  181,966;  496,607;15,93274
 204,54;  316,426;  242,813;  571,497;22,39624
 205,14;  290,007;  206,274;  583,049;22,22355
 205,74;  331,382;  248,274;  675,642;19,44660
 206,34;  304,981;  206,197;  683,700;20,68771
 206,94;  315,384;  217,274;  760,936;18,04618
 207,54;  300,598;  184,428;  772,738;19,74647
 208,14;  332,741;  217,735;  847,890;18,25048
 208,74;  342,239;  207,735;  933,625;18,52945
 209,34;  343,984;  205,043; 1021,039;17,02712
 209,94;  368,551;  228,043; 1123,399;15,69300
 210,54;  378,199;  209,735; 1225,007;16,59295
 211,14;  399,364;  215,351; 1308,727;16,82977
 211,73;  413,426;  223,120; 1428,637;15,78626
 212,33;  441,070;  230,889; 1519,106;16,31564
 212,93;  438,897;  212,505; 1626,646;16,00919
 213,53;  434,294;  188,966; 1698,269;16,25440
 214,13;  454,735;  201,043; 1758,559;16,28828
 214,73;  441,974;  185,428; 1791,774;15,97078
 215,33;  449,782;  188,658; 1829,553;15,91349
 215,93;  490,167;  204,120; 1943,802;16,44248
 216,53;  469,926;  174,428; 2018,775;16,02186
 217,13;  558,779;  215,427; 2222,682;17,10552
 217,73;  584,354;  204,351; 2416,551;17,17765
 218,33;  595,942;  151,427; 2607,742;18,09680
 218,93;  694,165;  195,196; 2888,264;18,52791
 219,53;  755,766;  206,120; 3172,770;18,52752
 220,13;  784,096;  173,427; 3452,633;18,62246
 220,73;  899,970;  194,274; 3805,609;19,54114
 221,32;  986,393;  200,428; 4215,010;19,57775
 221,92; 1077,839;  196,581; 4630,656;19,87467
 222,52; 1159,815;  174,274; 5017,128;20,35041
 223,12; 1274,289;  190,889; 5440,521;20,63763
 223,72; 1383,575;  204,581; 5856,549;20,85988
 224,32; 1484,846;  198,427; 6211,109;21,39508
 224,92; 1583,510;  192,120; 6488,018;22,09995
 225,52; 1660,901;  215,428; 6819,349;21,88811
 226,12; 1765,248;  202,658; 7124,839;22,57366
 226,72; 1818,117;  171,351; 7400,541;22,77940
 227,31; 1917,782;  160,274; 7750,450;23,15503
 227,91; 2056,456;  201,812; 8154,932;23,31970
 228,51; 2172,018;  182,120; 8521,044;23,86277
 229,11; 2240,580;  187,043; 8878,963;23,62581
 229,71; 2341,814;  175,120; 9158,296;24,11947
 230,31; 2466,071;  181,658; 9533,880;24,42641
 230,91; 2576,502;  174,813; 9847,932;24,82849
 231,51; 2702,327;  168,043;10155,152;25,37555
 232,10; 2791,816;  170,043;10488,064;25,40965
 232,70; 2890,355;  196,351;10637,077;25,80284
 233,30; 2994,616;  203,504;10982,179;25,89475
 233,90; 3039,665;  175,351;11123,242;26,16316
 234,50; 3095,544;  184,581;11182,491;26,46832
 235,10; 3179,126;  182,043;11331,633;26,88065
 235,70; 3246,310;  199,812;11398,781;27,20338
 236,29; 3247,114;  200,582;11347,754;27,33009
 236,89; 3245,864;  176,274;11296,000;27,60490
 237,49; 3253,311;  192,889;11256,101;27,66305
 238,09; 3217,366;  180,581;11083,700;27,85244
 238,69; 3181,922;  216,967;10925,828;27,68693
 239,29; 3062,858;  182,197;10627,175;27,57939
 239,89; 3013,507;  199,197;10325,321;27,79256
 240,48; 2896,107;  175,889;10003,455;27,67947
 241,08; 2794,279;  182,351; 9657,845;27,56509
 241,68; 2690,491;  216,735; 9405,264;26,92222
 242,28; 2563,002;  164,889; 9092,140;26,86284
 242,88; 2500,406;  217,120; 8844,048;26,46697
 243,48; 2398,640;  210,428; 8539,688;26,27139
 244,07; 2283,967;  198,197; 8305,456;25,72719
 244,67; 2205,698;  212,428; 8180,638;25,01529
 245,27; 2096,118;  207,582; 8020,637;24,17155
 245,87; 2037,514;  202,735; 7940,984;23,71051
 246,47; 2013,762;  195,120; 7905,266;23,58764
 247,06; 1938,383;  188,658; 7917,206;22,63976
 247,66; 1918,252;  182,658; 8001,876;22,19652
 248,26; 1897,486;  213,889; 8155,823;21,19883
 248,86; 1883,795;  196,274; 8323,092;20,76485
 249,46; 1826,041;  170,581; 8488,355;19,90267
 250,05; 1888,766;  208,505; 8889,937;19,35465
 250,65; 1864,841;  166,582; 9173,342;18,85539
 251,25; 1935,182;  189,658; 9635,681;18,47893
 251,85; 1959,619;  187,120;10180,646;17,73647
 252,44; 2022,827;  158,197;10737,534;17,62520
 253,04; 2135,816;  200,120;11459,686;17,19157
 253,64; 2194,166;  153,043;12098,464;17,08707
 254,24; 2345,172;  200,581;12955,909;16,81329
 254,84; 2426,656;  183,504;13809,432;16,46238
 255,43; 2590,720;  180,043;14792,636;16,49726
 256,03; 2748,178;  188,120;15635,471;16,57280
 256,63; 2897,375;  193,505;16648,755;16,43165
 257,23; 2995,807;  179,736;17466,164;16,29065
 257,82; 3178,001;  190,659;18317,750;16,47999
 258,42; 3255,756;  171,428;19093,814;16,29989
 259,02; 3480,901;  210,505;20034,920;16,49681
 259,62; 3612,571;  169,274;20667,680;16,79788
 260,21; 3713,763;  180,889;21124,964;16,86813
 260,81; 3847,137;  197,581;21563,090;17,08153
 261,41; 3968,906;  167,505;21953,623;17,44873
 262,01; 4137,388;  208,813;22371,429;17,72613
 262,60; 4207,268;  165,582;22700,703;17,93506
 263,20; 4372,588;  182,274;22984,717;18,37660
 263,80; 4512,934;  213,044;23145,817;18,74998
 264,40; 4547,742;  172,736;23239,186;18,96697
 264,99; 4682,229;  199,659;23434,194;19,29270
 265,59; 4788,240;  188,813;23637,145;19,61516
 266,19; 4890,143;  168,428;23854,922;19,93421
 266,78; 5034,538;  223,736;23827,111;20,38184
 267,38; 5099,579;  186,352;23809,664;20,79822
 267,98; 5183,110;  176,275;23888,705;21,11481
 268,58; 5232,628;  192,352;23919,496;21,24266
 269,17; 5322,069;  175,352;23946,242;21,65134
 269,77; 5374,673;  192,120;23651,977;22,09115
 270,37; 5438,237;  163,967;23594,736;22,51002
 270,96; 5486,449;  229,890;23477,474;22,61121
 271,56; 5505,193;  192,966;23174,664;23,11503
 272,16; 5514,907;  177,044;23038,738;23,34850
 272,75; 5585,724;  193,813;22949,456;23,69483
 273,35; 5640,629;  182,351;22947,835;23,97611
 273,95; 5675,010;  186,120;22897,791;24,16771
 274,54; 5762,081;  168,966;22845,018;24,66530
 275,14; 5934,418;  209,736;23211,307;24,88822
 275,74; 5999,180;  167,967;23262,106;25,24975
 276,33; 6218,246;  212,120;23670,379;25,60346
 276,93; 6380,189;  195,274;24000,998;25,98079
 277,53; 6581,093;  188,966;24480,551;26,31416
 278,12; 6762,889;  170,120;24882,707;26,67778
 278,72; 7038,143;  220,659;25607,498;26,85440
 279,32; 7257,117;  185,966;26004,984;27,38737
 279,91; 7529,009;  164,812;26785,849;27,66307
 280,51; 7719,036;  183,043;27319,255;27,77098
 281,11; 8034,058;  190,120;27968,527;28,23754
 281,70; 8201,298;  170,736;28412,107;28,43546
 282,30; 8530,578;  178,505;28968,664;29,01017
 282,90; 8777,613;  191,813;29335,835;29,45990
 283,49; 9061,454;  204,813;29850,094;29,87538
 284,09; 9281,544;  220,197;30314,267;30,11007
 284,69; 9593,789;  211,120;30676,434;30,79787
 285,28; 9850,950;  199,966;31044,701;31,28892
 285,88;10091,404;  241,428;31267,217;31,74770
 286,47;10244,942;  192,428;31271,345;32,34512
 287,07;10483,215;  222,120;31492,417;32,81419
 287,67;10718,102;  205,428;31487,842;33,60570
 288,26;10886,594;  177,659;31433,606;34,26207
 288,86;11193,047;  186,889;31461,481;35,19201
 289,46;11417,428;  197,428;31623,521;35,70281
 290,05;11775,050;  187,966;31607,345;36,87878
 290,65;12127,336;  194,659;31866,156;37,67639
 291,24;12430,640;  196,274;31915,746;38,57052
 291,84;12775,144;  207,659;32091,063;39,41701
 292,44;13114,323;  196,966;32171,186;40,39929
 293,03;13488,396;  263,735;32350,547;41,21525
 293,63;13736,662;  186,351;32543,282;41,87761
 294,22;14039,226;  213,197;32649,881;42,62467
 294,82;14269,070;  189,121;32769,966;43,21542
 295,41;14369,913;  181,889;32461,722;43,95321
 296,01;14427,259;  219,505;32380,643;44,17678
 296,61;14485,879;  201,735;32124,057;44,74657
 297,20;14457,132;  194,736;31846,388;45,06051
 297,80;14475,298;  202,658;31633,357;45,40987
 298,39;14308,004;  184,659;31252,493;45,45970
 298,99;14393,938;  212,274;31083,950;45,93746
 299,58;14349,028;  203,120;30912,072;46,06444
 300,18;14262,406;  222,428;30839,754;45,85632
 300,78;14149,671;  190,735;30427,035;46,16615
 301,37;14113,911;  210,121;30360,455;46,11488
 301,97;14168,938;  204,428;30473,968;46,13387
 302,56;14087,867;  192,890;30297,075;46,15630
 303,16;13990,437;  179,197;30194,819;46,01351
 303,75;14018,962;  186,812;30292,221;45,94573
 304,35;14070,450;  189,581;30519,139;45,76680
 304,94;14107,420;  189,351;30455,364;45,98580
 305,54;13998,623;  205,966;30414,317;45,65842
 306,13;13916,652;  160,504;30389,472;45,50651
 306,73;13741,666;  174,504;30209,665;45,17093
 307,33;13731,963;  198,043;30187,156;45,12944
 307,92;13689,423;  198,582;30198,638;44,96939
 308,52;13871,466;  174,274;30562,024;45,07472
 309,11;13982,142;  188,582;30980,083;44,79665
 309,71;14045,786;  169,505;31409,706;44,41803
 310,30;14104,222;  176,505;31509,075;44,45124
 310,90;14251,529;  213,889;31888,998;44,31758
 311,49;14172,146;  194,582;32070,343;43,85013
 312,09;14179,895;  162,120;32165,614;43,80076
 312,68;14304,140;  242,274;32598,653;43,45933
 313,28;14231,423;  162,505;32749,253;43,17374
 313,87;14223,880;  153,659;32846,403;43,03775
 314,47;14136,069;  186,967;33115,126;42,36223
 315,06;14169,262;  170,428;33197,019;42,38655
 315,66;14127,818;  169,351;33394,153;42,01219
 316,25;13957,205;  160,736;33337,011;41,58535
 316,85;13851,272;  160,351;33403,688;41,18395
 317,44;13780,050;  175,274;33484,692;40,84363
 318,04;13704,025;  157,351;33544,541;40,57447
 318,63;13632,142;  168,197;33588,018;40,28730
 319,22;13516,113;  182,120;33732,082;39,74369
 319,82;13394,790;  178,659;33856,351;39,24298
 320,41;13198,007;  204,043;33677,799;38,81836
 321,01;13078,149;  199,274;33829,393;38,29566
 321,60;12928,272;  185,274;33806,977;37,90111
 322,20;12780,059;  172,812;33782,649;37,51059
 322,79;12707,583;  210,735;33976,603;37,01030
 323,39;12517,228;  172,966;34015,257;36,47585
 323,98;12366,931;  168,043;33951,241;36,10934
 324,58;12210,942;  172,736;33805,455;35,79314
 325,17;12013,931;  185,582;33734,222;35,25731
 325,76;11843,335;  205,582;33616,207;34,83249
 326,36;11550,645;  173,120;33254,411;34,39263
 326,95;11368,781;  199,505;32984,694;34,06805
 327,55;11068,707;  174,043;32616,539;33,58146
 328,14;10782,709;  180,812;32335,871;32,97116
 328,74;10613,580;  205,351;31792,817;32,95050
 329,33;10345,408;  198,043;31487,061;32,43108
 329,92; 9988,239;  164,505;31012,632;31,84548
 330,52; 9754,540;  194,043;30355,557;31,69767
 331,11; 9509,439;  183,966;30015,561;31,26039
 331,71; 9171,855;  189,505;29379,388;30,77214
 332,30; 9004,574;  202,197;28964,056;30,60434
 332,89; 8732,794;  227,428;28481,791;30,10284
 333,49; 8497,949;  199,351;27864,817;29,99623
 334,08; 8209,616;  191,889;27511,186;29,34822
 334,68; 8001,119;  193,505;27072,400;29,04738
 335,27; 7790,642;  201,812;26754,803;28,57994
 335,86; 7670,055;  239,889;26513,330;28,28014
 336,46; 7459,046;  194,428;26268,199;27,86179
 337,05; 7329,027;  183,813;26067,162;27,60545
 337,65; 7218,749;  173,813;26075,676;27,19857
 338,24; 7149,890;  232,120;25997,027;26,84958
 338,83; 7010,511;  211,505;25833,685;26,53563
 339,43; 6894,763;  175,120;25884,022;26,13742
 340,02; 6813,696;  195,890;25775,602;25,87131
 340,61; 6750,709;  176,274;25788,589;25,66904
 341,21; 6684,427;  209,813;25862,432;25,23958
 341,80; 6563,896;  185,351;25820,403;24,88212
 342,40; 6574,008;  189,966;25815,138;24,91317
 342,99; 6500,487;  184,889;25916,022;24,54458
 343,58; 6475,870;  188,351;26076,522;24,28723
 344,18; 6424,204;  197,889;26284,422;23,86793
 344,77; 6429,962;  182,197;26547,850;23,69660
 345,36; 6384,320;  170,120;26860,156;23,28284
 345,96; 6457,744;  209,889;27115,306;23,22155
 346,55; 6422,710;  181,504;27346,653;22,97505
 347,14; 6417,203;  178,581;27617,274;22,73658
 347,74; 6441,497;  157,581;28018,754;22,55439
 348,33; 6554,053;  186,120;28696,644;22,33538
 348,92; 6599,173;  196,889;29244,677;22,04052
 349,52; 6653,130;  157,350;29666,997;22,01239
 350,11; 6628,551;  185,043;29898,258;21,68566
 350,70; 6600,514;  182,812;30043,991;21,49179
 351,29; 6505,049;  177,659;29821,173;21,34494
 351,89; 6491,590;  188,736;29913,883;21,20378
 352,48; 6440,472;  162,197;29795,470;21,18657
 353,07; 6383,571;  191,889;29824,384;20,89491
 353,67; 6358,214;  198,581;29731,006;20,85719
 354,26; 6235,832;  184,043;29434,935;20,68925
 354,85; 6201,698;  188,812;29332,440;20,63191
 355,45; 6146,227;  171,813;29224,412;20,56413
 356,04; 6060,443;  179,812;29136,514;20,30836
 356,63; 6043,724;  216,043;28939,013;20,28927
 357,22; 5973,426;  186,505;28850,138;20,18907
 357,82; 5906,679;  186,198;28602,308;20,13112
 358,41; 5911,840;  209,736;28457,074;20,18634
 359,00; 5846,623;  176,274;28327,452;20,14249
 359,60; 5791,414;  189,274;28233,366;19,97619
 360,19; 5774,987;  179,966;28068,903;20,06179
 360,78; 5768,490;  199,351;27988,969;20,04036
 361,37; 5715,776;  181,659;27727,305;20,09072
 361,97; 5679,751;  187,351;27642,220;20,00519
 362,56; 5593,482;  181,582;27310,954;19,94849
 363,15; 5637,442;  232,889;27156,483;20,07367
 363,74; 5499,600;  186,351;26775,123;19,98305
 364,34; 5487,323;  210,120;26303,456;20,22433
 364,93; 5426,428;  181,813;25956,887;20,34762
 365,52; 5348,055;  153,505;25583,023;20,42725
 366,11; 5310,714;  178,043;25307,498;20,42492
 366,71; 5241,420;  183,813;24973,774;20,40184
 367,30; 5242,369;  191,813;24528,603;20,75276
 367,89; 5233,706;  222,428;24395,366;20,73094
 368,48; 5137,557;  199,351;24142,025;20,62512
 369,07; 5117,976;  192,043;23618,453;21,02726
 369,67; 5076,652;  207,659;23342,537;21,04612
 370,26; 5046,933;  178,659;23107,740;21,23188
 370,85; 5022,887;  187,428;22796,515;21,38724
 371,44; 5038,744;  190,889;22626,101;21,60824
 372,03; 4981,414;  172,659;22354,886;21,67842
 372,63; 4967,697;  161,197;22096,153;21,91251
 373,22; 4945,515;  177,582;21745,260;22,10685
 373,81; 4900,643;  162,582;21484,393;22,22166
 374,40; 4921,877;  169,735;21237,763;22,55618
 374,99; 4888,681;  174,428;21021,717;22,61327
 375,59; 4877,697;  169,120;20697,787;22,93659
 376,18; 4913,652;  191,966;20598,819;23,13774
 376,77; 4924,603;  198,659;20408,493;23,38438
 377,36; 4946,615;  208,505;20319,456;23,55985
 377,95; 4921,916;  203,505;20092,600;23,72361
 378,55; 4955,533;  170,197;19882,163;24,27630
 379,14; 4982,986;  189,120;19870,180;24,35776
 379,73; 4998,950;  191,351;19660,041;24,69400
 380,32; 5062,534;  199,505;19781,111;24,83468
 380,91; 5086,632;  173,582;19652,911;25,22187
 381,50; 5116,922;  194,428;19493,751;25,50604
 382,10; 5169,764;  164,659;19444,188;25,96073
 382,69; 5176,406;  160,120;19410,351;26,05831
 383,28; 5248,017;  203,120;19366,878;26,32520
 383,87; 5241,066;  175,505;19281,403;26,51308
 384,46; 5299,957;  165,813;19211,102;26,95756
 385,05; 5361,831;  207,659;19192,321;27,14914
 385,64; 5428,637;  189,274;19153,267;27,62795
 386,24; 5445,923;  165,274;19094,815;27,89634
 386,83; 5528,122;  201,428;19194,181;28,04593
 387,42; 5612,210;  198,043;19286,631;28,36337
 388,01; 5738,081;  188,352;19384,455;28,91071
 388,60; 5887,451;  181,428;19675,890;29,26997
 389,19; 5972,373;  163,890;19851,507;29,50323
 389,78; 6098,256;  172,506;20053,837;29,80560
 390,37; 6324,666;  235,198;20545,717;29,98184
 390,96; 6455,211;  185,813;20697,881;30,56444
 391,56; 6534,359;  181,814;20839,801;30,75104
 392,15; 6658,721;  172,429;21159,881;30,90557
 392,74; 6773,021;  151,968;21210,378;31,44137
 393,33; 6974,683;  182,352;21574,769;31,75112
 393,92; 7164,748;  195,045;21936,229;32,05761
 394,51; 7297,509;  165,198;22105,604;32,50765
 395,10; 7459,171;  206,353;22334,791;32,77601
 395,69; 7529,963;  197,122;22467,115;32,92700
 396,28; 7624,620;  191,276;22616,925;33,14661
 396,87; 7715,865;  200,354;22620,824;33,52076
 397,46; 7865,077;  196,277;22812,755;33,90802
 398,06; 8000,651;  207,585;23021,439;34,15936
 398,65; 8050,188;  186,971;23034,531;34,41600
 399,24; 8247,585;  204,048;23153,410;35,04907
 399,83; 8241,716;  181,434;23194,845;35,02428
 400,42; 8376,759;  216,897;23340,592;35,28788
 401,01; 8469,445;  192,744;23410,225;35,64857
 401,60; 8596,965;  206,900;23408,472;36,16162
 402,19; 8620,897;  219,055;23452,836;36,16218
 402,78; 8730,890;  218,596;23456,829;36,63056
 403,37; 8724,070;  204,675;23295,193;36,89564
 403,96; 8728,103;  206,986;23138,574;37,15886
 404,55; 8838,250;  217,604;23104,145;37,66688
 405,14; 8818,587;  202,607;22971,214;37,84149
 405,73; 8844,691;  213,840;22778,482;38,24945
 406,32; 8951,315;  212,996;22757,039;38,76110
 406,91; 8872,697;  217,076;22488,069;38,86500
 407,50; 8857,789;  215,077;22286,033;39,15876
 408,09; 8807,952;  191,539;22091,556;39,34432
 408,68; 8866,431;  207,925;21913,293;39,89108
 409,27; 8870,533;  193,770;21733,089;40,28337
 409,86; 8871,191;  206,306;21625,582;40,45368
 410,45; 8966,779;  233,151;21523,443;41,02165
 411,04; 8985,750;  223,996;21489,152;41,20240
 411,63; 8886,677;  218,147;21239,526;41,23673
 412,22; 8872,269;  215,145;21033,757;41,58358
 412,81; 8824,702;  229,222;20785,249;41,81489
 413,40; 8770,470;  237,144;20533,190;42,04428
 413,99; 8683,979;  278,067;20126,196;42,35115
 414,58; 8576,197;  196,990;19770,317;42,80931
 415,17; 8546,142;  210,914;19589,046;43,01358
 415,76; 8505,407;  206,145;19412,475;43,21107
 416,35; 8488,861;  202,068;19219,997;43,57358
 416,94; 8540,786;  237,761;19264,907;43,63779
 417,53; 8753,214;  201,606;19490,625;44,33408
 418,12; 8824,971;  208,221;19585,976;44,46722
 418,71; 9027,740;  233,759;19823,904;44,88982
 419,30; 9106,588;  216,452;20003,289;44,92954
 419,89; 9275,178;  209,529;20200,787;45,34807
 420,48; 9413,194;  235,221;20350,440;45,62701
 421,07; 9483,204;  227,913;20547,339;45,54898
 421,66; 9585,147;  197,605;20523,452;46,18524
 422,25; 9554,294;  208,681;20441,884;46,18949
 422,84; 9639,848;  244,296;20467,133;46,46011
 423,43; 9560,950;  217,835;20204,469;46,74681
 424,02; 9487,267;  236,219;19962,138;46,89793
 424,60; 9303,137;  217,065;19606,941;46,85988
 425,19; 9295,438;  218,296;19336,560;47,47890
 425,78; 9316,056;  232,604;19274,681;47,70201
 426,37; 9275,494;  238,373;19108,498;47,89115
 426,96; 9269,010;  203,834;19034,526;48,14043
 427,55; 9247,056;  219,757;18843,583;48,47178
 428,14; 9188,228;  210,372;18597,684;48,82637
 428,73; 9150,861;  212,680;18535,934;48,78054
 429,32; 9201,861;  232,603;18493,947;49,11609
 429,91; 9209,978;  242,834;18528,494;49,03922
 430,50; 9215,532;  228,372;18356,212;49,57657
 431,08; 9153,674;  234,295;18080,146;49,98013
 431,67; 9204,537;  279,987;18101,671;50,07692
 432,26; 9108,429;  287,602;17955,940;49,92448
 432,85; 8982,693;  294,064;17598,413;50,21067
 433,44; 8832,065;  316,986;17209,777;50,40659
 434,03; 8743,023;  324,832;16901,479;50,78344
 434,62; 8505,966;  279,909;16528,690;50,62568
 435,21; 8467,256;  308,371;16289,582;51,05298
 435,79; 8380,869;  283,140;16073,929;51,28134
 436,38; 8369,576;  282,370;16032,005;51,34853
 436,97; 8317,242;  277,678;15945,304;51,31323
 437,56; 8237,701;  273,831;15686,080;51,67235
 438,15; 8229,980;  261,677;15673,361;51,70300
 438,74; 8259,765;  277,600;15653,412;51,91378
 439,33; 8277,800;  258,216;15678,154;52,00789
 439,91; 8306,330;  232,754;15758,901;51,99987
 440,50; 8383,579;  284,215;15791,105;52,23074
 441,09; 8456,886;  264,753;15927,054;52,30479
 441,68; 8476,933;  251,599;15847,027;52,74195
 442,27; 8516,281;  250,215;15855,998;52,96797
 442,86; 8507,203;  213,829;15895,016;52,88741
 443,44; 8537,125;  230,137;15949,850;52,84440
 444,03; 8648,187;  293,060;16007,625;53,16805
 444,62; 8548,251;  228,522;15839,041;53,29566
 445,21; 8508,958;  247,060;15662,234;53,59588
 445,80; 8438,097;  275,752;15579,797;53,33456
 446,39; 8373,138;  300,829;15382,504;53,52396
 446,97; 8219,763;  227,828;15161,275;53,51701
 447,56; 8170,691;  226,905;14913,420;54,08898
 448,15; 8097,078;  234,290;14828,971;53,87434
 448,74; 7994,634;  249,213;14518,444;54,28057
 449,33; 7923,955;  250,597;14418,740;54,15924
 449,91; 7798,116;  229,597;14204,505;54,15792
 450,50; 7714,137;  232,059;14000,971;54,34038
 451,09; 7682,888;  238,828;13895,427;54,50889
 451,68; 7660,014;  267,443;13811,310;54,58242
 452,26; 7633,097;  260,520;13742,481;54,68475
 452,85; 7569,575;  236,289;13641,557;54,70450
 453,44; 7627,018;  248,750;13616,667;55,19385
 454,03; 7595,150;  230,827;13558,093;55,25756
 454,61; 7582,057;  221,442;13543,266;55,25230
 455,20; 7716,475;  262,596;13727,143;55,35930
 455,79; 7725,845;  265,827;13714,342;55,47094
 456,38; 7723,149;  262,519;13841,772;54,94139
 456,97; 7814,101;  243,288;13823,702;55,74803
 457,55; 7803,424;  241,134;13864,112;55,51128
 458,14; 7866,449;  265,673;13856,102;55,92742
 458,73; 7780,770;  258,057;13794,557;55,57354
 459,31; 7832,301;  272,133;13801,002;55,88174
 459,90; 7915,205;  292,287;13894,709;56,04088
 460,49; 7978,200;  326,364;13979,122;56,04608
 461,08; 8012,322;  239,441;14041,256;56,31782
 461,66; 8049,624;  249,518;14148,009;56,12197
 462,25; 8129,128;  249,671;14169,362;56,60655
 462,84; 8162,823;  266,210;14233,855;56,53503
 463,43; 8128,286;  220,671;14197,392;56,57704
 464,01; 8136,650;  252,825;14211,433;56,48002
 464,60; 8123,226;  294,902;14133,045;56,57063
 465,19; 7961,830;  226,901;13917,146;56,49957
 465,77; 7981,067;  245,901;13931,470;56,52060
 466,36; 7928,069;  263,748;13781,592;56,69781
 466,95; 7715,841;  249,517;13545,097;56,15644
 467,53; 7571,588;  262,209;13231,631;56,35856
 468,12; 7445,199;  287,516;12985,825;56,36722
 468,71; 7330,974;  256,517;12769,913;56,53507
 469,29; 7170,307;  244,747;12563,421;56,22001
 469,88; 7066,022;  243,285;12255,789;56,79696
 470,47; 7158,933;  308,824;12429,383;56,51644
 471,06; 7099,316;  245,747;12327,576;56,72626
 471,64; 7222,590;  258,439;12426,475;57,23315
 472,23; 7162,223;  238,515;12484,723;56,53756
 472,81; 7260,821;  235,669;12537,077;57,10852
 473,40; 7331,333;  244,438;12699,088;56,90160
 473,99; 7478,130;  337,131;12877,102;56,94590
 474,57; 7506,796;  254,746;13007,664;56,86581
 475,16; 7575,864;  259,900;13135,527;56,82026
 475,75; 7656,581;  277,361;13270,843;56,79170
 476,33; 7681,183;  273,438;13301,278;56,86088
 476,92; 7758,371;  284,515;13382,495;57,06113
 477,51; 7754,569;  273,746;13473,078;56,67577
 478,09; 7746,471;  274,361;13432,183;56,78835
 478,68; 7756,806;  266,592;13402,743;57,01985
 479,27; 7790,566;  285,746;13431,990;57,08718
 479,85; 7757,282;  260,592;13449,749;56,83980
 480,44; 7839,594;  258,591;13565,837;56,96898
 481,02; 8567,583;  276,822;14805,194;57,06600
 481,61; 9693,738;  287,591;16767,418;57,07673
 482,20;10367,191;  272,207;17955,114;57,08894
 482,78;10867,717;  308,668;18742,703;57,28018
 483,37;11165,603;  304,745;19311,268;57,14280
 483,95;11357,032;  325,591;19524,179;57,45964
 484,54;11435,161;  324,668;19721,819;57,27899
 485,13;11380,778;  299,667;19674,419;57,19356
 485,71;11229,982;  267,283;19359,168;57,42073
 486,30;11008,960;  311,514;19163,734;56,74370
 486,88;10853,689;  350,129;18790,873;56,95844
 487,47;10463,340;  319,360;18111,474;57,01391
 488,05; 9998,204;  314,975;17285,299;57,05977
 488,64; 9321,525;  298,052;16075,825;57,19104
 489,23; 8254,184;  315,129;14276,871;56,86293
 489,81; 7059,401;  318,436;12269,871;56,40298
 490,40; 6676,334;  283,282;11577,264;56,60583
 490,98; 6523,689;  255,051;11339,911;56,55135
 491,57; 6476,797;  291,129;11214,719;56,62669
 492,15; 6458,307;  261,051;11135,031;56,99161
 492,74; 6393,488;  270,052;11148,520;56,28951
 493,32; 6328,802;  290,436;10980,505;56,48576
 493,91; 6295,276;  275,820;10887,486;56,72488
 494,50; 6271,392;  273,128;10879,117;56,55545
 495,08; 6236,198;  260,205;10835,710;56,50788
 495,67; 6241,699;  291,359;10817,349;56,52998
 496,25; 6120,726;  222,974;10657,382;56,52216
 496,84; 6137,057;  249,359;10687,065;56,40797
 497,42; 6086,439;  241,974;10616,052;56,33720
 498,01; 6115,262;  259,513;10542,979;56,94334
 498,59; 6011,093;  221,359;10499,036;56,33310
 499,18; 5986,602;  244,051;10458,382;56,22053
 499,76; 5964,796;  256,589;10363,917;56,47592
 500,35; 5868,404;  255,589;10202,439;56,42807
 500,93; 5827,133;  245,282;10220,783;55,95560
 501,52; 5841,639;  244,051;10134,040;56,59853
 502,10; 5814,088;  259,743;10034,794;56,82165
 502,69; 5666,397;  239,896; 9925,268;56,02780
 503,27; 5589,468;  222,743; 9663,925;56,84378
 503,86; 5532,647;  245,127; 9678,542;56,05096
 504,44; 5466,208;  218,819; 9571,680;56,10464
 505,03; 5337,222;  208,358; 9369,418;55,98549
 505,61; 5308,346;  219,127; 9253,244;56,33333
 506,19; 5242,251;  242,666; 9039,700;56,83262
 506,78; 5093,755;  224,588; 8895,900;56,15259
 507,36; 5010,923;  230,742; 8739,459;56,17981
 507,95; 4892,826;  229,127; 8601,409;55,70404
 508,53; 4859,210;  227,358; 8497,550;56,00658
 509,12; 4769,215;  239,357; 8385,061;55,61039
 509,70; 4691,677;  250,511; 8219,490;55,73068
 510,29; 4627,964;  258,126; 8094,530;55,76331
 510,87; 4521,951;  227,742; 7879,152;56,12311
 511,46; 4403,960;  218,434; 7755,661;55,53137
 512,04; 4347,651;  224,665; 7594,866;55,94130
 512,62; 4230,323;  243,050; 7412,305;55,61628
 513,21; 4156,117;  212,357; 7288,646;55,73203
 513,79; 4055,774;  222,741; 7188,436;55,02728
 514,38; 3994,299;  198,818; 7033,647;55,53147
 514,96; 3959,329;  251,511; 6942,352;55,41633
 515,54; 3865,467;  213,510; 6836,429;55,14119
 516,13; 3810,170;  222,664; 6752,168;54,94301
 516,71; 3728,656;  225,203; 6620,696;54,78004
 517,30; 3666,214;  213,356; 6522,758;54,72560
 517,88; 3674,782;  240,048; 6434,733;55,44646
 518,46; 3514,459;  222,279; 6292,771;54,23251
 519,05; 3540,223;  225,048; 6254,049;54,98714
 519,63; 3508,775;  231,433; 6195,050;54,95561
 520,22; 3470,085;  244,663; 6145,151;54,66364
 520,80; 3411,656;  231,971; 6080,477;54,36747
 521,38; 3443,396;  260,587; 6102,253;54,48461
 521,97; 3374,420;  229,971; 6046,601;54,05963
 522,55; 3350,609;  241,048; 6010,541;53,89660
 523,13; 3392,865;  219,817; 6021,370;54,69308
 523,72; 3354,335;  226,510; 5992,977;54,24161
 524,30; 3420,763;  235,432; 6131,945;54,02058
 524,89; 3436,452;  218,048; 6108,543;54,63725
 525,47; 3468,023;  243,740; 6228,118;53,87833
 526,05; 3479,279;  206,355; 6263,749;54,03188
 526,64; 3575,390;  238,201; 6358,619;54,52551
 527,22; 3624,262;  250,047; 6505,122;53,94363
 527,80; 3714,147;  266,816; 6599,458;54,43748
 528,39; 3714,277;  226,586; 6700,301;53,87465
 528,97; 3816,786;  224,124; 6868,512;54,07062
 529,55; 3895,970;  248,432; 6996,615;54,05214
 530,14; 4000,934;  252,739; 7200,328;53,94958
 530,72; 4035,687;  229,509; 7309,155;53,76227
 531,30; 4111,428;  208,585; 7461,193;53,81296
 531,89; 4167,785;  231,201; 7525,255;53,96977
 532,47; 4216,093;  267,355; 7669,762;53,34398
 533,05; 4189,322;  251,740; 7672,660;53,06057
 533,63; 4228,083;  261,355; 7705,221;53,28855
 534,22; 4203,048;  239,431; 7765,742;52,66347
 534,80; 4274,064;  251,277; 7789,344;53,36630
 535,38; 4339,041;  334,893; 7959,271;52,51770
 535,97; 4257,023;  251,508; 7886,881;52,45997
 536,55; 4312,880;  280,354; 7904,562;52,89108
 537,13; 4293,877;  288,047; 7905,877;52,58493
 537,71; 4290,922;  322,047; 7940,628;52,09467
 538,30; 4301,139;  334,893; 7993,909;51,78532
 538,88; 4364,656;  352,277; 8073,924;51,96274
 539,46; 4447,023;  410,585; 8243,361;51,53266
 540,05; 4512,684;  405,200; 8356,739;51,65645
 540,63; 4597,627;  441,046; 8556,673;51,21699
 541,21; 4679,357;  479,739; 8696,818;51,10841
 541,79; 4727,714;  478,508; 8803,419;51,04206
 542,38; 4799,266;  501,893; 8941,490;50,91918
 542,96; 4857,461;  520,892; 9065,114;50,75440
 543,54; 4962,723;  539,200; 9251,537;50,77309
 544,12; 5020,535;  493,816; 9436,371;50,61998
 544,70; 5080,166;  494,431; 9440,660;51,25886
 545,29; 5121,643;  504,893; 9648,795;50,48994
 545,87; 5150,252;  486,816; 9679,265;50,73116
 546,45; 5129,372;  465,200; 9709,311;50,45560
 547,03; 5155,384;  452,662; 9797,249;50,32563
 547,62; 5199,012;  418,585; 9934,378;50,23677
 548,20; 5306,058;  435,200;10100,372;50,39598
 548,78; 5346,622;  396,507;10219,879;50,39120
 549,36; 5404,003;  366,430;10373,605;50,33961
 549,94; 5476,308;  335,892;10554,876;50,30261
 550,53; 5559,737;  355,277;10762,159;50,00979
 551,11; 5605,922;  322,661;10924,151;49,83508
 551,69; 5756,277;  334,046;11276,010;49,55446
 552,27; 5841,248;  286,507;11465,523;49,68900
 552,85; 6011,636;  305,046;11817,508;49,56881
 553,44; 6117,746;  298,430;12110,552;49,26563
 554,02; 6327,705;  314,046;12431,922;49,62635
 554,60; 6388,480;  263,122;12768,432;48,98205
 555,18; 6595,591;  306,969;13114,437;49,10121
 555,76; 6766,027;  288,199;13433,121;49,28007
 556,34; 6912,654;  299,891;13810,378;48,94541
 556,93; 7061,576;  281,738;14192,200;48,73913
 557,51; 7180,661;  253,661;14467,113;48,73552
 558,09; 7376,919;  280,892;14830,679;48,77066
 558,67; 7534,957;  278,968;15220,656;48,56204
 559,25; 7630,929;  289,199;15470,982;48,35881
 559,83; 7754,325;  271,430;15684,502;48,54902
 560,41; 7892,848;  258,968;16098,894;48,19391
 561,00; 8031,677;  272,122;16391,747;48,13732
 561,58; 8112,094;  271,815;16682,131;47,77653
 562,16; 8256,502;  259,661;16993,673;47,78795
 562,74; 8395,285;  242,353;17349,904;47,65692
 563,32; 8537,501;  248,737;17697,474;47,50352
 563,90; 8703,355;  274,507;18129,547;47,20711
 564,48; 8846,503;  277,199;18495,332;47,03722
 565,06; 9143,337;  261,661;19084,344;47,18603
 565,65; 9419,657;  272,506;19659,953;47,18079
 566,23; 9749,103;  320,507;20376,806;47,01065
 566,81; 9963,335;  266,584;21113,723;46,51358
 567,39;10329,936;  284,353;21934,158;46,40034
 567,97;10563,835;  286,814;22473,937;46,31975
 568,55;10927,697;  308,737;23278,264;46,23064
 569,13;11210,494;  284,891;24018,772;46,03378
 569,71;11583,986;  260,276;24926,337;45,90806
 570,29;12020,122;  306,661;25849,126;45,85877
 570,87;12320,996;  304,969;26426,877;45,99981
 571,45;12491,461;  295,814;27080,061;45,53291
 572,03;12610,814;  266,430;27550,446;45,24401
 572,61;12887,628;  254,660;28285,190;45,06860
 573,20;13149,310;  266,122;28927,400;44,94980
 573,78;13410,130;  257,968;29476,135;45,01364
 574,36;13567,694;  284,814;30004,297;44,69418
 574,94;13716,768;  332,045;30271,657;44,70573
 575,52;13746,045;  269,737;30613,817;44,41165
 576,10;14011,816;  330,429;31103,233;44,45935
 576,68;14211,157;  308,199;31576,386;44,46359
 577,26;14419,175;  327,583;32303,583;44,06928
 577,84;14556,951;  332,276;32728,658;43,90822
 578,42;14616,831;  376,737;32927,349;43,74755
 579,00;14667,298;  317,122;33151,719;43,70444
 579,58;14685,760;  367,506;33271,577;43,51514
 580,16;14628,667;  328,429;33317,731;43,34811
 580,74;14641,169;  331,199;33552,907;43,07415
 581,32;14623,219;  324,583;33524,886;43,06779
 581,90;14558,444;  351,122;33594,888;42,73680
 582,48;14546,219;  340,352;33723,007;42,55463
 583,06;14493,472;  347,737;33760,973;42,33572
 583,64;14541,817;  327,737;33886,412;42,35590
 584,22;14372,684;  344,275;33797,948;41,93384
 584,80;14215,530;  355,737;33566,622;41,73268
 585,38;13970,991;  354,276;33161,122;41,50571
 585,96;13988,441;  330,891;33270,794;41,46202
 586,54;13905,625;  342,121;33252,646;41,21327
 587,12;13906,263;  324,583;33408,996;41,05160
 587,70;13901,404;  357,583;33443,200;40,93568
 588,28;13846,515;  335,737;33477,737;40,76633
 588,86;13906,028;  344,198;33657,805;40,70958
 589,44;13830,723;  324,275;33671,790;40,50211
 590,02;13864,814;  321,660;33925,022;40,30297
 590,59;13861,325;  313,045;34083,572;40,11865
 591,17;13876,419;  315,121;34274,314;39,93410
 591,75;13798,658;  303,506;34374,881;39,60847
 592,33;13864,770;  327,967;34620,470;39,47452
 592,91;13888,075;  283,198;34771,483;39,44782
 593,49;13940,399;  283,429;35189,194;39,12526
 594,07;13986,484;  308,429;35345,736;39,03855
 594,65;13984,860;  319,583;35391,958;38,96308
 595,23;14052,640;  308,506;35716,319;38,81667
 595,81;14022,508;  315,275;35977,566;38,43621
 596,39;14035,366;  288,890;35999,112;38,49451
 596,97;13988,048;  279,121;36227,315;38,13523
 597,55;13992,959;  293,044;36122,513;38,23644
 598,12;13808,114;  274,198;36072,980;37,80552
 598,70;13798,148;  284,429;36219,292;37,60615
 599,28;13773,267;  296,813;36361,352;37,36760
 599,86;13740,394;  286,429;36401,068;37,25350
 600,44;13669,625;  259,121;36511,113;36,99246
 601,02;13690,687;  309,428;36583,477;36,88935
 601,60;13646,419;  288,967;36581,955;36,80450
 602,18;13505,563;  260,967;36646,587;36,40063
 602,75;13419,852;  258,044;36623,544;36,19312
 603,33;13335,448;  296,352;36645,520;35,87179
 603,91;13268,936;  264,044;36615,284;35,77565
 604,49;13290,342;  286,890;36678,160;35,73234
 605,07;13240,987;  299,044;36855,161;35,40295
 605,65;13219,609;  298,352;36857,453;35,34348
 606,23;13166,405;  352,198;36919,186;35,04310
 606,80;13131,132;  371,967;36917,299;34,91325
 607,38;13060,765;  397,736;36983,195;34,61219
 607,96;13027,371;  448,737;37046,533;34,36992
 608,54;12936,735;  494,352;37144,670;33,94891
 609,12;12920,251;  495,890;37068,744;33,97154
 609,70;12845,360;  516,121;37209,858;33,60039
 610,27;12798,352;  525,737;37198,868;33,46487
 610,85;12769,299;  547,275;37267,095;33,28454
 611,43;12676,057;  532,352;37325,555;33,00530
 612,01;12558,479;  495,429;37049,020;33,00100
 612,59;12462,962;  507,582;37110,812;32,66209
 613,16;12398,173;  476,198;37032,424;32,61271
 613,74;12199,182;  458,582;36940,426;32,18203
 614,32;12197,538;  432,352;36958,187;32,21059
 614,90;12097,598;  404,429;36767,355;32,15684
 615,48;11875,819;  353,506;36608,174;31,78160
 616,05;11812,099;  345,198;36442,961;31,76624
 616,63;11708,224;  355,660;36314,979;31,57058
 617,21;11607,338;  355,891;36290,669;31,31075
 617,79;11515,037;  334,660;36184,525;31,18667
 618,36;11466,498;  348,275;36073,224;31,12173
 618,94;11239,901;  294,968;35842,409;30,78965
 619,52;11133,669;  312,275;35522,166;30,73396
 620,10;11031,397;  293,506;35553,048;30,45386
 620,67;10906,035;  312,814;35336,347;30,24601
 621,25;10899,406;  323,890;35166,448;30,35229
 621,83;10816,069;  307,968;35156,147;30,15395
 622,41;10738,546;  354,121;35207,230;29,79483
 622,98;10627,540;  314,429;34947,136;29,77853
 623,56;10568,683;  323,506;34908,705;29,62301
 624,14;10437,804;  301,583;34790,615;29,38970
 624,72;10309,859;  301,660;34705,503;29,09035
 625,29;10306,032;  291,968;34756,457;29,05618
 625,87;10202,526;  337,352;34837,231;28,59481
 626,45;10097,652;  287,583;34537,878;28,64229
 627,02;10015,245;  297,967;34593,361;28,33406
 627,60; 9929,095;  284,505;34423,962;28,25056
 628,18; 9866,174;  267,044;34534,974;28,01199
 628,76; 9841,195;  274,814;34532,158;27,92505
 629,33; 9787,445;  299,506;34593,022;27,66686
 629,91; 9742,551;  298,352;34596,202;27,53583
 630,49; 9700,491;  291,583;34616,041;27,41167
 631,06; 9723,326;  293,814;34768,072;27,35233
 631,64; 9653,461;  299,045;34820,439;27,09745
 632,22; 9503,156;  260,506;34666,778;26,86327
 632,79; 9551,197;  295,199;34991,453;26,67723
 633,37; 9500,255;  284,275;35015,678;26,53501
 633,95; 9475,555;  281,276;35039,175;26,45234
 634,52; 9464,636;  268,891;35190,506;26,33253
 635,10; 9420,224;  268,198;35175,229;26,21829
 635,68; 9432,939;  268,506;35361,208;26,11492
 636,25; 9377,995;  256,276;35344,339;25,99664
 636,83; 9380,195;  247,122;35544,697;25,87451
 637,41; 9316,523;  265,814;35562,766;25,64162
 637,98; 9346,434;  295,660;35762,758;25,51879
 638,56; 9293,342;  275,276;35837,239;25,35874
 639,13; 9292,569;  259,275;35831,727;25,39407
 639,71; 9312,472;  322,429;36043,761;25,16716
 640,29; 9180,405;  236,506;35850,715;25,11329
 640,86; 9173,409;  263,583;36069,057;24,88398
 641,44; 9105,643;  257,121;36085,707;24,69682
 642,02; 9115,647;  278,045;36048,048;24,70674
 642,59; 9020,805;  258,968;36266,775;24,33316
 643,17; 8968,577;  259,968;36193,270;24,23548
 643,74; 8944,197;  252,121;36194,381;24,18344
 644,32; 8872,431;  274,814;36117,261;23,98725
 644,89; 8852,050;  283,045;36183,449;23,86883
 645,47; 8786,977;  296,891;36196,868;23,64928
 646,05; 8727,827;  276,275;36075,132;23,60844
 646,62; 8680,753;  265,506;36104,320;23,48082
 647,20; 8620,834;  273,968;36276,047;23,18440
 647,77; 8515,684;  246,506;36035,696;23,10524
 648,35; 8500,611;  238,891;36043,038;23,07476
 648,92; 8423,076;  276,121;36050,379;22,77323
 649,50; 8348,464;  240,891;35983,798;22,68303
 650,08; 8291,083;  230,198;35946,140;22,56943
 650,65; 8280,395;  244,275;36039,712;22,45012
 651,23; 8336,245;  220,121;36745,823;22,22031
 651,80; 8485,094;  237,583;37683,165;22,02533
 652,38; 8543,175;  243,814;38092,660;21,92765
 652,95; 8545,025;  231,352;38508,002;21,71996
 653,53; 8610,490;  252,583;38739,728;21,71610
 654,10; 8590,801;  280,198;38903,685;21,51697
 654,68; 8509,959;  238,275;38753,873;21,47619
 655,25; 8504,963;  235,198;38879,907;21,39947
 655,83; 8432,889;  236,352;38977,403;21,15724
 656,40; 8436,893;  265,890;38915,821;21,14105
 656,98; 8375,743;  250,275;38815,932;21,06918
 657,55; 8341,362;  247,967;38672,659;21,06301
 658,13; 8176,289;  247,814;38286,923;20,84296
 658,70; 8076,523;  269,429;38035,342;20,67233
 659,28; 7868,066;  252,429;37316,914;20,54699
 659,85; 7705,608;  252,429;36447,487;20,59170
 660,43; 7646,765;  267,737;36491,752;20,37054
 661,00; 7568,538;  245,660;36550,939;20,17029
 661,58; 7622,850;  248,275;36974,358;20,07994
 662,15; 7656,392;  231,429;37100,700;20,13862
 662,73; 7723,395;  304,044;37354,734;20,02487
 663,30; 7648,938;  244,736;37524,922;19,86096
 663,88; 7694,095;  248,429;37750,802;19,85385
 664,45; 7699,176;  235,506;37858,682;19,83796
 665,03; 7746,949;  252,736;38361,639;19,66525
 665,60; 7794,875;  331,506;38779,135;19,41178
 666,17; 7743,725;  250,506;38898,553;19,38835
 666,75; 7771,883;  239,275;39253,895;19,30714
 667,32; 7864,810;  263,044;39464,698;19,39144
 667,90; 7827,967;  246,890;39756,347;19,18801
 668,47; 7860,586;  265,198;39945,535;19,14144
 669,05; 7821,051;  240,813;40359,877;18,89435
 669,62; 7831,286;  213,198;40359,911;18,97562
 670,19; 7826,905;  229,736;40585,253;18,82560
 670,77; 7866,832;  251,121;40779,671;18,79098
 671,34; 7759,220;  249,736;40614,244;18,60418
 671,92; 7823,531;  228,890;40997,816;18,62850
 672,49; 7788,381;  260,582;40982,850;18,48571
 673,06; 7734,923;  217,813;41101,115;18,38675
 673,64; 7710,158;  232,582;41085,918;18,30346
 674,21; 7660,085;  217,967;41002,568;18,24737
 674,79; 7664,550;  246,736;41187,525;18,11839
 675,36; 7679,554;  259,582;41342,174;18,06111
 675,93; 7602,711;  232,429;41124,900;18,02357
 676,51; 7644,869;  252,967;41300,550;18,00813
 677,08; 7608,103;  256,813;41486,814;17,82995
 677,65; 7620,107;  249,659;41574,925;17,83521
 678,23; 7635,572;  245,967;41732,806;17,81193
 678,80; 7580,499;  230,659;41832,301;17,66719
 679,38; 7585,733;  241,582;41962,950;17,60285
 679,95; 7663,122;  247,044;42179,446;17,68579
 680,52; 7623,664;  234,659;42490,095;17,48652
 681,10; 7663,744;  256,352;42735,129;17,43787
 681,67; 7721,671;  249,121;43149,548;17,41836
 682,24; 7707,906;  230,428;43186,197;17,40739
 682,82; 7754,371;  238,352;43766,462;17,26705
 683,39; 7874,682;  288,275;44063,112;17,33052
 683,96; 7876,609;  240,505;44259,915;17,34713
 684,54; 7880,613;  220,505;44663,795;17,23569
 685,11; 7925,924;  268,813;45022,521;17,10944
 685,68; 7963,389;  240,967;45434,324;17,08752
 686,25; 7938,085;  223,659;45448,743;17,05785
 686,83; 7938,781;  231,198;45624,777;16,97946
 687,40; 8012,785;  218,275;45970,350;17,03641
 687,97; 8019,712;  280,967;46409,537;16,77647
 688,55; 8004,100;  218,736;46411,725;16,85399
 689,12; 8055,411;  205,274;46692,990;16,88648
 689,69; 8068,184;  227,659;46772,870;16,84497
 690,26; 8031,111;  245,044;46844,366;16,70854
 690,84; 8092,961;  249,274;47133,323;16,72997
 691,41; 8079,657;  251,967;47222,664;16,66505
 691,98; 8147,122;  244,967;47439,622;16,74375
 692,56; 8139,895;  233,044;47516,809;16,72213
 693,13; 8145,745;  287,659;47545,766;16,62802
 693,70; 8134,210;  256,274;47684,877;16,61009
 694,27; 8136,829;  243,890;47890,604;16,56555
 694,84; 8123,679;  238,044;47984,253;16,51573
 695,42; 8183,837;  276,582;48083,133;16,54011
 695,99; 8160,763;  238,351;48293,629;16,48604
 696,56; 8134,690;  243,121;48149,124;16,47303
 697,13; 8227,540;  241,197;48488,697;16,55286
 697,71; 8180,775;  225,582;48519,500;16,47245
 698,28; 8201,471;  244,120;48871,380;16,36397
 698,85; 8246,243;  196,659;48863,106;16,54032
 699,42; 8216,632;  214,505;49072,371;16,37838
 699,99; 8287,559;  242,044;49106,405;16,46500
 700,57; 8241,101;  243,428;49142,055;16,35562
 701,14; 8289,027;  231,505;49239,550;16,44122
 701,71; 8352,416;  250,967;49401,815;16,48283
 702,28; 8338,189;  242,351;49536,310;16,42359
 702,85; 8320,192;  245,967;49647,575;16,34405
 703,43; 8380,811;  257,197;49848,763;16,38104
 704,00; 8420,969;  280,582;50070,028;16,34962
 704,57; 8428,511;  247,274;50047,293;16,42818
 705,14; 8437,976;  289,582;50348,250;16,27769
 705,71; 8452,749;  280,582;50303,822;16,33674
 706,28; 8409,215;  253,274;50223,010;16,32176
 706,86; 8518,680;  276,966;50540,890;16,39688
 707,43; 8502,683;  298,351;50541,540;16,32924
 708,00; 8478,764;  284,582;50501,266;16,31765
 708,57; 8456,229;  263,043;50353,838;16,35667
 709,14; 8509,387;  285,966;50567,488;16,35476
 709,71; 8464,621;  264,582;50621,368;16,28388
 710,28; 8504,856;  258,428;50908,556;16,28116
 710,86; 8508,629;  260,351;50935,205;16,27687
 711,43; 8536,632;  282,197;50873,316;16,31598
 712,00; 8537,098;  266,582;51054,350;16,28446
 712,57; 8556,178;  278,659;51204,769;16,25398
 713,14; 8568,567;  255,813;51192,956;16,31963
 713,71; 8595,416;  265,120;51185,606;16,35942
 714,28; 8647,035;  257,197;51191,640;16,47184
 714,85; 8561,808;  239,505;50995,212;16,39678
 715,42; 8610,889;  249,351;51154,477;16,42573
 716,00; 8746,508;  309,120;51281,819;16,55276
 716,57; 8667,896;  250,659;51370,237;16,46578
 717,14; 8676,746;  238,197;51300,656;16,52594
 717,71; 8703,827;  230,659;51458,690;16,54010
 718,28; 8718,984;  268,889;51516,032;16,48891
 718,85; 8724,450;  227,351;51475,758;16,58022
 719,42; 8812,223;  260,889;51744,023;16,60997
 719,99; 8784,457;  224,197;51414,134;16,72254
 720,56; 8867,691;  265,428;51757,552;16,70598
 721,13; 8852,695;  251,735;51795,432;16,68673
 721,70; 8798,853;  232,812;51767,620;16,62185
 722,27; 8868,549;  265,659;51710,962;16,72240
 722,84; 8947,552;  306,889;51891,996;16,75031
 723,41; 8875,633;  236,197;51914,799;16,71763
 723,98; 8960,944;  241,428;52137,295;16,80195
 724,55; 9023,564;  275,351;52288,021;16,81939
 725,12; 8957,106;  207,812;52124,978;16,85241
 725,69; 9060,956;  238,197;52401,166;16,91384
 726,27; 9108,805;  230,812;52349,815;17,03408
 726,84; 9120,040;  249,120;52729,234;16,90339
 727,41; 9167,736;  268,428;52672,729;16,98202
 727,98; 9225,124;  266,043;52998,533;16,98968
 728,55; 9267,512;  287,428;52891,797;17,07099
 729,12; 9219,901;  243,581;53017,524;17,00900
 729,69; 9303,135;  254,658;53168,481;17,10040
 730,26; 9354,831;  274,274;53258,976;17,13807
 730,82; 9333,296;  261,274;53209,857;17,13365
 731,39; 9410,608;  261,581;53284,198;17,25495
 731,96; 9447,227;  237,735;53591,617;17,26115
 732,53; 9512,231;  247,274;53811,420;17,29694
 733,10; 9579,619;  268,504;53949,377;17,34531
 733,67; 9592,315;  266,504;54133,257;17,31274
 734,24; 9545,857;  250,120;53825,907;17,35063
 734,81; 9631,630;  280,197;53907,941;17,43768
 735,38; 9572,018;  261,889;53674,436;17,43060
 735,95; 9584,791;  266,735;53612,393;17,46732
 736,52; 9656,641;  266,504;53784,735;17,54568
 737,09; 9546,645;  269,504;53470,384;17,43795
 737,66; 9731,418;  307,889;53595,111;17,68441
 738,23; 9768,191;  265,043;53768,299;17,76181
 738,80; 9836,887;  318,197;53982,333;17,73753
 739,37; 9828,198;  279,274;54149,367;17,72584
 739,94; 9863,971;  261,581;54157,554;17,81653
 740,51; 9971,436;  367,658;54254,204;17,82222
 741,07; 9940,824;  261,350;54232,007;17,93470
 741,64;10000,059;  286,504;54400,810;17,95007
 742,21;10025,216;  251,504;54471,152;18,02614
 742,78; 9962,451;  234,812;54224,647;18,01754
 743,35;10060,455;  254,427;54522,528;18,06960
 743,92;10119,228;  286,581;54626,946;18,09455
 744,49;10177,000;  289,581;54517,211;18,23318
 745,06;10186,696;  251,812;54451,630;18,33011
 745,63;10208,392;  249,504;54530,587;18,34689
 746,19;10290,396;  251,197;54526,851;18,49669
 746,76;10266,708;  267,273;54505,039;18,43629
 747,33;10327,327;  251,966;54474,919;18,58136
 747,90;10415,561;  281,658;54680,415;18,62892
 748,47;10384,565;  267,658;54590,757;18,62358
 749,04;10461,184;  273,966;54630,714;18,74140
 749,61;10487,957;  298,043;54583,517;18,77098
 750,17;10479,422;  276,658;54671,782;18,75676
 750,74;10571,195;  280,966;54532,585;18,96760
 751,31;10509,968;  246,350;54392,927;18,95525
 751,88;10518,279;  240,581;54357,653;18,99160
 752,45;10656,744;  263,581;54516,610;19,15684
 753,02;10652,979;  274,812;54288,567;19,21393
 753,58;10632,060;  246,043;54164,678;19,26239
 754,15;10701,140;  246,889;54373,251;19,31453
 754,72;10669,528;  246,581;54159,054;19,33309
 755,29;10675,763;  236,043;53881,165;19,46071
 755,86;10762,920;  264,966;54187,891;19,46844
 756,42;10792,155;  272,735;54064,848;19,55569
 756,99;10775,082;  224,273;53975,420;19,62899
 757,56;10842,855;  239,966;53913,455;19,75442
 758,13;10820,628;  201,042;53854,412;19,79295
 758,70;10967,401;  232,966;53871,292;20,01262
 759,26;10928,558;  221,273;53980,710;19,91703
 759,83;10924,331;  229,042;54191,898;19,81972
 760,40;11004,642;  218,581;53906,778;20,09019
 760,97;11011,877;  211,119;54007,966;20,07693
 761,53;10971,496;  198,119;53582,769;20,18066
 762,10;11010,730;  209,581;53551,419;20,24893
 762,67;11083,426;  230,042;53514,530;20,36875
 763,24;11006,507;  184,658;53247,179;20,39453
 763,80;11119,818;  214,427;53340,675;20,52731
 764,37;11092,591;  230,504;53361,093;20,44413
 764,94;11030,287;  208,119;52822,589;20,56881
 765,50;11030,599;  211,965;52946,777;20,51516
 766,07;11132,218;  254,042;52927,195;20,65222
 766,64;11102,298;  224,350;52552,614;20,78790
 767,21;11126,379;  218,965;52491,648;20,86637
 767,77;11166,537;  248,581;52366,682;20,94849
 768,34;11141,925;  242,812;52319,100;20,92913
 768,91;11187,005;  262,735;52172,519;21,04472
 769,47;11242,086;  241,581;52192,476;21,17481
 770,04;11254,782;  247,581;52132,818;21,21451
 770,61;11224,940;  231,658;51836,467;21,30282
 771,18;11167,482;  222,658;51851,347;21,19911
 771,74;11320,332;  246,658;51982,997;21,40405
 772,31;11321,335;  250,119;51604,877;21,55831
 772,88;11323,724;  222,658;51556,680;21,62516
 773,44;11276,343;  222,273;51181,022;21,69219
 774,01;11307,962;  249,196;51415,979;21,61317
 774,58;11308,196;  233,273;50939,090;21,84152
 775,14;11380,354;  227,658;51202,201;21,87895
 775,71;11408,511;  248,042;51110,619;21,94240
 776,27;11446,977;  278,504;51012,346;22,01385
 776,84;11532,673;  313,965;51026,226;22,12228
 777,41;11457,522;  246,504;50938,414;22,11599
 777,97;11365,218;  242,888;50616,140;22,07983
 778,54;11521,222;  243,504;50645,482;22,37555
 779,11;11515,687;  258,657;50606,285;22,35861
 779,67;11553,845;  230,350;50565,857;22,49604
 780,24;11562,464;  239,888;50341,968;22,59901
 780,80;11633,237;  261,657;50384,002;22,68764
 781,37;11612,933;  254,657;50403,267;22,64923
 781,94;11619,167;  253,119;50158,455;22,77522
 782,50;11666,094;  253,965;50067,104;22,90988
 783,07;11661,405;  271,350;50151,600;22,83480
 783,63;11650,948;  233,196;49872,172;23,00159
 784,20;11677,490;  263,657;49880,052;23,00415
 784,77;11691,032;  255,196;49742,240;23,10875
 785,33;11688,805;  234,273;49513,582;23,24410
 785,90;11747,885;  243,273;49440,231;23,38480
 786,46;11721,043;  265,965;49383,727;23,32166
 787,03;11777,431;  234,888;49132,992;23,60530
 787,59;11799,050;  239,350;49034,026;23,69050
 788,16;11768,439;  256,196;48985,906;23,62469
 788,73;11836,289;  250,888;48871,863;23,82799
 789,29;11835,754;  253,042;48540,282;23,98711
 789,86;11852,373;  273,811;48516,469;24,00067
 790,42;11790,607;  242,042;48302,273;24,02936
 790,99;11769,919;  260,427;48008,922;24,10441
 791,55;11818,538;  237,965;47900,725;24,29690
 792,12;11890,618;  276,657;47962,375;24,35522
 792,68;11841,776;  254,503;47577,101;24,48571
 793,25;11835,395;  257,734;47439,366;24,53849
 793,81;11886,245;  312,888;47116,861;24,72730
 794,38;11758,710;  225,350;46937,588;24,69023
 794,94;11782,637;  251,196;46873,237;24,73388
 795,51;11770,487;  260,503;46507,963;24,88782
 796,07;11778,029;  259,119;46349,459;24,99203
 796,64;11874,802;  274,426;46439,262;25,12816
 797,20;11783,729;  255,349;45954,296;25,22679
 797,77;11733,732;  219,657;45690,868;25,32168
 798,33;11743,428;  253,888;45435,595;25,42963
 798,90;11753,740;  275,965;45412,090;25,42924
 799,46;11663,205;  249,042;44974,894;25,52028
 800,03;11674,132;  261,273;44955,543;25,53540
 800,59;11672,905;  267,734;44679,269;25,68065
 801,15;11627,678;  266,119;44432,534;25,72443
 801,72;11515,450;  263,965;44141,568;25,64289
 802,28;11597,377;  291,888;43863,833;25,94672
 802,85;11559,535;  250,196;43600,405;26,08831
 803,41;11470,846;  259,042;43474,132;25,94419
 803,98;11435,542;  235,657;42993,704;26,19363
 804,54;11380,084;  247,042;42791,046;26,16830
 805,11;11390,011;  265,426;42648,464;26,24773
 805,67;11408,630;  273,734;42621,344;26,29404
 806,23;11292,865;  260,195;42224,840;26,29039
 806,80;11322,407;  267,119;42102,182;26,42589
 807,36;11335,257;  278,965;41985,985;26,50943
 807,93;11313,568;  295,426;41694,557;26,61443
 808,49;11216,110;  244,349;41342,053;26,69677
 809,05;11164,268;  235,811;41225,856;26,66125
 809,62;11186,964;  266,042;41166,275;26,70137
 810,18;11218,737;  271,272;41068,693;26,83372
 810,74;11157,586;  224,042;40746,189;26,98165
 811,31;11140,129;  238,118;40570,069;27,03070
 811,87;11174,132;  258,272;40436,872;27,16834
 812,44;11205,905;  289,811;40546,599;27,11616
 813,00;11137,217;  226,349;40155,940;27,32527
 813,56;11261,374;  260,272;40242,051;27,51529
 814,13;11203,378;  250,811;40061,777;27,51143
 814,69;11168,151;  250,426;39945,965;27,50366
 815,25;11082,231;  221,118;39573,230;27,59982
 815,82;11115,389;  264,272;39530,956;27,63441
 816,38;11193,777;  280,657;39299,606;27,96877
 816,94;11052,550;  244,811;38886,178;27,96935
 817,51;11089,862;  227,272;38760,135;28,19045
 818,07;10975,250;  245,118;38539,862;28,01985
 818,63;11072,869;  253,272;38295,049;28,44135
 819,20;11060,719;  253,349;38296,314;28,40833
 819,76;10948,415;  236,272;37903,656;28,43878
 820,32;10962,111;  281,349;37784,228;28,47984
 820,89;10961,499;  267,657;37660,032;28,59899
 821,45;10889,503;  241,580;37324,604;28,71374
 822,01;10918,430;  254,580;37095,177;28,94592
 822,57;10932,510;  250,426;36942,826;29,11253
 823,14;10824,360;  227,580;36796,168;28,97782
 823,70;10777,671;  240,964;36530,817;29,03486
 824,26;10751,367;  250,811;36390,697;29,05531
 824,82;10781,756;  260,503;36265,347;29,22177
 825,39;10744,913;  241,272;36022,457;29,35521
 825,95;10777,302;  254,426;35859,568;29,55437
 826,51;10683,459;  260,810;35522,910;29,55765
 827,08;10771,924;  296,964;35612,790;29,66081
 827,64;10742,390;  261,118;35487,747;29,75383
 828,20;10658,701;  239,580;35122,166;29,86912
 828,76;10737,320;  268,964;35188,892;29,97817
 829,32;10777,785;  276,272;34981,542;30,25913
 829,89;10677,866;  229,272;34848,191;30,18175
 830,45;10734,177;  251,503;34805,840;30,33678
 831,01;10732,027;  255,657;34690,874;30,42342
 831,57;10716,800;  257,118;34537,831;30,51186
 832,14;10730,265;  241,887;34546,942;30,57386
 832,70;10700,577;  234,503;34260,438;30,75911
 833,26;10725,427;  212,887;34083,087;31,03772
 833,82;10720,430;  241,580;34121,660;30,92924
 834,38;10779,126;  233,349;34183,001;31,06299
 834,95;10739,745;  231,041;33988,959;31,12960
 835,51;10668,441;  211,349;33844,300;31,09181
 836,07;10790,291;  246,041;33888,180;31,34239
 836,63;10840,449;  258,656;33850,522;31,50106
 837,19;10811,375;  249,503;33726,556;31,54959
 837,75;10766,379;  209,195;33442,667;31,76672
 838,32;10856,691;  258,041;33587,701;31,79945
 838,88;10894,233;  259,041;33486,197;32,00753
 839,44;10915,159;  246,887;33432,615;32,14717
 840,00;10951,932;  246,349;33356,726;32,33302
 840,56;10849,398;  225,041;33103,299;32,31423
 841,12;10864,555;  222,887;33079,640;32,38807
 841,68;10858,636;  219,733;32875,597;32,57884
 842,25;10898,178;  236,118;32940,862;32,60096
 842,81;10856,874;  217,733;32632,511;32,82188
 843,37;10884,493;  209,349;32700,392;32,85565
 843,93;10932,958;  234,579;32576,503;33,07898
 844,49;10978,654;  247,887;32638,537;33,12921
 845,05;10926,119;  210,964;32443,263;33,24353
 845,61;11032,739;  248,349;32504,758;33,43332
 846,17;10962,050;  225,964;32370,639;33,39927
 846,73;11079,284;  238,195;32263,057;33,85210
 847,29;11030,519;  223,656;32047,553;33,95833
 847,86;11020,138;  226,041;32067,202;33,89982
 848,42;10954,142;  215,733;31826,159;33,97110
 848,98;11035,145;  240,810;31801,424;34,20192
 849,54;11040,687;  222,425;31832,996;34,22356
 850,10;11068,230;  232,502;31676,723;34,46016
 850,66;10998,772;  220,733;31480,757;34,47866
 851,22;11040,699;  224,118;31414,098;34,67967
 851,78;11089,164;  261,964;31578,363;34,57358
 852,34;11060,629;  240,887;31278,320;34,86030
 852,90;11076,479;  223,964;31231,739;34,99933
 853,46;10985,098;  224,887;30953,927;35,01642
 854,02;11048,640;  240,118;31026,961;35,10760
 854,58;10938,644;  231,810;30759,610;35,07241
 855,14;10946,417;  216,964;30743,029;35,14850
 855,70;10942,497;  193,733;30599,063;35,35158
 856,26;10981,655;  237,810;30437,712;35,57576
 856,82;10975,659;  215,502;30324,054;35,73787
 857,38;10973,431;  258,656;30237,626;35,74097
 857,94;10897,051;  243,579;30083,737;35,70179
 858,50;10898,439;  244,502;30073,694;35,71648
 859,06;10851,520;  228,733;29930,113;35,76530
 859,62;10908,062;  241,271;29801,531;36,08490
 860,18;10923,527;  234,502;29588,796;36,41384
 860,74;10827,146;  205,656;29468,676;36,29663
 861,30;10797,150;  205,887;29284,633;36,42269
 861,86;10874,692;  274,041;29379,437;36,42160
 862,42;10765,234;  236,271;29162,471;36,39940
 862,98;10861,776;  256,348;29163,658;36,68770
 863,54;10747,780;  227,502;28876,616;36,72113
 864,10;10778,937;  234,194;29001,265;36,65560
 864,66;10766,403;  216,579;28799,914;36,90900
 865,22;10670,406;  233,194;28585,025;36,81318
 865,78;10695,410;  239,964;28516,752;36,97537
 866,34;10648,337;  221,656;28415,478;36,98215
 866,90;10634,571;  240,425;28320,973;37,01547
 867,45;10632,729;  235,117;28097,546;37,31768
 868,01;10671,809;  235,271;27947,888;37,65988
 868,57;10540,428;  235,502;27802,614;37,38123
 869,13;10519,509;  215,271;27682,725;37,51435
 869,69;10513,436;  222,579;27569,297;37,63105
 870,25;10562,132;  206,348;27467,793;37,98692
 870,81;10561,751;  223,579;27456,596;37,96190
 871,37;10530,985;  235,425;27348,322;37,97293
 871,93;10465,835;  249,040;27184,664;37,93042
 872,49;10400,608;  256,271;27013,160;37,91299
 873,04;10401,073;  228,271;26833,040;38,23676
 873,60;10349,846;  214,579;26649,381;38,34062
 874,16;10287,081;  239,348;26672,877;38,01132
 874,72;10317,235;  233,656;26534,338;38,33961
 875,28;10367,158;  234,579;26443,877;38,66024
 875,84;10332,235;  234,348;26347,569;38,66963
 876,40;10349,465;  231,117;26285,031;38,83619
 876,95;10350,696;  239,117;26397,723;38,65488
 877,51;10443,312;  258,425;26291,569;39,12277
 878,07;10401,465;  264,810;26318,031;38,90750
 878,63;10409,235;  233,040;26292,262;39,05026
 879,19;10447,312;  243,656;26245,262;39,24241
 879,75;10452,465;  229,117;26307,185;39,20286
 880,30;10446,004;  228,502;26332,646;39,14130
 880,86;10597,004;  272,271;26449,569;39,44155
 881,42;10587,619;  226,425;26546,800;39,36568
 881,98;10652,619;  244,194;26562,262;39,54859
 882,54;10683,619;  219,271;26599,877;39,66682
 883,09;10786,158;  242,425;26769,646;39,74684
 883,65;10835,312;  219,579;26777,877;39,97143
 884,21;11003,158;  256,194;27130,338;39,98997
 884,77;11045,696;  218,656;27104,800;40,26996
 885,32;11132,773;  229,887;27285,415;40,29818
 885,88;11201,619;  263,348;27356,031;40,37353
 886,44;11286,388;  237,348;27508,108;40,51607
 887,00;11327,850;  250,117;27509,954;40,63756
 887,56;11396,004;  226,425;27624,338;40,76799
 888,11;11432,081;  235,733;27709,415;40,75299
 888,67;11532,388;  262,502;27831,877;40,87828
 889,23;11542,927;  248,348;27862,108;40,90200
 889,79;11530,773;  219,271;27716,108;41,13747
 890,34;11587,081;  245,348;27647,262;41,39029
 890,90;11754,850;  300,656;27796,338;41,65816
 891,46;11605,542;  225,963;27674,569;41,45777
 892,01;11693,312;  253,963;27663,262;41,73528
 892,57;11628,158;  269,117;27668,338;41,45753
 893,13;11606,004;  228,887;27430,723;41,82481
 893,69;11627,773;  218,194;27336,492;42,07336
 894,24;11632,465;  234,271;27304,492;42,10603
 894,80;11616,619;  237,733;27165,954;42,25636
 895,36;11608,081;  248,579;26965,415;42,51814
 895,91;11469,927;  238,117;26828,185;42,24062
 896,47;11491,850;  246,579;26687,031;42,53056
 897,03;11445,696;  232,040;26525,569;42,64797
 897,58;11386,850;  243,194;26447,646;42,52581
 898,14;11379,850;  248,348;26272,569;42,77362
 898,70;11322,542;  209,425;26179,877;42,79139
 899,25;11393,388;  232,194;26114,954;43,12212
 899,81;11405,312;  250,425;25893,338;43,50085
 900,37;11223,235;  214,656;25744,646;43,12018
 900,92;11300,235;  242,963;25775,262;43,30700
 901,48;11214,773;  232,194;25568,185;43,34774
 902,03;11138,850;  228,425;25457,415;43,24559
 902,59;11163,927;  225,579;25299,031;43,62522
 903,15;11078,542;  256,579;25161,108;43,45380
 903,70;11005,235;  237,117;24939,800;43,59088
 904,26;11019,465;  228,117;24813,646;43,89309
 904,82;11039,465;  241,656;24794,262;43,97826
 905,37;11041,850;  243,194;24693,954;44,16491
 905,93;10971,081;  225,887;24486,569;44,29057
 906,48;10985,850;  246,963;24453,954;44,36275
 907,04;11002,312;  252,194;24380,108;44,55469
 907,60;10921,235;  234,348;24218,262;44,55856
 908,15;10960,388;  232,425;24148,569;44,85658
 908,71;10964,158;  255,733;24069,338;44,96768
 909,26;10897,927;  225,733;23896,108;45,08671
 909,82;10864,927;  254,733;23816,338;45,03171
 910,37;10919,696;  271,271;23729,954;45,39225
 910,93;10835,773;  227,810;23522,415;45,53828
 911,48;10752,850;  229,425;23429,415;45,35961
 912,04;10714,696;  229,425;23388,415;45,27517
 912,60;10783,312;  247,963;23303,954;45,69462
 913,15;10719,158;  238,887;23178,262;45,68682
 913,71;10706,696;  231,733;22948,954;46,11023
 914,26;10750,235;  209,887;22946,262;46,35896
 914,82;10738,004;  235,040;22802,338;46,54063
 915,37;10713,312;  220,348;22777,646;46,51693
 915,93;10725,312;  275,117;22773,569;46,44850
 916,48;10637,388;  227,887;22531,185;46,67248
 917,04;10623,388;  241,656;22381,415;46,89180
 917,59;10625,542;  271,117;22314,569;46,97279
 918,15;10535,619;  208,502;22112,108;47,14802
 918,70;10549,158;  226,963;22023,031;47,35806
 919,26;10501,542;  235,271;22030,262;47,10381
 919,81;10420,465;  209,810;21829,646;47,22818
 920,37;10480,235;  225,733;21741,031;47,66144
 920,92;10435,235;  246,425;21623,185;47,66302
 921,48;10376,081;  215,348;21512,108;47,71023
 922,03;10389,927;  229,040;21410,338;47,97103
 922,59;10360,619;  231,040;21317,338;48,03868
 923,14;10335,235;  222,194;21176,262;48,26290
 923,69;10299,004;  240,194;21132,877;48,14513
 924,25;10331,465;  253,194;21044,415;48,47369
 924,80;10218,927;  226,579;20868,262;48,40859
 925,36;10230,773;  211,117;20797,262;48,67184
 925,91;10161,542;  224,425;20721,262;48,48122
 926,47;10149,696;  202,040;20647,646;48,65425
 927,02;10163,312;  276,579;20512,646;48,85699
 927,57;10126,927;  228,733;20392,800;49,08828
 928,13;10108,004;  218,117;20377,415;49,05868
 928,68;10035,542;  224,194;20252,646;48,98705
 929,24;10005,927;  202,502;20031,723;49,43928
 929,79;10003,312;  217,810;19900,800;49,71552
 930,34; 9933,619;  226,425;19804,877;49,58101
 930,90; 9954,081;  217,271;19774,800;49,78548
 931,45; 9975,542;  244,887;19713,338;49,98166
 932,01; 9971,465;  231,117;19565,954;50,37719
 932,56; 9934,158;  251,348;19435,800;50,47217
 933,11; 9942,004;  251,579;19512,569;50,31115
 933,67; 9911,158;  213,502;19313,800;50,77227
 934,22; 9905,081;  234,810;19217,723;50,94198
 934,77; 9865,081;  255,656;19087,492;51,02755
 935,33; 9789,312;  239,425;19034,415;50,81081
 935,88; 9774,465;  240,963;18921,108;51,03548
 936,43; 9747,619;  230,271;18932,108;50,88991
 936,99; 9723,081;  230,502;18751,185;51,25394
 937,54; 9624,081;  206,887;18640,338;51,08752
 938,09; 9653,004;  236,887;18619,262;51,22362
 938,65; 9609,235;  236,656;18427,492;51,52363
 939,20; 9543,927;  198,963;18364,569;51,44317
 939,75; 9516,773;  214,733;18285,185;51,47652
 940,31; 9450,158;  211,887;18130,646;51,55642
 940,86; 9473,927;  226,502;18268,877;51,25392
 941,41; 9506,388;  304,656;18127,185;51,62978
 941,96; 9407,927;  219,040;17919,954;51,91193
 942,52; 9393,004;  222,194;17816,492;52,12376
 943,07; 9333,081;  211,656;17773,031;51,94027
 943,62; 9342,696;  221,194;17692,492;52,20850
 944,18; 9292,927;  200,502;17581,338;52,31293
 944,73; 9267,158;  230,502;17509,415;52,29875
 945,28; 9219,696;  201,271;17347,800;52,59621
 945,83; 9240,619;  223,733;17334,569;52,69694
 946,39; 9226,004;  221,579;17267,262;52,82525
 946,94; 9253,081;  246,194;17123,185;53,36785
 947,49; 9206,004;  214,502;17098,723;53,25387
 948,04; 9198,927;  254,425;17040,723;53,28454
 948,59; 9167,927;  245,348;16976,415;53,32941
 949,15; 9147,619;  201,040;16849,031;53,73969
 949,70; 9092,388;  215,887;16771,954;53,61480
 950,25; 9047,388;  232,579;16707,415;53,50469
 950,80; 9048,773;  192,887;16579,646;54,04294
 951,36; 9016,927;  195,887;16531,262;53,99962
 951,91; 9021,004;  237,502;16589,569;53,71493
 952,46; 8976,158;  206,887;16310,492;54,45533
 953,01; 9022,773;  243,040;16344,108;54,52889
 953,56; 8916,081;  200,656;16269,031;54,23962
 954,11; 8888,696;  235,579;16165,723;54,31914
 954,67; 8855,696;  221,194;16106,800;54,35425
 955,22; 8833,312;  200,348;15992,262;54,66699
 955,77; 8828,312;  248,733;15869,108;54,92556
 956,32; 8796,696;  271,656;15821,108;54,82534
 956,87; 8728,696;  216,194;15694,492;54,99637
 957,42; 8741,773;  209,579;15672,954;55,17679
 957,98; 8696,927;  213,348;15545,646;55,33142
 958,53; 8700,235;  251,656;15550,108;55,22506
 959,08; 8648,773;  213,502;15369,954;55,65466
 959,63; 8593,696;  212,271;15321,185;55,47338
 960,18; 8610,004;  238,656;15256,800;55,74156
 960,73; 8598,696;  227,271;15170,108;56,02300
 961,28; 8530,542;  208,963;15061,338;56,02861
 961,83; 8550,235;  239,117;15030,723;56,18807
 962,39; 8501,773;  199,348;14948,031;56,29265
 962,94; 8487,773;  235,040;14895,031;56,29426
 963,49; 8440,542;  222,733;14785,877;56,42881
 964,04; 8432,696;  234,117;14735,646;56,53596
 964,59; 8403,081;  203,348;14598,338;56,96240
 965,14; 8396,312;  239,733;14495,877;57,21448
 965,69; 8317,388;  226,656;14423,108;56,99123
 966,24; 8301,927;  221,579;14324,569;57,29528
 966,79; 8248,927;  233,502;14256,800;57,15792
 967,34; 8162,004;  203,194;14163,338;57,01094
 967,89; 8160,542;  216,963;14142,108;57,04486
 968,44; 8160,235;  227,040;14020,262;57,51517
 968,99; 8093,235;  238,887;13980,492;57,15743
 969,55; 8062,235;  234,194;13892,723;57,31247
 970,10; 8030,696;  233,348;13798,185;57,48206
 970,65; 8024,619;  240,040;13688,492;57,88457
 971,20; 7924,850;  216,348;13657,108;57,35168
 971,75; 7877,542;  202,117;13495,031;57,74073
 972,30; 7852,696;  220,040;13411,723;57,85961
 972,85; 7771,158;  209,271;13331,338;57,62725
 973,40; 7764,388;  213,887;13211,185;58,09286
 973,95; 7717,004;  231,194;13158,954;57,90493
 974,50; 7717,081;  246,502;13112,185;58,06593
 975,05; 7689,235;  224,040;12960,723;58,61176
 975,60; 7675,696;  243,271;12940,185;58,53726
 976,15; 7568,773;  216,271;12856,492;58,16751
 976,70; 7525,773;  224,733;12813,569;57,99615
 977,25; 7497,465;  232,963;12737,338;58,09568
 977,80; 7401,158;  216,040;12609,108;57,97691
 978,35; 7353,004;  244,194;12436,646;58,30500
 978,89; 7359,696;  205,579;12416,723;58,58679
 979,44; 7356,465;  224,656;12397,262;58,58901
 979,99; 7272,927;  215,348;12183,800;58,96818
 980,54; 7252,388;  242,271;12102,185;59,10766
 981,09; 7157,696;  246,579;12018,492;58,70853
 981,64; 7096,619;  227,963;11855,492;59,07236
 982,19; 7131,235;  257,810;11853,108;59,27769
 982,74; 7095,542;  238,502;11709,338;59,77803
 983,29; 6958,004;  219,810;11567,569;59,37907
 983,84; 6920,235;  235,810;11517,877;59,24823
 984,39; 6956,542;  297,040;11455,031;59,68370
 984,94; 6836,773;  208,117;11331,262;59,59336
 985,49; 6820,388;  251,425;11260,108;59,67075
 986,03; 6747,850;  250,963;11164,723;59,52932
 986,58; 6745,004;  272,117;11078,338;59,89963
 987,13; 6617,773;  233,194;10914,569;59,77301
 987,68; 6583,927;  238,963;10783,492;60,17304
 988,23; 6598,158;  253,579;10731,646;60,55104
 988,78; 6491,773;  222,810;10619,108;60,29996
 989,33; 6475,158;  251,502;10543,569;60,47041
 989,88; 6470,388;  264,963;10469,646;60,80958
 990,42; 6371,542;  235,425;10364,415;60,57975
 990,97; 6317,773;  228,579;10242,415;60,80781
 991,52; 6293,158;  253,656;10198,415;60,73050
 992,07; 6283,773;  272,656;10096,338;61,19006
 992,62; 6225,004;  241,271; 9974,338;61,47839
 993,17; 6147,850;  257,733; 9848,569;61,41401
 993,71; 6143,850;  250,271; 9817,954;61,59881
 994,26; 6021,158;  230,733; 9626,262;61,62958
 994,81; 5994,312;  258,810; 9635,262;61,16921
 995,36; 5903,081;  228,887; 9457,569;61,48434
 995,91; 5884,235;  237,810; 9411,492;61,55025
 996,45; 5862,850;  240,502; 9291,338;62,11965
 997,00; 5787,388;  216,271; 9174,877;62,18733
 997,55; 5776,158;  238,810; 9163,108;62,04800
 998,10; 5705,158;  257,579; 9031,031;62,09162
 998,65; 5655,773;  228,579; 8961,031;62,14972
 999,19; 5620,004;  255,425; 8856,569;62,37053
 999,74; 5551,004;  267,194; 8783,338;62,04462
1000,29; 5497,158;  249,579; 8710,338;62,02255
1000,84; 5400,927;  238,963; 8544,338;62,15208
1001,38; 5368,619;  240,502; 8451,569;62,45372
1001,93; 5391,004;  249,194; 8414,262;62,97327
1002,48; 5263,004;  218,579; 8240,185;62,88548
1003,03; 5274,619;  250,117; 8217,877;63,06041
1003,57; 5225,696;  239,425; 8132,415;63,17341
1004,12; 5176,235;  271,656; 8023,415;63,27052
1004,67; 5087,696;  232,502; 7896,338;63,35201
1005,22; 5014,235;  219,733; 7790,723;63,32728
1005,76; 4928,542;  218,963; 7644,338;63,42547
1006,31; 4932,465;  246,502; 7624,185;63,51538
1006,86; 4854,004;  233,502; 7478,646;63,77377
1007,40; 4753,696;  216,579; 7400,800;63,15392
1007,95; 4727,235;  235,502; 7289,185;63,67926
1008,50; 4661,004;  244,425; 7210,492;63,40132
1009,04; 4620,465;  231,656; 7102,031;63,88020
1009,59; 4544,388;  243,733; 6969,262;63,94524
1010,14; 4467,542;  221,810; 6848,877;64,06654
1010,68; 4443,312;  233,656; 6776,415;64,34068
1011,23; 4388,619;  229,656; 6692,031;64,35658
1011,78; 4350,927;  249,579; 6658,415;63,99520
1012,32; 4309,850;  255,887; 6525,723;64,65820
1012,87; 4279,850;  259,502; 6550,492;63,90644
1013,42; 4197,773;  222,963; 6384,338;64,51173
1013,96; 4231,542;  265,733; 6379,723;64,86451
1014,51; 4164,696;  194,194; 6280,877;65,23261
1015,06; 4141,081;  204,348; 6287,954;64,71052
1015,60; 4234,696;  271,425; 6351,492;65,18466
1016,15; 4189,850;  229,348; 6284,108;65,41138
1016,69; 4210,773;  236,348; 6322,877;65,29871
1017,24; 4221,004;  214,733; 6312,262;65,70319
1017,79; 4280,312;  264,040; 6395,800;65,49949
1018,33; 4254,465;  224,271; 6389,492;65,36982
1018,88; 4289,312;  246,963; 6421,569;65,46731
1019,42; 4357,773;  231,887; 6428,877;66,57888
1019,97; 4305,542;  223,117; 6424,492;65,83096
1020,51; 4363,312;  257,810; 6518,415;65,57675
1021,06; 4350,465;  227,040; 6444,415;66,32100
1021,61; 4317,927;  202,040; 6436,646;66,01679
1022,15; 4340,235;  193,040; 6387,723;66,94765
1022,70; 4347,004;  231,348; 6428,954;66,40719
1023,24; 4324,850;  218,040; 6360,723;66,85694
1023,79; 4303,696;  225,733; 6285,185;67,29921
1024,33; 4283,619;  238,502; 6243,723;67,36001
1024,88; 4214,465;  237,810; 6147,646;67,28876
1025,42; 4133,465;  227,810; 6068,800;66,86633
1025,97; 4083,542;  222,425; 5988,262;66,96543
1026,51; 4016,235;  185,733; 5866,185;67,43305
1027,06; 3985,158;  216,887; 5799,877;67,49557
1027,60; 3949,465;  230,887; 5729,877;67,62294
1028,15; 3908,081;  239,579; 5657,954;67,70484
1028,69; 3787,542;  197,810; 5499,492;67,70931
1029,24; 3754,312;  205,579; 5504,108;66,97581
1029,78; 3711,696;  220,810; 5407,954;67,29881
1030,33; 3630,927;  204,810; 5274,415;67,58153
1030,87; 3602,004;  217,271; 5212,646;67,75733
1031,42; 3549,927;  210,579; 5106,108;68,21220
1031,96; 3536,927;  233,117; 5087,108;68,06379
1032,51; 3477,081;  210,810; 4997,877;68,23115
1033,05; 3461,004;  221,425; 4939,492;68,66326
1033,60; 3380,081;  193,502; 4842,108;68,54913
1034,14; 3307,388;  217,194; 4740,338;68,31960
1034,69; 3306,850;  217,810; 4734,800;68,38714
1035,23; 3282,004;  223,963; 4670,338;68,77603
1035,77; 3223,312;  206,348; 4589,723;68,82741
1036,32; 3158,158;  202,348; 4498,723;68,79776
1036,86; 3122,542;  223,887; 4455,338;68,50263
1037,41; 3104,235;  235,579; 4392,646;69,00672
1037,95; 3039,773;  202,194; 4299,262;69,25878
1038,50; 2989,312;  213,425; 4267,262;68,47554
1039,04; 2970,312;  234,425; 4237,492;68,34475
1039,58; 2907,619;  195,963; 4155,415;68,48563
1040,13; 2878,465;  223,194; 4076,954;68,90080
1040,67; 2894,542;  252,271; 4112,800;68,44324
1041,21; 2833,158;  254,502; 4004,954;68,75587
1041,76; 2769,927;  203,502; 3916,723;69,11587
1042,30; 2754,158;  213,579; 3875,800;69,37262
1042,85; 2696,004;  214,579; 3803,877;69,13399
1043,39; 2659,773;  204,656; 3776,262;68,73987
1043,93; 2637,696;  242,887; 3720,185;68,86984
1044,48; 2608,465;  232,887; 3651,646;69,48657
1045,02; 2608,773;  228,810; 3589,954;70,80813
1045,56; 2570,696;  236,040; 3571,723;69,99034
1046,11; 2534,004;  223,425; 3528,877;69,90206
1046,65; 2488,773;  226,963; 3464,800;69,85558
1047,19; 2447,927;  219,656; 3415,108;69,73258
1047,74; 2445,158;  205,271; 3355,185;71,10946
1048,28; 2403,312;  237,887; 3336,031;69,89426
1048,82; 2401,927;  243,117; 3300,800;70,60280
1049,37; 2358,465;  236,579; 3249,646;70,42281
1049,91; 2326,081;  228,425; 3218,492;70,15413
1050,45; 2296,619;  236,425; 3167,569;70,28635
1050,99; 2275,465;  230,963; 3094,031;71,40950
1051,54; 2242,004;  212,656; 3051,338;71,48908
1052,08; 2228,850;  250,810; 3051,031;70,63872
1052,62; 2206,850;  245,040; 2967,262;72,06650
1053,16; 2182,619;  220,502; 2939,031;72,17570
1053,71; 2151,158;  231,348; 2928,800;71,17123
1054,25; 2129,927;  250,348; 2871,723;71,70202
1054,79; 2100,235;  236,194; 2834,723;71,73445
1055,33; 2040,004;  205,425; 2745,338;72,22997
1055,88; 2060,312;  227,733; 2742,031;72,88630
1056,42; 2064,004;  248,271; 2701,108;74,02583
1056,96; 2009,004;  240,579; 2691,954;72,14013
1057,50; 1995,927;  231,117; 2631,646;73,51753
1058,05; 1938,773;  230,194; 2593,492;72,29638
1058,59; 1938,312;  261,040; 2549,723;73,28544
1059,13; 1871,235;  220,963; 2494,877;72,57405
1059,67; 1896,081;  243,040; 2494,877;73,40854
1060,21; 1836,388;  227,502; 2447,338;72,47770
1060,76; 1825,235;  240,963; 2425,646;72,51722
1061,30; 1812,081;  260,040; 2402,108;72,45526
1061,84; 1790,004;  229,425; 2340,569;73,92100
1062,38; 1738,388;  224,963; 2288,569;73,33886
1062,92; 1755,004;  266,348; 2291,569;73,50584
1063,46; 1710,850;  242,502; 2226,338;74,01558
1064,01; 1689,773;  221,579; 2198,954;74,24966
1064,55; 1668,465;  237,271; 2185,185;73,47319
1065,09; 1621,388;  209,502; 2115,800;74,06431
1065,63; 1650,619;  256,656; 2158,185;73,30751
1066,17; 1638,312;  264,810; 2132,108;73,55558
1066,71; 1615,004;  244,733; 2082,262;74,57141
1067,25; 1569,004;  235,733; 2033,262;74,17245
1067,80; 1573,927;  249,810; 2043,492;73,82116
1068,34; 1573,158;  265,271; 2001,723;75,31948
1068,88; 1520,850;  232,502; 1952,262;74,91443
1069,42; 1545,312;  263,810; 1965,877;75,29091
1069,96; 1487,081;  228,194; 1935,415;73,73893
1070,50; 1517,465;  274,117; 1929,108;75,12721
1071,04; 1459,927;  226,117; 1859,031;75,55879
1071,58; 1449,773;  233,271; 1835,646;75,91868
1072,12; 1419,158;  241,040; 1829,108;74,18560
1072,66; 1430,004;  227,656; 1794,877;76,71847
1073,21; 1419,542;  263,579; 1804,108;75,03679
1073,75; 1394,388;  238,656; 1770,108;75,46647
1074,29; 1374,081;  239,040; 1763,492;74,45564
1074,83; 1384,312;  255,656; 1743,415;75,86278
1075,37; 1391,619;  259,656; 1720,185;77,50367
1075,91; 1327,081;  253,040; 1706,492;73,89583
1076,45; 1331,312;  243,194; 1687,877;75,31878
1076,99; 1330,696;  248,502; 1652,185;77,09679
1077,53; 1273,312;  221,502; 1613,492;75,56156
1078,07; 1274,773;  246,887; 1641,646;73,69632
1078,61; 1274,542;  244,887; 1574,723;77,42724
1079,15; 1243,004;  236,271; 1582,569;74,77785
1079,69; 1235,158;  237,271; 1560,108;75,43536
1080,23; 1241,388;  266,810; 1560,646;75,32473
1080,77; 1262,619;  285,502; 1570,800;76,02262
1081,31; 1210,158;  228,579; 1496,492;77,41686
1081,85; 1199,312;  243,810; 1501,954;75,94534
1082,39; 1170,773;  232,194; 1446,031;77,32333
1082,93; 1176,158;  250,887; 1446,800;77,36941
1083,47; 1150,542;  234,117; 1421,415;77,18576
1084,01; 1152,312;  253,810; 1440,415;75,72034
1084,55; 1124,542;  233,963; 1397,185;76,56144
1085,09; 1139,004;  255,040; 1391,646;77,77221
1085,63; 1103,388;  245,579; 1357,108;77,17385
1086,17; 1092,696;  233,502; 1338,415;77,76122
1086,71; 1070,773;  231,425; 1309,723;77,84008
1087,24; 1088,773;  266,502; 1353,877;75,61983
1087,78; 1075,773;  255,963; 1318,492;77,15646
1088,32; 1030,542;  226,271; 1264,415;77,47201
1088,86; 1052,927;  255,733; 1294,415;76,75051
1089,40; 1027,465;  243,348; 1259,723;77,14843
1089,94;  991,465;  225,348; 1232,954;76,03344
1090,48; 1011,081;  257,733; 1234,185;77,15158
1091,02; 1012,927;  253,963; 1229,800;77,77568
1091,56;  993,619;  252,656; 1207,338;77,61358
1092,10;  948,081;  228,348; 1182,646;75,42011
1092,63;  977,465;  257,963; 1209,723;75,59702
1093,17;  971,004;  256,502; 1174,185;77,85937
1093,71;  934,081;  238,194; 1144,338;76,79644
1094,25;  969,696;  257,425; 1153,492;79,48858
1094,79;  928,312;  248,425; 1127,800;77,31474
1095,33;  920,927;  256,271; 1120,031;76,94916
1095,87;  910,927;  251,425; 1102,492;77,49116
1096,40;  890,081;  223,963; 1088,492;77,04975
1096,94;  912,158;  242,117; 1075,877;80,36374
1097,48;  890,158;  252,040; 1080,031;77,06820
1098,02;  872,773;  245,040; 1037,646;79,19860
1098,56;  844,235;  212,348; 1026,800;77,58427
1099,10;  821,850;  227,348; 1004,877;76,46043
1099,63;  841,850;  233,040;  997,723;79,61598
1100,17;  849,158;  248,963; 1012,646;78,59210
1100,71;  865,235;  262,733; 1020,338;79,52710

