
Integration time [ms]: 120,000
Averaging Nr. [scans]: 13
Smoothing Nr. [pixels]: 0
Data measured with spectrometer [name]: 2009305U1
Wave   ;Sample   ;Dark     ;Reference;Reflectance
[nm]   ;[counts] ;[counts] ;[counts] ;[%]

 175,72;  201,887;  214,011;  210,491; 0,00000
 176,32;  235,003;  234,854;  221,035; 0,00000
 176,92;  257,264;  252,010;  252,105; 0,00000
 177,52;  257,441;  257,703;  269,755;-2,17479
 178,12;  238,512;  259,162;  226,222; 0,00000
 178,72;  269,918;  267,700;  262,977; 0,00000
 179,32;  262,447;  267,008;  252,990; 0,00000
 179,92;  248,085;  252,086;  260,981;-44,97920
 180,52;  251,485;  237,474;  255,204;79,02501
 181,12;  254,373;  264,779;  246,111; 0,00000
 181,73;  273,367;  271,317;  278,774;27,49027
 182,33;  352,723;  340,858;  349,872;131,62450
 182,93;  272,906;  273,087;  278,576;-3,30059
 183,53;  236,595;  244,776;  235,582; 0,00000
 184,13;  234,863;  240,007;  242,458;-209,93587
 184,73;  273,478;  276,391;  275,425; 0,00000
 185,33;  274,357;  235,450;  343,179;36,11542
 185,93;  281,987;  251,371;  366,993;26,47892
 186,53;  297,376;  264,296;  383,324;27,79241
 187,13;  327,269;  281,913;  402,614;37,57719
 187,73;  288,208;  244,295;  367,374;35,67855
 188,33;  298,976;  247,370;  376,787;39,87555
 188,93;  295,191;  256,828;  379,932;31,16313
 189,53;  302,531;  255,441;  383,528;36,76413
 190,13;  340,970;  286,282;  413,440;43,00767
 190,73;  267,331;  230,670;  367,501;26,79293
 191,34;  311,182;  264,519;  392,473;36,46835
 191,94;  290,734;  250,061;  358,025;37,67226
 192,54;  320,566;  255,069;  412,450;41,61713
 193,14;  314,733;  270,067;  393,208;36,27189
 193,74;  314,560;  258,913;  388,839;42,82999
 194,34;  300,798;  265,375;  387,456;29,01565
 194,94;  275,352;  225,298;  364,182;36,04025
 195,54;  255,462;  208,066;  338,321;36,38745
 196,14;  276,673;  238,222;  374,307;28,25505
 196,74;  271,782;  230,758;  370,073;29,44700
 197,34;  255,382;  208,454;  361,345;30,69403
 197,94;  282,917;  243,683;  382,730;28,21661
 198,54;  289,501;  244,914;  393,339;30,03983
 199,14;  280,442;  217,916;  394,871;35,33413
 199,74;  268,976;  208,609;  371,590;37,03966
 200,34;  279,025;  197,455;  397,849;40,70490
 200,94;  304,917;  244,838;  422,816;33,75600
 201,54;  281,844;  218,531;  427,054;30,36268
 202,14;  323,101;  237,763;  478,271;35,48212
 202,74;  301,776;  222,455;  491,403;29,49309
 203,34;  301,642;  199,611;  485,145;35,73348
 203,94;  275,619;  171,302;  499,632;31,77200
 204,54;  348,919;  250,990;  582,263;29,56134
 205,14;  315,808;  201,839;  591,288;29,26416
 205,74;  369,035;  250,149;  673,170;28,10396
 206,34;  343,086;  217,610;  685,661;26,80832
 206,94;  372,965;  223,994;  767,684;27,39994
 207,54;  355,270;  195,609;  803,859;26,24926
 208,14;  385,301;  211,917;  871,919;26,27018
 208,74;  398,300;  210,147;  953,332;25,31713
 209,34;  416,774;  211,686; 1030,270;25,05402
 209,94;  455,841;  227,224; 1107,404;25,97385
 210,54;  456,210;  224,456; 1213,557;23,43079
 211,14;  487,618;  219,378; 1305,660;24,69342
 211,73;  513,688;  217,608; 1452,751;23,97134
 212,33;  547,767;  227,377; 1547,098;24,27710
 212,93;  561,231;  212,531; 1631,895;24,56732
 213,53;  539,988;  184,455; 1698,742;23,47861
 214,13;  583,896;  201,765; 1768,735;24,38659
 214,73;  580,639;  205,686; 1818,655;23,24611
 215,33;  566,302;  170,070; 1843,865;23,67267
 215,93;  613,083;  215,533; 1939,797;23,05620
 216,53;  614,144;  171,916; 2008,260;24,08198
 217,13;  712,957;  218,225; 2228,230;24,61346
 217,73;  730,075;  197,226; 2419,695;23,97555
 218,33;  789,139;  167,689; 2608,289;25,46301
 218,93;  894,384;  193,075; 2925,847;25,66289
 219,53;  980,212;  187,919; 3199,315;26,30981
 220,13; 1060,973;  160,997; 3492,152;27,01695
 220,73; 1194,910;  196,301; 3855,225;27,29241
 221,32; 1349,992;  196,224; 4241,486;28,52148
 221,92; 1481,275;  194,535; 4611,645;29,13081
 222,52; 1609,506;  175,534; 5028,421;29,54886
 223,12; 1766,956;  188,611; 5452,883;29,98221
 223,72; 1914,721;  193,149; 5839,909;30,48778
 224,32; 2063,976;  201,457; 6225,846;30,91631
 224,92; 2207,247;  187,995; 6528,218;31,84828
 225,52; 2362,807;  204,225; 6824,864;32,60383
 226,12; 2471,405;  197,995; 7150,236;32,70039
 226,72; 2602,670;  170,610; 7430,639;33,49931
 227,31; 2770,710;  166,918; 7784,703;34,18044
 227,91; 2980,501;  199,224; 8174,074;34,87560
 228,51; 3131,358;  190,762; 8542,716;35,20848
 229,11; 3290,777;  200,610; 8901,221;35,51667
 229,71; 3464,276;  190,147; 9201,856;36,33194
 230,31; 3655,394;  176,996; 9611,594;36,86853
 230,91; 3826,942;  180,376; 9901,870;37,51035
 231,51; 3973,039;  172,918;10149,144;38,09177
 232,10; 4159,406;  179,689;10549,763;38,37694
 232,70; 4367,952;  187,529;10728,456;39,65896
 233,30; 4533,249;  211,687;11067,642;39,80821
 233,90; 4613,982;  185,456;11173,783;40,30209
 234,50; 4752,943;  186,380;11254,406;41,25906
 235,10; 4844,709;  185,611;11410,449;41,50704
 235,70; 4986,179;  196,070;11478,618;42,45591
 236,29; 4965,521;  198,301;11520,004;42,10691
 236,89; 4961,062;  177,761;11422,929;42,53650
 237,49; 5019,848;  191,072;11328,499;43,35630
 238,09; 4996,933;  187,917;11123,585;43,97551
 238,69; 4893,515;  216,068;10997,794;43,38310
 239,29; 4842,722;  181,686;10689,070;44,35962
 239,89; 4701,560;  195,299;10454,865;43,92253
 240,48; 4521,896;  185,225;10118,418;43,65838
 241,08; 4341,774;  193,763; 9742,825;43,43894
 241,68; 4197,097;  213,763; 9520,143;42,80218
 242,28; 4027,125;  178,995; 9134,763;42,96818
 242,88; 3876,430;  227,611; 8920,992;41,97238
 243,48; 3686,929;  223,533; 8575,165;41,46969
 244,07; 3518,772;  203,532; 8415,676;40,36997
 244,67; 3385,908;  202,841; 8270,125;39,45650
 245,27; 3244,996;  220,454; 8104,289;38,36384
 245,87; 3124,527;  209,534; 8052,016;37,16927
 246,47; 3018,956;  203,454; 8026,533;35,98968
 247,06; 2901,704;  192,917; 8066,640;34,40287
 247,66; 2826,034;  189,225; 8140,829;33,16071
 248,26; 2809,302;  214,147; 8246,541;32,30861
 248,86; 2742,024;  204,377; 8416,278;30,90207
 249,46; 2668,350;  163,226; 8637,810;29,56044
 250,05; 2674,904;  200,225; 9001,750;28,11648
 250,65; 2647,093;  180,146; 9283,159;27,10033
 251,25; 2639,801;  186,609; 9749,741;25,65259
 251,85; 2701,736;  200,838;10301,961;24,75862
 252,44; 2677,956;  165,147;10896,011;23,41665
 253,04; 2767,679;  199,916;11586,994;22,54979
 253,64; 2788,556;  155,377;12285,600;21,70759
 254,24; 2893,370;  207,379;13194,570;20,68185
 254,84; 2973,119;  178,226;14003,964;20,21515
 255,43; 3061,120;  184,455;14937,800;19,49839
 256,03; 3193,775;  188,992;15838,293;19,20075
 256,63; 3283,718;  193,992;16841,839;18,55931
 257,23; 3391,805;  186,761;17628,321;18,37590
 257,82; 3542,806;  195,299;18538,267;18,24954
 258,42; 3585,646;  162,990;19328,589;17,85833
 259,02; 3773,665;  209,301;20139,462;17,88427
 259,62; 3850,330;  180,221;20731,471;17,85832
 260,21; 3995,051;  194,685;21289,210;18,01589
 260,81; 4102,643;  184,071;21702,030;18,21070
 261,41; 4203,016;  174,606;22078,227;18,39153
 262,01; 4343,428;  221,682;22455,243;18,53840
 262,60; 4461,267;  173,146;22837,551;18,92007
 263,20; 4617,443;  180,300;23017,834;19,42917
 263,80; 4763,414;  212,297;23269,479;19,73839
 264,40; 4877,178;  179,605;23417,988;20,21471
 264,99; 4996,042;  197,605;23557,247;20,54157
 265,59; 5155,911;  173,065;23634,504;21,23845
 266,19; 5296,487;  175,220;23791,813;21,68504
 266,78; 5503,084;  219,527;23890,966;22,32039
 267,38; 5606,996;  190,604;23883,007;22,86131
 267,98; 5755,229;  178,373;23945,249;23,46483
 268,58; 5897,729;  196,219;23961,147;23,99128
 269,17; 6022,086;  181,526;23839,644;24,68734
 269,77; 6135,329;  194,607;23667,926;25,30840
 270,37; 6189,104;  171,759;23642,100;25,63808
 270,96; 6338,865;  220,837;23534,837;26,24186
 271,56; 6389,374;  185,069;23236,441;26,91512
 272,16; 6465,816;  179,683;23018,809;27,52353
 272,75; 6567,672;  201,914;22979,060;27,94801
 273,35; 6708,871;  197,760;22937,037;28,63376
 273,95; 6802,361;  193,144;22835,086;29,19015
 274,54; 6919,582;  178,456;22986,372;29,55608
 275,14; 7212,999;  202,453;23256,121;30,40968
 275,74; 7323,409;  173,606;23292,559;30,92615
 276,33; 7604,197;  226,684;23662,406;31,47978
 276,93; 7808,667;  196,687;23913,182;32,09572
 277,53; 8075,363;  199,608;24534,799;32,36364
 278,12; 8344,884;  170,454;25029,700;32,88286
 278,72; 8747,433;  220,070;25611,676;33,58340
 279,32; 9023,966;  187,070;26204,399;33,96542
 279,91; 9398,804;  181,377;26885,050;34,51745
 280,51; 9750,952;  188,224;27319,345;35,24634
 281,11;10187,998;  188,762;28027,807;35,91803
 281,70;10434,322;  172,300;28516,318;36,20525
 282,30;10823,374;  167,761;29008,980;36,94578
 282,90;11150,473;  183,530;29518,614;37,38507
 283,49;11542,175;  205,760;29882,679;38,19943
 284,09;11992,909;  215,684;30373,638;39,05180
 284,69;12290,992;  211,147;30792,239;39,50103
 285,28;12672,066;  202,300;31094,996;40,36477
 285,88;13000,684;  247,452;31228,136;41,16511
 286,47;13224,246;  203,684;31397,204;41,74124
 287,07;13543,739;  224,916;31454,989;42,64743
 287,67;13886,852;  212,456;31525,935;43,66936
 288,26;14199,014;  191,070;31458,104;44,80100
 288,86;14458,040;  185,915;31527,080;45,53795
 289,46;14967,334;  194,608;31602,333;47,03533
 290,05;15372,112;  179,994;31644,792;48,28290
 290,65;15795,801;  188,530;31961,330;49,12148
 291,24;16278,763;  197,531;32071,772;50,45213
 291,84;16807,179;  210,376;32187,916;51,90144
 292,44;17152,297;  197,687;32306,192;52,80411
 293,03;17633,745;  256,993;32436,881;53,99880
 293,63;18032,744;  192,530;32589,832;55,06697
 294,22;18454,016;  223,916;32787,544;55,98301
 294,82;18732,536;  189,298;32749,534;56,95057
 295,41;18784,706;  178,377;32409,549;57,72775
 296,01;19107,008;  233,298;32385,570;58,70102
 296,61;19116,903;  208,916;32144,624;59,20641
 297,20;19077,168;  197,375;31749,385;59,83705
 297,80;19128,025;  208,763;31707,096;60,06433
 298,39;19053,967;  181,530;31272,269;60,70115
 298,99;19088,363;  218,914;31171,619;60,96220
 299,58;19012,066;  210,610;31033,330;60,99869
 300,18;18955,969;  220,225;30806,427;61,25554
 300,78;18795,618;  199,378;30449,890;61,47413
 301,37;18877,699;  207,451;30432,521;61,77074
 301,97;18873,836;  206,454;30430,936;61,76246
 302,56;18798,584;  188,992;30386,632;61,62598
 303,16;18810,019;  176,837;30333,084;61,78880
 303,75;18769,924;  193,763;30285,065;61,73266
 304,35;18960,018;  186,380;30508,043;61,91494
 304,94;18900,194;  203,993;30569,558;61,57041
 305,54;18866,762;  216,608;30541,178;61,50179
 306,13;18739,413;  174,611;30450,525;61,31872
 306,73;18590,397;  178,225;30252,904;61,22151
 307,33;18601,823;  199,994;30222,023;61,29442
 307,92;18536,859;  201,916;30257,048;61,00437
 308,52;18770,470;  169,760;30726,910;60,87187
 309,11;18971,368;  184,221;31172,556;60,62651
 309,71;19068,447;  163,374;31424,518;60,47467
 310,30;19150,541;  177,224;31627,643;60,32771
 310,90;19268,541;  210,300;32022,412;59,90875
 311,49;19273,494;  194,839;32175,456;59,65693
 312,09;19265,774;  164,994;32204,056;59,61717
 312,68;19408,450;  252,685;32703,819;59,02957
 313,28;19329,012;  169,993;32749,894;58,80625
 313,87;19287,779;  163,916;32908,745;58,40270
 314,47;19268,033;  188,298;33239,584;57,72766
 315,06;19234,257;  169,839;33319,657;57,50987
 315,66;19105,390;  182,455;33472,056;56,84338
 316,25;18957,220;  167,299;33362,117;56,60498
 316,85;18811,865;  169,532;33522,281;55,89444
 317,44;18785,551;  180,990;33591,852;55,68417
 318,04;18553,894;  168,299;33530,704;55,10872
 318,63;18379,646;  172,149;33780,949;54,17479
 319,22;18255,940;  199,991;33815,029;53,71390
 319,82;18111,572;  180,300;33826,265;53,29398
 320,41;17894,489;  206,684;33832,818;52,60136
 321,01;17741,885;  198,763;34009,304;51,88655
 321,60;17547,008;  187,454;34014,887;51,31798
 322,20;17393,448;  179,839;33994,132;50,90631
 322,79;17275,660;  219,685;34137,856;50,28566
 323,39;17077,573;  198,610;34160,862;49,69919
 323,98;16837,915;  167,839;34069,793;49,17143
 324,58;16653,489;  176,760;34045,955;48,64812
 325,17;16438,212;  186,914;33877,862;48,23639
 325,76;16090,747;  211,223;33732,398;47,37162
 326,36;15768,215;  165,994;33385,708;46,96676
 326,95;15465,326;  212,531;33068,215;46,42361
 327,55;15078,540;  180,915;32656,611;45,87315
 328,14;14686,186;  180,686;32347,296;45,09490
 328,74;14411,203;  212,915;32037,375;44,61439
 329,33;14047,106;  201,378;31622,900;44,06447
 329,92;13640,111;  174,067;31077,948;43,57396
 330,52;13192,522;  195,994;30413,899;43,00936
 331,11;12825,180;  191,531;30040,471;42,32529
 331,71;12396,265;  182,839;29481,743;41,68561
 332,30;12006,964;  202,300;28987,558;41,00941
 332,89;11717,982;  234,224;28535,328;40,57707
 333,49;11338,959;  190,300;28010,722;40,07365
 334,08;11005,522;  191,915;27613,335;39,43489
 334,68;10693,961;  195,223;27126,085;38,98404
 335,27;10402,113;  211,533;26843,055;38,26511
 335,86;10151,026;  231,915;26509,548;37,74735
 336,46; 9897,548;  202,764;26375,601;37,04140
 337,05; 9707,989;  182,838;26198,842;36,61266
 337,65; 9452,748;  171,300;26069,592;35,83807
 338,24; 9345,630;  225,916;25957,889;35,44118
 338,83; 9186,355;  211,609;25960,928;34,85430
 339,43; 9072,809;  173,607;25897,586;34,59497
 340,02; 8930,825;  182,760;25765,097;34,19572
 340,61; 8821,470;  182,839;25888,382;33,60610
 341,21; 8706,973;  219,838;25863,991;33,09579
 341,80; 8563,408;  185,684;25785,399;32,72585
 342,40; 8478,939;  197,148;25992,092;32,10626
 342,99; 8390,906;  194,993;25933,790;31,84264
 343,58; 8320,645;  187,301;26161,746;31,31287
 344,18; 8211,189;  198,532;26237,792;30,77145
 344,77; 8161,078;  182,683;26542,732;30,26699
 345,36; 8156,556;  170,069;26864,292;29,91841
 345,96; 8173,912;  210,301;27234,220;29,46875
 346,55; 8079,008;  174,918;27441,869;28,98780
 347,14; 8125,147;  161,840;27771,304;28,84267
 347,74; 8129,590;  156,458;28145,362;28,48676
 348,33; 8192,746;  186,689;28707,341;28,07109
 348,92; 8267,731;  195,920;29365,093;27,67240
 349,52; 8243,734;  165,920;29764,897;27,29086
 350,11; 8227,379;  184,606;30038,993;26,94000
 350,70; 8199,338;  177,147;30054,247;26,85064
 351,29; 7957,816;  169,681;29940,415;26,16037
 351,89; 7921,889;  203,913;29866,511;26,01922
 352,48; 7828,514;  165,916;29935,189;25,73996
 353,07; 7723,376;  194,148;29823,556;25,41133
 353,67; 7596,678;  200,997;29713,261;25,05969
 354,26; 7496,627;  198,917;29488,810;24,91545
 354,85; 7426,382;  193,302;29422,646;24,74595
 355,45; 7282,981;  174,684;29183,647;24,50380
 356,04; 7181,382;  173,533;29054,525;24,26457
 356,63; 7048,607;  210,915;28904,684;23,82988
 357,22; 6984,434;  193,605;28869,734;23,68112
 357,82; 6893,504;  193,759;28557,879;23,62049
 358,41; 6817,909;  207,762;28547,116;23,32497
 359,00; 6798,058;  174,607;28296,092;23,55299
 359,60; 6718,458;  194,608;28288,921;23,22125
 360,19; 6596,385;  201,687;28002,597;23,00176
 360,78; 6606,097;  194,530;27936,809;23,11117
 361,37; 6518,631;  194,300;27711,758;22,98298
 361,97; 6474,844;  197,377;27527,653;22,96891
 362,56; 6399,442;  180,299;27236,461;22,98605
 363,15; 6356,625;  225,838;27027,789;22,87440
 363,74; 6244,124;  192,529;26720,347;22,81226
 364,34; 6183,351;  213,530;26316,252;22,87049
 364,93; 6092,861;  189,222;25886,940;22,97340
 365,52; 5994,103;  160,223;25558,163;22,96989
 366,11; 5943,845;  190,530;25238,522;22,96917
 366,71; 5888,786;  190,530;24836,259;23,12066
 367,30; 5848,597;  195,992;24520,356;23,23845
 367,89; 5844,829;  231,994;24276,421;23,34360
 368,48; 5762,346;  191,914;24039,399;23,35857
 369,07; 5672,031;  199,147;23550,247;23,43737
 369,67; 5656,059;  215,375;23316,747;23,55134
 370,26; 5650,176;  192,070;22970,222;23,96203
 370,85; 5551,469;  194,300;22808,426;23,68948
 371,44; 5526,273;  193,531;22547,537;23,85587
 372,03; 5523,600;  169,684;22257,143;24,23962
 372,63; 5509,417;  163,069;21982,440;24,50276
 373,22; 5490,061;  177,531;21741,752;24,63585
 373,81; 5427,989;  160,300;21415,612;24,78293
 374,40; 5461,896;  171,148;21239,725;25,11203
 374,99; 5417,765;  172,992;20929,180;25,26848
 375,59; 5424,659;  176,917;20639,602;25,64542
 376,18; 5476,929;  211,607;20573,354;25,85889
 376,77; 5463,492;  199,531;20440,307;26,00671
 377,36; 5517,030;  214,838;20258,752;26,45288
 377,95; 5493,086;  205,299;20033,619;26,66785
 378,55; 5473,809;  179,917;19882,074;26,86961
 379,14; 5524,396;  196,146;19750,092;27,24898
 379,73; 5590,540;  194,299;19681,440;27,69129
 380,32; 5661,939;  198,762;19774,467;27,90795
 380,91; 5670,162;  174,606;19592,048;28,30216
 381,50; 5768,592;  192,376;19510,641;28,86499
 382,10; 5754,708;  174,916;19439,929;28,96335
 382,69; 5832,265;  156,531;19346,111;29,57717
 383,28; 5915,920;  211,299;19309,219;29,87038
 383,87; 5947,422;  187,684;19220,437;30,26224
 384,46; 5993,745;  181,451;19105,130;30,71439
 385,05; 6082,420;  212,453;19159,596;30,98075
 385,64; 6146,230;  187,299;19117,061;31,47916
 386,24; 6191,983;  162,682;19102,309;31,83432
 386,83; 6345,945;  206,220;19170,224;32,37568
 387,42; 6442,452;  205,684;19213,959;32,81081
 388,01; 6609,790;  203,835;19424,021;33,32931
 388,60; 6774,399;  190,682;19714,984;33,72062
 389,19; 6913,884;  179,294;19877,154;34,18945
 389,78; 7103,309;  180,756;20081,850;34,78479
 390,37; 7373,527;  237,989;20500,938;35,21471
 390,96; 7483,856;  194,067;20605,686;35,71392
 391,56; 7666,877;  186,602;20828,246;36,23876
 392,15; 7814,896;  180,295;21066,263;36,55373
 392,74; 7963,964;  160,599;21195,009;37,09809
 393,33; 8179,033;  190,294;21529,532;37,43685
 393,92; 8435,702;  195,445;21971,070;37,84166
 394,51; 8634,521;  171,678;22011,525;38,74955
 395,10; 8840,289;  212,980;22320,561;39,02421
 395,69; 8982,435;  197,980;22370,861;39,61801
 396,28; 9107,093;  206,671;22541,372;39,85020
 396,87; 9250,461;  206,976;22536,878;40,49944
 397,46; 9434,121;  212,051;22681,522;41,04267
 398,06; 9617,866;  215,202;22883,559;41,47925
 398,65; 9741,351;  205,812;22987,241;41,85663
 399,24; 9929,931;  214,965;23177,174;42,30850
 399,83;10015,378;  181,341;23191,498;42,73781
 400,42;10236,889;  227,642;23303,087;43,37618
 401,01;10419,030;  208,095;23360,851;44,10246
 401,60;10512,301;  213,699;23426,923;44,36524
 402,19;10623,656;  236,228;23302,605;45,03277
 402,78;10713,157;  237,521;23374,864;45,27588
 403,37;10726,302;  229,585;23262,227;45,57322
 403,96;10760,047;  229,339;23087,261;46,07028
 404,55;10862,064;  222,244;23012,735;46,68535
 405,14;10898,423;  210,382;22907,620;47,08961
 405,73;10906,639;  225,825;22750,232;47,41885
 406,32;11040,740;  236,505;22705,050;48,08605
 406,91;10986,794;  232,721;22386,749;48,54229
 407,50;11027,346;  221,867;22256,863;49,03781
 408,09;11082,250;  206,708;22011,041;49,87789
 408,68;11067,106;  221,012;21957,970;49,89702
 409,27;11029,666;  202,556;21688,442;50,39173
 409,86;11112,921;  219,259;21532,125;51,11308
 410,45;11218,227;  239,038;21510,112;51,61558
 411,04;11228,011;  249,971;21493,166;51,67791
 411,63;11172,052;  245,060;21150,964;52,26749
 412,22;11147,880;  233,610;20948,065;52,68915
 412,81;11074,825;  252,076;20697,197;52,93561
 413,40;10996,214;  255,158;20348,179;53,45665
 413,99;10926,597;  301,233;20118,113;53,61774
 414,58;10750,863;  221,080;19696,334;54,06750
 415,17;10761,667;  233,922;19499,762;54,64462
 415,76;10785,151;  227,841;19327,113;55,27598
 416,35;10729,780;  215,843;19197,441;55,39016
 416,94;10866,941;  249,072;19219,494;55,97065
 417,53;11153,038;  220,076;19349,245;57,15335
 418,12;11209,996;  219,539;19529,697;56,91542
 418,71;11518,469;  247,081;19865,270;57,45376
 419,30;11687,092;  222,078;19975,758;58,03989
 419,89;11862,600;  222,463;20130,901;58,46836
 420,48;12108,868;  254,158;20399,802;58,84503
 421,07;12207,322;  249,236;20499,272;59,05217
 421,66;12285,342;  219,931;20508,953;59,46768
 422,25;12309,049;  231,397;20479,076;59,64956
 422,84;12389,535;  245,705;20448,585;60,10940
 423,43;12255,050;  227,934;20130,868;60,42886
 424,02;12182,966;  251,627;19882,953;60,77704
 424,60;12042,100;  231,094;19474,399;61,37722
 425,19;11946,772;  240,168;19222,393;61,67140
 425,78;11941,897;  251,399;19095,114;62,03924
 426,37;11957,614;  256,632;19052,522;62,25287
 426,96;11976,148;  233,709;18995,471;62,58708
 427,55;11876,086;  230,174;18799,755;62,71500
 428,14;11841,130;  231,021;18600,632;63,20280
 428,73;11823,700;  244,711;18385,860;63,82721
 429,32;11827,316;  256,093;18374,449;63,86464
 429,91;11902,648;  273,096;18409,951;64,12111
 430,50;11814,400;  254,020;18227,048;64,32072
 431,08;11796,193;  268,714;18036,209;64,87960
 431,67;11842,745;  305,793;18056,735;64,99346
 432,26;11770,518;  316,563;17833,318;65,38856
 432,85;11637,598;  337,486;17562,660;65,60231
 433,44;11447,533;  356,873;17172,839;65,95316
 434,03;11259,436;  354,491;16845,627;66,12610
 434,62;11038,730;  324,642;16417,436;66,57692
 435,21;10985,497;  327,794;16185,278;67,20930
 435,79;10959,229;  324,413;16105,592;67,38924
 436,38;10955,389;  311,493;15987,757;67,89817
 436,97;10886,064;  318,493;15888,959;67,86933
 437,56;10856,245;  320,113;15697,521;68,51696
 438,15;10753,617;  304,650;15652,858;68,07939
 438,74;10834,269;  311,727;15625,964;68,71085
 439,33;10930,688;  289,957;15635,812;69,33944
 439,91;10983,914;  247,344;15693,001;69,51190
 440,50;11051,165;  291,344;15760,426;69,55695
 441,09;11122,212;  299,423;15826,024;69,70482
 441,68;11133,730;  276,041;15843,795;69,74474
 442,27;11149,270;  259,271;15816,972;69,99748
 442,86;11145,582;  242,507;15760,416;70,26124
 443,44;11231,913;  257,121;15863,457;70,32267
 444,03;11274,918;  317,353;15933,096;70,16999
 444,62;11228,746;  252,969;15771,282;70,72790
 445,21;11168,345;  258,968;15603,276;71,09722
 445,80;11065,900;  285,817;15537,769;70,68002
 446,39;10986,735;  306,893;15259,887;71,42277
 446,97;10801,775;  248,973;15117,031;70,97633
 447,56;10722,777;  258,822;14881,744;71,55858
 448,15;10586,914;  257,358;14708,575;71,47880
 448,74;10489,135;  277,435;14532,033;71,63794
 449,33;10423,703;  259,591;14381,855;71,97226
 449,91;10268,955;  268,363;14127,784;72,15736
 450,50;10135,663;  256,901;13936,125;72,21727
 451,09;10102,400;  274,670;13823,256;72,53694
 451,68;10057,541;  276,441;13806,388;72,29222
 452,26;10057,904;  285,673;13669,188;73,01693
 452,85; 9978,610;  274,672;13602,072;72,81194
 453,44;10053,139;  276,214;13548,990;73,66150
 454,03;10009,443;  246,673;13497,682;73,67567
 454,61; 9978,980;  250,984;13505,037;73,39639
 455,20;10203,072;  275,293;13698,541;73,95959
 455,79;10225,362;  277,983;13652,470;74,37577
 456,38;10257,744;  274,910;13745,297;74,10948
 456,97;10343,591;  262,832;13788,874;74,52852
 457,55;10322,113;  260,449;13837,587;74,10740
 458,14;10408,119;  294,293;13814,915;74,80297
 458,73;10344,107;  281,680;13714,557;74,90895
 459,31;10403,891;  296,529;13813,654;74,77449
 459,90;10458,970;  290,758;13818,272;75,16690
 460,49;10544,903;  351,450;13955,721;74,92833
 461,08;10637,841;  263,068;14026,081;75,38155
 461,66;10710,862;  271,067;14062,666;75,69677
 462,25;10776,301;  279,377;14116,827;75,85880
 462,84;10773,758;  303,915;14197,590;75,35690
 463,43;10770,196;  242,072;14152,035;75,68765
 464,01;10759,553;  276,304;14173,250;75,43563
 464,60;10762,471;  317,302;14104,271;75,76117
 465,19;10622,317;  248,458;13829,929;76,38244
 465,77;10593,219;  276,152;13818,651;76,18289
 466,36;10557,753;  298,995;13807,157;75,94488
 466,95;10358,417;  269,303;13465,801;76,45297
 467,53;10154,625;  265,999;13120,818;76,92544
 468,12; 9969,227;  303,077;12935,455;76,51884
 468,71; 9810,963;  289,766;12720,528;76,59384
 469,29; 9599,235;  261,769;12462,573;76,53156
 469,88; 9456,908;  272,001;12264,044;76,59168
 470,47; 9557,843;  337,696;12320,684;76,94364
 471,06; 9594,505;  282,619;12328,948;77,30061
 471,64; 9664,602;  297,772;12438,032;77,15510
 472,23; 9637,065;  267,468;12412,909;77,14497
 472,81; 9757,063;  255,697;12530,520;77,40532
 473,40; 9857,134;  275,007;12617,038;77,63817
 473,99;10013,401;  351,776;12868,974;77,18680
 474,57;10072,164;  274,930;12922,774;77,46169
 475,16;10229,752;  282,390;13021,408;78,08578
 475,75;10270,916;  299,162;13219,026;77,18158
 476,33;10325,448;  311,472;13281,143;77,21072
 476,92;10366,867;  302,623;13358,503;77,08591
 477,51;10497,136;  308,932;13445,136;77,55820
 478,09;10409,440;  294,240;13419,778;77,06503
 478,68;10414,665;  304,164;13362,918;77,42317
 479,27;10436,176;  322,162;13398,552;77,34561
 479,85;10410,867;  291,010;13395,238;77,22589
 480,44;10472,058;  280,934;13514,284;77,01092
 481,02;11496,881;  299,166;14890,258;76,74350
 481,61;12970,308;  328,627;16791,592;76,78860
 482,20;13838,049;  307,320;17952,021;76,68438
 482,78;14487,588;  336,164;18747,165;76,86396
 483,37;14849,855;  331,168;19181,214;77,02202
 483,95;15029,082;  360,861;19498,872;76,64444
 484,54;15155,698;  368,858;19706,929;76,46492
 485,13;15099,982;  336,709;19610,632;76,59714
 485,71;14959,988;  324,785;19346,645;76,93886
 486,30;14745,061;  362,016;19083,825;76,82508
 486,88;14445,918;  393,094;18700,169;76,76171
 487,47;13876,313;  374,325;18071,129;76,29619
 488,05;13302,599;  352,480;17169,758;77,00485
 488,64;12359,244;  351,866;15953,196;76,96381
 489,23;10952,921;  361,172;14158,845;76,76475
 489,81; 9437,507;  357,173;12161,741;76,92220
 490,40; 8935,896;  314,096;11526,192;76,89730
 490,98; 8781,325;  298,174;11308,263;77,04889
 491,57; 8687,245;  340,942;11203,911;76,83261
 492,15; 8630,759;  309,097;11135,984;76,86108
 492,74; 8615,565;  307,095;11077,048;77,14490
 493,32; 8516,455;  325,097;10976,864;76,90140
 493,91; 8454,389;  310,714;10834,780;77,38146
 494,50; 8452,218;  298,255;10840,332;77,34683
 495,08; 8333,501;  300,255;10785,164;76,61722
 495,67; 8339,241;  309,021;10786,502;76,64266
 496,25; 8281,674;  268,254;10615,216;77,44708
 496,84; 8240,389;  276,790;10577,609;77,31034
 497,42; 8240,405;  260,869;10584,471;77,29411
 498,01; 8106,525;  288,944;10561,658;76,10044
 498,59; 8041,553;  253,793;10434,210;76,49745
 499,18; 8014,410;  263,791;10398,051;76,47938
 499,76; 7922,380;  288,869;10342,133;75,93068
 500,35; 7815,318;  285,871;10129,230;76,49266
 500,93; 7767,512;  261,869;10119,745;76,13854
 501,52; 7669,770;  253,254;10037,370;75,80159
 502,10; 7646,817;  277,026;10058,292;75,34598
 502,69; 7521,485;  264,873; 9867,788;75,56677
 503,27; 7333,880;  246,717; 9738,365;74,66736
 503,86; 7338,932;  262,258; 9683,778;75,11182
 504,44; 7169,144;  239,797; 9545,710;74,46176
 505,03; 7015,393;  237,182; 9315,293;74,66543
 505,61; 6869,415;  246,643; 9187,757;74,07099
 506,19; 6789,537;  269,259; 9027,042;74,45123
 506,78; 6624,514;  232,415; 8888,742;73,84309
 507,36; 6514,640;  244,105; 8713,035;74,04164
 507,95; 6369,612;  242,108; 8589,276;73,40818
 508,53; 6296,020;  244,184; 8456,010;73,69659
 509,12; 6190,857;  255,415; 8346,177;73,36073
 509,70; 6133,384;  271,031; 8164,040;74,27272
 510,29; 5972,664;  265,109; 8054,871;73,26995
 510,87; 5854,061;  235,184; 7870,536;73,59028
 511,46; 5696,266;  239,954; 7731,482;72,83309
 512,04; 5587,673;  252,032; 7561,320;72,99811
 512,62; 5496,800;  255,184; 7416,354;73,19496
 513,21; 5365,864;  240,571; 7270,673;72,90497
 513,79; 5291,404;  235,805; 7148,133;73,13888
 514,38; 5164,285;  213,958; 7017,481;72,76123
 514,96; 5112,152;  262,881; 6925,351;72,78488
 515,54; 4970,907;  226,112; 6757,621;72,64471
 516,13; 4924,327;  249,805; 6727,193;72,16677
 516,71; 4837,403;  239,729; 6619,494;72,06650
 517,30; 4742,554;  237,884; 6475,415;72,21879
 517,88; 4671,928;  259,423; 6415,318;71,67934
 518,46; 4533,022;  239,192; 6278,555;71,09739
 519,05; 4492,427;  246,270; 6242,089;70,81863
 519,63; 4468,534;  253,731; 6210,271;70,75926
 520,22; 4434,180;  264,118; 6145,802;70,89911
 520,80; 4365,141;  241,657; 6089,502;70,51289
 521,38; 4363,832;  270,117; 6038,283;70,97083
 521,97; 4331,316;  249,504; 5990,268;71,10226
 522,55; 4261,800;  262,042; 6003,363;69,66616
 523,13; 4241,072;  218,197; 5979,922;69,82068
 523,72; 4234,935;  237,962; 5996,919;69,40445
 524,30; 4329,196;  265,121; 6118,603;69,43005
 524,89; 4286,970;  226,966; 6066,737;69,52335
 525,47; 4361,098;  259,737; 6228,831;68,70994
 526,05; 4367,381;  217,891; 6252,679;68,75950
 526,64; 4426,515;  249,507; 6357,749;68,38315
 527,22; 4505,083;  252,660; 6508,375;67,97661
 527,80; 4582,681;  280,045; 6594,363;68,14095
 528,39; 4599,144;  252,046; 6668,319;67,75113
 528,97; 4680,627;  249,430; 6866,475;66,96640
 529,55; 4796,186;  266,428; 7027,242;67,00018
 530,14; 4879,802;  272,739; 7183,548;66,66460
 530,72; 4938,854;  251,507; 7257,578;66,90407
 531,30; 5002,225;  230,431; 7432,633;66,25465
 531,89; 5002,727;  255,970; 7539,082;65,17485
 532,47; 5088,792;  291,740; 7590,484;65,72436
 533,05; 5099,762;  270,968; 7713,952;64,87712
 533,63; 5095,746;  290,048; 7722,775;64,65592
 534,22; 5082,416;  243,663; 7745,987;64,49673
 534,80; 5137,814;  284,664; 7824,512;64,36668
 535,38; 5203,857;  347,355; 7905,161;64,25809
 535,97; 5123,671;  261,817; 7892,984;63,71049
 536,55; 5132,179;  315,588; 7965,181;62,96532
 537,13; 5037,160;  321,585; 7858,632;62,56529
 537,71; 5121,352;  353,893; 7955,855;62,71354
 538,30; 5116,500;  377,817; 8017,895;62,02400
 538,88; 5159,572;  420,820; 8103,024;61,68480
 539,46; 5261,144;  478,126; 8345,762;60,79359
 540,05; 5309,005;  488,358; 8432,250;60,68369
 540,63; 5397,364;  537,896; 8601,642;60,26315
 541,21; 5501,162;  572,589; 8769,894;60,12431
 541,79; 5552,895;  606,359; 8848,188;60,01745
 542,38; 5587,967;  642,127; 9037,319;58,91276
 542,96; 5648,068;  653,206; 9214,436;58,34280
 543,54; 5770,911;  677,666; 9375,238;58,55938
 544,12; 5795,446;  649,590; 9532,588;57,92927
 544,70; 5815,517;  631,745; 9606,284;57,76088
 545,29; 5875,135;  626,434; 9729,236;57,66027
 545,87; 5872,125;  614,743; 9737,035;57,63226
 546,45; 5806,187;  569,973; 9822,068;56,59490
 547,03; 5834,056;  541,512; 9883,120;56,65560
 547,62; 5867,263;  494,205; 9992,292;56,56990
 548,20; 5960,970;  507,052;10146,627;56,57841
 548,78; 5998,473;  466,209;10274,288;56,40518
 549,36; 6043,809;  430,978;10394,721;56,33255
 549,94; 6072,110;  389,205;10572,924;55,80382
 550,53; 6179,414;  389,977;10738,146;55,94648
 551,11; 6215,783;  374,132;10949,838;55,23651
 551,69; 6349,278;  366,670;11268,515;54,87703
 552,27; 6429,727;  327,669;11472,391;54,75290
 552,85; 6628,557;  338,748;11863,966;54,57432
 553,44; 6733,495;  334,054;12133,291;54,23606
 554,02; 6882,813;  345,901;12468,942;53,92139
 554,60; 6974,034;  289,594;12718,570;53,78110
 555,18; 7151,926;  322,285;13074,631;53,55596
 555,76; 7266,524;  309,286;13447,218;52,95535
 556,34; 7443,446;  309,057;13842,074;52,71840
 556,93; 7593,570;  300,439;14178,466;52,55164
 557,51; 7691,094;  274,134;14476,498;52,22342
 558,09; 7834,823;  310,670;14837,023;51,79657
 558,67; 7962,467;  301,058;15198,301;51,42837
 559,25; 8078,135;  305,057;15449,809;51,32523
 559,83; 8149,531;  289,443;15778,647;50,74559
 560,41; 8246,559;  293,672;16128,609;50,22368
 561,00; 8392,042;  293,750;16426,544;50,19770
 561,58; 8457,993;  298,749;16679,390;49,81028
 562,16; 8530,838;  285,440;16973,896;49,40779
 562,74; 8626,099;  276,209;17314,693;49,00606
 563,32; 8784,227;  272,135;17738,159;48,73514
 563,90; 8930,409;  287,673;18093,499;48,53881
 564,48; 9037,211;  305,518;18457,836;48,10236
 565,06; 9212,927;  287,288;19075,613;47,50630
 565,65; 9463,607;  289,445;19656,717;47,36941
 566,23; 9762,174;  336,981;20425,448;46,91843
 566,81;10011,216;  276,288;21002,398;46,96939
 567,39;10400,902;  292,290;21894,362;46,79464
 567,97;10585,287;  312,288;22508,907;46,28182
 568,55;10911,004;  322,828;23293,877;46,09357
 569,13;11146,822;  296,443;24016,949;45,74261
 569,71;11498,457;  291,286;24939,408;45,46866
 570,29;11879,479;  325,978;25746,318;45,44983
 570,87;12076,196;  322,286;26569,040;44,78234
 571,45;12268,552;  309,596;27135,710;44,57953
 572,03;12348,602;  272,059;27443,018;44,44651
 572,61;12570,298;  275,904;28328,806;43,82575
 573,20;12828,317;  300,518;28878,165;43,83775
 573,78;13001,630;  302,443;29474,820;43,53155
 574,36;13088,033;  303,520;29950,156;43,12298
 574,94;13210,149;  369,367;30213,213;43,02657
 575,52;13174,833;  320,369;30537,736;42,53999
 576,10;13330,136;  361,907;30981,499;42,35272
 576,68;13472,086;  355,059;31623,345;41,94994
 577,26;13618,757;  373,985;32256,769;41,54208
 577,84;13719,116;  379,827;32712,202;41,25675
 578,42;13755,581;  407,829;33020,570;40,92803
 579,00;13608,110;  376,135;33029,095;40,52305
 579,58;13562,010;  404,752;33254,515;40,05282
 580,16;13533,611;  377,830;33335,092;39,91770
 580,74;13513,713;  382,907;33507,337;39,64085
 581,32;13394,180;  376,137;33540,043;39,25365
 581,90;13312,905;  398,060;33576,483;38,92543
 582,48;13234,014;  395,522;33604,522;38,65968
 583,06;13171,214;  396,906;33768,984;38,27843
 583,64;13090,959;  384,983;33800,585;38,02408
 584,22;12851,086;  403,600;33708,849;37,37395
 584,80;12654,536;  414,291;33481,302;37,01649
 585,38;12436,205;  422,749;33106,746;36,75639
 585,96;12319,833;  386,982;33164,848;36,40521
 586,54;12263,580;  402,754;33248,641;36,11054
 587,12;12135,241;  385,215;33360,103;35,63326
 587,70;12133,319;  410,136;33465,708;35,46507
 588,28;11952,861;  390,753;33453,692;34,96999
 588,86;11897,074;  386,600;33685,663;34,56696
 589,44;11784,903;  372,678;33715,469;34,22696
 590,02;11803,395;  376,601;33922,343;34,06332
 590,59;11779,181;  361,061;34107,262;33,83528
 591,17;11754,579;  357,757;34262,814;33,61393
 591,75;11619,772;  356,064;34345,136;33,13921
 592,33;11670,422;  368,679;34627,138;32,98964
 592,91;11588,799;  305,603;34796,008;32,71401
 593,49;11606,517;  330,066;35057,440;32,47136
 594,07;11581,041;  350,527;35296,446;32,13684
 594,65;11587,659;  346,292;35351,482;32,11343
 595,23;11552,036;  342,062;35692,797;31,71072
 595,81;11465,183;  329,909;35827,020;31,36952
 596,39;11498,247;  322,063;35958,252;31,36190
 596,97;11398,994;  327,680;36203,457;30,86014
 597,55;11300,728;  322,524;36069,089;30,71122
 598,12;11201,971;  312,604;36040,277;30,47880
 598,70;11181,478;  309,296;36141,723;30,34174
 599,28;11091,379;  336,065;36318,165;29,89073
 599,86;11043,834;  310,526;36300,350;29,82317
 600,44;10980,899;  292,912;36473,906;29,54034
 601,02;10918,389;  335,145;36531,305;29,23858
 601,60;10781,787;  307,449;36567,438;28,88677
 602,18;10717,444;  293,681;36546,584;28,75291
 602,75;10657,389;  294,063;36644,544;28,50946
 603,33;10604,338;  306,527;36620,332;28,35784
 603,91;10489,817;  293,298;36534,464;28,13519
 604,49;10481,810;  311,219;36607,045;28,02138
 605,07;10344,161;  320,756;36635,880;27,60119
 605,65;10294,820;  336,681;36841,312;27,27911
 606,23;10217,780;  400,984;36980,119;26,83715
 606,80;10197,045;  453,755;36928,531;26,71240
 607,38;10071,520;  481,220;37050,467;26,22504
 607,96;10080,569;  541,601;37115,845;26,08111
 608,54;10028,476;  612,989;37133,760;25,78118
 609,12; 9948,099;  597,371;37147,512;25,58329
 609,70; 9817,996;  649,680;37186,760;25,09318
 610,27; 9828,087;  655,293;37300,266;25,03152
 610,85; 9733,429;  680,295;37345,002;24,69168
 611,43; 9668,921;  661,680;37253,447;24,61548
 612,01; 9525,720;  626,679;37029,980;24,44570
 612,59; 9418,516;  625,065;37102,484;24,10656
 613,16; 9335,123;  599,523;37003,631;23,99619
 613,74; 9198,931;  567,911;36974,544;23,70727
 614,32; 9160,161;  537,450;36891,889;23,71845
 614,90; 9045,224;  471,295;36804,363;23,59814
 615,48; 8921,439;  420,062;36445,288;23,59840
 616,05; 8801,337;  403,446;36359,949;23,35569
 616,63; 8680,620;  405,676;36269,534;23,07321
 617,21; 8611,377;  403,216;36128,836;22,97556
 617,79; 8524,782;  376,755;36001,585;22,87176
 618,36; 8385,663;  389,141;36018,713;22,44350
 618,94; 8195,133;  325,524;35685,821;22,25550
 619,52; 8082,541;  356,446;35429,786;22,02840
 620,10; 8008,037;  344,294;35357,121;21,88839
 620,67; 7948,213;  349,138;35291,669;21,74735
 621,25; 7889,691;  362,679;35085,009;21,67773
 621,83; 7762,690;  345,293;35076,558;21,35654
 622,41; 7714,200;  385,985;35138,801;21,08668
 622,98; 7610,683;  361,446;34882,002;20,99977
 623,56; 7519,571;  347,753;34793,583;20,82057
 624,14; 7433,160;  333,141;34719,994;20,64748
 624,72; 7386,771;  336,831;34620,071;20,56381
 625,29; 7310,164;  324,984;34556,641;20,40562
 625,87; 7241,511;  364,525;34676,983;20,04224
 626,45; 7107,409;  316,830;34505,849;19,86187
 627,02; 7047,440;  320,294;34437,260;19,71789
 627,60; 6973,885;  312,142;34320,989;19,58826
 628,18; 6906,407;  300,063;34500,281;19,31667
 628,76; 6816,707;  296,061;34362,708;19,14085
 629,33; 6813,793;  328,754;34528,766;18,96210
 629,91; 6758,114;  325,832;34417,275;18,86773
 630,49; 6740,938;  337,523;34500,571;18,74369
 631,06; 6679,596;  313,677;34631,537;18,54987
 631,64; 6627,895;  321,599;34650,864;18,37003
 632,22; 6528,044;  288,829;34586,626;18,19130
 632,79; 6539,714;  306,598;34849,684;18,04447
 633,37; 6476,290;  290,448;34944,712;17,85016
 633,95; 6465,051;  303,522;34924,842;17,79692
 634,52; 6430,680;  286,755;35030,846;17,68337
 635,10; 6392,478;  296,601;35092,620;17,51889
 635,68; 6429,062;  294,367;35219,210;17,56542
 636,25; 6346,035;  281,136;35221,860;17,35768
 636,83; 6323,246;  267,676;35391,785;17,24049
 637,41; 6302,285;  263,290;35481,014;17,14760
 637,98; 6301,835;  300,213;35621,936;16,99131
 638,56; 6271,687;  285,751;35678,857;16,91272
 639,13; 6216,211;  281,138;35691,751;16,76072
 639,71; 6232,456;  318,754;35930,146;16,60621
 640,29; 6100,161;  255,677;35765,254;16,45890
 640,86; 6111,883;  264,369;35942,439;16,38966
 641,44; 6048,912;  273,831;35871,393;16,22325
 642,02; 6002,633;  298,523;35902,501;16,02099
 642,59; 5972,432;  263,677;36033,685;15,95961
 643,17; 6002,153;  261,677;35991,332;16,06642
 643,74; 5915,336;  274,677;36056,286;15,76413
 644,32; 5919,288;  292,446;36035,470;15,74249
 644,89; 5843,164;  294,446;36045,963;15,52023
 645,47; 5845,039;  308,062;36104,686;15,46788
 646,05; 5818,914;  285,677;35986,563;15,49888
 646,62; 5753,328;  284,908;35945,132;15,33479
 647,20; 5753,280;  291,139;36124,778;15,24305
 647,77; 5677,925;  254,062;36026,963;15,16193
 648,35; 5667,108;  245,678;35886,763;15,21118
 648,92; 5624,060;  291,216;35945,563;14,95706
 649,50; 5617,166;  246,832;35814,671;15,09885
 650,08; 5573,811;  254,832;35770,240;14,97654
 650,65; 5575,378;  262,216;35977,117;14,87660
 651,23; 5627,869;  240,293;36800,687;14,73610
 651,80; 5779,436;  244,986;37613,794;14,81035
 652,38; 5795,081;  268,140;37991,210;14,65136
 652,95; 5801,648;  232,755;38391,241;14,59412
 653,53; 5825,755;  271,447;38585,579;14,49676
 654,10; 5842,553;  299,447;38673,302;14,44501
 654,68; 5757,813;  250,294;38691,179;14,32724
 655,25; 5744,919;  254,140;38670,364;14,29286
 655,83; 5733,563;  239,909;38781,164;14,25396
 656,40; 5723,285;  279,755;38703,733;14,16701
 656,98; 5692,775;  254,371;38699,841;14,14576
 657,55; 5645,189;  257,294;38608,487;14,04883
 658,13; 5559,988;  255,602;38136,672;14,00273
 658,70; 5502,786;  267,140;37934,088;13,89984
 659,28; 5336,969;  258,986;37129,349;13,77253
 659,85; 5198,229;  263,448;36325,765;13,68404
 660,43; 5202,027;  272,448;36335,565;13,66931
 661,00; 5222,441;  259,448;36458,288;13,71036
 661,58; 5197,239;  251,371;36802,780;13,53126
 662,15; 5239,499;  250,987;37033,811;13,56207
 662,73; 5334,913;  309,833;37229,842;13,61072
 663,30; 5266,096;  250,448;37468,334;13,47644
 663,88; 5290,664;  265,987;37602,750;13,45772
 664,45; 5270,462;  250,372;37833,935;13,35714
 665,03; 5334,337;  256,449;38173,504;13,39210
 665,60; 5427,136;  330,987;38616,535;13,31089
 666,17; 5364,088;  265,756;38724,489;13,25663
 666,75; 5418,732;  255,526;38961,366;13,33961
 667,32; 5443,684;  274,372;39365,320;13,22381
 667,90; 5461,406;  261,526;39620,735;13,21134
 668,47; 5493,973;  278,834;39864,074;13,17446
 669,05; 5522,695;  251,987;40201,797;13,19332
 669,62; 5487,493;  236,757;40350,674;13,08956
 670,19; 5491,215;  232,218;40365,551;13,10381
 670,77; 5551,167;  254,526;40528,043;13,15167
 671,34; 5505,811;  243,142;40494,074;13,07465
 671,92; 5540,610;  241,142;40791,105;13,06898
 672,49; 5526,408;  266,219;40704,213;13,00804
 673,06; 5501,360;  224,757;40877,166;12,97980
 673,64; 5517,543;  238,373;40717,043;13,04186
 674,21; 5492,572;  237,219;40700,920;12,98782
 674,79; 5510,371;  261,373;40994,721;12,88624
 675,36; 5569,477;  263,219;41119,521;12,98761
 675,93; 5477,814;  246,065;40984,090;12,84242
 676,51; 5531,766;  255,681;41152,659;12,90092
 677,08; 5532,564;  256,142;41186,690;12,89116
 677,65; 5550,901;  259,142;41321,106;12,88725
 678,23; 5590,776;  257,835;41490,444;12,93380
 678,80; 5591,729;  240,835;41631,167;12,92788
 679,38; 5595,065;  237,296;41794,583;12,89249
 679,95; 5615,633;  254,681;42035,152;12,83124
 680,52; 5615,739;  243,989;42287,491;12,77665
 681,10; 5725,768;  270,758;42634,983;12,87645
 681,67; 5769,336;  253,066;42966,398;12,91463
 682,24; 5764,980;  235,912;42974,583;12,93692
 682,82; 5843,471;  244,220;43463,614;12,95541
 683,39; 5955,731;  287,989;43858,952;13,00807
 683,96; 5941,068;  260,758;44134,214;12,94703
 684,54; 5990,251;  232,066;44408,014;13,03466
 685,11; 6104,357;  275,143;44776,584;13,09893
 685,68; 6113,540;  251,682;45228,691;13,03301
 686,25; 6117,492;  235,451;45230,261;13,07271
 686,83; 6191,444;  242,759;45347,138;13,18871
 687,40; 6218,396;  227,143;45852,707;13,13135
 687,97; 6354,349;  275,220;46111,276;13,26276
 688,55; 6301,301;  227,682;46014,692;13,26494
 689,12; 6350,791;  228,682;46371,107;13,26785
 689,69; 6382,590;  238,528;46450,600;13,29536
 690,26; 6384,080;  247,451;46530,246;13,25899
 690,84; 6484,725;  238,836;46740,354;13,43158
 691,41; 6505,139;  259,836;46845,923;13,40594
 691,98; 6555,629;  249,144;47159,646;13,44365
 692,56; 6554,428;  228,452;47242,677;13,45545
 693,13; 6620,303;  297,221;47245,631;13,46815
 693,70; 6635,101;  268,298;47417,815;13,50343
 694,27; 6654,977;  244,298;47459,539;13,57756
 694,84; 6635,698;  238,913;47569,646;13,51508
 695,42; 6741,496;  283,990;47728,062;13,61078
 695,99; 6784,603;  246,683;47899,477;13,71991
 696,56; 6764,093;  241,837;47809,585;13,71151
 697,13; 6851,045;  253,298;48121,077;13,78327
 697,71; 6898,844;  230,452;48189,185;13,90444
 698,28; 6947,258;  249,760;48434,755;13,89955
 698,85; 6917,364;  224,837;48478,324;13,86952
 699,42; 6958,700;  220,914;48608,124;13,92473
 699,99; 7058,422;  265,837;48730,309;14,01560
 700,57; 7126,374;  247,529;48793,878;14,16964
 701,14; 7109,480;  234,991;48957,755;14,10940
 701,71; 7165,663;  263,299;49229,478;14,09619
 702,28; 7185,615;  250,914;49223,278;14,16044
 702,85; 7227,644;  266,914;49325,924;14,18848
 703,43; 7299,827;  266,991;49478,186;14,29113
 704,00; 7370,703;  287,376;49701,755;14,33455
 704,57; 7367,963;  262,684;49634,094;14,39148
 705,14; 7433,453;  287,222;49998,355;14,37551
 705,71; 7467,021;  292,991;49959,540;14,44439
 706,28; 7462,973;  266,607;49877,340;14,50566
 706,86; 7552,925;  298,838;50117,986;14,56084
 707,43; 7595,877;  314,222;50071,248;14,63443
 708,00; 7589,291;  294,222;50116,202;14,64227
 708,57; 7579,859;  260,146;49967,233;14,72569
 709,14; 7656,273;  284,684;50087,187;14,80164
 709,71; 7714,302;  276,915;50163,295;14,90865
 710,28; 7807,408;  269,069;50478,710;15,01373
 710,86; 7813,668;  282,607;50616,125;14,96232
 711,43; 7903,235;  290,838;50647,695;15,11690
 712,00; 7886,880;  266,531;50672,110;15,11807
 712,57; 7930,909;  279,838;50829,449;15,13577
 713,14; 7998,707;  259,531;50931,557;15,27308
 713,71; 8057,352;  275,223;50797,895;15,40324
 714,28; 8110,842;  272,146;50888,618;15,48645
 714,85; 8058,179;  262,685;50582,803;15,49180
 715,42; 8214,285;  263,992;50759,065;15,74469
 716,00; 8256,084;  310,992;50835,095;15,72535
 716,57; 8284,805;  259,146;51087,126;15,78984
 717,14; 8270,450;  248,608;50968,772;15,81588
 717,71; 8338,786;  240,147;50982,419;15,96034
 718,28; 8439,431;  276,762;51066,142;16,07161
 718,85; 8455,768;  245,839;51150,173;16,12815
 719,42; 8508,335;  262,147;51220,665;16,18216
 719,99; 8521,057;  246,839;51029,004;16,29355
 720,56; 8574,624;  263,224;51274,881;16,29314
 721,13; 8623,500;  241,993;51460,911;16,36408
 721,70; 8723,067;  237,455;51378,942;16,59242
 722,27; 8743,020;  273,378;51411,589;16,56226
 722,84; 8862,279;  301,455;51593,619;16,69032
 723,41; 8799,309;  241,070;51451,035;16,71206
 723,98; 8898,030;  259,378;51750,604;16,77694
 724,55; 8972,674;  279,993;51796,943;16,87344
 725,12; 9001,781;  218,070;51651,589;17,07779
 725,69; 9134,425;  250,917;51876,235;17,20766
 726,27; 9129,377;  261,686;51919,497;17,16622
 726,84; 9238,945;  259,609;52233,605;17,27659
 727,41; 9295,974;  265,840;52331,328;17,34380
 727,98; 9380,003;  264,686;52555,205;17,43206
 728,55; 9486,571;  296,917;52463,697;17,61591
 729,12; 9491,754;  246,840;52541,343;17,67856
 729,69; 9555,552;  275,609;52837,451;17,65528
 730,26; 9633,273;  283,379;52959,790;17,74968
 730,82; 9694,687;  262,763;52758,974;17,96687
 731,39; 9737,178;  257,148;52955,005;17,98940
 731,96; 9861,976;  235,610;53267,959;18,15188
 732,53; 9985,390;  265,994;53403,913;18,29089
 733,10;10019,958;  268,225;53548,021;18,30287
 733,67;10112,218;  274,379;53826,129;18,37071
 734,24;10141,324;  255,764;53472,390;18,57607
 734,81;10249,199;  277,918;53489,267;18,73901
 735,38;10210,920;  263,225;53211,067;18,78773
 735,95;10254,949;  265,533;53159,021;18,88591
 736,52;10312,440;  276,533;53224,360;18,95433
 737,09;10329,315;  276,456;52940,006;19,08884
 737,66;10434,421;  309,995;53113,498;19,17378
 738,23;10526,758;  250,226;53280,529;19,37860
 738,80;10663,326;  320,226;53503,252;19,44812
 739,37;10748,663;  291,610;53579,899;19,62355
 739,94;10770,230;  275,764;53700,006;19,64364
 740,51;10899,413;  361,380;53777,037;19,72836
 741,07;10897,442;  261,995;53699,068;19,90275
 741,64;10991,241;  300,149;53977,560;19,91730
 742,21;11053,731;  277,149;53957,437;20,07549
 742,78;11042,837;  236,688;53762,930;20,18851
 743,35;11131,482;  264,918;53988,730;20,22672
 743,92;11255,050;  291,303;54009,222;20,40985
 744,49;11231,771;  291,842;54095,330;20,33312
 745,06;11330,492;  255,765;54010,976;20,60215
 745,63;11385,291;  252,996;53956,392;20,72922
 746,19;11399,935;  257,303;54033,038;20,72056
 746,76;11474,195;  269,227;54104,684;20,81336
 747,33;11549,609;  263,611;54032,330;20,98990
 747,90;11629,638;  288,150;54195,515;21,03885
 748,47;11675,744;  265,227;54112,854;21,19038
 749,04;11740,081;  267,150;54050,192;21,33187
 749,61;11794,264;  297,150;54039,685;21,39295
 750,17;11936,062;  286,073;54174,408;21,61876
 750,74;11974,091;  275,612;54227,900;21,68301
 751,31;11890,044;  254,766;53959,239;21,66538
 751,88;11948,842;  239,073;53816,193;21,85591
 752,45;12046,179;  263,304;54025,685;21,91658
 753,02;12099,823;  278,304;53907,485;22,04307
 753,58;12139,391;  255,997;53784,824;22,19999
 754,15;12257,574;  264,304;53908,547;22,35705
 754,72;12228,526;  263,381;53687,347;22,39659
 755,29;12256,171;  253,843;53517,839;22,53366
 755,86;12357,277;  268,228;53714,793;22,61894
 756,42;12463,844;  280,074;53615,824;22,84353
 756,99;12446,335;  233,689;53605,316;22,88228
 757,56;12488,210;  251,074;53438,040;23,00777
 758,13;12518,932;  202,843;53342,455;23,17685
 758,70;12657,422;  238,612;53485,871;23,32291
 759,26;12775,990;  231,843;53543,363;23,52990
 759,83;12861,788;  242,690;53597,701;23,65120
 760,40;12829,894;  224,766;53439,425;23,68732
 760,97;12880,770;  222,074;53577,840;23,72507
 761,53;12931,183;  197,767;53155,179;24,04464
 762,10;12929,443;  200,459;53100,517;24,06233
 762,67;13056,011;  243,997;53066,471;24,25485
 763,24;12988,732;  194,074;52673,502;24,38033
 763,80;13079,223;  228,459;52864,840;24,41422
 764,37;13129,406;  230,459;52847,794;24,51463
 764,94;13081,435;  204,690;52333,133;24,70196
 765,50;13116,618;  220,229;52431,856;24,70023
 766,07;13260,416;  251,152;52474,810;24,91067
 766,64;13187,215;  233,690;52105,610;24,97213
 767,21;13202,475;  241,613;52041,333;25,02110
 767,77;13284,350;  257,152;51874,749;25,23790
 768,34;13305,533;  263,537;51923,164;25,24601
 768,91;13266,024;  258,921;51652,733;25,30869
 769,47;13385,130;  264,229;51713,995;25,50235
 770,04;13400,620;  261,383;51591,564;25,59749
 770,61;13355,496;  239,460;51321,364;25,67648
 771,18;13346,063;  230,845;51306,472;25,67804
 771,74;13455,323;  247,152;51408,272;25,81681
 772,31;13455,429;  260,537;51215,995;25,89495
 772,88;13406,997;  217,460;51015,796;25,96451
 773,44;13492,949;  234,306;50704,211;26,27039
 774,01;13557,978;  253,460;50873,011;26,28336
 774,58;13561,623;  227,614;50524,888;26,51040
 775,14;13567,883;  235,383;50646,534;26,44752
 775,71;13665,835;  236,537;50602,334;26,66353
 776,27;13797,864;  294,076;50495,673;26,89912
 776,84;13812,201;  314,076;50490,473;26,90134
 777,41;13813,614;  252,230;50294,273;27,09998
 777,97;13789,644;  234,768;50072,227;27,19817
 778,54;13864,442;  251,076;50143,104;27,28565
 779,11;13943,471;  275,845;50132,981;27,41358
 779,67;13959,654;  233,615;50049,627;27,55347
 780,24;13984,145;  248,538;49709,273;27,77073
 780,80;14117,558;  259,923;49830,381;27,95543
 781,37;14150,895;  255,692;49825,258;28,03172
 781,94;14177,463;  257,000;49628,289;28,19546
 782,50;14175,877;  265,769;49526,935;28,23747
 783,07;14238,367;  267,230;49610,043;28,31443
 783,63;14243,012;  243,154;49346,612;28,51094
 784,20;14313,041;  273,538;49235,874;28,67409
 784,77;14218,224;  254,692;49056,366;28,61281
 785,33;14242,561;  225,000;49013,166;28,73148
 785,90;14369,821;  248,000;48855,120;29,05299
 786,46;14345,927;  269,154;48795,228;29,00868
 787,03;14353,802;  239,462;48650,028;29,15549
 787,59;14366,677;  249,769;48497,059;29,25948
 788,16;14492,783;  263,616;48397,090;29,56190
 788,73;14518,659;  262,693;48264,352;29,69890
 789,29;14429,457;  241,693;47991,306;29,71284
 789,86;14480,255;  272,693;47967,567;29,78845
 790,42;14488,361;  256,462;47746,444;29,96821
 790,99;14449,852;  259,539;47483,552;30,04894
 791,55;14504,804;  257,847;47356,352;30,24928
 792,12;14539,680;  272,924;47388,844;30,28012
 792,68;14482,863;  254,155;47230,337;30,28920
 793,25;14462,892;  259,693;46912,445;30,44450
 793,81;14506,921;  309,847;46489,245;30,74331
 794,38;14439,258;  226,693;46236,122;30,89055
 794,94;14418,518;  247,001;46233,306;30,81682
 795,51;14469,931;  272,540;46008,106;31,04234
 796,07;14447,345;  265,616;45694,522;31,21741
 796,64;14565,990;  262,001;45837,553;31,38522
 797,20;14463,711;  262,617;45321,814;31,51653
 797,77;14443,202;  221,309;45021,230;31,74535
 798,33;14476,846;  252,386;44822,030;31,91513
 798,90;14472,029;  272,540;44715,291;31,95007
 799,46;14438,597;  251,771;44308,938;32,20095
 800,03;14425,703;  264,155;44235,661;32,20619
 800,59;14416,886;  265,155;44109,076;32,27752
 801,15;14436,992;  278,232;43747,799;32,57166
 801,72;14389,636;  266,463;43511,369;32,65858
 802,28;14368,742;  286,694;43292,015;32,74490
 802,85;14243,848;  266,310;43099,123;32,63278
 803,41;14393,262;  250,079;42940,307;33,12979
 803,98;14220,599;  256,925;42430,954;33,10965
 804,54;14307,936;  262,848;42266,677;33,43764
 805,11;14278,350;  262,541;42124,708;33,48085
 805,67;14340,609;  280,387;42014,277;33,69018
 806,23;14214,023;  257,002;41549,462;33,80041
 806,80;14252,822;  285,541;41500,339;33,88900
 807,36;14261,389;  286,310;41529,985;33,88418
 807,93;14251,957;  289,233;41223,016;34,11051
 808,49;14190,986;  247,618;40757,124;34,41999
 809,05;14222,477;  241,695;40697,693;34,55799
 809,62;14240,583;  280,310;40505,570;34,70524
 810,18;14234,766;  274,387;40620,831;34,60126
 810,74;14244,025;  243,541;40270,555;34,97759
 811,31;14231,439;  258,926;39953,201;35,20032
 811,87;14287,391;  258,695;39798,155;35,48024
 812,44;14304,959;  286,003;39928,339;35,36360
 813,00;14163,065;  219,157;39609,524;35,39928
 813,56;14290,402;  262,849;39650,555;35,61404
 814,13;14359,893;  252,080;39523,663;35,92372
 814,69;14335,152;  265,003;39435,924;35,91988
 815,25;14195,335;  235,695;38988,417;36,02235
 815,82;14326,518;  271,696;38942,601;36,34470
 816,38;14301,317;  290,003;38710,709;36,46813
 816,94;14208,115;  240,619;38478,048;36,52834
 817,51;14180,298;  237,311;38330,848;36,60198
 818,07;14197,327;  233,542;38000,802;36,97326
 818,63;14150,895;  247,927;37888,217;36,93640
 819,20;14262,462;  245,388;37838,710;37,28608
 819,76;14115,338;  236,465;37409,971;37,33539
 820,32;14209,521;  282,158;37334,387;37,58846
 820,89;14169,704;  272,773;37156,956;37,67721
 821,45;14087,656;  234,696;36860,448;37,82300
 822,01;14053,454;  277,619;36592,018;37,93491
 822,57;14137,176;  276,696;36485,125;38,27970
 823,14;14031,513;  237,619;36228,541;38,32603
 823,70;14058,311;  241,773;36000,649;38,63807
 824,26;14041,263;  234,850;35881,833;38,73094
 824,82;14039,677;  270,081;35724,403;38,83757
 825,39;14004,168;  251,850;35427,972;39,09560
 825,95;14053,197;  261,312;35480,618;39,16001
 826,51;13964,764;  258,620;35061,034;39,38274
 827,08;14046,178;  287,774;35137,295;39,47946
 827,64;14035,592;  281,235;34987,788;39,63043
 828,20;13985,390;  241,235;34619,126;39,97963
 828,76;14100,727;  271,082;34609,696;40,27433
 829,32;14126,833;  284,697;34482,034;40,47723
 829,89;14149,324;  239,851;34316,603;40,81807
 830,45;14200,891;  257,466;34267,634;40,99781
 831,01;14115,151;  253,236;34099,050;40,95607
 831,57;14138,949;  256,467;34030,081;41,10452
 832,14;14184,748;  254,851;34033,650;41,23858
 832,70;14070,085;  240,928;33800,758;41,20747
 833,26;14136,037;  217,928;33754,635;41,50112
 833,82;14164,912;  252,313;33616,204;41,69957
 834,38;14232,787;  237,544;33650,543;41,88563
 834,95;14184,894;  239,236;33518,112;41,90543
 835,51;14176,307;  211,313;33357,066;42,13208
 836,07;14217,721;  246,698;33520,635;41,98789
 836,63;14308,750;  264,390;33420,051;42,35886
 837,19;14283,549;  255,159;33199,928;42,58154
 837,75;14211,193;  213,544;32933,189;42,78056
 838,32;14356,761;  279,006;33077,682;42,92172
 838,88;14382,021;  259,852;33050,866;43,06719
 839,44;14339,665;  252,006;33047,666;42,95586
 840,00;14426,617;  251,083;32951,620;43,34955
 840,56;14294,031;  238,391;32616,036;43,41156
 841,12;14406,983;  233,391;32632,913;43,74630
 841,68;14318,089;  223,391;32391,328;43,81598
 842,25;14267,503;  232,545;32427,744;43,59333
 842,81;14291,840;  228,314;32220,621;43,95909
 843,37;14363,638;  218,775;32213,344;44,21020
 843,93;14401,360;  238,237;32166,375;44,35938
 844,49;14427,543;  251,776;32134,098;44,46278
 845,05;14384,418;  208,237;31930,667;44,68819
 845,61;14447,139;  261,391;32077,313;44,58695
 846,17;14450,322;  236,776;31936,036;44,83873
 846,73;14510,967;  235,468;31862,452;45,13709
 847,29;14408,150;  216,776;31612,560;45,20153
 847,86;14462,025;  232,776;31654,667;45,28451
 848,42;14407,516;  224,622;31431,237;45,44836
 848,98;14526,545;  243,699;31382,114;45,86889
 849,54;14520,651;  215,930;31349,606;45,94614
 850,10;14519,449;  251,545;31304,791;45,94658
 850,66;14440,094;  224,546;31162,129;45,94912
 851,22;14513,738;  226,161;31012,929;46,40817
 851,78;14576,767;  268,699;31106,422;46,39794
 852,34;14528,104;  244,007;30879,068;46,62663
 852,90;14565,133;  233,853;30702,253;47,03654
 853,46;14601,009;  227,161;30589,668;47,34078
 854,02;14626,653;  243,623;30587,468;47,40016
 854,58;14585,221;  244,854;30316,345;47,68758
 855,14;14572,250;  220,084;30263,530;47,77137
 855,70;14607,664;  202,238;30114,869;48,15834
 856,26;14559,000;  242,238;30010,207;48,09452
 856,82;14586,491;  232,623;29942,392;48,31363
 857,38;14695,213;  266,777;29836,038;48,79539
 857,94;14655,703;  234,008;29629,146;49,06150
 858,50;14607,579;  246,777;29607,946;48,91086
 859,06;14512,685;  236,546;29410,361;48,93477
 859,62;14559,252;  248,085;29409,008;49,07652
 860,18;14553,281;  238,239;29189,423;49,44545
 860,74;14495,157;  212,162;29036,915;49,55114
 861,30;14443,263;  213,008;28922,254;49,56680
 861,86;14573,907;  269,701;28999,593;49,78858
 862,42;14477,782;  237,162;28743,239;49,95644
 862,98;14587,504;  260,162;28761,500;50,26901
 863,54;14437,302;  241,239;28520,300;50,19991
 864,10;14513,639;  236,932;28588,101;50,35668
 864,66;14444,284;  215,239;28363,670;50,55004
 865,22;14505,620;  238,239;28203,855;51,01758
 865,78;14519,342;  235,470;28141,270;51,18603
 866,34;14505,140;  228,163;28057,301;51,30226
 866,90;14519,092;  245,547;27957,101;51,50756
 867,45;14389,583;  242,547;27757,132;51,41650
 868,01;14371,458;  239,470;27556,163;51,73389
 868,57;14381,103;  231,163;27363,501;52,15157
 869,13;14341,978;  222,471;27212,147;52,31447
 869,69;14366,930;  226,471;27172,563;52,47685
 870,25;14392,806;  217,701;27015,824;52,89588
 870,81;14414,219;  231,625;27081,009;52,82279
 871,37;14419,633;  242,009;26956,040;53,07183
 871,93;14412,893;  251,240;26773,379;53,39559
 872,49;14326,999;  260,933;26531,563;53,54293
 873,04;14271,567;  220,625;26358,748;53,75651
 873,60;14326,596;  219,933;26264,010;54,16457
 874,16;14331,933;  239,240;26176,733;54,33329
 874,72;14350,240;  228,933;26168,117;54,44006
 875,28;14394,779;  250,163;26000,733;54,92933
 875,84;14356,856;  230,240;25987,271;54,84567
 876,40;14396,240;  233,702;25977,579;55,01323
 876,95;14419,163;  251,163;25943,656;55,14451
 877,51;14539,625;  264,010;25877,656;55,73441
 878,07;14542,087;  271,856;25927,271;55,62268
 878,63;14571,087;  230,856;25864,194;55,94367
 879,19;14576,933;  253,240;25914,425;55,81852
 879,75;14705,240;  238,240;25953,348;56,25876
 880,30;14770,856;  240,317;25904,348;56,61830
 880,86;14908,856;  269,548;26079,271;56,72013
 881,42;14884,779;  216,779;26075,887;56,72276
 881,98;14975,087;  244,317;26144,963;56,87414
 882,54;15038,087;  220,471;26231,348;56,96700
 883,09;15237,240;  246,317;26360,963;57,40427
 883,65;15234,317;  224,548;26393,733;57,35666
 884,21;15471,394;  269,779;26645,810;57,63420
 884,77;15496,087;  224,317;26669,117;57,74961
 885,32;15576,933;  243,163;26823,271;57,68889
 885,88;15670,087;  266,625;27016,117;57,58413
 886,44;15837,317;  241,779;27082,348;58,10435
 887,00;15891,163;  255,779;27061,271;58,32903
 887,56;15952,625;  228,625;27290,271;58,10437
 888,11;16020,087;  225,702;27247,117;58,45136
 888,67;16180,240;  267,317;27369,579;58,71437
 889,23;16182,317;  240,471;27425,040;58,64300
 889,79;16216,856;  233,240;27282,040;59,09177
 890,34;16173,779;  239,933;27273,348;58,94130
 890,90;16333,548;  292,394;27396,810;59,18281
 891,46;16266,010;  224,240;27235,194;59,38987
 892,01;16301,548;  262,010;27282,502;59,36064
 892,57;16327,856;  271,087;27144,733;59,74913
 893,13;16230,779;  250,394;27068,963;59,58701
 893,69;16338,240;  234,625;26951,579;60,27489
 894,24;16321,240;  235,317;26883,502;60,36405
 894,80;16277,625;  245,779;26747,117;60,49448
 895,36;16285,163;  242,548;26590,579;60,88734
 895,91;16182,856;  233,856;26489,194;60,74574
 896,47;16206,933;  251,702;26326,425;61,19041
 897,03;16161,548;  232,856;26157,656;61,44191
 897,58;16133,779;  254,394;26075,656;61,49732
 898,14;16112,933;  250,317;25913,040;61,81189
 898,70;16043,163;  214,625;25698,271;62,11253
 899,25;16120,779;  238,548;25740,117;62,27943
 899,81;16088,471;  251,933;25551,810;62,59532
 900,37;15961,317;  218,625;25411,194;62,48943
 900,92;15974,856;  241,625;25430,887;62,46007
 901,48;15922,087;  234,394;25193,502;62,85358
 902,03;15931,317;  236,702;25072,425;63,19371
 902,59;15883,471;  239,779;24977,425;63,23840
 903,15;15869,933;  257,240;24842,194;63,50507
 903,70;15725,240;  246,779;24638,348;63,45824
 904,26;15719,087;  225,240;24525,117;63,76101
 904,82;15686,087;  230,163;24430,040;63,86778
 905,37;15725,010;  248,240;24383,425;64,12534
 905,93;15641,240;  228,087;24198,887;64,29971
 906,48;15656,548;  248,471;24148,887;64,46782
 907,04;15609,394;  262,087;24069,194;64,46523
 907,60;15581,317;  242,933;23863,271;64,93719
 908,15;15529,856;  226,471;23767,040;65,00856
 908,71;15493,702;  254,779;23777,579;64,78363
 909,26;15464,317;  232,240;23524,425;65,39566
 909,82;15469,163;  255,856;23558,271;65,28640
 910,37;15470,702;  281,163;23385,348;65,74367
 910,93;15311,394;  229,548;23196,579;65,66737
 911,48;15269,856;  223,625;23092,117;65,79459
 912,04;15282,087;  224,010;22961,502;66,22576
 912,60;15331,317;  245,471;23040,271;66,18109
 913,15;15267,087;  239,933;22832,271;66,51438
 913,71;15244,779;  224,856;22646,117;66,98964
 914,26;15199,317;  216,779;22565,810;67,03887
 914,82;15218,548;  250,087;22457,579;67,40275
 915,37;15137,625;  221,087;22481,117;67,01041
 915,93;15210,317;  287,087;22242,194;67,97157
 916,48;15134,010;  228,625;22159,502;67,96529
 917,04;15125,933;  247,163;22092,887;68,10839
 917,59;15110,933;  256,010;22017,348;68,26291
 918,15;14940,394;  206,010;21794,810;68,25013
 918,70;15023,625;  228,394;21782,656;68,64179
 919,26;15002,933;  237,779;21653,887;68,94415
 919,81;14914,317;  219,240;21495,425;69,06820
 920,37;14928,779;  228,856;21411,348;69,39657
 920,92;14900,856;  247,087;21405,887;69,25615
 921,48;14754,779;  213,394;21047,117;69,79734
 922,03;14833,702;  220,856;21107,502;69,96263
 922,59;14767,087;  228,317;20946,040;70,17552
 923,14;14732,702;  235,856;20873,963;70,24310
 923,69;14740,779;  251,087;20763,656;70,63812
 924,25;14725,625;  254,933;20707,194;70,75351
 924,80;14609,702;  235,548;20567,040;70,69896
 925,36;14639,317;  228,548;20503,656;71,07617
 925,91;14549,548;  231,702;20377,194;71,07221
 926,47;14541,625;  204,471;20324,579;71,25784
 927,02;14523,548;  276,702;20289,579;71,18840
 927,57;14422,010;  233,087;20066,963;71,53883
 928,13;14428,779;  220,702;20007,117;71,80723
 928,68;14441,240;  230,163;19941,425;72,09623
 929,24;14412,856;  203,087;19722,194;72,79928
 929,79;14307,779;  219,779;19652,502;72,49627
 930,34;14246,317;  230,856;19548,040;72,55437
 930,90;14280,548;  213,625;19480,040;73,01266
 931,45;14327,933;  237,087;19492,502;73,17861
 932,01;14254,625;  233,163;19371,963;73,26197
 932,56;14223,548;  246,087;19179,425;73,82460
 933,11;14289,548;  254,933;19098,425;74,47991
 933,67;14229,779;  227,933;18951,963;74,78009
 934,22;14151,163;  234,240;18965,656;74,29723
 934,77;14175,087;  258,702;18836,271;74,90961
 935,33;14102,471;  230,856;18641,887;75,34405
 935,88;14140,856;  232,625;18650,117;75,51642
 936,43;14104,010;  224,548;18470,810;76,06743
 936,99;14098,317;  234,702;18419,040;76,23932
 937,54;13930,010;  220,010;18225,656;76,14278
 938,09;13948,317;  237,933;18269,194;76,03675
 938,65;13882,163;  234,394;18199,656;75,96755
 939,20;13915,394;  227,779;18103,579;76,57065
 939,75;13837,933;  218,240;17957,271;76,77811
 940,31;13795,240;  202,933;17923,733;76,70256
 940,86;13780,240;  232,163;17809,963;77,07493
 941,41;13813,702;  293,163;17808,271;77,19358
 941,96;13706,625;  226,240;17668,271;77,28678
 942,52;13656,548;  230,625;17565,963;77,44829
 943,07;13599,625;  205,548;17440,887;77,71287
 943,62;13524,702;  214,471;17351,656;77,66871
 944,18;13514,240;  210,087;17283,271;77,92427
 944,73;13510,779;  237,010;17179,194;78,34745
 945,28;13370,471;  196,856;17038,656;78,21976
 945,83;13381,087;  224,394;17029,963;78,28769
 946,39;13447,394;  215,933;17007,887;78,79644
 946,94;13413,625;  246,471;16895,502;79,08661
 947,49;13282,625;  223,010;16792,656;78,81650
 948,04;13314,087;  254,779;16805,348;78,90549
 948,59;13251,933;  241,933;16731,425;78,89873
 949,15;13152,240;  220,856;16591,579;78,99092
 949,70;13130,317;  222,702;16480,425;79,39375
 950,25;13163,317;  243,163;16409,733;79,91896
 950,80;13062,702;  199,933;16345,040;79,66976
 951,36;13007,317;  194,163;16234,502;79,88082
 951,91;13040,317;  239,163;16263,887;79,88378
 952,46;12908,702;  206,933;16077,271;80,03465
 953,01;12948,625;  240,163;16074,963;80,25653
 953,56;12865,702;  196,856;15870,502;80,82897
 954,11;12878,548;  236,625;15920,194;80,60616
 954,67;12915,779;  222,394;15847,348;81,23790
 955,22;12865,394;  212,933;15738,117;81,49637
 955,77;12884,625;  248,010;15700,117;81,77923
 956,32;12814,548;  264,779;15594,810;81,86395
 956,87;12700,779;  213,548;15416,887;82,13479
 957,42;12689,856;  219,394;15405,887;82,11548
 957,98;12629,240;  220,394;15304,963;82,26185
 958,53;12643,779;  244,702;15264,810;82,54985
 959,08;12554,933;  216,471;15164,810;82,54069
 959,63;12560,240;  218,394;15105,887;82,90077
 960,18;12532,163;  236,010;15002,963;83,26805
 960,73;12581,625;  227,087;15025,579;83,48512
 961,28;12510,471;  204,548;14850,579;84,02224
 961,83;12529,087;  248,625;14847,656;84,11833
 962,39;12473,471;  210,856;14684,733;84,72240
 962,94;12371,163;  238,240;14644,040;84,22249
 963,49;12251,240;  224,933;14529,117;84,07545
 964,04;12303,702;  239,010;14469,502;84,78057
 964,59;12249,933;  190,471;14412,348;84,79515
 965,14;12253,087;  234,702;14368,117;85,03525
 965,69;12181,163;  229,933;14263,194;85,16360
 966,24;12150,702;  209,010;14167,810;85,54956
 966,79;12091,394;  244,933;14090,810;85,55949
 967,34;11993,471;  195,087;13945,733;85,80240
 967,89;11941,394;  223,933;13893,733;85,71787
 968,44;11922,087;  232,471;13815,425;86,06092
 968,99;11926,240;  231,625;13772,117;86,36773
 969,55;11863,317;  235,471;13685,117;86,45466
 970,10;11846,163;  226,317;13608,271;86,83221
 970,65;11842,163;  258,010;13515,117;87,38070
 971,20;11734,087;  218,856;13464,579;86,93546
 971,75;11667,087;  220,702;13239,348;87,92300
 972,30;11651,548;  226,933;13232,579;87,84350
 972,85;11583,240;  216,548;13120,579;88,08637
 973,40;11460,779;  209,163;12982,502;88,08672
 973,95;11472,548;  238,702;12957,733;88,32313
 974,50;11424,087;  251,087;12897,425;88,34968
 975,05;11384,625;  230,548;12728,963;89,24393
 975,60;11347,471;  237,933;12745,425;88,82307
 976,15;11305,394;  222,548;12616,733;89,41973
 976,70;11223,779;  233,240;12572,579;89,06911
 977,25;11245,163;  237,394;12466,963;90,00946
 977,80;11149,856;  217,317;12321,502;90,32032
 978,35;11049,933;  234,471;12220,040;90,23736
 978,89;10994,856;  213,394;12155,425;90,28164
 979,44;10961,010;  228,779;12134,040;90,14696
 979,99;10907,087;  217,625;11915,733;91,37770
 980,54;10769,087;  253,625;11844,425;90,72248
 981,09;10783,933;  247,856;11860,040;90,73294
 981,64;10682,625;  232,548;11711,656;91,03562
 982,19;10621,240;  263,010;11643,117;91,02050
 982,74;10526,471;  241,548;11500,656;91,34759
 983,29;10462,394;  218,548;11375,733;91,81390
 983,84;10417,933;  239,394;11356,117;91,56060
 984,39;10404,702;  294,856;11262,194;92,18140
 984,94;10304,625;  209,779;11049,502;93,12827
 985,49;10244,087;  253,471;11087,887;92,21185
 986,03;10204,933;  254,010;11008,963;92,52409
 986,58;10068,163;  274,010;10856,348;92,55189
 987,13; 9967,779;  235,163;10734,425;92,69809
 987,68; 9962,548;  242,702;10680,579;93,12091
 988,23; 9948,010;  242,163;10603,887;93,67019
 988,78; 9819,856;  231,702;10441,733;93,90916
 989,33; 9802,394;  253,087;10362,271;94,46170
 989,88; 9765,471;  250,087;10311,656;94,57158
 990,42; 9622,240;  226,702;10186,963;94,33024
 990,97; 9509,779;  229,779;10115,040;93,87713
 991,52; 9511,240;  252,163;10000,810;94,97808
 992,07; 9507,240;  270,471; 9886,271;96,05825
 992,62; 9378,933;  246,163; 9856,963;95,02611
 993,17; 9286,856;  243,010; 9701,810;95,61304
 993,71; 9233,317;  241,471; 9651,733;95,55363
 994,26; 9147,779;  232,087; 9479,579;96,41200
 994,81; 9136,163;  257,625; 9438,425;96,70768
 995,36; 9017,394;  233,317; 9288,040;97,01099
 995,91; 8952,471;  242,779; 9273,271;96,44759
 996,45; 8856,933;  231,856; 9155,656;96,65251
 997,00; 8738,010;  219,471; 9022,810;96,76486
 997,55; 8711,625;  242,163; 9020,502;96,48137
 998,10; 8647,856;  260,779; 8888,425;97,21165
 998,65; 8602,548;  233,548; 8830,348;97,35018
 999,19; 8548,087;  254,240; 8704,810;98,14541
 999,74; 8453,548;  277,548; 8626,656;97,92663
1000,29; 8379,471;  247,625; 8537,810;98,09005
1000,84; 8302,933;  232,933; 8390,810;98,92280
1001,38; 8242,087;  238,317; 8326,733;98,95349
1001,93; 8230,317;  259,702; 8267,271;99,53851
1002,48; 8071,087;  228,471; 8102,733;99,59811
1003,03; 8066,087;  241,548; 8090,733;99,68600
1003,57; 7912,779;  251,394; 7970,810;99,24825
1004,12; 7877,240;  261,394; 7947,271;99,08884
1004,67; 7779,548;  235,856; 7818,656;99,48426
1005,22; 7645,087;  226,471; 7679,733;99,53515
1005,76; 7509,394;  218,471; 7550,040;99,44560
1006,31; 7546,779;  264,010; 7519,963;100,36956
1006,86; 7414,163;  231,471; 7421,810;99,89366
1007,40; 7292,625;  216,394; 7259,810;100,46590
1007,95; 7247,548;  239,394; 7223,194;100,34872
1008,50; 7098,702;  240,163; 7064,117;100,50681
1009,04; 7035,317;  242,240; 6983,194;100,77323
1009,59; 6892,933;  240,240; 6841,040;100,78615
1010,14; 6820,548;  232,240; 6779,810;100,62219
1010,68; 6739,087;  238,625; 6652,117;101,35604
1011,23; 6619,779;  228,625; 6538,733;101,28439
1011,78; 6559,010;  256,548; 6507,579;100,82276
1012,32; 6452,548;  253,702; 6425,733;100,43447
1012,87; 6447,087;  259,856; 6388,425;100,95718
1013,42; 6334,163;  227,010; 6256,194;101,29320
1013,96; 6356,933;  256,625; 6258,040;101,64782
1014,51; 6242,856;  210,240; 6162,656;101,34735
1015,06; 6257,471;  214,702; 6187,656;101,16886
1015,60; 6348,087;  269,625; 6225,502;102,05821
1016,15; 6299,010;  228,856; 6175,579;102,07561
1016,69; 6358,933;  241,471; 6220,348;102,31790
1017,24; 6381,317;  215,163; 6187,656;103,24256
1017,79; 6463,010;  267,317; 6267,040;103,26630
1018,33; 6431,471;  228,856; 6238,040;103,21892
1018,88; 6543,625;  240,933; 6339,271;103,35098
1019,42; 6569,779;  231,856; 6320,810;104,08887
1019,97; 6541,163;  232,087; 6321,656;103,60465
1020,51; 6554,163;  250,471; 6375,963;102,90915
1021,06; 6535,548;  216,548; 6323,502;103,47221
1021,61; 6560,394;  199,856; 6306,579;104,15633
1022,15; 6519,779;  189,548; 6268,579;104,13224
1022,70; 6554,779;  234,933; 6261,194;104,87175
1023,24; 6528,010;  214,779; 6249,040;104,62309
1023,79; 6511,933;  233,010; 6178,963;105,59993
1024,33; 6426,317;  223,317; 6110,348;105,36721
1024,88; 6402,471;  246,548; 6042,887;106,20365
1025,42; 6311,394;  232,240; 5945,656;106,40140
1025,97; 6225,702;  222,240; 5867,348;106,34804
1026,51; 6127,856;  197,702; 5788,963;106,06111
1027,06; 6102,779;  214,702; 5714,963;107,05085
1027,60; 5991,702;  233,087; 5645,271;106,40094
1028,15; 5925,779;  239,625; 5542,271;107,23238
1028,69; 5758,779;  197,933; 5420,963;106,46780
1029,24; 5745,317;  226,702; 5382,271;107,04182
1029,78; 5635,933;  217,779; 5260,502;107,44500
1030,33; 5528,317;  204,394; 5155,502;107,52994
1030,87; 5462,548;  221,856; 5120,656;106,97910
1031,42; 5377,933;  203,240; 5044,194;106,89406
1031,96; 5316,240;  227,779; 4995,117;106,73590
1032,51; 5238,471;  215,779; 4894,810;107,34472
1033,05; 5187,856;  229,548; 4845,117;107,42570
1033,60; 5058,702;  193,394; 4753,656;106,68922
1034,14; 5037,548;  222,702; 4676,733;108,10087
1034,69; 4984,702;  221,240; 4599,194;108,80566
1035,23; 4879,856;  223,625; 4565,502;107,24005
1035,77; 4875,471;  226,471; 4503,271;108,70277
1036,32; 4790,856;  194,471; 4408,963;109,06141
1036,86; 4777,163;  224,010; 4393,040;109,21373
1037,41; 4704,010;  223,163; 4290,348;110,17071
1037,95; 4599,933;  197,933; 4207,271;109,79367
1038,50; 4603,163;  206,317; 4166,810;111,01767
1039,04; 4544,856;  229,933; 4143,887;110,24461
1039,58; 4483,779;  206,010; 4072,348;110,64135
1040,13; 4380,010;  226,163; 4017,271;109,56814
1040,67; 4403,010;  254,548; 3991,963;110,99814
1041,21; 4314,933;  251,240; 3921,271;110,72638
1041,76; 4188,856;  215,317; 3817,117;110,32091
1042,30; 4174,548;  218,087; 3786,348;110,87925
1042,85; 4128,240;  215,702; 3720,040;111,64842
1043,39; 4110,087;  207,240; 3680,579;112,36585
1043,93; 4068,471;  232,856; 3683,271;111,16387
1044,48; 3993,240;  230,933; 3588,887;112,04167
1045,02; 3957,856;  220,394; 3519,348;113,29233
1045,56; 3925,471;  237,548; 3511,271;112,65226
1046,11; 3869,779;  229,625; 3464,502;112,52836
1046,65; 3793,548;  234,240; 3390,963;112,75324
1047,19; 3736,163;  218,010; 3303,963;114,00539
1047,74; 3676,163;  204,010; 3279,271;112,90597
1048,28; 3633,163;  234,087; 3254,502;112,53674
1048,82; 3643,702;  249,702; 3219,040;114,30155
1049,37; 3586,625;  232,010; 3171,194;114,13422
1049,91; 3517,317;  221,240; 3126,117;113,46701
1050,45; 3510,856;  241,471; 3095,425;114,55632
1050,99; 3455,394;  232,856; 3027,348;115,31749
1051,54; 3384,856;  220,317; 2989,040;114,29595
1052,08; 3387,087;  237,010; 2958,117;115,76451
1052,62; 3329,010;  239,163; 2924,656;115,05697
1053,16; 3246,625;  212,087; 2848,425;115,10428
1053,71; 3240,625;  236,779; 2870,425;114,05656
1054,25; 3184,548;  237,779; 2782,810;115,78521
1054,79; 3159,394;  239,471; 2752,425;116,19485
1055,33; 3080,240;  207,856; 2678,348;116,26770
1055,88; 3102,471;  232,548; 2670,271;117,72966
1056,42; 3031,548;  248,240; 2650,040;115,88424
1056,96; 2994,317;  247,240; 2617,194;115,91268
1057,50; 2962,933;  238,471; 2587,348;115,98997
1058,05; 2899,394;  232,779; 2525,579;116,30388
1058,59; 2889,933;  261,625; 2518,502;116,45773
1059,13; 2813,240;  206,240; 2434,810;116,98088
1059,67; 2788,317;  236,625; 2431,810;116,24044
1060,21; 2744,779;  221,933; 2362,117;117,87984
1060,76; 2723,010;  243,471; 2345,963;117,93330
1061,30; 2703,779;  251,317; 2325,425;118,24176
1061,84; 2622,394;  238,933; 2285,425;116,46570
1062,38; 2586,471;  221,240; 2225,733;117,99650
1062,92; 2580,548;  272,471; 2270,425;115,52203
1063,46; 2559,471;  245,010; 2183,963;119,36651
1064,01; 2501,702;  225,779; 2175,579;116,72598
1064,55; 2479,087;  242,856; 2135,425;118,15847
1065,09; 2418,317;  207,702; 2084,579;117,78158
1065,63; 2433,471;  270,163; 2099,502;118,25628
1066,17; 2399,625;  259,317; 2072,887;118,01632
1066,71; 2375,471;  253,471; 2052,271;117,96753
1067,25; 2329,394;  232,548; 1992,194;119,16294
1067,80; 2309,548;  256,856; 1990,040;118,43472
1068,34; 2298,702;  271,779; 2016,656;116,16424
1068,88; 2252,779;  233,625; 1913,887;120,16902
1069,42; 2269,163;  271,087; 1923,040;120,95235
1069,96; 2206,087;  237,856; 1875,194;120,20916
1070,50; 2222,779;  276,779; 1908,194;119,28293
1071,04; 2157,471;  233,240; 1836,810;119,99674
1071,58; 2131,163;  234,856; 1806,810;120,63380
1072,12; 2093,702;  239,163; 1795,579;119,15447
1072,66; 2084,779;  236,394; 1772,194;120,35321
1073,21; 2099,856;  259,856; 1773,887;121,52989
1073,75; 2066,933;  238,933; 1738,040;121,93920
1074,29; 2032,471;  237,087; 1717,733;121,25683
1074,83; 2003,471;  257,856; 1708,502;120,33364
1075,37; 1976,548;  246,471; 1675,117;121,09905
1075,91; 1956,702;  262,163; 1664,271;120,85651
1076,45; 1934,933;  250,933; 1651,271;120,25664
1076,99; 1894,317;  262,163; 1629,348;119,38065
1077,53; 1874,010;  238,471; 1599,887;120,13515
1078,07; 1865,240;  248,702; 1604,810;119,20428
1078,61; 1837,702;  241,856; 1568,733;120,27085
1079,15; 1812,010;  232,163; 1538,963;120,89426
1079,69; 1810,933;  242,240; 1508,194;123,91386
1080,23; 1781,317;  261,933; 1514,810;121,27166
1080,77; 1799,317;  285,317; 1531,040;121,53584
1081,31; 1724,779;  238,625; 1481,733;119,55150
1081,85; 1724,240;  248,625; 1469,733;120,84236
1082,39; 1689,625;  239,240; 1426,733;122,13844
1082,93; 1683,779;  247,163; 1425,887;121,87896
1083,47; 1645,471;  226,933; 1380,810;122,93672
1084,01; 1628,856;  252,317; 1416,733;118,21713
1084,55; 1602,625;  232,471; 1388,425;118,53015
1085,09; 1620,010;  251,702; 1367,810;122,59639
1085,63; 1594,240;  254,471; 1342,271;123,16319
1086,17; 1550,702;  238,010; 1296,579;124,00628
1086,71; 1528,779;  237,317; 1306,733;120,76332
1087,24; 1554,471;  264,394; 1315,810;122,69907
1087,78; 1516,779;  255,933; 1303,271;120,38574
1088,32; 1470,163;  232,548; 1254,271;121,13022
1088,86; 1496,010;  250,548; 1267,425;122,47908
1089,40; 1461,856;  240,240; 1244,348;121,66179
1089,94; 1430,856;  220,010; 1205,810;122,82878
1090,48; 1425,163;  247,933; 1202,733;123,29606
1091,02; 1432,548;  259,317; 1201,656;124,50206
1091,56; 1388,548;  249,317; 1192,117;120,83483
1092,10; 1372,471;  223,702; 1155,887;123,23409
1092,63; 1395,240;  262,779; 1177,579;123,79335
1093,17; 1356,702;  260,163; 1161,194;121,69823
1093,71; 1358,394;  251,087; 1131,502;125,77105
1094,25; 1327,163;  265,240; 1151,963;119,75814
1094,79; 1321,240;  236,625; 1110,733;124,08258
1095,33; 1273,471;  243,163; 1102,117;119,94913
1095,87; 1273,471;  240,856; 1083,810;122,49963
1096,40; 1236,163;  230,163; 1064,194;120,61905
1096,94; 1262,625;  248,087; 1069,579;123,49945
1097,48; 1232,087;  243,471; 1063,040;120,62622
1098,02; 1224,625;  243,779; 1040,887;123,05064
1098,56; 1192,240;  212,471; 1004,733;123,66740
1099,10; 1187,548;  215,087;  985,963;126,15004
1099,63; 1162,163;  222,317;  992,963;121,95560
1100,17; 1174,548;  252,702;  991,502;124,77614
1100,71; 1177,933;  259,317;  991,733;125,42273

