
Integration time [ms]: 120,000
Averaging Nr. [scans]: 13
Smoothing Nr. [pixels]: 0
Data measured with spectrometer [name]: 2009305U1
Wave   ;Sample   ;Dark     ;Reference;Reflectance
[nm]   ;[counts] ;[counts] ;[counts] ;[%]

 175,72;  195,291;  198,566;  203,486;-66,56932
 176,32;  233,532;  219,407;  208,673; 0,00000
 176,92;  245,938;  225,488;  238,333;159,20186
 177,52;  256,132;  249,642;  262,106;52,06960
 178,12;  232,151;  222,099;  228,158;165,90918
 178,72;  257,711;  259,021;  245,677; 0,00000
 179,32;  250,979;  244,330;  240,398; 0,00000
 179,92;  252,417;  240,255;  252,059;103,02921
 180,52;  243,995;  231,723;  249,371;69,53396
 181,12;  257,242;  239,332;  250,633;158,48443
 181,73;  278,062;  258,641;  266,350;251,91507
 182,33;  321,322;  284,028;  295,841;315,70983
 182,93;  267,767;  254,488;  255,469; 0,00000
 183,53;  231,787;  227,174;  226,551; 0,00000
 184,13;  238,822;  237,636;  225,468; 0,00000
 184,73;  257,424;  249,327;  254,503;156,44586
 185,33;  258,385;  226,295;  344,225;27,21129
 185,93;  266,893;  240,752;  352,455;23,40216
 186,53;  279,162;  255,370;  364,379;21,82632
 187,13;  304,653;  264,836;  412,009;27,05497
 187,73;  267,463;  232,522;  362,733;26,83393
 188,33;  275,444;  233,135;  381,478;28,52063
 188,93;  276,552;  240,205;  374,876;26,98930
 189,53;  279,523;  250,277;  378,185;22,86504
 190,13;  309,817;  273,960;  414,815;25,45643
 190,73;  255,814;  215,428;  353,059;29,34409
 191,34;  286,647;  259,511;  384,128;21,77605
 191,94;  261,449;  225,133;  350,519;28,96359
 192,54;  285,235;  248,608;  384,313;26,99049
 193,14;  275,967;  260,220;  390,699;12,06917
 193,74;  286,793;  241,065;  380,441;32,80885
 194,34;  283,761;  239,375;  385,056;30,46837
 194,94;  242,372;  207,681;  342,061;25,81527
 195,54;  226,682;  204,833;  332,974;17,05083
 196,14;  254,373;  217,529;  369,402;24,25931
 196,74;  251,196;  215,678;  347,155;27,01452
 197,34;  227,861;  195,224;  346,549;21,56732
 197,94;  274,278;  229,220;  373,581;31,21173
 198,54;  271,127;  229,683;  379,896;27,59033
 199,14;  244,706;  212,610;  390,008;18,09223
 199,74;  241,609;  198,457;  379,646;23,81624
 200,34;  235,087;  197,842;  390,264;19,35619
 200,94;  270,912;  225,377;  428,974;22,36508
 201,54;  259,329;  216,302;  441,608;19,09709
 202,14;  286,318;  216,227;  462,095;28,50739
 202,74;  261,836;  208,610;  486,930;19,12393
 203,34;  254,882;  196,768;  509,732;18,56903
 203,94;  225,451;  176,997;  522,669;14,01728
 204,54;  294,829;  236,374;  596,561;16,22901
 205,14;  255,076;  198,764;  609,579;13,70730
 205,74;  306,998;  233,383;  705,303;15,59911
 206,34;  289,016;  202,304;  730,183;16,42637
 206,94;  305,864;  217,842;  803,772;15,02265
 207,54;  284,166;  188,535;  818,775;15,17369
 208,14;  318,245;  203,382;  928,042;15,85066
 208,74;  317,149;  204,302; 1008,479;14,03254
 209,34;  329,368;  201,918; 1088,856;14,36962
 209,94;  342,623;  218,995; 1208,459;12,49447
 210,54;  365,333;  213,382; 1299,034;13,99632
 211,14;  379,047;  215,149; 1412,876;13,68412
 211,73;  386,470;  200,840; 1527,244;13,99496
 212,33;  416,932;  217,762; 1648,567;13,92010
 212,93;  409,726;  204,841; 1725,665;13,47202
 213,53;  402,514;  182,687; 1796,194;13,62416
 214,13;  433,775;  191,000; 1874,334;14,42228
 214,73;  414,703;  191,766; 1898,095;13,06528
 215,33;  409,239;  169,995; 1920,998;13,66324
 215,93;  467,086;  197,460; 2050,324;14,55185
 216,53;  468,444;  149,610; 2130,499;16,09549
 217,13;  551,915;  210,844; 2382,397;15,70632
 217,73;  564,431;  177,537; 2579,907;16,10469
 218,33;  578,609;  153,616; 2783,249;16,16170
 218,93;  643,629;  174,774; 3072,845;16,17820
 219,53;  719,590;  189,847; 3389,579;16,55586
 220,13;  746,480;  163,924; 3728,452;16,34314
 220,73;  825,584;  178,149; 4076,196;16,60922
 221,32;  924,226;  187,918; 4495,556;17,09308
 221,92;  990,832;  189,924; 4912,802;16,95805
 222,52; 1057,973;  173,460; 5400,007;16,92348
 223,12; 1147,222;  183,845; 5767,690;17,25294
 223,72; 1238,511;  197,307; 6192,789;17,36648
 224,32; 1284,557;  197,307; 6643,021;16,86781
 224,92; 1340,067;  179,461; 6989,549;17,04246
 225,52; 1423,076;  194,611; 7395,180;17,06066
 226,12; 1470,536;  188,998; 7768,946;16,90695
 226,72; 1508,782;  170,536; 8113,362;16,84849
 227,31; 1577,061;  153,766; 8520,120;17,01213
 227,91; 1637,775;  188,073; 8949,331;16,54673
 228,51; 1701,583;  180,301; 9448,317;16,41433
 229,11; 1787,701;  176,843; 9856,570;16,64157
 229,71; 1830,487;  171,764;10194,401;16,54977
 230,31; 1900,650;  170,308;10676,345;16,46998
 230,91; 1980,267;  168,915;10982,606;16,75054
 231,51; 1992,326;  160,691;11344,280;16,37788
 232,10; 2079,869;  168,308;11709,875;16,56240
 232,70; 2113,992;  187,451;11933,902;16,40104
 233,30; 2156,298;  192,844;12198,872;16,35390
 233,90; 2155,885;  179,152;12314,399;16,28919
 234,50; 2158,465;  178,614;12487,313;16,08498
 235,10; 2156,221;  173,922;12540,626;16,02932
 235,70; 2183,780;  185,380;12576,880;16,12718
 236,29; 2161,558;  187,687;12620,006;15,87694
 236,89; 2121,713;  167,146;12451,267;15,91133
 237,49; 2090,060;  187,921;12428,441;15,53969
 238,09; 2046,939;  173,381;12143,413;15,65207
 238,69; 2015,199;  196,452;11868,347;15,58227
 239,29; 1937,344;  172,073;11594,147;15,45491
 239,89; 1859,357;  193,146;11243,509;15,07833
 240,48; 1788,525;  167,997;10851,171;15,16898
 241,08; 1728,913;  180,073;10506,454;14,99886
 241,68; 1668,221;  194,920;10155,041;14,79201
 242,28; 1571,294;  174,075; 9827,002;14,47457
 242,88; 1550,602;  192,692; 9558,279;14,49892
 243,48; 1486,233;  204,997; 9258,649;14,15159
 244,07; 1407,438;  193,073; 9013,704;13,76733
 244,67; 1408,744;  196,843; 8945,702;13,85210
 245,27; 1354,085;  196,840; 8755,090;13,52198
 245,87; 1345,930;  195,846; 8680,706;13,55455
 246,47; 1326,268;  175,763; 8629,563;13,60932
 247,06; 1310,561;  184,765; 8722,642;13,18589
 247,66; 1321,447;  174,920; 8733,030;13,39697
 248,26; 1393,386;  226,533; 8884,631;13,47702
 248,86; 1422,690;  199,840; 9152,915;13,65843
 249,46; 1400,114;  160,844; 9355,950;13,47750
 250,05; 1498,103;  191,612; 9730,434;13,69657
 250,65; 1535,337;  162,455;10109,593;13,80178
 251,25; 1621,120;  178,996;10645,299;13,77874
 251,85; 1753,698;  181,531;11169,454;14,30814
 252,44; 1838,505;  152,072;11848,468;14,41840
 253,04; 1990,430;  193,072;12621,735;14,46140
 253,64; 2094,574;  162,070;13290,437;14,72007
 254,24; 2314,046;  200,996;14255,643;15,03452
 254,84; 2480,268;  173,537;15113,027;15,44050
 255,43; 2681,249;  189,533;16061,326;15,69902
 256,03; 2854,439;  184,378;17049,273;15,83206
 256,63; 3085,530;  190,454;18002,256;16,25370
 257,23; 3242,582;  181,069;18779,960;16,46073
 257,82; 3501,807;  194,991;19749,378;16,91087
 258,42; 3660,306;  143,759;20487,823;17,28537
 259,02; 3919,051;  181,303;21265,976;17,72732
 259,62; 4039,107;  176,681;21929,039;17,75635
 260,21; 4223,058;  178,149;22406,204;18,19731
 260,81; 4356,729;  179,767;22744,363;18,51113
 261,41; 4494,856;  167,913;23163,508;18,81640
 262,01; 4648,981;  205,296;23575,771;19,01410
 262,60; 4757,813;  171,223;23768,730;19,43676
 263,20; 4879,244;  175,609;24034,870;19,71409
 263,80; 4998,294;  193,757;24165,397;20,04259
 264,40; 5028,190;  163,758;24242,806;20,20193
 264,99; 5134,660;  192,757;24378,175;20,43340
 265,59; 5170,451;  177,370;24531,325;20,50214
 266,19; 5295,351;  157,219;24711,881;20,92528
 266,78; 5369,632;  210,448;24707,026;21,06083
 267,38; 5379,496;  181,601;24643,801;21,24868
 267,98; 5398,515;  168,987;24696,378;21,32118
 268,58; 5394,083;  176,755;24544,482;21,41081
 269,17; 5448,241;  179,907;24685,766;21,49826
 269,77; 5463,350;  194,838;24352,681;21,80870
 270,37; 5441,050;  161,603;24261,186;21,90680
 270,96; 5466,331;  218,221;24182,565;21,89966
 271,56; 5406,271;  175,684;23785,399;22,15438
 272,16; 5353,699;  178,759;23744,946;21,95917
 272,75; 5350,597;  187,606;23620,727;22,03288
 273,35; 5362,594;  180,145;23609,061;22,11989
 273,95; 5392,962;  177,452;23611,519;22,25610
 274,54; 5377,108;  176,381;23618,060;22,18581
 275,14; 5520,387;  191,222;23949,369;22,43090
 275,74; 5476,357;  161,528;24022,463;22,27418
 276,33; 5653,153;  196,530;24536,164;22,41868
 276,93; 5700,231;  183,612;24931,690;22,29110
 277,53; 5783,000;  180,456;25401,951;22,21337
 278,12; 5941,595;  171,993;25947,094;22,38440
 278,72; 6130,198;  194,148;26541,686;22,52981
 279,32; 6253,935;  173,379;27074,882;22,60304
 279,91; 6445,736;  163,917;27830,945;22,70507
 280,51; 6611,716;  180,918;28378,567;22,80615
 281,11; 6793,246;  191,532;29066,703;22,86294
 281,70; 6906,785;  161,147;29490,844;22,99935
 282,30; 7080,578;  162,838;30132,629;23,08238
 282,90; 7253,074;  176,223;30448,420;23,37739
 283,49; 7424,113;  189,529;31026,545;23,46071
 284,09; 7551,565;  202,993;31411,326;23,54683
 284,69; 7703,604;  203,532;31632,959;23,86322
 285,28; 7855,969;  196,916;31964,227;24,10986
 285,88; 7989,886;  200,528;32207,045;24,33679
 286,47; 8106,939;  181,300;32298,629;24,67714
 287,07; 8229,801;  206,917;32288,091;25,00807
 287,67; 8417,772;  196,382;32424,264;25,51018
 288,26; 8454,946;  178,840;32317,211;25,75148
 288,86; 8621,531;  180,608;32422,612;26,17989
 289,46; 8805,774;  190,840;32469,913;26,68891
 290,05; 8989,370;  173,227;32694,430;27,10891
 290,65; 9237,479;  182,223;32802,000;27,76002
 291,24; 9422,463;  193,225;32986,708;28,14351
 291,84; 9641,222;  197,377;33070,333;28,72831
 292,44; 9801,539;  187,921;33221,662;29,10242
 293,03;10077,372;  235,225;33281,741;29,78271
 293,63;10170,660;  177,146;33394,717;30,08503
 294,22;10368,414;  197,455;33624,593;30,42725
 294,82;10486,060;  181,143;33627,807;30,81000
 295,41;10393,478;  169,532;33204,229;30,94911
 296,01;10483,965;  216,297;33178,647;31,14968
 296,61;10474,238;  195,379;32899,872;31,42950
 297,20;10337,382;  199,451;32447,989;31,43687
 297,80;10340,940;  203,996;32307,093;31,57622
 298,39;10189,083;  170,223;31917,377;31,55829
 298,99;10169,667;  191,452;31719,499;31,64869
 299,58;10070,302;  189,382;31671,372;31,38595
 300,18;10014,807;  215,304;31391,058;31,43309
 300,78; 9854,893;  186,995;31025,184;31,35041
 301,37; 9774,561;  191,603;31139,854;30,96446
 301,97; 9802,591;  196,686;31085,363;31,09847
 302,56; 9692,320;  179,300;31033,221;30,83245
 303,16; 9610,030;  169,837;30942,470;30,67723
 303,75; 9534,271;  192,303;31001,494;30,32202
 304,35; 9615,612;  173,845;31192,777;30,43872
 304,94; 9559,615;  186,225;31189,287;30,23375
 305,54; 9469,303;  190,687;31112,710;30,00650
 306,13; 9303,049;  163,922;31005,789;29,63221
 306,73; 9237,112;  168,305;30789,068;29,61653
 307,33; 9173,705;  193,613;30807,131;29,33375
 307,92; 9048,708;  190,148;30903,906;28,84232
 308,52; 9095,131;  169,991;31362,304;28,61327
 309,11; 9228,764;  176,451;31756,953;28,66425
 309,71; 9170,918;  164,450;31904,815;28,37544
 310,30; 9167,348;  169,533;32260,817;28,03819
 310,90; 9250,964;  192,071;32547,047;27,99845
 311,49; 9142,498;  180,455;32650,024;27,60136
 312,09; 9119,143;  159,765;32853,300;27,40413
 312,68; 9164,437;  205,918;33216,194;27,13858
 313,28; 9103,785;  169,917;33305,444;26,96160
 313,87; 9015,772;  145,148;33458,233;26,62805
 314,47; 8995,165;  173,221;33724,033;26,29428
 315,06; 8969,395;  161,148;33804,434;26,18129
 315,66; 8887,067;  172,227;34136,223;25,65905
 316,25; 8761,264;  145,376;33983,109;25,46237
 316,85; 8607,446;  153,688;34066,597;24,92785
 317,44; 8646,830;  166,913;34155,625;24,94922
 318,04; 8523,179;  152,454;34213,124;24,57593
 318,63; 8379,818;  152,459;34291,420;24,09962
 319,22; 8365,792;  176,145;34435,703;23,90471
 319,82; 8262,576;  171,377;34446,193;23,60683
 320,41; 8153,921;  178,069;34370,331;23,32648
 321,01; 8031,698;  188,765;34472,177;22,87676
 321,60; 7965,907;  178,993;34421,579;22,74044
 322,20; 7816,424;  166,918;34366,599;22,36719
 322,79; 7797,179;  204,994;34507,016;22,13334
 323,39; 7654,767;  173,152;34526,149;21,77864
 323,98; 7550,918;  160,302;34479,325;21,53504
 324,58; 7483,992;  167,453;34280,041;21,44821
 325,17; 7295,687;  175,376;34017,692;21,03967
 325,76; 7225,763;  204,378;33861,892;20,86127
 326,36; 7070,116;  146,149;33402,353;20,82008
 326,95; 6909,343;  195,608;33158,745;20,36740
 327,55; 6738,259;  157,223;32723,775;20,20796
 328,14; 6627,203;  172,381;32355,358;20,05663
 328,74; 6485,494;  199,915;31895,044;19,83137
 329,33; 6311,953;  191,149;31501,011;19,54912
 329,92; 6125,711;  163,682;30953,339;19,36374
 330,52; 5958,347;  177,074;30271,107;19,21070
 331,11; 5795,613;  177,454;29881,392;18,91385
 331,71; 5673,197;  180,224;29328,791;18,84474
 332,30; 5503,153;  192,225;28872,133;18,51794
 332,89; 5390,872;  199,918;28421,757;18,39339
 333,49; 5230,358;  181,685;27911,250;18,20682
 334,08; 5088,321;  187,147;27490,885;17,95056
 334,68; 4980,364;  178,147;27113,863;17,82844
 335,27; 4870,537;  188,920;26741,703;17,63136
 335,86; 4767,536;  217,685;26456,315;17,34028
 336,46; 4692,945;  193,151;26267,396;17,25762
 337,05; 4625,585;  175,608;25985,381;17,24144
 337,65; 4562,609;  161,454;25945,830;17,06908
 338,24; 4561,721;  227,533;25837,039;16,92414
 338,83; 4491,500;  194,610;25730,996;16,82654
 339,43; 4416,442;  173,838;25713,725;16,61168
 340,02; 4383,058;  173,991;25646,481;16,52397
 340,61; 4379,612;  166,610;25652,467;16,53075
 341,21; 4372,032;  208,607;25652,660;16,36306
 341,80; 4328,062;  176,839;25500,258;16,39282
 342,40; 4329,663;  189,535;25617,832;16,28158
 342,99; 4373,257;  176,303;25801,988;16,37792
 343,58; 4338,184;  183,688;25899,165;16,15563
 344,18; 4339,524;  176,842;26055,200;16,08557
 344,77; 4361,400;  173,530;26327,041;16,01265
 345,36; 4424,882;  156,608;26630,822;16,12238
 345,96; 4498,136;  196,380;26930,253;16,09103
 346,55; 4461,791;  167,075;27206,227;15,88332
 347,14; 4553,630;  158,535;27447,042;16,10603
 347,74; 4591,717;  147,693;27911,065;16,00679
 348,33; 4702,570;  173,770;28553,678;15,95777
 348,92; 4815,274;  177,387;29147,963;16,00896
 349,52; 4876,826;  161,694;29604,805;16,01438
 350,11; 4918,675;  165,529;29679,007;16,10500
 350,70; 4951,569;  169,071;29774,027;16,15438
 351,29; 4899,372;  171,679;29529,091;16,10392
 351,89; 4969,750;  178,912;29546,986;16,31308
 352,48; 4935,603;  158,764;29500,433;16,28005
 353,07; 4963,623;  178,536;29413,506;16,36768
 353,67; 5009,782;  191,156;29345,503;16,52798
 354,26; 4947,721;  180,997;29166,009;16,44548
 354,85; 4943,643;  184,304;28948,268;16,54619
 355,45; 4933,385;  162,069;28706,290;16,71552
 356,04; 4934,425;  180,228;28671,925;16,68625
 356,63; 4948,136;  201,378;28500,515;16,77351
 357,22; 4915,315;  177,372;28328,592;16,83033
 357,82; 4903,820;  177,450;28094,235;16,93021
 358,41; 4956,187;  177,301;27936,001;17,21581
 359,00; 4941,071;  163,453;27779,461;17,30018
 359,60; 4968,015;  188,379;27770,380;17,32882
 360,19; 4955,515;  171,383;27472,443;17,52361
 360,78; 4974,350;  192,608;27334,973;17,61726
 361,37; 4996,254;  169,839;27129,149;17,90259
 361,97; 4981,784;  179,686;27121,395;17,82403
 362,56; 4977,065;  164,837;26800,094;18,06713
 363,15; 5009,144;  194,762;26540,500;18,27386
 363,74; 4975,160;  186,375;26197,561;18,41048
 364,34; 4963,846;  211,453;25831,548;18,54947
 364,93; 4901,850;  172,683;25451,510;18,70802
 365,52; 4893,075;  157,762;25110,931;18,97680
 366,11; 4885,701;  173,992;24784,121;19,14541
 366,71; 4810,023;  167,992;24400,780;19,15599
 367,30; 4816,161;  178,147;24109,118;19,38080
 367,89; 4903,571;  205,227;23947,817;19,78868
 368,48; 4790,429;  184,836;23571,837;19,69296
 369,07; 4804,876;  185,302;23165,873;20,10209
 369,67; 4813,918;  200,067;22951,938;20,27899
 370,26; 4789,222;  173,225;22723,302;20,46998
 370,85; 4775,830;  179,608;22457,040;20,63174
 371,44; 4759,313;  178,455;22204,977;20,79701
 372,03; 4764,475;  159,992;22012,285;21,07094
 372,63; 4730,723;  158,378;21679,734;21,24562
 373,22; 4733,488;  178,148;21352,926;21,51305
 373,81; 4705,277;  145,685;21098,073;21,76168
 374,40; 4677,910;  172,150;20852,402;21,78774
 374,99; 4675,995;  168,839;20697,279;21,95567
 375,59; 4672,493;  163,535;20366,291;22,31853
 376,18; 4734,894;  195,146;20267,060;22,61741
 376,77; 4708,409;  186,147;20074,890;22,73779
 377,36; 4754,479;  201,147;20011,754;22,98431
 377,95; 4749,676;  188,299;19804,594;23,25300
 378,55; 4710,544;  175,765;19619,869;23,32213
 379,14; 4809,465;  177,377;19552,633;23,90723
 379,73; 4805,329;  183,838;19444,639;23,99428
 380,32; 4879,337;  191,532;19524,209;24,24809
 380,91; 4839,356;  159,606;19376,399;24,35240
 381,50; 4877,661;  191,376;19283,270;24,54594
 382,10; 4917,491;  170,763;19182,901;24,96683
 382,69; 4915,653;  163,685;19178,501;24,99087
 383,28; 4953,919;  189,837;19083,910;25,21469
 383,87; 4969,121;  169,145;19021,514;25,46086
 384,46; 4993,103;  171,066;18934,093;25,69968
 385,05; 5049,723;  197,299;19004,150;25,80137
 385,64; 5082,393;  173,145;18894,351;26,22293
 386,24; 5115,373;  161,450;18841,894;26,51930
 386,83; 5208,485;  189,296;18974,211;26,71926
 387,42; 5266,354;  201,530;19118,858;26,77346
 388,01; 5369,312;  193,678;19304,187;27,08266
 388,60; 5516,837;  184,681;19534,238;27,55699
 389,19; 5562,224;  166,291;19748,225;27,55567
 389,78; 5662,971;  170,292;19985,503;27,71951
 390,37; 5857,085;  219,680;20387,425;27,95258
 390,96; 5941,657;  181,219;20597,047;28,21555
 391,56; 6002,339;  179,367;20685,516;28,39623
 392,15; 6132,219;  176,138;20922,122;28,70956
 392,74; 6231,135;  151,286;21074,921;29,05733
 393,33; 6373,346;  166,751;21366,590;29,27661
 393,92; 6524,966;  183,669;21782,382;29,35961
 394,51; 6627,784;  167,597;21961,359;29,64237
 395,10; 6723,092;  199,894;22129,832;29,74563
 395,69; 6799,906;  175,202;22219,013;30,05244
 396,28; 6917,486;  184,353;22308,666;30,43319
 396,87; 6972,293;  197,809;22419,415;30,48602
 397,46; 7020,111;  186,806;22514,758;30,60426
 398,06; 7118,655;  197,648;22831,381;30,57828
 398,65; 7178,093;  184,945;22806,531;30,91361
 399,24; 7303,597;  191,943;22924,937;31,28340
 399,83; 7287,731;  185,851;22983,584;31,15170
 400,42; 7439,820;  205,453;23115,032;31,57791
 401,01; 7498,346;  184,053;23204,831;31,77257
 401,60; 7558,646;  190,878;23218,114;31,99589
 402,19; 7547,081;  210,092;23119,961;32,02545
 402,78; 7655,734;  221,912;23097,963;32,49609
 403,37; 7625,222;  199,195;23029,929;32,52645
 403,96; 7638,075;  196,628;22861,068;32,83314
 404,55; 7660,727;  195,519;22828,880;32,98320
 405,14; 7605,413;  192,721;22595,424;33,08838
 405,73; 7632,357;  195,840;22495,851;33,34759
 406,32; 7635,175;  194,817;22419,585;33,47778
 406,91; 7614,893;  196,945;22119,517;33,83704
 407,50; 7618,338;  196,931;21945,108;34,12427
 408,09; 7495,106;  177,614;21674,887;34,03917
 408,68; 7524,339;  201,992;21586,902;34,24072
 409,27; 7497,276;  178,770;21385,657;34,51004
 409,86; 7443,141;  189,636;21335,382;34,30243
 410,45; 7521,088;  203,500;21245,099;34,77677
 411,04; 7507,966;  212,133;21118,401;34,89783
 411,63; 7438,551;  197,079;20844,197;35,07256
 412,22; 7413,823;  205,100;20669,705;35,22532
 412,81; 7390,517;  218,031;20356,495;35,61585
 413,40; 7269,292;  222,964;20009,573;35,61160
 413,99; 7208,959;  236,730;19781,489;35,67314
 414,58; 7048,148;  190,424;19386,698;35,72424
 415,17; 7054,497;  194,031;19239,594;36,02134
 415,76; 7015,711;  189,100;19141,942;36,01893
 416,35; 6974,116;  186,489;18948,538;36,17743
 416,94; 7042,598;  217,178;19066,084;36,21122
 417,53; 7132,586;  189,493;19216,895;36,48997
 418,12; 7177,467;  193,726;19310,719;36,53159
 418,71; 7357,954;  201,271;19685,420;36,73080
 419,30; 7393,488;  210,573;19751,515;36,75828
 419,89; 7484,966;  195,959;19918,195;36,95832
 420,48; 7637,795;  218,041;20195,948;37,13980
 421,07; 7629,923;  204,042;20301,419;36,94950
 421,66; 7638,052;  182,278;20188,973;37,26640
 422,25; 7714,098;  183,978;20183,328;37,65182
 422,84; 7741,080;  219,980;20075,064;37,87997
 423,43; 7608,168;  191,899;19850,977;37,72440
 424,02; 7562,296;  220,055;19648,294;37,79159
 424,60; 7441,723;  189,526;19149,045;38,25095
 425,19; 7368,048;  208,598;19005,048;38,08938
 425,78; 7370,373;  225,676;18932,512;38,19297
 426,37; 7317,439;  228,141;18826,907;38,11703
 426,96; 7319,112;  219,449;18632,160;38,55849
 427,55; 7266,452;  202,839;18552,182;38,49518
 428,14; 7167,379;  188,457;18317,021;38,49683
 428,73; 7149,356;  200,837;18197,543;38,60995
 429,32; 7211,408;  221,140;18214,475;38,84920
 429,91; 7209,787;  234,221;18241,929;38,73656
 430,50; 7159,722;  225,147;17983,199;39,05031
 431,08; 7120,166;  237,843;17866,611;39,04029
 431,67; 7096,173;  266,999;17788,473;38,97602
 432,26; 7048,974;  271,694;17518,554;39,29573
 432,85; 6920,372;  291,770;17238,088;39,11529
 433,44; 6849,610;  294,312;16882,011;39,51903
 434,03; 6661,467;  312,702;16561,789;39,07152
 434,62; 6575,210;  268,774;16155,211;39,69698
 435,21; 6554,101;  289,924;15970,299;39,94915
 435,79; 6471,802;  276,085;15838,998;39,81078
 436,38; 6439,867;  278,705;15778,620;39,74965
 436,97; 6425,243;  258,245;15668,482;40,01884
 437,56; 6306,892;  271,714;15456,614;39,74461
 438,15; 6343,353;  243,019;15404,042;40,23695
 438,74; 6297,850;  260,866;15454,420;39,73385
 439,33; 6393,782;  236,942;15477,239;40,39843
 439,91; 6362,243;  208,715;15498,654;40,24560
 440,50; 6428,809;  253,792;15561,140;40,34021
 441,09; 6479,915;  247,104;15636,692;40,50018
 441,68; 6473,381;  245,878;15663,026;40,39335
 442,27; 6517,298;  227,107;15614,905;40,87778
 442,86; 6465,842;  201,501;15649,367;40,55150
 443,44; 6519,947;  225,114;15688,653;40,70758
 444,03; 6623,370;  251,655;15704,424;41,23349
 444,62; 6494,356;  212,039;15537,764;40,99197
 445,21; 6456,957;  218,577;15382,505;41,13961
 445,80; 6420,381;  243,197;15280,370;41,07942
 446,39; 6351,630;  252,735;15024,222;41,28829
 446,97; 6238,941;  210,741;14844,400;41,19407
 447,56; 6174,363;  218,745;14652,447;41,26189
 448,15; 6138,407;  217,510;14459,410;41,57379
 448,74; 6040,669;  226,818;14271,073;41,39665
 449,33; 5981,761;  219,975;14125,673;41,43471
 449,91; 5924,820;  219,903;13926,517;41,62164
 450,50; 5881,123;  210,287;13746,445;41,89399
 451,09; 5823,351;  229,749;13687,701;41,56355
 451,68; 5756,298;  250,828;13540,735;41,42595
 452,26; 5743,745;  229,292;13465,661;41,66138
 452,85; 5711,804;  226,060;13378,685;41,70836
 453,44; 5716,957;  236,220;13417,517;41,57965
 454,03; 5708,143;  214,370;13422,702;41,59323
 454,61; 5680,777;  210,144;13347,618;41,64143
 455,20; 5791,021;  233,377;13549,632;41,73579
 455,79; 5817,212;  231,373;13524,751;42,01972
 456,38; 5798,250;  235,304;13579,829;41,68710
 456,97; 5844,404;  225,995;13693,383;41,71862
 457,55; 5843,800;  223,229;13631,961;41,91725
 458,14; 5860,884;  251,379;13629,235;41,93127
 458,73; 5802,697;  234,998;13586,062;41,70228
 459,31; 5865,025;  263,541;13615,043;41,95396
 459,90; 5844,794;  264,077;13720,843;41,47146
 460,49; 5948,603;  265,153;13742,890;42,16917
 461,08; 5957,636;  215,466;13864,450;42,07031
 461,66; 5975,343;  229,541;13954,064;41,86522
 462,25; 6014,873;  234,699;13939,264;42,17700
 462,84; 6023,533;  252,313;14009,629;41,95019
 463,43; 5978,915;  189,703;13965,104;42,02572
 464,01; 5987,406;  227,090;13974,687;41,90053
 464,60; 6004,739;  252,240;13895,182;42,16465
 465,19; 5881,309;  212,014;13650,694;42,18640
 465,77; 5889,679;  229,017;13623,542;42,26101
 466,36; 5883,544;  244,088;13591,148;42,25242
 466,95; 5729,407;  232,550;13192,920;42,41281
 467,53; 5634,725;  222,173;12958,667;42,49641
 468,12; 5516,429;  251,097;12659,506;42,43358
 468,71; 5419,081;  233,246;12480,730;42,34204
 469,29; 5290,629;  216,636;12253,520;42,15371
 469,88; 5224,159;  221,330;12056,674;42,27025
 470,47; 5252,858;  273,180;12203,521;41,73962
 471,06; 5247,862;  232,488;12142,006;42,11232
 471,64; 5253,723;  241,102;12293,373;41,59068
 472,23; 5281,319;  204,418;12243,506;42,17015
 472,81; 5298,441;  215,722;12423,056;41,63660
 473,40; 5377,433;  218,572;12514,243;41,95673
 473,99; 5463,539;  271,725;12684,177;41,82746
 474,57; 5469,276;  226,033;12827,220;41,60912
 475,16; 5539,350;  241,184;12961,753;41,65039
 475,75; 5592,287;  249,267;13017,028;41,84774
 476,33; 5638,427;  250,577;13126,310;41,84499
 476,92; 5654,103;  254,803;13178,522;41,77822
 477,51; 5678,395;  236,807;13257,983;41,79029
 478,09; 5689,913;  245,038;13206,005;42,00979
 478,68; 5652,971;  243,116;13189,013;41,78818
 479,27; 5659,276;  259,036;13226,776;41,64365
 479,85; 5689,673;  230,654;13187,495;42,13233
 480,44; 5704,484;  229,886;13453,625;41,39977
 481,02; 6329,924;  232,812;15345,322;40,34480
 481,61; 7089,588;  260,195;16962,095;40,88992
 482,20; 7546,227;  250,427;17957,465;41,20282
 482,78; 7872,362;  273,270;18708,918;41,21955
 483,37; 8025,742;  269,278;19143,082;41,09645
 483,95; 8115,114;  291,048;19265,626;41,23447
 484,54; 8199,614;  298,041;19505,993;41,13699
 485,13; 8152,637;  274,590;19302,766;41,40201
 485,71; 8058,580;  249,358;19025,605;41,59096
 486,30; 7969,330;  280,665;18804,628;41,50659
 486,88; 7835,003;  299,589;18295,314;41,87336
 487,47; 7576,370;  307,052;17548,463;42,16197
 488,05; 7155,502;  284,438;16623,482;42,05304
 488,64; 6652,287;  288,441;15295,006;42,40708
 489,23; 5886,042;  296,670;13258,685;43,12117
 489,81; 5121,129;  288,824;11752,229;42,15418
 490,40; 4880,617;  245,979;11271,574;42,03526
 490,98; 4790,005;  237,672;11066,274;42,03989
 491,57; 4722,819;  275,670;11056,116;41,25199
 492,15; 4675,329;  243,596;10929,662;41,47208
 492,74; 4659,179;  245,592;10834,144;41,68263
 493,32; 4605,266;  257,980;10783,041;41,30414
 493,91; 4541,798;  245,290;10671,770;41,20766
 494,50; 4533,053;  255,988;10681,835;41,02367
 495,08; 4489,006;  236,680;10601,141;41,02795
 495,67; 4480,979;  253,213;10572,899;40,96797
 496,25; 4405,854;  203,062;10468,236;40,94224
 496,84; 4379,638;  217,366;10475,480;40,57541
 497,42; 4377,517;  211,678;10406,132;40,86378
 498,01; 4346,707;  246,675;10321,341;40,69646
 498,59; 4293,030;  202,140;10304,772;40,49330
 499,18; 4264,595;  222,906;10264,178;40,25077
 499,76; 4269,849;  229,754;10185,764;40,57946
 500,35; 4152,330;  224,297;10004,590;40,16274
 500,93; 4131,129;  204,217;10013,571;40,03232
 501,52; 4093,958;  226,371; 9913,014;39,92701
 502,10; 4126,763;  230,530; 9803,395;40,70080
 502,69; 4025,504;  215,609; 9705,648;40,14626
 503,27; 3960,211;  200,296; 9525,781;40,31870
 503,86; 3948,657;  210,223; 9502,522;40,23153
 504,44; 3890,341;  197,917; 9364,522;40,28126
 505,03; 3775,740;  180,379; 9142,489;40,11735
 505,61; 3711,306;  191,609; 9011,836;39,90484
 506,19; 3657,842;  218,610; 8847,477;39,85728
 506,78; 3568,218;  190,460; 8694,754;39,71826
 507,36; 3542,434;  198,225; 8523,245;40,17058
 507,95; 3463,873;  204,385; 8413,050;39,70790
 508,53; 3417,439;  203,306; 8275,413;39,81778
 509,12; 3381,477;  209,692; 8158,134;39,90449
 509,70; 3300,963;  219,924; 8005,876;39,57177
 510,29; 3248,454;  216,618; 7883,229;39,54598
 510,87; 3122,103;  193,460; 7742,017;38,79739
 511,46; 3073,287;  191,230; 7554,231;39,14242
 512,04; 3032,955;  207,540; 7451,968;39,00122
 512,62; 2957,498;  204,768; 7282,253;38,89418
 513,21; 2887,150;  182,464; 7128,944;38,93607
 513,79; 2815,580;  196,240; 7025,497;38,35468
 514,38; 2759,974;  179,084; 6843,639;38,72562
 514,96; 2752,764;  220,083; 6790,219;38,54838
 515,54; 2697,166;  192,931; 6688,501;38,55297
 516,13; 2656,265;  208,239; 6597,207;38,31646
 516,71; 2582,201;  203,242; 6453,541;38,06153
 517,30; 2536,431;  186,629; 6338,818;38,19458
 517,88; 2524,687;  214,551; 6281,806;38,07547
 518,46; 2463,240;  192,937; 6196,297;37,81720
 519,05; 2435,587;  205,324; 6110,285;37,76932
 519,63; 2429,116;  215,323; 6109,587;37,55842
 520,22; 2414,752;  217,865; 6020,093;37,86282
 520,80; 2356,332;  204,712; 5935,854;37,54262
 521,38; 2367,538;  215,939; 5914,232;37,75865
 521,97; 2324,757;  195,021; 5894,919;37,36446
 522,55; 2302,560;  210,175; 5889,326;36,84328
 523,13; 2293,083;  184,715; 5879,818;37,02072
 523,72; 2277,495;  196,091; 5911,977;36,41438
 524,30; 2316,330;  213,332; 6033,036;36,13583
 524,89; 2295,030;  182,637; 6055,141;35,97090
 525,47; 2354,995;  209,640; 6163,305;36,03419
 526,05; 2356,262;  186,487; 6218,824;35,96907
 526,64; 2390,324;  201,642; 6312,918;35,81384
 527,22; 2427,616;  205,256; 6437,623;35,65836
 527,80; 2479,229;  236,719; 6572,312;35,39543
 528,39; 2465,934;  198,566; 6642,739;35,18479
 528,97; 2508,270;  208,104; 6801,547;34,88565
 529,55; 2562,958;  220,407; 6957,521;34,77083
 530,14; 2616,310;  235,106; 7192,151;34,22723
 530,72; 2640,173;  207,873; 7244,031;34,56858
 531,30; 2652,659;  192,029; 7386,142;34,20338
 531,89; 2706,938;  207,337; 7443,054;34,54531
 532,47; 2749,501;  227,107; 7555,488;34,41953
 533,05; 2737,710;  229,103; 7586,675;34,09559
 533,63; 2756,196;  238,338; 7661,601;33,91848
 534,22; 2725,854;  206,646; 7650,272;33,84383
 534,80; 2761,246;  229,956; 7756,442;33,63177
 535,38; 2816,821;  257,183; 7765,727;34,08966
 535,97; 2730,741;  221,722; 7771,137;33,23461
 536,55; 2752,841;  262,034; 7825,477;32,93218
 537,13; 2732,256;  277,337; 7838,921;32,46568
 537,71; 2765,830;  302,259; 7900,468;32,42304
 538,30; 2793,893;  325,262; 7929,212;32,46511
 538,88; 2809,976;  330,728; 8040,610;32,15676
 539,46; 2871,434;  394,726; 8214,848;31,67097
 540,05; 2917,595;  407,804; 8356,725;31,57399
 540,63; 2965,003;  449,958; 8595,188;30,87753
 541,21; 2979,698;  471,729; 8734,824;30,35145
 541,79; 3045,285;  505,344; 8748,505;30,81270
 542,38; 3070,861;  510,804; 8920,734;30,44089
 542,96; 3120,703;  545,039; 9082,034;30,17062
 543,54; 3169,825;  560,113; 9293,953;29,88046
 544,12; 3178,734;  513,499; 9353,266;30,15052
 544,70; 3181,029;  489,808; 9488,717;29,90608
 545,29; 3215,779;  510,804; 9593,954;29,78015
 545,87; 3230,823;  476,652; 9620,812;30,11945
 546,45; 3183,271;  453,650; 9631,030;29,74292
 547,03; 3171,933;  423,266; 9718,862;29,56956
 547,62; 3198,976;  398,114; 9908,979;29,44908
 548,20; 3257,752;  402,115;10032,472;29,65246
 548,78; 3284,608;  376,967;10148,493;29,75626
 549,36; 3304,745;  340,736;10351,490;29,60825
 549,94; 3332,597;  316,499;10480,654;29,67387
 550,53; 3385,994;  316,581;10703,572;29,55055
 551,11; 3397,704;  283,122;10923,378;29,27169
 551,69; 3488,399;  304,659;11212,214;29,18840
 552,27; 3488,860;  267,580;11428,796;28,86137
 552,85; 3577,416;  274,430;11835,740;28,56931
 553,44; 3680,405;  268,966;12104,378;28,82399
 554,02; 3743,232;  278,582;12438,065;28,49340
 554,60; 3761,732;  234,045;12691,094;28,31880
 555,18; 3879,793;  275,197;13120,094;28,06248
 555,76; 3949,631;  239,813;13420,340;28,14621
 556,34; 4018,420;  254,817;13760,810;27,86617
 556,93; 4112,398;  237,197;14199,150;27,75544
 557,51; 4185,582;  227,432;14489,844;27,75232
 558,09; 4239,355;  245,197;14817,633;27,40899
 558,67; 4329,152;  243,357;15189,183;27,33736
 559,25; 4379,714;  247,433;15482,584;27,12334
 559,83; 4445,324;  238,358;15719,312;27,17511
 560,41; 4486,288;  233,508;16087,916;26,82396
 561,00; 4551,642;  241,742;16431,733;26,62077
 561,58; 4575,375;  233,893;16715,398;26,34154
 562,16; 4634,055;  216,045;16926,433;26,43870
 562,74; 4714,352;  212,736;17302,582;26,34088
 563,32; 4778,574;  204,743;17709,367;26,12928
 563,90; 4862,474;  227,357;18080,919;25,96186
 564,48; 4933,003;  237,431;18492,637;25,72182
 565,06; 5085,600;  229,049;19107,280;25,72567
 565,65; 5184,336;  240,130;19810,877;25,26325
 566,23; 5419,301;  269,126;20494,327;25,46414
 566,81; 5489,734;  233,048;21195,100;25,07715
 567,39; 5696,335;  236,897;22007,612;25,07698
 567,97; 5820,092;  247,818;22584,509;24,94673
 568,55; 6028,690;  250,512;23297,783;25,07099
 569,13; 6104,002;  225,588;24045,052;24,67904
 569,71; 6332,613;  233,737;24966,026;24,65957
 570,29; 6492,557;  273,351;25910,622;24,25846
 570,87; 6653,457;  261,198;26477,221;24,38302
 571,45; 6751,883;  261,587;27165,677;24,12383
 572,03; 6772,227;  220,821;27571,550;23,95331
 572,61; 6935,234;  225,666;28244,947;23,94625
 573,20; 7042,389;  250,817;28890,965;23,71347
 573,78; 7172,358;  235,897;29425,795;23,76322
 574,36; 7244,058;  240,665;29911,703;23,60346
 574,94; 7318,811;  280,591;30121,872;23,58552
 575,52; 7289,714;  241,517;30511,695;23,28429
 576,10; 7365,451;  291,054;31086,291;22,97237
 576,68; 7465,415;  282,744;31625,802;22,91630
 577,26; 7558,111;  303,057;32195,967;22,74817
 577,84; 7610,321;  306,973;32611,430;22,60787
 578,42; 7653,437;  320,053;32823,877;22,56160
 579,00; 7604,603;  281,743;32923,685;22,43390
 579,58; 7612,267;  313,745;33195,785;22,19608
 580,16; 7532,362;  298,669;33200,298;21,98582
 580,74; 7573,486;  291,208;33374,530;22,01193
 581,32; 7499,506;  300,130;33410,523;21,74355
 581,90; 7446,752;  305,515;33463,770;21,53683
 582,48; 7458,453;  312,285;33582,034;21,47948
 583,06; 7413,445;  315,053;33676,708;21,27710
 583,64; 7429,859;  316,283;33703,784;21,30611
 584,22; 7303,754;  320,364;33508,775;21,04165
 584,80; 7197,753;  325,669;33213,834;20,89531
 585,38; 7078,521;  323,432;32860,721;20,76107
 585,96; 6983,913;  310,820;33022,875;20,39949
 586,54; 6995,372;  318,364;33149,442;20,33746
 587,12; 6934,210;  286,439;33255,962;20,16338
 587,70; 6953,960;  325,513;33363,338;20,06321
 588,28; 6939,460;  309,516;33454,632;20,00278
 588,86; 6884,067;  300,594;33503,109;19,82824
 589,44; 6843,316;  290,674;33579,515;19,68420
 590,02; 6867,921;  302,520;33847,971;19,57166
 590,59; 6822,839;  282,594;34058,991;19,36336
 591,17; 6836,256;  279,216;34230,921;19,31284
 591,75; 6834,516;  274,906;34303,040;19,27702
 592,33; 6867,602;  283,444;34606,935;19,18266
 592,91; 6796,813;  244,985;34776,080;18,97371
 593,49; 6851,027;  253,371;35071,047;18,94916
 594,07; 6828,263;  263,525;35338,518;18,71629
 594,65; 6847,154;  271,518;35305,345;18,76939
 595,23; 6851,205;  263,442;35704,816;18,58777
 595,81; 6877,941;  257,136;35816,843;18,61884
 596,39; 6802,114;  250,828;35926,065;18,36368
 596,97; 6760,938;  255,831;36111,377;18,14254
 597,55; 6730,583;  240,826;35993,988;18,15156
 598,12; 6658,532;  236,603;36068,843;17,92221
 598,70; 6650,056;  232,216;36139,073;17,87358
 599,28; 6642,406;  254,601;36338,205;17,70279
 599,86; 6625,528;  237,831;36291,325;17,71727
 600,44; 6554,398;  216,140;36436,836;17,49900
 601,02; 6565,105;  261,221;36439,421;17,42454
 601,60; 6468,126;  247,599;36397,721;17,20749
 602,18; 6417,129;  216,449;36499,237;17,08987
 602,75; 6416,895;  235,828;36593,380;17,00078
 603,33; 6418,127;  254,832;36540,755;16,98536
 603,91; 6353,084;  237,066;36474,192;16,87777
 604,49; 6351,487;  252,755;36542,613;16,80561
 605,07; 6299,690;  258,753;36635,556;16,60656
 605,65; 6296,392;  282,756;36690,684;16,51738
 606,23; 6283,985;  328,517;36932,868;16,26984
 606,80; 6233,866;  373,674;36857,292;16,06253
 607,38; 6207,591;  396,142;36917,222;15,91259
 607,96; 6219,948;  440,135;37008,149;15,80565
 608,54; 6228,363;  498,910;36939,365;15,72278
 609,12; 6130,063;  479,520;37112,963;15,42455
 609,70; 6144,951;  541,985;37063,280;15,34164
 610,27; 6109,228;  529,135;37074,355;15,26901
 610,85; 6069,885;  540,293;37183,224;15,09047
 611,43; 6023,964;  553,985;37109,798;14,96336
 612,01; 5959,480;  521,060;36852,520;14,96890
 612,59; 5938,629;  503,293;36913,082;14,92823
 613,16; 5858,091;  475,364;36907,017;14,77486
 613,74; 5778,786;  436,986;36680,503;14,73864
 614,32; 5732,170;  405,217;36699,026;14,67730
 614,90; 5723,701;  388,830;36572,010;14,74406
 615,48; 5638,982;  326,673;36291,955;14,77066
 616,05; 5601,006;  318,364;36316,894;14,67460
 616,63; 5550,876;  335,594;36081,449;14,58989
 617,21; 5489,060;  335,289;35943,619;14,47350
 617,79; 5466,248;  304,598;35937,010;14,48583
 618,36; 5440,353;  316,676;35841,852;14,42267
 618,94; 5282,226;  260,596;35553,473;14,22845
 619,52; 5275,254;  279,132;35302,297;14,26519
 620,10; 5238,981;  279,597;35257,952;14,17844
 620,67; 5209,380;  288,286;35267,658;14,06856
 621,25; 5172,266;  297,445;35054,908;14,02525
 621,83; 5127,240;  276,981;35003,594;13,96698
 622,41; 5140,558;  312,673;34994,769;13,92040
 622,98; 5023,496;  295,517;34788,382;13,70712
 623,56; 5032,397;  289,132;34648,830;13,80474
 624,14; 4968,535;  278,215;34632,925;13,65263
 624,72; 4948,875;  280,904;34474,956;13,65141
 625,29; 4912,286;  250,901;34648,732;13,55139
 625,87; 4935,507;  295,905;34525,560;13,55433
 626,45; 4842,121;  254,439;34365,277;13,44934
 627,02; 4810,386;  260,136;34267,210;13,38030
 627,60; 4803,634;  250,448;34253,692;13,39045
 628,18; 4776,524;  239,135;34411,194;13,27807
 628,76; 4753,466;  247,363;34361,230;13,20901
 629,33; 4789,980;  266,672;34281,303;13,29812
 629,91; 4768,211;  254,828;34312,491;13,25218
 630,49; 4766,550;  273,056;34532,981;13,11589
 631,06; 4764,835;  273,440;34614,352;13,07885
 631,64; 4714,937;  265,054;34578,663;12,96827
 632,22; 4677,059;  221,514;34463,337;13,01200
 632,79; 4694,102;  254,668;34729,084;12,87747
 633,37; 4708,181;  228,368;34782,246;12,96472
 633,95; 4642,021;  246,054;34913,123;12,68053
 634,52; 4694,111;  228,365;35002,582;12,84212
 635,10; 4673,953;  236,135;35039,621;12,75107
 635,68; 4689,919;  240,438;35272,150;12,70130
 636,25; 4658,770;  236,666;35177,819;12,65586
 636,83; 4655,543;  216,209;35381,999;12,62401
 637,41; 4661,720;  223,283;35414,674;12,61228
 637,98; 4685,163;  244,283;35637,684;12,54720
 638,56; 4685,176;  244,666;35753,387;12,50541
 639,13; 4643,136;  241,439;35737,832;12,40041
 639,71; 4679,061;  247,902;35908,957;12,42576
 640,29; 4623,840;  205,210;35762,911;12,42665
 640,86; 4636,231;  214,440;35942,860;12,37612
 641,44; 4613,930;  223,902;35880,809;12,31186
 642,02; 4644,090;  249,979;35828,604;12,35042
 642,59; 4622,097;  222,518;36029,629;12,28689
 643,17; 4565,719;  232,825;35919,039;12,14164
 643,74; 4600,110;  222,826;35934,604;12,25726
 644,32; 4605,732;  253,210;35927,321;12,20078
 644,89; 4569,815;  234,364;35959,886;12,13544
 645,47; 4598,283;  255,595;35941,834;12,16908
 646,05; 4557,520;  230,134;35848,783;12,14922
 646,62; 4556,988;  232,442;35882,039;12,13070
 647,20; 4576,687;  242,672;36112,911;12,08248
 647,77; 4508,771;  215,365;35928,706;12,02185
 648,35; 4501,469;  213,827;35818,501;12,04236
 648,92; 4532,399;  239,750;35843,065;12,05688
 649,50; 4493,713;  212,134;35661,168;12,07813
 650,08; 4460,720;  212,288;35680,655;11,97809
 650,65; 4492,649;  218,596;35981,911;11,95094
 651,23; 4574,271;  214,366;36897,552;11,88530
 651,80; 4715,970;  214,981;37642,501;12,02588
 652,38; 4762,053;  213,366;37967,834;12,04808
 652,95; 4763,137;  199,981;38213,552;12,00402
 653,53; 4834,297;  215,828;38490,578;12,06662
 654,10; 4866,688;  239,135;38697,911;12,03250
 654,68; 4782,079;  214,059;38573,168;11,90857
 655,25; 4804,547;  208,136;38645,732;11,95811
 655,83; 4764,862;  204,059;38553,757;11,89267
 656,40; 4787,791;  236,597;38588,398;11,86696
 656,98; 4794,875;  191,674;38522,962;12,00899
 657,55; 4732,035;  217,290;38404,526;11,82265
 658,13; 4736,041;  199,290;37955,321;12,01596
 658,70; 4711,740;  222,675;37674,424;11,98626
 659,28; 4551,516;  216,290;36633,065;11,90447
 659,85; 4488,061;  209,136;36135,014;11,91042
 660,43; 4506,990;  223,137;36336,116;11,86237
 661,00; 4525,228;  218,367;36416,296;11,89809
 661,58; 4551,927;  206,829;36804,860;11,87249
 662,15; 4550,779;  199,598;36927,116;11,84720
 662,73; 4652,709;  253,445;37190,603;11,91013
 663,30; 4641,177;  211,522;37452,321;11,89463
 663,88; 4694,491;  216,906;37644,732;11,96325
 664,45; 4690,036;  198,137;37898,142;11,91485
 665,03; 4753,812;  203,599;38142,783;11,99344
 665,60; 4845,510;  250,753;38596,501;11,98244
 666,17; 4830,902;  229,676;38695,449;11,96187
 666,75; 4836,831;  214,138;39011,552;11,91495
 667,32; 4933,992;  230,138;39367,347;12,01888
 667,90; 4968,921;  219,138;39536,373;12,08066
 668,47; 5007,697;  228,677;39874,244;12,05436
 669,05; 5012,857;  211,061;39996,501;12,06923
 669,62; 5019,094;  192,677;40150,449;12,07880
 670,19; 5065,562;  197,754;40308,244;12,13600
 670,77; 5061,338;  225,369;40470,347;12,01633
 671,34; 5076,345;  203,216;40401,296;12,12279
 671,92; 5137,505;  200,908;40641,090;12,20716
 672,49; 5128,742;  228,370;40657,116;12,12101
 673,06; 5095,749;  185,139;40744,603;12,10719
 673,64; 5144,140;  200,293;40715,783;12,20236
 674,21; 5149,608;  203,447;40643,116;12,23096
 674,79; 5208,845;  214,986;40860,219;12,28646
 675,36; 5230,313;  218,370;40951,475;12,30435
 675,93; 5184,935;  192,601;40879,655;12,27008
 676,51; 5263,019;  219,217;41050,988;12,35264
 677,08; 5256,871;  209,832;41056,244;12,35614
 677,65; 5260,724;  213,063;41272,347;12,29359
 678,23; 5286,884;  222,678;41479,142;12,27494
 678,80; 5340,660;  198,063;41606,321;12,41925
 679,38; 5384,897;  198,140;41665,578;12,50802
 679,95; 5430,134;  205,910;41906,680;12,52789
 680,52; 5447,449;  205,217;42264,706;12,46385
 681,10; 5582,994;  208,602;42664,270;12,65883
 681,67; 5586,462;  215,295;42842,988;12,60018
 682,24; 5600,007;  192,525;42907,860;12,65934
 682,82; 5662,398;  200,372;43501,731;12,61398
 683,39; 5800,173;  220,526;43827,680;12,79526
 683,96; 5840,257;  204,910;44027,398;12,85949
 684,54; 5864,417;  198,603;44335,962;12,83678
 685,11; 5974,885;  213,064;44627,372;12,97289
 685,68; 5980,046;  217,372;45138,936;12,82830
 686,25; 6031,975;  200,526;45056,270;13,00045
 686,83; 6042,597;  198,988;45233,834;12,97575
 687,40; 6132,911;  188,680;45592,321;13,09197
 687,97; 6208,072;  220,911;45945,270;13,09403
 688,55; 6250,847;  192,450;45935,757;13,24434
 689,12; 6261,162;  172,142;46284,090;13,20486
 689,69; 6275,783;  198,912;46247,885;13,19654
 690,26; 6340,021;  208,681;46431,295;13,26481
 690,84; 6366,335;  206,142;46576,398;13,28479
 691,41; 6436,803;  211,527;46637,039;13,40917
 691,98; 6491,425;  201,450;46955,988;13,45318
 692,56; 6486,585;  191,297;46925,936;13,47028
 693,13; 6622,361;  245,989;46981,808;13,64344
 693,70; 6616,829;  216,374;47265,911;13,60365
 694,27; 6632,220;  201,605;47251,783;13,66757
 694,84; 6643,303;  197,989;47445,808;13,64151
 695,42; 6778,079;  234,143;47548,680;13,83071
 695,99; 6750,470;  209,605;47752,629;13,75778
 696,56; 6768,323;  191,990;47522,039;13,89463
 697,13; 6847,406;  216,759;47883,449;13,91044
 697,71; 6857,874;  174,144;47968,859;13,98425
 698,28; 6898,112;  209,144;48263,270;13,91965
 698,85; 6967,195;  176,452;48328,295;14,10277
 699,42; 6995,279;  183,836;48525,782;14,09013
 699,99; 7079,747;  213,221;48554,193;14,20436
 700,57; 7094,599;  212,760;48558,526;14,23463
 701,14; 7120,221;  201,529;48630,013;14,28641
 701,71; 7195,535;  219,068;48850,885;14,34548
 702,28; 7182,003;  207,606;48955,218;14,30716
 702,85; 7283,702;  212,453;48956,398;14,50693
 703,43; 7361,324;  220,837;49281,116;14,55452
 704,00; 7440,792;  237,453;49439,295;14,64039
 704,57; 7406,029;  222,222;49498,013;14,57878
 705,14; 7508,497;  249,222;49716,347;14,67495
 705,71; 7585,735;  244,838;49741,526;14,83109
 706,28; 7574,741;  221,607;49605,705;14,88968
 706,86; 7641,517;  251,146;49934,808;14,87485
 707,43; 7682,600;  247,915;49806,141;15,00192
 708,00; 7709,145;  226,761;49852,090;15,07775
 708,57; 7710,690;  215,454;49729,808;15,13750
 709,14; 7760,004;  240,531;49911,603;15,13854
 709,71; 7827,165;  229,762;49930,552;15,28628
 710,28; 7882,864;  222,300;50118,577;15,35298
 710,86; 7929,178;  228,454;50245,064;15,39633
 711,43; 8002,492;  239,608;50219,244;15,53209
 712,00; 8020,498;  226,377;50416,808;15,52910
 712,57; 8073,274;  230,608;50404,141;15,63108
 713,14; 8111,127;  210,993;50588,936;15,68173
 713,71; 8123,518;  226,993;50438,577;15,72650
 714,28; 8152,755;  222,378;50538,064;15,76124
 714,85; 8172,762;  199,840;50280,013;15,92032
 715,42; 8217,384;  226,378;50523,654;15,88755
 716,00; 8312,236;  243,532;50616,064;16,01806
 716,57; 8361,473;  210,686;50737,705;16,13154
 717,14; 8314,018;  207,532;50656,577;16,06866
 717,71; 8366,333;  195,994;50707,218;16,17529
 718,28; 8485,724;  230,994;50710,475;16,35264
 718,85; 8527,730;  201,763;50882,500;16,42827
 719,42; 8552,429;  228,763;50995,526;16,39590
 719,99; 8535,897;  203,764;50804,705;16,46636
 720,56; 8679,211;  210,148;50936,731;16,69551
 721,13; 8702,679;  209,456;51194,834;16,65815
 721,70; 8709,301;  203,764;51025,859;16,73590
 722,27; 8786,154;  224,149;51067,731;16,83989
 722,84; 8819,622;  250,764;51268,449;16,79586
 723,41; 8815,167;  198,918;51284,475;16,86631
 723,98; 8899,866;  211,764;51411,500;16,96904
 724,55; 8959,026;  226,918;51542,372;17,01653
 725,12; 8885,417;  175,765;51439,475;16,98990
 725,69; 8963,424;  195,457;51638,654;17,04398
 726,27; 9014,353;  218,073;51742,372;17,07210
 726,84; 9087,206;  204,150;51964,167;17,16200
 727,41; 9151,135;  212,457;51888,654;17,29748
 727,98; 9212,988;  228,996;52293,526;17,25549
 728,55; 9252,533;  240,304;52202,090;17,34396
 729,12; 9257,540;  188,304;52239,116;17,42381
 729,69; 9296,315;  229,535;52379,218;17,38607
 730,26; 9399,860;  237,458;52591,090;17,50099
 730,82; 9419,944;  219,612;52422,346;17,62423
 731,39; 9405,335;  213,381;52453,141;17,59570
 731,96; 9482,110;  203,920;52856,398;17,62157
 732,53; 9632,425;  226,689;53030,731;17,81253
 733,10; 9607,047;  226,766;53117,295;17,73527
 733,67; 9734,053;  227,997;53310,936;17,90793
 734,24; 9648,829;  202,074;53044,577;17,87719
 734,81; 9707,528;  234,536;53106,218;17,91695
 735,38; 9682,380;  222,151;52852,013;17,97502
 735,95; 9678,464;  211,536;52603,269;18,06951
 736,52; 9788,855;  229,075;52873,295;18,15922
 737,09; 9744,015;  223,613;52528,936;18,20159
 737,66; 9812,329;  259,998;52727,962;18,20603
 738,23; 9827,874;  212,536;52716,833;18,31343
 738,80; 9968,496;  243,537;52981,321;18,44021
 739,37;10029,810;  244,921;53152,423;18,49433
 739,94;10102,278;  216,614;53225,987;18,64890
 740,51;10192,362;  285,614;53235,551;18,70965
 741,07;10158,676;  213,460;53193,192;18,77174
 741,64;10264,913;  250,845;53421,680;18,83376
 742,21;10277,766;  213,691;53418,397;18,91576
 742,78;10271,849;  199,076;53317,654;18,96281
 743,35;10377,933;  212,307;53527,372;19,06708
 743,92;10463,708;  239,922;53673,705;19,13356
 744,49;10509,023;  228,538;53473,038;19,30807
 745,06;10516,260;  221,153;53502,679;19,32209
 745,63;10530,651;  207,769;53506,859;19,36784
 746,19;10644,196;  204,461;53486,731;19,59326
 746,76;10632,279;  227,461;53512,295;19,52679
 747,33;10663,517;  209,846;53499,628;19,61665
 747,90;10783,754;  250,692;53724,808;19,69750
 748,47;10768,837;  227,538;53562,064;19,76449
 749,04;10837,382;  223,231;53529,167;19,91176
 749,61;10861,466;  252,308;53569,577;19,89816
 750,17;10914,857;  245,923;53672,526;19,96933
 750,74;10987,633;  235,385;53563,628;20,16239
 751,31;10901,639;  216,462;53425,961;20,08133
 751,88;10933,030;  193,924;53346,602;20,20426
 752,45;11005,575;  223,385;53511,705;20,23368
 753,02;11034,043;  219,847;53247,961;20,39333
 753,58;11024,819;  212,770;53233,987;20,39193
 754,15;11130,364;  221,232;53361,782;20,52883
 754,72;11124,909;  203,386;53129,808;20,63529
 755,29;11088,454;  203,232;52960,295;20,63273
 755,86;11164,691;  218,463;53042,705;20,72198
 756,42;11257,390;  231,694;52985,500;20,90029
 756,99;11238,396;  193,079;52925,218;20,94608
 757,56;11270,711;  199,694;52876,936;21,01670
 758,13;11238,486;  170,848;52870,423;21,00138
 758,70;11333,724;  200,925;52910,141;21,12116
 759,26;11358,961;  188,694;53011,859;21,14653
 759,83;11455,275;  199,233;53054,654;21,29591
 760,40;11460,820;  196,772;52818,372;21,40575
 760,97;11445,442;  191,079;52962,936;21,32645
 761,53;11435,756;  172,849;52580,500;21,49096
 762,10;11453,839;  177,233;52356,295;21,61136
 762,67;11525,000;  213,541;52537,628;21,61807
 763,24;11459,314;  160,234;52032,808;21,78238
 763,80;11574,705;  194,080;52238,525;21,86713
 764,37;11542,173;  203,003;52183,397;21,81432
 764,94;11528,334;  180,234;51684,884;22,03316
 765,50;11527,955;  187,773;51726,602;22,00318
 766,07;11625,731;  224,003;51775,013;22,11737
 766,64;11516,968;  189,004;51473,346;22,08854
 767,21;11599,744;  189,311;51294,602;22,32730
 767,77;11645,520;  215,158;51205,013;22,41693
 768,34;11649,526;  215,312;51156,192;22,44605
 768,91;11683,302;  212,696;50949,372;22,60811
 769,47;11703,155;  210,543;51145,936;22,56312
 770,04;11716,392;  211,158;50914,423;22,69131
 770,61;11699,552;  195,697;50671,679;22,79075
 771,18;11669,251;  192,389;50442,705;22,83938
 771,74;11805,181;  216,620;50729,730;22,94169
 772,31;11762,880;  204,620;50426,064;23,01459
 772,88;11726,501;  186,389;50187,859;23,07955
 773,44;11752,585;  196,005;50019,115;23,19522
 774,01;11789,130;  210,467;50119,679;23,19945
 774,58;11781,598;  199,621;49828,474;23,33718
 775,14;11854,989;  181,621;49953,961;23,45352
 775,71;11872,457;  201,313;49833,218;23,51541
 776,27;11896,156;  234,467;49778,320;23,53811
 776,84;11984,547;  237,698;49654,269;23,77107
 777,41;11965,707;  210,544;49612,833;23,79477
 777,97;11951,098;  204,852;49278,474;23,93597
 778,54;11962,413;  213,852;49405,807;23,88309
 779,11;12053,727;  225,929;49390,756;24,05744
 779,67;12142,502;  189,006;49313,012;24,33331
 780,24;12083,817;  208,468;49079,577;24,29932
 780,80;12165,592;  224,083;49116,833;24,42389
 781,37;12217,137;  219,622;49091,320;24,54900
 781,94;12213,759;  211,930;48932,192;24,63416
 782,50;12237,227;  224,237;48807,448;24,72663
 783,07;12308,695;  244,622;48741,474;24,87599
 783,63;12293,240;  205,007;48523,269;25,01794
 784,20;12313,554;  226,776;48534,679;25,02029
 784,77;12324,023;  221,315;48376,012;25,13297
 785,33;12269,875;  199,007;48104,423;25,19729
 785,90;12376,266;  209,623;48097,371;25,40659
 786,46;12321,504;  240,854;48043,243;25,27206
 787,03;12285,202;  197,315;47845,269;25,36916
 787,59;12348,901;  205,700;47659,294;25,58963
 788,16;12361,908;  221,239;47735,935;25,55140
 788,73;12359,683;  222,931;47517,730;25,66192
 789,29;12276,767;  214,470;47254,448;25,64265
 789,86;12364,543;  220,547;47044,782;25,93528
 790,42;12313,087;  225,085;47015,730;25,83423
 790,99;12340,402;  233,778;46699,987;26,05468
 791,55;12303,870;  213,470;46680,166;26,01949
 792,12;12400,569;  228,239;46658,423;26,21641
 792,68;12292,960;  226,547;46393,910;26,13624
 793,25;12328,428;  218,086;46124,166;26,38069
 793,81;12324,973;  254,547;45748,192;26,53211
 794,38;12191,595;  197,394;45582,602;26,42755
 794,94;12210,755;  212,701;45458,089;26,51774
 795,51;12235,684;  225,240;45255,115;26,67217
 796,07;12197,691;  215,471;44947,987;26,78638
 796,64;12280,313;  225,240;45052,705;26,89216
 797,20;12245,550;  223,240;44607,038;27,08716
 797,77;12107,710;  205,164;44308,217;26,98803
 798,33;12163,871;  212,010;44102,012;27,23140
 798,90;12162,723;  249,779;44106,192;27,16352
 799,46;12086,807;  230,856;43659,602;27,29978
 800,03;12031,583;  226,779;43527,089;27,26263
 800,59;12110,820;  235,703;43317,192;27,56431
 801,15;12027,288;  228,318;43088,448;27,52901
 801,72;11977,525;  226,549;42737,551;27,64220
 802,28;11962,224;  248,318;42515,499;27,71395
 802,85;11906,615;  225,934;42323,679;27,74657
 803,41;11969,852;  220,165;42166,551;28,01120
 803,98;11923,474;  213,011;41693,269;28,23141
 804,54;11896,327;  223,703;41487,140;28,28805
 805,11;11861,333;  233,319;41345,397;28,28369
 805,67;11907,571;  249,934;41288,961;28,40622
 806,23;11765,346;  228,858;40705,140;28,50185
 806,80;11800,276;  248,319;40766,320;28,51068
 807,36;11805,436;  249,935;40684,576;28,57822
 807,93;11862,674;  249,396;40466,602;28,87639
 808,49;11775,372;  213,704;40178,704;28,92948
 809,05;11743,994;  203,397;39916,961;29,05959
 809,62;11796,693;  230,089;39845,140;29,19750
 810,18;11861,084;  237,012;39721,704;29,43944
 810,74;11783,629;  202,858;39411,653;29,53616
 811,31;11751,789;  217,551;39334,371;29,48665
 811,87;11731,642;  219,166;39072,704;29,63044
 812,44;11823,726;  253,013;39130,807;29,76175
 813,00;11734,347;  195,090;38864,833;29,84053
 813,56;11801,123;  232,628;38881,704;29,93214
 814,13;11825,899;  221,859;38738,038;30,12770
 814,69;11791,598;  229,782;38666,602;30,08005
 815,25;11669,143;  206,013;38191,781;30,17743
 815,82;11710,841;  240,936;38140,422;30,26401
 816,38;11763,233;  254,475;38017,756;30,47605
 816,94;11663,162;  212,321;37665,089;30,57408
 817,51;11605,169;  213,398;37457,192;30,58703
 818,07;11628,483;  216,091;37184,448;30,87070
 818,63;11586,105;  232,629;37068,704;30,82162
 819,20;11645,650;  228,014;36976,499;31,06968
 819,76;11502,041;  211,168;36605,448;31,02376
 820,32;11557,586;  258,476;36546,781;31,13706
 820,89;11514,669;  253,322;36374,730;31,17638
 821,45;11485,599;  219,861;36082,217;31,41383
 822,01;11469,298;  241,399;35794,012;31,58108
 822,57;11489,535;  239,092;35651,807;31,76950
 823,14;11423,234;  203,246;35501,448;31,78629
 823,70;11413,856;  211,861;35213,474;32,00422
 824,26;11405,247;  217,323;35068,730;32,10179
 824,82;11438,715;  235,323;34948,525;32,27415
 825,39;11372,029;  221,323;34589,166;32,44517
 825,95;11361,651;  248,785;34705,653;32,25153
 826,51;11295,042;  234,169;34314,448;32,45535
 827,08;11388,356;  273,400;34366,012;32,60224
 827,64;11340,747;  244,554;34154,730;32,72231
 828,20;11269,292;  216,247;33988,063;32,72861
 828,76;11307,145;  242,939;33968,935;32,80616
 829,32;11304,382;  235,170;33638,884;33,13767
 829,89;11269,696;  205,632;33617,986;33,11369
 830,45;11280,703;  224,016;33626,781;33,10111
 831,01;11267,094;  217,324;33354,268;33,34577
 831,57;11274,254;  226,093;33305,294;33,39912
 832,14;11273,568;  216,555;33249,704;33,47248
 832,70;11270,806;  221,171;33008,730;33,70069
 833,26;11289,966;  198,940;32956,217;33,85821
 833,82;11291,357;  226,478;32905,320;33,85946
 834,38;11306,364;  219,017;32890,653;33,93569
 834,95;11254,062;  213,094;32684,140;34,00250
 835,51;11226,146;  187,786;32653,012;34,00056
 836,07;11315,614;  227,479;32678,576;34,16875
 836,63;11384,236;  246,479;32728,909;34,28856
 837,19;11368,242;  226,941;32581,166;34,43538
 837,75;11257,633;  194,479;32266,807;34,49439
 838,32;11401,024;  241,710;32399,525;34,70172
 838,88;11356,262;  241,556;32369,704;34,59491
 839,44;11384,653;  223,095;32338,884;34,75411
 840,00;11369,352;  218,634;32270,602;34,78950
 840,56;11326,127;  202,480;31940,166;35,04870
 841,12;11404,134;  205,018;32017,730;35,20327
 841,68;11373,063;  198,865;31845,525;35,30925
 842,25;11383,455;  206,249;31785,704;35,39391
 842,81;11309,153;  199,634;31575,114;35,40828
 843,37;11342,852;  201,327;31589,679;35,49573
 843,93;11368,320;  213,173;31364,781;35,80922
 844,49;11433,481;  224,173;31529,268;35,80666
 845,05;11365,795;  196,711;31316,294;35,89085
 845,61;11444,032;  222,789;31425,320;35,96261
 846,17;11418,962;  220,019;31247,191;36,09398
 846,73;11437,891;  222,866;31122,986;36,29444
 847,29;11464,513;  197,943;30937,089;36,65219
 847,86;11388,212;  200,327;30937,730;36,39828
 848,42;11387,218;  189,943;30798,986;36,58159
 848,98;11400,071;  222,097;30715,935;36,65650
 849,54;11487,770;  207,712;30736,960;36,94836
 850,10;11492,392;  218,482;30613,755;37,09100
 850,66;11424,475;  192,251;30411,781;37,16876
 851,22;11447,174;  201,636;30333,807;37,32070
 851,78;11539,642;  241,021;30447,140;37,40507
 852,34;11471,648;  221,944;30167,012;37,56781
 852,90;11473,270;  216,252;30150,960;37,60524
 853,46;11396,200;  205,405;29833,294;37,77115
 854,02;11448,360;  218,175;29953,473;37,76719
 854,58;11385,905;  202,944;29552,960;38,10206
 855,14;11406,450;  198,713;29645,525;38,06095
 855,70;11318,226;  183,021;29501,935;37,97960
 856,26;11349,540;  225,791;29355,268;38,18726
 856,82;11334,777;  194,022;29189,371;38,42256
 857,38;11337,015;  227,791;29143,935;38,41876
 857,94;11271,560;  219,099;29065,345;38,31508
 858,50;11298,182;  216,868;28963,755;38,54787
 859,06;11223,342;  209,330;28775,550;38,55607
 859,62;11269,810;  212,022;28668,268;38,85891
 860,18;11186,663;  207,330;28472,063;38,84464
 860,74;11165,900;  181,945;28436,089;38,87555
 861,30;11154,829;  184,715;28172,883;39,19554
 861,86;11171,220;  218,099;28135,832;39,23356
 862,42;11148,150;  208,330;28034,704;39,31457
 862,98;11164,695;  239,792;28063,268;39,26505
 863,54;11050,548;  215,715;27839,601;39,22269
 864,10;11128,785;  220,331;27927,165;39,37099
 864,66;11038,638;  193,485;27719,422;39,39976
 865,22;11081,490;  215,485;27459,294;39,88431
 865,78;10999,881;  217,869;27440,396;39,60695
 866,34;11004,580;  207,870;27400,499;39,70455
 866,90;11028,125;  213,870;27252,448;39,99565
 867,45;10983,516;  232,177;27129,550;39,97171
 868,01;10953,215;  209,101;26938,191;40,19633
 868,57;10931,222;  211,255;26672,755;40,51156
 869,13;10886,767;  209,255;26623,935;40,42264
 869,69;10892,388;  204,409;26609,730;40,47661
 870,25;10873,549;  198,178;26493,140;40,59854
 870,81;10912,248;  209,101;26439,396;40,80452
 871,37;10941,562;  216,563;26233,191;41,22363
 871,93;10861,568;  219,332;26148,140;41,04406
 872,49;10804,959;  214,871;25890,242;41,24610
 873,04;10776,658;  203,025;25747,653;41,39279
 873,60;10738,742;  193,871;25677,678;41,37871
 874,16;10794,056;  207,179;25578,627;41,72752
 874,72;10727,902;  207,717;25468,242;41,64674
 875,28;10784,748;  229,640;25456,165;41,84131
 875,84;10778,671;  209,717;25388,012;41,97645
 876,40;10751,979;  211,948;25365,319;41,90305
 876,95;10822,517;  222,871;25269,781;42,31918
 877,51;10831,825;  235,563;25265,165;42,33492
 878,07;10863,979;  250,563;25309,781;42,35334
 878,63;10907,902;  205,563;25250,550;42,73246
 879,19;10941,517;  220,025;25294,012;42,75942
 879,75;10965,440;  208,871;25332,627;42,81434
 880,30;10971,517;  216,563;25303,473;42,87078
 880,86;11112,440;  249,025;25415,165;43,16679
 881,42;11110,133;  214,871;25455,396;43,16575
 881,98;11161,440;  213,410;25522,858;43,25670
 882,54;11264,440;  212,563;25572,473;43,58011
 883,09;11408,671;  217,025;25738,627;43,85166
 883,65;11406,363;  199,640;25753,396;43,85548
 884,21;11590,287;  239,256;26019,242;44,03040
 884,77;11616,825;  204,179;26052,935;44,15163
 885,32;11735,825;  214,717;26127,781;44,46062
 885,88;11855,748;  246,487;26270,396;44,60998
 886,44;11939,363;  216,256;26388,627;44,79192
 887,00;12011,287;  226,794;26317,396;45,16758
 887,56;12103,517;  215,102;26516,781;45,20021
 888,11;12128,825;  216,025;26523,165;45,28352
 888,67;12260,287;  247,102;26678,242;45,45088
 889,23;12232,902;  221,333;26639,242;45,46752
 889,79;12184,133;  212,871;26599,858;45,36805
 890,34;12223,748;  213,794;26426,088;45,81802
 890,90;12408,979;  264,794;26637,935;46,04755
 891,46;12323,594;  201,179;26547,704;46,01144
 892,01;12416,748;  246,717;26550,473;46,26727
 892,57;12374,440;  247,102;26450,396;46,28173
 893,13;12329,748;  217,563;26310,319;46,41972
 893,69;12299,363;  213,487;26244,242;46,42922
 894,24;12309,210;  227,871;26140,088;46,62410
 894,80;12298,825;  228,717;26051,550;46,74200
 895,36;12225,825;  215,794;25912,242;46,73810
 895,91;12216,056;  220,025;25715,858;47,05095
 896,47;12187,440;  232,179;25603,165;47,12178
 897,03;12147,440;  215,871;25433,012;47,31531
 897,58;12090,287;  226,871;25292,473;47,32947
 898,14;11977,979;  233,487;25158,165;47,11993
 898,70;11981,056;  204,333;25020,242;47,45634
 899,25;12049,671;  219,102;25065,858;47,61414
 899,81;11958,748;  238,563;24811,088;47,69630
 900,37;11848,133;  202,487;24664,935;47,60622
 900,92;11931,825;  216,871;24689,088;47,87042
 901,48;11845,748;  206,948;24439,627;48,02936
 902,03;11819,517;  220,179;24370,627;48,02950
 902,59;11792,748;  224,948;24280,242;48,08837
 903,15;11830,748;  237,256;24084,012;48,61664
 903,70;11656,902;  226,410;23891,935;48,30018
 904,26;11645,979;  206,563;23762,935;48,56187
 904,82;11641,210;  226,410;23784,550;48,45374
 905,37;11668,210;  226,179;23583,012;48,98794
 905,93;11538,363;  205,333;23426,473;48,80480
 906,48;11528,363;  225,487;23327,319;48,92632
 907,04;11563,133;  229,871;23371,935;48,97256
 907,60;11397,287;  214,717;23137,473;48,78370
 908,15;11412,902;  208,717;22978,473;49,20643
 908,71;11478,671;  244,487;23058,781;49,24187
 909,26;11363,210;  204,948;22870,396;49,23027
 909,82;11322,594;  242,333;22765,935;49,19400
 910,37;11332,902;  262,025;22674,935;49,39509
 910,93;11212,902;  215,487;22437,012;49,48992
 911,48;11120,363;  216,487;22333,012;49,30194
 912,04;11114,210;  207,333;22260,858;49,45639
 912,60;11150,363;  210,563;22204,627;49,73979
 913,15;11039,748;  220,179;22091,627;49,46892
 913,71;10992,594;  216,025;21865,704;49,77704
 914,26;11038,825;  209,640;21903,165;49,91897
 914,82;11061,902;  218,794;21716,165;50,43923
 915,37;10998,133;  211,179;21795,242;49,97647
 915,93;11053,133;  243,102;21568,165;50,69167
 916,48;10900,671;  213,871;21460,473;50,29887
 917,04;10923,133;  219,410;21340,473;50,67796
 917,59;10916,133;  245,717;21340,550;50,58308
 918,15;10828,287;  190,102;21153,781;50,74579
 918,70;10847,363;  215,487;20980,396;51,20117
 919,26;10848,825;  221,179;20927,012;51,32682
 919,81;10811,287;  208,871;20748,319;51,61977
 920,37;10793,671;  213,640;20701,550;51,64036
 920,92;10814,056;  223,794;20604,781;51,96148
 921,48;10723,056;  195,410;20430,242;52,02734
 922,03;10742,671;  218,025;20399,242;52,15070
 922,59;10702,440;  202,410;20284,704;52,28502
 923,14;10643,902;  204,948;20158,396;52,31654
 923,69;10646,902;  230,410;20127,165;52,35272
 924,25;10667,517;  223,563;20013,396;52,77434
 924,80;10630,133;  215,025;19914,627;52,86964
 925,36;10594,671;  216,563;19836,704;52,89518
 925,91;10582,287;  213,102;19648,781;53,35129
 926,47;10569,748;  203,487;19631,088;53,35842
 927,02;10574,517;  235,640;19501,396;53,66453
 927,57;10521,287;  222,794;19368,396;53,79038
 928,13;10540,056;  204,333;19312,319;54,09112
 928,68;10454,210;  214,256;19174,858;54,00648
 929,24;10379,825;  190,948;19009,012;54,14413
 929,79;10306,594;  211,794;18983,088;53,77786
 930,34;10309,979;  221,717;18895,858;54,02263
 930,90;10243,056;  200,487;18782,473;54,04465
 931,45;10298,133;  229,410;18742,088;54,38826
 932,01;10250,902;  224,871;18605,242;54,54749
 932,56;10206,825;  230,563;18502,473;54,59890
 933,11;10224,671;  231,179;18516,781;54,65225
 933,67;10181,517;  197,102;18280,012;55,21465
 934,22;10145,363;  216,487;18281,165;54,96293
 934,77;10119,825;  245,333;18135,704;55,19445
 935,33;10079,210;  225,640;18075,165;55,20354
 935,88;10035,056;  225,256;17939,550;55,37788
 936,43;10072,979;  212,640;17899,242;55,75033
 936,99;10017,056;  214,333;17770,627;55,83595
 937,54; 9920,748;  202,717;17604,242;55,84586
 938,09; 9979,594;  225,333;17588,704;56,17723
 938,65; 9930,748;  216,256;17445,781;56,38282
 939,20; 9892,825;  197,025;17358,165;56,49858
 939,75; 9893,671;  201,179;17257,396;56,82674
 940,31; 9802,671;  193,717;17228,550;56,40768
 940,86; 9837,594;  223,025;17136,627;56,84519
 941,41; 9790,748;  253,794;17060,704;56,74424
 941,96; 9789,671;  217,563;16938,088;57,24765
 942,52; 9692,440;  218,025;16923,088;56,71583
 943,07; 9673,287;  197,333;16744,319;57,26695
 943,62; 9672,517;  210,179;16712,319;57,34007
 944,18; 9630,210;  197,410;16626,858;57,41398
 944,73; 9612,748;  216,333;16583,473;57,41024
 945,28; 9514,440;  179,410;16355,704;57,70809
 945,83; 9580,363;  208,025;16382,088;57,94672
 946,39; 9538,594;  209,102;16293,396;58,00374
 946,94; 9537,825;  229,640;16191,935;58,31358
 947,49; 9464,825;  205,717;16159,242;58,03801
 948,04; 9475,594;  224,256;16080,935;58,34348
 948,59; 9402,287;  228,640;16028,858;58,06025
 949,15; 9404,210;  194,487;15947,088;58,46477
 949,70; 9347,133;  206,179;15818,165;58,55087
 950,25; 9299,748;  233,563;15749,550;58,43125
 950,80; 9238,056;  181,102;15661,396;58,50634
 951,36; 9258,287;  180,256;15599,858;58,87331
 951,91; 9331,671;  230,717;15597,088;59,22644
 952,46; 9197,979;  180,179;15352,858;59,43446
 953,01; 9205,748;  227,640;15431,012;59,05340
 953,56; 9116,363;  185,640;15285,396;59,14482
 954,11; 9187,825;  218,256;15252,088;59,66256
 954,67; 9199,363;  210,948;15143,165;60,19478
 955,22; 9046,594;  189,025;15032,627;59,67264
 955,77; 9145,210;  233,025;14985,550;60,41125
 956,32; 9085,671;  248,102;14869,550;60,44250
 956,87; 9011,363;  199,102;14740,781;60,60003
 957,42; 9021,517;  202,563;14703,473;60,81656
 957,98; 9026,056;  209,640;14698,088;60,85134
 958,53; 9051,902;  221,640;14588,012;61,46480
 959,08; 8985,133;  191,717;14508,012;61,42243
 959,63; 8929,594;  200,717;14414,012;61,41347
 960,18; 8927,517;  222,794;14310,242;61,79063
 960,73; 8911,902;  211,717;14232,858;62,05048
 961,28; 8864,825;  199,948;14197,319;61,90360
 961,83; 8906,671;  229,871;14126,858;62,43656
 962,39; 8802,287;  199,640;13991,242;62,37597
 962,94; 8801,133;  221,948;13961,319;62,44234
 963,49; 8705,825;  212,487;13818,396;62,42389
 964,04; 8744,748;  228,794;13819,627;62,65954
 964,59; 8714,594;  183,794;13670,627;63,25281
 965,14; 8680,748;  214,871;13636,935;63,07433
 965,69; 8611,210;  213,025;13554,550;62,94771
 966,24; 8572,671;  205,256;13438,550;63,23003
 966,79; 8547,056;  222,333;13380,396;63,26708
 967,34; 8478,748;  188,410;13282,704;63,31260
 967,89; 8460,671;  203,794;13182,165;63,62029
 968,44; 8504,979;  206,794;13090,627;64,40773
 968,99; 8389,594;  217,871;13085,935;63,50391
 969,55; 8380,825;  219,487;13056,319;63,57751
 970,10; 8325,210;  216,871;12974,165;63,55845
 970,65; 8306,902;  218,948;12846,550;64,04980
 971,20; 8226,287;  207,410;12765,550;63,85402
 971,75; 8157,287;  195,179;12632,165;64,01959
 972,30; 8152,594;  209,102;12537,704;64,43141
 972,85; 8103,748;  209,025;12490,165;64,28331
 973,40; 8056,517;  197,487;12359,550;64,61922
 973,95; 7999,056;  211,179;12289,627;64,47746
 974,50; 8009,517;  235,256;12209,704;64,92376
 975,05; 7980,671;  219,179;12147,781;65,06624
 975,60; 7937,056;  227,640;12128,858;64,77838
 976,15; 7901,748;  210,948;12005,858;65,20440
 976,70; 7900,287;  227,487;11875,704;65,87102
 977,25; 7863,133;  219,871;11847,858;65,73160
 977,80; 7813,748;  212,333;11696,550;66,19010
 978,35; 7713,825;  219,563;11599,396;65,85564
 978,89; 7689,287;  192,025;11549,088;66,01409
 979,44; 7667,594;  208,871;11497,319;66,07395
 979,99; 7623,748;  200,025;11345,242;66,60905
 980,54; 7608,594;  231,794;11301,550;66,63923
 981,09; 7546,594;  228,333;11217,781;66,59353
 981,64; 7513,133;  222,102;11083,627;67,12714
 982,19; 7476,440;  248,025;11040,088;66,97899
 982,74; 7428,748;  232,410;10919,473;67,33691
 983,29; 7315,210;  199,717;10854,550;66,78183
 983,84; 7322,594;  230,563;10682,242;67,85542
 984,39; 7324,363;  236,871;10666,781;67,95354
 984,94; 7257,825;  202,640;10536,242;68,27421
 985,49; 7254,363;  239,487;10394,242;69,07972
 986,03; 7183,902;  239,563;10423,550;68,18880
 986,58; 7132,594;  254,487;10223,473;68,99505
 987,13; 7050,056;  227,179;10117,550;68,98504
 987,68; 7002,210;  231,179;10047,935;68,97422
 988,23; 6920,440;  233,794;10004,858;68,43315
 988,78; 6896,594;  215,333; 9885,704;69,09002
 989,33; 6803,517;  228,794; 9824,473;68,51754
 989,88; 6831,133;  239,179; 9742,935;69,36157
 990,42; 6715,440;  226,179; 9603,627;69,20072
 990,97; 6656,979;  222,717; 9473,012;69,55737
 991,52; 6686,056;  244,487; 9536,704;69,32220
 992,07; 6596,902;  244,410; 9348,550;69,77586
 992,62; 6536,748;  231,410; 9293,319;69,58068
 993,17; 6496,440;  230,179; 9157,781;70,18975
 993,71; 6415,440;  234,487; 9069,088;69,96301
 994,26; 6343,902;  212,948; 8950,781;70,16561
 994,81; 6309,594;  247,102; 8892,858;70,12102
 995,36; 6246,440;  219,256; 8732,396;70,79860
 995,91; 6184,979;  229,102; 8727,165;70,08511
 996,45; 6117,210;  231,794; 8630,473;70,07549
 997,00; 6025,902;  209,025; 8499,165;70,16621
 997,55; 6015,979;  227,640; 8491,012;70,04815
 998,10; 5967,748;  248,179; 8363,935;70,47488
 998,65; 5947,440;  223,179; 8317,012;70,72374
 999,19; 5858,825;  239,333; 8162,627;70,92369
 999,74; 5774,517;  250,487; 8063,088;70,70667
1000,29; 5783,594;  242,179; 8035,012;71,10913
1000,84; 5655,363;  220,871; 7901,627;70,75466
1001,38; 5621,671;  221,563; 7804,935;71,20986
1001,93; 5630,440;  249,948; 7778,012;71,47246
1002,48; 5508,287;  219,102; 7667,704;71,00909
1003,03; 5493,671;  224,794; 7615,242;71,29306
1003,57; 5420,210;  242,179; 7510,781;71,23833
1004,12; 5412,594;  242,794; 7420,704;72,02375
1004,67; 5320,902;  227,410; 7327,473;71,73869
1005,22; 5249,671;  214,871; 7172,242;72,36641
1005,76; 5187,825;  206,487; 7067,858;72,59975
1006,31; 5171,056;  237,794; 7078,165;72,11979
1006,86; 5078,287;  224,256; 6927,012;72,41843
1007,40; 4970,902;  201,487; 6818,473;72,07836
1007,95; 4984,671;  219,333; 6702,781;73,50006
1008,50; 4910,133;  224,794; 6639,858;73,03651
1009,04; 4869,210;  235,256; 6551,935;73,36061
1009,59; 4793,363;  233,871; 6451,165;73,33564
1010,14; 4707,363;  211,717; 6324,012;73,55088
1010,68; 4654,671;  223,948; 6220,088;73,89292
1011,23; 4578,748;  192,563; 6125,396;73,93070
1011,78; 4537,440;  228,410; 6082,473;73,60752
1012,32; 4471,133;  224,179; 5967,781;73,94234
1012,87; 4490,902;  245,640; 5984,319;73,97629
1013,42; 4367,517;  216,410; 5836,396;73,86330
1013,96; 4432,748;  239,871; 5882,627;74,30548
1014,51; 4326,363;  192,487; 5748,935;74,39783
1015,06; 4340,210;  199,179; 5721,319;74,98960
1015,60; 4415,671;  262,179; 5859,165;74,20944
1016,15; 4378,056;  220,256; 5778,165;74,80870
1016,69; 4388,979;  222,102; 5833,858;74,25264
1017,24; 4384,902;  198,179; 5799,550;74,74461
1017,79; 4444,210;  239,948; 5843,242;75,03196
1018,33; 4434,979;  206,948; 5874,473;74,60101
1018,88; 4472,363;  233,640; 5905,473;74,73287
1019,42; 4491,902;  217,871; 5889,935;75,35231
1019,97; 4513,210;  214,563; 5898,242;75,63140
1020,51; 4517,902;  222,640; 5889,550;75,79548
1021,06; 4561,748;  212,948; 5904,012;76,41454
1021,61; 4508,594;  197,102; 5858,935;76,15012
1022,15; 4466,210;  181,640; 5841,473;75,70134
1022,70; 4495,363;  212,487; 5878,704;75,58617
1023,24; 4496,979;  206,025; 5774,473;77,05834
1023,79; 4476,133;  226,179; 5726,088;77,27316
1024,33; 4428,517;  220,487; 5669,473;77,22593
1024,88; 4372,517;  221,948; 5594,704;77,25215
1025,42; 4282,133;  211,794; 5490,935;77,10230
1025,97; 4242,902;  212,102; 5451,550;76,93177
1026,51; 4137,825;  178,948; 5318,550;77,02692
1027,06; 4151,825;  211,333; 5295,012;77,51261
1027,60; 4091,133;  218,563; 5148,473;78,55254
1028,15; 4058,825;  225,563; 5140,088;77,99862
1028,69; 3942,517;  195,640; 4995,550;78,06141
1029,24; 3903,133;  209,025; 4952,319;77,88064
1029,78; 3840,979;  210,563; 4861,627;78,05560
1030,33; 3776,210;  192,640; 4782,550;78,07494
1030,87; 3728,748;  207,717; 4711,088;78,18656
1031,42; 3700,979;  210,333; 4652,781;78,57483
1031,96; 3656,133;  218,794; 4589,550;78,64403
1032,51; 3597,287;  196,487; 4476,935;79,44963
1033,05; 3560,210;  218,256; 4473,704;78,53354
1033,60; 3475,594;  193,563; 4344,781;79,06189
1034,14; 3426,056;  205,871; 4275,550;79,12626
1034,69; 3422,440;  198,563; 4244,165;79,68844
1035,23; 3371,210;  215,640; 4171,935;79,76073
1035,77; 3362,133;  200,333; 4117,165;80,72339
1036,32; 3264,133;  187,333; 4057,627;79,49783
1036,86; 3260,671;  200,487; 3996,935;80,60652
1037,41; 3217,902;  229,102; 3932,473;80,70485
1037,95; 3149,517;  181,563; 3886,165;80,11532
1038,50; 3115,056;  203,871; 3824,858;80,39755
1039,04; 3114,517;  213,333; 3800,781;80,87043
1039,58; 3011,979;  202,102; 3725,627;79,74619
1040,13; 3001,056;  225,640; 3698,858;79,90906
1040,67; 3008,287;  234,410; 3655,550;81,08048
1041,21; 2943,287;  233,794; 3576,858;81,04819
1041,76; 2883,594;  189,563; 3504,550;81,26823
1042,30; 2896,517;  210,333; 3495,858;81,75815
1042,85; 2827,979;  195,563; 3425,165;81,50897
1043,39; 2783,594;  203,717; 3353,396;81,90921
1043,93; 2762,440;  223,025; 3308,473;82,30297
1044,48; 2727,671;  217,179; 3286,396;81,79585
1045,02; 2677,133;  218,333; 3232,242;81,58174
1045,56; 2672,902;  216,871; 3206,242;82,15878
1046,11; 2641,287;  216,717; 3161,935;82,32225
1046,65; 2607,825;  216,102; 3111,012;82,61823
1047,19; 2537,210;  207,871; 3041,088;82,21531
1047,74; 2505,363;  198,871; 3008,935;82,07972
1048,28; 2502,210;  224,256; 2962,627;83,18645
1048,82; 2481,671;  231,717; 2919,704;83,70406
1049,37; 2435,210;  219,025; 2880,165;83,27951
1049,91; 2398,517;  202,179; 2835,088;83,41868
1050,45; 2404,902;  234,102; 2824,012;83,81760
1050,99; 2348,056;  203,410; 2761,319;83,84370
1051,54; 2309,594;  207,256; 2712,473;83,91841
1052,08; 2324,056;  223,871; 2715,319;84,29574
1052,62; 2271,671;  226,256; 2672,858;83,60230
1053,16; 2216,902;  201,025; 2597,781;84,10857
1053,71; 2177,825;  215,871; 2567,012;83,44690
1054,25; 2169,979;  236,333; 2546,858;83,68861
1054,79; 2161,056;  224,487; 2497,012;85,21663
1055,33; 2096,825;  193,025; 2461,858;83,91099
1055,88; 2103,210;  234,333; 2448,396;84,40937
1056,42; 2065,748;  239,410; 2421,627;83,69187
1056,96; 2034,825;  223,794; 2358,627;84,83244
1057,50; 1992,210;  222,563; 2322,012;84,29102
1058,05; 1988,133;  217,948; 2299,473;85,04268
1058,59; 1977,825;  231,256; 2269,473;85,69102
1059,13; 1888,363;  199,563; 2217,242;83,70014
1059,67; 1914,594;  234,871; 2212,781;84,92416
1060,21; 1852,287;  222,717; 2158,781;84,16921
1060,76; 1873,748;  230,717; 2147,935;85,69872
1061,30; 1865,440;  245,179; 2119,319;86,45358
1061,84; 1809,133;  221,102; 2066,550;86,05123
1062,38; 1751,748;  214,640; 2029,319;84,70412
1062,92; 1794,440;  256,948; 2062,935;85,13310
1063,46; 1752,056;  234,563; 1991,781;86,35769
1064,01; 1708,902;  209,717; 1961,088;85,60062
1064,55; 1679,825;  227,717; 1943,319;84,64130
1065,09; 1666,133;  203,256; 1904,935;85,96669
1065,63; 1665,825;  243,794; 1916,550;85,01126
1066,17; 1640,979;  242,487; 1887,627;85,00748
1066,71; 1634,979;  241,563; 1878,704;85,11276
1067,25; 1595,671;  215,256; 1818,935;86,07804
1067,80; 1632,825;  240,717; 1811,319;88,63530
1068,34; 1630,133;  255,487; 1823,473;87,66951
1068,88; 1559,440;  224,717; 1739,012;88,14159
1069,42; 1569,210;  260,025; 1768,627;86,78132
1069,96; 1525,825;  230,640; 1709,473;87,58155
1070,50; 1545,979;  243,410; 1728,012;87,73862
1071,04; 1501,902;  215,256; 1665,165;88,73975
1071,58; 1473,133;  225,179; 1660,935;86,91965
1072,12; 1454,363;  220,640; 1631,242;87,46075
1072,66; 1445,902;  219,563; 1625,550;87,22263
1073,21; 1450,748;  231,794; 1632,627;87,01638
1073,75; 1426,748;  231,410; 1603,242;87,13442
1074,29; 1411,748;  234,640; 1577,319;87,66860
1074,83; 1389,979;  244,487; 1571,858;86,29782
1075,37; 1378,517;  233,256; 1535,473;87,94704
1075,91; 1374,748;  249,179; 1527,088;88,07894
1076,45; 1357,440;  235,948; 1492,935;89,22071
1076,99; 1339,825;  236,025; 1472,012;89,30518
1077,53; 1311,748;  220,794; 1450,781;88,69641
1078,07; 1313,979;  237,948; 1450,396;88,74861
1078,61; 1286,902;  229,948; 1413,704;89,28817
1079,15; 1271,902;  220,640; 1402,473;88,95181
1079,69; 1262,517;  237,717; 1409,935;87,42406
1080,23; 1263,210;  243,717; 1403,012;87,94077
1080,77; 1267,671;  243,717; 1385,704;89,66427
1081,31; 1196,440;  221,717; 1334,319;87,60753
1081,85; 1217,902;  240,640; 1359,473;87,34653
1082,39; 1184,440;  230,948; 1313,858;88,04911
1082,93; 1184,902;  229,179; 1312,627;88,21125
1083,47; 1158,748;  219,871; 1271,088;89,31331
1084,01; 1185,210;  239,640; 1289,319;90,08176
1084,55; 1116,363;  226,410; 1251,550;86,81288
1085,09; 1130,440;  239,487; 1260,704;87,24430
1085,63; 1117,210;  233,487; 1224,704;89,15533
1086,17; 1114,517;  225,025; 1211,396;90,17826
1086,71; 1084,671;  227,410; 1195,781;88,52613
1087,24; 1101,825;  253,025; 1210,319;88,66657
1087,78; 1087,671;  231,410; 1172,781;90,95897
1088,32; 1039,056;  215,871; 1147,012;88,40607
1088,86; 1069,210;  253,025; 1173,550;88,66512
1089,40; 1037,825;  225,256; 1135,627;89,25692
1089,94; 1007,671;  199,025; 1098,781;89,87396
1090,48; 1024,825;  238,487; 1108,242;90,40911
1091,02; 1026,056;  232,102; 1098,550;91,63317
1091,56; 1006,287;  242,025; 1077,935;91,42873
1092,10;  970,671;  213,102; 1070,165;88,39126
1092,63;  995,825;  256,256; 1063,319;91,63706
1093,17;  977,825;  233,640; 1056,165;90,47562
1093,71;  956,440;  233,640; 1037,473;89,91921
1094,25;  970,671;  248,102; 1041,627;91,05816
1094,79;  916,671;  235,410; 1022,550;86,54892
1095,33;  940,902;  221,794; 1012,319;90,96584
1095,87;  931,287;  232,179;  988,473;92,43859
1096,40;  891,825;  218,102;  960,550;90,74346
1096,94;  904,363;  230,025;  968,165;91,35640
1097,48;  898,517;  236,256;  953,935;92,27826
1098,02;  874,210;  220,410;  951,935;89,37494
1098,56;  842,748;  210,179;  903,319;91,26134
1099,10;  830,671;  212,256;  904,627;89,31848
1099,63;  840,440;  213,410;  909,935;90,02272
1100,17;  849,517;  235,333;  914,858;90,38440
1100,71;  847,594;  234,871;  913,627;90,27151

