
Integration time [ms]: 120,000
Averaging Nr. [scans]: 13
Smoothing Nr. [pixels]: 0
Data measured with spectrometer [name]: 2009305U1
Wave   ;Sample   ;Dark     ;Reference;Reflectance
[nm]   ;[counts] ;[counts] ;[counts] ;[%]

 175,72;  211,491;  198,232;  210,419;108,79891
 176,32;  224,121;  222,999;  222,812; 0,00000
 176,92;  250,351;  245,000;  247,702;198,08652
 177,52;  263,253;  267,001;  253,977; 0,00000
 178,12;  239,558;  244,383;  234,001; 0,00000
 178,72;  259,291;  260,844;  253,275; 0,00000
 179,32;  246,018;  263,614;  252,920; 0,00000
 179,92;  249,571;  245,307;  258,324;32,75188
 180,52;  250,305;  241,080;  257,401;56,52558
 181,12;  256,086;  254,769;  255,844;122,51205
 181,73;  283,038;  268,154;  268,051; 0,00000
 182,33;  330,854;  347,463;  341,422; 0,00000
 182,93;  263,996;  268,847;  267,950; 0,00000
 183,53;  232,337;  240,152;  231,946; 0,00000
 184,13;  239,445;  248,690;  238,216; 0,00000
 184,73;  280,871;  270,997;  273,779;354,90634
 185,33;  272,219;  232,137;  349,103;34,26875
 185,93;  279,603;  246,135;  359,480;29,52804
 186,53;  289,130;  253,213;  382,070;27,87405
 187,13;  330,774;  279,984;  414,801;37,67352
 187,73;  289,504;  240,981;  362,099;40,06293
 188,33;  282,490;  250,903;  380,559;24,36189
 188,93;  291,853;  257,977;  389,456;25,76525
 189,53;  286,381;  257,513;  393,057;21,29792
 190,13;  314,681;  290,201;  407,545;20,86190
 190,73;  267,388;  229,050;  364,378;28,32959
 191,34;  299,044;  264,438;  406,663;24,33245
 191,94;  268,474;  234,902;  364,766;25,85160
 192,54;  292,385;  255,985;  396,217;25,95677
 193,14;  303,156;  273,061;  390,390;25,65049
 193,74;  292,459;  255,906;  384,088;28,51617
 194,34;  295,675;  249,599;  400,420;30,55011
 194,94;  266,053;  219,753;  357,901;33,51482
 195,54;  245,246;  199,137;  341,632;32,35876
 196,14;  267,220;  226,831;  357,590;30,88811
 196,74;  254,419;  215,829;  349,140;28,94791
 197,34;  249,725;  204,601;  359,202;29,18704
 197,94;  266,544;  234,907;  394,072;19,87694
 198,54;  293,579;  238,908;  397,622;34,44621
 199,14;  263,503;  216,217;  387,209;27,65409
 199,74;  253,376;  205,756;  383,082;26,85444
 200,34;  256,713;  196,140;  407,041;28,72075
 200,94;  288,310;  242,985;  448,588;22,04475
 201,54;  277,088;  218,601;  437,843;26,67688
 202,14;  309,156;  236,910;  484,016;29,23676
 202,74;  289,708;  230,525;  486,277;23,14069
 203,34;  279,091;  202,373;  502,145;25,59224
 203,94;  265,518;  174,757;  502,690;27,67666
 204,54;  338,367;  252,753;  588,379;25,50861
 205,14;  304,401;  206,525;  602,318;24,72907
 205,74;  365,423;  242,296;  681,014;28,06533
 206,34;  340,027;  209,064;  729,406;25,16869
 206,94;  364,972;  219,756;  786,266;25,63339
 207,54;  350,513;  196,372;  806,524;25,26278
 208,14;  382,978;  201,910;  911,898;25,50292
 208,74;  398,656;  207,217;  988,666;24,49790
 209,34;  431,710;  212,756; 1058,611;25,88557
 209,94;  472,094;  233,448; 1177,743;25,27238
 210,54;  494,828;  220,988; 1288,545;25,65117
 211,14;  535,349;  219,756; 1395,919;26,83245
 211,73;  563,804;  215,063; 1510,690;26,91679
 212,33;  597,668;  238,062; 1639,714;25,65587
 212,93;  621,526;  209,448; 1728,458;27,12810
 213,53;  619,989;  191,832; 1779,924;26,96048
 214,13;  666,972;  194,912; 1878,138;28,04498
 214,73;  637,848;  192,064; 1900,324;26,09581
 215,33;  655,171;  175,063; 1953,512;26,99585
 215,93;  721,627;  205,372; 2059,408;27,84492
 216,53;  714,448;  155,294; 2130,282;28,31179
 217,13;  816,444;  225,218; 2355,757;27,75006
 217,73;  856,218;  200,680; 2550,616;27,89599
 218,33;  888,411;  171,835; 2756,160;27,72780
 218,93;  987,362;  178,298; 3051,389;28,16005
 219,53; 1071,976;  188,450; 3378,803;27,69367
 220,13; 1141,700;  162,297; 3685,344;27,79988
 220,73; 1246,761;  190,525; 4069,335;27,23094
 221,32; 1359,425;  199,448; 4487,436;27,05178
 221,92; 1456,057;  201,912; 4923,449;26,56222
 222,52; 1532,886;  187,603; 5348,652;26,06607
 223,12; 1644,811;  186,296; 5797,964;25,99076
 223,72; 1733,683;  196,834; 6270,837;25,30208
 224,32; 1824,044;  208,834; 6606,008;25,24880
 224,92; 1848,531;  181,296; 6936,379;24,68119
 225,52; 1970,075;  209,064; 7275,524;24,92070
 226,12; 1966,315;  191,526; 7597,223;23,96519
 226,72; 2012,467;  175,680; 7943,468;23,64621
 227,31; 2060,569;  168,680; 8381,762;23,03508
 227,91; 2130,380;  198,141; 8738,728;22,62420
 228,51; 2163,441;  187,062; 9143,184;22,06734
 229,11; 2220,799;  187,680; 9509,971;21,80923
 229,71; 2250,372;  185,371; 9816,726;21,44040
 230,31; 2262,024;  178,912;10313,536;20,55441
 230,91; 2298,689;  162,523;10599,783;20,46672
 231,51; 2303,551;  166,526;10904,987;19,90066
 232,10; 2348,001;  177,989;11271,174;19,56167
 232,70; 2369,675;  185,599;11488,805;19,32262
 233,30; 2385,933;  201,988;11777,942;18,86623
 233,90; 2349,497;  180,834;11885,467;18,52825
 234,50; 2313,218;  180,219;12027,172;18,00462
 235,10; 2298,454;  175,142;12073,456;17,84548
 235,70; 2294,328;  196,294;12184,425;17,50092
 236,29; 2265,885;  204,832;12189,721;17,19710
 236,89; 2220,152;  171,370;12123,154;17,14206
 237,49; 2183,443;  190,295;12035,409;16,82675
 238,09; 2137,489;  187,910;11811,944;16,77196
 238,69; 2128,554;  211,138;11643,233;16,77221
 239,29; 2066,204;  182,064;11287,194;16,96640
 239,89; 2038,511;  197,139;10970,014;17,09267
 240,48; 1983,129;  172,679;10623,623;17,32332
 241,08; 1943,382;  182,448;10282,560;17,43479
 241,68; 1954,567;  208,295; 9995,274;17,84281
 242,28; 1922,265;  165,757; 9625,906;18,56745
 242,88; 1953,229;  216,296; 9347,627;19,02168
 243,48; 1965,340;  218,757; 9046,613;19,78491
 244,07; 1987,482;  196,987; 8825,715;20,75040
 244,67; 2036,261;  200,526; 8683,568;21,64006
 245,27; 2078,804;  207,986; 8554,844;22,41344
 245,87; 2164,791;  208,604; 8438,569;23,76908
 246,47; 2233,010;  188,986; 8459,165;24,71559
 247,06; 2340,101;  180,525; 8441,302;26,14253
 247,66; 2444,080;  189,064; 8521,193;27,06411
 248,26; 2608,730;  219,601; 8600,640;28,50635
 248,86; 2759,216;  205,294; 8831,988;29,60487
 249,46; 2907,602;  164,142; 9039,037;30,91259
 250,05; 3157,000;  207,295; 9393,723;32,10939
 250,65; 3340,289;  175,216; 9756,709;33,03319
 251,25; 3585,817;  187,064;10234,090;33,82845
 251,85; 3952,973;  192,831;10874,878;35,20057
 252,44; 4224,989;  158,986;11393,884;36,19083
 253,04; 4621,684;  197,063;12189,412;36,89537
 253,64; 4966,286;  159,216;12868,221;37,82413
 254,24; 5468,282;  210,833;13783,773;38,73478
 254,84; 5891,294;  184,372;14673,652;39,38720
 255,43; 6370,221;  196,602;15616,214;40,03745
 256,03; 6853,518;  195,986;16569,763;40,65972
 256,63; 7367,331;  198,754;17607,679;41,17760
 257,23; 7734,256;  168,293;18412,317;41,47091
 257,82; 8260,525;  201,292;19369,700;42,04435
 258,42; 8634,596;  158,599;20155,701;42,38612
 259,02; 9141,402;  198,063;20987,648;43,01836
 259,62; 9470,900;  183,830;21623,729;43,31676
 260,21; 9710,784;  186,832;22130,698;43,40143
 260,81; 9985,032;  194,141;22595,785;43,70613
 261,41;10168,984;  178,446;22950,886;43,87118
 262,01;10413,766;  213,829;23372,875;44,04299
 262,60;10545,102;  170,447;23607,624;44,26580
 263,20;10722,214;  188,447;23973,541;44,28726
 263,80;10773,406;  204,214;24067,264;44,29104
 264,40;10789,281;  168,445;24262,626;44,08050
 264,99;10867,866;  190,906;24401,722;44,09996
 265,59;10869,003;  186,520;24468,097;43,99419
 266,19;10899,125;  167,060;24599,984;43,92460
 266,78;10975,679;  218,675;24698,579;43,94218
 267,38;10856,929;  197,674;24732,069;43,44617
 267,98;10861,193;  184,367;24764,556;43,43671
 268,58;10754,493;  190,905;24668,363;43,15639
 269,17;10724,428;  190,520;24681,524;43,01134
 269,77;10541,609;  198,369;24472,295;42,61049
 270,37;10451,968;  174,137;24319,188;42,56703
 270,96;10335,730;  225,292;24235,424;42,10905
 271,56;10111,434;  197,216;23960,050;41,72153
 272,16; 9927,624;  176,061;23785,080;41,30440
 272,75; 9840,933;  193,138;23710,026;41,02496
 273,35; 9722,296;  197,446;23740,550;40,45707
 273,95; 9579,036;  196,061;23627,515;40,04436
 274,54; 9514,256;  159,987;23627,266;39,86090
 275,14; 9606,092;  200,215;24053,097;39,43287
 275,74; 9480,855;  175,369;24029,370;39,01017
 276,33; 9556,224;  212,908;24433,390;38,57609
 276,93; 9649,568;  196,987;24819,699;38,38968
 277,53; 9767,911;  181,525;25312,825;38,14521
 278,12; 9840,617;  169,370;25804,393;37,72669
 278,72;10001,115;  228,909;26367,852;37,38562
 279,32;10184,626;  181,371;26951,341;37,36745
 279,91;10320,391;  171,293;27685,446;36,88683
 280,51;10483,015;  187,294;28141,295;36,83094
 281,11;10676,955;  194,524;28898,356;36,51927
 281,70;10782,158;  176,986;29324,094;36,38499
 282,30;11032,434;  170,524;29980,435;36,43724
 282,90;11095,356;  177,985;30302,684;36,24060
 283,49;11239,861;  200,754;30855,885;36,01063
 284,09;11416,285;  219,216;31271,796;36,05842
 284,69;11479,215;  219,447;31600,871;35,88036
 285,28;11593,490;  197,908;31988,615;35,84564
 285,88;11694,162;  224,907;32159,253;35,91511
 286,47;11635,792;  196,523;32207,580;35,73537
 287,07;11803,215;  217,986;32268,853;36,14638
 287,67;11870,340;  204,987;32462,151;36,16360
 288,26;11837,599;  183,986;32327,735;36,25468
 288,86;11953,055;  184,216;32394,700;36,53729
 289,46;12114,828;  195,217;32567,577;36,82034
 290,05;12243,098;  174,294;32602,448;37,21706
 290,65;12369,533;  186,139;32847,548;37,30211
 291,24;12548,038;  205,371;32915,486;37,73349
 291,84;12684,024;  208,677;32980,987;38,06673
 292,44;12762,445;  195,988;33101,028;38,19007
 293,03;12991,473;  256,371;33267,671;38,57801
 293,63;13013,997;  186,524;33486,824;38,52059
 294,22;13131,058;  218,832;33596,093;38,68570
 294,82;13128,769;  193,214;33514,096;38,82117
 295,41;13032,158;  171,524;33192,325;38,94707
 296,01;13038,288;  228,830;33113,991;38,95209
 296,61;12829,370;  204,832;32864,875;38,65438
 297,20;12568,239;  186,676;32540,194;38,26960
 297,80;12522,692;  212,679;32359,528;38,29306
 298,39;12245,819;  188,370;31888,340;38,03615
 298,99;12125,320;  199,369;31800,129;37,73944
 299,58;11891,543;  201,064;31598,695;37,23363
 300,18;11684,561;  219,756;31476,239;36,67977
 300,78;11409,118;  193,294;31096,612;36,29327
 301,37;11284,120;  204,060;30989,682;35,99102
 301,97;11210,315;  211,755;31040,102;35,67678
 302,56;11008,355;  192,523;31015,544;35,09011
 303,16;10836,556;  173,985;30913,065;34,68735
 303,75;10739,275;  192,986;30947,869;34,29143
 304,35;10651,605;  186,296;31270,737;33,66735
 304,94;10571,265;  197,294;31171,496;33,49230
 305,54;10423,040;  222,602;31024,359;33,11642
 306,13;10242,606;  167,450;31036,914;32,63794
 306,73;10020,060;  175,372;30778,124;32,16929
 307,33; 9892,160;  204,218;30757,391;31,70846
 307,92; 9771,140;  200,986;30764,300;31,31255
 308,52; 9738,554;  173,754;31205,427;30,82270
 309,11; 9818,774;  189,676;31675,050;30,58276
 309,71; 9798,330;  167,599;32030,689;30,22535
 310,30; 9734,831;  170,371;32144,355;29,91326
 310,90; 9701,447;  207,524;32439,586;29,45490
 311,49; 9617,240;  199,370;32575,781;29,08868
 312,09; 9539,305;  160,371;32719,022;28,80627
 312,68; 9540,759;  230,832;33036,309;28,37918
 313,28; 9463,294;  173,832;33232,070;28,10029
 313,87; 9390,394;  150,063;33453,685;27,74573
 314,47; 9360,418;  184,061;33707,162;27,37324
 315,06; 9261,884;  169,063;33772,757;27,05899
 315,66; 9259,997;  171,371;33983,099;26,88010
 316,25; 9088,455;  158,831;33862,101;26,49483
 316,85; 9040,511;  155,371;33973,787;26,27308
 317,44; 8934,262;  184,215;34031,810;25,85131
 318,04; 8864,946;  163,600;34028,774;25,69408
 318,63; 8734,009;  165,141;34117,861;25,23765
 319,22; 8726,481;  190,062;34310,245;25,01868
 319,82; 8606,412;  179,139;34280,113;24,71271
 320,41; 8528,329;  193,293;34189,114;24,51783
 321,01; 8446,072;  197,525;34335,344;24,16249
 321,60; 8417,823;  185,293;34326,121;24,11345
 322,20; 8264,321;  182,986;34352,155;23,65095
 322,79; 8306,833;  220,448;34463,495;23,61468
 323,39; 8254,500;  178,449;34452,322;23,56329
 323,98; 8138,963;  177,371;34414,128;23,25452
 324,58; 8064,349;  182,677;34271,088;23,12127
 325,17; 8020,507;  182,600;34070,232;23,12911
 325,76; 7945,163;  208,370;33980,183;22,90902
 326,36; 7823,764;  162,140;33523,439;22,96560
 326,95; 7740,440;  196,909;33256,528;22,81796
 327,55; 7619,796;  172,601;32885,610;22,76524
 328,14; 7534,719;  180,295;32524,885;22,73773
 328,74; 7459,328;  210,062;32124,517;22,71468
 329,33; 7348,148;  193,525;31744,244;22,67658
 329,92; 7224,800;  173,061;31079,366;22,81651
 330,52; 7085,669;  189,756;30560,953;22,70544
 331,11; 6999,157;  182,447;30156,551;22,74200
 331,71; 6878,007;  190,678;29492,216;22,82245
 332,30; 6766,573;  212,140;29062,957;22,71836
 332,89; 6721,634;  229,679;28588,208;22,89242
 333,49; 6568,466;  195,524;28039,266;22,88824
 334,08; 6528,539;  190,678;27588,411;23,13280
 334,68; 6425,617;  187,216;27199,778;23,09444
 335,27; 6371,441;  205,372;26844,961;23,14626
 335,86; 6387,080;  236,755;26638,397;23,29524
 336,46; 6303,391;  200,372;26340,586;23,34724
 337,05; 6306,951;  191,601;26166,384;23,54341
 337,65; 6284,566;  166,370;25964,208;23,71592
 338,24; 6395,501;  223,217;26016,146;23,93014
 338,83; 6370,733;  211,602;25854,725;24,01865
 339,43; 6375,019;  176,369;25878,725;24,11705
 340,02; 6467,915;  188,446;25735,002;24,58049
 340,61; 6485,936;  182,525;25779,943;24,62518
 341,21; 6575,867;  226,600;25755,517;24,87088
 341,80; 6572,642;  184,370;25715,782;25,02122
 342,40; 6722,670;  183,526;25854,917;25,47250
 342,99; 6801,634;  199,986;25929,901;25,65748
 343,58; 6880,225;  185,525;26089,167;25,84463
 344,18; 7000,944;  193,987;26219,986;26,15445
 344,77; 7143,068;  181,600;26489,404;26,46161
 345,36; 7317,440;  170,524;26754,067;26,88474
 345,96; 7479,507;  207,833;27107,181;27,03290
 346,55; 7658,450;  174,526;27293,100;27,59704
 347,14; 7792,055;  169,756;27558,898;27,82964
 347,74; 8018,005;  151,528;28024,010;28,22310
 348,33; 8356,079;  184,143;28756,291;28,60106
 348,92; 8591,835;  191,913;29284,528;28,87304
 349,52; 8791,445;  166,528;29692,091;29,21169
 350,11; 8966,349;  183,446;29887,278;29,56825
 350,70; 9098,935;  181,601;29977,576;29,92798
 351,29; 9114,551;  165,598;29773,027;30,22536
 351,89; 9242,979;  189,061;29860,235;30,51419
 352,48; 9323,396;  166,294;29695,595;31,01023
 353,07; 9410,673;  193,680;29679,002;31,25960
 353,67; 9562,811;  201,067;29651,315;31,78834
 354,26; 9541,235;  186,680;29352,328;32,07388
 354,85; 9609,357;  190,987;29271,922;32,38675
 355,45; 9613,025;  167,908;29071,181;32,67836
 356,04; 9764,854;  187,680;29098,051;33,12712
 356,63; 9853,466;  211,293;28694,153;33,85255
 357,22; 9913,737;  187,368;28654,898;34,16654
 357,82; 9926,153;  192,676;28523,825;34,35610
 358,41; 9976,726;  196,063;28371,206;34,71380
 359,00;10043,584;  182,600;28186,847;35,21246
 359,60;10157,091;  191,525;28141,716;35,65473
 360,19;10152,831;  187,065;27957,205;35,88663
 360,78;10271,437;  192,447;27765,040;36,55438
 361,37;10317,156;  181,755;27625,452;36,93162
 361,97;10344,571;  187,216;27532,356;37,14501
 362,56;10330,604;  176,677;27104,821;37,70749
 363,15;10374,898;  215,601;26925,095;38,03628
 363,74;10326,932;  189,676;26618,927;38,35620
 364,34;10325,916;  220,754;26284,775;38,77054
 364,93;10253,449;  181,907;25807,297;39,30298
 365,52;10177,695;  150,832;25444,167;39,64232
 366,11;10199,225;  189,293;25161,508;40,08428
 366,71;10149,789;  176,908;24765,784;40,55851
 367,30;10151,158;  186,678;24437,899;41,08857
 367,89;10153,998;  227,141;24259,388;41,30640
 368,48;10166,830;  206,061;23956,519;41,93927
 369,07;10065,166;  197,909;23527,192;42,29559
 369,67;10016,986;  212,754;23270,487;42,52037
 370,26;10021,218;  175,602;22985,630;43,16354
 370,85; 9978,285;  187,447;22741,275;43,41098
 371,44; 9987,570;  183,832;22530,315;43,87150
 372,03;10003,404;  165,369;22359,743;44,32670
 372,63; 9930,800;  163,601;21974,908;44,78044
 373,22; 9932,498;  178,371;21710,540;45,30025
 373,81; 9899,798;  169,832;21369,692;45,89637
 374,40; 9819,283;  179,141;21191,469;45,87851
 374,99; 9852,384;  182,293;20946,407;46,57117
 375,59; 9773,410;  174,525;20635,804;46,91244
 376,18; 9857,231;  210,908;20572,968;47,37400
 376,77; 9827,110;  199,370;20281,012;47,94299
 377,36; 9898,284;  211,755;20271,524;48,28834
 377,95; 9829,534;  193,216;20011,761;48,62273
 378,55; 9787,226;  178,064;19801,497;48,96779
 379,14; 9886,336;  192,370;19741,171;49,58854
 379,73; 9944,124;  195,908;19691,969;50,00095
 380,32;10027,519;  196,601;19666,940;50,49177
 380,91;10007,806;  184,600;19659,632;50,44000
 381,50;10052,169;  195,446;19508,233;51,03729
 382,10;10083,289;  173,678;19391,016;51,56599
 382,69;10148,720;  156,832;19421,728;51,86578
 383,28;10197,479;  204,139;19306,047;52,31593
 383,87;10181,889;  191,369;19176,341;52,62331
 384,46;10262,385;  177,984;19199,309;53,01629
 385,05;10323,220;  210,677;19173,111;53,32935
 385,64;10422,763;  194,293;19153,123;53,95096
 386,24;10450,641;  171,291;19108,408;54,28149
 386,83;10508,766;  200,906;19125,626;54,46770
 387,42;10627,585;  202,139;19266,408;54,68579
 388,01;10822,213;  208,059;19417,625;55,25452
 388,60;11043,721;  191,291;19735,629;55,52723
 389,19;11233,861;  169,135;19833,873;56,26683
 389,78;11439,788;  182,135;20059,963;56,63422
 390,37;11877,633;  233,214;20570,252;57,25720
 390,96;11960,229;  195,214;20658,476;57,49335
 391,56;12090,085;  195,134;20803,875;57,71799
 392,15;12297,894;  174,597;21089,691;57,96435
 392,74;12486,803;  162,671;21180,586;58,63632
 393,33;12738,698;  185,134;21576,771;58,68444
 393,92;13053,225;  200,978;21935,390;59,13317
 394,51;13202,286;  181,826;22097,532;59,41155
 395,10;13397,110;  208,129;22368,729;59,51545
 395,69;13503,526;  195,745;22392,578;59,95351
 396,28;13680,993;  208,513;22519,664;60,38452
 396,87;13797,241;  203,664;22622,717;60,63404
 397,46;13919,936;  206,970;22752,930;60,82227
 398,06;14161,753;  220,968;22949,909;61,33495
 398,65;14238,148;  207,041;22986,304;61,59596
 399,24;14436,135;  223,117;23235,520;61,76242
 399,83;14491,854;  196,187;23133,642;62,32456
 400,42;14584,456;  231,027;23312,897;62,18486
 401,01;14703,788;  211,020;23466,838;62,31889
 401,60;14813,725;  223,241;23458,475;62,79465
 402,19;14839,818;  244,310;23392,011;63,05381
 402,78;14917,261;  222,606;23440,235;63,29094
 403,37;14905,944;  220,441;23274,040;63,70156
 403,96;14836,061;  218,889;23141,847;63,76652
 404,55;14862,437;  235,029;23039,048;64,14399
 405,14;14854,731;  209,862;22834,009;64,73114
 405,73;14800,914;  226,692;22810,321;64,53445
 406,32;14866,017;  230,451;22740,758;65,01718
 406,91;14741,687;  223,439;22478,874;65,23462
 407,50;14716,392;  234,048;22281,577;65,68692
 408,09;14582,225;  214,505;22020,473;65,88893
 408,68;14548,180;  226,733;21955,542;65,90995
 409,27;14444,341;  219,276;21694,054;66,24080
 409,86;14467,350;  237,823;21621,933;66,54252
 410,45;14449,927;  258,908;21500,383;66,80807
 411,04;14452,456;  249,378;21394,366;67,16995
 411,63;14350,123;  241,235;21145,549;67,49271
 412,22;14193,340;  248,321;20999,238;67,20194
 412,81;14049,774;  262,171;20693,005;67,48429
 413,40;13905,042;  260,790;20386,652;67,79462
 413,99;13747,433;  297,943;20125,317;67,83294
 414,58;13491,138;  236,021;19777,255;67,83152
 415,17;13368,954;  246,709;19475,878;68,24135
 415,76;13260,309;  242,859;19416,583;67,89214
 416,35;13219,876;  225,553;19238,504;68,34458
 416,94;13274,578;  264,629;19292,064;68,37469
 417,53;13509,496;  247,709;19521,601;68,80700
 418,12;13591,663;  230,095;19581,001;69,04880
 418,71;13922,018;  248,790;19924,131;69,49424
 419,30;13908,129;  248,403;19962,457;69,28928
 419,89;14114,064;  233,481;20207,007;69,49491
 420,48;14358,378;  259,406;20394,742;70,02104
 421,07;14490,004;  253,945;20457,002;70,46488
 421,66;14456,905;  228,562;20558,819;69,98605
 422,25;14473,909;  243,720;20474,513;70,33925
 422,84;14533,305;  268,567;20483,890;70,56399
 423,43;14315,947;  238,181;20233,819;70,40419
 424,02;14133,651;  259,335;19981,925;70,34733
 424,60;13963,384;  239,878;19609,580;70,85037
 425,19;13787,811;  247,876;19286,044;71,11995
 425,78;13730,148;  259,107;19256,157;70,91123
 426,37;13713,505;  268,493;19049,382;71,58879
 426,96;13649,762;  253,032;18976,178;71,55170
 427,55;13519,825;  247,727;18795,691;71,55556
 428,14;13394,611;  225,497;18621,678;71,58613
 428,73;13346,811;  247,264;18431,843;72,03657
 429,32;13360,373;  260,185;18434,379;72,08126
 429,91;13334,479;  266,572;18413,399;72,01208
 430,50;13216,216;  254,265;18250,305;72,02669
 431,08;13131,825;  276,113;18093,042;72,15448
 431,67;13129,125;  310,806;18095,681;72,07427
 432,26;12951,501;  328,115;17841,605;72,07807
 432,85;12732,957;  344,038;17573,706;71,90457
 433,44;12558,085;  352,655;17178,474;72,53989
 434,03;12296,402;  369,581;16821,561;72,49474
 434,62;11992,241;  326,655;16469,075;72,26665
 435,21;11889,653;  345,423;16295,099;72,37909
 435,79;11803,056;  337,580;16106,116;72,71110
 436,38;11723,038;  338,582;16042,579;72,49400
 436,97;11615,376;  334,275;15932,329;72,32377
 437,56;11519,144;  330,586;15779,839;72,42136
 438,15;11457,285;  306,046;15654,611;72,65330
 438,74;11467,008;  317,508;15719,881;72,38820
 439,33;11490,258;  302,969;15707,869;72,62163
 439,91;11539,511;  260,432;15743,950;72,84571
 440,50;11583,821;  308,048;15786,379;72,84877
 441,09;11641,388;  309,973;15868,264;72,83200
 441,68;11635,187;  282,283;15887,710;72,74972
 442,27;11610,688;  265,743;15888,324;72,61889
 442,86;11586,418;  249,902;15819,201;72,81327
 443,44;11662,148;  273,978;15920,526;72,78392
 444,03;11698,675;  311,363;15938,500;72,86883
 444,62;11582,649;  266,286;15852,685;72,60409
 445,21;11444,411;  277,132;15697,895;72,41716
 445,80;11346,779;  301,211;15535,842;72,50302
 446,39;11211,568;  308,826;15304,871;72,70412
 446,97;11057,530;  267,213;15166,554;72,42144
 447,56;10907,406;  271,600;14915,865;72,62779
 448,15;10763,094;  272,829;14806,482;72,17913
 448,74;10681,456;  290,060;14441,409;73,43043
 449,33;10508,477;  275,061;14370,042;72,60326
 449,91;10401,358;  271,064;14160,501;72,93524
 450,50;10175,043;  269,217;13986,905;72,21207
 451,09;10146,483;  285,833;13916,968;72,33917
 451,68;10102,599;  298,218;13832,820;72,43938
 452,26;10018,153;  286,912;13740,803;72,33031
 452,85; 9927,169;  274,911;13642,131;72,20842
 453,44; 9915,292;  292,452;13654,754;72,01483
 454,03; 9870,419;  271,374;13603,163;72,00118
 454,61; 9844,013;  258,068;13558,731;72,07118
 455,20;10007,387;  287,915;13737,189;72,26763
 455,79; 9939,232;  301,529;13726,756;71,78801
 456,38;10043,053;  293,148;13805,763;72,15410
 456,97;10039,379;  277,378;13882,633;71,75169
 457,55;10014,578;  272,764;13880,692;71,58925
 458,14;10021,091;  305,993;13833,969;71,81486
 458,73; 9920,376;  289,149;13798,130;71,29499
 459,31; 9939,173;  311,997;13868,667;71,01431
 459,90; 9998,901;  324,303;13891,716;71,30761
 460,49;10037,636;  354,149;13949,532;71,22629
 461,08;10061,007;  278,844;14079,044;70,88421
 461,66;10134,146;  286,458;14142,138;71,07329
 462,25;10136,660;  285,383;14221,508;70,68878
 462,84;10205,882;  323,690;14247,021;70,97577
 463,43;10128,127;  260,770;14195,085;70,81336
 464,01;10119,653;  290,232;14209,403;70,61786
 464,60;10072,629;  330,308;14153,992;70,47558
 465,19; 9890,815;  265,002;13926,944;70,45713
 465,77; 9824,061;  293,003;13930,158;69,89037
 466,36; 9758,614;  309,847;13888,745;69,58420
 466,95; 9533,720;  301,924;13501,396;69,94065
 467,53; 9364,154;  285,081;13242,512;70,06847
 468,12; 9139,697;  314,312;12987,235;69,63970
 468,71; 8929,511;  297,310;12749,242;69,32419
 469,29; 8770,470;  268,082;12517,745;69,40916
 469,88; 8633,252;  289,237;12300,856;69,46620
 470,47; 8678,688;  337,161;12425,316;69,00579
 471,06; 8683,971;  297,700;12388,429;69,36117
 471,64; 8695,707;  307,699;12453,883;69,05879
 472,23; 8656,271;  283,318;12457,863;68,77426
 472,81; 8691,914;  270,701;12603,579;68,28263
 473,40; 8761,478;  291,549;12710,994;68,19893
 473,99; 8927,529;  367,549;12900,623;68,29913
 474,57; 8920,271;  290,087;12986,650;67,97260
 475,16; 9021,073;  302,702;13150,632;67,85818
 475,75; 9122,393;  317,397;13266,786;67,99545
 476,33; 9126,131;  325,167;13372,406;67,45461
 476,92; 9135,636;  323,703;13401,160;67,38262
 477,51; 9123,584;  321,474;13444,073;67,07596
 478,09; 9110,148;  326,013;13444,562;66,95966
 478,68; 9059,003;  317,782;13379,872;66,92053
 479,27; 9054,112;  332,550;13453,238;66,47183
 479,85; 9057,745;  304,090;13473,189;66,47117
 480,44; 9092,755;  309,552;13619,486;65,98983
 481,02;10036,234;  311,015;15045,880;66,00141
 481,61;11187,585;  340,399;16952,352;65,29748
 482,20;11838,286;  329,554;18054,568;64,92933
 482,78;12397,905;  358,398;18750,283;65,46097
 483,37;12683,313;  359,479;19340,123;64,92843
 483,95;12781,011;  367,402;19544,868;64,73018
 484,54;12962,710;  386,553;19676,683;65,19478
 485,13;12803,162;  351,634;19569,904;64,79005
 485,71;12709,384;  330,941;19445,978;64,75762
 486,30;12513,026;  362,865;19124,082;64,76212
 486,88;12207,545;  399,096;18757,900;64,32036
 487,47;11690,679;  390,711;18039,564;64,02664
 488,05;11155,099;  375,404;17197,521;64,08049
 488,64;10307,582;  356,867;15897,462;64,03046
 489,23; 9063,208;  377,943;14048,927;63,53065
 489,81; 7829,316;  376,636;12122,681;63,44842
 490,40; 7405,193;  324,329;11543,372;63,11468
 490,98; 7220,612;  321,868;11331,845;62,65902
 491,57; 7144,621;  337,405;11301,075;62,08884
 492,15; 7091,949;  334,868;11192,881;62,23128
 492,74; 7006,717;  327,097;11134,353;61,80681
 493,32; 6905,405;  338,329;10987,289;61,66870
 493,91; 6835,498;  318,869;10888,774;61,65267
 494,50; 6768,252;  338,102;10880,015;60,99604
 495,08; 6729,122;  312,410;10854,613;60,86690
 495,67; 6735,161;  339,484;10852,413;60,83630
 496,25; 6587,284;  281,947;10677,861;60,65207
 496,84; 6556,518;  289,330;10695,364;60,22648
 497,42; 6532,446;  286,717;10586,131;60,64159
 498,01; 6446,779;  305,484;10542,191;59,99288
 498,59; 6341,398;  261,178;10485,338;59,46913
 499,18; 6296,500;  267,638;10470,358;59,09073
 499,76; 6216,644;  290,947;10417,780;58,51481
 500,35; 6063,979;  294,026;10184,163;58,34048
 500,93; 5997,085;  286,024;10163,480;57,81915
 501,52; 5982,576;  292,024;10117,959;57,91360
 502,10; 5956,661;  290,719;10070,870;57,93307
 502,69; 5788,007;  273,951; 9895,469;57,30963
 503,27; 5654,151;  273,256; 9776,974;56,61884
 503,86; 5548,822;  273,258; 9654,524;56,23510
 504,44; 5514,450;  257,797; 9562,173;56,49656
 505,03; 5288,706;  246,336; 9329,218;55,51509
 505,61; 5228,650;  267,951; 9232,518;55,33674
 506,19; 5166,782;  281,797; 9115,427;55,29986
 506,78; 5001,220;  251,030; 8906,719;54,87940
 507,36; 4893,679;  265,566; 8781,649;54,34556
 507,95; 4787,565;  263,108; 8600,201;54,26901
 508,53; 4688,988;  266,261; 8468,217;53,92284
 509,12; 4629,561;  263,184; 8343,016;54,04044
 509,70; 4516,773;  284,108; 8203,816;53,44471
 510,29; 4456,145;  292,416; 8086,442;53,42205
 510,87; 4325,552;  248,107; 7901,204;53,27837
 511,46; 4207,404;  254,722; 7719,546;52,95077
 512,04; 4118,188;  268,877; 7598,643;52,51615
 512,62; 4043,584;  263,415; 7482,035;52,36692
 513,21; 3923,044;  245,263; 7304,631;52,09787
 513,79; 3862,265;  255,881; 7196,405;51,96126
 514,38; 3751,763;  241,188; 7052,648;51,53925
 514,96; 3685,786;  279,418; 6977,667;50,85461
 515,54; 3602,001;  238,803; 6844,647;50,91246
 516,13; 3527,055;  264,419; 6729,764;50,46345
 516,71; 3447,764;  256,651; 6611,484;50,21554
 517,30; 3375,344;  241,806; 6496,512;50,09888
 517,88; 3295,881;  281,652; 6388,874;49,35516
 518,46; 3253,196;  233,268; 6311,203;49,68675
 519,05; 3199,311;  258,576; 6290,838;48,75012
 519,63; 3143,048;  254,653; 6214,161;48,46701
 520,22; 3119,510;  274,962; 6160,667;48,32977
 520,80; 3014,307;  267,424; 6117,449;46,95507
 521,38; 3022,852;  288,730; 6112,729;46,94578
 521,97; 2969,883;  251,271; 6062,392;46,78292
 522,55; 2961,498;  272,502; 6023,410;46,75777
 523,13; 2908,713;  245,656; 5997,218;46,30145
 523,72; 2871,888;  250,268; 5997,873;45,61239
 524,30; 2919,263;  285,349; 6102,152;45,28112
 524,89; 2882,911;  252,886; 6138,944;44,68229
 525,47; 2917,011;  269,888; 6246,468;44,29161
 526,05; 2900,707;  242,657; 6297,784;43,89750
 526,64; 2935,432;  265,581; 6427,253;43,32998
 527,22; 2945,113;  272,042; 6559,626;42,51349
 527,80; 2974,123;  296,581; 6676,402;41,96892
 528,39; 2995,466;  269,659; 6757,762;42,01239
 528,97; 3037,717;  257,966; 6894,678;41,88447
 529,55; 3052,149;  266,425; 7041,462;41,11747
 530,14; 3119,293;  280,044; 7277,928;40,57297
 530,72; 3125,743;  265,658; 7380,397;40,19944
 531,30; 3138,321;  255,505; 7498,249;39,80282
 531,89; 3167,424;  268,736; 7591,389;39,58521
 532,47; 3226,789;  305,275; 7668,266;39,67836
 533,05; 3211,020;  291,042; 7672,299;39,55936
 533,63; 3190,254;  296,506; 7775,717;38,69055
 534,22; 3199,178;  254,660; 7820,315;38,91954
 534,80; 3223,862;  289,353; 7861,876;38,75206
 535,38; 3282,042;  368,121; 7993,475;38,21359
 535,97; 3173,713;  277,198; 7937,537;37,81184
 536,55; 3216,224;  328,661; 7963,935;37,81872
 537,13; 3163,474;  325,890; 7916,937;37,38066
 537,71; 3186,599;  375,659; 8011,924;36,81041
 538,30; 3188,799;  395,891; 8048,082;36,49815
 538,88; 3234,032;  425,893; 8152,728;36,34268
 539,46; 3275,939;  501,430; 8333,433;35,42527
 540,05; 3293,718;  504,431; 8447,404;35,11642
 540,63; 3355,437;  553,123; 8633,335;34,68119
 541,21; 3369,961;  583,124; 8780,301;33,99752
 541,79; 3380,525;  638,816; 8958,365;32,95502
 542,38; 3416,690;  656,739; 9099,237;32,69117
 542,96; 3473,104;  677,433; 9231,873;32,68093
 543,54; 3505,959;  678,893; 9416,334;32,35576
 544,12; 3470,579;  648,124; 9561,771;31,66443
 544,70; 3495,567;  629,433; 9644,262;31,79355
 545,29; 3531,050;  637,892; 9802,617;31,56841
 545,87; 3515,833;  627,355; 9826,442;31,39961
 546,45; 3478,535;  559,738; 9782,060;31,64926
 547,03; 3491,032;  554,739; 9881,362;31,48292
 547,62; 3468,629;  519,970;10033,396;30,99471
 548,20; 3522,871;  508,356;10161,597;31,22801
 548,78; 3496,061;  480,512;10255,562;30,84945
 549,36; 3526,801;  436,666;10491,911;30,73157
 549,94; 3553,532;  398,048;10597,114;30,93895
 550,53; 3586,821;  397,973;10830,094;30,56759
 551,11; 3584,940;  376,436;10998,818;30,20513
 551,69; 3618,287;  385,819;11316,396;29,57271
 552,27; 3631,736;  359,434;11509,860;29,34688
 552,85; 3740,991;  360,666;11837,176;29,45429
 553,44; 3773,543;  353,973;12151,093;28,98648
 554,02; 3851,523;  366,281;12565,603;28,56915
 554,60; 3830,019;  310,667;12796,786;28,18612
 555,18; 3970,980;  346,050;13166,513;28,27456
 555,76; 3969,011;  327,666;13540,033;27,56012
 556,34; 4074,776;  326,668;13929,163;27,55457
 556,93; 4133,546;  311,358;14257,812;27,40616
 557,51; 4189,700;  300,744;14553,665;27,28532
 558,09; 4238,161;  322,512;14936,214;26,79436
 558,67; 4317,122;  327,053;15262,106;26,71613
 559,25; 4358,705;  332,899;15508,063;26,52891
 559,83; 4365,028;  312,515;15873,086;26,04347
 560,41; 4434,695;  305,667;16228,766;25,93106
 561,00; 4487,250;  315,207;16482,120;25,80606
 561,58; 4528,976;  311,436;16729,237;25,68882
 562,16; 4530,940;  304,974;16986,493;25,33322
 562,74; 4660,447;  278,897;17447,277;25,52105
 563,32; 4685,925;  283,130;17796,444;25,13970
 563,90; 4749,840;  306,053;18141,613;24,91532
 564,48; 4820,767;  312,205;18554,215;24,71527
 565,06; 4928,838;  304,053;19163,184;24,52279
 565,65; 5091,430;  307,286;19820,114;24,51795
 566,23; 5273,635;  349,053;20461,409;24,48536
 566,81; 5375,217;  297,283;21267,420;24,21507
 567,39; 5535,725;  305,823;21980,194;24,12943
 567,97; 5671,861;  322,360;22651,935;23,95702
 568,55; 5819,411;  332,592;23414,544;23,77104
 569,13; 5925,944;  307,207;24091,527;23,62370
 569,71; 6146,299;  300,666;25027,927;23,64044
 570,29; 6333,109;  340,589;26006,893;23,34781
 570,87; 6466,834;  331,358;26633,322;23,32706
 571,45; 6591,608;  326,437;27210,283;23,30459
 572,03; 6597,806;  303,670;27631,397;23,03205
 572,61; 6714,898;  301,977;28386,010;22,83476
 573,20; 6817,291;  320,591;28968,566;22,67769
 573,78; 6948,105;  307,823;29651,412;22,62941
 574,36; 6977,998;  323,361;30026,431;22,40387
 574,94; 7066,040;  374,977;30406,676;22,28000
 575,52; 7038,166;  325,671;30646,784;22,13802
 576,10; 7140,772;  390,132;31175,682;21,92795
 576,68; 7178,190;  367,823;31739,646;21,70855
 577,26; 7334,432;  380,057;32271,760;21,80622
 577,84; 7372,640;  390,438;32837,404;21,51881
 578,42; 7483,303;  418,747;33024,815;21,66638
 579,00; 7372,669;  380,823;33226,996;21,28664
 579,58; 7368,631;  414,901;33436,056;21,05841
 580,16; 7369,691;  395,747;33485,806;21,07565
 580,74; 7294,744;  395,594;33619,439;20,76566
 581,32; 7262,274;  388,978;33668,667;20,65313
 581,90; 7228,639;  414,440;33559,656;20,55862
 582,48; 7190,717;  401,670;33812,312;20,32001
 583,06; 7163,426;  412,901;33964,142;20,12005
 583,64; 7120,604;  405,516;33988,124;19,99573
 584,22; 7033,453;  416,518;33820,059;19,80908
 584,80; 6898,381;  419,824;33512,933;19,57675
 585,38; 6776,852;  435,821;33128,679;19,39577
 585,96; 6743,211;  399,054;33273,832;19,29795
 586,54; 6703,089;  417,056;33350,689;19,08697
 587,12; 6664,030;  394,594;33466,981;18,95671
 587,70; 6671,264;  429,285;33575,542;18,83163
 588,28; 6594,542;  400,748;33627,415;18,64103
 588,86; 6572,803;  404,902;33703,781;18,52285
 589,44; 6506,904;  387,596;33804,327;18,31211
 590,02; 6533,411;  398,057;34039,496;18,23749
 590,59; 6515,038;  367,979;34229,540;18,15350
 591,17; 6550,852;  375,059;34360,951;18,17164
 591,75; 6476,632;  365,366;34489,090;17,90914
 592,33; 6499,804;  378,442;34773,616;17,79715
 592,91; 6486,794;  322,212;35003,133;17,77514
 593,49; 6532,114;  337,675;35308,742;17,71304
 594,07; 6550,369;  356,675;35484,669;17,63179
 594,65; 6506,758;  358,979;35567,458;17,46108
 595,23; 6559,846;  355,288;35855,257;17,47764
 595,81; 6548,416;  344,827;35961,875;17,41747
 596,39; 6516,879;  341,673;36184,187;17,22872
 596,97; 6519,589;  352,366;36317,658;17,14771
 597,55; 6490,251;  331,518;36207,384;17,16679
 598,12; 6444,761;  320,137;36068,514;17,13259
 598,70; 6413,491;  328,367;36337,010;16,89907
 599,28; 6442,338;  337,674;36525,377;16,86944
 599,86; 6442,926;  325,520;36508,943;16,90665
 600,44; 6407,291;  297,136;36706,358;16,78189
 601,02; 6399,294;  352,292;36715,274;16,62955
 601,60; 6352,145;  324,750;36643,624;16,59576
 602,18; 6343,144;  306,906;36690,202;16,59068
 602,75; 6319,901;  302,673;36746,550;16,51095
 603,33; 6322,543;  326,136;36774,083;16,45198
 603,91; 6301,027;  316,522;36763,182;16,41990
 604,49; 6300,544;  331,136;36830,182;16,35497
 605,07; 6224,836;  340,443;36880,063;16,10415
 605,65; 6262,217;  353,906;36951,769;16,14387
 606,23; 6273,009;  419,210;37090,468;15,96291
 606,80; 6230,619;  456,211;37144,690;15,73902
 607,38; 6263,664;  510,445;37148,870;15,70269
 607,96; 6243,490;  551,596;37289,233;15,49336
 608,54; 6278,858;  620,136;37268,063;15,44077
 609,12; 6250,081;  613,442;37294,210;15,36674
 609,70; 6259,566;  668,443;37341,273;15,24595
 610,27; 6221,411;  664,211;37314,958;15,16258
 610,85; 6250,462;  666,136;37472,359;15,17223
 611,43; 6270,465;  674,751;37421,350;15,22784
 612,01; 6145,936;  638,442;37164,389;15,07831
 612,59; 6151,309;  646,751;37300,305;15,01780
 613,16; 6132,119;  595,672;37175,381;15,13530
 613,74; 6092,005;  570,290;37044,680;15,13861
 614,32; 6087,756;  531,521;36990,963;15,23950
 614,90; 5998,456;  491,443;36893,401;15,12834
 615,48; 5990,739;  434,210;36582,507;15,37148
 616,05; 5964,091;  410,748;36644,078;15,32661
 616,63; 5946,905;  415,748;36435,496;15,35590
 617,21; 5899,462;  413,365;36356,836;15,26313
 617,79; 5876,136;  394,288;36181,599;15,31785
 618,36; 5929,862;  396,135;36141,434;15,48099
 618,94; 5796,792;  334,211;35768,968;15,41589
 619,52; 5790,523;  371,594;35508,830;15,42218
 620,10; 5789,671;  358,980;35572,437;15,42220
 620,67; 5736,828;  357,902;35415,093;15,34329
 621,25; 5744,658;  389,135;35378,809;15,30601
 621,83; 5749,356;  360,672;35311,397;15,41795
 622,41; 5752,483;  399,134;35318,176;15,33075
 622,98; 5710,391;  358,825;35061,808;15,42106
 623,56; 5697,953;  366,517;35068,153;15,36364
 624,14; 5667,972;  340,905;34925,731;15,40290
 624,72; 5724,638;  352,980;34874,832;15,56017
 625,29; 5673,261;  316,594;34884,442;15,49610
 625,87; 5721,418;  369,981;34859,382;15,51618
 626,45; 5645,641;  332,594;34617,950;15,49655
 627,02; 5676,523;  341,211;34593,123;15,57668
 627,60; 5690,931;  321,598;34492,901;15,71299
 628,18; 5657,619;  315,288;34596,826;15,58370
 628,76; 5678,137;  315,979;34662,134;15,61211
 629,33; 5668,197;  334,287;34607,132;15,56308
 629,91; 5726,441;  328,826;34527,898;15,78293
 630,49; 5767,578;  338,441;34792,698;15,75752
 631,06; 5766,216;  329,133;34793,120;15,77613
 631,64; 5756,771;  345,132;34797,352;15,70766
 632,22; 5745,993;  294,516;34767,635;15,81370
 632,79; 5824,378;  326,209;35036,694;15,84008
 633,37; 5840,399;  309,673;35072,122;15,91006
 633,95; 5851,691;  317,824;35181,941;15,87267
 634,52; 5900,124;  302,441;35231,760;16,02574
 635,10; 5903,361;  294,903;35243,007;16,04796
 635,68; 5990,634;  304,439;35492,142;16,15961
 636,25; 5992,799;  284,284;35477,380;16,22055
 636,83; 5978,291;  279,133;35636,826;16,11858
 637,41; 6007,553;  295,824;35629,862;16,16495
 637,98; 6073,398;  313,593;35981,858;16,14826
 638,56; 6070,564;  300,130;35852,521;16,23079
 639,13; 6137,083;  290,671;36001,247;16,37165
 639,71; 6172,114;  316,441;36174,423;16,33018
 640,29; 6136,670;  262,364;35961,608;16,45499
 640,86; 6175,282;  278,364;36177,102;16,42653
 641,44; 6185,047;  282,133;36150,673;16,45708
 642,02; 6245,966;  303,287;36124,244;16,58995
 642,59; 6238,424;  278,595;36216,507;16,58368
 643,17; 6233,728;  284,441;36222,308;16,55437
 643,74; 6246,339;  283,749;36272,264;16,56804
 644,32; 6299,797;  308,902;36206,450;16,68887
 644,89; 6334,639;  293,287;36213,636;16,81874
 645,47; 6316,943;  316,749;36321,361;16,66507
 646,05; 6314,323;  286,826;36147,855;16,80793
 646,62; 6369,473;  286,056;36127,348;16,97321
 647,20; 6381,777;  300,057;36326,919;16,88107
 647,77; 6371,312;  265,518;36254,259;16,96584
 648,35; 6376,846;  268,749;36051,984;17,06972
 648,92; 6411,611;  293,518;36028,555;17,12071
 649,50; 6343,454;  258,211;36084,433;16,98544
 650,08; 6363,834;  268,595;35998,773;17,05908
 650,65; 6471,061;  279,288;36151,806;17,26049
 651,23; 6617,596;  260,826;37044,146;17,28166
 651,80; 6840,900;  263,442;37736,101;17,55269
 652,38; 6938,203;  276,980;38133,056;17,59618
 652,95; 7050,815;  240,672;38555,396;17,77422
 653,53; 7127,657;  281,672;38761,506;17,79110
 654,10; 7196,576;  298,749;38927,538;17,85670
 654,68; 7184,188;  253,365;38797,340;17,98160
 655,25; 7240,184;  259,596;38915,295;18,05837
 655,83; 7238,180;  258,288;38956,866;18,03656
 656,40; 7319,253;  285,673;38901,975;18,21402
 656,98; 7286,557;  261,827;38894,007;18,18362
 657,55; 7266,399;  270,057;38727,809;18,19228
 658,13; 7153,164;  260,673;38412,611;18,06590
 658,70; 7191,391;  282,058;38101,027;18,26949
 659,28; 6995,079;  256,750;37210,521;18,23448
 659,85; 6883,076;  276,673;36512,323;18,23178
 660,43; 6902,764;  282,212;36596,201;18,23141
 661,00; 6940,837;  271,442;36701,926;18,30718
 661,58; 7022,525;  259,596;37023,035;18,39580
 662,15; 7087,752;  244,827;37252,452;18,49058
 662,73; 7206,902;  310,596;37535,485;18,52606
 663,30; 7234,437;  264,827;37722,825;18,60647
 663,88; 7281,740;  282,904;37799,857;18,65513
 664,45; 7348,660;  260,520;38093,889;18,73515
 665,03; 7443,348;  271,827;38413,306;18,80242
 665,60; 7608,960;  328,289;38821,877;18,91398
 666,17; 7612,802;  269,289;38859,371;19,02953
 666,75; 7691,490;  269,443;39260,711;19,03515
 667,32; 7810,486;  298,058;39588,897;19,12005
 667,90; 7869,175;  273,905;39803,160;19,21430
 668,47; 7951,325;  289,981;40021,731;19,28267
 669,05; 8052,321;  265,982;40429,763;19,38647
 669,62; 8048,547;  244,059;40436,873;19,41762
 670,19; 8151,621;  255,289;40583,828;19,58001
 670,77; 8201,617;  246,674;40706,399;19,66139
 671,34; 8236,536;  251,905;40679,047;19,75067
 671,92; 8371,455;  252,366;40982,233;19,93399
 672,49; 8386,374;  280,905;40988,265;19,91156
 673,06; 8380,755;  227,367;41029,990;19,98251
 673,64; 8477,135;  248,213;41040,330;20,17283
 674,21; 8467,747;  240,905;40922,978;20,22228
 674,79; 8596,051;  266,290;41185,856;20,35643
 675,36; 8635,431;  272,982;41330,658;20,36757
 675,93; 8643,274;  241,213;41160,844;20,53308
 676,51; 8744,885;  270,521;41380,107;20,61408
 677,08; 8829,112;  269,598;41463,678;20,77851
 677,65; 8781,800;  260,059;41559,095;20,63424
 678,23; 8903,643;  264,598;41800,127;20,79917
 678,80; 8974,254;  243,675;41922,621;20,94722
 679,38; 9003,789;  248,829;41948,807;20,99512
 679,95; 9143,323;  255,136;42278,070;21,15080
 680,52; 9249,858;  258,906;42537,410;21,26601
 681,10; 9410,854;  262,675;42863,366;21,47425
 681,67; 9493,773;  270,521;43262,706;21,45332
 682,24; 9504,538;  238,137;43222,892;21,55741
 682,82; 9710,996;  249,598;43757,539;21,74637
 683,39; 9869,684;  292,367;44118,033;21,85321
 683,96; 9958,527;  257,983;44352,912;21,99923
 684,54;10091,446;  246,291;44660,329;22,16676
 685,11;10226,057;  285,137;45033,746;22,21504
 685,68;10291,207;  244,829;45380,317;22,25827
 686,25;10341,742;  239,829;45469,580;22,33466
 686,83;10483,584;  247,060;45696,612;22,52283
 687,40;10565,503;  238,291;46025,875;22,55461
 687,97;10708,807;  280,445;46428,754;22,59750
 688,55;10803,264;  239,522;46394,555;22,88752
 689,12;10854,876;  221,753;46729,357;22,86319
 689,69;10976,180;  231,214;46763,158;23,09159
 690,26;11029,945;  254,983;46817,114;23,14104
 690,84;11193,864;  240,983;47084,992;23,38160
 691,41;11229,783;  256,060;47226,948;23,36282
 691,98;11343,241;  255,984;47547,518;23,44449
 692,56;11396,622;  243,445;47570,012;23,56642
 693,13;11525,772;  301,061;47542,352;23,76038
 693,70;11629,075;  271,984;47797,000;23,89708
 694,27;11697,072;  252,753;47767,186;24,08598
 694,84;11787,606;  252,753;47924,295;24,19652
 695,42;11884,294;  284,292;48092,174;24,26379
 695,99;12070,675;  256,753;48253,745;24,61388
 696,56;11947,364;  244,599;48123,931;24,44220
 697,13;12226,898;  274,830;48425,579;24,82219
 697,71;12209,740;  237,830;48466,919;24,82301
 698,28;12346,198;  264,830;48842,874;24,87002
 698,85;12402,886;  210,600;48763,753;25,11122
 699,42;12521,498;  225,907;49067,631;25,17436
 699,99;12639,494;  261,292;49073,510;25,35882
 700,57;12694,259;  264,292;49103,080;25,45101
 701,14;12751,486;  254,138;49325,036;25,46794
 701,71;12811,636;  271,908;49544,991;25,44945
 702,28;12944,709;  256,754;49559,716;25,73467
 702,85;13010,782;  257,600;49723,517;25,78176
 703,43;13169,240;  269,215;49775,473;26,05736
 704,00;13254,620;  308,369;50054,659;26,02456
 704,57;13251,232;  265,600;50013,230;26,10302
 705,14;13370,074;  297,985;50434,878;26,07280
 705,71;13427,916;  306,062;50317,679;26,23761
 706,28;13467,143;  266,600;50194,173;26,43938
 706,86;13638,216;  296,216;50475,821;26,58849
 707,43;13667,597;  314,139;50428,699;26,64586
 708,00;13698,670;  298,754;50403,270;26,74393
 708,57;13789,820;  267,524;50375,225;26,98646
 709,14;13857,508;  298,293;50487,642;27,01612
 709,71;13939,274;  278,831;50616,752;27,13748
 710,28;14092,039;  276,601;50769,553;27,36112
 710,86;14172,420;  281,139;50862,509;27,46324
 711,43;14316,646;  302,985;50926,618;27,68205
 712,00;14397,027;  280,985;50977,419;27,84425
 712,57;14462,254;  281,370;51033,759;27,94131
 713,14;14550,635;  268,601;51229,484;28,02548
 713,71;14604,169;  269,909;51046,901;28,22983
 714,28;14746,627;  271,524;51170,933;28,43865
 714,85;14653,546;  254,447;50922,350;28,41858
 715,42;14833,311;  260,678;51102,460;28,66271
 716,00;14962,230;  316,370;51262,723;28,74761
 716,57;15059,457;  261,293;51408,524;28,93248
 717,14;14989,069;  254,294;51230,941;28,90495
 717,71;15140,373;  242,601;51354,127;29,14758
 718,28;15304,984;  285,986;51408,006;29,37873
 718,85;15349,749;  249,909;51506,807;29,45914
 719,42;15470,438;  269,448;51618,763;29,60310
 719,99;15437,511;  253,140;51404,795;29,68500
 720,56;15603,661;  265,371;51520,366;29,92545
 721,13;15756,964;  252,371;51787,860;30,08528
 721,70;15748,961;  249,525;51651,354;30,15347
 722,27;15840,572;  274,679;51660,925;30,29195
 722,84;16008,799;  310,756;51754,803;30,51479
 723,41;16048,872;  232,525;51856,066;30,63786
 723,98;16170,560;  264,448;52054,868;30,71246
 724,55;16272,941;  292,679;52153,439;30,81378
 725,12;16295,629;  216,217;52005,394;31,04782
 725,69;16477,779;  257,140;52219,272;31,21627
 726,27;16534,775;  257,525;52357,074;31,24259
 726,84;16730,925;  255,987;52597,952;31,47558
 727,41;16808,691;  272,602;52502,677;31,66009
 727,98;16995,379;  287,987;52885,940;31,76434
 728,55;16977,683;  298,371;52814,434;31,76040
 729,12;17109,679;  253,448;52960,928;31,98072
 729,69;17273,829;  280,064;52973,653;32,25016
 730,26;17442,825;  271,756;53207,762;32,43741
 730,82;17446,667;  263,295;53088,871;32,52851
 731,39;17605,048;  256,526;53189,057;32,77478
 731,96;17750,582;  250,372;53522,859;32,85037
 732,53;17911,809;  268,526;53787,430;32,96645
 733,10;18007,805;  270,218;53792,154;33,14078
 733,67;18080,263;  279,680;53982,417;33,14651
 734,24;18088,567;  269,449;53733,065;33,32943
 734,81;18172,947;  291,757;53798,251;33,41873
 735,38;18139,251;  274,218;53583,361;33,51214
 735,95;18170,709;  268,064;53532,778;33,61070
 736,52;18268,936;  297,603;53557,656;33,74261
 737,09;18256,163;  284,218;53334,611;33,87712
 737,66;18358,159;  314,757;53578,644;33,87549
 738,23;18555,847;  267,757;53597,368;34,29256
 738,80;18689,689;  322,065;53833,478;34,32469
 739,37;18771,762;  293,142;54041,279;34,38002
 739,94;18879,835;  281,757;53942,696;34,65850
 740,51;18979,524;  377,988;54110,729;34,61862
 741,07;19024,443;  273,296;54000,453;34,90069
 741,64;19084,516;  303,296;54186,947;34,85514
 742,21;19210,743;  272,065;54216,518;35,10774
 742,78;19243,893;  255,065;54108,858;35,25996
 743,35;19373,427;  270,296;54338,813;35,33134
 743,92;19560,885;  305,373;54499,615;35,53055
 744,49;19624,958;  283,527;54360,186;35,76669
 745,06;19679,262;  267,681;54364,372;35,88312
 745,63;19713,027;  250,604;54382,250;35,95387
 746,19;19799,177;  265,296;54464,360;36,04099
 746,76;19885,327;  272,142;54306,084;36,29790
 747,33;19943,400;  277,065;54334,501;36,38044
 747,90;20094,011;  278,065;54608,841;36,47278
 748,47;20221,930;  280,604;54377,258;36,86240
 749,04;20245,465;  281,681;54557,521;36,78208
 749,61;20355,307;  289,989;54406,554;37,07796
 750,17;20485,073;  279,758;54577,740;37,21191
 750,74;20484,530;  288,450;54354,926;37,35416
 751,31;20522,065;  260,143;54384,343;37,43597
 751,88;20545,215;  245,758;54195,452;37,62664
 752,45;20813,134;  265,527;54390,715;37,96311
 753,02;20771,745;  277,758;54151,978;38,04043
 753,58;20954,741;  268,297;54093,242;38,43282
 754,15;21070,430;  268,451;54235,043;38,54603
 754,72;20995,887;  265,143;54019,152;38,56595
 755,29;21089,960;  257,297;53811,108;38,90043
 755,86;21187,572;  283,912;54123,602;38,82574
 756,42;21275,876;  275,912;53781,403;39,24824
 756,99;21392,026;  244,297;53828,359;39,46645
 757,56;21408,483;  263,374;53923,160;39,40588
 758,13;21425,095;  219,374;53770,500;39,59902
 758,70;21621,475;  245,759;53860,148;39,86937
 759,26;21653,010;  233,836;53954,565;39,87134
 759,83;21753,314;  247,220;54011,982;40,00035
 760,40;21749,464;  224,297;53777,399;40,19406
 760,97;21808,767;  218,913;53793,893;40,29839
 761,53;21732,071;  205,682;53397,387;40,46945
 762,10;21788,837;  211,144;53468,188;40,51613
 762,67;21899,448;  243,759;53467,374;40,68812
 763,24;21724,136;  195,682;53005,176;40,76626
 763,80;21820,440;  234,913;53160,439;40,78472
 764,37;21870,744;  234,144;53022,010;40,98783
 764,94;21868,432;  210,759;52576,042;41,35884
 765,50;21823,352;  224,221;52683,536;41,17311
 766,07;22089,809;  269,759;52625,491;41,67652
 766,64;21949,882;  238,606;52424,908;41,60340
 767,21;21909,955;  233,529;52302,018;41,63060
 767,77;22066,874;  259,144;52195,742;41,98914
 768,34;22030,024;  270,683;52138,082;41,95187
 768,91;22096,559;  266,760;52028,807;42,17337
 769,47;22103,863;  251,144;51995,762;42,23187
 770,04;22214,397;  257,298;51769,256;42,62525
 770,61;22109,778;  240,529;51665,212;42,52676
 771,18;22184,620;  235,606;51534,782;42,78629
 771,74;22387,232;  257,991;51698,507;43,01909
 772,31;22251,843;  261,068;51484,232;42,93131
 772,88;22282,685;  230,837;51220,879;43,24736
 773,44;22193,989;  231,837;51145,681;43,13591
 774,01;22342,831;  253,683;51149,252;43,40093
 774,58;22337,750;  240,222;50907,515;43,61300
 775,14;22529,208;  238,068;51031,547;43,88583
 775,71;22494,589;  228,145;50928,118;43,91806
 776,27;22609,508;  288,068;50783,612;44,20477
 776,84;22686,889;  308,068;50934,106;44,20417
 777,41;22654,654;  248,914;50667,984;44,43902
 777,97;22532,188;  248,991;50343,555;44,48227
 778,54;22715,723;  251,453;50408,972;44,78744
 779,11;22672,873;  274,761;50474,158;44,61829
 779,67;22772,638;  242,068;50165,575;45,13018
 780,24;22704,019;  257,838;50133,915;45,00390
 780,80;22818,169;  273,607;50101,101;45,24523
 781,37;22833,242;  264,299;50086,980;45,29853
 781,94;22729,930;  253,376;49797,551;45,36669
 782,50;22886,696;  258,299;49856,968;45,62299
 783,07;23019,538;  278,376;49910,154;45,81976
 783,63;22959,842;  240,453;49566,878;46,05926
 784,20;22945,145;  270,838;49574,449;45,98914
 784,77;23010,218;  258,223;49323,712;46,37067
 785,33;22969,599;  234,453;49128,437;46,49886
 785,90;23076,288;  248,300;49069,623;46,75823
 786,46;23034,822;  284,761;49062,655;46,64010
 787,03;23055,203;  247,069;48944,842;46,83609
 787,59;23185,507;  252,992;48707,566;47,32786
 788,16;23232,503;  269,992;48647,137;47,46562
 788,73;23193,730;  258,915;48501,093;47,54100
 789,29;23153,341;  246,300;48215,817;47,75333
 789,86;23182,952;  269,531;48104,773;47,90071
 790,42;23160,179;  268,146;48012,959;47,94664
 790,99;23098,791;  272,608;47702,914;48,12573
 791,55;23109,248;  256,454;47772,485;48,09491
 792,12;23120,706;  271,839;47628,594;48,24838
 792,68;23048,394;  255,762;47306,857;48,44230
 793,25;23079,544;  265,608;47127,890;48,68294
 793,81;22956,694;  304,531;46737,537;48,78461
 794,38;22822,767;  231,070;46558,647;48,76512
 794,94;22913,994;  244,377;46368,987;49,14864
 795,51;22871,452;  271,762;46245,173;49,15817
 796,07;22805,371;  262,454;45894,359;49,40166
 796,64;23021,598;  273,608;46060,468;49,68235
 797,20;22814,132;  269,070;45523,578;49,81838
 797,77;22647,975;  241,685;45244,610;49,78852
 798,33;22660,586;  250,378;45137,104;49,92614
 798,90;22665,736;  288,224;45068,982;49,97127
 799,46;22479,501;  258,147;44610,092;50,10232
 800,03;22545,574;  265,455;44569,585;50,28903
 800,59;22466,647;  283,070;44394,233;50,29017
 801,15;22472,874;  273,532;44187,189;50,55225
 801,72;22325,101;  274,224;43833,452;50,62275
 802,28;22268,328;  288,301;43487,407;50,88074
 802,85;22242,016;  249,378;43292,055;51,09496
 803,41;22219,474;  255,994;43274,472;51,05592
 803,98;22119,547;  260,917;42855,196;51,31823
 804,54;22019,620;  255,532;42619,383;51,37420
 805,11;21953,001;  262,378;42306,569;51,59006
 805,67;21977,535;  282,840;42294,909;51,63920
 806,23;21762,608;  266,378;41889,172;51,64533
 806,80;21760,681;  289,148;41730,589;51,81174
 807,36;21796,600;  286,763;41696,775;51,94357
 807,93;21704,289;  298,609;41511,730;51,93899
 808,49;21590,746;  269,532;41013,455;52,32980
 809,05;21619,896;  238,763;40984,564;52,47445
 809,62;21571,431;  278,686;40913,443;52,40033
 810,18;21559,350;  280,763;40702,937;52,64088
 810,74;21433,269;  261,687;40483,431;52,63716
 811,31;21414,958;  259,610;40341,232;52,78067
 811,87;21384,723;  273,225;40124,803;52,97531
 812,44;21374,334;  288,917;40086,374;52,98182
 813,00;21322,254;  228,994;39814,945;53,28471
 813,56;21365,480;  272,456;39984,438;53,11501
 814,13;21371,784;  259,071;39753,163;53,45790
 814,69;21337,934;  265,841;39619,657;53,54523
 815,25;21121,546;  229,841;39284,535;53,49345
 815,82;21224,003;  270,687;39224,645;53,78995
 816,38;21164,999;  281,379;39040,908;53,87996
 816,94;21077,842;  238,302;38741,325;54,12442
 817,51;21000,684;  232,841;38578,203;54,15999
 818,07;20986,834;  241,610;38295,312;54,51565
 818,63;20940,907;  272,841;38058,576;54,69806
 819,20;20847,134;  256,918;38115,531;54,38714
 819,76;20799,130;  240,687;37663,333;54,93583
 820,32;20754,818;  280,995;37572,903;54,90152
 820,89;20678,122;  268,687;37417,320;54,93993
 821,45;20661,041;  242,611;37063,583;55,45326
 822,01;20545,191;  268,841;36843,770;55,43784
 822,57;20523,264;  267,688;36750,110;55,52147
 823,14;20448,645;  230,918;36528,988;55,69918
 823,70;20388,795;  243,995;36245,713;55,95511
 824,26;20352,329;  243,380;36012,361;56,21896
 824,82;20332,941;  267,380;35928,162;56,26786
 825,39;20217,014;  247,688;35744,271;56,25704
 825,95;20305,856;  271,688;35715,688;56,52344
 826,51;20202,390;  261,226;35295,259;56,91941
 827,08;20173,848;  304,226;35264,676;56,83457
 827,64;20151,306;  275,380;35174,939;56,95180
 828,20;20073,609;  250,073;34862,433;57,27300
 828,76;20062,913;  266,765;34910,927;57,14137
 829,32;20103,371;  282,919;34701,959;57,58572
 829,89;20046,675;  230,919;34652,068;57,56855
 830,45;20108,286;  255,919;34603,793;57,79795
 831,01;20060,282;  252,227;34279,364;58,21252
 831,57;20142,740;  252,996;34293,704;58,42929
 832,14;20208,428;  240,919;34279,121;58,66206
 832,70;20130,347;  242,304;34071,846;58,78898
 833,26;20183,266;  218,842;33973,263;59,14610
 833,82;20154,186;  252,689;33848,449;59,23812
 834,38;20206,951;  243,381;33890,096;59,33289
 834,95;20160,793;  236,381;33812,898;59,34032
 835,51;20183,097;  216,612;33580,700;59,84424
 836,07;20270,324;  247,766;33630,886;59,97809
 836,63;20402,705;  259,843;33640,995;60,34202
 837,19;20352,701;  252,304;33555,258;60,35620
 837,75;20201,081;  213,843;33196,906;60,59849
 838,32;20346,077;  263,997;33413,630;60,58010
 838,88;20425,227;  267,535;33359,970;60,91329
 839,44;20432,147;  244,228;33232,618;61,19704
 840,00;20522,912;  244,458;33178,804;61,57236
 840,56;20362,369;  235,151;32889,760;61,63669
 841,12;20314,827;  235,305;32808,484;61,64434
 841,68;20277,669;  237,997;32550,440;62,01844
 842,25;20364,819;  230,382;32734,857;61,94359
 842,81;20241,585;  233,305;32439,581;62,12540
 843,37;20299,888;  219,151;32435,152;62,33156
 843,93;20164,577;  242,997;32323,646;62,09843
 844,49;20406,034;  255,920;32425,140;62,63787
 845,05;20218,107;  218,228;32255,018;62,42785
 845,61;20357,027;  255,074;32239,435;62,84932
 846,17;20150,715;  232,690;32052,852;62,59561
 846,73;20241,249;  242,767;32043,116;62,88762
 847,29;20140,938;  212,921;31910,609;62,86899
 847,86;20065,703;  224,998;31750,872;62,93467
 848,42;20160,776;  224,690;31668,443;63,40237
 848,98;20141,311;  247,152;31625,860;63,40018
 849,54;20201,461;  236,767;31613,508;63,62896
 850,10;20103,534;  239,152;31439,233;63,66773
 850,66;20063,222;  228,152;31345,957;63,74187
 851,22;20079,910;  213,229;31255,528;63,99874
 851,78;20107,060;  260,536;31354,330;63,82793
 852,34;20005,595;  247,075;31051,593;64,14163
 852,90;19944,976;  229,306;31009,087;64,05396
 853,46;20001,433;  226,152;30673,119;64,94992
 854,02;20029,968;  240,152;30772,997;64,81484
 854,58;19880,733;  238,306;30519,645;64,86644
 855,14;19932,422;  219,383;30443,754;65,22233
 855,70;19880,802;  205,306;30371,633;65,22337
 856,26;19882,029;  253,075;30287,358;65,35516
 856,82;19877,794;  229,998;30126,698;65,71895
 857,38;19897,867;  250,768;29999,576;66,04332
 857,94;19893,325;  226,383;29928,531;66,21387
 858,50;19904,937;  239,845;29747,333;66,64441
 859,06;19775,702;  220,691;29543,058;66,68974
 859,62;19773,083;  242,768;29625,167;66,46943
 860,18;19812,463;  236,922;29430,276;67,05479
 860,74;19769,767;  205,614;29193,539;67,49070
 861,30;19688,148;  205,768;29092,341;67,44441
 861,86;19826,144;  262,537;29095,373;67,85183
 862,42;19775,140;  234,460;28903,329;68,15993
 862,98;19885,367;  257,153;28992,438;68,30701
 863,54;19790,363;  233,230;28736,009;68,61483
 864,10;19844,359;  238,307;28750,272;68,76430
 864,66;19649,201;  215,076;28470,150;68,78101
 865,22;19662,043;  227,615;28394,798;68,99671
 865,78;19690,270;  239,153;28323,369;69,25996
 866,34;19801,343;  224,922;28208,401;69,95707
 866,90;19781,032;  240,692;28124,433;70,07790
 867,45;19646,566;  244,922;27905,235;70,14253
 868,01;19602,101;  237,615;27718,729;70,46470
 868,57;19479,635;  234,615;27588,530;70,35563
 869,13;19381,554;  222,769;27505,717;70,22256
 869,69;19401,397;  235,307;27372,672;70,62620
 870,25;19327,624;  217,153;27262,474;70,66091
 870,81;19335,773;  234,461;27272,660;70,64565
 871,37;19322,154;  237,615;27089,769;71,07266
 871,93;19271,304;  248,077;27011,801;71,07840
 872,49;19217,377;  252,000;26799,295;71,43996
 873,04;19103,296;  224,308;26635,405;71,48127
 873,60;19091,677;  228,846;26498,360;71,80502
 874,16;19159,673;  235,000;26440,238;72,21714
 874,72;19112,288;  214,846;26402,777;72,16088
 875,28;19047,212;  234,615;26296,777;72,18356
 875,84;19088,673;  239,308;26226,238;72,53402
 876,40;19192,596;  225,077;26142,085;73,18561
 876,95;19156,442;  238,692;26137,777;73,04409
 877,51;19241,519;  265,923;26180,085;73,22481
 878,07;19296,365;  255,000;26120,085;73,61803
 878,63;19336,442;  237,846;26144,008;73,72222
 879,19;19436,365;  246,923;26086,469;74,26385
 879,75;19452,442;  230,231;26082,854;74,35304
 880,30;19480,750;  232,231;26160,546;74,23745
 880,86;19670,904;  270,385;26217,854;74,76844
 881,42;19676,058;  218,923;26193,931;74,90714
 881,98;19821,442;  249,538;26328,315;75,04916
 882,54;19897,827;  238,692;26478,469;74,92112
 883,09;20070,827;  235,385;26570,546;75,31924
 883,65;20138,596;  221,231;26572,085;75,58528
 884,21;20390,904;  251,846;26796,777;75,86781
 884,77;20423,596;  237,385;26880,546;75,76508
 885,32;20607,596;  234,692;27073,238;75,90912
 885,88;20803,288;  265,538;27169,238;76,33801
 886,44;20968,135;  245,462;27241,162;76,76287
 887,00;20958,212;  254,231;27225,238;76,76384
 887,56;21142,750;  237,154;27446,546;76,83228
 888,11;21222,365;  234,462;27362,700;77,36552
 888,67;21315,673;  266,846;27597,085;77,01662
 889,23;21396,904;  251,308;27608,315;77,29499
 889,79;21372,058;  227,077;27417,777;77,76549
 890,34;21396,673;  244,231;27463,162;77,71225
 890,90;21569,365;  299,462;27543,854;78,07076
 891,46;21523,442;  227,154;27400,008;78,37340
 892,01;21520,519;  256,154;27402,392;78,33264
 892,57;21599,827;  263,615;27359,700;78,74278
 893,13;21526,212;  255,615;27207,315;78,92117
 893,69;21541,135;  233,769;27141,777;79,18596
 894,24;21562,827;  238,231;27038,008;79,57005
 894,80;21490,750;  243,846;26960,700;79,52622
 895,36;21346,288;  245,231;26807,931;79,43868
 895,91;21228,058;  235,538;26657,700;79,45042
 896,47;21228,596;  261,462;26510,392;79,87805
 897,03;21090,750;  226,462;26285,315;80,06603
 897,58;21129,904;  247,308;26221,392;80,39781
 898,14;20988,827;  246,923;26019,315;80,48110
 898,70;20943,288;  219,462;25972,546;80,47124
 899,25;21083,827;  232,000;25878,238;81,30560
 899,81;20910,673;  252,231;25715,854;81,12923
 900,37;20722,212;  214,846;25516,546;81,05133
 900,92;20829,750;  228,615;25566,085;81,30699
 901,48;20621,365;  239,692;25381,238;81,06770
 902,03;20559,365;  226,154;25245,777;81,26906
 902,59;20524,212;  228,769;25173,085;81,36300
 903,15;20497,212;  261,385;24992,392;81,82371
 903,70;20220,904;  233,615;24746,777;81,53697
 904,26;20273,365;  224,692;24661,777;82,04200
 904,82;20277,981;  236,615;24542,392;82,45515
 905,37;20113,212;  239,846;24506,623;81,89536
 905,93;20101,519;  222,846;24279,931;82,63126
 906,48;20101,442;  246,462;24322,238;82,46870
 907,04;20094,058;  253,462;24202,085;82,84650
 907,60;19925,288;  227,462;23944,392;83,05386
 908,15;19878,135;  216,077;23927,777;82,92133
 908,71;19887,519;  250,846;23870,546;83,13684
 909,26;19790,135;  224,000;23723,777;83,26094
 909,82;19740,135;  246,385;23658,392;83,26390
 910,37;19740,673;  271,769;23523,162;83,73221
 910,93;19622,058;  225,615;23346,546;83,89127
 911,48;19598,981;  222,385;23146,469;84,52506
 912,04;19503,212;  213,154;23077,854;84,36611
 912,60;19628,596;  247,538;23123,931;84,72078
 913,15;19506,981;  233,385;22918,085;84,96298
 913,71;19402,981;  222,077;22736,546;85,19368
 914,26;19389,750;  212,846;22633,162;85,53360
 914,82;19374,135;  240,308;22603,854;85,55811
 915,37;19281,519;  227,077;22548,623;85,36345
 915,93;19266,135;  273,462;22425,854;85,73644
 916,48;19255,288;  217,615;22260,469;86,36664
 917,04;19161,981;  247,231;22212,546;86,11190
 917,59;19143,673;  253,923;22144,392;86,29212
 918,15;19039,827;  208,308;21948,546;86,62057
 918,70;18955,904;  227,077;21835,623;86,67324
 919,26;18953,442;  231,923;21772,315;86,91355
 919,81;18849,904;  210,308;21575,777;87,24169
 920,37;18920,981;  225,154;21543,469;87,69843
 920,92;18822,519;  247,692;21399,777;87,81559
 921,48;18722,827;  208,846;21194,085;88,22383
 922,03;18750,135;  228,462;21221,931;88,22588
 922,59;18641,135;  227,385;21087,931;88,27070
 923,14;18592,058;  220,846;20992,854;88,44216
 923,69;18596,981;  247,846;20867,238;88,98970
 924,25;18628,827;  240,462;20937,546;88,84520
 924,80;18458,212;  226,077;20694,238;89,07558
 925,36;18391,365;  224,692;20585,085;89,22556
 925,91;18268,827;  229,077;20444,469;89,23769
 926,47;18281,135;  204,385;20403,162;89,49428
 927,02;18255,135;  274,769;20326,777;89,66865
 927,57;18137,596;  220,385;20187,085;89,73547
 928,13;18113,596;  219,846;20120,469;89,91553
 928,68;18071,288;  235,308;20018,238;90,15843
 929,24;17929,058;  204,308;19838,623;90,27435
 929,79;17859,981;  216,154;19740,931;90,36634
 930,34;17794,673;  232,231;19633,238;90,52335
 930,90;17750,058;  216,308;19599,008;90,46082
 931,45;17757,904;  241,077;19486,623;91,01756
 932,01;17759,596;  231,846;19449,162;91,20811
 932,56;17603,212;  246,077;19280,700;91,18717
 933,11;17709,981;  252,385;19323,854;91,53776
 933,67;17416,904;  221,769;19088,085;91,14199
 934,22;17450,365;  231,615;19050,546;91,49696
 934,77;17344,750;  251,692;18906,700;91,62718
 935,33;17257,212;  230,308;18791,777;91,73252
 935,88;17212,981;  245,077;18811,546;91,39004
 936,43;17196,288;  224,154;18653,392;92,09352
 936,99;17130,288;  234,615;18521,623;92,39168
 937,54;17033,442;  211,462;18394,546;92,51445
 938,09;17048,288;  241,846;18355,623;92,78265
 938,65;16944,288;  235,538;18186,700;93,07894
 939,20;16956,519;  219,000;18138,238;93,40530
 939,75;16795,058;  219,615;18080,854;92,80119
 940,31;16777,981;  199,308;17964,623;93,32045
 940,86;16781,212;  233,308;17939,085;93,46048
 941,41;16766,212;  288,385;17839,315;93,88577
 941,96;16735,135;  220,154;17704,700;94,45473
 942,52;16662,442;  225,538;17660,469;94,27570
 943,07;16537,596;  208,308;17474,162;94,57562
 943,62;16552,058;  214,308;17405,008;95,03831
 944,18;16519,519;  197,154;17344,162;95,19075
 944,73;16416,058;  230,231;17280,238;94,93149
 945,28;16298,673;  196,385;17055,623;95,51018
 945,83;16306,365;  224,692;17079,623;95,41228
 946,39;16353,904;  209,385;17108,392;95,53531
 946,94;16340,135;  235,000;16976,931;96,19640
 947,49;16200,750;  221,923;16886,238;95,88649
 948,04;16195,212;  244,538;16820,008;96,23060
 948,59;16190,596;  242,615;16741,085;96,66340
 949,15;16110,750;  212,462;16679,777;96,54451
 949,70;16018,596;  213,154;16585,085;96,53988
 950,25;15984,442;  237,231;16530,777;96,64693
 950,80;15903,673;  192,308;16413,777;96,85538
 951,36;15881,673;  200,000;16316,238;97,30356
 951,91;15943,519;  244,385;16268,546;97,97164
 952,46;15797,673;  200,231;16044,315;98,44332
 953,01;15844,827;  241,846;16161,238;98,01241
 953,56;15720,827;  199,846;15988,238;98,30628
 954,11;15672,673;  233,000;16026,623;97,75891
 954,67;15680,750;  218,077;15899,777;98,60330
 955,22;15531,519;  205,615;15739,700;98,65985
 955,77;15539,212;  242,462;15793,008;98,36793
 956,32;15474,750;  272,231;15637,777;98,93901
 956,87;15320,135;  218,385;15552,931;98,48188
 957,42;15360,288;  221,923;15427,777;99,55617
 957,98;15277,596;  220,308;15392,315;99,24388
 958,53;15257,365;  244,538;15321,315;99,57584
 959,08;15138,365;  211,692;15129,085;100,06221
 959,63;15042,827;  200,154;15101,162;99,60852
 960,18;15032,058;  235,000;15038,315;99,95773
 960,73;15079,981;  225,462;14981,315;100,66865
 961,28;15042,596;  207,615;14890,238;101,03767
 961,83;15050,904;  241,538;14894,546;101,06707
 962,39;14951,673;  202,462;14700,546;101,73214
 962,94;14847,981;  241,077;14641,469;101,43407
 963,49;14748,288;  216,385;14574,777;101,20843
 964,04;14752,442;  232,692;14528,469;101,56671
 964,59;14680,596;  201,308;14407,854;101,91984
 965,14;14678,058;  240,154;14360,162;102,25139
 965,69;14561,750;  227,462;14263,623;102,12399
 966,24;14483,288;  211,692;14145,777;102,42220
 966,79;14446,058;  233,615;14038,469;102,95250
 967,34;14351,750;  202,538;13950,008;102,92230
 967,89;14364,212;  209,923;13874,008;103,58754
 968,44;14288,750;  220,769;13830,238;103,36906
 968,99;14198,904;  230,769;13800,700;102,93446
 969,55;14132,596;  234,077;13729,931;102,98362
 970,10;14110,058;  229,000;13630,315;103,57982
 970,65;14045,365;  246,769;13498,162;104,12941
 971,20;13970,212;  211,154;13438,623;104,01882
 971,75;13859,519;  205,077;13323,392;104,08686
 972,30;13770,827;  225,231;13222,777;104,21657
 972,85;13691,750;  207,769;13143,392;104,23913
 973,40;13607,750;  208,077;13015,315;104,62578
 973,95;13619,596;  227,154;13021,546;104,67431
 974,50;13540,750;  234,846;12928,700;104,82162
 975,05;13434,750;  221,769;12875,931;104,41609
 975,60;13445,212;  238,692;12806,315;105,08367
 976,15;13291,981;  218,846;12677,238;104,93436
 976,70;13336,288;  230,231;12611,392;105,85483
 977,25;13190,827;  226,846;12553,777;105,16795
 977,80;13114,212;  218,769;12395,392;105,90327
 978,35;13032,827;  233,462;12258,315;106,44092
 978,89;12933,365;  208,538;12201,623;106,10137
 979,44;12951,673;  234,769;12142,315;106,79701
 979,99;12809,827;  211,923;11950,469;107,32082
 980,54;12781,442;  258,077;11955,085;107,06469
 981,09;12673,904;  243,000;11844,162;107,15223
 981,64;12575,288;  238,308;11658,315;108,02953
 982,19;12632,212;  272,538;11627,854;108,84482
 982,74;12462,288;  240,923;11550,162;108,06533
 983,29;12390,673;  211,538;11407,854;108,77806
 983,84;12310,519;  235,154;11302,700;109,10608
 984,39;12228,827;  279,077;11285,777;108,56796
 984,94;12139,827;  211,077;11122,700;109,32150
 985,49;12101,904;  251,154;11113,392;109,10044
 986,03;12044,442;  247,000;11012,238;109,58830
 986,58;11917,442;  271,692;10888,777;109,68877
 987,13;11778,058;  239,385;10733,315;109,95568
 987,68;11674,827;  236,923;10609,777;110,26767
 988,23;11630,596;  243,231;10575,854;110,20789
 988,78;11542,904;  226,615;10471,546;110,45744
 989,33;11472,673;  242,923;10415,700;110,39021
 989,88;11378,827;  261,308;10353,315;110,16162
 990,42;11292,365;  231,538;10164,392;111,35598
 990,97;11211,750;  221,385;10070,700;111,58507
 991,52;11145,442;  247,692;10075,315;110,88897
 992,07;11033,288;  260,615; 9953,777;111,13684
 992,62;10962,519;  243,846; 9853,854;111,53657
 993,17;10874,519;  247,769; 9746,238;111,87855
 993,71;10776,058;  243,769; 9647,469;112,00154
 994,26;10630,135;  215,385; 9519,777;111,93369
 994,81;10647,596;  251,769; 9474,700;112,71717
 995,36;10474,750;  230,923; 9357,623;112,24021
 995,91;10401,058;  241,385; 9275,700;112,45648
 996,45;10346,827;  236,000; 9172,315;113,14313
 997,00;10190,673;  209,077; 9043,238;112,98861
 997,55;10205,673;  240,769; 9003,854;113,71457
 998,10;10088,365;  263,769; 8884,700;113,96213
 998,65;10026,058;  234,923; 8792,162;114,41933
 999,19; 9966,288;  260,846; 8694,931;115,07404
 999,74; 9823,288;  263,000; 8599,931;114,67396
1000,29; 9756,519;  248,308; 8570,546;114,25065
1000,84; 9587,750;  230,923; 8426,162;114,17394
1001,38; 9489,365;  239,538; 8338,008;114,21698
1001,93; 9446,827;  251,308; 8267,085;114,71775
1002,48; 9337,288;  222,462; 8080,315;115,99639
1003,03; 9322,596;  240,308; 8108,623;115,42863
1003,57; 9231,827;  248,077; 8002,854;115,84795
1004,12; 9157,673;  263,231; 7947,162;115,75381
1004,67; 9083,673;  232,769; 7803,546;116,90879
1005,22; 8914,750;  215,615; 7653,777;116,95275
1005,76; 8822,596;  215,615; 7521,623;117,80689
1006,31; 8744,827;  257,077; 7516,315;116,92342
1006,86; 8592,442;  227,692; 7404,085;116,55926
1007,40; 8481,750;  210,538; 7266,700;117,21970
1007,95; 8405,365;  237,385; 7181,238;117,62893
1008,50; 8230,596;  232,538; 7069,392;116,98448
1009,04; 8190,519;  245,692; 7044,008;116,86464
1009,59; 8009,212;  256,000; 6894,238;116,79622
1010,14; 7941,058;  225,000; 6764,777;117,98656
1010,68; 7828,904;  232,000; 6654,546;118,28492
1011,23; 7731,981;  219,154; 6594,238;117,84670
1011,78; 7657,365;  245,077; 6509,777;118,31833
1012,32; 7523,673;  242,769; 6404,623;118,16093
1012,87; 7538,058;  252,231; 6356,700;119,35234
1013,42; 7362,058;  222,077; 6255,085;118,34861
1013,96; 7437,519;  254,077; 6277,546;119,25756
1014,51; 7337,365;  195,385; 6130,546;120,33338
1015,06; 7346,904;  209,692; 6177,008;119,60507
1015,60; 7445,442;  285,385; 6213,085;120,78981
1016,15; 7397,135;  227,231; 6184,623;120,35306
1016,69; 7430,288;  242,154; 6201,777;120,61391
1017,24; 7463,365;  216,462; 6206,085;120,99098
1017,79; 7536,288;  253,308; 6275,315;120,93941
1018,33; 7562,981;  222,462; 6263,162;121,51769
1018,88; 7651,058;  246,538; 6325,008;121,81553
1019,42; 7676,058;  229,077; 6319,777;122,26806
1019,97; 7652,673;  221,538; 6344,546;121,36412
1020,51; 7758,288;  245,769; 6384,931;122,37044
1021,06; 7761,981;  220,692; 6308,008;123,88529
1021,61; 7716,596;  205,231; 6305,546;123,13077
1022,15; 7711,212;  195,538; 6273,008;123,66452
1022,70; 7731,442;  229,846; 6280,623;123,97740
1023,24; 7687,827;  211,923; 6214,700;124,54076
1023,79; 7616,288;  229,923; 6210,469;123,50654
1024,33; 7583,365;  223,692; 6147,085;124,24760
1024,88; 7482,212;  235,385; 6041,315;124,81766
1025,42; 7356,827;  228,231; 5945,238;124,69104
1025,97; 7264,904;  228,077; 5875,469;124,60312
1026,51; 7145,596;  190,538; 5764,085;124,78694
1027,06; 7055,288;  225,154; 5705,085;124,63907
1027,60; 6935,135;  232,231; 5607,623;124,69609
1028,15; 6894,827;  239,231; 5557,854;125,13758
1028,69; 6755,981;  195,385; 5436,392;125,17814
1029,24; 6688,365;  214,000; 5380,623;125,31135
1029,78; 6578,827;  214,077; 5279,238;125,65739
1030,33; 6452,673;  192,615; 5191,008;125,24142
1030,87; 6391,519;  230,538; 5133,315;125,66309
1031,42; 6253,288;  204,692; 5054,700;124,71312
1031,96; 6203,058;  226,308; 4975,008;125,86076
1032,51; 6140,135;  213,538; 4874,008;127,16737
1033,05; 6037,135;  219,462; 4845,392;125,76222
1033,60; 5932,212;  192,615; 4727,238;126,57273
1034,14; 5845,673;  208,385; 4673,546;126,25049
1034,69; 5796,365;  217,923; 4597,469;127,37489
1035,23; 5717,827;  221,154; 4559,085;126,71187
1035,77; 5634,442;  218,231; 4518,469;125,95142
1036,32; 5554,519;  192,308; 4423,469;126,73143
1036,86; 5483,904;  221,769; 4368,700;126,89227
1037,41; 5450,981;  228,923; 4288,238;128,64380
1037,95; 5367,981;  199,462; 4246,623;127,70726
1038,50; 5298,442;  212,077; 4158,238;128,89400
1039,04; 5266,442;  229,846; 4140,085;128,80535
1039,58; 5207,904;  210,615; 4031,469;130,78984
1040,13; 5157,519;  230,231; 3986,315;131,18151
1040,67; 5112,212;  254,846; 4011,854;129,28814
1041,21; 5023,212;  241,923; 3924,315;129,84191
1041,76; 4913,673;  202,538; 3810,392;130,57997
1042,30; 4840,981;  220,000; 3806,700;128,83656
1042,85; 4802,673;  220,385; 3697,546;131,78244
1043,39; 4742,904;  212,154; 3680,162;130,64417
1043,93; 4668,058;  242,769; 3638,238;130,32922
1044,48; 4599,673;  230,846; 3574,931;130,64343
1045,02; 4558,288;  217,692; 3498,623;132,29771
1045,56; 4514,981;  245,231; 3499,392;131,20891
1046,11; 4467,673;  223,615; 3456,854;131,26337
1046,65; 4395,673;  226,308; 3389,238;131,81969
1047,19; 4324,673;  219,308; 3301,931;133,17766
1047,74; 4236,750;  209,231; 3273,623;131,42962
1048,28; 4193,827;  223,154; 3233,008;131,92245
1048,82; 4161,596;  249,231; 3230,469;131,23289
1049,37; 4092,981;  237,000; 3152,777;132,24540
1049,91; 4043,135;  219,000; 3104,777;132,51664
1050,45; 4013,135;  241,538; 3113,008;131,34726
1050,99; 3945,135;  218,769; 3041,315;132,02142
1051,54; 3875,904;  217,769; 2970,777;132,87775
1052,08; 3845,212;  246,615; 2950,623;133,08380
1052,62; 3816,058;  235,923; 2906,777;134,04457
1053,16; 3754,212;  213,462; 2842,008;134,70374
1053,71; 3716,442;  222,769; 2851,085;132,92442
1054,25; 3643,981;  225,000; 2780,315;133,79878
1054,79; 3632,519;  231,385; 2743,623;135,38263
1055,33; 3540,596;  206,538; 2673,392;135,15425
1055,88; 3515,365;  238,308; 2671,623;134,67460
1056,42; 3475,288;  245,077; 2661,623;133,67059
1056,96; 3427,981;  234,308; 2607,931;134,54845
1057,50; 3395,058;  229,538; 2554,931;136,12840
1058,05; 3324,750;  234,769; 2524,469;134,95134
1058,59; 3294,596;  249,231; 2500,392;135,27974
1059,13; 3207,365;  214,077; 2420,162;135,68330
1059,67; 3181,212;  228,538; 2431,623;134,02450
1060,21; 3134,596;  228,538; 2343,546;137,40176
1060,76; 3103,673;  241,769; 2354,931;135,43233
1061,30; 3083,596;  250,231; 2311,700;137,44398
1061,84; 2988,827;  218,923; 2284,469;134,10031
1062,38; 2940,596;  213,538; 2219,085;135,97581
1062,92; 2944,135;  270,692; 2244,931;135,41638
1063,46; 2886,596;  254,154; 2172,392;137,23228
1064,01; 2868,365;  232,769; 2151,085;137,39118
1064,55; 2821,827;  237,923; 2116,315;137,55933
1065,09; 2750,442;  210,308; 2061,623;137,20702
1065,63; 2780,442;  253,692; 2083,008;138,12544
1066,17; 2757,750;  258,308; 2062,854;138,50808
1066,71; 2690,288;  254,846; 2018,777;138,06904
1067,25; 2636,750;  241,923; 1979,162;137,85252
1067,80; 2628,596;  243,615; 1971,392;138,03754
1068,34; 2620,596;  254,923; 1962,238;138,56099
1068,88; 2542,135;  227,769; 1913,854;137,26271
1069,42; 2538,596;  266,923; 1930,469;136,55606
1069,96; 2461,135;  234,154; 1873,085;135,88010
1070,50; 2492,442;  269,231; 1887,931;137,34550
1071,04; 2411,673;  224,846; 1808,700;138,06999
1071,58; 2403,212;  224,538; 1798,777;138,39537
1072,12; 2359,212;  234,077; 1800,008;135,71064
1072,66; 2335,212;  236,154; 1769,008;136,93789
1073,21; 2329,442;  259,846; 1760,931;137,87338
1073,75; 2278,212;  236,692; 1754,238;134,52765
1074,29; 2268,596;  248,077; 1706,854;138,50776
1074,83; 2260,365;  258,615; 1711,469;137,78055
1075,37; 2217,596;  254,923; 1671,546;138,54589
1075,91; 2170,365;  254,154; 1649,623;137,31665
1076,45; 2143,519;  244,000; 1636,392;136,42127
1076,99; 2131,212;  251,077; 1618,700;137,47462
1077,53; 2092,058;  234,154; 1581,085;137,93611
1078,07; 2063,288;  246,077; 1586,777;135,54200
1078,61; 2053,827;  233,923; 1538,931;139,45541
1079,15; 2024,288;  239,615; 1518,546;139,54415
1079,69; 1996,827;  251,769; 1502,777;139,49216
1080,23; 1996,442;  256,846; 1526,162;137,04995
1080,77; 1990,596;  271,846; 1518,931;137,82144
1081,31; 1928,288;  236,077; 1457,162;138,58266
1081,85; 1930,981;  248,000; 1442,623;140,87965
1082,39; 1902,750;  238,846; 1421,546;140,68689
1082,93; 1913,519;  245,615; 1414,162;142,73325
1083,47; 1847,288;  225,615; 1391,931;139,04241
1084,01; 1856,596;  245,462; 1414,931;137,76631
1084,55; 1785,519;  240,846; 1370,085;136,78892
1085,09; 1795,135;  261,000; 1385,469;136,43189
1085,63; 1773,288;  251,692; 1340,777;139,71331
1086,17; 1750,288;  230,231; 1314,700;140,16605
1086,71; 1725,212;  237,231; 1303,392;139,56429
1087,24; 1752,596;  265,615; 1305,700;142,96729
1087,78; 1725,904;  255,462; 1288,700;142,31393
1088,32; 1657,904;  235,538; 1232,085;142,72950
1088,86; 1691,135;  256,000; 1265,085;142,22143
1089,40; 1643,827;  245,692; 1235,238;141,29049
1089,94; 1625,750;  211,000; 1202,469;142,69227
1090,48; 1607,212;  243,308; 1206,777;141,56174
1091,02; 1597,135;  249,923; 1196,777;142,28295
1091,56; 1587,058;  244,769; 1180,392;143,46466
1092,10; 1543,519;  225,846; 1148,546;142,80623
1092,63; 1554,750;  258,231; 1172,777;141,76641
1093,17; 1538,212;  249,231; 1161,392;141,31058
1093,71; 1490,519;  235,769; 1123,162;141,39744
1094,25; 1508,442;  261,462; 1121,315;145,02241
1094,79; 1456,596;  248,154; 1093,392;142,97058
1095,33; 1449,827;  237,462; 1096,008;141,21144
1095,87; 1453,365;  251,077; 1097,469;142,04860
1096,40; 1397,673;  232,923; 1044,315;143,54955
1096,94; 1411,673;  246,000; 1058,546;143,45931
1097,48; 1400,212;  243,154; 1053,162;142,84527
1098,02; 1354,288;  238,923; 1019,777;142,83920
1098,56; 1317,904;  219,154;  994,931;141,63221
1099,10; 1304,212;  216,538;  992,085;140,24608
1099,63; 1314,827;  224,769;  983,623;143,64527
1100,17; 1315,596;  249,231;  987,854;144,37206
1100,71; 1302,365;  263,308;  991,777;142,63577

