
Integration time [ms]: 120,000
Averaging Nr. [scans]: 13
Smoothing Nr. [pixels]: 0
Data measured with spectrometer [name]: 2009305U1
Wave   ;Sample   ;Dark     ;Reference;Reflectance
[nm]   ;[counts] ;[counts] ;[counts] ;[%]

 175,72;  200,255;  198,566;  203,486;34,32255
 176,32;  221,007;  219,407;  208,673; 0,00000
 176,92;  249,242;  225,488;  238,333;184,92242
 177,52;  258,712;  249,642;  262,106;72,76767
 178,12;  223,227;  222,099;  228,158;18,61181
 178,72;  262,953;  259,021;  245,677; 0,00000
 179,32;  254,064;  244,330;  240,398; 0,00000
 179,92;  244,902;  240,255;  252,059;39,36256
 180,52;  247,509;  231,723;  249,371;89,44819
 181,12;  241,917;  239,332;  250,633;22,87473
 181,73;  273,649;  258,641;  266,350;194,66936
 182,33;  323,374;  284,028;  295,841;333,07859
 182,93;  255,401;  254,488;  255,469; 0,00000
 183,53;  230,938;  227,174;  226,551; 0,00000
 184,13;  233,431;  237,636;  225,468; 0,00000
 184,73;  265,525;  249,327;  254,503;312,95289
 185,33;  265,539;  226,295;  344,225;33,27732
 185,93;  286,260;  240,752;  352,455;40,74037
 186,53;  291,924;  255,370;  364,379;33,53337
 187,13;  318,139;  264,836;  412,009;36,21792
 187,73;  276,533;  232,522;  362,733;33,79998
 188,33;  276,020;  233,135;  381,478;28,90912
 188,93;  285,959;  240,205;  374,876;33,97468
 189,53;  296,025;  250,277;  378,185;35,76653
 190,13;  317,028;  273,960;  414,815;30,57641
 190,73;  258,563;  215,428;  353,059;31,34146
 191,34;  292,990;  259,511;  384,128;26,86615
 191,94;  258,788;  225,133;  350,519;26,84100
 192,54;  300,807;  248,608;  384,313;38,46508
 193,14;  297,949;  260,220;  390,699;28,91589
 193,74;  291,553;  241,065;  380,441;36,22384
 194,34;  293,412;  239,375;  385,056;37,09260
 194,94;  257,407;  207,681;  342,061;37,00416
 195,54;  242,047;  204,833;  332,974;29,04113
 196,14;  270,603;  217,529;  369,402;34,94645
 196,74;  271,046;  215,678;  347,155;42,11184
 197,34;  245,557;  195,224;  346,549;33,26157
 197,94;  280,797;  229,220;  373,581;35,72786
 198,54;  271,968;  229,683;  379,896;28,14989
 199,14;  271,059;  212,610;  390,008;32,94780
 199,74;  253,754;  198,457;  379,646;30,51940
 200,34;  258,238;  197,842;  390,264;31,38738
 200,94;  297,953;  225,377;  428,974;35,64698
 201,54;  275,087;  216,302;  441,608;26,09134
 202,14;  302,727;  216,227;  462,095;35,18140
 202,74;  289,380;  208,610;  486,930;29,02059
 203,34;  284,974;  196,768;  509,732;28,18411
 203,94;  252,743;  176,997;  522,669;21,91268
 204,54;  346,138;  236,374;  596,561;30,47399
 205,14;  322,654;  198,764;  609,579;30,15715
 205,74;  372,506;  233,383;  705,303;29,48025
 206,34;  337,396;  202,304;  730,183;25,59151
 206,94;  362,217;  217,842;  803,772;24,64030
 207,54;  350,330;  188,535;  818,775;25,67198
 208,14;  379,563;  203,382;  928,042;24,31227
 208,74;  408,742;  204,302; 1008,479;25,42219
 209,34;  427,724;  201,918; 1088,856;25,45902
 209,94;  449,005;  218,995; 1208,459;23,24594
 210,54;  466,993;  213,382; 1299,034;23,36022
 211,14;  505,230;  215,149; 1412,876;24,21929
 211,73;  522,516;  200,840; 1527,244;24,25175
 212,33;  576,027;  217,762; 1648,567;25,03942
 212,93;  569,428;  204,841; 1725,665;23,97299
 213,53;  568,899;  182,687; 1796,194;23,93617
 214,13;  594,974;  191,000; 1874,334;23,99846
 214,73;  582,573;  191,766; 1898,095;22,90340
 215,33;  580,467;  169,995; 1920,998;23,44210
 215,93;  652,537;  197,460; 2050,324;24,56073
 216,53;  646,709;  149,610; 2130,499;25,09475
 217,13;  740,514;  210,844; 2382,397;24,39133
 217,73;  774,774;  177,537; 2579,907;24,86032
 218,33;  798,264;  153,616; 2783,249;24,51476
 218,93;  906,897;  174,774; 3072,845;25,26242
 219,53;  979,190;  189,847; 3389,579;24,66905
 220,13; 1055,573;  163,924; 3728,452;25,01449
 220,73; 1200,089;  178,149; 4076,196;26,21670
 221,32; 1308,203;  187,918; 4495,556;26,00695
 221,92; 1443,620;  189,924; 4912,802;26,54517
 222,52; 1534,456;  173,460; 5400,007;26,04005
 223,12; 1691,465;  183,845; 5767,690;26,99968
 223,72; 1828,237;  197,307; 6192,789;27,20266
 224,32; 1979,210;  197,307; 6643,021;27,64477
 224,92; 2045,093;  179,461; 6989,549;27,39513
 225,52; 2172,682;  194,611; 7395,180;27,47103
 226,12; 2266,876;  188,998; 7768,946;27,41283
 226,72; 2356,729;  170,536; 8113,362;27,52413
 227,31; 2483,536;  153,766; 8520,120;27,84689
 227,91; 2641,184;  188,073; 8949,331;27,99954
 228,51; 2788,431;  180,301; 9448,317;28,14119
 229,11; 2936,125;  176,843; 9856,570;28,50578
 229,71; 3053,231;  171,764;10194,401;28,74959
 230,31; 3186,553;  170,308;10676,345;28,70963
 230,91; 3299,283;  168,915;10982,606;28,94819
 231,51; 3424,272;  160,691;11344,280;29,18188
 232,10; 3598,073;  168,308;11709,875;29,71663
 232,70; 3698,335;  187,451;11933,902;29,88889
 233,30; 3840,296;  192,844;12198,872;30,38018
 233,90; 3918,564;  179,152;12314,399;30,81447
 234,50; 4046,560;  178,614;12487,313;31,42449
 235,10; 4115,170;  173,922;12540,626;31,86983
 235,70; 4235,854;  185,380;12576,880;32,68752
 236,29; 4285,562;  187,687;12620,006;32,96147
 236,89; 4257,122;  167,146;12451,267;33,29482
 237,49; 4299,394;  187,921;12428,441;33,58904
 238,09; 4237,166;  173,381;12143,413;33,94965
 238,69; 4210,376;  196,452;11868,347;34,38965
 239,29; 4159,996;  172,073;11594,147;34,91417
 239,89; 4051,700;  193,146;11243,509;34,91790
 240,48; 3929,356;  167,997;10851,171;35,20826
 241,08; 3803,100;  180,073;10506,454;35,08516
 241,68; 3732,192;  194,920;10155,041;35,51435
 242,28; 3564,076;  174,075; 9827,002;35,11889
 242,88; 3498,823;  192,692; 9558,279;35,30084
 243,48; 3391,391;  204,997; 9258,649;35,19457
 244,07; 3295,529;  193,073; 9013,704;35,17272
 244,67; 3190,338;  196,843; 8945,702;34,21584
 245,27; 3115,285;  196,840; 8755,090;34,10096
 245,87; 3008,731;  195,846; 8680,706;33,15181
 246,47; 2962,095;  175,763; 8629,563;32,95952
 247,06; 2923,053;  184,765; 8722,642;32,07223
 247,66; 2907,907;  174,920; 8733,030;31,93447
 248,26; 2908,244;  226,533; 8884,631;30,97345
 248,86; 2904,024;  199,840; 9152,915;30,20397
 249,46; 2862,654;  160,844; 9355,950;29,38312
 250,05; 2936,812;  191,612; 9730,434;28,77923
 250,65; 2951,116;  162,455;10109,593;28,03480
 251,25; 3018,191;  178,996;10645,299;27,12701
 251,85; 3102,410;  181,531;11169,454;26,58263
 252,44; 3151,317;  152,072;11848,468;25,64247
 253,04; 3288,935;  193,072;12621,735;24,90906
 253,64; 3354,003;  162,070;13290,437;24,31325
 254,24; 3589,578;  200,996;14255,643;24,11004
 254,84; 3685,346;  173,537;15113,027;23,50689
 255,43; 3842,805;  189,533;16061,326;23,01739
 256,03; 4030,782;  184,378;17049,273;22,80716
 256,63; 4168,620;  190,454;18002,256;22,33444
 257,23; 4283,878;  181,069;18779,960;22,05942
 257,82; 4438,705;  194,991;19749,378;21,70211
 258,42; 4515,914;  143,759;20487,823;21,49106
 259,02; 4711,527;  181,303;21265,976;21,48586
 259,62; 4764,006;  176,681;21929,039;21,08886
 260,21; 4840,183;  178,149;22406,204;20,97365
 260,81; 4913,254;  179,767;22744,363;20,97750
 261,41; 4932,806;  167,913;23163,508;20,72089
 262,01; 5036,416;  205,296;23575,771;20,67189
 262,60; 5077,647;  171,223;23768,730;20,79213
 263,20; 5090,262;  175,609;24034,870;20,59851
 263,80; 5135,931;  193,757;24165,397;20,61675
 264,40; 5163,662;  163,758;24242,806;20,76454
 264,99; 5284,537;  192,757;24378,175;21,05310
 265,59; 5321,620;  177,370;24531,325;21,12285
 266,19; 5379,242;  157,219;24711,881;21,26693
 266,78; 5518,854;  210,448;24707,026;21,66999
 267,38; 5461,297;  181,601;24643,801;21,58308
 267,98; 5537,783;  168,987;24696,378;21,88898
 268,58; 5576,180;  176,755;24544,482;22,15810
 269,17; 5599,807;  179,907;24685,766;22,11675
 269,77; 5639,170;  194,838;24352,681;22,53650
 270,37; 5615,975;  161,603;24261,186;22,63264
 270,96; 5677,915;  218,221;24182,565;22,78257
 271,56; 5702,734;  175,684;23785,399;23,41007
 272,16; 5706,278;  178,759;23744,946;23,45529
 272,75; 5758,227;  187,606;23620,727;23,77243
 273,35; 5837,329;  180,145;23609,061;24,14617
 273,95; 5878,307;  177,452;23611,519;24,32721
 274,54; 5930,481;  176,381;23618,060;24,54645
 275,14; 6114,931;  191,222;23949,369;24,93338
 275,74; 6159,338;  161,528;24022,463;25,13652
 276,33; 6365,956;  196,530;24536,164;25,34724
 276,93; 6531,774;  183,612;24931,690;25,65113
 277,53; 6683,949;  180,456;25401,951;25,78552
 278,12; 6955,679;  171,993;25947,094;26,31876
 278,72; 7199,458;  194,148;26541,686;26,58810
 279,32; 7385,583;  173,379;27074,882;26,80967
 279,91; 7753,751;  163,917;27830,945;27,43278
 280,51; 7923,320;  180,918;28378,567;27,45762
 281,11; 8213,942;  191,532;29066,703;27,78307
 281,70; 8466,929;  161,147;29490,844;28,31868
 282,30; 8726,119;  162,838;30132,629;28,57304
 282,90; 8999,520;  176,223;30448,420;29,14654
 283,49; 9274,948;  189,529;31026,545;29,46270
 284,09; 9584,652;  202,993;31411,326;30,06139
 284,69; 9846,827;  203,532;31632,959;30,68238
 285,28;10058,957;  196,916;31964,227;31,04462
 285,88;10344,987;  200,528;32207,045;31,69498
 286,47;10476,440;  181,300;32298,629;32,05478
 287,07;10712,041;  206,917;32288,091;32,74545
 287,67;11057,314;  196,382;32424,264;33,70042
 288,26;11279,921;  178,840;32317,211;34,54152
 288,86;11562,328;  180,608;32422,612;35,30090
 289,46;11908,527;  190,840;32469,913;36,30119
 290,05;12248,495;  173,227;32694,430;37,13045
 290,65;12585,735;  182,223;32802,000;38,02452
 291,24;12981,629;  193,225;32986,708;38,99679
 291,84;13373,620;  197,377;33070,333;40,08232
 292,44;13717,173;  187,921;33221,662;40,95586
 293,03;14195,917;  235,225;33281,741;42,24558
 293,63;14449,096;  177,146;33394,717;42,96506
 294,22;14829,654;  197,455;33624,593;43,77341
 294,82;14996,264;  181,143;33627,807;44,29477
 295,41;15131,775;  169,532;33204,229;45,29251
 296,01;15311,282;  216,297;33178,647;45,79463
 296,61;15375,221;  195,379;32899,872;46,41516
 297,20;15372,388;  199,451;32447,989;47,05000
 297,80;15434,461;  203,996;32307,093;47,44235
 298,39;15358,256;  170,223;31917,377;47,84061
 298,99;15407,417;  191,452;31719,499;48,26168
 299,58;15334,181;  189,382;31671,372;48,10623
 300,18;15387,522;  215,304;31391,058;48,66672
 300,78;15275,076;  186,995;31025,184;48,92661
 301,37;15268,922;  191,603;31139,854;48,71784
 301,97;15331,948;  196,686;31085,363;48,99939
 302,56;15319,374;  179,300;31033,221;49,07018
 303,16;15316,061;  169,837;30942,470;49,21978
 303,75;15298,958;  192,303;31001,494;49,03295
 304,35;15484,903;  173,845;31192,777;49,36037
 304,94;15448,627;  186,225;31189,287;49,22869
 305,54;15474,203;  190,687;31112,710;49,42599
 306,13;15353,391;  163,922;31005,789;49,24951
 306,73;15254,728;  168,305;30789,068;49,26861
 307,33;15313,345;  193,613;30807,131;49,38907
 307,92;15193,187;  190,148;30903,906;48,84794
 308,52;15364,881;  169,991;31362,304;48,71357
 309,11;15628,463;  176,451;31756,953;48,92896
 309,71;15678,820;  164,450;31904,815;48,87899
 310,30;15733,238;  169,533;32260,817;48,49823
 310,90;15818,777;  192,071;32547,047;48,29769
 311,49;15819,556;  180,455;32650,024;48,16541
 312,09;15873,331;  159,765;32853,300;48,06322
 312,68;16038,976;  205,918;33216,194;47,96403
 313,28;15941,726;  169,917;33305,444;47,59788
 313,87;15908,462;  145,148;33458,233;47,31869
 314,47;16017,101;  173,221;33724,033;47,22354
 315,06;15968,211;  161,148;33804,434;46,98430
 315,66;15930,331;  172,227;34136,223;46,39650
 316,25;15743,204;  145,376;33983,109;46,09596
 316,85;15618,585;  153,688;34066,597;45,60180
 317,44;15560,663;  166,913;34155,625;45,29077
 318,04;15518,253;  152,454;34213,124;45,11303
 318,63;15406,825;  152,459;34291,420;44,68316
 319,22;15293,943;  176,145;34435,703;44,12724
 319,82;15124,760;  171,377;34446,193;43,62790
 320,41;14924,200;  178,069;34370,331;43,12710
 321,01;14894,877;  188,765;34472,177;42,89571
 321,60;14761,361;  178,993;34421,579;42,58548
 322,20;14527,251;  166,918;34366,599;41,98967
 322,79;14416,077;  204,994;34507,016;41,42929
 323,39;14270,352;  173,152;34526,149;41,03630
 323,98;14136,280;  160,302;34479,325;40,72371
 324,58;13891,824;  167,453;34280,041;40,23257
 325,17;13719,672;  175,376;34017,692;40,02178
 325,76;13477,650;  204,378;33861,892;39,43628
 326,36;13200,432;  146,149;33402,353;39,25368
 326,95;12982,926;  195,608;33158,745;38,79278
 327,55;12697,947;  157,223;32723,775;38,50799
 328,14;12405,259;  172,381;32355,358;38,01040
 328,74;12173,601;  199,915;31895,044;37,77769
 329,33;11869,466;  191,149;31501,011;37,29916
 329,92;11540,065;  163,682;30953,339;36,94872
 330,52;11192,844;  177,074;30271,107;36,60450
 331,11;10942,381;  177,454;29881,392;36,24074
 331,71;10591,982;  180,224;29328,791;35,71962
 332,30;10344,781;  192,225;28872,133;35,39954
 332,89;10031,399;  199,918;28421,757;34,83643
 333,49; 9698,177;  181,685;27911,250;34,31894
 334,08; 9442,542;  187,147;27490,885;33,89791
 334,68; 9249,526;  178,147;27113,863;33,67788
 335,27; 9033,556;  188,920;26741,703;33,30964
 335,86; 8874,535;  217,685;26456,315;32,99277
 336,46; 8604,619;  193,151;26267,396;32,25968
 337,05; 8487,418;  175,608;25985,381;32,20412
 337,65; 8386,776;  161,454;25945,830;31,90041
 338,24; 8333,220;  227,533;25837,039;31,65109
 338,83; 8196,956;  194,610;25730,996;31,33703
 339,43; 8074,729;  173,838;25713,725;30,93550
 340,02; 7999,716;  173,991;25646,481;30,72226
 340,61; 7916,191;  166,610;25652,467;30,40738
 341,21; 7861,755;  208,607;25652,660;30,07834
 341,80; 7752,118;  176,839;25500,258;29,91412
 342,40; 7698,118;  189,535;25617,832;29,52845
 342,99; 7669,246;  176,303;25801,988;29,23997
 343,58; 7618,158;  183,688;25899,165;28,91049
 344,18; 7615,726;  176,842;26055,200;28,74558
 344,77; 7559,964;  173,530;26327,041;28,24261
 345,36; 7593,234;  156,608;26630,822;28,09007
 345,96; 7635,044;  196,380;26930,253;27,82487
 346,55; 7651,185;  167,075;27206,227;27,67879
 347,14; 7661,563;  158,535;27447,042;27,49519
 347,74; 7708,537;  147,693;27911,065;27,23316
 348,33; 7856,809;  173,770;28553,678;27,07211
 348,92; 7958,574;  177,387;29147,963;26,85893
 349,52; 7953,425;  161,694;29604,805;26,46368
 350,11; 7994,780;  165,529;29679,007;26,52771
 350,70; 7951,515;  169,071;29774,027;26,28764
 351,29; 7805,660;  171,679;29529,091;26,00359
 351,89; 7730,674;  178,912;29546,986;25,71419
 352,48; 7758,147;  158,764;29500,433;25,89963
 353,07; 7658,137;  178,536;29413,506;25,58443
 353,67; 7580,162;  191,156;29345,503;25,34444
 354,26; 7496,737;  180,997;29166,009;25,23973
 354,85; 7402,645;  184,304;28948,268;25,09509
 355,45; 7260,817;  162,069;28706,290;24,86930
 356,04; 7252,551;  180,228;28671,925;24,82240
 356,63; 7180,528;  201,378;28500,515;24,66206
 357,22; 7105,069;  177,372;28328,592;24,60887
 357,82; 7018,605;  177,450;28094,235;24,50553
 358,41; 6975,336;  177,301;27936,001;24,48974
 359,00; 6858,980;  163,453;27779,461;24,24509
 359,60; 6904,123;  188,379;27770,380;24,34828
 360,19; 6824,661;  171,383;27472,443;24,37004
 360,78; 6749,659;  192,608;27334,973;24,15800
 361,37; 6661,663;  169,839;27129,149;24,08008
 361,97; 6633,865;  179,686;27121,395;23,95609
 362,56; 6526,219;  164,837;26800,094;23,88331
 363,15; 6542,479;  194,762;26540,500;24,09391
 363,74; 6408,816;  186,375;26197,561;23,92217
 364,34; 6358,572;  211,453;25831,548;23,99335
 364,93; 6254,765;  172,683;25451,510;24,05998
 365,52; 6151,074;  157,762;25110,931;24,01824
 366,11; 6066,846;  173,992;24784,121;23,94483
 366,71; 6005,635;  167,992;24400,780;24,08985
 367,30; 5922,809;  178,147;24109,118;24,00514
 367,89; 5911,314;  205,227;23947,817;24,03313
 368,48; 5819,053;  184,836;23571,837;24,09123
 369,07; 5772,977;  185,302;23165,873;24,31478
 369,67; 5728,644;  200,067;22951,938;24,29944
 370,26; 5649,829;  173,225;22723,302;24,28641
 370,85; 5583,130;  179,608;22457,040;24,25559
 371,44; 5543,899;  178,455;22204,977;24,35901
 372,03; 5490,130;  159,992;22012,285;24,39167
 372,63; 5433,257;  158,378;21679,734;24,50998
 373,22; 5407,064;  178,148;21352,926;24,69408
 373,81; 5348,341;  145,685;21098,073;24,83085
 374,40; 5319,279;  172,150;20852,402;24,88910
 374,99; 5264,687;  168,839;20697,279;24,82336
 375,59; 5224,173;  163,535;20366,291;25,04925
 376,18; 5259,867;  195,146;20267,060;25,23287
 376,77; 5192,139;  186,147;20074,890;25,16997
 377,36; 5240,609;  201,147;20011,754;25,43820
 377,95; 5205,795;  188,299;19804,594;25,57820
 378,55; 5195,108;  175,765;19619,869;25,81421
 379,14; 5230,743;  177,377;19552,633;26,08154
 379,73; 5187,263;  183,838;19444,639;25,97724
 380,32; 5279,500;  191,532;19524,209;26,31797
 380,91; 5241,581;  159,606;19376,399;26,44549
 381,50; 5289,453;  191,376;19283,270;26,70283
 382,10; 5271,347;  170,763;19182,901;26,82804
 382,69; 5318,375;  163,685;19178,501;27,10881
 383,28; 5370,890;  189,837;19083,910;27,42158
 383,87; 5365,927;  169,145;19021,514;27,56567
 384,46; 5418,709;  171,066;18934,093;27,96800
 385,05; 5465,971;  197,299;19004,150;28,01465
 385,64; 5453,769;  173,145;18894,351;28,20664
 386,24; 5494,856;  161,450;18841,894;28,55075
 386,83; 5585,937;  189,296;18974,211;28,72859
 387,42; 5705,852;  201,530;19118,858;29,09672
 388,01; 5798,270;  193,678;19304,187;29,32728
 388,60; 5871,320;  184,681;19534,238;29,38899
 389,19; 5990,708;  166,291;19748,225;29,74383
 389,78; 6131,275;  170,292;19985,503;30,08287
 390,37; 6302,441;  219,680;20387,425;30,16084
 390,96; 6362,485;  181,219;20597,047;30,27683
 391,56; 6472,456;  179,367;20685,516;30,68879
 392,15; 6620,066;  176,138;20922,122;31,06109
 392,74; 6684,719;  151,286;21074,921;31,22513
 393,33; 6849,343;  166,751;21366,590;31,52190
 393,92; 7067,272;  183,669;21782,382;31,87043
 394,51; 7125,357;  167,597;21961,359;31,92547
 395,10; 7311,095;  199,894;22129,832;32,42691
 395,69; 7369,939;  175,202;22219,013;32,63835
 396,28; 7503,314;  184,353;22308,666;33,08108
 396,87; 7587,580;  197,809;22419,415;33,25489
 397,46; 7683,611;  186,806;22514,758;33,57587
 398,06; 7864,798;  197,648;22831,381;33,87488
 398,65; 7964,654;  184,945;22806,531;34,39064
 399,24; 8035,210;  191,943;22924,937;34,50169
 399,83; 8092,161;  185,851;22983,584;34,68025
 400,42; 8256,182;  205,453;23115,032;35,14132
 401,01; 8328,559;  184,053;23204,831;35,37894
 401,60; 8405,172;  190,878;23218,114;35,67208
 402,19; 8476,040;  210,092;23119,961;36,08030
 402,78; 8561,053;  221,912;23097,963;36,45358
 403,37; 8544,370;  199,195;23029,929;36,55237
 403,96; 8565,362;  196,628;22861,068;36,92451
 404,55; 8550,388;  195,519;22828,880;36,91396
 405,14; 8549,886;  192,721;22595,424;37,30427
 405,73; 8624,542;  195,840;22495,851;37,79685
 406,32; 8668,655;  194,817;22419,585;38,12790
 406,91; 8649,545;  196,945;22119,517;38,55661
 407,50; 8585,295;  196,931;21945,108;38,57042
 408,09; 8577,688;  177,614;21674,887;39,07507
 408,68; 8628,754;  201,992;21586,902;39,40518
 409,27; 8625,597;  178,770;21385,657;39,83059
 409,86; 8665,155;  189,636;21335,382;40,08144
 410,45; 8731,544;  203,500;21245,099;40,52945
 411,04; 8760,295;  212,133;21118,401;40,88804
 411,63; 8709,654;  197,079;20844,197;41,22888
 412,22; 8693,057;  205,100;20669,705;41,47628
 412,81; 8628,840;  218,031;20356,495;41,76490
 413,40; 8600,808;  222,964;20009,573;42,34098
 413,99; 8499,380;  236,730;19781,489;42,27553
 414,58; 8396,362;  190,424;19386,698;42,74756
 415,17; 8385,843;  194,031;19239,594;43,01166
 415,76; 8384,949;  189,100;19141,942;43,24338
 416,35; 8365,274;  186,489;18948,538;43,59217
 416,94; 8459,831;  217,178;19066,084;43,73014
 417,53; 8628,504;  189,493;19216,895;44,35188
 418,12; 8727,024;  193,726;19310,719;44,63724
 418,71; 8948,934;  201,271;19685,420;44,89631
 419,30; 9051,882;  210,573;19751,515;45,24505
 419,89; 9179,778;  195,959;19918,195;45,55173
 420,48; 9369,958;  218,041;20195,948;45,81019
 421,07; 9468,332;  204,042;20301,419;46,09701
 421,66; 9514,917;  182,278;20188,973;46,64758
 422,25; 9536,390;  183,978;20183,328;46,76358
 422,84; 9587,038;  219,980;20075,064;47,17713
 423,43; 9544,986;  191,899;19850,977;47,57643
 424,02; 9494,284;  220,055;19648,294;47,73582
 424,60; 9310,655;  189,526;19149,045;48,10844
 425,19; 9306,079;  208,598;19005,048;48,39999
 425,78; 9281,947;  225,676;18932,512;48,41156
 426,37; 9249,460;  228,141;18826,907;48,50494
 426,96; 9315,464;  219,449;18632,160;49,40074
 427,55; 9288,772;  202,839;18552,182;49,51639
 428,14; 9209,355;  188,457;18317,021;49,76069
 428,73; 9195,566;  200,837;18197,543;49,97986
 429,32; 9276,341;  221,140;18214,475;50,32531
 429,91; 9264,846;  234,221;18241,929;50,14866
 430,50; 9274,562;  225,147;17983,199;50,95950
 431,08; 9197,622;  237,843;17866,611;50,82476
 431,67; 9244,656;  266,999;17788,473;51,23802
 432,26; 9199,049;  271,694;17518,554;51,76220
 432,85; 9061,515;  291,770;17238,088;51,75015
 433,44; 8976,192;  294,312;16882,011;52,33927
 434,03; 8796,501;  312,702;16561,789;52,21093
 434,62; 8645,723;  268,774;16155,211;52,73020
 435,21; 8565,227;  289,924;15970,299;52,77490
 435,79; 8530,422;  276,085;15838,998;53,03851
 436,38; 8544,899;  278,705;15778,620;53,33057
 436,97; 8524,486;  258,245;15668,482;53,64123
 437,56; 8474,913;  271,714;15456,614;54,02208
 438,15; 8487,025;  243,019;15404,042;54,37632
 438,74; 8512,134;  260,866;15454,420;54,30768
 439,33; 8587,611;  236,942;15477,239;54,79335
 439,91; 8625,693;  208,715;15498,654;55,04913
 440,50; 8728,515;  253,792;15561,140;55,36376
 441,09; 8791,499;  247,104;15636,692;55,52062
 441,68; 8802,816;  245,878;15663,026;55,50273
 442,27; 8874,720;  227,107;15614,905;56,19786
 442,86; 8855,227;  201,501;15649,367;56,01891
 443,44; 8978,840;  225,114;15688,653;56,60881
 444,03; 9052,427;  251,655;15704,424;56,95272
 444,62; 8977,561;  212,039;15537,764;57,19483
 445,21; 8908,206;  218,577;15382,505;57,30461
 445,80; 8941,632;  243,197;15280,370;57,84621
 446,39; 8795,153;  252,735;15024,222;57,83045
 446,97; 8709,356;  210,741;14844,400;58,07581
 447,56; 8644,768;  218,745;14652,447;58,37742
 448,15; 8562,872;  217,510;14459,410;58,59725
 448,74; 8478,222;  226,818;14271,073;58,75288
 449,33; 8396,235;  219,975;14125,673;58,79791
 449,91; 8330,042;  219,903;13926,517;59,16953
 450,50; 8228,115;  210,287;13746,445;59,23267
 451,09; 8219,371;  229,749;13687,701;59,36729
 451,68; 8186,246;  250,828;13540,735;59,71011
 452,26; 8171,050;  229,292;13465,661;59,99952
 452,85; 8177,090;  226,060;13378,685;60,45204
 453,44; 8188,486;  236,220;13417,517;60,32992
 454,03; 8203,879;  214,370;13422,702;60,48840
 454,61; 8182,217;  210,144;13347,618;60,68193
 455,20; 8334,754;  233,377;13549,632;60,83825
 455,79; 8345,355;  231,373;13524,751;61,03777
 456,38; 8403,003;  235,304;13579,829;61,20636
 456,97; 8479,821;  225,995;13693,383;61,28751
 457,55; 8478,152;  223,229;13631,961;61,56379
 458,14; 8498,573;  251,379;13629,235;61,64810
 458,73; 8438,730;  234,998;13586,062;61,44628
 459,31; 8464,978;  263,541;13615,043;61,42707
 459,90; 8558,846;  264,077;13720,843;61,64014
 460,49; 8662,812;  265,153;13742,890;62,30763
 461,08; 8690,967;  215,466;13864,450;62,09620
 461,66; 8788,855;  229,541;13954,064;62,36511
 462,25; 8825,524;  234,699;13939,264;62,68587
 462,84; 8863,006;  252,313;14009,629;62,58992
 463,43; 8788,694;  189,703;13965,104;62,42280
 464,01; 8901,392;  227,090;13974,687;63,09686
 464,60; 8840,360;  252,240;13895,182;62,94918
 465,19; 8722,500;  212,014;13650,694;63,32828
 465,77; 8700,458;  229,017;13623,542;63,24555
 466,36; 8705,176;  244,088;13591,148;63,39290
 466,95; 8499,583;  232,550;13192,920;63,78701
 467,53; 8352,947;  222,173;12958,667;63,83840
 468,12; 8211,454;  251,097;12659,506;64,15292
 468,71; 8070,886;  233,246;12480,730;63,99388
 469,29; 7928,747;  216,636;12253,520;64,07066
 469,88; 7801,284;  221,330;12056,674;64,04507
 470,47; 7925,730;  273,180;12203,521;64,14360
 471,06; 7851,566;  232,488;12142,006;63,97470
 471,64; 7929,635;  241,102;12293,373;63,79324
 472,23; 7976,126;  204,418;12243,506;64,55396
 472,81; 8043,399;  215,722;12423,056;64,12274
 473,40; 8127,902;  218,572;12514,243;64,32613
 473,99; 8283,403;  271,725;12684,177;64,54549
 474,57; 8299,297;  226,033;12827,220;64,06749
 475,16; 8434,855;  241,184;12961,753;64,41277
 475,75; 8532,936;  249,267;13017,028;64,87957
 476,33; 8601,370;  250,577;13126,310;64,85684
 476,92; 8586,161;  254,803;13178,522;64,46564
 477,51; 8628,852;  236,807;13257,983;64,44921
 478,09; 8699,701;  245,038;13206,005;65,23173
 478,68; 8624,885;  243,116;13189,013;64,74460
 479,27; 8662,905;  259,036;13226,776;64,80596
 479,85; 8672,608;  230,654;13187,495;65,15442
 480,44; 8787,555;  229,886;13453,625;64,71444
 481,02; 9798,549;  232,812;15345,322;63,29681
 481,61;10956,481;  260,195;16962,095;64,04233
 482,20;11700,341;  250,427;17957,465;64,66307
 482,78;12205,185;  273,270;18708,918;64,72197
 483,37;12474,529;  269,278;19143,082;64,66768
 483,95;12628,062;  291,048;19265,626;65,01865
 484,54;12801,596;  298,041;19505,993;65,09572
 485,13;12674,202;  274,590;19302,766;65,16448
 485,71;12496,248;  249,358;19025,605;65,22544
 486,30;12376,713;  280,665;18804,628;65,29946
 486,88;12177,269;  299,589;18295,314;66,00278
 487,47;11720,826;  307,052;17548,463;66,19977
 488,05;11127,869;  284,438;16623,482;66,36515
 488,64;10317,805;  288,441;15295,006;66,83317
 489,23; 9067,114;  296,670;13258,685;67,66266
 489,81; 7802,326;  288,824;11752,229;65,54337
 490,40; 7498,161;  245,979;11271,574;65,77588
 490,98; 7351,409;  237,672;11066,274;65,69395
 491,57; 7270,324;  275,670;11056,116;64,88279
 492,15; 7203,123;  243,596;10929,662;65,12712
 492,74; 7176,246;  245,592;10834,144;65,45422
 493,32; 7110,282;  257,980;10783,041;65,10463
 493,91; 7032,360;  245,290;10671,770;65,09455
 494,50; 6993,472;  255,988;10681,835;64,62289
 495,08; 6971,422;  236,680;10601,141;64,97918
 495,67; 6989,706;  253,213;10572,899;65,27808
 496,25; 6893,585;  203,062;10468,236;65,17691
 496,84; 6876,676;  217,366;10475,480;64,91750
 497,42; 6830,111;  211,678;10406,132;64,92190
 498,01; 6785,648;  246,675;10321,341;64,90511
 498,59; 6724,996;  202,140;10304,772;64,56591
 499,18; 6721,029;  222,906;10264,178;64,71414
 499,76; 6667,608;  229,754;10185,764;64,66300
 500,35; 6546,472;  224,297;10004,590;64,64197
 500,93; 6518,506;  204,217;10013,571;64,37009
 501,52; 6502,204;  226,371; 9913,014;64,78852
 502,10; 6438,179;  230,530; 9803,395;64,84631
 502,69; 6338,489;  215,609; 9705,648;64,51902
 503,27; 6208,615;  200,296; 9525,781;64,42902
 503,86; 6139,936;  210,223; 9502,522;63,81319
 504,44; 6091,473;  197,917; 9364,522;64,29377
 505,03; 5924,109;  180,379; 9142,489;64,08903
 505,61; 5814,288;  191,609; 9011,836;63,74755
 506,19; 5726,236;  218,610; 8847,477;63,82792
 506,78; 5607,444;  190,460; 8694,754;63,69705
 507,36; 5499,558;  198,225; 8523,245;63,67951
 507,95; 5417,711;  204,385; 8413,050;63,51003
 508,53; 5370,786;  203,306; 8275,413;64,01649
 509,12; 5271,358;  209,692; 8158,134;63,68123
 509,70; 5145,513;  219,924; 8005,876;63,26251
 510,29; 5054,903;  216,618; 7883,229;63,10853
 510,87; 4949,592;  193,460; 7742,017;63,00717
 511,46; 4894,493;  191,230; 7554,231;63,87698
 512,04; 4784,023;  207,540; 7451,968;63,17245
 512,62; 4673,573;  204,768; 7282,253;63,14114
 513,21; 4549,200;  182,464; 7128,944;62,86257
 513,79; 4493,631;  196,240; 7025,497;62,92618
 514,38; 4380,542;  179,084; 6843,639;63,04184
 514,96; 4305,911;  220,083; 6790,219;62,18787
 515,54; 4229,948;  192,931; 6688,501;62,15030
 516,13; 4167,639;  208,239; 6597,207;61,97245
 516,71; 4096,804;  203,242; 6453,541;62,29400
 517,30; 4036,012;  186,629; 6338,818;62,56933
 517,88; 3960,601;  214,551; 6281,806;61,74209
 518,46; 3882,495;  192,937; 6196,297;61,45822
 519,05; 3855,916;  205,324; 6110,285;61,82245
 519,63; 3802,473;  215,323; 6109,587;60,85832
 520,22; 3758,324;  217,865; 6020,093;61,01895
 520,80; 3716,627;  204,712; 5935,854;61,27776
 521,38; 3704,199;  215,939; 5914,232;61,21587
 521,97; 3639,048;  195,021; 5894,919;60,42260
 522,55; 3626,449;  210,175; 5889,326;60,15467
 523,13; 3611,239;  184,715; 5879,818;60,16615
 523,72; 3600,392;  196,091; 5911,977;59,55859
 524,30; 3662,519;  213,332; 6033,036;59,26740
 524,89; 3654,659;  182,637; 6055,141;59,12337
 525,47; 3738,648;  209,640; 6163,305;59,27455
 526,05; 3704,436;  186,487; 6218,824;58,31818
 526,64; 3760,521;  201,642; 6312,918;58,23462
 527,22; 3832,855;  205,256; 6437,623;58,20581
 527,80; 3879,126;  236,719; 6572,312;57,49118
 528,39; 3931,648;  198,566; 6642,739;57,92958
 528,97; 3954,904;  208,104; 6801,547;56,82615
 529,55; 4059,279;  220,407; 6957,521;56,98095
 530,14; 4160,940;  235,106; 7192,151;56,42962
 530,72; 4178,677;  207,873; 7244,031;56,43426
 531,30; 4210,474;  192,029; 7386,142;55,85741
 531,89; 4262,511;  207,337; 7443,054;56,04385
 532,47; 4306,743;  227,107; 7555,488;55,66899
 533,05; 4336,662;  229,103; 7586,675;55,82764
 533,63; 4326,053;  238,338; 7661,601;55,06628
 534,22; 4326,113;  206,646; 7650,272;55,34221
 534,80; 4378,070;  229,956; 7756,442;55,11356
 535,38; 4416,300;  257,183; 7765,727;55,39178
 535,97; 4338,709;  221,722; 7771,137;54,53386
 536,55; 4411,163;  262,034; 7825,477;54,85768
 537,13; 4354,003;  277,337; 7838,921;53,91286
 537,71; 4403,238;  302,259; 7900,468;53,97297
 538,30; 4384,288;  325,262; 7929,212;53,38049
 538,88; 4421,516;  330,728; 8040,610;53,05903
 539,46; 4505,395;  394,726; 8214,848;52,56528
 540,05; 4570,863;  407,804; 8356,725;52,37263
 540,63; 4708,157;  449,958; 8595,188;52,27844
 541,21; 4714,725;  471,729; 8734,824;51,34875
 541,79; 4776,069;  505,344; 8748,505;51,80932
 542,38; 4860,713;  510,804; 8920,734;51,72349
 542,96; 4880,141;  545,039; 9082,034;50,78019
 543,54; 4974,211;  560,113; 9293,953;50,54017
 544,12; 5042,128;  513,499; 9353,266;51,23019
 544,70; 5041,074;  489,808; 9488,717;50,57575
 545,29; 5112,121;  510,804; 9593,954;50,65772
 545,87; 5065,300;  476,652; 9620,812;50,18119
 546,45; 5042,917;  453,650; 9631,030;50,00630
 547,03; 5085,456;  423,266; 9718,862;50,15482
 547,62; 5122,697;  398,114; 9908,979;49,67565
 548,20; 5184,550;  402,115;10032,472;49,66000
 548,78; 5233,872;  376,967;10148,493;49,70467
 549,36; 5278,004;  340,736;10351,490;49,31964
 549,94; 5316,304;  316,499;10480,654;49,19057
 550,53; 5425,832;  316,581;10703,572;49,18894
 551,11; 5453,204;  283,122;10923,378;48,58983
 551,69; 5574,767;  304,659;11212,214;48,31612
 552,27; 5608,647;  267,580;11428,796;47,85381
 552,85; 5765,355;  274,430;11835,740;47,49397
 553,44; 5926,666;  268,966;12104,378;47,80315
 554,02; 6016,608;  278,582;12438,065;47,18971
 554,60; 6103,026;  234,045;12691,094;47,11373
 555,18; 6311,579;  275,197;13120,094;46,99440
 555,76; 6364,704;  239,813;13420,340;46,46925
 556,34; 6528,245;  254,817;13760,810;46,44922
 556,93; 6648,779;  237,197;14199,150;45,92181
 557,51; 6721,212;  227,432;14489,844;45,53073
 558,09; 6884,796;  245,197;14817,633;45,56272
 558,67; 6997,204;  243,357;15189,183;45,18885
 559,25; 7066,163;  247,433;15482,584;44,75657
 559,83; 7174,934;  238,358;15719,312;44,80716
 560,41; 7329,217;  233,508;16087,916;44,75543
 561,00; 7415,629;  241,742;16431,733;44,31063
 561,58; 7461,632;  233,893;16715,398;43,85364
 562,16; 7545,418;  216,045;16926,433;43,86118
 562,74; 7639,283;  212,736;17302,582;43,45590
 563,32; 7770,007;  204,743;17709,367;43,21867
 563,90; 7930,763;  227,357;18080,919;43,14772
 564,48; 8030,650;  237,431;18492,637;42,69039
 565,06; 8260,018;  229,049;19107,280;42,54090
 565,65; 8464,791;  240,130;19810,877;42,02528
 566,23; 8794,843;  269,126;20494,327;42,15393
 566,81; 9022,237;  233,048;21195,100;41,92905
 567,39; 9307,133;  236,897;22007,612;41,66255
 567,97; 9472,045;  247,818;22584,509;41,29630
 568,55; 9834,463;  250,512;23297,783;41,58389
 569,13;10057,886;  225,588;24045,052;41,27842
 569,71;10370,261;  233,737;24966,026;40,98498
 570,29;10716,602;  273,351;25910,622;40,73464
 570,87;10943,028;  261,198;26477,221;40,74542
 571,45;11114,352;  261,587;27165,677;40,33872
 572,03;11281,041;  220,821;27571,550;40,43848
 572,61;11465,978;  225,666;28244,947;40,11635
 573,20;11730,833;  250,817;28890,965;40,08365
 573,78;11874,951;  235,897;29425,795;39,87357
 574,36;11971,056;  240,665;29911,703;39,53482
 574,94;12059,180;  280,591;30121,872;39,47079
 575,52;12098,805;  241,517;30511,695;39,17152
 576,10;12278,594;  291,054;31086,291;38,92660
 576,68;12436,981;  282,744;31625,802;38,77808
 577,26;12652,865;  303,057;32195,967;38,72274
 577,84;12727,932;  306,973;32611,430;38,44967
 578,42;12794,008;  320,053;32823,877;38,37688
 579,00;12756,432;  281,743;32923,685;38,21675
 579,58;12768,973;  313,745;33195,785;37,87851
 580,16;12636,087;  298,669;33200,298;37,49789
 580,74;12708,213;  291,208;33374,530;37,53252
 581,32;12528,183;  300,130;33410,523;36,93116
 581,90;12526,987;  305,515;33463,770;36,85801
 582,48;12474,645;  312,285;33582,034;36,55681
 583,06;12425,575;  315,053;33676,708;36,30072
 583,64;12424,140;  316,283;33703,784;36,26464
 584,22;12206,352;  320,364;33508,775;35,81367
 584,80;12075,974;  325,669;33213,834;35,72807
 585,38;11881,757;  323,432;32860,721;35,52332
 585,96;11829,819;  310,820;33022,875;35,21331
 586,54;11760,326;  318,364;33149,442;34,85101
 587,12;11709,332;  286,439;33255,962;34,64683
 587,70;11685,176;  325,513;33363,338;34,38381
 588,28;11665,406;  309,516;33454,632;34,26113
 588,86;11603,301;  300,594;33503,109;34,04172
 589,44;11549,777;  290,674;33579,515;33,82246
 590,02;11545,950;  302,520;33847,971;33,51701
 590,59;11526,611;  282,594;34058,991;33,28957
 591,17;11515,408;  279,216;34230,921;33,09463
 591,75;11464,470;  274,906;34303,040;32,88327
 592,33;11497,793;  283,444;34606,935;32,67252
 592,91;11508,775;  244,985;34776,080;32,61927
 593,49;11515,115;  253,371;35071,047;32,34490
 594,07;11480,477;  263,525;35338,518;31,97991
 594,65;11402,897;  271,518;35305,345;31,77323
 595,23;11477,041;  263,442;35704,816;31,63985
 595,81;11451,731;  257,136;35816,843;31,48112
 596,39;11412,433;  250,828;35926,065;31,28670
 596,97;11382,427;  255,831;36111,377;31,03173
 597,55;11321,280;  240,826;35993,988;30,99154
 598,12;11217,036;  236,603;36068,843;30,64400
 598,70;11173,051;  232,216;36139,073;30,47004
 599,28;11137,880;  254,601;36338,205;30,16129
 599,86;11096,466;  237,831;36291,325;30,11812
 600,44;11027,621;  216,140;36436,836;29,84890
 601,02;11011,431;  261,221;36439,421;29,71461
 601,60;10950,339;  247,599;36397,721;29,60637
 602,18;10808,104;  216,449;36499,237;29,19195
 602,75;10807,528;  235,828;36593,380;29,07704
 603,33;10705,997;  254,832;36540,755;28,80226
 603,91;10662,404;  237,066;36474,192;28,76977
 604,49;10652,716;  252,755;36542,613;28,65804
 605,07;10603,774;  258,753;36635,556;28,43851
 605,65;10545,888;  282,756;36690,684;28,18928
 606,23;10549,093;  328,517;36932,868;27,92175
 606,80;10473,026;  373,674;36857,292;27,68188
 607,38;10435,285;  396,142;36917,222;27,48863
 607,96;10395,772;  440,135;37008,149;27,22499
 608,54;10321,232;  498,910;36939,365;26,95444
 609,12;10264,009;  479,520;37112,963;26,70917
 609,70;10272,383;  541,985;37063,280;26,64308
 610,27;10240,335;  529,135;37074,355;26,57311
 610,85;10171,182;  540,293;37183,224;26,28308
 611,43;10048,261;  553,985;37109,798;25,97200
 612,01; 9944,682;  521,060;36852,520;25,93791
 612,59; 9954,747;  503,293;36913,082;25,95855
 613,16; 9774,776;  475,364;36907,017;25,52564
 613,74; 9707,672;  436,986;36680,503;25,57888
 614,32; 9682,700;  405,217;36699,026;25,56216
 614,90; 9575,743;  388,830;36572,010;25,39001
 615,48; 9426,608;  326,673;36291,955;25,30200
 616,05; 9348,028;  318,364;36316,894;25,08342
 616,63; 9262,987;  335,594;36081,449;24,97462
 617,21; 9216,776;  335,289;35943,619;24,94216
 617,79; 9068,205;  304,598;35937,010;24,59448
 618,36; 9040,657;  316,676;35841,852;24,55718
 618,94; 8895,948;  260,596;35553,473;24,46769
 619,52; 8761,715;  279,132;35302,297;24,21992
 620,10; 8712,571;  279,597;35257,952;24,10912
 620,67; 8635,508;  288,286;35267,658;23,86327
 621,25; 8544,319;  297,445;35054,908;23,72692
 621,83; 8483,660;  276,981;35003,594;23,63225
 622,41; 8518,768;  312,673;34994,769;23,66090
 622,98; 8387,733;  295,517;34788,382;23,46055
 623,56; 8308,580;  289,132;34648,830;23,33969
 624,14; 8230,187;  278,215;34632,925;23,14667
 624,72; 8146,888;  280,904;34474,956;23,00395
 625,29; 8105,332;  250,901;34648,732;22,83409
 625,87; 8121,938;  295,905;34525,560;22,86331
 626,45; 7964,826;  254,439;34365,277;22,60392
 627,02; 7970,121;  260,136;34267,210;22,67171
 627,60; 7871,367;  250,448;34253,692;22,41233
 628,18; 7829,471;  239,135;34411,194;22,21211
 628,76; 7848,321;  247,363;34361,230;22,28114
 629,33; 7750,759;  266,672;34281,303;22,00255
 629,91; 7738,879;  254,828;34312,491;21,97465
 630,49; 7723,620;  273,056;34532,981;21,74717
 631,06; 7706,083;  273,440;34614,352;21,64370
 631,64; 7663,414;  265,054;34578,663;21,56101
 632,22; 7562,972;  221,514;34463,337;21,44003
 632,79; 7612,878;  254,668;34729,084;21,34397
 633,37; 7603,263;  228,368;34782,246;21,34318
 633,95; 7565,762;  246,054;34913,123;21,11430
 634,52; 7557,711;  228,365;35002,582;21,07695
 635,10; 7538,749;  236,135;35039,621;20,98242
 635,68; 7503,453;  240,438;35272,150;20,73269
 636,25; 7480,080;  236,666;35177,819;20,73032
 636,83; 7482,090;  216,209;35381,999;20,66179
 637,41; 7465,468;  223,283;35414,674;20,57942
 637,98; 7445,536;  244,283;35637,684;20,34631
 638,56; 7417,436;  244,666;35753,387;20,20003
 639,13; 7428,707;  241,439;35737,832;20,24788
 639,71; 7483,414;  247,902;35908,957;20,28967
 640,29; 7335,505;  205,210;35762,911;20,05274
 640,86; 7325,160;  214,440;35942,860;19,90214
 641,44; 7284,891;  223,902;35880,809;19,80259
 642,02; 7298,931;  249,979;35828,604;19,81232
 642,59; 7281,894;  222,518;36029,629;19,71501
 643,17; 7200,779;  232,825;35919,039;19,52562
 643,74; 7168,742;  222,826;35934,604;19,44993
 644,32; 7133,628;  253,210;35927,321;19,28686
 644,89; 7115,975;  234,364;35959,886;19,26245
 645,47; 7078,399;  255,595;35941,834;19,11887
 646,05; 7010,593;  230,134;35848,783;19,03626
 646,62; 6969,325;  232,442;35882,039;18,89750
 647,20; 6949,210;  242,672;36112,911;18,69666
 647,77; 6895,096;  215,365;35928,706;18,70374
 648,35; 6844,136;  213,827;35818,501;18,62202
 648,92; 6843,252;  239,750;35843,065;18,54744
 649,50; 6773,599;  212,134;35661,168;18,50957
 650,08; 6731,177;  212,288;35680,655;18,37945
 650,65; 6731,602;  218,596;35981,911;18,21141
 651,23; 6852,872;  214,366;36897,552;18,09686
 651,80; 7012,450;  214,981;37642,501;18,16169
 652,38; 7035,489;  213,366;37967,834;18,06971
 652,95; 7043,144;  199,981;38213,552;18,00190
 653,53; 7089,953;  215,828;38490,578;17,95995
 654,10; 7093,993;  239,135;38697,911;17,82391
 654,68; 7039,032;  214,059;38573,168;17,79232
 655,25; 7012,303;  208,136;38645,732;17,70185
 655,83; 6979,727;  204,059;38553,757;17,66811
 656,40; 7007,920;  236,597;38588,398;17,65582
 656,98; 6937,960;  191,674;38522,962;17,59994
 657,55; 6901,076;  217,290;38404,526;17,50267
 658,13; 6799,347;  199,290;37955,321;17,48080
 658,70; 6759,233;  222,675;37674,424;17,45328
 659,28; 6541,580;  216,290;36633,065;17,36916
 659,85; 6410,696;  209,136;36135,014;17,26210
 660,43; 6384,197;  223,137;36336,116;17,06052
 661,00; 6373,083;  218,367;36416,296;17,00295
 661,58; 6408,430;  206,829;36804,860;16,94518
 662,15; 6433,470;  199,598;36927,116;16,97330
 662,73; 6497,817;  253,445;37190,603;16,90539
 663,30; 6469,088;  211,522;37452,321;16,80298
 663,88; 6465,512;  216,906;37644,732;16,69508
 664,45; 6528,705;  198,137;37898,142;16,79196
 665,03; 6587,283;  203,599;38142,783;16,82610
 665,60; 6712,092;  250,753;38596,501;16,85021
 666,17; 6601,132;  229,676;38695,449;16,56396
 666,75; 6665,633;  214,138;39011,552;16,62867
 667,32; 6718,980;  230,138;39367,347;16,57973
 667,90; 6724,327;  219,138;39536,373;16,54539
 668,47; 6779,828;  228,677;39874,244;16,52430
 669,05; 6847,560;  211,061;39996,501;16,68072
 669,62; 6765,215;  192,677;40150,449;16,44871
 670,19; 6782,255;  197,754;40308,244;16,41591
 670,77; 6833,525;  225,369;40470,347;16,41983
 671,34; 6755,949;  203,216;40401,296;16,30111
 671,92; 6813,143;  200,908;40641,090;16,35066
 672,49; 6867,182;  228,370;40657,116;16,42102
 673,06; 6785,222;  185,139;40744,603;16,27261
 673,64; 6807,108;  200,293;40715,783;16,30689
 674,21; 6814,224;  203,447;40643,116;16,34726
 674,79; 6849,725;  214,986;40860,219;16,32354
 675,36; 6873,303;  218,370;40951,475;16,33790
 675,93; 6839,804;  192,601;40879,655;16,33739
 676,51; 6890,690;  219,217;41050,988;16,33893
 677,08; 6899,653;  209,832;41056,244;16,37799
 677,65; 6874,462;  213,063;41272,347;16,22385
 678,23; 6927,886;  222,678;41479,142;16,25250
 678,80; 6954,002;  198,063;41606,321;16,31544
 679,38; 6910,503;  198,140;41665,578;16,18707
 679,95; 6987,466;  205,910;41906,680;16,26242
 680,52; 7013,583;  205,217;42264,706;16,18747
 681,10; 7096,084;  208,602;42664,270;16,22276
 681,67; 7104,277;  215,295;42842,988;16,16081
 682,24; 7108,701;  192,525;42907,860;16,19132
 682,82; 7210,510;  200,372;43501,731;16,18919
 683,39; 7318,627;  220,526;43827,680;16,27738
 683,96; 7331,205;  204,910;44027,398;16,26173
 684,54; 7335,629;  198,603;44335,962;16,17003
 685,11; 7412,976;  213,064;44627,372;16,21079
 685,68; 7479,016;  217,372;45138,936;16,16516
 686,25; 7494,440;  200,526;45056,270;16,26082
 686,83; 7557,941;  198,988;45233,834;16,34058
 687,40; 7614,134;  188,680;45592,321;16,35431
 687,97; 7687,789;  220,911;45945,270;16,33020
 688,55; 7671,598;  192,450;45935,757;16,35026
 689,12; 7696,176;  172,142;46284,090;16,31689
 689,69; 7713,677;  198,912;46247,885;16,31907
 690,26; 7761,948;  208,681;46431,295;16,34106
 690,84; 7759,987;  206,142;46576,398;16,29028
 691,41; 7795,719;  211,527;46637,039;16,33626
 691,98; 7827,066;  201,450;46955,988;16,30989
 692,56; 7885,952;  191,297;46925,936;16,46457
 693,13; 7934,530;  245,989;46981,808;16,45107
 693,70; 7984,031;  216,374;47265,911;16,50953
 694,27; 7949,225;  201,605;47251,783;16,46672
 694,84; 8019,803;  197,989;47445,808;16,55487
 695,42; 8044,611;  234,143;47548,680;16,50754
 695,99; 8059,266;  209,605;47752,629;16,51065
 696,56; 8029,844;  191,990;47522,039;16,56000
 697,13; 8151,807;  216,759;47883,449;16,64695
 697,71; 8109,924;  174,144;47968,859;16,60389
 698,28; 8162,732;  209,144;48263,270;16,55131
 698,85; 8194,618;  176,452;48328,295;16,65184
 699,42; 8244,427;  183,836;48525,782;16,67411
 699,99; 8291,928;  213,221;48554,193;16,71192
 700,57; 8323,352;  212,760;48558,526;16,77622
 701,14; 8397,469;  201,529;48630,013;16,92380
 701,71; 8396,893;  219,068;48850,885;16,81579
 702,28; 8436,394;  207,606;48955,218;16,88039
 702,85; 8475,741;  212,453;48956,398;16,95244
 703,43; 8563,319;  220,837;49281,116;17,00456
 704,00; 8630,282;  237,453;49439,295;17,05796
 704,57; 8643,014;  222,222;49498,013;17,08911
 705,14; 8684,746;  249,222;49716,347;17,05279
 705,71; 8720,478;  244,838;49741,526;17,12365
 706,28; 8684,902;  221,607;49605,705;17,13769
 706,86; 8777,634;  251,146;49934,808;17,16155
 707,43; 8824,673;  247,915;49806,141;17,30643
 708,00; 8847,021;  226,761;49852,090;17,37068
 708,57; 8827,983;  215,454;49729,808;17,39401
 709,14; 8852,869;  240,531;49911,603;17,33874
 709,71; 8956,909;  229,762;49930,552;17,55937
 710,28; 8954,487;  222,300;50118,577;17,50068
 710,86; 9023,295;  228,454;50245,064;17,58384
 711,43; 9074,412;  239,608;50219,244;17,67681
 712,00; 9103,913;  226,377;50416,808;17,68771
 712,57; 9125,337;  230,608;50404,141;17,72793
 713,14; 9137,761;  210,993;50588,936;17,71960
 713,71; 9172,186;  226,993;50438,577;17,81500
 714,28; 9227,610;  222,378;50538,064;17,89746
 714,85; 9238,419;  199,840;50280,013;18,04822
 715,42; 9331,150;  226,378;50523,654;18,10192
 716,00; 9373,267;  243,532;50616,064;18,12443
 716,57; 9398,076;  210,686;50737,705;18,18312
 717,14; 9446,346;  207,532;50656,577;18,31316
 717,71; 9446,001;  195,994;50707,218;18,31278
 718,28; 9565,810;  230,994;50710,475;18,49230
 718,85; 9532,696;  201,763;50882,500;18,41120
 719,42; 9606,735;  228,763;50995,526;18,47266
 719,99; 9643,236;  203,764;50804,705;18,65474
 720,56; 9700,045;  210,148;50936,731;18,70794
 721,13; 9776,854;  209,456;51194,834;18,76498
 721,70; 9764,355;  203,764;51025,859;18,81188
 722,27; 9873,856;  224,149;51067,731;18,97920
 722,84; 9956,126;  250,764;51268,449;19,02353
 723,41; 9946,781;  198,918;51284,475;19,08145
 723,98;10008,744;  211,764;51411,500;19,13482
 724,55;10116,014;  226,918;51542,372;19,27119
 725,12;10069,362;  175,765;51439,475;19,29942
 725,69;10236,940;  195,457;51638,654;19,51955
 726,27;10276,595;  218,073;51742,372;19,52190
 726,84;10319,327;  204,150;51964,167;19,54245
 727,41;10424,905;  212,457;51888,654;19,76238
 727,98;10483,021;  228,996;52293,526;19,69484
 728,55;10564,291;  240,304;52202,090;19,86842
 729,12;10547,639;  188,304;52239,116;19,90235
 729,69;10660,217;  229,535;52379,218;20,00143
 730,26;10719,410;  237,458;52591,090;20,02144
 730,82;10779,757;  219,612;52422,346;20,22910
 731,39;10868,797;  213,381;52453,141;20,39714
 731,96;10936,683;  203,920;52856,398;20,38416
 732,53;10962,107;  226,689;53030,731;20,33067
 733,10;11118,147;  226,766;53117,295;20,59231
 733,67;11177,340;  227,997;53310,936;20,62686
 734,24;11136,764;  202,074;53044,577;20,69298
 734,81;11230,342;  234,536;53106,218;20,79716
 735,38;11177,305;  222,151;52852,013;20,81547
 735,95;11203,498;  211,536;52603,269;20,98034
 736,52;11231,615;  229,075;52873,295;20,89981
 737,09;11327,347;  223,613;52528,936;21,22869
 737,66;11413,232;  259,998;52727,962;21,25723
 738,23;11408,810;  212,536;52716,833;21,32449
 738,80;11566,235;  243,537;52981,321;21,46980
 739,37;11626,813;  244,921;53152,423;21,51281
 739,94;11651,698;  216,614;53225,987;21,57182
 740,51;11799,507;  285,614;53235,551;21,74487
 741,07;11721,854;  213,460;53193,192;21,72226
 741,64;11842,048;  250,845;53421,680;21,79993
 742,21;11846,626;  213,691;53418,397;21,86448
 742,78;11884,973;  199,076;53317,654;21,99964
 743,35;12006,397;  212,307;53527,372;22,12150
 743,92;12112,668;  239,922;53673,705;22,21955
 744,49;12166,400;  228,538;53473,038;22,42084
 745,06;12217,593;  221,153;53502,679;22,51520
 745,63;12245,786;  207,769;53506,859;22,58578
 746,19;12342,903;  204,461;53486,731;22,78139
 746,76;12399,019;  227,461;53512,295;22,84244
 747,33;12435,905;  209,846;53499,628;22,94260
 747,90;12527,945;  250,692;53724,808;22,95924
 748,47;12575,446;  227,538;53562,064;23,15181
 749,04;12671,639;  223,231;53529,167;23,35276
 749,61;12693,756;  252,308;53569,577;23,33474
 750,17;12789,257;  245,923;53672,526;23,47769
 750,74;12865,604;  235,385;53563,628;23,68392
 751,31;12842,182;  216,462;53425,961;23,72832
 751,88;12885,145;  193,924;53346,602;23,87692
 752,45;12994,415;  223,385;53511,705;23,96591
 753,02;13025,839;  219,847;53247,961;24,14944
 753,58;13067,725;  212,770;53233,987;24,24493
 754,15;13109,457;  221,232;53361,782;24,25309
 754,72;13129,727;  203,386;53129,808;24,42323
 755,29;13226,459;  203,232;52960,295;24,68528
 755,86;13255,960;  218,463;53042,705;24,68090
 756,42;13345,615;  231,694;52985,500;24,85872
 756,99;13323,424;  193,079;52925,218;24,90008
 757,56;13370,694;  199,694;52876,936;25,00321
 758,13;13491,811;  170,848;52870,423;25,27717
 758,70;13645,466;  200,925;52910,141;25,50700
 759,26;13681,121;  188,694;53011,859;25,54263
 759,83;13757,160;  199,233;53054,654;25,65097
 760,40;13758,508;  196,772;52818,372;25,77219
 760,97;13773,547;  191,079;52962,936;25,73809
 761,53;13799,895;  172,849;52580,500;26,00202
 762,10;13831,165;  177,233;52356,295;26,16745
 762,67;13924,204;  213,541;52537,628;26,20335
 763,24;13832,321;  160,234;52032,808;26,35706
 763,80;14009,053;  194,080;52238,525;26,54457
 764,37;14042,477;  203,003;52183,397;26,62441
 764,94;13986,132;  180,234;51684,884;26,80515
 765,50;14068,018;  187,773;51726,602;26,93163
 766,07;14175,519;  224,003;51775,013;27,06352
 766,64;14133,481;  189,004;51473,346;27,19052
 767,21;14159,367;  189,311;51294,602;27,33583
 767,77;14265,099;  215,158;51205,013;27,55439
 768,34;14328,523;  215,312;51156,192;27,70508
 768,91;14335,871;  212,696;50949,372;27,83622
 769,47;14449,833;  210,543;51145,936;27,95559
 770,04;14488,796;  211,158;50914,423;28,15921
 770,61;14487,605;  195,697;50671,679;28,31427
 771,18;14537,875;  192,389;50442,705;28,54805
 771,74;14632,376;  216,620;50729,730;28,53864
 772,31;14639,570;  204,620;50426,064;28,74260
 772,88;14656,609;  186,389;50187,859;28,93959
 773,44;14619,803;  196,005;50019,115;28,95001
 774,01;14778,073;  210,467;50119,679;29,18821
 774,58;14785,805;  199,621;49828,474;29,39053
 775,14;14913,767;  181,621;49953,961;29,59906
 775,71;14919,961;  201,313;49833,218;29,65562
 776,27;15025,231;  234,467;49778,320;29,85388
 776,84;15064,194;  237,698;49654,269;30,00309
 777,41;15090,003;  210,544;49612,833;30,11897
 777,97;15061,119;  204,852;49278,474;30,27343
 778,54;15038,082;  213,852;49405,807;30,13548
 779,11;15147,737;  225,929;49390,756;30,35057
 779,67;15200,622;  189,006;49313,012;30,55862
 780,24;15183,585;  208,468;49079,577;30,64207
 780,80;15293,932;  224,083;49116,833;30,82226
 781,37;15286,741;  219,622;49091,320;30,82995
 781,94;15302,935;  211,930;48932,192;30,97480
 782,50;15378,743;  224,237;48807,448;31,19289
 783,07;15392,937;  244,622;48741,474;31,23567
 783,63;15423,823;  205,007;48523,269;31,49703
 784,20;15481,785;  226,776;48534,679;31,57870
 784,77;15448,286;  221,315;48376,012;31,62095
 785,33;15488,711;  199,007;48104,423;31,91644
 785,90;15582,289;  209,623;48097,371;32,10146
 786,46;15553,636;  240,854;48043,243;32,03351
 787,03;15597,214;  197,315;47845,269;32,32017
 787,59;15635,946;  205,700;47659,294;32,51650
 788,16;15702,601;  221,239;47735,935;32,58226
 788,73;15716,871;  222,931;47517,730;32,76035
 789,29;15692,757;  214,470;47254,448;32,90454
 789,86;15688,335;  220,547;47044,782;33,03372
 790,42;15814,144;  225,085;47015,730;33,31661
 790,99;15706,876;  233,778;46699,987;33,29968
 791,55;15764,223;  213,470;46680,166;33,46645
 792,12;15838,416;  228,239;46658,423;33,62075
 792,68;15849,302;  226,547;46393,910;33,83939
 793,25;15797,803;  218,086;46124,166;33,93824
 793,81;15812,612;  254,547;45748,192;34,19833
 794,38;15706,113;  197,394;45582,602;34,17131
 794,94;15745,999;  212,701;45458,089;34,33123
 795,51;15810,731;  225,240;45255,115;34,61145
 796,07;15710,924;  215,471;44947,987;34,64025
 796,64;15847,964;  225,240;45052,705;34,85079
 797,20;15753,465;  223,240;44607,038;34,99075
 797,77;15634,043;  205,164;44308,217;34,98370
 798,33;15684,698;  212,010;44102,012;35,25333
 798,90;15785,507;  249,779;44106,192;35,42407
 799,46;15682,777;  230,856;43659,602;35,57994
 800,03;15648,816;  226,779;43527,089;35,61646
 800,59;15647,625;  235,703;43317,192;35,77389
 801,15;15674,588;  228,318;43088,448;36,03878
 801,72;15651,704;  226,549;42737,551;36,28509
 802,28;15624,590;  248,318;42515,499;36,37875
 802,85;15610,091;  225,934;42323,679;36,54390
 803,41;15587,362;  220,165;42166,551;36,63533
 803,98;15550,324;  213,011;41693,269;36,97497
 804,54;15523,595;  223,703;41487,140;37,07857
 805,11;15583,711;  233,319;41345,397;37,33791
 805,67;15584,981;  249,934;41288,961;37,36699
 806,23;15515,559;  228,858;40705,140;37,76706
 806,80;15492,753;  248,319;40766,320;37,62385
 807,36;15513,485;  249,935;40684,576;37,74870
 807,93;15513,986;  249,396;40466,602;37,95537
 808,49;15457,718;  213,704;40178,704;38,14341
 809,05;15473,142;  203,397;39916,961;38,44970
 809,62;15537,412;  230,089;39845,140;38,64017
 810,18;15588,067;  237,012;39721,704;38,87850
 810,74;15539,184;  202,858;39411,653;39,11450
 811,31;15492,454;  217,551;39334,371;39,04945
 811,87;15605,263;  219,166;39072,704;39,60025
 812,44;15595,072;  253,013;39130,807;39,46227
 813,00;15542,419;  195,090;38864,833;39,68821
 813,56;15683,151;  232,628;38881,704;39,97643
 814,13;15684,344;  221,859;38738,038;40,14543
 814,69;15691,768;  229,782;38666,602;40,22702
 815,25;15614,116;  206,013;38191,781;40,56283
 815,82;15659,463;  240,936;38140,422;40,68268
 816,38;15681,349;  254,475;38017,756;40,85152
 816,94;15618,927;  212,321;37665,089;41,13609
 817,51;15561,582;  213,398;37457,192;41,21004
 818,07;15560,160;  216,091;37184,448;41,50595
 818,63;15573,122;  232,629;37068,704;41,64530
 819,20;15578,470;  228,014;36976,499;41,77167
 819,76;15526,663;  211,168;36605,448;42,08215
 820,32;15517,164;  258,476;36546,781;42,04850
 820,89;15527,665;  253,322;36374,730;42,28612
 821,45;15422,013;  219,861;36082,217;42,39028
 822,01;15405,591;  241,399;35794,012;42,65282
 822,57;15345,553;  239,092;35651,807;42,65830
 823,14;15384,439;  203,246;35501,448;43,00840
 823,70;15348,632;  211,861;35213,474;43,24593
 824,26;15340,595;  217,323;35068,730;43,39358
 824,82;15286,481;  235,323;34948,525;43,35860
 825,39;15345,905;  221,323;34589,166;44,00795
 825,95;15326,714;  248,785;34705,653;43,75885
 826,51;15249,753;  234,169;34314,448;44,05945
 827,08;15363,024;  273,400;34366,012;44,26069
 827,64;15275,371;  244,554;34154,730;44,32539
 828,20;15209,026;  216,247;33988,063;44,39435
 828,76;15289,450;  242,939;33968,935;44,61399
 829,32;15276,951;  235,170;33638,884;45,03027
 829,89;15274,991;  205,632;33617,986;45,10116
 830,45;15356,107;  224,016;33626,781;45,30191
 831,01;15331,608;  217,324;33354,268;45,61158
 831,57;15351,956;  226,093;33305,294;45,72620
 832,14;15351,534;  216,555;33249,704;45,81755
 832,70;15314,573;  221,171;33008,730;46,03393
 833,26;15299,382;  198,940;32956,217;46,09798
 833,82;15409,652;  226,478;32905,320;46,46179
 834,38;15381,615;  219,017;32890,653;46,40906
 834,95;15419,809;  213,094;32684,140;46,83161
 835,51;15407,387;  187,786;32653,012;46,87970
 836,07;15561,811;  227,479;32678,576;47,25366
 836,63;15557,927;  246,479;32728,909;47,13763
 837,19;15552,582;  226,941;32581,166;47,36829
 837,75;15421,930;  194,479;32266,807;47,47847
 838,32;15599,661;  241,710;32399,525;47,75807
 838,88;15608,470;  241,556;32369,704;47,83006
 839,44;15537,356;  223,095;32338,884;47,68452
 840,00;15611,626;  218,634;32270,602;48,02511
 840,56;15535,743;  202,480;31940,166;48,31248
 841,12;15557,936;  205,018;32017,730;48,26032
 841,68;15501,976;  198,865;31845,525;48,35616
 842,25;15638,938;  206,249;31785,704;48,86940
 842,81;15517,286;  199,634;31575,114;48,82045
 843,37;15635,402;  201,327;31589,679;49,17135
 843,93;15690,134;  213,173;31364,781;49,68270
 844,49;15709,174;  224,173;31529,268;49,46479
 845,05;15699,136;  196,711;31316,294;49,81566
 845,61;15837,868;  222,789;31425,320;50,04427
 846,17;15784,062;  220,019;31247,191;50,16262
 846,73;15916,486;  222,866;31122,986;50,78822
 847,29;15814,448;  197,943;30937,089;50,80332
 847,86;15961,565;  200,327;30937,730;51,27706
 848,42;15900,143;  189,943;30798,986;51,32535
 848,98;15976,952;  222,097;30715,935;51,66570
 849,54;15979,222;  207,712;30736,960;51,66033
 850,10;16044,262;  218,482;30613,755;52,06658
 850,66;15965,532;  192,251;30411,781;52,19565
 851,22;15933,187;  201,636;30333,807;52,20849
 851,78;16084,380;  241,021;30447,140;52,45083
 852,34;16023,189;  221,944;30167,012;52,76744
 852,90;16043,383;  216,252;30150,960;52,87217
 853,46;16005,422;  205,405;29833,294;53,32819
 854,02;16049,462;  218,175;29953,473;53,24072
 854,58;15994,732;  202,944;29552,960;53,80504
 855,14;16031,156;  198,713;29645,525;53,76624
 855,70;16013,811;  183,021;29501,935;53,99515
 856,26;16005,851;  225,791;29355,268;54,17214
 856,82;16057,737;  194,022;29189,371;54,71124
 857,38;16000,469;  227,791;29143,935;54,54627
 857,94;16045,662;  219,099;29065,345;54,86524
 858,50;16016,778;  216,868;28963,755;54,96216
 859,06;16018,126;  209,330;28775,550;55,34087
 859,62;16101,319;  212,022;28668,268;55,83764
 860,18;15978,666;  207,330;28472,063;55,79864
 860,74;15888,475;  181,945;28436,089;55,59018
 861,30;15926,361;  184,715;28172,883;56,24393
 861,86;15999,170;  218,099;28135,832;56,52705
 862,42;15947,594;  208,330;28034,704;56,56240
 862,98;16060,941;  239,792;28063,268;56,86259
 863,54;15967,673;  215,715;27839,601;57,02296
 864,10;16050,559;  220,331;27927,165;57,13474
 864,66;15876,983;  193,485;27719,422;56,97716
 865,22;15804,869;  215,485;27459,294;57,22175
 865,78;15886,447;  217,869;27440,396;57,55740
 866,34;15864,102;  207,870;27400,499;57,57528
 866,90;15876,064;  213,870;27252,448;57,92536
 867,45;15806,104;  232,177;27129,550;57,90129
 868,01;15750,836;  209,101;26938,191;58,14539
 868,57;15804,798;  211,255;26672,755;58,92917
 869,13;15666,223;  209,255;26623,935;58,51658
 869,69;15672,108;  204,409;26609,730;58,57797
 870,25;15678,917;  198,178;26493,140;58,87340
 870,81;15739,957;  209,101;26439,396;59,20961
 871,37;15719,150;  216,563;26233,191;59,58723
 871,93;15728,497;  219,332;26148,140;59,81442
 872,49;15624,845;  214,871;25890,242;60,01850
 873,04;15535,115;  203,025;25747,653;60,02080
 873,60;15537,309;  193,871;25677,678;60,20858
 874,16;15569,656;  207,179;25578,627;60,55026
 874,72;15587,656;  207,717;25468,242;60,88527
 875,28;15555,271;  229,640;25456,165;60,75205
 875,84;15617,348;  209,717;25388,012;61,19410
 876,40;15615,194;  211,948;25365,319;61,23730
 876,95;15683,040;  222,871;25269,781;61,72486
 877,51;15763,733;  235,563;25265,165;62,03922
 878,07;15824,425;  250,563;25309,781;62,14824
 878,63;15862,117;  205,563;25250,550;62,51372
 879,19;15963,117;  220,025;25294,012;62,78655
 879,75;16036,194;  208,871;25332,627;62,99744
 880,30;16111,887;  216,563;25303,473;63,36103
 880,86;16179,887;  249,025;25415,165;63,30276
 881,42;16255,117;  214,871;25455,396;63,54957
 881,98;16405,810;  213,410;25522,858;63,97769
 882,54;16467,887;  212,563;25572,473;64,09851
 883,09;16594,733;  217,025;25738,627;64,17194
 883,65;16678,810;  199,640;25753,396;64,48825
 884,21;16875,810;  239,256;26019,242;64,53283
 884,77;16908,040;  204,179;26052,935;64,62153
 885,32;17093,425;  214,717;26127,781;65,13590
 885,88;17185,040;  246,487;26270,396;65,08843
 886,44;17328,733;  216,256;26388,627;65,38375
 887,00;17428,117;  226,794;26317,396;65,92919
 887,56;17503,963;  215,102;26516,781;65,73292
 888,11;17580,887;  216,025;26523,165;66,00817
 888,67;17760,887;  247,102;26678,242;66,26193
 889,23;17788,963;  221,333;26639,242;66,49894
 889,79;17756,194;  212,871;26599,858;66,48475
 890,34;17810,579;  213,794;26426,088;67,13180
 890,90;17947,040;  264,794;26637,935;67,04642
 891,46;17969,656;  201,179;26547,704;67,44144
 892,01;17937,425;  246,717;26550,473;67,25544
 892,57;17952,348;  247,102;26450,396;67,56878
 893,13;17879,348;  217,563;26310,319;67,68846
 893,69;17977,194;  213,487;26244,242;68,24123
 894,24;17960,194;  227,871;26140,088;68,43229
 894,80;17918,425;  228,717;26051,550;68,50413
 895,36;17848,502;  215,794;25912,242;68,61924
 895,91;17765,425;  220,025;25715,858;68,81674
 896,47;17801,271;  232,179;25603,165;69,24875
 897,03;17695,117;  215,871;25433,012;69,31494
 897,58;17718,117;  226,871;25292,473;69,78187
 898,14;17635,963;  233,487;25158,165;69,82027
 898,70;17593,117;  204,333;25020,242;70,07112
 899,25;17637,887;  219,102;25065,858;70,10487
 899,81;17529,194;  238,563;24811,088;70,36571
 900,37;17381,502;  202,487;24664,935;70,22607
 900,92;17483,963;  216,871;24689,088;70,55794
 901,48;17414,656;  206,948;24439,627;71,01034
 902,03;17386,656;  220,179;24370,627;71,08140
 902,59;17399,656;  224,948;24280,242;71,39679
 903,15;17292,194;  237,256;24084,012;71,51890
 903,70;17185,117;  226,410;23891,935;71,65997
 904,26;17141,887;  206,563;23762,935;71,89275
 904,82;17174,502;  226,410;23784,550;71,94155
 905,37;17146,733;  226,179;23583,012;72,44370
 905,93;17046,040;  205,333;23426,473;72,52317
 906,48;17118,117;  225,487;23327,319;73,12247
 907,04;17180,117;  229,871;23371,935;73,24432
 907,60;17048,040;  214,717;23137,473;73,43499
 908,15;17021,656;  208,717;22978,473;73,83891
 908,71;17033,733;  244,487;23058,781;73,59091
 909,26;16961,963;  204,948;22870,396;73,93198
 909,82;16930,502;  242,333;22765,935;74,09192
 910,37;17017,579;  262,025;22674,935;74,75849
 910,93;16847,810;  215,487;22437,012;74,84780
 911,48;16769,579;  216,487;22333,012;74,84491
 912,04;16759,656;  207,333;22260,858;75,05523
 912,60;16819,733;  210,563;22204,627;75,51660
 913,15;16704,810;  220,179;22091,627;75,37055
 913,71;16657,117;  216,025;21865,704;75,94151
 914,26;16638,656;  209,640;21903,165;75,73235
 914,82;16537,502;  218,794;21716,165;75,91025
 915,37;16529,810;  211,179;21795,242;75,60500
 915,93;16548,887;  243,102;21568,165;76,46301
 916,48;16483,271;  213,871;21460,473;76,57413
 917,04;16427,040;  219,410;21340,473;76,73681
 917,59;16413,733;  245,717;21340,550;76,64444
 918,15;16281,348;  190,102;21153,781;76,75774
 918,70;16306,348;  215,487;20980,396;77,49064
 919,26;16266,887;  221,179;20927,012;77,49366
 919,81;16185,348;  208,871;20748,319;77,78435
 920,37;16239,194;  213,640;20701,550;78,21957
 920,92;16157,425;  223,794;20604,781;78,17890
 921,48;16090,194;  195,410;20430,242;78,55160
 922,03;16112,348;  218,025;20399,242;78,75800
 922,59;16101,502;  202,410;20284,704;79,16970
 923,14;16004,887;  204,948;20158,396;79,18400
 923,69;16025,810;  230,410;20127,165;79,38681
 924,25;16021,271;  223,563;20013,396;79,82739
 924,80;15990,810;  215,025;19914,627;80,08174
 925,36;15973,502;  216,563;19836,704;80,31002
 925,91;15870,656;  213,102;19648,781;80,56088
 926,47;15898,887;  203,487;19631,088;80,78918
 927,02;15822,040;  235,640;19501,396;80,90209
 927,57;15837,733;  222,794;19368,396;81,55888
 928,13;15816,502;  204,333;19312,319;81,70494
 928,68;15848,502;  214,256;19174,858;82,45649
 929,24;15694,271;  190,948;19009,012;82,38533
 929,79;15683,733;  211,794;18983,088;82,42340
 930,34;15661,579;  221,717;18895,858;82,68044
 930,90;15660,963;  200,487;18782,473;83,20142
 931,45;15678,963;  229,410;18742,088;83,45391
 932,01;15596,579;  224,871;18605,242;83,63111
 932,56;15511,733;  230,563;18502,473;83,63203
 933,11;15563,117;  231,179;18516,781;83,84705
 933,67;15460,040;  197,102;18280,012;84,40532
 934,22;15511,579;  216,487;18281,165;84,66850
 934,77;15357,425;  245,333;18135,704;84,47054
 935,33;15326,348;  225,640;18075,165;84,60005
 935,88;15287,271;  225,256;17939,550;85,02747
 936,43;15322,194;  212,640;17899,242;85,42938
 936,99;15260,810;  214,333;17770,627;85,70417
 937,54;15113,810;  202,717;17604,242;85,68842
 938,09;15144,887;  225,333;17588,704;85,92544
 938,65;15048,194;  216,256;17445,781;86,08443
 939,20;15040,502;  197,025;17358,165;86,49470
 939,75;14947,348;  201,179;17257,396;86,45627
 940,31;14908,963;  193,717;17228,550;86,38327
 940,86;14934,887;  223,025;17136,627;86,98243
 941,41;14847,117;  253,794;17060,704;86,82931
 941,96;14763,194;  217,563;16938,088;86,99267
 942,52;14759,040;  218,025;16923,088;87,04556
 943,07;14696,810;  197,333;16744,319;87,62609
 943,62;14577,348;  210,179;16712,319;87,06246
 944,18;14651,117;  197,410;16626,858;87,97440
 944,73;14539,348;  216,333;16583,473;87,51080
 945,28;14417,656;  179,410;16355,704;88,01921
 945,83;14455,579;  208,025;16382,088;88,08890
 946,39;14469,963;  209,102;16293,396;88,66327
 946,94;14450,117;  229,640;16191,935;89,08793
 947,49;14399,348;  205,717;16159,242;88,96862
 948,04;14392,887;  224,256;16080,935;89,35434
 948,59;14368,425;  228,640;16028,858;89,49108
 949,15;14293,502;  194,487;15947,088;89,50277
 949,70;14222,810;  206,179;15818,165;89,78121
 950,25;14264,963;  233,563;15749,550;90,43189
 950,80;14234,425;  181,102;15661,396;90,78202
 951,36;14117,579;  180,256;15599,858;90,38705
 951,91;14165,656;  230,717;15597,088;90,68464
 952,46;14049,963;  180,179;15352,858;91,41289
 953,01;14119,117;  227,640;15431,012;91,37103
 953,56;13994,963;  185,640;15285,396;91,45395
 954,11;14063,733;  218,256;15252,088;92,09546
 954,67;14021,194;  210,948;15143,165;92,48624
 955,22;13849,656;  189,025;15032,627;92,03043
 955,77;13891,040;  233,025;14985,550;92,58087
 956,32;13885,271;  248,102;14869,550;93,26825
 956,87;13814,348;  199,102;14740,781;93,62912
 957,42;13770,425;  202,563;14703,473;93,56559
 957,98;13749,502;  209,640;14698,088;93,45281
 958,53;13738,887;  221,640;14588,012;94,08950
 959,08;13633,810;  191,717;14508,012;93,89366
 959,63;13631,887;  200,717;14414,012;94,49723
 960,18;13627,810;  222,794;14310,242;95,15574
 960,73;13600,425;  211,717;14232,858;95,48943
 961,28;13556,579;  199,948;14197,319;95,42242
 961,83;13592,963;  229,871;14126,858;96,15820
 962,39;13564,502;  199,640;13991,242;96,90580
 962,94;13449,656;  221,948;13961,319;96,27593
 963,49;13415,810;  212,487;13818,396;97,04109
 964,04;13353,733;  228,794;13819,627;96,57200
 964,59;13309,656;  183,794;13670,627;97,32353
 965,14;13321,194;  214,871;13636,935;97,64760
 965,69;13215,425;  213,025;13554,550;97,45812
 966,24;13170,040;  205,256;13438,550;97,97095
 966,79;13163,733;  222,333;13380,396;98,35338
 967,34;13072,040;  188,410;13282,704;98,39118
 967,89;13107,117;  203,794;13182,165;99,42175
 968,44;13027,271;  206,794;13090,627;99,50825
 968,99;13040,040;  217,871;13085,935;99,64335
 969,55;13032,887;  219,487;13056,319;99,81746
 970,10;12993,733;  216,871;12974,165;100,15338
 970,65;12912,194;  218,948;12846,550;100,51985
 971,20;12852,887;  207,410;12765,550;100,69546
 971,75;12710,040;  195,179;12632,165;100,62616
 972,30;12728,117;  209,102;12537,704;101,54449
 972,85;12618,579;  209,025;12490,165;101,04562
 973,40;12631,271;  197,487;12359,550;102,23417
 973,95;12633,887;  211,179;12289,627;102,85020
 974,50;12543,425;  235,256;12209,704;102,78694
 975,05;12480,733;  219,179;12147,781;102,79121
 975,60;12484,348;  227,640;12128,858;102,98701
 976,15;12417,810;  210,948;12005,858;103,49262
 976,70;12415,963;  227,487;11875,704;104,63813
 977,25;12361,656;  219,871;11847,858;104,41863
 977,80;12272,579;  212,333;11696,550;105,01583
 978,35;12121,425;  219,563;11599,396;104,58732
 978,89;12049,117;  192,025;11549,088;104,40280
 979,44;12122,117;  208,871;11497,319;105,53484
 979,99;11954,271;  200,025;11345,242;105,46449
 980,54;11902,733;  231,794;11301,550;105,43086
 981,09;11843,810;  228,333;11217,781;105,69664
 981,64;11775,271;  222,102;11083,627;106,36784
 982,19;11764,733;  248,025;11040,088;106,71460
 982,74;11629,194;  232,410;10919,473;106,64094
 983,29;11534,733;  199,717;10854,550;106,38380
 983,84;11524,271;  230,563;10682,242;108,05640
 984,39;11470,040;  236,871;10666,781;107,70150
 984,94;11338,271;  202,640;10536,242;107,76137
 985,49;11298,733;  239,487;10394,242;108,90706
 986,03;11186,502;  239,563;10423,550;107,49168
 986,58;11098,194;  254,487;10223,473;108,77442
 987,13;11022,040;  227,179;10117,550;109,14516
 987,68;10910,887;  231,179;10047,935;108,79060
 988,23;10908,502;  233,794;10004,858;109,24817
 988,78;10770,117;  215,333; 9885,704;109,14560
 989,33;10693,117;  228,794; 9824,473;109,05245
 989,88;10655,656;  239,179; 9742,935;109,60379
 990,42;10548,348;  226,179; 9603,627;110,07439
 990,97;10404,810;  222,717; 9473,012;110,07317
 991,52;10433,810;  244,487; 9536,704;109,65438
 992,07;10351,733;  244,410; 9348,550;111,01897
 992,62;10301,733;  231,410; 9293,319;111,12805
 993,17;10179,656;  230,179; 9157,781;111,44624
 993,71;10097,733;  234,487; 9069,088;111,64336
 994,26;10005,502;  212,948; 8950,781;112,07074
 994,81; 9982,733;  247,102; 8892,858;112,60590
 995,36; 9854,348;  219,256; 8732,396;113,17906
 995,91; 9813,963;  229,102; 8727,165;112,78877
 996,45; 9684,348;  231,794; 8630,473;112,54810
 997,00; 9582,117;  209,025; 8499,165;113,06313
 997,55; 9594,887;  227,640; 8491,012;113,35865
 998,10; 9478,579;  248,179; 8363,935;113,73432
 998,65; 9403,425;  223,179; 8317,012;113,42273
 999,19; 9347,887;  239,333; 8162,627;114,95918
 999,74; 9255,579;  250,487; 8063,088;115,26368
1000,29; 9171,040;  242,179; 8035,012;114,57787
1000,84; 9044,963;  220,871; 7901,627;114,88573
1001,38; 8973,887;  221,563; 7804,935;115,41467
1001,93; 8943,579;  249,948; 7778,012;115,48296
1002,48; 8812,810;  219,102; 7667,704;115,37343
1003,03; 8802,117;  224,794; 7615,242;116,05958
1003,57; 8693,348;  242,179; 7510,781;116,26953
1004,12; 8603,348;  242,794; 7420,704;116,47616
1004,67; 8547,656;  227,410; 7327,473;117,18552
1005,22; 8417,963;  214,871; 7172,242;117,90506
1005,76; 8217,656;  206,487; 7067,858;116,75756
1006,31; 8223,425;  237,794; 7078,165;116,74265
1006,86; 8139,502;  224,256; 6927,012;118,08943
1007,40; 7973,810;  201,487; 6818,473;117,46016
1007,95; 7899,810;  219,333; 6702,781;118,46284
1008,50; 7812,348;  224,794; 6639,858;118,27714
1009,04; 7737,425;  235,256; 6551,935;118,76762
1009,59; 7607,656;  233,871; 6451,165;118,60118
1010,14; 7517,887;  211,717; 6324,012;119,53235
1010,68; 7396,194;  223,948; 6220,088;119,61438
1011,23; 7262,810;  192,563; 6125,396;119,17151
1011,78; 7247,887;  228,410; 6082,473;119,90777
1012,32; 7127,271;  224,179; 5967,781;120,18751
1012,87; 7101,502;  245,640; 5984,319;119,46759
1013,42; 7005,502;  216,410; 5836,396;120,80264
1013,96; 7037,117;  239,871; 5882,627;120,45969
1014,51; 6922,271;  192,487; 5748,935;121,11667
1015,06; 6946,348;  199,179; 5721,319;122,18395
1015,60; 7017,425;  262,179; 5859,165;120,69434
1016,15; 6973,733;  220,256; 5778,165;121,51110
1016,69; 6996,117;  222,102; 5833,858;120,71116
1017,24; 7012,733;  198,179; 5799,550;121,65867
1017,79; 7145,656;  239,948; 5843,242;123,24371
1018,33; 7128,502;  206,948; 5874,473;122,12657
1018,88; 7197,040;  233,640; 5905,473;122,77160
1019,42; 7183,963;  217,871; 5889,935;122,81408
1019,97; 7234,194;  214,563; 5898,242;123,50506
1020,51; 7309,733;  222,640; 5889,550;125,06097
1021,06; 7296,040;  212,948; 5904,012;124,45991
1021,61; 7313,040;  197,102; 5858,935;125,68260
1022,15; 7242,733;  181,640; 5841,473;124,75797
1022,70; 7247,348;  212,487; 5878,704;124,15446
1023,24; 7207,271;  206,025; 5774,473;125,73065
1023,79; 7161,040;  226,179; 5726,088;126,09046
1024,33; 7097,194;  220,487; 5669,473;126,20159
1024,88; 7050,194;  221,948; 5594,704;127,09020
1025,42; 6888,194;  211,794; 5490,935;126,46756
1025,97; 6888,579;  212,102; 5451,550;127,42710
1026,51; 6688,579;  178,948; 5318,550;126,65632
1027,06; 6679,117;  211,333; 5295,012;127,22646
1027,60; 6584,425;  218,563; 5148,473;129,12735
1028,15; 6500,040;  225,563; 5140,088;127,67209
1028,69; 6344,348;  195,640; 4995,550;128,10049
1029,24; 6336,963;  209,025; 4952,319;129,19162
1029,78; 6190,348;  210,563; 4861,627;128,56811
1030,33; 6055,425;  192,640; 4782,550;127,73203
1030,87; 6021,963;  207,717; 4711,088;129,10875
1031,42; 5932,425;  210,333; 4652,781;128,80493
1031,96; 5862,579;  218,794; 4589,550;129,12606
1032,51; 5780,194;  196,487; 4476,935;130,44680
1033,05; 5728,810;  218,256; 4473,704;129,49409
1033,60; 5557,271;  193,563; 4344,781;129,20807
1034,14; 5511,117;  205,871; 4275,550;130,36031
1034,69; 5456,348;  198,563; 4244,165;129,96297
1035,23; 5392,040;  215,640; 4171,935;130,83961
1035,77; 5320,425;  200,333; 4117,165;130,72022
1036,32; 5211,502;  187,333; 4057,627;129,81362
1036,86; 5174,733;  200,487; 3996,935;131,02368
1037,41; 5069,579;  229,102; 3932,473;130,70461
1037,95; 5005,810;  181,563; 3886,165;130,22306
1038,50; 4982,040;  203,871; 3824,858;131,95766
1039,04; 4961,040;  213,333; 3800,781;132,34220
1039,58; 4831,194;  202,102; 3725,627;131,37674
1040,13; 4771,117;  225,640; 3698,858;130,87223
1040,67; 4774,887;  234,410; 3655,550;132,71823
1041,21; 4723,117;  233,794; 3576,858;134,28770
1041,76; 4615,963;  189,563; 3504,550;133,52694
1042,30; 4570,425;  210,333; 3495,858;132,70611
1042,85; 4460,194;  195,563; 3425,165;132,04819
1043,39; 4450,502;  203,717; 3353,396;134,83231
1043,93; 4424,194;  223,025; 3308,473;136,16075
1044,48; 4316,348;  217,179; 3286,396;133,55748
1045,02; 4253,887;  218,333; 3232,242;133,89764
1045,56; 4234,810;  216,871; 3206,242;134,40748
1046,11; 4192,425;  216,717; 3161,935;134,98860
1046,65; 4113,194;  216,102; 3111,012;134,61879
1047,19; 4029,194;  207,871; 3041,088;134,87575
1047,74; 3982,194;  198,871; 3008,935;134,63479
1048,28; 3978,963;  224,256; 2962,627;137,11464
1048,82; 3916,348;  231,717; 2919,704;137,07772
1049,37; 3840,194;  219,025; 2880,165;136,07584
1049,91; 3798,733;  202,179; 2835,088;136,59997
1050,45; 3769,271;  234,102; 2824,012;136,49778
1050,99; 3685,271;  203,410; 2761,319;136,12137
1051,54; 3645,040;  207,256; 2712,473;137,22501
1052,08; 3651,040;  223,871; 2715,319;137,55732
1052,62; 3569,963;  226,256; 2672,858;136,66742
1053,16; 3516,810;  201,025; 2597,781;138,34470
1053,71; 3453,271;  215,871; 2567,012;137,69488
1054,25; 3438,117;  236,333; 2546,858;138,57390
1054,79; 3394,733;  224,487; 2497,012;139,50325
1055,33; 3306,040;  193,025; 2461,858;137,20780
1055,88; 3312,656;  234,333; 2448,396;139,03500
1056,42; 3281,656;  239,410; 2421,627;139,41078
1056,96; 3223,502;  223,794; 2358,627;140,51254
1057,50; 3169,194;  222,563; 2322,012;140,35264
1058,05; 3116,656;  217,948; 2299,473;139,25885
1058,59; 3087,271;  231,256; 2269,473;140,12320
1059,13; 2999,887;  199,563; 2217,242;138,78934
1059,67; 3027,425;  234,871; 2212,781;141,18713
1060,21; 2956,040;  222,717; 2158,781;141,17942
1060,76; 2922,810;  230,717; 2147,935;140,41665
1061,30; 2901,194;  245,179; 2119,319;141,71913
1061,84; 2854,810;  221,102; 2066,550;142,71372
1062,38; 2756,271;  214,640; 2029,319;140,05954
1062,92; 2812,425;  256,948; 2062,935;141,50033
1063,46; 2759,963;  234,563; 1991,781;143,71586
1064,01; 2701,271;  209,717; 1961,088;142,26304
1064,55; 2660,656;  227,717; 1943,319;141,81253
1065,09; 2617,271;  203,256; 1904,935;141,86081
1065,63; 2628,348;  243,794; 1916,550;142,55242
1066,17; 2584,117;  242,487; 1887,627;142,33623
1066,71; 2589,887;  241,563; 1878,704;143,44054
1067,25; 2513,348;  215,256; 1818,935;143,30128
1067,80; 2507,425;  240,717; 1811,319;144,32095
1068,34; 2506,579;  255,487; 1823,473;143,56579
1068,88; 2421,733;  224,717; 1739,012;145,08511
1069,42; 2439,117;  260,025; 1768,627;144,44449
1069,96; 2378,502;  230,640; 1709,473;145,24033
1070,50; 2398,040;  243,410; 1728,012;145,13189
1071,04; 2328,194;  215,256; 1665,165;145,72898
1071,58; 2324,425;  225,179; 1660,935;146,21193
1072,12; 2295,963;  220,640; 1631,242;147,12323
1072,66; 2267,656;  219,563; 1625,550;145,66941
1073,21; 2287,425;  231,794; 1632,627;146,74349
1073,75; 2219,040;  231,410; 1603,242;144,88872
1074,29; 2200,810;  234,640; 1577,319;146,43630
1074,83; 2182,425;  244,487; 1571,858;145,99824
1075,37; 2143,579;  233,256; 1535,473;146,69772
1075,91; 2120,194;  249,179; 1527,088;146,41218
1076,45; 2107,733;  235,948; 1492,935;148,91047
1076,99; 2072,194;  236,025; 1472,012;148,55900
1077,53; 2033,194;  220,794; 1450,781;147,35121
1078,07; 2017,579;  237,948; 1450,396;146,77996
1078,61; 1979,963;  229,948; 1413,704;147,83585
1079,15; 1960,963;  220,640; 1402,473;147,25630
1079,69; 1944,963;  237,717; 1409,935;145,64246
1080,23; 1942,040;  243,717; 1403,012;146,49629
1080,77; 1928,194;  243,717; 1385,704;147,50410
1081,31; 1851,810;  221,717; 1334,319;146,51173
1081,85; 1861,887;  240,640; 1359,473;144,90515
1082,39; 1841,656;  230,948; 1313,858;148,73889
1082,93; 1819,040;  229,179; 1312,627;146,74091
1083,47; 1779,117;  219,871; 1271,088;148,32767
1084,01; 1765,117;  239,640; 1289,319;145,32797
1084,55; 1730,963;  226,410; 1251,550;146,76564
1085,09; 1748,810;  239,487; 1260,704;147,79646
1085,63; 1725,963;  233,487; 1224,704;150,57010
1086,17; 1688,348;  225,025; 1211,396;148,35420
1086,71; 1664,040;  227,410; 1195,781;148,35539
1087,24; 1688,348;  253,025; 1210,319;149,93541
1087,78; 1671,348;  231,410; 1172,781;152,96182
1088,32; 1618,040;  215,871; 1147,012;150,58623
1088,86; 1616,887;  253,025; 1173,550;148,16127
1089,40; 1579,887;  225,256; 1135,627;148,79983
1089,94; 1562,271;  199,025; 1098,781;151,51291
1090,48; 1560,194;  238,487; 1108,242;151,96308
1091,02; 1555,733;  232,102; 1098,550;152,76516
1091,56; 1526,425;  242,025; 1077,935;153,65298
1092,10; 1484,502;  213,102; 1070,165;148,34374
1092,63; 1518,887;  256,256; 1063,319;156,44752
1093,17; 1488,040;  233,640; 1056,165;152,50600
1093,71; 1448,579;  233,640; 1037,473;151,14320
1094,25; 1449,425;  248,102; 1041,627;151,39070
1094,79; 1421,348;  235,410; 1022,550;150,66416
1095,33; 1415,810;  221,794; 1012,319;151,04081
1095,87; 1395,425;  232,179;  988,473;153,80868
1096,40; 1370,194;  218,102;  960,550;155,17480
1096,94; 1363,348;  230,025;  968,165;153,53761
1097,48; 1372,194;  236,256;  953,935;158,27950
1098,02; 1345,502;  220,410;  951,935;153,80094
1098,56; 1302,733;  210,179;  903,319;157,62375
1099,10; 1290,656;  212,256;  904,627;155,75461
1099,63; 1303,887;  213,410;  909,935;156,55962
1100,17; 1282,733;  235,333;  914,858;154,13708
1100,71; 1274,348;  234,871;  913,627;153,14447

