
Integration time [ms]: 120,000
Averaging Nr. [scans]: 13
Smoothing Nr. [pixels]: 0
Data measured with spectrometer [name]: 2009305U1
Wave   ;Sample   ;Dark     ;Reference;Reflectance
[nm]   ;[counts] ;[counts] ;[counts] ;[%]

 175,72;  200,654;  202,886;  214,253;-19,63918
 176,32;  233,453;  236,502;  224,563; 0,00000
 176,92;  261,331;  261,810;  259,279; 0,00000
 177,52;  256,744;  256,040;  268,411; 5,68949
 178,12;  221,992;  228,579;  233,833;-125,38610
 178,72;  267,116;  258,810;  256,007; 0,00000
 179,32;  262,132;  260,733;  253,210; 0,00000
 179,92;  257,071;  251,194;  250,799; 0,00000
 180,52;  249,538;  248,194;  249,355;115,75821
 181,12;  265,504;  252,963;  254,248;976,47628
 181,73;  279,931;  279,733;  279,385; 0,00000
 182,33;  359,445;  348,886;  358,111;114,46223
 182,93;  272,226;  273,348;  275,613;-49,50630
 183,53;  239,899;  241,425;  236,281; 0,00000
 184,13;  241,305;  249,502;  235,332; 0,00000
 184,73;  283,241;  275,272;  271,335; 0,00000
 185,33;  278,919;  236,428;  336,101;42,62990
 185,93;  281,880;  234,583;  359,342;37,91106
 186,53;  302,574;  252,198;  384,040;38,20977
 187,13;  318,529;  282,736;  409,296;28,28163
 187,73;  286,825;  254,890;  367,277;28,41481
 188,33;  290,998;  248,737;  369,705;34,93569
 188,93;  296,845;  255,430;  366,881;37,15951
 189,53;  291,602;  251,969;  374,863;32,24989
 190,13;  323,510;  287,585;  411,451;29,00337
 190,73;  266,250;  233,430;  364,758;24,99058
 191,34;  305,668;  259,584;  390,135;35,29982
 191,94;  286,814;  241,583;  374,569;34,01167
 192,54;  302,133;  259,889;  412,605;27,66178
 193,14;  314,543;  261,198;  394,187;40,11255
 193,74;  306,381;  260,890;  382,181;37,50597
 194,34;  304,781;  260,505;  382,000;36,44284
 194,94;  273,025;  222,505;  351,466;39,17471
 195,54;  253,136;  209,121;  329,710;36,49993
 196,14;  269,838;  234,043;  365,416;27,24685
 196,74;  263,435;  222,736;  356,742;30,37125
 197,34;  250,820;  205,659;  339,451;33,75460
 197,94;  276,459;  232,351;  378,492;30,18188
 198,54;  290,670;  243,428;  386,908;32,92594
 199,14;  270,793;  223,966;  379,479;30,11115
 199,74;  254,695;  205,351;  372,661;29,49267
 200,34;  254,241;  202,428;  400,858;26,11155
 200,94;  296,497;  238,736;  424,673;31,06520
 201,54;  279,198;  213,428;  425,103;31,07122
 202,14;  316,221;  244,043;  464,005;32,81392
 202,74;  305,156;  219,351;  461,776;35,39469
 203,34;  278,369;  193,735;  478,391;29,73220
 203,94;  267,655;  181,966;  496,607;27,23386
 204,54;  333,082;  242,813;  571,497;27,46385
 205,14;  301,779;  206,274;  583,049;25,34802
 205,74;  364,873;  248,274;  675,642;27,28307
 206,34;  321,382;  206,197;  683,700;24,12233
 206,94;  359,703;  217,274;  760,936;26,19807
 207,54;  324,151;  184,428;  772,738;23,74991
 208,14;  358,375;  217,735;  847,890;22,31830
 208,74;  386,394;  207,735;  933,625;24,61236
 209,34;  394,989;  205,043; 1021,039;23,27779
 209,94;  411,786;  228,043; 1123,399;20,52177
 210,54;  429,683;  209,735; 1225,007;21,66396
 211,14;  451,520;  215,351; 1308,727;21,60000
 211,73;  485,498;  223,120; 1428,637;21,76478
 212,33;  497,287;  230,889; 1519,106;20,67960
 212,93;  504,974;  212,505; 1626,646;20,68179
 213,53;  484,604;  188,966; 1698,269;19,58770
 214,13;  527,699;  201,043; 1758,559;20,97293
 214,73;  514,913;  185,428; 1791,774;20,51150
 215,33;  506,555;  188,658; 1829,553;19,37338
 215,93;  559,194;  204,120; 1943,802;20,41031
 216,53;  544,233;  174,428; 2018,775;20,05074
 217,13;  628,879;  215,427; 2222,682;20,59787
 217,73;  646,383;  204,351; 2416,551;19,98159
 218,33;  659,756;  151,427; 2607,742;20,69476
 218,93;  758,780;  195,196; 2888,264;20,92723
 219,53;  826,273;  206,120; 3172,770;20,90417
 220,13;  874,379;  173,427; 3452,633;21,37566
 220,73;  986,975;  194,274; 3805,609;21,95036
 221,32; 1079,471;  200,428; 4215,010;21,89626
 221,92; 1194,351;  196,581; 4630,656;22,50232
 222,52; 1301,307;  174,274; 5017,128;23,27208
 223,12; 1409,167;  190,889; 5440,521;23,20692
 223,72; 1576,146;  204,581; 5856,549;24,26703
 224,32; 1677,880;  198,427; 6211,109;24,60555
 224,92; 1760,237;  192,120; 6488,018;24,90697
 225,52; 1874,913;  215,428; 6819,349;25,12878
 226,12; 1987,348;  202,658; 7124,839;25,78218
 226,72; 2098,214;  171,351; 7400,541;26,65394
 227,31; 2202,033;  160,274; 7750,450;26,90002
 227,91; 2400,388;  201,812; 8154,932;27,64419
 228,51; 2500,162;  182,120; 8521,044;27,79785
 229,11; 2675,291;  187,043; 8878,963;28,62714
 229,71; 2801,198;  175,120; 9158,296;29,23329
 230,31; 2974,958;  181,658; 9533,880;29,86777
 230,91; 3107,483;  174,813; 9847,932;30,31773
 231,51; 3239,971;  168,043;10155,152;30,75893
 232,10; 3415,091;  170,043;10488,064;31,45030
 232,70; 3593,705;  196,351;10637,077;32,53943
 233,30; 3759,257;  203,504;10982,179;32,98877
 233,90; 3856,152;  175,351;11123,242;33,62110
 234,50; 3966,803;  184,581;11182,491;34,39037
 235,10; 4051,852;  182,043;11331,633;34,70809
 235,70; 4171,395;  199,812;11398,781;35,46382
 236,29; 4251,653;  200,582;11347,754;36,34169
 236,89; 4289,308;  176,274;11296,000;36,98863
 237,49; 4328,564;  192,889;11256,101;37,38223
 238,09; 4312,613;  180,581;11083,700;37,89770
 238,69; 4313,817;  216,967;10925,828;38,25664
 239,29; 4190,256;  182,197;10627,175;38,37307
 239,89; 4118,259;  199,197;10325,321;38,70249
 240,48; 4008,354;  175,889;10003,455;38,99709
 241,08; 3881,675;  182,351; 9657,845;39,04096
 241,68; 3810,431;  216,735; 9405,264;39,11068
 242,28; 3660,872;  164,889; 9092,140;39,16080
 242,88; 3584,678;  217,120; 8844,048;39,03543
 243,48; 3430,278;  210,428; 8539,688;38,65709
 244,07; 3289,975;  198,197; 8305,456;38,13593
 244,67; 3217,949;  212,428; 8180,638;37,71889
 245,27; 3079,114;  207,582; 8020,637;36,75300
 245,87; 3021,937;  202,735; 7940,984;36,43204
 246,47; 2937,065;  195,120; 7905,266;35,56281
 247,06; 2852,395;  188,658; 7917,206;34,46620
 247,66; 2787,039;  182,658; 8001,876;33,30744
 248,26; 2767,254;  213,889; 8155,823;32,15041
 248,86; 2727,023;  196,274; 8323,092;31,14071
 249,46; 2632,299;  170,581; 8488,355;29,59588
 250,05; 2708,165;  208,505; 8889,937;28,79318
 250,65; 2655,910;  166,582; 9173,342;27,63845
 251,25; 2681,577;  189,658; 9635,681;26,38061
 251,85; 2691,756;  187,120;10180,646;25,06258
 252,44; 2705,289;  158,197;10737,534;24,07610
 253,04; 2805,206;  200,120;11459,686;23,13664
 253,64; 2801,232;  153,043;12098,464;22,16907
 254,24; 2869,801;  200,581;12955,909;20,92631
 254,84; 2969,530;  183,504;13809,432;20,44650
 255,43; 3027,261;  180,043;14792,636;19,48469
 256,03; 3062,400;  188,120;15635,471;18,60694
 256,63; 3164,895;  193,505;16648,755;18,05740
 257,23; 3203,637;  179,736;17466,164;17,49292
 257,82; 3288,894;  190,659;18317,750;17,09174
 258,42; 3289,718;  171,428;19093,814;16,47937
 259,02; 3408,520;  210,505;20034,920;16,13170
 259,62; 3419,760;  169,274;20667,680;15,85726
 260,21; 3477,534;  180,889;21124,964;15,74023
 260,81; 3492,774;  197,581;21563,090;15,42295
 261,41; 3477,950;  167,505;21953,623;15,19520
 262,01; 3574,570;  208,813;22371,429;15,18664
 262,60; 3569,021;  165,582;22700,703;15,10282
 263,20; 3630,813;  182,274;22984,717;15,12355
 263,80; 3723,654;  213,044;23145,817;15,30827
 264,40; 3720,158;  172,736;23239,186;15,37914
 264,99; 3803,871;  199,659;23434,194;15,51230
 265,59; 3810,169;  188,813;23637,145;15,44398
 266,19; 3920,171;  168,428;23854,922;15,83917
 266,78; 4001,093;  223,736;23827,111;16,00346
 267,38; 4058,743;  186,352;23809,664;16,39224
 267,98; 4131,590;  176,275;23888,705;16,68035
 268,58; 4191,253;  192,352;23919,496;16,85370
 269,17; 4273,140;  175,352;23946,242;17,23868
 269,77; 4353,958;  192,120;23651,977;17,74025
 270,37; 4417,801;  163,967;23594,736;18,15490
 270,96; 4519,572;  229,890;23477,474;18,45216
 271,56; 4513,483;  192,966;23174,664;18,79981
 272,16; 4565,411;  177,044;23038,738;19,19528
 272,75; 4638,152;  193,813;22949,456;19,53071
 273,35; 4754,677;  182,351;22947,835;20,08447
 273,95; 4833,439;  186,120;22897,791;20,46225
 274,54; 4937,172;  168,966;22845,018;21,02750
 275,14; 5142,775;  209,736;23211,307;21,44653
 275,74; 5230,837;  167,967;23262,106;21,92275
 276,33; 5452,146;  212,120;23670,379;22,33766
 276,93; 5632,053;  195,274;24000,998;22,83812
 277,53; 5847,939;  188,966;24480,551;23,29602
 278,12; 6074,798;  170,120;24882,707;23,89340
 278,72; 6367,988;  220,659;25607,498;24,21463
 279,32; 6614,729;  185,966;26004,984;24,89933
 279,91; 6859,309;  164,812;26785,849;25,14739
 280,51; 7174,576;  183,043;27319,255;25,76459
 281,11; 7446,512;  190,120;27968,527;26,12242
 281,70; 7716,596;  170,736;28412,107;26,71917
 282,30; 8030,329;  178,505;28968,664;27,27260
 282,90; 8340,210;  191,813;29335,835;27,95907
 283,49; 8654,349;  204,813;29850,094;28,50213
 284,09; 8973,994;  220,197;30314,267;29,08811
 284,69; 9244,170;  211,120;30676,434;29,65028
 285,28; 9571,092;  199,966;31044,701;30,38161
 285,88; 9825,446;  241,428;31267,217;30,89049
 286,47;10028,385;  192,428;31271,345;31,64832
 287,07;10267,750;  222,120;31492,417;32,12515
 287,67;10560,278;  205,428;31487,842;33,10119
 288,26;10842,589;  177,659;31433,606;34,12128
 288,86;11156,728;  186,889;31461,481;35,07588
 289,46;11559,037;  197,428;31623,521;36,15342
 290,05;11932,521;  187,966;31607,345;37,37997
 290,65;12328,315;  194,659;31866,156;38,31096
 291,24;12852,331;  196,274;31915,746;39,89996
 291,84;13179,280;  207,659;32091,063;40,68456
 292,44;13608,809;  196,966;32171,186;41,94580
 293,03;14088,778;  263,735;32350,547;43,08637
 293,63;14394,182;  186,351;32543,282;43,90970
 294,22;14859,141;  213,197;32649,881;45,15241
 294,82;15156,487;  189,121;32769,966;45,93916
 295,41;15231,672;  181,889;32461,722;46,62287
 296,01;15529,529;  219,505;32380,643;47,60411
 296,61;15612,722;  201,735;32124,057;48,27652
 297,20;15586,558;  194,736;31846,388;48,62881
 297,80;15709,696;  202,658;31633,357;49,33724
 298,39;15670,756;  184,659;31252,493;49,84608
 298,99;15770,292;  212,274;31083,950;50,39577
 299,58;15844,123;  203,120;30912,072;50,93304
 300,18;15795,878;  222,428;30839,754;50,86483
 300,78;15810,520;  190,735;30427,035;51,65905
 301,37;15852,856;  210,121;30360,455;51,88246
 301,97;15991,932;  204,428;30473,968;52,15640
 302,56;15918,231;  192,890;30297,075;52,23639
 303,16;15936,181;  179,197;30194,819;52,49594
 303,75;16062,430;  186,812;30292,221;52,73344
 304,35;16175,789;  189,581;30519,139;52,70834
 304,94;16242,722;  189,351;30455,364;53,04092
 305,54;16234,702;  205,966;30414,317;53,06061
 306,13;16147,531;  160,504;30389,472;52,88644
 306,73;16167,537;  174,504;30209,665;53,24770
 307,33;16096,676;  198,043;30187,156;53,01468
 307,92;16169,422;  198,582;30198,638;53,23603
 308,52;16337,671;  174,274;30562,024;53,19050
 309,11;16541,718;  188,582;30980,083;53,10925
 309,71;16704,815;  169,505;31409,706;52,92959
 310,30;16759,450;  176,505;31509,075;52,92558
 310,90;16972,526;  213,889;31888,998;52,90791
 311,49;16982,680;  194,582;32070,343;52,66729
 312,09;17044,213;  162,120;32165,614;52,75078
 312,68;17271,450;  242,274;32598,653;52,63004
 313,28;17249,806;  162,505;32749,253;52,43635
 313,87;17277,876;  153,659;32846,403;52,37926
 314,47;17346,725;  186,967;33115,126;52,11272
 315,06;17321,876;  170,428;33197,019;51,93224
 315,66;17366,290;  169,351;33394,153;51,75934
 316,25;17181,643;  160,736;33337,011;51,30445
 316,85;17172,822;  160,351;33403,688;51,17558
 317,44;17203,550;  175,274;33484,692;51,12151
 318,04;17060,776;  157,351;33544,541;50,62848
 318,63;16952,781;  168,197;33588,018;50,22344
 319,22;16890,860;  182,120;33732,082;49,80256
 319,82;16880,700;  178,659;33856,351;49,59378
 320,41;16659,063;  204,043;33677,799;49,15797
 321,01;16565,619;  199,274;33829,393;48,66573
 321,60;16448,183;  185,274;33806,977;48,37027
 322,20;16216,981;  172,812;33782,649;47,73653
 322,79;16192,660;  210,735;33976,603;47,33160
 323,39;16040,719;  172,966;34015,257;46,88735
 323,98;15866,779;  168,043;33951,241;46,46906
 324,58;15677,761;  172,736;33805,455;46,10102
 325,17;15464,832;  185,582;33734,222;45,54358
 325,76;15262,100;  205,582;33616,207;45,06506
 326,36;14974,500;  173,120;33254,411;44,74245
 326,95;14752,309;  199,505;32984,694;44,38835
 327,55;14435,770;  174,043;32616,539;43,96002
 328,14;14179,878;  180,812;32335,871;43,53612
 328,74;13939,559;  205,351;31792,817;43,47993
 329,33;13611,493;  198,043;31487,061;42,86951
 329,92;13256,816;  164,505;31012,632;42,44119
 330,52;12833,787;  194,043;30355,557;41,90686
 331,11;12512,197;  183,966;30015,561;41,32609
 331,71;12191,848;  189,505;29379,388;41,11816
 332,30;11931,799;  202,197;28964,056;40,78179
 332,89;11561,954;  227,428;28481,791;40,11602
 333,49;11213,630;  199,351;27864,817;39,81238
 334,08;10945,679;  191,889;27511,186;39,36335
 334,68;10649,413;  193,505;27072,400;38,90007
 335,27;10456,354;  201,812;26754,803;38,61916
 335,86;10203,504;  239,889;26513,330;37,92276
 336,46; 9991,222;  194,428;26268,199;37,57337
 337,05; 9779,169;  183,813;26067,162;37,07154
 337,65; 9616,043;  173,813;26075,676;36,45386
 338,24; 9554,737;  232,120;25997,027;36,18339
 338,83; 9370,051;  211,505;25833,685;35,74460
 339,43; 9264,202;  175,120;25884,022;35,35383
 340,02; 9110,594;  195,890;25775,602;34,85068
 340,61; 9004,708;  176,274;25788,589;34,46949
 341,21; 8946,790;  209,813;25862,432;34,05881
 341,80; 8807,728;  185,351;25820,403;33,63511
 342,40; 8753,333;  189,966;25815,138;33,41779
 342,99; 8692,877;  184,889;25916,022;33,06496
 343,58; 8603,108;  188,351;26076,522;32,50425
 344,18; 8516,136;  197,889;26284,422;31,88713
 344,77; 8477,629;  182,197;26547,850;31,46302
 345,36; 8505,847;  170,120;26860,156;31,23161
 345,96; 8514,598;  209,889;27115,306;30,86631
 346,55; 8485,509;  181,504;27346,653;30,56860
 347,14; 8442,221;  178,581;27617,274;30,11674
 347,74; 8466,700;  157,581;28018,754;29,82329
 348,33; 8586,099;  186,120;28696,644;29,46273
 348,92; 8623,387;  196,889;29244,677;29,00909
 349,52; 8691,029;  157,350;29666,997;28,91827
 350,11; 8661,601;  185,043;29898,258;28,52790
 350,70; 8615,128;  182,812;30043,991;28,23839
 351,29; 8412,450;  177,659;29821,173;27,77940
 351,89; 8326,627;  188,736;29913,883;27,37713
 352,48; 8263,394;  162,197;29795,470;27,33818
 353,07; 8187,823;  191,889;29824,384;26,98367
 353,67; 8053,352;  198,581;29731,006;26,59711
 354,26; 7904,774;  184,043;29434,935;26,39486
 354,85; 7815,710;  188,812;29332,440;26,17004
 355,45; 7645,979;  171,813;29224,412;25,72633
 356,04; 7564,467;  179,812;29136,514;25,50240
 356,63; 7480,945;  216,043;28939,013;25,29300
 357,22; 7383,374;  186,505;28850,138;25,10801
 357,82; 7261,018;  186,198;28602,308;24,89722
 358,41; 7214,295;  209,736;28457,074;24,79724
 359,00; 7060,909;  176,274;28327,452;24,45594
 359,60; 7002,338;  189,274;28233,366;24,29412
 360,19; 6922,474;  179,966;28068,903;24,17628
 360,78; 6855,861;  199,351;27988,969;23,95322
 361,37; 6750,994;  181,659;27727,305;23,84890
 361,97; 6686,896;  187,351;27642,220;23,67356
 362,56; 6543,069;  181,582;27310,954;23,44871
 363,15; 6479,889;  232,889;27156,483;23,20269
 363,74; 6377,411;  186,351;26775,123;23,28449
 364,34; 6303,223;  210,120;26303,456;23,35119
 364,93; 6162,705;  181,813;25956,887;23,20417
 365,52; 6050,658;  153,505;25583,023;23,19019
 366,11; 5985,615;  178,043;25307,498;23,11062
 366,71; 5875,245;  183,813;24973,774;22,95862
 367,30; 5814,050;  191,813;24528,603;23,10180
 367,89; 5805,486;  222,428;24395,366;23,09632
 368,48; 5711,446;  199,351;24142,025;23,02205
 369,07; 5607,051;  192,043;23618,453;23,11497
 369,67; 5540,160;  207,659;23342,537;23,04962
 370,26; 5482,548;  178,659;23107,740;23,13171
 370,85; 5415,260;  187,428;22796,515;23,12270
 371,44; 5422,736;  190,889;22626,101;23,31980
 372,03; 5351,084;  172,659;22354,886;23,34493
 372,63; 5287,610;  161,197;22096,153;23,37097
 373,22; 5259,128;  177,582;21745,260;23,56093
 373,81; 5203,092;  162,582;21484,393;23,64016
 374,40; 5158,508;  169,735;21237,763;23,67935
 374,99; 5149,742;  174,428;21021,717;23,86552
 375,59; 5101,633;  169,120;20697,787;24,02744
 376,18; 5099,022;  191,966;20598,819;24,04611
 376,77; 5106,365;  198,659;20408,493;24,28375
 377,36; 5144,756;  208,505;20319,456;24,54509
 377,95; 5108,664;  203,505;20092,600;24,66256
 378,55; 5130,157;  170,197;19882,163;25,16218
 379,14; 5121,050;  189,120;19870,180;25,05927
 379,73; 5155,392;  191,351;19660,041;25,49756
 380,32; 5226,372;  199,505;19781,111;25,67137
 380,91; 5190,523;  173,582;19652,911;25,75521
 381,50; 5264,663;  194,428;19493,751;26,27157
 382,10; 5274,372;  164,659;19444,188;26,50331
 382,69; 5291,392;  160,120;19410,351;26,65564
 383,28; 5390,608;  203,120;19366,878;27,06926
 383,87; 5388,041;  175,505;19281,403;27,28234
 384,46; 5429,759;  165,813;19211,102;27,63910
 385,05; 5482,496;  207,659;19192,321;27,78473
 385,64; 5532,769;  189,274;19153,267;28,17706
 386,24; 5567,032;  165,274;19094,815;28,53613
 386,83; 5714,843;  201,428;19194,181;29,02904
 387,42; 5757,650;  198,043;19286,631;29,12529
 388,01; 5863,170;  188,352;19384,455;29,56234
 388,60; 6032,718;  181,428;19675,890;30,01514
 389,19; 6146,286;  163,890;19851,507;30,38659
 389,78; 6289,021;  172,506;20053,837;30,76512
 390,37; 6568,381;  235,198;20545,717;31,18179
 390,96; 6615,011;  185,813;20697,881;31,34349
 391,56; 6744,803;  181,814;20839,801;31,76974
 392,15; 6927,336;  172,429;21159,881;32,18546
 392,74; 7004,589;  151,968;21210,378;32,54102
 393,33; 7228,278;  182,352;21574,769;32,93656
 393,92; 7466,147;  195,045;21936,229;33,44391
 394,51; 7579,180;  165,198;22105,604;33,79145
 395,10; 7756,988;  206,353;22334,791;34,12186
 395,69; 7876,094;  197,122;22467,115;34,48125
 396,28; 7987,881;  191,276;22616,925;34,76646
 396,87; 8132,779;  200,354;22620,824;35,38028
 397,46; 8249,965;  196,277;22812,755;35,60982
 398,06; 8441,045;  207,585;23021,439;36,08974
 398,65; 8505,581;  186,971;23034,531;36,40919
 399,24; 8706,810;  204,048;23153,410;37,05010
 399,83; 8714,825;  181,434;23194,845;37,08008
 400,42; 8929,918;  216,897;23340,592;37,68006
 401,01; 9025,177;  192,744;23410,225;38,04217
 401,60; 9115,074;  206,900;23408,472;38,39470
 402,19; 9191,954;  219,055;23452,836;38,62006
 402,78; 9331,057;  218,596;23456,829;39,21323
 403,37; 9297,280;  204,675;23295,193;39,37809
 403,96; 9411,710;  206,986;23138,574;40,13993
 404,55; 9458,996;  217,604;23104,145;40,37916
 405,14; 9483,572;  202,607;22971,214;40,76211
 405,73; 9518,339;  213,840;22778,482;41,23486
 406,32; 9613,479;  212,996;22757,039;41,69830
 406,91; 9547,120;  217,076;22488,069;41,89326
 407,50; 9589,647;  215,077;22286,033;42,47469
 408,09; 9615,198;  191,539;22091,556;43,03037
 408,68; 9668,548;  207,925;21913,293;43,58656
 409,27; 9621,486;  193,770;21733,089;43,76980
 409,86; 9707,148;  206,306;21625,582;44,35650
 410,45; 9732,715;  233,151;21523,443;44,61923
 411,04; 9752,361;  223,996;21489,152;44,80741
 411,63; 9654,080;  218,147;21239,526;44,88732
 412,22; 9681,833;  215,145;21033,757;45,47223
 412,81; 9653,707;  229,222;20785,249;45,84780
 413,40; 9502,163;  237,144;20533,190;45,64938
 413,99; 9534,650;  278,067;20126,196;46,63705
 414,58; 9376,651;  196,990;19770,317;46,89883
 415,17; 9341,455;  210,914;19589,046;47,11776
 415,76; 9343,427;  206,145;19412,475;47,57432
 416,35; 9318,836;  202,068;19219,997;47,93775
 416,94; 9433,974;  237,761;19264,907;48,33207
 417,53; 9608,840;  201,606;19490,625;48,76990
 418,12; 9693,842;  208,221;19585,976;48,95108
 418,71; 9938,205;  233,759;19823,904;49,53739
 419,30;10075,850;  216,452;20003,289;49,82806
 419,89;10213,068;  209,529;20200,787;50,03957
 420,48;10410,967;  235,221;20350,440;50,58730
 421,07;10533,451;  227,913;20547,339;50,71766
 421,66;10587,427;  197,605;20523,452;51,11631
 422,25;10617,253;  208,681;20441,884;51,44303
 422,84;10666,667;  244,296;20467,133;51,53763
 423,43;10584,510;  217,835;20204,469;51,86804
 424,02;10516,763;  236,219;19962,138;52,11693
 424,60;10352,016;  217,065;19606,941;52,26930
 425,19;10288,893;  218,296;19336,560;52,67527
 425,78;10324,977;  232,604;19274,681;53,00038
 426,37;10309,981;  238,373;19108,498;53,37330
 426,96;10262,037;  203,834;19034,526;53,41388
 427,55;10238,202;  219,757;18843,583;53,79370
 428,14;10101,086;  210,372;18597,684;53,79097
 428,73;10141,760;  212,680;18535,934;54,18841
 429,32;10196,421;  232,603;18493,947;54,56234
 429,91;10193,956;  242,834;18528,494;54,42036
 430,50;10173,917;  228,372;18356,212;54,86337
 431,08;10148,311;  234,295;18080,146;55,55362
 431,67;10203,810;  279,987;18101,671;55,68398
 432,26;10085,106;  287,602;17955,940;55,45232
 432,85; 9963,825;  294,064;17598,413;55,88053
 433,44; 9800,612;  316,986;17209,777;56,14008
 434,03; 9622,609;  324,832;16901,479;56,08961
 434,62; 9489,822;  279,909;16528,690;56,68064
 435,21; 9429,546;  308,371;16289,582;57,07436
 435,79; 9329,978;  283,140;16073,929;57,29187
 436,38; 9351,032;  282,370;16032,005;57,58014
 436,97; 9339,396;  277,678;15945,304;57,83721
 437,56; 9237,067;  273,831;15686,080;58,15657
 438,15; 9174,408;  261,677;15673,361;57,83100
 438,74; 9182,968;  277,600;15653,412;57,91803
 439,33; 9286,764;  258,216;15678,154;58,55113
 439,91; 9310,012;  232,754;15758,901;58,46433
 440,50; 9397,572;  284,215;15791,105;58,76972
 441,09; 9488,604;  264,753;15927,054;58,89205
 441,68; 9526,531;  251,599;15847,027;59,47212
 442,27; 9499,942;  250,215;15855,998;59,27115
 442,86; 9451,397;  213,829;15895,016;58,90860
 443,44; 9571,459;  230,137;15949,850;59,42425
 444,03; 9649,999;  293,060;16007,625;59,54310
 444,62; 9536,677;  228,522;15839,041;59,62746
 445,21; 9504,683;  247,060;15662,234;60,05526
 445,80; 9445,786;  275,752;15579,797;59,91902
 446,39; 9330,512;  300,829;15382,504;59,87189
 446,97; 9174,490;  227,828;15161,275;59,91022
 447,56; 9153,144;  226,905;14913,420;60,77847
 448,15; 8969,650;  234,290;14828,971;59,85304
 448,74; 8891,903;  249,213;14518,444;60,56871
 449,33; 8818,325;  250,597;14418,740;60,47178
 449,91; 8711,833;  229,597;14204,505;60,69618
 450,50; 8589,461;  232,059;14000,971;60,69763
 451,09; 8538,679;  238,828;13895,427;60,77539
 451,68; 8487,897;  267,443;13811,310;60,69503
 452,26; 8464,843;  260,520;13742,481;60,85408
 452,85; 8413,695;  236,289;13641,557;61,00144
 453,44; 8405,499;  248,750;13616,667;61,01735
 454,03; 8466,754;  230,827;13558,093;61,79757
 454,61; 8393,618;  221,442;13543,266;61,34427
 455,20; 8536,438;  262,596;13727,143;61,44910
 455,79; 8520,085;  265,827;13714,342;61,37673
 456,38; 8614,371;  262,519;13841,772;61,50451
 456,97; 8676,238;  243,288;13823,702;62,09641
 457,55; 8700,044;  241,134;13864,112;62,09296
 458,14; 8727,733;  265,673;13856,102;62,26485
 458,73; 8651,471;  258,057;13794,557;62,00579
 459,31; 8724,573;  272,133;13801,002;62,47706
 459,90; 8780,074;  292,287;13894,709;62,39909
 460,49; 8865,444;  326,364;13979,122;62,54472
 461,08; 8916,840;  239,441;14041,256;62,87144
 461,66; 8987,510;  249,518;14148,009;62,87008
 462,25; 9008,430;  249,671;14169,362;62,92351
 462,84; 9052,191;  266,210;14233,855;62,90237
 463,43; 9028,930;  220,671;14197,392;63,02093
 464,01; 9104,694;  252,825;14211,433;63,41513
 464,60; 9058,628;  294,902;14133,045;63,33022
 465,19; 8907,653;  226,901;13917,146;63,40830
 465,77; 8838,984;  245,901;13931,470;62,78937
 466,36; 8870,790;  263,748;13781,592;63,67171
 466,95; 8649,567;  249,517;13545,097;63,17927
 467,53; 8500,755;  262,209;13231,631;63,52285
 468,12; 8328,910;  287,516;12985,825;63,32649
 468,71; 8225,647;  256,517;12769,913;63,68479
 469,29; 8055,099;  244,747;12563,421;63,40254
 469,88; 7853,828;  243,285;12255,789;63,35517
 470,47; 7987,692;  308,824;12429,383;63,35407
 471,06; 7914,615;  245,747;12327,576;63,47439
 471,64; 8027,880;  258,439;12426,475;63,85123
 472,23; 7999,418;  238,515;12484,723;63,37392
 472,81; 8043,911;  235,669;12537,077;63,47437
 473,40; 8167,453;  244,438;12699,088;63,61492
 473,99; 8266,096;  337,131;12877,102;63,22954
 474,57; 8280,299;  254,746;13007,664;62,93111
 475,16; 8419,115;  259,900;13135,527;63,36945
 475,75; 8498,106;  277,361;13270,843;63,26822
 476,33; 8534,577;  273,438;13301,278;63,41143
 476,92; 8566,034;  284,515;13382,495;63,22745
 477,51; 8586,338;  273,746;13473,078;62,97737
 478,09; 8630,317;  274,361;13432,183;63,50561
 478,68; 8601,661;  266,592;13402,743;63,45138
 479,27; 8649,630;  285,746;13431,990;63,62185
 479,85; 8640,521;  260,592;13449,749;63,53650
 480,44; 8659,228;  258,591;13565,837;63,12829
 481,02; 9550,776;  276,822;14805,194;63,83340
 481,61;10782,153;  287,591;16767,418;63,68126
 482,20;11540,000;  272,207;17955,114;63,72139
 482,78;12059,424;  308,668;18742,703;63,74489
 483,37;12390,983;  304,745;19311,268;63,58995
 483,95;12574,109;  325,591;19524,179;63,79906
 484,54;12659,803;  324,668;19721,819;63,59251
 485,13;12650,574;  299,667;19674,419;63,74743
 485,71;12485,615;  267,283;19359,168;63,99751
 486,30;12352,517;  311,514;19163,734;63,87048
 486,88;12081,560;  350,129;18790,873;63,61690
 487,47;11703,910;  319,360;18111,474;63,98650
 488,05;11108,170;  314,975;17285,299;63,60041
 488,64;10380,977;  298,052;16075,825;63,90588
 489,23; 9192,388;  315,129;14276,871;63,58274
 489,81; 7871,074;  318,436;12269,871;63,19440
 490,40; 7447,550;  283,282;11577,264;63,43438
 490,98; 7301,299;  255,051;11339,911;63,56642
 491,57; 7233,696;  291,129;11214,719;63,55573
 492,15; 7182,615;  261,051;11135,031;63,65253
 492,74; 7094,303;  270,052;11148,520;62,73173
 493,32; 7091,180;  290,436;10980,505;63,61740
 493,91; 6959,903;  275,820;10887,486;62,98806
 494,50; 6938,215;  273,128;10879,117;62,84268
 495,08; 6903,635;  260,205;10835,710;62,81903
 495,67; 6892,783;  291,359;10817,349;62,71547
 496,25; 6788,220;  222,974;10657,382;62,91920
 496,84; 6784,294;  249,359;10687,065;62,60892
 497,42; 6745,326;  241,974;10616,052;62,68847
 498,01; 6762,658;  259,513;10542,979;63,23884
 498,59; 6658,060;  221,359;10499,036;62,62798
 499,18; 6618,616;  244,051;10458,382;62,40805
 499,76; 6613,597;  256,589;10363,917;62,89504
 500,35; 6425,930;  255,589;10202,439;62,03311
 500,93; 6449,787;  245,282;10220,783;62,19743
 501,52; 6351,144;  244,051;10134,040;61,75025
 502,10; 6326,785;  259,743;10034,794;62,06660
 502,69; 6232,724;  239,896; 9925,268;61,87504
 503,27; 6147,985;  222,743; 9663,925;62,75953
 503,86; 6040,968;  245,127; 9678,542;61,43947
 504,44; 5945,773;  218,819; 9571,680;61,23211
 505,03; 5815,711;  208,358; 9369,418;61,20856
 505,61; 5742,521;  219,127; 9253,244;61,13928
 506,19; 5622,508;  242,666; 9039,700;61,15517
 506,78; 5535,350;  224,588; 8895,900;61,24520
 507,36; 5405,948;  230,742; 8739,459;60,82240
 507,95; 5268,974;  229,127; 8601,409;60,19682
 508,53; 5254,651;  227,358; 8497,550;60,78810
 509,12; 5103,512;  239,357; 8385,061;59,71436
 509,70; 5031,751;  250,511; 8219,490;59,99815
 510,29; 4949,976;  258,126; 8094,530;59,87249
 510,87; 4834,238;  227,742; 7879,152;60,20454
 511,46; 4712,484;  218,434; 7755,661;59,62471
 512,04; 4592,423;  224,665; 7594,866;59,26240
 512,62; 4513,001;  243,050; 7412,305;59,55921
 513,21; 4446,746;  212,357; 7288,646;59,83911
 513,79; 4365,758;  222,741; 7188,436;59,47744
 514,38; 4223,421;  198,818; 7033,647;58,88374
 514,96; 4193,679;  251,511; 6942,352;58,91888
 515,54; 4108,596;  213,510; 6836,429;58,81223
 516,13; 4036,226;  222,664; 6752,168;58,40508
 516,71; 3983,809;  225,203; 6620,696;58,76961
 517,30; 3874,231;  213,356; 6522,758;58,02253
 517,88; 3820,720;  240,048; 6434,733;57,80232
 518,46; 3718,329;  222,279; 6292,771;57,59089
 519,05; 3748,030;  225,048; 6254,049;58,43393
 519,63; 3665,113;  231,433; 6195,050;57,57714
 520,22; 3631,452;  244,663; 6145,151;57,39846
 520,80; 3610,795;  231,971; 6080,477;57,77243
 521,38; 3633,128;  260,587; 6102,253;57,73253
 521,97; 3537,881;  229,971; 6046,601;56,86987
 522,55; 3533,070;  241,048; 6010,541;57,05911
 523,13; 3503,644;  219,817; 6021,370;56,60255
 523,72; 3472,665;  226,510; 5992,977;56,29365
 524,30; 3552,247;  235,432; 6131,945;56,25045
 524,89; 3525,455;  218,048; 6108,543;56,14820
 525,47; 3605,283;  243,740; 6228,118;56,17197
 526,05; 3590,696;  206,355; 6263,749;55,87124
 526,64; 3659,277;  238,201; 6358,619;55,89612
 527,22; 3735,367;  250,047; 6505,122;55,71987
 527,80; 3804,878;  266,816; 6599,458;55,87024
 528,39; 3798,481;  226,586; 6700,301;55,17536
 528,97; 3883,676;  224,124; 6868,512;55,07734
 529,55; 3972,826;  248,432; 6996,615;55,19106
 530,14; 4062,685;  252,739; 7200,328;54,83839
 530,72; 4081,809;  229,509; 7309,155;54,41374
 531,30; 4111,797;  208,585; 7461,193;53,81805
 531,89; 4154,461;  231,201; 7525,255;53,78710
 532,47; 4205,238;  267,355; 7669,762;53,19734
 533,05; 4216,130;  251,740; 7672,660;53,42182
 533,63; 4247,078;  261,355; 7705,221;53,54373
 534,22; 4230,735;  239,431; 7765,742;53,03135
 534,80; 4280,311;  251,277; 7789,344;53,44917
 535,38; 4344,797;  334,893; 7959,271;52,59320
 535,97; 4258,476;  251,508; 7886,881;52,47901
 536,55; 4281,976;  280,354; 7904,562;52,48574
 537,13; 4259,014;  288,047; 7905,877;52,12727
 537,71; 4304,209;  322,047; 7940,628;52,26908
 538,30; 4307,988;  334,893; 7993,909;51,87475
 538,88; 4338,768;  352,277; 8073,924;51,62747
 539,46; 4430,192;  410,585; 8243,361;51,31779
 540,05; 4512,250;  405,200; 8356,739;51,65100
 540,63; 4562,809;  441,046; 8556,673;50,78798
 541,21; 4614,629;  479,739; 8696,818;50,32068
 541,79; 4658,755;  478,508; 8803,419;50,21371
 542,38; 4745,599;  501,893; 8941,490;50,28328
 542,96; 4774,903;  520,892; 9065,114;49,78817
 543,54; 4855,531;  539,200; 9251,537;49,54274
 544,12; 4916,350;  493,816; 9436,371;49,45492
 544,70; 4919,302;  494,431; 9440,660;49,46075
 545,29; 4975,131;  504,893; 9648,795;48,88764
 545,87; 4984,293;  486,816; 9679,265;48,92578
 546,45; 4929,088;  465,200; 9709,311;48,28899
 547,03; 4958,572;  452,662; 9797,249;48,21947
 547,62; 4973,056;  418,585; 9934,378;47,86223
 548,20; 5057,036;  435,200;10100,372;47,81949
 548,78; 5041,104;  396,507;10219,879;47,28108
 549,36; 5120,481;  366,430;10373,605;47,50642
 549,94; 5176,972;  335,892;10554,876;47,37340
 550,53; 5240,900;  355,277;10762,159;46,94608
 551,11; 5259,797;  322,661;10924,151;46,57021
 551,69; 5384,215;  334,046;11276,010;46,15414
 552,27; 5442,710;  286,507;11465,523;46,12394
 552,85; 5606,741;  305,046;11817,508;46,05179
 553,44; 5706,299;  298,430;12110,552;45,78236
 554,02; 5790,803;  314,046;12431,922;45,19569
 554,60; 5885,280;  263,122;12768,432;44,95816
 555,18; 6096,684;  306,969;13114,437;45,20577
 555,76; 6163,202;  288,199;13433,121;44,69409
 556,34; 6296,855;  299,891;13810,378;44,38747
 556,93; 6430,055;  281,738;14192,200;44,19923
 557,51; 6493,862;  253,661;14467,113;43,90349
 558,09; 6678,628;  280,892;14830,679;43,97134
 558,67; 6824,556;  278,968;15220,656;43,80755
 559,25; 6884,443;  289,199;15470,982;43,44183
 559,83; 6950,473;  271,430;15684,502;43,33363
 560,41; 7099,582;  258,968;16098,894;43,18589
 561,00; 7179,353;  272,122;16391,747;42,84983
 561,58; 7247,749;  271,815;16682,131;42,50945
 562,16; 7345,762;  259,661;16993,673;42,34550
 562,74; 7444,922;  242,353;17349,904;42,10169
 563,32; 7622,956;  248,737;17697,474;42,26219
 563,90; 7713,493;  274,507;18129,547;41,66323
 564,48; 7864,155;  277,199;18495,332;41,64508
 565,06; 7991,626;  261,661;19084,344;41,06729
 565,65; 8240,287;  272,506;19659,953;41,09763
 566,23; 8532,165;  320,507;20376,806;40,94304
 566,81; 8723,387;  266,584;21113,723;40,56578
 567,39; 9051,935;  284,353;21934,158;40,49728
 567,97; 9251,891;  286,814;22473,937;40,40667
 568,55; 9482,075;  308,737;23278,264;39,93699
 569,13; 9761,095;  284,891;24018,772;39,92690
 569,71;10058,552;  260,276;24926,337;39,72372
 570,29;10413,446;  306,661;25849,126;39,56856
 570,87;10660,943;  304,969;26426,877;39,64479
 571,45;10848,213;  295,814;27080,061;39,39778
 572,03;10961,586;  266,430;27550,446;39,19935
 572,61;11136,312;  254,660;28285,190;38,82071
 573,20;11384,282;  266,122;28927,400;38,79157
 573,78;11548,893;  257,968;29476,135;38,64351
 574,36;11721,529;  284,814;30004,297;38,48221
 574,94;11797,314;  332,045;30271,657;38,29465
 575,52;11754,387;  269,737;30613,817;37,84808
 576,10;11927,456;  330,429;31103,233;37,68596
 576,68;12072,929;  308,199;31576,386;37,62524
 577,26;12233,528;  327,583;32303,583;37,23400
 577,84;12410,403;  332,276;32728,658;37,28233
 578,42;12396,846;  376,737;32927,349;36,92745
 579,00;12389,138;  317,122;33151,719;36,76615
 579,58;12376,461;  367,506;33271,577;36,49687
 580,16;12286,071;  328,429;33317,731;36,24703
 580,74;12295,113;  331,199;33552,907;36,01234
 581,32;12234,461;  324,583;33524,886;35,87280
 581,90;12102,616;  351,122;33594,888;35,34947
 582,48;12053,700;  340,352;33723,007;35,08812
 583,06;12077,867;  347,737;33760,973;35,10624
 583,64;11983,671;  327,737;33886,412;34,73300
 584,22;11894,570;  344,275;33797,948;34,52624
 584,80;11661,392;  355,737;33566,622;34,04202
 585,38;11451,652;  354,276;33161,122;33,82640
 585,96;11402,054;  330,891;33270,794;33,61019
 586,54;11340,429;  342,121;33252,646;33,41882
 587,12;11288,827;  324,583;33408,996;33,14021
 587,70;11268,789;  357,583;33443,200;32,97870
 588,28;11188,386;  335,737;33477,737;32,74591
 588,86;11157,212;  344,198;33657,805;32,45825
 589,44;11028,781;  324,275;33671,790;32,09986
 590,02;11092,403;  321,660;33925,022;32,05258
 590,59;11017,974;  313,045;34083,572;31,69903
 591,17;10999,813;  315,121;34274,314;31,46333
 591,75;10947,496;  303,506;34374,881;31,24027
 592,33;10954,985;  327,967;34620,470;30,98933
 592,91;10881,693;  283,198;34771,483;30,73071
 593,49;10945,184;  283,429;35189,194;30,54440
 594,07;10923,883;  308,429;35345,736;30,29758
 594,65;10880,283;  319,583;35391,958;30,11116
 595,23;10855,459;  308,506;35716,319;29,78708
 595,81;10842,949;  315,275;35977,566;29,52046
 596,39;10832,656;  288,890;35999,112;29,52590
 596,97;10755,742;  279,121;36227,315;29,14366
 597,55;10690,311;  293,044;36122,513;29,01876
 598,12;10601,367;  274,198;36072,980;28,84782
 598,70;10540,001;  284,429;36219,292;28,53934
 599,28;10535,966;  296,813;36361,352;28,39119
 599,86;10440,015;  286,429;36401,068;28,11488
 600,44;10330,254;  259,121;36511,113;27,78091
 601,02;10358,502;  309,428;36583,477;27,70320
 601,60;10286,181;  288,967;36581,955;27,54586
 602,18;10236,891;  260,967;36646,587;27,41722
 602,75;10178,830;  258,044;36623,544;27,28076
 603,33;10102,687;  296,352;36645,520;26,97815
 603,91;10033,277;  264,044;36615,284;26,87455
 604,49; 9980,428;  286,890;36678,160;26,63699
 605,07; 9947,055;  299,044;36855,161;26,39233
 605,65; 9932,855;  298,352;36857,453;26,35323
 606,23; 9829,436;  352,198;36919,186;25,91747
 606,80; 9808,340;  371,967;36917,299;25,82101
 607,38; 9708,102;  397,736;36983,195;25,44827
 607,96; 9716,424;  448,737;37046,533;25,32308
 608,54; 9651,443;  494,352;37144,670;24,98503
 609,12; 9593,382;  495,890;37068,744;24,87499
 609,70; 9568,595;  516,121;37209,858;24,67035
 610,27; 9502,865;  525,737;37198,868;24,47876
 610,85; 9448,686;  547,275;37267,095;24,24143
 611,43; 9412,910;  532,352;37325,555;24,13641
 612,01; 9272,929;  495,429;37049,020;24,01269
 612,59; 9222,966;  507,582;37110,812;23,81042
 613,16; 9089,751;  476,198;37032,424;23,56248
 613,74; 9037,113;  458,582;36940,426;23,51452
 614,32; 8956,401;  432,352;36958,187;23,33704
 614,90; 8893,441;  404,429;36767,355;23,34524
 615,48; 8729,402;  353,506;36608,174;23,10295
 616,05; 8629,136;  345,198;36442,961;22,94862
 616,63; 8576,638;  355,660;36314,979;22,86188
 617,21; 8478,774;  355,891;36290,669;22,60452
 617,79; 8420,096;  334,660;36184,525;22,55360
 618,36; 8367,335;  348,275;36073,224;22,44667
 618,94; 8182,179;  294,968;35842,409;22,18785
 619,52; 8091,163;  312,275;35522,166;22,09291
 620,10; 8001,991;  293,506;35553,048;21,86212
 620,67; 7965,757;  312,814;35336,347;21,85086
 621,25; 7864,014;  323,890;35166,448;21,64056
 621,83; 7805,962;  307,968;35156,147;21,51617
 622,41; 7776,591;  354,121;35207,230;21,29644
 622,98; 7649,107;  314,429;34947,136;21,17847
 623,56; 7607,092;  323,506;34908,705;21,05984
 624,14; 7495,805;  301,583;34790,615;20,85945
 624,72; 7422,906;  301,660;34705,503;20,69898
 625,29; 7426,673;  291,968;34756,457;20,70161
 625,87; 7419,355;  337,352;34837,231;20,52762
 626,45; 7254,672;  287,583;34537,878;20,34169
 627,02; 7245,229;  297,967;34593,361;20,25713
 627,60; 7148,184;  284,505;34423,962;20,10483
 628,18; 7086,536;  267,044;34534,974;19,90051
 628,76; 7066,072;  274,814;34532,158;19,82424
 629,33; 7006,409;  299,506;34593,022;19,55735
 629,91; 6976,145;  298,352;34596,202;19,47000
 630,49; 6992,989;  291,583;34616,041;19,52370
 631,06; 6938,051;  293,814;34768,072;19,27304
 631,64; 6913,099;  299,045;34820,439;19,15929
 632,22; 6850,860;  260,506;34666,778;19,15451
 632,79; 6864,517;  295,199;34991,453;18,93380
 633,37; 6854,398;  284,275;35015,678;18,91695
 633,95; 6794,190;  281,276;35039,175;18,73794
 634,52; 6776,605;  268,891;35190,506;18,63520
 635,10; 6746,585;  268,198;35175,229;18,55897
 635,68; 6731,797;  268,506;35361,208;18,41776
 636,25; 6639,453;  256,276;35344,339;18,19188
 636,83; 6669,841;  247,122;35544,697;18,19592
 637,41; 6594,762;  265,814;35562,766;17,93058
 637,98; 6631,901;  295,660;35762,758;17,86512
 638,56; 6616,949;  275,276;35837,239;17,83274
 639,13; 6563,211;  259,275;35831,727;17,72140
 639,71; 6606,429;  322,429;36043,761;17,59173
 640,29; 6444,208;  236,506;35850,715;17,43041
 640,86; 6419,059;  263,583;36069,057;17,19144
 641,44; 6385,063;  257,121;36085,707;17,10350
 642,02; 6414,837;  278,045;36048,048;17,15625
 642,59; 6403,149;  258,968;36266,775;17,06347
 643,17; 6334,077;  259,968;36193,270;16,90384
 643,74; 6341,543;  252,121;36194,381;16,94223
 644,32; 6243,471;  274,814;36117,261;16,65248
 644,89; 6243,783;  283,045;36183,449;16,60354
 645,47; 6210,095;  296,891;36196,868;16,47133
 646,05; 6154,484;  276,275;36075,132;16,42010
 646,62; 6107,104;  265,506;36104,320;16,29964
 647,20; 6130,263;  273,968;36276,047;16,26655
 647,77; 5999,190;  246,506;36035,696;16,07380
 648,35; 6000,579;  238,891;36043,038;16,09224
 648,92; 5948,815;  276,121;36050,379;15,85691
 649,50; 5921,050;  240,891;35983,798;15,89171
 650,08; 5873,593;  230,198;35946,140;15,80077
 650,65; 5837,521;  244,275;36039,712;15,62558
 651,23; 5935,371;  220,121;36745,823;15,64720
 651,80; 6043,684;  237,583;37683,165;15,50544
 652,38; 6100,304;  243,814;38092,660;15,47336
 652,95; 6087,847;  231,352;38508,002;15,30044
 653,53; 6175,082;  252,583;38739,728;15,38825
 654,10; 6173,548;  280,198;38903,685;15,25846
 654,68; 6068,168;  238,275;38753,873;15,13645
 655,25; 6033,249;  235,198;38879,907;15,00348
 655,83; 6035,023;  236,352;38977,403;14,96777
 656,40; 6048,028;  265,890;38915,821;14,96028
 656,98; 5927,109;  250,275;38815,932;14,71992
 657,55; 5904,421;  247,967;38672,659;14,72088
 658,13; 5823,195;  247,814;38286,923;14,65697
 658,70; 5754,046;  269,429;38035,342;14,52266
 659,28; 5600,127;  252,429;37316,914;14,42809
 659,85; 5438,593;  252,429;36447,487;14,32838
 660,43; 5448,752;  267,737;36491,752;14,30271
 661,00; 5429,603;  245,660;36550,939;14,27876
 661,58; 5438,146;  248,275;36974,358;14,13129
 662,15; 5431,073;  231,429;37100,700;14,10292
 662,73; 5555,539;  304,044;37354,734;14,17381
 663,30; 5455,467;  244,736;37524,922;13,97721
 663,88; 5468,241;  248,429;37750,802;13,91862
 664,45; 5493,630;  235,506;37858,682;13,97576
 665,03; 5490,557;  252,736;38361,639;13,74435
 665,60; 5614,793;  331,506;38779,135;13,74152
 666,17; 5565,182;  250,506;38898,553;13,75147
 666,75; 5557,263;  239,275;39253,895;13,63076
 667,32; 5641,191;  263,044;39464,698;13,71918
 667,90; 5621,734;  246,890;39756,347;13,60394
 668,47; 5666,200;  265,198;39945,535;13,61128
 669,05; 5633,743;  240,813;40359,877;13,44231
 669,62; 5601,363;  213,198;40359,911;13,42119
 670,19; 5600,829;  229,736;40585,253;13,30944
 670,77; 5623,295;  251,121;40779,671;13,25528
 671,34; 5606,069;  249,736;40614,244;13,26991
 671,92; 5615,843;  228,890;40997,816;13,21338
 672,49; 5593,924;  260,582;40982,850;13,09687
 673,06; 5551,006;  217,813;41101,115;13,04492
 673,64; 5534,472;  232,582;41085,918;12,97786
 674,21; 5495,861;  217,967;41002,568;12,94090
 674,79; 5589,635;  246,736;41187,525;13,05031
 675,36; 5532,716;  259,582;41342,174;12,83545
 675,93; 5524,490;  232,429;41124,900;12,94141
 676,51; 5549,802;  252,967;41300,550;12,90413
 677,08; 5528,345;  256,813;41486,814;12,78567
 677,65; 5521,119;  249,659;41574,925;12,75602
 678,23; 5519,124;  245,967;41732,806;12,71043
 678,80; 5538,821;  230,659;41832,301;12,75950
 679,38; 5535,594;  241,582;41962,950;12,68897
 679,95; 5584,753;  247,044;42179,446;12,72932
 680,52; 5579,911;  234,659;42490,095;12,64986
 681,10; 5633,454;  256,352;42735,129;12,65833
 681,67; 5666,997;  249,121;43149,548;12,62896
 682,24; 5672,002;  230,428;43186,197;12,66785
 682,82; 5694,314;  238,352;43766,462;12,53434
 683,39; 5764,242;  288,275;44063,112;12,50939
 683,96; 5749,785;  240,505;44259,915;12,51557
 684,54; 5777,097;  220,505;44663,795;12,50266
 685,11; 5847,409;  268,813;45022,521;12,46510
 685,68; 5851,029;  240,967;45434,324;12,41347
 686,25; 5855,110;  223,659;45448,743;12,45205
 686,83; 5846,653;  231,198;45624,777;12,37059
 687,40; 5890,658;  218,275;45970,350;12,39809
 687,97; 5964,970;  280,967;46409,537;12,32209
 688,55; 5902,513;  218,736;46411,725;12,30442
 689,12; 5931,518;  205,274;46692,990;12,31776
 689,69; 5974,138;  227,659;46772,870;12,34601
 690,26; 5955,988;  245,044;46844,366;12,25542
 690,84; 5976,301;  249,274;47133,323;12,21530
 691,41; 6011,998;  251,967;47222,664;12,26303
 691,98; 5981,771;  244,967;47439,622;12,15562
 692,56; 6040,853;  233,044;47516,809;12,28288
 693,13; 6052,088;  287,659;47545,766;12,19776
 693,70; 6069,708;  256,274;47684,877;12,25723
 694,27; 6035,713;  243,890;47890,604;12,15577
 694,84; 6071,486;  238,044;47984,253;12,21760
 695,42; 6104,952;  276,582;48083,133;12,19157
 695,99; 6059,265;  238,351;48293,629;12,11295
 696,56; 6057,577;  243,121;48149,124;12,13722
 697,13; 6131,582;  241,197;48488,697;12,20868
 697,71; 6120,048;  225,582;48519,500;12,20540
 698,28; 6159,898;  244,120;48871,380;12,16556
 698,85; 6135,211;  196,659;48863,106;12,20256
 699,42; 6119,754;  214,505;49072,371;12,08659
 699,99; 6178,373;  242,044;49106,405;12,14859
 700,57; 6182,224;  243,428;49142,055;12,14512
 701,14; 6182,460;  231,505;49239,550;12,14281
 701,71; 6257,849;  250,967;49401,815;12,22132
 702,28; 6235,622;  242,351;49536,310;12,15823
 702,85; 6273,704;  245,967;49647,575;12,20150
 703,43; 6318,170;  257,197;49848,763;12,22178
 704,00; 6332,405;  280,582;50070,028;12,15483
 704,57; 6343,333;  247,274;50047,293;12,24108
 705,14; 6347,261;  289,582;50348,250;12,10116
 705,71; 6385,957;  280,582;50303,822;12,20508
 706,28; 6383,116;  253,274;50223,010;12,26711
 706,86; 6420,890;  276,966;50540,890;12,22333
 707,43; 6455,048;  298,351;50541,540;12,25379
 708,00; 6416,053;  284,582;50501,266;12,21003
 708,57; 6390,596;  263,043;50353,838;12,23289
 709,14; 6439,062;  285,966;50567,488;12,23729
 709,71; 6450,912;  264,582;50621,368;12,28500
 710,28; 6554,225;  258,428;50908,556;12,42997
 710,86; 6521,845;  260,351;50935,205;12,35621
 711,43; 6587,080;  282,197;50873,316;12,46243
 712,00; 6588,315;  266,582;51054,350;12,44735
 712,57; 6567,935;  278,659;51204,769;12,34981
 713,14; 6620,709;  255,813;51192,956;12,49559
 713,71; 6631,560;  265,120;51185,606;12,50271
 714,28; 6603,487;  257,197;51191,640;12,45972
 714,85; 6591,030;  239,505;50995,212;12,51391
 715,42; 6670,958;  249,351;51154,477;12,61485
 716,00; 6736,424;  309,120;51281,819;12,60931
 716,57; 6654,044;  250,659;51370,237;12,52629
 717,14; 6675,741;  238,197;51300,656;12,60719
 717,71; 6693,130;  230,659;51458,690;12,61511
 718,28; 6758,904;  268,889;51516,032;12,66415
 718,85; 6744,293;  227,351;51475,758;12,71638
 719,42; 6792,221;  260,889;51744,023;12,68635
 719,99; 6789,610;  224,197;51414,134;12,82559
 720,56; 6839,230;  265,428;51757,552;12,76662
 721,13; 6841,926;  251,735;51795,432;12,78564
 721,70; 6870,931;  232,812;51767,620;12,88084
 722,27; 6846,320;  265,659;51710,962;12,79157
 722,84; 6965,940;  306,889;51891,996;12,90886
 723,41; 6912,868;  236,197;51914,799;12,91960
 723,98; 6955,411;  241,428;52137,295;12,93741
 724,55; 7012,646;  275,351;52288,021;12,95318
 725,12; 6993,958;  207,812;52124,978;13,07110
 725,69; 7037,578;  238,197;52401,166;13,03488
 726,27; 7029,275;  230,812;52349,815;13,04412
 726,84; 7143,972;  249,120;52729,234;13,13803
 727,41; 7179,130;  268,428;52672,729;13,18728
 727,98; 7188,135;  266,043;52998,533;13,12681
 728,55; 7253,293;  287,428;52891,797;13,24199
 729,12; 7208,529;  243,581;53017,524;13,19770
 729,69; 7279,764;  254,658;53168,481;13,27650
 730,26; 7336,384;  274,274;53258,976;13,32858
 730,82; 7286,158;  261,274;53209,857;13,26737
 731,39; 7324,547;  261,581;53284,198;13,32067
 731,96; 7430,398;  237,735;53591,617;13,48105
 732,53; 7425,633;  247,274;53811,420;13,40143
 733,10; 7503,637;  268,504;53949,377;13,47805
 733,67; 7598,796;  266,504;54133,257;13,61191
 734,24; 7568,954;  250,120;53825,907;13,66071
 734,81; 7612,959;  280,197;53907,941;13,67345
 735,38; 7563,348;  261,889;53674,436;13,66993
 735,95; 7562,737;  266,735;53612,393;13,67684
 736,52; 7647,511;  266,504;53784,735;13,79157
 737,09; 7616,285;  269,504;53470,384;13,80951
 737,66; 7726,751;  307,889;53595,111;13,92240
 738,23; 7731,294;  265,043;53768,299;13,95476
 738,80; 7845,221;  318,197;53982,333;14,02617
 739,37; 7881,918;  279,274;54149,367;14,11292
 739,94; 7899,538;  261,581;54157,554;14,17167
 740,51; 8026,466;  367,658;54254,204;14,21284
 741,07; 8012,855;  261,350;54232,007;14,36244
 741,64; 8090,244;  286,504;54400,810;14,42084
 742,21; 8072,403;  251,504;54471,152;14,42447
 742,78; 8070,407;  234,812;54224,647;14,51309
 743,35; 8132,565;  254,427;54522,528;14,51707
 743,92; 8233,801;  286,581;54626,946;14,62489
 744,49; 8244,959;  289,581;54517,211;14,67034
 745,06; 8302,348;  251,812;54451,630;14,85344
 745,63; 8297,430;  249,504;54530,587;14,82639
 746,19; 8305,127;  251,197;54526,851;14,83894
 746,76; 8344,593;  267,273;54505,039;14,89243
 747,33; 8401,905;  251,966;54474,919;15,03042
 747,90; 8435,986;  281,658;54680,415;14,98992
 748,47; 8516,991;  267,658;54590,757;15,18568
 749,04; 8534,611;  273,966;54630,714;15,19709
 749,61; 8571,077;  298,043;54583,517;15,23987
 750,17; 8645,312;  276,658;54671,782;15,38493
 750,74; 8664,240;  280,966;54532,585;15,45258
 751,31; 8603,629;  246,350;54392,927;15,43455
 751,88; 8656,403;  240,581;54357,653;15,55114
 752,45; 8693,254;  263,581;54516,610;15,53770
 753,02; 8758,643;  274,812;54288,567;15,70680
 753,58; 8717,032;  246,043;54164,678;15,71069
 754,15; 8783,037;  246,889;54373,251;15,77078
 754,72; 8850,195;  246,581;54159,054;15,95849
 755,29; 8833,276;  236,043;53881,165;16,02612
 755,86; 8891,973;  264,966;54187,891;15,99878
 756,42; 8984,824;  272,735;54064,848;16,19585
 756,99; 8930,675;  224,273;53975,420;16,19761
 757,56; 8969,218;  239,966;53913,455;16,26362
 758,13; 8954,838;  201,042;53854,412;16,31546
 758,70; 9120,842;  232,966;53871,292;16,57001
 759,26; 9149,770;  221,273;53980,710;16,60824
 759,83; 9223,621;  229,042;54191,898;16,66809
 760,40; 9188,087;  218,581;53906,778;16,70666
 760,97; 9189,091;  211,119;54007,966;16,68866
 761,53; 9191,634;  198,119;53582,769;16,84663
 762,10; 9208,254;  209,581;53551,419;16,86982
 762,67; 9251,412;  230,042;53514,530;16,93057
 763,24; 9226,802;  184,658;53247,179;17,04055
 763,80; 9237,345;  214,427;53340,675;16,98392
 764,37; 9304,426;  230,504;53361,093;17,07853
 764,94; 9235,661;  208,119;52822,589;17,15791
 765,50; 9284,051;  211,965;52946,777;17,20322
 766,07; 9349,901;  254,042;52927,195;17,26849
 766,64; 9329,444;  224,350;52552,614;17,39995
 767,21; 9358,680;  218,965;52491,648;17,48469
 767,77; 9373,300;  248,581;52366,682;17,50777
 768,34; 9399,920;  242,812;52319,100;17,58403
 768,91; 9388,770;  262,735;52172,519;17,58057
 769,47; 9443,929;  241,581;52192,476;17,71355
 770,04; 9506,933;  247,581;52132,818;17,84583
 770,61; 9506,092;  231,658;51836,467;17,97203
 771,18; 9528,019;  222,658;51851,347;18,02363
 771,74; 9626,639;  246,658;51982,997;18,13035
 772,31; 9581,721;  250,119;51604,877;18,17086
 772,88; 9536,110;  222,658;51556,680;18,14285
 773,44; 9577,960;  222,273;51181,022;18,35934
 774,01; 9714,888;  249,196;51415,979;18,49968
 774,58; 9646,970;  233,273;50939,090;18,56532
 775,14; 9735,205;  227,658;51202,201;18,65156
 775,71; 9721,517;  248,042;51110,619;18,62563
 776,27; 9820,906;  278,504;51012,346;18,80875
 776,84; 9878,295;  313,965;51026,226;18,86000
 777,41; 9904,377;  246,504;50938,414;19,05210
 777,97; 9810,920;  242,888;50616,140;18,99427
 778,54; 9958,694;  243,504;50645,482;19,27541
 779,11;10047,237;  258,657;50606,285;19,44199
 779,67; 9972,472;  230,350;50565,857;19,35437
 780,24;10069,477;  239,888;50341,968;19,61912
 780,80;10059,866;  261,657;50384,002;19,54858
 781,37;10135,563;  254,657;50403,267;19,70325
 781,94;10139,721;  253,119;50158,455;19,81071
 782,50;10237,418;  253,965;50067,104;20,04181
 783,07;10236,422;  271,350;50151,600;19,97799
 783,63;10245,889;  233,196;49872,172;20,17103
 784,20;10329,124;  263,657;49880,052;20,28657
 784,77;10297,436;  255,196;49742,240;20,29267
 785,33;10337,979;  234,273;49513,582;20,50294
 785,90;10396,214;  243,273;49440,231;20,63734
 786,46;10437,219;  265,965;49383,727;20,70789
 787,03;10417,762;  234,888;49132,992;20,82468
 787,59;10455,305;  239,350;49034,026;20,93662
 788,16;10496,310;  256,196;48985,906;21,01411
 788,73;10506,622;  250,888;48871,863;21,09323
 789,29;10517,396;  253,042;48540,282;21,25687
 789,86;10540,477;  273,811;48516,469;21,28130
 790,42;10570,020;  242,042;48302,273;21,48966
 790,99;10545,102;  260,427;48008,922;21,53927
 791,55;10604,260;  237,965;47900,725;21,74925
 792,12;10604,572;  276,657;47962,375;21,65830
 792,68;10665,884;  254,503;47577,101;22,00087
 793,25;10662,889;  257,734;47439,366;22,05340
 793,81;10661,740;  312,888;47116,861;22,11105
 794,38;10603,744;  225,350;46937,588;22,21772
 794,94;10707,133;  251,196;46873,237;22,42703
 795,51;10681,292;  260,503;46507,963;22,53267
 796,07;10700,373;  259,119;46349,459;22,65389
 796,64;10748,455;  274,426;46439,262;22,68833
 797,20;10710,921;  255,349;45954,296;22,87924
 797,77;10695,925;  219,657;45690,868;23,03934
 798,33;10712,545;  253,888;45435,595;23,14799
 798,90;10779,165;  275,965;45412,090;23,27005
 799,46;10753,862;  249,042;44974,894;23,48713
 800,03;10746,636;  261,273;44955,543;23,46020
 800,59;10753,794;  267,734;44679,269;23,61112
 801,15;10762,107;  266,119;44432,534;23,76464
 801,72;10766,957;  263,965;44141,568;23,93702
 802,28;10759,269;  291,888;43863,833;24,02321
 802,85;10735,966;  250,196;43600,405;24,18851
 803,41;10752,355;  259,042;43474,132;24,28160
 803,98;10670,975;  235,657;42993,704;24,40551
 804,54;10678,134;  247,042;42791,046;24,51836
 805,11;10639,831;  265,426;42648,464;24,47773
 805,67;10731,143;  273,734;42621,344;24,69421
 806,23;10611,301;  260,195;42224,840;24,66625
 806,80;10626,690;  267,119;42102,182;24,76289
 807,36;10716,387;  278,965;41985,985;25,02558
 807,93;10725,315;  295,426;41694,557;25,19350
 808,49;10652,320;  244,349;41342,053;25,32494
 809,05;10606,632;  235,811;41225,856;25,30083
 809,62;10651,790;  266,042;41166,275;25,39288
 810,18;10683,641;  271,272;41068,693;25,52212
 810,74;10598,876;  224,042;40746,189;25,60287
 811,31;10640,342;  238,118;40570,069;25,79152
 811,87;10640,116;  258,272;40436,872;25,83924
 812,44;10714,813;  289,811;40546,599;25,89626
 813,00;10691,894;  226,349;40155,940;26,21000
 813,56;10771,745;  260,272;40242,051;26,29066
 814,13;10749,596;  250,811;40061,777;26,37159
 814,69;10780,216;  250,426;39945,965;26,52638
 815,25;10709,143;  221,118;39573,230;26,65175
 815,82;10808,302;  264,272;39530,956;26,85236
 816,38;10792,691;  280,657;39299,606;26,94084
 816,94;10698,465;  244,811;38886,178;27,05301
 817,51;10712,469;  227,272;38760,135;27,21105
 818,07;10646,782;  245,118;38539,862;27,16212
 818,63;10708,171;  253,272;38295,049;27,48268
 819,20;10720,098;  253,349;38296,314;27,51297
 819,76;10652,411;  236,272;37903,656;27,65294
 820,32;10686,492;  281,349;37784,228;27,74492
 820,89;10659,573;  267,657;37660,032;27,79154
 821,45;10599,809;  241,580;37324,604;27,93254
 822,01;10628,583;  254,580;37095,177;28,15916
 822,57;10653,664;  250,426;36942,826;28,35257
 823,14;10635,592;  227,580;36796,168;28,46162
 823,70;10585,365;  240,964;36530,817;28,50494
 824,26;10591,062;  250,811;36390,697;28,61174
 824,82;10594,451;  260,503;36265,347;28,70155
 825,39;10532,456;  241,272;36022,457;28,76144
 825,95;10578,922;  254,426;35859,568;28,99721
 826,51;10475,542;  260,810;35522,910;28,96802
 827,08;10614,085;  296,964;35612,790;29,21387
 827,64;10568,320;  261,118;35487,747;29,25969
 828,20;10542,786;  239,580;35122,166;29,53682
 828,76;10614,945;  268,964;35188,892;29,62773
 829,32;10631,411;  276,272;34981,542;29,83737
 829,89;10589,569;  229,272;34848,191;29,92669
 830,45;10637,882;  251,503;34805,840;30,05810
 831,01;10630,194;  255,657;34690,874;30,12769
 831,57;10659,121;  257,118;34537,831;30,34360
 832,14;10612,434;  241,887;34546,942;30,23037
 832,70;10580,746;  234,503;34260,438;30,40693
 833,26;10627,520;  212,887;34083,087;30,74866
 833,82;10695,832;  241,580;34121,660;30,85663
 834,38;10734,606;  233,349;34183,001;30,93185
 834,95;10752,226;  231,041;33988,959;31,16657
 835,51;10671,999;  211,349;33844,300;31,10239
 836,07;10783,850;  246,041;33888,180;31,32324
 836,63;10791,470;  258,656;33850,522;31,35525
 837,19;10819,936;  249,503;33726,556;31,57516
 837,75;10750,710;  209,195;33442,667;31,71957
 838,32;10881,715;  258,041;33587,701;31,87453
 838,88;10902,719;  259,041;33486,197;32,03307
 839,44;10948,262;  246,887;33432,615;32,24692
 840,00;10949,036;  246,349;33356,726;32,32427
 840,56;10882,656;  225,041;33103,299;32,41539
 841,12;10937,583;  222,887;33079,640;32,61033
 841,68;10872,973;  219,733;32875,597;32,62275
 842,25;10917,208;  236,118;32940,862;32,65915
 842,81;10922,828;  217,733;32632,511;33,02535
 843,37;10949,832;  209,349;32700,392;33,05675
 843,93;10975,145;  234,579;32576,503;33,20942
 844,49;11068,226;  247,887;32638,537;33,40575
 845,05;11042,923;  210,964;32443,263;33,60592
 845,61;11121,466;  248,349;32504,758;33,70839
 846,17;11074,394;  225,964;32370,639;33,74876
 846,73;11123,090;  238,195;32263,057;33,98889
 847,29;11096,941;  223,656;32047,553;34,16704
 847,86;11169,561;  226,041;32067,202;34,36910
 848,42;11137,950;  215,733;31826,159;34,55258
 848,98;11174,032;  240,810;31801,424;34,64198
 849,54;11258,498;  222,425;31832,996;34,91260
 850,10;11239,964;  232,502;31676,723;35,00631
 850,66;11239,738;  220,733;31480,757;35,24951
 851,22;11209,896;  224,118;31414,098;35,22214
 851,78;11287,824;  261,964;31578,363;35,20794
 852,34;11275,674;  240,887;31278,320;35,55316
 852,90;11298,679;  223,964;31231,739;35,71593
 853,46;11250,145;  224,887;30953,927;35,87895
 854,02;11335,457;  240,118;31026,961;36,03923
 854,58;11278,923;  231,810;30759,610;36,18706
 855,14;11259,390;  216,964;30743,029;36,17376
 855,70;11185,394;  193,733;30599,063;36,15044
 856,26;11285,168;  237,810;30437,712;36,58077
 856,82;11249,634;  215,502;30324,054;36,64783
 857,38;11256,485;  258,656;30237,626;36,68514
 857,94;11264,412;  243,579;30083,737;36,93289
 858,50;11206,032;  244,502;30073,694;36,74766
 859,06;11170,268;  228,733;29930,113;36,83847
 859,62;11239,195;  241,271;29801,531;37,20510
 860,18;11162,354;  234,502;29588,796;37,22744
 860,74;11147,973;  205,656;29468,676;37,39299
 861,30;11171,670;  205,887;29284,633;37,71065
 861,86;11300,521;  274,041;29379,437;37,88466
 862,42;11230,295;  236,271;29162,471;38,00715
 862,98;11293,146;  256,348;29163,658;38,17995
 863,54;11164,612;  227,502;28876,616;38,17608
 864,10;11272,693;  234,194;29001,265;38,37199
 864,66;11185,313;  216,579;28799,914;38,37458
 865,22;11261,318;  233,194;28585,025;38,89739
 865,78;11211,091;  239,964;28516,752;38,79906
 866,34;11210,019;  221,656;28415,478;38,97437
 866,90;11207,177;  240,425;28320,973;39,05462
 867,45;11190,259;  235,117;28097,546;39,31869
 868,01;11144,110;  235,271;27947,888;39,36416
 868,57;11133,576;  235,502;27802,614;39,53288
 869,13;11107,196;  215,271;27682,725;39,65393
 869,69;11122,892;  222,579;27569,297;39,85968
 870,25;11115,128;  206,348;27467,793;40,01541
 870,81;11108,363;  223,579;27456,596;39,96907
 871,37;11108,598;  235,425;27348,322;40,10333
 871,93;11124,141;  249,040;27184,664;40,37442
 872,49;11038,531;  256,271;27013,160;40,29713
 873,04;11006,612;  228,271;26833,040;40,51282
 873,60;11000,847;  214,579;26649,381;40,80329
 874,16;11015,852;  239,348;26672,877;40,76831
 874,72;11036,621;  233,656;26534,338;41,07485
 875,28;11003,160;  234,579;26443,877;41,08687
 875,84;11049,621;  234,348;26347,569;41,41685
 876,40;10993,467;  231,117;26285,031;41,30800
 876,95;11111,237;  239,117;26397,723;41,56230
 877,51;11139,929;  258,425;26291,569;41,79865
 878,07;11245,467;  264,810;26318,031;42,14703
 878,63;11226,237;  233,040;26292,262;42,18544
 879,19;11265,852;  243,656;26245,262;42,39044
 879,75;11372,083;  229,117;26307,185;42,72926
 880,30;11389,160;  228,502;26332,646;42,75435
 880,86;11549,313;  272,271;26449,569;43,07947
 881,42;11519,698;  226,425;26546,800;42,90696
 881,98;11628,006;  244,194;26562,262;43,25474
 882,54;11655,237;  219,271;26599,877;43,34990
 883,09;11766,852;  242,425;26769,646;43,44378
 883,65;11813,852;  219,579;26777,877;43,65593
 884,21;12016,390;  256,194;27130,338;43,76026
 884,77;12080,775;  218,656;27104,800;44,11982
 885,32;12135,698;  229,887;27285,415;44,00510
 885,88;12297,467;  263,348;27356,031;44,41834
 886,44;12361,160;  237,348;27508,108;44,45718
 887,00;12449,006;  250,117;27509,954;44,75041
 887,56;12532,467;  226,425;27624,338;44,91598
 888,11;12624,621;  235,733;27709,415;45,09366
 888,67;12749,698;  262,502;27831,877;45,29372
 889,23;12721,083;  248,348;27862,108;45,16855
 889,79;12695,006;  219,271;27716,108;45,37153
 890,34;12747,621;  245,348;27647,262;45,62555
 890,90;12935,083;  300,656;27796,338;45,95058
 891,46;12875,083;  225,963;27674,569;46,08292
 892,01;12885,006;  253,963;27663,262;46,08306
 892,57;12923,006;  269,117;27668,338;46,18339
 893,13;12845,237;  228,887;27430,723;46,38051
 893,69;12874,160;  218,194;27336,492;46,66947
 894,24;12887,083;  234,271;27304,492;46,74070
 894,80;12927,237;  237,733;27165,954;47,12344
 895,36;12858,929;  248,579;26965,415;47,20001
 895,91;12770,390;  238,117;26828,185;47,13141
 896,47;12862,929;  246,579;26687,031;47,71609
 897,03;12775,237;  232,040;26525,569;47,70450
 897,58;12782,852;  243,194;26447,646;47,85316
 898,14;12715,775;  248,348;26272,569;47,90701
 898,70;12729,698;  209,425;26179,877;48,20969
 899,25;12776,929;  232,194;26114,954;48,46753
 899,81;12747,083;  250,425;25893,338;48,73338
 900,37;12671,237;  214,656;25744,646;48,79195
 900,92;12659,544;  242,963;25775,262;48,63088
 901,48;12605,313;  232,194;25568,185;48,83614
 902,03;12646,621;  228,425;25457,415;49,22193
 902,59;12647,852;  225,579;25299,031;49,54353
 903,15;12606,390;  256,579;25161,108;49,58862
 903,70;12569,852;  237,117;24939,800;49,92468
 904,26;12539,313;  228,117;24813,646;50,07497
 904,82;12554,006;  241,656;24794,262;50,14682
 905,37;12525,621;  243,194;24693,954;50,23331
 905,93;12483,544;  225,887;24486,569;50,52478
 906,48;12492,467;  246,963;24453,954;50,58664
 907,04;12463,313;  252,194;24380,108;50,60993
 907,60;12444,544;  234,348;24218,262;50,90994
 908,15;12356,160;  232,425;24148,569;50,69268
 908,71;12377,160;  255,733;24069,338;50,90127
 909,26;12283,775;  225,733;23896,108;50,94149
 909,82;12311,775;  254,733;23816,338;51,17241
 910,37;12334,160;  271,271;23729,954;51,42185
 910,93;12171,313;  227,810;23522,415;51,27154
 911,48;12143,544;  229,425;23429,415;51,35398
 912,04;12116,621;  229,425;23388,415;51,32865
 912,60;12204,852;  247,963;23303,954;51,86022
 913,15;12164,083;  238,887;23178,262;51,98571
 913,71;12037,390;  231,733;22948,954;51,96788
 914,26;12057,775;  209,887;22946,262;52,10984
 914,82;12107,313;  235,040;22802,338;52,60831
 915,37;12108,237;  220,348;22777,646;52,70085
 915,93;12049,160;  275,117;22773,569;52,33268
 916,48;11991,544;  227,887;22531,185;52,74403
 917,04;12045,698;  241,656;22381,415;53,31604
 917,59;12007,852;  271,117;22314,569;53,24363
 918,15;11941,390;  208,502;22112,108;53,56601
 918,70;11925,006;  226,963;22023,031;53,67043
 919,26;11915,006;  235,271;22030,262;53,58908
 919,81;11882,313;  209,810;21829,646;53,98979
 920,37;11872,237;  225,733;21741,031;54,13127
 920,92;11863,006;  246,425;21623,185;54,34210
 921,48;11835,775;  215,348;21512,108;54,56430
 922,03;11776,313;  229,040;21410,338;54,51636
 922,59;11713,237;  231,040;21317,338;54,45335
 923,14;11709,467;  222,194;21176,262;54,82121
 923,69;11709,237;  240,194;21132,877;54,89502
 924,25;11690,852;  253,194;21044,415;55,01196
 924,80;11640,237;  226,579;20868,262;55,29422
 925,36;11610,929;  211,117;20797,262;55,37614
 925,91;11562,852;  224,425;20721,262;55,31794
 926,47;11518,544;  202,040;20647,646;55,34932
 927,02;11537,775;  276,579;20512,646;55,64913
 927,57;11496,929;  228,733;20392,800;55,88256
 928,13;11440,544;  218,117;20377,415;55,66874
 928,68;11453,390;  224,194;20252,646;56,06622
 929,24;11407,083;  202,502;20031,723;56,50540
 929,79;11306,621;  217,810;19900,800;56,33703
 930,34;11268,237;  226,425;19804,877;56,39778
 930,90;11284,006;  217,271;19774,800;56,58555
 931,45;11314,160;  244,887;19713,338;56,85749
 932,01;11313,775;  231,117;19565,954;57,31963
 932,56;11297,006;  251,348;19435,800;57,57609
 933,11;11284,852;  251,579;19512,569;57,28300
 933,67;11180,313;  213,502;19313,800;57,41697
 934,22;11144,929;  234,810;19217,723;57,47337
 934,77;11095,237;  255,656;19087,492;57,55987
 935,33;11104,544;  239,425;19034,415;57,80859
 935,88;11047,621;  240,963;18921,108;57,85104
 936,43;10987,544;  230,271;18932,108;57,51988
 936,99;10981,006;  230,502;18751,185;58,04594
 937,54;10946,390;  206,887;18640,338;58,26095
 938,09;10919,313;  236,887;18619,262;58,11233
 938,65;10905,621;  236,656;18427,492;58,65022
 939,20;10873,083;  198,963;18364,569;58,76005
 939,75;10854,467;  214,733;18285,185;58,87918
 940,31;10782,852;  211,887;18130,646;58,99385
 940,86;10847,083;  226,502;18268,877;58,86465
 941,41;10790,083;  304,656;18127,185;58,83243
 941,96;10713,852;  219,040;17919,954;59,28966
 942,52;10662,006;  222,194;17816,492;59,33633
 943,07;10659,313;  211,656;17773,031;59,49225
 943,62;10624,698;  221,194;17692,492;59,54626
 944,18;10579,467;  200,502;17581,338;59,71499
 944,73;10571,237;  230,502;17509,415;59,84598
 945,28;10479,390;  201,271;17347,800;59,94286
 945,83;10550,313;  223,733;17334,569;60,35112
 946,39;10494,160;  221,579;17267,262;60,26500
 946,94;10515,390;  246,194;17123,185;60,84732
 947,49;10448,775;  214,502;17098,723;60,61442
 948,04;10525,852;  254,425;17040,723;61,18935
 948,59;10507,929;  245,348;16976,415;61,33847
 949,15;10515,775;  201,040;16849,031;61,95784
 949,70;10418,852;  215,887;16771,954;61,62675
 950,25;10420,775;  232,579;16707,415;61,84095
 950,80;10386,390;  192,887;16579,646;62,20573
 951,36;10338,006;  195,887;16531,262;62,08685
 951,91;10416,313;  237,502;16589,569;62,24786
 952,46;10296,083;  206,887;16310,492;62,65178
 953,01;10289,621;  243,040;16344,108;62,39699
 953,56;10260,929;  200,656;16269,031;62,60915
 954,11;10265,390;  235,579;16165,723;62,96121
 954,67;10206,237;  221,194;16106,800;62,85591
 955,22;10139,313;  200,348;15992,262;62,93706
 955,77;10204,621;  248,733;15869,108;63,73655
 956,32;10136,929;  271,656;15821,108;63,44451
 956,87;10100,621;  216,194;15694,492;63,85991
 957,42;10084,775;  209,579;15672,954;63,86184
 957,98;10052,929;  213,348;15545,646;64,17551
 958,53;10099,160;  251,656;15550,108;64,36928
 959,08;10020,544;  213,502;15369,954;64,70540
 959,63; 9987,929;  212,271;15321,185;64,70126
 960,18; 9982,698;  238,656;15256,800;64,88180
 960,73; 9962,160;  227,271;15170,108;65,14753
 961,28; 9904,621;  208,963;15061,338;65,28018
 961,83; 9891,083;  239,117;15030,723;65,25299
 962,39; 9864,929;  199,348;14948,031;65,53521
 962,94; 9776,544;  235,040;14895,031;65,08533
 963,49; 9753,390;  222,733;14785,877;65,44368
 964,04; 9815,160;  234,117;14735,646;66,06919
 964,59; 9775,929;  203,348;14598,338;66,49939
 965,14; 9745,237;  239,733;14495,877;66,67654
 965,69; 9668,852;  226,656;14423,108;66,51096
 966,24; 9661,083;  221,579;14324,569;66,93264
 966,79; 9596,544;  233,502;14256,800;66,76776
 967,34; 9555,852;  203,194;14163,338;66,99542
 967,89; 9532,237;  216,963;14142,108;66,89534
 968,44; 9497,544;  227,040;14020,262;67,21058
 968,99; 9485,390;  238,887;13980,492;67,28838
 969,55; 9441,775;  234,194;13892,723;67,41268
 970,10; 9383,467;  233,348;13798,185;67,45470
 970,65; 9355,237;  240,040;13688,492;67,77878
 971,20; 9323,544;  216,348;13657,108;67,75805
 971,75; 9242,621;  202,117;13495,031;68,00995
 972,30; 9218,083;  220,040;13411,723;68,20997
 972,85; 9140,160;  209,271;13331,338;68,06007
 973,40; 9130,467;  213,887;13211,185;68,60334
 973,95; 9101,852;  231,194;13158,954;68,61713
 974,50; 9079,929;  246,502;13112,185;68,65883
 975,05; 9056,160;  224,040;12960,723;69,34395
 975,60; 9012,083;  243,271;12940,185;69,06254
 976,15; 9004,929;  216,271;12856,492;69,52930
 976,70; 8920,237;  224,733;12813,569;69,07313
 977,25; 8908,852;  232,963;12737,338;69,38282
 977,80; 8841,160;  216,040;12609,108;69,59632
 978,35; 8775,083;  244,194;12436,646;69,96860
 978,89; 8780,006;  205,579;12416,723;70,21805
 979,44; 8759,852;  224,656;12397,262;70,11807
 979,99; 8664,775;  215,348;12183,800;70,59749
 980,54; 8666,006;  242,271;12102,185;71,02695
 981,09; 8536,852;  246,579;12018,492;70,42418
 981,64; 8479,160;  227,963;11855,492;70,96259
 982,19; 8477,698;  257,810;11853,108;70,88984
 982,74; 8351,160;  238,502;11709,338;70,72420
 983,29; 8275,237;  219,810;11567,569;70,98694
 983,84; 8240,313;  235,810;11517,877;70,94891
 984,39; 8289,237;  297,040;11455,031;71,62756
 984,94; 8127,006;  208,117;11331,262;71,19290
 985,49; 8115,929;  251,425;11260,108;71,43910
 986,03; 8093,083;  250,963;11164,723;71,85534
 986,58; 8035,390;  272,117;11078,338;71,84078
 987,13; 7973,160;  233,194;10914,569;72,46226
 987,68; 7906,621;  238,963;10783,492;72,71693
 988,23; 7900,621;  253,579;10731,646;72,98142
 988,78; 7831,544;  222,810;10619,108;73,18696
 989,33; 7777,006;  251,502;10543,569;73,11946
 989,88; 7736,929;  264,963;10469,646;73,22095
 990,42; 7600,621;  235,425;10364,415;72,71402
 990,97; 7539,237;  228,579;10242,415;73,00556
 991,52; 7568,929;  253,656;10198,415;73,55907
 992,07; 7534,544;  272,656;10096,338;73,92226
 992,62; 7480,544;  241,271; 9974,338;74,37813
 993,17; 7456,467;  257,733; 9848,569;75,05846
 993,71; 7381,237;  250,271; 9817,954;74,53179
 994,26; 7264,852;  230,733; 9626,262;74,86667
 994,81; 7264,390;  258,810; 9635,262;74,71462
 995,36; 7181,237;  228,887; 9457,569;75,33415
 995,91; 7175,006;  237,810; 9411,492;75,62062
 996,45; 7041,852;  240,502; 9291,338;75,14609
 997,00; 6991,544;  216,271; 9174,877;75,62866
 997,55; 7010,929;  238,810; 9163,108;75,88405
 998,10; 6945,006;  257,579; 9031,031;76,22344
 998,65; 6864,775;  228,579; 8961,031;75,99465
 999,19; 6862,852;  255,425; 8856,569;76,82032
 999,74; 6755,006;  267,194; 8783,338;76,18250
1000,29; 6716,390;  249,579; 8710,338;76,43299
1000,84; 6618,775;  238,963; 8544,338;76,81545
1001,38; 6586,006;  240,502; 8451,569;77,27989
1001,93; 6512,237;  249,194; 8414,262;76,70534
1002,48; 6411,621;  218,579; 8240,185;77,20452
1003,03; 6425,698;  250,117; 8217,877;77,50712
1003,57; 6353,621;  239,425; 8132,415;77,46362
1004,12; 6298,467;  271,656; 8023,415;77,74766
1004,67; 6207,698;  232,502; 7896,338;77,96612
1005,22; 6104,083;  219,733; 7790,723;77,72233
1005,76; 6034,006;  218,963; 7644,338;78,31311
1006,31; 6024,698;  246,502; 7624,185;78,31993
1006,86; 5914,313;  233,502; 7478,646;78,40854
1007,40; 5813,160;  216,579; 7400,800;77,90101
1007,95; 5786,544;  235,502; 7289,185;78,69708
1008,50; 5701,083;  244,425; 7210,492;78,33197
1009,04; 5671,160;  231,656; 7102,031;79,17332
1009,59; 5561,390;  243,733; 6969,262;79,06676
1010,14; 5499,544;  221,810; 6848,877;79,63907
1010,68; 5403,775;  233,656; 6776,415;79,02047
1011,23; 5354,467;  229,656; 6692,031;79,30229
1011,78; 5290,390;  249,579; 6658,415;78,65408
1012,32; 5232,929;  255,887; 6525,723;79,38073
1012,87; 5224,160;  259,502; 6550,492;78,91695
1013,42; 5110,160;  222,963; 6384,338;79,31989
1013,96; 5148,698;  265,733; 6379,723;79,86544
1014,51; 5052,467;  194,194; 6280,877;79,81808
1015,06; 5056,237;  204,348; 6287,954;79,75350
1015,60; 5111,006;  271,425; 6351,492;79,59749
1016,15; 5097,237;  229,348; 6284,108;80,39772
1016,69; 5149,467;  236,348; 6322,877;80,72120
1017,24; 5117,313;  214,733; 6312,262;80,40275
1017,79; 5210,852;  264,040; 6395,800;80,67524
1018,33; 5189,544;  224,271; 6389,492;80,53682
1018,88; 5215,083;  246,963; 6421,569;80,46051
1019,42; 5242,929;  231,887; 6428,877;80,86252
1019,97; 5256,544;  223,117; 6424,492;81,16630
1020,51; 5295,929;  257,810; 6518,415;80,47335
1021,06; 5263,313;  227,040; 6444,415;81,00321
1021,61; 5283,698;  202,040; 6436,646;81,50728
1022,15; 5244,698;  193,040; 6387,723;81,54829
1022,70; 5276,390;  231,348; 6428,954;81,40309
1023,24; 5208,390;  218,040; 6360,723;81,24056
1023,79; 5188,621;  225,733; 6285,185;81,90326
1024,33; 5149,390;  238,502; 6243,723;81,77698
1024,88; 5100,083;  237,810; 6147,646;82,27424
1025,42; 5032,929;  227,810; 6068,800;82,26549
1025,97; 4999,390;  222,425; 5988,262;82,84948
1026,51; 4867,929;  185,733; 5866,185;82,42647
1027,06; 4848,775;  216,887; 5799,877;82,96429
1027,60; 4782,390;  230,887; 5729,877;82,76981
1028,15; 4711,929;  239,579; 5657,954;82,54043
1028,69; 4594,544;  197,810; 5499,492;82,93093
1029,24; 4592,698;  205,579; 5504,108;82,79882
1029,78; 4475,852;  220,810; 5407,954;82,03054
1030,33; 4408,313;  204,810; 5274,415;82,91579
1030,87; 4403,237;  217,271; 5212,646;83,79682
1031,42; 4284,006;  210,579; 5106,108;83,20709
1031,96; 4268,006;  233,117; 5087,108;83,12518
1032,51; 4202,160;  210,810; 4997,877;83,37777
1033,05; 4197,237;  221,425; 4939,492;84,26780
1033,60; 4058,313;  193,502; 4842,108;83,13915
1034,14; 3987,929;  217,194; 4740,338;83,36534
1034,69; 3990,852;  217,810; 4734,800;83,53001
1035,23; 3941,852;  223,963; 4670,338;83,61617
1035,77; 3913,852;  206,348; 4589,723;84,58103
1036,32; 3841,083;  202,348; 4498,723;84,69313
1036,86; 3828,083;  223,887; 4455,338;85,17635
1037,41; 3749,621;  235,579; 4392,646;84,53176
1037,95; 3672,852;  202,194; 4299,262;84,71078
1038,50; 3623,006;  213,425; 4267,262;84,10750
1039,04; 3615,160;  234,425; 4237,492;84,45360
1039,58; 3563,237;  195,963; 4155,415;85,04392
1040,13; 3511,929;  223,194; 4076,954;85,33834
1040,67; 3516,621;  252,271; 4112,800;84,55707
1041,21; 3434,390;  254,502; 4004,954;84,78681
1041,76; 3381,083;  203,502; 3916,723;85,57478
1042,30; 3334,160;  213,579; 3875,800;85,21006
1042,85; 3310,160;  214,579; 3803,877;86,24474
1043,39; 3236,237;  204,656; 3776,262;84,88005
1043,93; 3226,237;  242,887; 3720,185;85,79506
1044,48; 3175,006;  232,887; 3651,646;86,05809
1045,02; 3099,929;  228,810; 3589,954;85,42089
1045,56; 3096,390;  236,040; 3571,723;85,75006
1046,11; 3098,160;  223,425; 3528,877;86,96949
1046,65; 3008,467;  226,963; 3464,800;85,90625
1047,19; 2967,929;  219,656; 3415,108;86,00577
1047,74; 2900,929;  205,271; 3355,185;85,57879
1048,28; 2911,698;  237,887; 3336,031;86,30365
1048,82; 2887,852;  243,117; 3300,800;86,49474
1049,37; 2818,621;  236,579; 3249,646;85,69481
1049,91; 2802,929;  228,425; 3218,492;86,10187
1050,45; 2789,929;  236,425; 3167,569;87,11628
1050,99; 2720,390;  230,963; 3094,031;86,94965
1051,54; 2685,544;  212,656; 3051,338;87,11394
1052,08; 2703,929;  250,810; 3051,031;87,60448
1052,62; 2627,698;  245,040; 2967,262;87,52624
1053,16; 2588,775;  220,502; 2939,031;87,11598
1053,71; 2574,006;  231,348; 2928,800;86,84706
1054,25; 2519,929;  250,348; 2871,723;86,57978
1054,79; 2507,237;  236,194; 2834,723;87,39723
1055,33; 2444,467;  205,425; 2745,338;88,15428
1055,88; 2446,006;  227,733; 2742,031;88,22634
1056,42; 2416,467;  248,271; 2701,108;88,39546
1056,96; 2415,621;  240,579; 2691,954;88,72744
1057,50; 2363,467;  231,117; 2631,646;88,82834
1058,05; 2319,083;  230,194; 2593,492;88,38870
1058,59; 2330,467;  261,040; 2549,723;90,42000
1059,13; 2263,775;  220,963; 2494,877;89,83682
1059,67; 2252,852;  243,040; 2494,877;89,25211
1060,21; 2203,467;  227,502; 2447,338;89,01400
1060,76; 2186,467;  240,963; 2425,646;89,05201
1061,30; 2165,775;  260,040; 2402,108;88,96707
1061,84; 2110,544;  229,425; 2340,569;89,10425
1062,38; 2058,006;  224,963; 2288,569;88,82716
1062,92; 2103,083;  266,348; 2291,569;90,69304
1063,46; 2054,852;  242,502; 2226,338;91,35581
1064,01; 2007,929;  221,579; 2198,954;90,33947
1064,55; 1999,544;  237,271; 2185,185;90,46978
1065,09; 1951,313;  209,502; 2115,800;91,37142
1065,63; 1949,698;  256,656; 2158,185;89,03585
1066,17; 1932,006;  264,810; 2132,108;89,28388
1066,71; 1929,775;  244,733; 2082,262;91,70154
1067,25; 1879,621;  235,733; 2033,262;91,45269
1067,80; 1874,929;  249,810; 2043,492;90,60238
1068,34; 1892,544;  265,271; 2001,723;93,71253
1068,88; 1815,698;  232,502; 1952,262;92,05915
1069,42; 1821,698;  263,810; 1965,877;91,52919
1069,96; 1785,775;  228,194; 1935,415;91,23486
1070,50; 1802,006;  274,117; 1929,108;92,32008
1071,04; 1753,467;  226,117; 1859,031;93,53527
1071,58; 1727,237;  233,271; 1835,646;93,23444
1072,12; 1710,313;  241,040; 1829,108;92,51957
1072,66; 1684,929;  227,656; 1794,877;92,98452
1073,21; 1688,698;  263,579; 1804,108;92,50844
1073,75; 1675,313;  238,656; 1770,108;93,81017
1074,29; 1646,698;  239,040; 1763,492;92,33861
1074,83; 1654,775;  255,656; 1743,415;94,04202
1075,37; 1614,390;  259,656; 1720,185;92,75644
1075,91; 1612,313;  253,040; 1706,492;93,52033
1076,45; 1569,006;  243,194; 1687,877;91,77182
1076,99; 1568,544;  248,502; 1652,185;94,04136
1077,53; 1506,929;  221,502; 1613,492;92,34453
1078,07; 1521,467;  246,887; 1641,646;91,38354
1078,61; 1508,390;  244,887; 1574,723;95,01197
1079,15; 1489,698;  236,271; 1582,569;93,10174
1079,69; 1458,237;  237,271; 1560,108;92,29904
1080,23; 1481,160;  266,810; 1560,646;93,85652
1080,77; 1496,006;  285,502; 1570,800;94,18079
1081,31; 1429,313;  228,579; 1496,492;94,70162
1081,85; 1446,544;  243,810; 1501,954;95,59593
1082,39; 1382,390;  232,194; 1446,031;94,75709
1082,93; 1386,313;  250,887; 1446,800;94,94223
1083,47; 1353,698;  234,117; 1421,415;94,29652
1084,01; 1375,006;  253,810; 1440,415;94,48767
1084,55; 1338,313;  233,963; 1397,185;94,93895
1085,09; 1342,929;  255,040; 1391,646;95,71379
1085,63; 1316,621;  245,579; 1357,108;96,35758
1086,17; 1284,467;  233,502; 1338,415;95,11744
1086,71; 1281,390;  231,425; 1309,723;97,37246
1087,24; 1299,006;  266,502; 1353,877;94,95380
1087,78; 1274,929;  255,963; 1318,492;95,90002
1088,32; 1213,237;  226,271; 1264,415;95,07016
1088,86; 1239,467;  255,733; 1294,415;94,70983
1089,40; 1228,083;  243,348; 1259,723;96,88694
1089,94; 1207,621;  225,348; 1232,954;97,48585
1090,48; 1193,929;  257,733; 1234,185;95,87734
1091,02; 1187,621;  253,963; 1229,800;95,67767
1091,56; 1158,237;  252,656; 1207,338;94,85673
1092,10; 1132,698;  228,348; 1182,646;94,76599
1092,63; 1173,775;  257,963; 1209,723;96,22299
1093,17; 1131,929;  256,502; 1174,185;95,39538
1093,71; 1109,160;  238,194; 1144,338;96,11774
1094,25; 1106,313;  257,425; 1153,492;94,73490
1094,79; 1101,237;  248,425; 1127,800;96,97928
1095,33; 1078,313;  256,271; 1120,031;95,17026
1095,87; 1068,390;  251,425; 1102,492;95,99304
1096,40; 1035,160;  223,963; 1088,492;93,83101
1096,94; 1047,006;  242,117; 1075,877;96,53723
1097,48; 1029,083;  252,040; 1080,031;93,84678
1098,02; 1026,852;  245,040; 1037,646;98,63813
1098,56;  975,160;  212,348; 1026,800;93,65949
1099,10;  965,698;  227,348; 1004,877;94,96111
1099,63;  956,237;  233,040;  997,723;94,57467
1100,17;  989,775;  248,963; 1012,646;97,00515
1100,71;  993,929;  262,733; 1020,338;96,51407

