
Integration time [ms]: 130,000
Averaging Nr. [scans]: 8
Smoothing Nr. [pixels]: 0
Data measured with spectrometer [name]: 2009305U1
Wave   ;Sample   ;Dark     ;Reference;Reflectance
[nm]   ;[counts] ;[counts] ;[counts] ;[%]

 175,72;  225,373;  210,396;  218,316;189,11042
 176,32;  239,933;  240,998;  232,879; 0,00000
 176,92;  273,111;  269,139;  280,014;36,52815
 177,52;  284,255;  269,016;  290,032;72,51248
 178,12;  250,510;  261,249;  235,645; 0,00000
 178,72;  270,432;  279,243;  265,313; 0,00000
 179,32;  279,414;  285,873;  269,707; 0,00000
 179,92;  278,331;  264,882;  266,541;810,64553
 180,52;  270,026;  254,907;  264,527;157,16652
 181,12;  279,824;  275,258;  261,354; 0,00000
 181,73;  298,034;  295,635;  291,278; 0,00000
 182,33;  404,532;  392,023;  390,552; 0,00000
 182,93;  287,306;  290,891;  290,094; 0,00000
 183,53;  276,391;  252,740;  249,295; 0,00000
 184,13;  262,377;  255,743;  244,797; 0,00000
 184,73;  303,104;  311,487;  290,606; 0,00000
 185,33;  292,793;  259,857;  362,051;32,22864
 185,93;  310,004;  252,591;  372,759;47,77711
 186,53;  326,027;  271,100;  394,921;44,36025
 187,13;  341,110;  280,617;  417,713;44,12463
 187,73;  302,912;  267,969;  383,120;30,34597
 188,33;  301,316;  262,085;  379,270;33,47754
 188,93;  326,797;  286,806;  384,626;40,88197
 189,53;  319,754;  271,660;  395,440;38,85438
 190,13;  373,598;  304,874;  431,995;54,06215
 190,73;  323,318;  229,398;  369,339;67,11433
 191,34;  351,972;  281,048;  425,902;48,96262
 191,94;  316,303;  245,200;  379,248;53,04295
 192,54;  321,002;  272,255;  401,659;37,67022
 193,14;  339,349;  279,240;  400,728;49,47720
 193,74;  326,132;  283,487;  398,023;37,23246
 194,34;  325,019;  271,994;  393,574;43,61278
 194,94;  295,400;  233,615;  360,415;48,72658
 195,54;  279,602;  207,483;  327,520;60,08042
 196,14;  296,526;  241,498;  367,827;43,55980
 196,74;  287,182;  229,979;  361,924;43,35379
 197,34;  276,403;  223,133;  353,209;40,95280
 197,94;  311,096;  238,492;  374,995;53,18816
 198,54;  308,133;  248,373;  395,655;40,57541
 199,14;  290,032;  236,139;  373,103;39,34840
 199,74;  296,481;  218,639;  369,166;51,71279
 200,34;  268,121;  209,142;  378,480;34,82927
 200,94;  319,403;  240,756;  418,613;44,21899
 201,54;  288,477;  226,886;  420,492;31,81235
 202,14;  341,081;  271,896;  484,499;32,54192
 202,74;  320,029;  225,639;  446,775;42,68410
 203,34;  292,792;  212,028;  464,488;31,99059
 203,94;  268,449;  184,773;  456,187;30,82969
 204,54;  352,158;  272,994;  537,543;29,92435
 205,14;  307,639;  213,389;  534,306;29,36890
 205,74;  371,144;  262,653;  630,737;29,47467
 206,34;  352,489;  222,771;  623,514;32,36944
 206,94;  361,526;  234,143;  659,012;29,98153
 207,54;  349,162;  205,895;  680,248;30,20259
 208,14;  368,783;  217,272;  741,640;28,89411
 208,74;  395,812;  220,388;  808,040;29,85158
 209,34;  400,915;  219,640;  874,385;27,68629
 209,94;  433,999;  241,515;  973,088;26,31107
 210,54;  450,265;  216,025; 1043,813;28,29717
 211,14;  446,602;  232,389; 1123,837;24,02979
 211,73;  479,289;  225,260; 1227,319;25,35071
 212,33;  510,204;  244,880; 1337,301;24,28768
 212,93;  513,789;  214,263; 1401,040;25,23868
 213,53;  503,885;  200,639; 1439,478;24,47829
 214,13;  546,134;  222,534; 1556,163;24,26463
 214,73;  517,456;  206,396; 1548,999;23,16843
 215,33;  533,749;  190,890; 1567,963;24,89771
 215,93;  575,585;  218,027; 1711,643;23,93912
 216,53;  576,499;  160,012; 1737,742;26,39786
 217,13;  686,820;  225,275; 1923,954;27,17086
 217,73;  717,108;  221,528; 2112,518;26,20743
 218,33;  732,237;  167,786; 2239,258;27,24880
 218,93;  839,710;  199,053; 2506,144;27,76905
 219,53;  934,936;  198,161; 2773,446;28,60945
 220,13; 1018,282;  177,665; 3033,730;29,43271
 220,73; 1114,646;  203,390; 3305,088;29,37927
 221,32; 1269,562;  205,638; 3663,540;30,76789
 221,92; 1414,168;  208,164; 4007,370;31,74358
 222,52; 1525,310;  187,903; 4323,660;32,33765
 223,12; 1657,656;  194,154; 4760,973;32,04641
 223,72; 1841,729;  200,280; 5128,535;33,30691
 224,32; 1992,987;  214,156; 5474,067;33,81865
 224,92; 2085,825;  193,656; 5752,224;34,04059
 225,52; 2283,349;  222,019; 6073,075;35,23006
 226,12; 2400,729;  198,524; 6387,469;35,58287
 226,72; 2510,703;  175,273; 6610,016;36,29406
 227,31; 2672,041;  166,273; 6944,422;36,96832
 227,91; 2874,338;  207,517; 7291,964;37,64331
 228,51; 3030,520;  203,632; 7649,427;37,96624
 229,11; 3178,875;  196,647; 8042,249;38,01146
 229,71; 3361,304;  195,012; 8218,633;39,46213
 230,31; 3561,671;  188,284; 8643,382;39,89767
 230,91; 3724,825;  180,627; 8963,002;40,35580
 231,51; 3899,696;  179,152; 9286,925;40,85020
 232,10; 4143,774;  186,911; 9647,102;41,82646
 232,70; 4244,769;  206,494; 9881,699;41,73839
 233,30; 4418,240;  217,276;10157,830;42,26086
 233,90; 4562,453;  189,276;10367,361;42,96660
 234,50; 4687,302;  178,402;10504,128;43,66667
 235,10; 4806,075;  174,656;10742,474;43,82569
 235,70; 4913,371;  205,642;10800,230;44,43523
 236,29; 4975,146;  201,138;10851,118;44,82645
 236,89; 5023,726;  200,253;10842,205;45,32507
 237,49; 5087,585;  210,899;10888,922;45,67031
 238,09; 4999,739;  194,146;10697,764;45,75179
 238,69; 5023,725;  235,373;10613,264;46,13993
 239,29; 4879,496;  188,019;10456,325;45,68891
 239,89; 4801,888;  202,004;10223,049;45,90223
 240,48; 4618,952;  197,396; 9924,045;45,45817
 241,08; 4496,614;  196,143; 9669,418;45,39582
 241,68; 4331,155;  207,521; 9499,811;44,37693
 242,28; 4150,162;  186,025; 9146,689;44,23933
 242,88; 4033,958;  237,159; 8937,851;43,63789
 243,48; 3843,137;  240,024; 8776,360;42,20912
 244,07; 3639,676;  226,642; 8509,621;41,20540
 244,67; 3491,556;  208,523; 8425,390;39,95480
 245,27; 3363,914;  213,760; 8203,694;39,42653
 245,87; 3198,090;  220,783; 8223,912;37,20179
 246,47; 3095,701;  201,510; 8183,038;36,26111
 247,06; 2978,353;  197,519; 8231,528;34,61327
 247,66; 2890,997;  186,272; 8290,421;33,37457
 248,26; 2829,675;  221,762; 8397,555;31,89799
 248,86; 2765,098;  230,261; 8601,163;30,28153
 249,46; 2636,747;  165,402; 8693,612;28,97848
 250,05; 2635,805;  220,770; 9050,795;27,35027
 250,65; 2584,796;  185,883; 9372,006;26,11453
 251,25; 2573,235;  189,143; 9755,465;24,92172
 251,85; 2585,957;  204,503;10364,409;23,43973
 252,44; 2545,400;  174,763;10836,071;22,23589
 253,04; 2605,021;  207,015;11466,838;21,29702
 253,64; 2619,660;  159,132;12100,145;20,60569
 254,24; 2707,732;  217,770;12970,357;19,52515
 254,84; 2717,622;  183,152;13803,737;18,60765
 255,43; 2808,815;  194,014;14576,619;18,18031
 256,03; 2855,006;  197,133;15453,958;17,42088
 256,63; 2986,564;  200,628;16321,112;17,28196
 257,23; 3035,355;  176,004;17189,534;16,80633
 257,82; 3132,695;  205,746;17991,857;16,45637
 258,42; 3179,757;  159,118;18727,214;16,26790
 259,02; 3347,554;  215,765;19628,979;16,13226
 259,62; 3456,206;  186,865;20177,931;16,35401
 260,21; 3524,793;  197,138;20741,618;16,19732
 260,81; 3617,331;  199,649;21143,469;16,31833
 261,41; 3680,114;  186,870;21413,262;16,45708
 262,01; 3829,327;  226,612;21957,257;16,57896
 262,60; 3920,605;  183,754;22238,034;16,94388
 263,20; 4120,322;  207,885;22453,335;17,58759
 263,80; 4220,235;  212,237;22668,022;17,84840
 264,40; 4305,694;  177,864;22781,821;18,26154
 264,99; 4462,639;  200,861;22916,959;18,76105
 265,59; 4604,726;  198,725;23021,234;19,30551
 266,19; 4734,433;  193,487;23251,085;19,69393
 266,78; 4934,517;  235,481;23328,972;20,34788
 267,38; 5075,027;  203,852;23298,391;21,09232
 267,98; 5229,289;  192,482;23352,097;21,74823
 268,58; 5295,741;  204,727;23361,047;21,98542
 269,17; 5480,398;  180,969;23435,151;22,78914
 269,77; 5616,189;  213,626;23199,391;23,50395
 270,37; 5769,547;  171,610;23180,100;24,32987
 270,96; 5909,177;  245,246;22992,185;24,89975
 271,56; 5983,902;  190,628;22911,643;25,49743
 272,16; 6062,412;  188,869;22696,496;26,09579
 272,75; 6167,953;  196,495;22395,919;26,89916
 273,35; 6305,916;  202,372;22462,170;27,41958
 273,95; 6447,151;  214,745;22422,481;28,06412
 274,54; 6582,338;  196,145;22521,685;28,60488
 275,14; 6897,170;  225,123;22809,374;29,54292
 275,74; 7033,592;  171,994;22810,137;30,30990
 276,33; 7325,008;  222,125;23339,875;30,72480
 276,93; 7539,390;  213,772;23628,218;31,28675
 277,53; 7785,220;  202,513;24020,055;31,83665
 278,12; 8094,417;  172,630;24493,207;32,57236
 278,72; 8514,231;  252,887;25068,570;33,29082
 279,32; 8847,616;  199,511;25538,710;34,12936
 279,91; 9210,190;  169,009;26174,928;34,76586
 280,51; 9522,348;  200,013;26806,259;35,03815
 281,11; 9944,778;  194,633;27460,209;35,75991
 281,70;10263,984;  172,382;27885,083;36,41508
 282,30;10719,777;  193,003;28474,643;37,22123
 282,90;11041,222;  179,253;28895,627;37,82500
 283,49;11478,490;  207,748;29538,858;38,42590
 284,09;11839,175;  215,881;29900,614;39,15580
 284,69;12238,988;  218,385;30273,132;39,99569
 285,28;12637,601;  216,381;30556,051;40,94052
 285,88;12959,607;  262,369;30906,605;41,43434
 286,47;13222,398;  201,128;30969,689;42,32005
 287,07;13587,668;  226,511;31111,648;43,26080
 287,67;13978,137;  221,274;31194,735;44,41500
 288,26;14284,433;  198,385;31152,866;45,50568
 288,86;14650,355;  192,882;31164,754;46,67936
 289,46;15100,837;  194,884;31355,553;47,83579
 290,05;15506,286;  188,017;31409,402;49,06339
 290,65;16041,729;  204,876;31627,688;50,39922
 291,24;16390,925;  212,887;31851,305;51,13416
 291,84;16880,939;  208,503;31863,612;52,66902
 292,44;17325,556;  208,650;32055,111;53,74822
 293,03;17891,907;  284,762;32178,633;55,20542
 293,63;18296,810;  195,253;32371,033;56,25833
 294,22;18705,421;  218,508;32574,756;57,13553
 294,82;18967,448;  201,239;32567,024;57,98163
 295,41;19119,734;  188,882;32300,833;58,95267
 296,01;19448,688;  228,743;32385,980;59,76865
 296,61;19448,833;  225,511;32113,945;60,28306
 297,20;19424,552;  207,494;31781,590;60,86337
 297,80;19523,320;  215,020;31685,763;61,35317
 298,39;19389,582;  182,253;31193,034;61,93759
 298,99;19490,214;  230,622;31153,529;62,28260
 299,58;19431,982;  208,397;31012,702;62,40551
 300,18;19366,952;  226,518;30723,200;62,76235
 300,78;19230,602;  210,014;30474,462;62,84796
 301,37;19231,591;  221,359;30407,505;62,97668
 301,97;19274,675;  217,759;30429,334;63,07819
 302,56;19248,571;  201,252;30309,548;63,26269
 303,16;19214,626;  183,999;30318,843;63,15157
 303,75;19107,238;  211,641;30216,948;62,97419
 304,35;19241,314;  184,904;30524,238;62,81090
 304,94;19374,429;  199,885;30546,413;63,18530
 305,54;19221,187;  226,638;30526,040;62,68952
 306,13;19171,979;  185,030;30487,285;62,65854
 306,73;19101,626;  185,150;30292,845;62,82937
 307,33;18912,328;  215,523;30309,141;62,12880
 307,92;18942,069;  217,637;30351,227;62,13807
 308,52;19139,710;  180,999;30725,671;62,06880
 309,11;19420,430;  201,867;31236,823;61,92554
 309,71;19431,220;  189,112;31661,304;61,14003
 310,30;19593,278;  180,261;31702,929;61,58431
 310,90;19694,028;  224,386;32095,304;61,08905
 311,49;19666,451;  208,385;32186,413;60,84824
 312,09;19596,739;  176,518;32307,668;60,44048
 312,68;19846,385;  269,514;32860,603;60,06817
 313,28;19790,819;  188,637;32868,727;59,98203
 313,87;19680,131;  173,510;33019,054;59,38894
 314,47;19795,445;  200,119;33278,012;59,23995
 315,06;19745,411;  168,137;33482,336;58,76555
 315,66;19701,114;  180,643;33694,668;58,24568
 316,25;19421,828;  165,250;33583,235;57,62340
 316,85;19259,081;  170,769;33686,028;56,95409
 317,44;19160,114;  194,992;33779,917;56,46915
 318,04;18974,259;  192,253;33813,346;55,86376
 318,63;18820,894;  180,400;33905,642;55,27164
 319,22;18786,637;  188,501;34023,829;54,96662
 319,82;18544,741;  192,131;34077,519;54,16084
 320,41;18344,553;  212,752;34096,876;53,51120
 321,01;18115,338;  198,517;34148,339;52,77442
 321,60;17939,744;  200,756;34227,223;52,13291
 322,20;17702,198;  190,262;34258,930;51,40188
 322,79;17466,054;  230,137;34211,508;50,72166
 323,39;17352,894;  193,653;34431,737;50,11741
 323,98;17126,812;  168,138;34448,415;49,47064
 324,58;16772,354;  181,374;34386,468;48,50441
 325,17;16608,100;  189,126;34136,985;48,36527
 325,76;16361,271;  204,760;34059,647;47,72283
 326,36;15905,158;  160,142;33795,949;46,81028
 326,95;15663,285;  220,132;33368,395;46,58812
 327,55;15291,630;  185,255;33089,613;45,90995
 328,14;14932,059;  183,396;32699,748;45,35768
 328,74;14562,623;  227,001;32370,110;44,59936
 329,33;14139,422;  200,766;32101,667;43,69361
 329,92;13691,934;  188,242;31499,651;43,12706
 330,52;13294,368;  214,771;30829,217;42,72361
 331,11;12946,388;  180,881;30520,020;42,07604
 331,71;12443,190;  195,509;29922,178;41,20099
 332,30;12095,429;  196,635;29476,413;40,63827
 332,89;11812,470;  271,515;28972,401;40,21114
 333,49;11350,303;  212,757;28480,567;39,40010
 334,08;11007,487;  190,880;28039,191;38,84116
 334,68;10675,542;  201,255;27593,957;38,23751
 335,27;10332,559;  215,148;27193,844;37,50148
 335,86;10112,013;  260,756;26996,020;36,84743
 336,46; 9802,563;  220,024;26650,172;36,25609
 337,05; 9547,976;  192,256;26558,926;35,48313
 337,65; 9333,436;  180,380;26436,754;34,86032
 338,24; 9159,131;  232,388;26406,399;34,10537
 338,83; 9038,867;  225,763;26282,306;33,82300
 339,43; 8770,082;  183,626;26289,063;32,89145
 340,02; 8613,288;  190,874;26129,062;32,47109
 340,61; 8477,517;  195,887;26220,039;31,82286
 341,21; 8362,748;  217,626;26243,235;31,29656
 341,80; 8211,700;  196,505;26267,847;30,74332
 342,40; 8112,478;  199,647;26294,624;30,32320
 342,99; 7994,970;  186,265;26355,401;29,83937
 343,58; 7915,047;  193,141;26595,042;29,24754
 344,18; 7858,161;  214,767;26619,652;28,94689
 344,77; 7715,358;  189,374;26969,796;28,10256
 345,36; 7619,910;  183,507;27323,145;27,40052
 345,96; 7640,209;  221,016;27583,386;27,11458
 346,55; 7526,398;  189,403;27859,691;26,51579
 347,14; 7445,283;  171,397;28132,015;26,01476
 347,74; 7405,271;  164,413;28556,619;25,50298
 348,33; 7421,510;  180,537;29248,259;24,91070
 348,92; 7466,077;  201,044;29826,076;24,52329
 349,52; 7441,929;  175,165;30239,980;24,17033
 350,11; 7400,743;  196,748;30542,811;23,73947
 350,70; 7307,587;  188,762;30627,524;23,38737
 351,29; 7075,480;  173,481;30379,253;22,84993
 351,89; 6965,787;  215,367;30271,901;22,45908
 352,48; 6844,407;  173,137;30411,008;22,06263
 353,07; 6751,420;  212,149;30502,625;21,58854
 353,67; 6645,584;  207,045;30367,733;21,34746
 354,26; 6498,427;  204,647;30120,812;21,03806
 354,85; 6298,511;  207,019;30003,294;20,44380
 355,45; 6177,674;  173,379;29687,018;20,34414
 356,04; 6065,159;  194,775;29721,985;19,88127
 356,63; 6022,539;  227,257;29592,599;19,73511
 357,22; 5881,867;  210,235;29444,084;19,40091
 357,82; 5711,713;  201,489;29272,243;18,95453
 358,41; 5670,999;  213,009;29134,897;18,87148
 359,00; 5505,100;  174,876;28882,110;18,56753
 359,60; 5419,113;  199,638;28864,477;18,20863
 360,19; 5339,846;  220,776;28655,533;18,00286
 360,78; 5275,774;  196,505;28539,285;17,92086
 361,37; 5139,097;  197,506;28347,222;17,55468
 361,97; 5087,778;  200,758;28183,834;17,46420
 362,56; 5013,526;  188,373;27939,827;17,38703
 363,15; 4954,608;  236,129;27722,737;17,16646
 363,74; 4823,912;  197,869;27360,746;17,03075
 364,34; 4753,508;  219,500;26937,375;16,96994
 364,93; 4617,501;  188,747;26547,748;16,80168
 365,52; 4512,513;  169,756;26247,520;16,65310
 366,11; 4448,119;  196,001;25942,782;16,51514
 366,71; 4404,762;  196,501;25565,704;16,58807
 367,30; 4328,998;  203,632;25120,301;16,55665
 367,89; 4262,544;  219,518;24926,434;16,36394
 368,48; 4276,059;  211,995;24656,997;16,62534
 369,07; 4174,587;  197,262;24192,149;16,57572
 369,67; 4132,015;  209,121;23957,341;16,51869
 370,26; 4021,234;  180,512;23541,524;16,44073
 370,85; 4056,744;  191,881;23447,723;16,61889
 371,44; 4025,293;  203,883;23166,552;16,64184
 372,03; 4010,527;  178,000;22906,922;16,86189
 372,63; 3903,002;  172,507;22629,005;16,61210
 373,22; 3912,135;  182,386;22290,507;16,87049
 373,81; 3883,476;  168,006;21979,801;17,03422
 374,40; 3884,577;  190,521;21797,420;17,09665
 374,99; 3837,516;  184,129;21460,378;17,17120
 375,59; 3817,088;  192,020;21182,810;17,26981
 376,18; 3860,807;  210,005;21119,925;17,45966
 376,77; 3862,513;  201,759;20861,990;17,71885
 377,36; 3919,189;  218,756;20767,707;18,00789
 377,95; 3888,534;  207,502;20475,329;18,16195
 378,55; 3867,963;  183,017;20262,964;18,35137
 379,14; 3900,546;  206,131;20239,535;18,44127
 379,73; 3916,181;  203,877;20115,080;18,64430
 380,32; 4004,796;  212,258;20090,506;19,07883
 380,91; 3976,386;  174,621;19956,513;19,21841
 381,50; 4038,975;  213,123;19987,514;19,34751
 382,10; 4050,296;  190,008;19824,506;19,66074
 382,69; 4112,741;  167,756;19801,644;20,09273
 383,28; 4176,056;  210,875;19738,734;20,30525
 383,87; 4206,269;  190,749;19678,265;20,60560
 384,46; 4245,378;  186,864;19566,790;20,94184
 385,05; 4323,082;  216,623;19586,593;21,20013
 385,64; 4378,369;  201,001;19576,782;21,55974
 386,24; 4382,106;  174,864;19548,664;21,71614
 386,83; 4494,507;  214,362;19530,648;22,15822
 387,42; 4602,891;  216,126;19629,282;22,59686
 388,01; 4737,285;  202,104;19821,298;23,11604
 388,60; 4828,853;  192,866;20025,056;23,37607
 389,19; 4936,508;  187,842;20240,337;23,68117
 389,78; 5094,295;  187,470;20451,402;24,21458
 390,37; 5317,447;  249,609;20881,583;24,56303
 390,96; 5367,602;  209,863;21070,086;24,72524
 391,56; 5489,820;  209,338;21234,319;25,11527
 392,15; 5607,060;  187,972;21466,341;25,46759
 392,74; 5711,854;  166,947;21562,715;25,91591
 393,33; 5876,308;  190,086;21958,084;26,12193
 393,92; 6094,960;  203,314;22264,132;26,70638
 394,51; 6235,055;  182,336;22600,380;26,99932
 395,10; 6413,747;  219,041;22749,320;27,49503
 395,69; 6499,093;  203,420;22946,603;27,68158
 396,28; 6630,187;  206,033;23029,189;28,14753
 396,87; 6769,078;  216,512;23120,847;28,60841
 397,46; 6892,911;  206,623;23148,697;29,14422
 398,06; 7012,397;  236,981;23373,639;29,28434
 398,65; 7106,171;  205,941;23458,518;29,67512
 399,24; 7278,726;  243,683;23536,997;30,20198
 399,83; 7298,820;  194,622;23620,051;30,32687
 400,42; 7513,034;  238,443;23824,608;30,84262
 401,01; 7645,867;  213,255;23830,301;31,47139
 401,60; 7731,353;  216,171;23998,542;31,59980
 402,19; 7801,208;  255,354;23879,544;31,94122
 402,78; 7910,488;  248,375;23934,850;32,34805
 403,37; 7951,413;  226,902;23692,269;32,91877
 403,96; 8013,239;  235,287;23645,302;33,22489
 404,55; 8121,722;  243,033;23594,873;33,73905
 405,14; 8113,861;  222,417;23427,233;34,00779
 405,73; 8152,825;  229,780;23300,595;34,34228
 406,32; 8281,007;  257,813;23371,112;34,71246
 406,91; 8206,431;  238,582;23024,244;34,96869
 407,50; 8293,607;  242,278;22888,208;35,55310
 408,09; 8211,305;  216,364;22615,792;35,69261
 408,68; 8291,419;  242,712;22474,930;36,20289
 409,27; 8300,574;  233,872;22200,875;36,72190
 409,86; 8366,111;  234,205;22111,040;37,17131
 410,45; 8453,094;  256,274;22096,039;37,53163
 411,04; 8523,482;  270,846;21965,946;38,03917
 411,63; 8524,145;  256,439;21705,992;38,54489
 412,22; 8471,730;  260,398;21608,861;38,46334
 412,81; 8476,238;  282,552;21260,615;39,05835
 413,40; 8429,323;  282,965;21006,921;39,30890
 413,99; 8390,153;  333,579;20695,163;39,56752
 414,58; 8240,474;  232,836;20251,309;40,00124
 415,17; 8271,936;  246,678;20038,927;40,54748
 415,76; 8286,119;  240,645;19927,609;40,86702
 416,35; 8202,092;  235,036;19703,870;40,92210
 416,94; 8252,973;  268,277;19757,020;40,97081
 417,53; 8451,043;  252,805;19892,476;41,74326
 418,12; 8520,864;  250,688;19995,497;41,88532
 418,71; 8757,206;  272,216;20261,828;42,44700
 419,30; 8862,081;  251,691;20352,452;42,83614
 419,89; 9015,306;  246,072;20540,409;43,21025
 420,48; 9223,798;  266,342;20826,563;43,56693
 421,07; 9263,843;  277,348;20984,255;43,39854
 421,66; 9381,180;  238,366;20960,001;44,12207
 422,25; 9472,408;  256,774;20943,538;44,54846
 422,84; 9546,064;  272,406;21027,012;44,68241
 423,43; 9453,874;  256,016;20716,861;44,95346
 424,02; 9394,544;  282,898;20579,303;44,89291
 424,60; 9344,197;  234,188;20062,861;45,94361
 425,19; 9283,161;  264,292;19911,832;45,90330
 425,78; 9297,551;  270,169;19743,271;46,35821
 426,37; 9238,490;  283,559;19572,671;46,42480
 426,96; 9258,439;  256,809;19447,609;46,90597
 427,55; 9205,059;  263,207;19250,936;47,09280
 428,14; 9137,182;  242,217;19090,990;47,19122
 428,73; 9088,088;  249,573;18851,836;47,51311
 429,32; 9134,957;  274,682;18855,060;47,68619
 429,91; 9215,220;  288,824;18916,868;47,91913
 430,50; 9178,623;  294,336;18709,204;48,24518
 431,08; 9173,363;  274,847;18553,696;48,68204
 431,67; 9160,313;  314,108;18483,766;48,68669
 432,26; 9111,097;  342,868;18379,038;48,61470
 432,85; 9018,950;  357,365;18095,068;48,83149
 433,44; 8949,235;  361,880;17750,406;49,38518
 434,03; 8764,183;  376,151;17382,529;49,32286
 434,62; 8596,511;  342,256;16944,485;49,71775
 435,21; 8476,516;  357,867;16680,944;49,73725
 435,79; 8454,093;  356,268;16616,336;49,80191
 436,38; 8455,537;  350,913;16483,006;50,23914
 436,97; 8413,468;  330,166;16346,492;50,46914
 437,56; 8425,589;  349,822;16166,481;51,05862
 438,15; 8352,088;  325,064;16044,320;51,06491
 438,74; 8417,074;  349,317;16075,322;51,30201
 439,33; 8459,474;  322,438;16087,210;51,61531
 439,91; 8499,980;  265,326;16136,266;51,88510
 440,50; 8578,436;  317,078;16109,360;52,31263
 441,09; 8706,019;  314,470;16229,153;52,72835
 441,68; 8730,518;  303,863;16253,743;52,83209
 442,27; 8630,234;  292,105;16275,691;52,16682
 442,86; 8668,445;  257,518;16152,623;52,91520
 443,44; 8775,105;  262,636;16263,680;53,19946
 444,03; 8887,128;  347,769;16362,967;53,32035
 444,62; 8807,110;  278,144;16182,920;53,62519
 445,21; 8680,257;  282,889;16050,480;53,25714
 445,80; 8726,616;  312,660;16036,197;53,51185
 446,39; 8694,751;  354,157;15765,491;54,11987
 446,97; 8561,505;  291,430;15611,475;53,98205
 447,56; 8456,573;  291,073;15358,550;54,19288
 448,15; 8347,163;  287,680;15174,491;54,13841
 448,74; 8271,946;  286,557;15040,102;54,12522
 449,33; 8206,051;  282,070;14826,954;54,47951
 449,91; 8071,711;  276,215;14566,108;54,55252
 450,50; 7992,593;  287,961;14427,824;54,48873
 451,09; 7989,682;  298,589;14193,076;55,35356
 451,68; 7919,937;  320,097;14149,066;54,95594
 452,26; 7920,839;  309,106;14017,681;55,52534
 452,85; 7832,908;  288,225;13987,974;55,07168
 453,44; 7911,044;  297,503;14013,461;55,50863
 454,03; 7887,111;  280,237;13914,997;55,79030
 454,61; 7814,128;  289,755;13882,384;55,35628
 455,20; 8005,692;  313,514;13987,719;56,25320
 455,79; 8031,918;  308,248;14078,145;56,09098
 456,38; 8081,367;  308,279;14167,900;56,08442
 456,97; 8096,782;  288,399;14209,257;56,09125
 457,55; 8080,434;  297,161;14273,093;55,69055
 458,14; 8159,792;  307,771;14195,676;56,53856
 458,73; 8093,019;  301,913;14172,766;56,16890
 459,31; 8121,242;  323,054;14178,402;56,28287
 459,90; 8165,446;  344,795;14248,865;56,24721
 460,49; 8285,464;  404,665;14334,845;56,57356
 461,08; 8274,460;  311,063;14444,173;56,34568
 461,66; 8353,433;  320,429;14444,308;56,87534
 462,25; 8391,619;  312,320;14537,975;56,79386
 462,84; 8443,669;  329,065;14570,096;56,98046
 463,43; 8445,515;  274,464;14561,940;57,19030
 464,01; 8462,302;  297,097;14613,821;57,03264
 464,60; 8438,381;  359,207;14512,842;57,08197
 465,19; 8294,836;  288,727;14332,402;57,00865
 465,77; 8337,613;  308,486;14315,017;57,32417
 466,36; 8333,783;  333,714;14285,487;57,34088
 466,95; 8206,173;  308,216;13913,176;58,05204
 467,53; 8013,416;  316,871;13665,961;57,65595
 468,12; 7845,523;  332,373;13367,635;57,63712
 468,71; 7816,833;  309,854;13223,294;58,13307
 469,29; 7595,825;  277,376;13006,918;57,49185
 469,88; 7442,215;  297,008;12660,048;57,79491
 470,47; 7512,125;  375,773;12760,011;57,62448
 471,06; 7483,078;  324,899;12680,902;57,93280
 471,64; 7481,886;  320,895;12804,681;57,36234
 472,23; 7558,886;  286,051;12818,998;58,02973
 472,81; 7568,517;  283,911;12907,957;57,70421
 473,40; 7669,533;  303,926;13001,248;58,00914
 473,99; 7815,445;  413,676;13166,467;58,04038
 474,57; 7856,206;  309,550;13320,982;58,00019
 475,16; 7950,039;  326,539;13412,428;58,25741
 475,75; 8098,983;  349,437;13589,443;58,53129
 476,33; 8078,176;  357,199;13667,076;58,00938
 476,92; 8165,696;  333,929;13724,063;58,48908
 477,51; 8154,102;  327,319;13845,573;57,89789
 478,09; 8211,176;  340,694;13816,135;58,40611
 478,68; 8145,084;  333,574;13780,717;58,09048
 479,27; 8165,792;  370,188;13760,162;58,21971
 479,85; 8219,775;  328,698;13804,747;58,55631
 480,44; 8263,960;  320,329;13836,908;58,76954
 481,02; 8885,623;  346,340;14914,759;58,61503
 481,61;10005,876;  357,585;16907,396;58,29850
 482,20;10794,715;  346,965;18201,368;58,51638
 482,78;11274,158;  376,077;19038,500;58,39585
 483,37;11594,758;  370,107;19381,863;59,04058
 483,95;11746,280;  398,485;19756,959;58,61926
 484,54;11930,916;  428,583;19988,598;58,80534
 485,13;11922,392;  377,749;19995,218;58,84879
 485,71;11835,359;  345,244;19951,012;58,60579
 486,30;11737,182;  382,744;19788,200;58,51158
 486,88;11600,797;  453,623;19491,530;58,55252
 487,47;11214,036;  409,626;18867,986;58,53397
 488,05;10744,364;  400,632;18064,443;58,55889
 488,64;10036,969;  403,270;16903,545;58,38508
 489,23; 9112,030;  415,886;15314,211;58,36995
 489,81; 7728,056;  421,639;12926,135;58,43032
 490,40; 7140,807;  356,392;12031,856;58,10831
 490,98; 6999,594;  339,272;11776,391;58,23426
 491,57; 6881,310;  385,387;11614,493;57,84897
 492,15; 6779,734;  355,150;11562,205;57,32625
 492,74; 6754,890;  364,758;11436,022;57,71818
 493,32; 6749,462;  377,771;11409,484;57,75794
 493,91; 6645,474;  340,906;11192,881;58,09604
 494,50; 6595,359;  367,678;11201,801;57,48209
 495,08; 6546,727;  337,427;11120,269;57,58500
 495,67; 6560,764;  366,279;11144,207;57,47380
 496,25; 6453,137;  326,042;11037,356;57,20209
 496,84; 6424,275;  300,028;11007,347;57,19683
 497,42; 6396,935;  308,296;10951,656;57,20599
 498,01; 6431,205;  340,656;10814,334;58,15101
 498,59; 6344,145;  299,548;10805,579;57,53454
 499,18; 6362,180;  290,157;10818,225;57,67461
 499,76; 6310,104;  329,917;10765,591;57,30523
 500,35; 6203,577;  320,184;10568,477;57,40852
 500,93; 6112,233;  310,670;10459,765;57,16335
 501,52; 6098,428;  304,172;10379,345;57,51024
 502,10; 6100,335;  334,067;10338,046;57,63975
 502,69; 6006,175;  303,325;10244,863;57,36385
 503,27; 5898,311;  277,429;10056,693;57,47756
 503,86; 5838,134;  315,697; 9985,220;57,11178
 504,44; 5748,149;  284,079; 9831,850;57,22875
 505,03; 5643,793;  263,829; 9704,772;56,98545
 505,61; 5574,039;  290,826; 9526,723;57,20302
 506,19; 5459,752;  302,954; 9396,350;56,70927
 506,78; 5345,188;  266,095; 9180,267;56,97773
 507,36; 5267,998;  291,203; 9002,521;57,13022
 507,95; 5157,917;  297,727; 8892,803;56,54621
 508,53; 5092,328;  297,470; 8765,611;56,62232
 509,12; 5007,810;  285,225; 8578,505;56,94472
 509,70; 4940,230;  314,479; 8487,226;56,59971
 510,29; 4818,018;  314,612; 8355,106;56,00907
 510,87; 4689,666;  285,970; 8190,267;55,71269
 511,46; 4643,244;  282,098; 8048,253;56,15579
 512,04; 4548,660;  286,732; 7882,212;56,11138
 512,62; 4475,442;  288,848; 7717,816;56,35499
 513,21; 4395,470;  274,738; 7582,122;56,39134
 513,79; 4298,073;  281,638; 7431,498;56,17501
 514,38; 4222,763;  265,379; 7294,118;56,30290
 514,96; 4097,520;  313,253; 7226,429;54,73992
 515,54; 4022,201;  255,008; 7052,386;55,42126
 516,13; 4001,249;  295,635; 6927,215;55,87829
 516,71; 3899,607;  294,770; 6855,050;54,94943
 517,30; 3800,277;  263,404; 6686,588;55,06417
 517,88; 3780,736;  285,779; 6603,415;55,32065
 518,46; 3690,840;  265,533; 6560,106;54,41683
 519,05; 3689,444;  279,790; 6476,267;55,02568
 519,63; 3563,918;  280,912; 6432,468;53,36871
 520,22; 3597,721;  296,052; 6354,103;54,50052
 520,80; 3511,071;  280,679; 6277,119;53,87182
 521,38; 3572,275;  328,542; 6297,612;54,34235
 521,97; 3500,674;  261,436; 6190,530;54,63294
 522,55; 3489,494;  286,436; 6155,015;54,57980
 523,13; 3452,980;  266,566; 6130,737;54,33699
 523,72; 3420,924;  287,158; 6116,809;53,75565
 524,30; 3505,581;  305,823; 6299,945;53,38159
 524,89; 3491,274;  263,062; 6203,922;54,33913
 525,47; 3556,085;  295,076; 6358,119;53,78502
 526,05; 3524,651;  256,328; 6436,745;52,88192
 526,64; 3624,968;  297,832; 6495,342;53,68504
 527,22; 3657,118;  287,701; 6633,759;53,09464
 527,80; 3796,747;  318,207; 6738,904;54,17699
 528,39; 3751,395;  274,837; 6806,970;53,22240
 528,97; 3813,266;  289,959; 6967,921;52,76021
 529,55; 3902,267;  305,191; 7123,331;52,75744
 530,14; 4024,120;  313,842; 7300,957;53,10171
 530,72; 4036,214;  276,835; 7352,984;53,12748
 531,30; 4089,094;  268,468; 7502,724;52,81298
 531,89; 4137,682;  297,843; 7657,380;52,17502
 532,47; 4215,852;  313,597; 7725,476;52,64866
 533,05; 4208,799;  313,706; 7800,966;52,02294
 533,63; 4242,599;  311,599; 7804,743;52,46129
 534,22; 4259,779;  281,099; 7847,009;52,58693
 534,80; 4262,854;  318,360; 7965,454;51,58161
 535,38; 4373,374;  425,720; 8115,506;51,33633
 535,97; 4224,337;  304,972; 7977,633;51,08222
 536,55; 4291,847;  362,236; 8131,767;50,57719
 537,13; 4248,373;  378,092; 8036,911;50,53366
 537,71; 4246,899;  404,466; 8143,519;49,64991
 538,30; 4292,092;  424,103; 8166,402;49,95918
 538,88; 4341,421;  471,495; 8289,991;49,49707
 539,46; 4409,549;  537,235; 8454,563;48,90935
 540,05; 4445,788;  563,616; 8615,864;48,21228
 540,63; 4519,542;  596,116; 8770,817;47,99473
 541,21; 4611,874;  638,248; 8968,978;47,69841
 541,79; 4650,712;  673,498; 9084,509;47,28580
 542,38; 4731,439;  707,239; 9211,972;47,31718
 542,96; 4721,202;  717,507; 9311,156;46,58900
 543,54; 4879,918;  747,622; 9565,883;46,86067
 544,12; 4872,065;  726,250; 9690,479;46,24843
 544,70; 4896,173;  719,758; 9753,094;46,23337
 545,29; 5037,156;  728,740; 9937,957;46,78374
 545,87; 4988,087;  704,248; 9907,884;46,54507
 546,45; 4961,648;  648,489; 9982,925;46,20697
 547,03; 5002,116;  627,744; 9984,476;46,75107
 547,62; 5070,631;  590,124;10144,885;46,89293
 548,20; 5139,621;  585,130;10281,061;46,97322
 548,78; 5107,363;  549,902;10371,935;46,40038
 549,36; 5178,223;  503,900;10518,496;46,67510
 549,94; 5212,455;  464,127;10695,293;46,41043
 550,53; 5303,859;  470,272;10949,291;46,12633
 551,11; 5351,375;  429,407;11111,766;46,07566
 551,69; 5456,951;  438,650;11318,121;46,12634
 552,27; 5538,200;  390,517;11540,959;46,16573
 552,85; 5646,426;  399,531;11899,703;45,62449
 553,44; 5822,484;  383,149;12187,511;46,07902
 554,02; 5927,848;  393,778;12478,217;45,79502
 554,60; 6033,206;  349,408;12728,486;45,91455
 555,18; 6162,436;  372,900;13172,652;45,23163
 555,76; 6307,492;  358,778;13430,139;45,50952
 556,34; 6488,174;  359,166;13811,757;45,56005
 556,93; 6571,370;  350,776;14137,372;45,12060
 557,51; 6696,534;  332,292;14452,538;45,07175
 558,09; 6894,565;  363,401;14812,856;45,20007
 558,67; 7007,903;  346,798;15241,668;44,72080
 559,25; 7149,946;  357,794;15505,728;44,83880
 559,83; 7229,584;  341,054;15755,875;44,68770
 560,41; 7315,262;  345,913;16080,442;44,29334
 561,00; 7438,939;  346,174;16489,387;43,93652
 561,58; 7539,453;  324,413;16563,348;44,43050
 562,16; 7590,805;  328,032;16965,407;43,65336
 562,74; 7725,904;  308,528;17315,357;43,61410
 563,32; 7914,260;  312,179;17792,312;43,48984
 563,90; 8065,546;  341,299;18130,965;43,41986
 564,48; 8092,724;  338,536;18405,628;42,91885
 565,06; 8336,340;  338,547;18995,620;42,86735
 565,65; 8606,817;  348,689;19649,585;42,78624
 566,23; 8891,370;  381,049;20276,653;42,77488
 566,81; 9045,623;  339,794;20980,165;42,17864
 567,39; 9306,690;  346,431;21802,173;41,76159
 567,97; 9632,832;  365,796;22458,963;41,94526
 568,55; 9936,113;  382,553;23170,687;41,92340
 569,13;10142,855;  351,799;23945,059;41,49938
 569,71;10437,106;  345,406;24839,719;41,20018
 570,29;10804,653;  387,525;25783,512;41,01880
 570,87;11047,985;  390,279;26499,577;40,81958
 571,45;11240,131;  370,548;27199,667;40,51412
 572,03;11359,617;  328,059;27581,581;40,47755
 572,61;11639,146;  329,428;28315,077;40,41256
 573,20;11905,681;  358,167;28930,414;40,41514
 573,78;12037,153;  342,179;29614,609;39,95218
 574,36;12251,723;  374,176;30059,123;40,01202
 574,94;12459,294;  435,436;30397,989;40,12962
 575,52;12333,373;  358,700;30702,232;39,46368
 576,10;12540,674;  416,319;31146,854;39,45377
 576,68;12592,312;  422,059;31712,815;38,89409
 577,26;12820,896;  427,581;32376,674;38,79082
 577,84;13008,587;  429,427;32885,858;38,75707
 578,42;13083,070;  479,190;33224,038;38,49119
 579,00;13062,172;  421,804;33286,031;38,46239
 579,58;13081,761;  477,311;33485,098;38,18629
 580,16;12960,067;  442,817;33572,180;37,78295
 580,74;13042,949;  439,068;33815,712;37,76258
 581,32;12938,541;  446,813;33925,381;37,31261
 581,90;12874,350;  484,942;33772,821;37,21898
 582,48;12871,335;  455,692;34078,727;36,92600
 583,06;12842,515;  470,812;34136,677;36,74851
 583,64;12799,007;  463,311;34176,270;36,59037
 584,22;12650,017;  474,453;34015,625;36,30035
 584,80;12526,181;  478,065;33754,570;36,20607
 585,38;12285,633;  486,665;33279,584;35,98023
 585,96;12208,043;  456,431;33481,673;35,58373
 586,54;12142,803;  487,700;33365,748;35,44950
 587,12;12222,858;  441,070;33459,448;35,68251
 587,70;12225,301;  473,557;33665,580;35,40533
 588,28;12085,659;  449,070;33657,010;35,04159
 588,86;12089,965;  475,698;33793,747;34,85878
 589,44;12047,566;  449,212;33780,866;34,79681
 590,02;12053,915;  436,209;33938,066;34,67780
 590,59;12070,586;  413,200;34142,639;34,56146
 591,17;12033,667;  408,727;34231,235;34,37043
 591,75;11983,784;  402,843;34401,041;34,06339
 592,33;11998,684;  416,964;34731,804;33,75134
 592,91;12016,803;  360,223;34864,529;33,78297
 593,49;12020,083;  386,605;35125,628;33,48821
 594,07;12095,241;  388,605;35363,643;33,47140
 594,65;12066,241;  423,702;35375,546;33,31023
 595,23;12095,786;  392,208;35751,738;33,09879
 595,81;12067,757;  389,587;35894,271;32,89191
 596,39;11981,478;  383,463;35994,710;32,56841
 596,97;11951,891;  375,598;36123,435;32,38320
 597,55;11888,337;  370,580;36069,705;32,26342
 598,12;11821,054;  360,734;36055,036;32,10686
 598,70;11872,660;  361,601;36142,328;32,17111
 599,28;11792,965;  393,476;36444,469;31,62046
 599,86;11781,101;  378,475;36402,234;31,65307
 600,44;11700,645;  334,229;36487,830;31,43924
 601,02;11709,585;  384,246;36648,951;31,22965
 601,60;11680,626;  380,468;36582,401;31,21424
 602,18;11524,833;  346,733;36604,973;30,82913
 602,75;11460,749;  344,461;36626,614;30,63845
 603,33;11416,127;  362,351;36609,312;30,49573
 603,91;11323,077;  347,865;36622,603;30,25580
 604,49;11348,042;  383,477;36695,110;30,19574
 605,07;11154,710;  397,093;36834,104;29,52387
 605,65;11222,032;  388,856;36923,315;29,65194
 606,23;11153,432;  445,573;37038,731;29,26191
 606,80;11093,463;  499,710;37022,146;29,00615
 607,38;11031,293;  545,862;37053,242;28,72140
 607,96;10958,621;  607,210;37195,161;28,29186
 608,54;10909,120;  669,605;37350,221;27,91533
 609,12;10831,143;  661,336;37309,161;27,75010
 609,70;10814,829;  722,224;37295,108;27,59587
 610,27;10784,415;  714,834;37473,066;27,39408
 610,85;10699,895;  760,849;37533,264;27,02854
 611,43;10627,516;  751,601;37429,156;26,92632
 612,01;10522,217;  716,966;37144,540;26,91711
 612,59;10447,685;  713,849;37295,061;26,60884
 613,16;10363,929;  676,703;37314,344;26,44064
 613,74;10234,932;  653,851;37175,453;26,23401
 614,32;10209,017;  615,106;37026,097;26,34894
 614,90;10125,817;  581,595;36935,027;26,25398
 615,48; 9958,855;  494,330;36654,377;26,17399
 616,05; 9856,649;  471,701;36613,561;25,96697
 616,63; 9768,943;  471,947;36359,746;25,90573
 617,21; 9692,646;  471,834;36383,894;25,67609
 617,79; 9610,926;  458,838;36259,022;25,56436
 618,36; 9494,298;  440,343;36144,135;25,35853
 618,94; 9327,293;  387,457;35876,299;25,19056
 619,52; 9200,204;  415,699;35566,982;24,99057
 620,10; 9218,485;  393,586;35629,396;25,04526
 620,67; 9067,748;  398,447;35486,387;24,70735
 621,25; 8966,482;  426,468;35403,729;24,41590
 621,83; 8924,311;  396,082;35331,721;24,41126
 622,41; 8904,628;  440,581;35280,127;24,29437
 622,98; 8709,226;  406,822;35033,387;23,97698
 623,56; 8656,678;  418,570;35033,557;23,79925
 624,14; 8553,920;  379,472;34936,997;23,65461
 624,72; 8505,738;  394,456;34824,408;23,55879
 625,29; 8484,233;  367,070;34886,698;23,51463
 625,87; 8523,213;  410,463;34778,241;23,60569
 626,45; 8324,251;  364,193;34685,149;23,19300
 627,02; 8271,077;  374,839;34605,976;23,06741
 627,60; 8170,553;  379,729;34617,220;22,75524
 628,18; 8166,768;  355,336;34654,286;22,77455
 628,76; 8129,983;  343,198;34653,544;22,69515
 629,33; 8128,859;  373,703;34701,610;22,59140
 629,91; 8041,360;  371,586;34558,146;22,43506
 630,49; 8032,432;  382,451;34914,577;22,15323
 631,06; 7989,009;  355,949;34980,122;22,04546
 631,64; 7949,633;  357,194;34895,556;21,98263
 632,22; 7800,559;  331,938;34792,053;21,67323
 632,79; 7919,489;  351,063;35025,444;21,82714
 633,37; 7827,077;  332,842;35120,447;21,54283
 633,95; 7789,747;  345,317;35074,571;21,43562
 634,52; 7809,771;  327,581;35248,299;21,42622
 635,10; 7810,404;  330,460;35270,176;21,40814
 635,68; 7717,827;  336,938;35441,350;21,02553
 636,25; 7670,609;  319,055;35504,954;20,89347
 636,83; 7695,858;  305,948;35652,044;20,90729
 637,41; 7696,901;  315,436;35622,192;20,90666
 637,98; 7687,180;  361,810;35861,629;20,63495
 638,56; 7692,322;  331,802;35973,764;20,65128
 639,13; 7557,310;  317,571;36034,339;20,26986
 639,71; 7653,726;  376,824;36296,982;20,25855
 640,29; 7414,489;  282,574;35962,890;19,98837
 640,86; 7436,971;  311,450;36195,663;19,85698
 641,44; 7390,328;  302,450;36241,561;19,72191
 642,02; 7383,810;  338,576;36201,334;19,64499
 642,59; 7354,792;  303,826;36284,607;19,59648
 643,17; 7314,149;  319,827;36176,005;19,50660
 643,74; 7291,381;  309,577;36347,028;19,37374
 644,32; 7194,488;  329,453;36387,676;19,03875
 644,89; 7137,595;  329,828;36319,199;18,91605
 645,47; 7153,577;  342,454;36372,847;18,90383
 646,05; 7061,934;  331,454;36411,370;18,65437
 646,62; 7063,041;  307,204;36262,768;18,78941
 647,20; 7004,523;  325,830;36468,666;18,47861
 647,77; 6904,755;  296,455;36304,939;18,35206
 648,35; 6899,362;  304,456;36268,587;18,33745
 648,92; 6885,719;  315,331;36217,360;18,30088
 649,50; 6800,326;  284,582;36169,008;18,15758
 650,08; 6748,308;  285,832;36112,281;18,03828
 650,65; 6723,665;  302,333;36239,929;17,86801
 651,23; 6815,272;  278,958;36970,327;17,81431
 651,80; 7002,754;  278,708;37957,850;17,84554
 652,38; 7013,486;  304,584;38374,498;17,62258
 652,95; 7056,593;  277,834;38641,521;17,66973
 653,53; 7057,325;  295,710;38882,170;17,52328
 654,10; 7054,057;  342,210;39053,943;17,33802
 654,68; 6986,789;  284,086;38960,341;17,33028
 655,25; 6957,396;  276,711;39143,614;17,18862
 655,83; 6969,753;  288,212;39261,137;17,14406
 656,40; 6968,110;  324,337;39267,910;17,06000
 656,98; 6892,342;  290,712;39148,058;16,98940
 657,55; 6867,199;  292,088;39112,456;16,93727
 658,13; 6775,056;  300,213;38755,104;16,83750
 658,70; 6683,913;  314,089;38556,002;16,65666
 659,28; 6535,770;  283,714;37828,150;16,65242
 659,85; 6397,127;  319,465;36876,423;16,62519
 660,43; 6317,359;  322,840;36708,946;16,47475
 661,00; 6266,466;  295,591;36919,219;16,30334
 661,58; 6308,948;  293,341;37144,867;16,32390
 662,15; 6290,930;  284,717;37388,265;16,18771
 662,73; 6371,662;  356,717;37639,163;16,13345
 663,30; 6303,519;  299,592;37789,561;16,01476
 663,88; 6298,126;  307,718;38084,084;15,85756
 664,45; 6295,733;  284,218;38152,357;15,87486
 665,03; 6361,965;  298,844;38451,130;15,89190
 665,60; 6482,322;  388,719;39013,028;15,77660
 666,17; 6434,429;  311,095;39130,926;15,77373
 666,75; 6446,536;  289,720;39459,324;15,71835
 667,32; 6550,768;  319,346;39813,972;15,77790
 667,90; 6520,500;  301,596;40034,120;15,65192
 668,47; 6598,482;  313,846;40248,143;15,73744
 669,05; 6629,464;  302,847;40510,791;15,73475
 669,62; 6578,446;  287,597;40722,939;15,55780
 670,19; 6560,803;  281,223;40771,337;15,50892
 670,77; 6619,910;  282,473;40940,485;15,58718
 671,34; 6554,892;  288,224;40983,508;15,39900
 671,92; 6623,250;  273,474;41294,781;15,47921
 672,49; 6623,107;  308,850;41326,179;15,39412
 673,06; 6559,839;  252,350;41468,328;15,30350
 673,64; 6566,196;  271,976;41274,726;15,35073
 674,21; 6556,928;  277,976;41357,624;15,28482
 674,79; 6611,035;  307,976;41600,522;15,26440
 675,36; 6595,517;  307,727;41499,170;15,26480
 675,93; 6524,999;  271,102;41467,693;15,18062
 676,51; 6581,731;  301,853;41709,091;15,16614
 677,08; 6579,213;  292,103;41779,989;15,15408
 677,65; 6561,195;  285,854;41793,387;15,11856
 678,23; 6564,802;  293,854;42134,535;14,98768
 678,80; 6540,159;  281,480;42126,683;14,95674
 679,38; 6592,391;  299,230;42362,331;14,96124
 679,95; 6614,623;  309,230;42702,104;14,87371
 680,52; 6642,105;  286,356;42746,627;14,96870
 681,10; 6743,337;  310,231;43211,025;14,99531
 681,67; 6735,694;  301,607;43432,548;14,91757
 682,24; 6657,801;  260,607;43560,321;14,77422
 682,82; 6787,533;  275,733;43975,219;14,90132
 683,39; 6869,015;  342,233;44347,742;14,83174
 683,96; 6866,622;  287,984;44715,140;14,80770
 684,54; 6921,729;  265,109;44974,288;14,88871
 685,11; 7018,836;  345,734;45251,311;14,86030
 685,68; 7044,193;  289,485;45694,459;14,87658
 686,25; 7015,300;  268,610;45801,107;14,81731
 686,83; 7027,282;  268,986;46040,130;14,76541
 687,40; 7136,514;  271,486;46368,403;14,89260
 687,97; 7258,496;  320,112;46800,426;14,92758
 688,55; 7181,353;  261,987;46780,324;14,87449
 689,12; 7221,585;  252,738;47106,097;14,87374
 689,69; 7214,192;  251,988;47276,120;14,80560
 690,26; 7239,299;  284,114;47282,268;14,79885
 690,84; 7318,781;  280,864;47466,291;14,91545
 691,41; 7352,263;  292,989;47543,814;14,94000
 691,98; 7399,870;  290,990;47849,338;14,94770
 692,56; 7365,352;  283,490;47992,486;14,84387
 693,13; 7483,334;  333,741;47930,634;15,02113
 693,70; 7462,941;  296,616;48156,157;14,97366
 694,27; 7518,173;  277,492;48320,430;15,07127
 694,84; 7488,905;  274,617;48283,453;15,02700
 695,42; 7559,512;  334,368;48461,226;15,01271
 695,99; 7588,494;  295,243;48699,999;15,06722
 696,56; 7531,101;  299,993;48540,897;14,98958
 697,13; 7648,583;  302,744;48925,920;15,10769
 697,71; 7628,565;  269,119;48999,193;15,10247
 698,28; 7709,922;  283,370;49405,966;15,11840
 698,85; 7671,529;  249,370;49296,989;15,13256
 699,42; 7747,011;  253,621;49625,012;15,17760
 699,99; 7779,993;  312,621;49631,660;15,14095
 700,57; 7771,725;  289,622;49586,808;15,17755
 701,14; 7794,207;  277,122;49828,706;15,17022
 701,71; 7839,564;  306,372;50106,229;15,12693
 702,28; 7899,046;  288,998;50036,502;15,29735
 702,85; 7881,403;  293,748;50162,275;15,21532
 703,43; 7952,010;  316,749;50517,548;15,20944
 704,00; 8034,242;  329,124;50576,571;15,33435
 704,57; 7995,849;  294,000;50587,469;15,31382
 705,14; 8080,706;  317,750;50860,617;15,35915
 705,71; 8131,563;  335,126;50856,015;15,43211
 706,28; 8088,670;  293,751;50807,788;15,43119
 706,86; 8190,777;  335,627;51117,436;15,46843
 707,43; 8176,134;  356,002;51008,084;15,43892
 708,00; 8210,741;  347,377;51065,857;15,50394
 708,57; 8180,848;  316,378;50978,380;15,52341
 709,14; 8245,830;  321,753;51090,278;15,60825
 709,71; 8271,312;  311,754;51182,301;15,64669
 710,28; 8358,919;  300,254;51321,824;15,79462
 710,86; 8332,026;  324,255;51582,972;15,62226
 711,43; 8430,508;  344,755;51464,246;15,81736
 712,00; 8397,365;  306,631;51554,269;15,78753
 712,57; 8486,097;  318,881;51784,167;15,86937
 713,14; 8505,829;  310,381;51844,315;15,90301
 713,71; 8562,686;  316,382;51749,463;16,03308
 714,28; 8516,668;  308,132;51931,111;15,90093
 714,85; 8537,025;  286,008;51683,759;16,05327
 715,42; 8598,507;  295,758;51733,157;16,14146
 716,00; 8746,865;  360,259;51956,430;16,25432
 716,57; 8782,972;  276,259;52042,203;16,43303
 717,14; 8744,579;  291,885;52019,101;16,34090
 717,71; 8759,436;  274,885;52054,749;16,38581
 718,28; 8826,918;  321,636;52231,647;16,38467
 718,85; 8845,275;  273,136;52118,545;16,53404
 719,42; 8931,132;  296,261;52376,568;16,57991
 719,99; 8864,239;  263,762;52071,091;16,60089
 720,56; 8999,096;  295,762;52425,364;16,69557
 721,13; 8987,703;  277,638;52591,262;16,64971
 721,70; 9041,185;  285,388;52369,535;16,81087
 722,27; 9056,917;  299,264;52396,308;16,81027
 722,84; 9171,524;  368,264;52681,081;16,82811
 723,41; 9121,006;  279,140;52583,854;16,90453
 723,98; 9209,363;  282,890;52802,377;16,99650
 724,55; 9306,220;  305,265;52910,900;17,11025
 725,12; 9208,952;  246,516;52940,923;17,00832
 725,69; 9345,559;  283,766;53179,571;17,13140
 726,27; 9355,916;  298,642;53126,469;17,14489
 726,84; 9493,773;  293,642;53352,242;17,33957
 727,41; 9498,255;  306,768;53391,515;17,31474
 727,98; 9584,737;  296,518;53660,038;17,40556
 728,55; 9660,719;  334,519;53580,186;17,51542
 729,12; 9681,076;  275,394;53601,084;17,63818
 729,69; 9764,058;  310,269;53876,107;17,64891
 730,26; 9760,165;  302,770;54065,006;17,59115
 730,82; 9838,147;  288,520;54019,904;17,77290
 731,39; 9845,754;  302,146;54016,427;17,76736
 731,96; 9937,111;  279,021;54388,575;17,84914
 732,53;10025,093;  308,022;54627,473;17,88875
 733,10;10120,700;  309,522;54698,121;18,03903
 733,67;10136,307;  314,273;54980,519;17,96727
 734,24;10052,039;  288,773;54620,042;17,96988
 734,81;10190,521;  327,149;54793,065;18,10926
 735,38;10149,878;  301,274;54538,713;18,15831
 735,95;10219,235;  285,899;54446,986;18,34036
 736,52;10296,967;  305,275;54654,509;18,38424
 737,09;10243,574;  316,650;54377,032;18,36266
 737,66;10319,681;  371,526;54601,805;18,34428
 738,23;10369,288;  307,776;54618,953;18,52567
 738,80;10550,895;  365,527;54814,351;18,70631
 739,37;10518,377;  337,277;55003,124;18,62424
 739,94;10610,609;  303,403;55125,022;18,80135
 740,51;10712,841;  426,778;55155,170;18,79475
 741,07;10712,823;  298,028;55179,818;18,97678
 741,64;10772,055;  355,029;55282,966;18,96490
 742,21;10867,662;  310,904;55248,489;19,21591
 742,78;10839,144;  289,405;55257,012;19,19265
 743,35;10937,626;  295,030;55337,035;19,33541
 743,92;11082,858;  347,531;55591,308;19,43265
 744,49;11053,965;  334,906;55353,331;19,48267
 745,06;11127,322;  303,407;55281,354;19,68774
 745,63;11092,679;  288,782;55351,752;19,62098
 746,19;11192,786;  303,658;55344,775;19,78363
 746,76;11220,643;  300,408;55377,923;19,82703
 747,33;11291,625;  300,783;55335,571;19,97072
 747,90;11368,732;  329,909;55570,344;19,98323
 748,47;11379,714;  315,034;55503,617;20,04886
 749,04;11422,821;  313,535;55530,640;20,11928
 749,61;11470,178;  336,535;55599,789;20,14656
 750,17;11560,285;  349,536;55701,812;20,25346
 750,74;11595,017;  319,911;55566,710;20,40861
 751,31;11535,624;  291,787;55396,858;20,40436
 751,88;11567,606;  293,662;55242,881;20,51702
 752,45;11636,838;  294,037;55405,654;20,58151
 753,02;11710,320;  329,663;55378,177;20,67387
 753,58;11768,927;  303,413;55347,575;20,82966
 754,15;11862,034;  307,539;55378,848;20,98097
 754,72;11826,766;  305,039;55070,746;21,03822
 755,29;11881,373;  284,790;54946,644;21,21513
 755,86;11961,730;  287,665;55141,042;21,28231
 756,42;12009,712;  318,041;55009,065;21,37768
 756,99;12061,194;  274,916;55078,588;21,50637
 757,56;12103,926;  279,541;54976,861;21,61785
 758,13;12111,658;  217,417;54791,509;21,79467
 758,70;12298,515;  258,917;54846,032;22,05575
 759,26;12318,622;  270,918;54975,680;22,02314
 759,83;12509,604;  277,168;55085,203;22,31869
 760,40;12461,962;  257,919;55051,726;22,27267
 760,97;12550,694;  237,044;55103,374;22,44300
 761,53;12515,426;  233,170;54726,272;22,53910
 762,10;12617,033;  222,795;54644,420;22,77447
 762,67;12642,765;  264,421;54679,193;22,74813
 763,24;12614,747;  218,296;54202,341;22,96317
 763,80;12707,354;  253,171;54363,364;23,01633
 764,37;12808,336;  257,797;54371,387;23,19295
 764,94;12690,193;  234,547;53955,285;23,18592
 765,50;12806,425;  239,048;53921,933;23,41040
 766,07;12899,657;  280,423;54013,831;23,48489
 766,64;12862,139;  267,424;53652,354;23,59227
 767,21;12885,496;  270,549;53620,252;23,64577
 767,77;12913,603;  286,050;53446,525;23,75365
 768,34;13008,710;  289,050;53410,424;23,94452
 768,91;13066,067;  301,925;53276,072;24,09504
 769,47;13078,299;  295,301;53384,470;24,07835
 770,04;13115,781;  295,801;53232,368;24,21763
 770,61;13094,388;  272,302;52951,266;24,34005
 771,18;13167,370;  266,927;52910,789;24,50512
 771,74;13332,352;  290,053;53126,187;24,68443
 772,31;13322,209;  287,428;52743,085;24,84914
 772,88;13293,316;  247,679;52519,358;24,95737
 773,44;13190,798;  271,804;52427,381;24,77011
 774,01;13367,405;  285,429;52609,029;25,00206
 774,58;13334,012;  274,555;52070,177;25,21344
 775,14;13432,119;  257,555;52260,325;25,33435
 775,71;13441,226;  272,056;52224,098;25,34871
 776,27;13557,083;  320,056;52094,996;25,56647
 776,84;13610,690;  363,807;52179,269;25,56550
 777,41;13595,922;  294,682;51862,792;25,79354
 777,97;13627,654;  277,558;51629,940;25,99703
 778,54;13675,761;  283,808;51722,338;26,03487
 779,11;13765,493;  318,309;51829,486;26,10537
 779,67;13729,475;  289,934;51613,759;26,18577
 780,24;13745,457;  295,309;51413,157;26,31204
 780,80;13823,189;  296,810;51356,055;26,49154
 781,37;13884,046;  289,310;51356,328;26,62136
 781,94;13903,028;  293,186;51175,226;26,74783
 782,50;13977,260;  292,436;51084,749;26,94271
 783,07;13925,367;  311,312;51102,772;26,80383
 783,63;13949,224;  288,062;51079,170;26,89676
 784,20;14107,081;  287,188;50844,943;27,33486
 784,77;14092,438;  288,813;50769,216;27,34452
 785,33;13971,920;  264,938;50504,239;27,28338
 785,90;14102,527;  284,689;50605,637;27,45942
 786,46;14162,134;  303,439;50423,660;27,65091
 787,03;14213,741;  280,565;50221,558;27,89928
 787,59;14181,223;  284,190;50098,707;27,89756
 788,16;14216,580;  294,816;50187,355;27,90350
 788,73;14308,437;  303,941;50058,128;28,14737
 789,29;14280,794;  276,192;49704,276;28,33329
 789,86;14315,526;  308,567;49612,299;28,40953
 790,42;14373,008;  285,943;49536,822;28,60267
 790,99;14374,615;  310,443;49118,720;28,81514
 791,55;14411,972;  282,318;49117,368;28,93343
 792,12;14448,829;  324,819;49157,266;28,92341
 792,68;14385,311;  297,694;48807,289;29,04089
 793,25;14468,418;  285,445;48599,812;29,35560
 793,81;14437,400;  368,070;48284,085;29,36248
 794,38;14369,507;  254,571;48050,608;29,53160
 794,94;14484,114;  274,571;47933,756;29,81491
 795,51;14498,721;  284,947;47759,529;29,93976
 796,07;14434,203;  285,572;47600,302;29,90323
 796,64;14477,685;  294,447;47582,575;29,99323
 797,20;14365,292;  295,448;47264,598;29,95550
 797,77;14385,024;  253,073;46810,996;30,35348
 798,33;14401,631;  293,449;46616,144;30,45631
 798,90;14515,988;  299,824;46613,667;30,69528
 799,46;14406,720;  276,575;46204,065;30,76620
 800,03;14436,952;  285,450;46082,838;30,90024
 800,59;14458,059;  303,076;45922,986;31,02808
 801,15;14514,916;  307,326;45651,884;31,33251
 801,72;14420,648;  290,951;45333,157;31,36990
 802,28;14355,630;  319,702;45032,805;31,39109
 802,85;14381,112;  296,452;44956,578;31,53744
 803,41;14417,219;  277,703;44739,351;31,80160
 803,98;14383,452;  284,953;44325,249;32,01272
 804,54;14433,684;  278,579;44070,647;32,32344
 805,11;14337,666;  297,454;43951,795;32,16223
 805,67;14386,773;  308,830;43792,443;32,37528
 806,23;14253,005;  306,705;43382,592;32,37612
 806,80;14311,987;  317,331;43176,615;32,65257
 807,36;14446,594;  305,331;43235,263;32,94033
 807,93;14346,826;  322,581;42844,536;32,98118
 808,49;14315,058;  274,957;42587,809;33,18165
 809,05;14273,290;  266,582;42414,707;33,23210
 809,62;14288,897;  292,958;42395,230;33,24272
 810,18;14323,254;  286,458;42319,878;33,39437
 810,74;14272,486;  260,459;42027,276;33,54823
 811,31;14255,593;  251,834;41764,049;33,73407
 811,87;14321,950;  287,460;41595,322;33,97535
 812,44;14332,432;  309,460;41703,720;33,87661
 813,00;14252,039;  230,710;41293,368;34,14618
 813,56;14331,271;  282,711;41415,641;34,15405
 814,13;14461,128;  276,461;41289,914;34,58540
 814,69;14376,110;  280,087;41046,437;34,57759
 815,25;14281,842;  234,837;40675,585;34,73478
 815,82;14379,074;  282,713;40590,108;34,97215
 816,38;14368,431;  313,713;40538,881;34,94011
 816,94;14351,038;  274,589;40158,029;35,29397
 817,51;14304,270;  257,714;39859,927;35,46912
 818,07;14274,002;  257,839;39667,700;35,56512
 818,63;14252,109;  289,840;39498,473;35,61019
 819,20;14327,966;  266,340;39398,871;35,93334
 819,76;14259,823;  246,466;39101,644;36,06561
 820,32;14263,180;  280,841;39011,042;36,10190
 820,89;14224,787;  288,092;38736,065;36,24819
 821,45;14158,769;  267,217;38466,088;36,36639
 822,01;14252,751;  265,093;38158,111;36,91355
 822,57;14254,233;  279,468;38189,759;36,86272
 823,14;14200,840;  239,344;37857,282;37,11393
 823,70;14091,697;  272,094;37686,305;36,93677
 824,26;14128,804;  266,219;37482,953;37,24826
 824,82;14067,911;  286,220;37313,476;37,22039
 825,39;13970,018;  263,595;37000,625;37,30956
 825,95;14116,500;  268,221;37130,398;37,56772
 826,51;14056,232;  286,471;36660,296;37,85624
 827,08;14139,214;  319,847;36759,944;37,92352
 827,64;14055,071;  278,597;36610,092;37,91882
 828,20;14112,303;  251,723;36290,115;38,46060
 828,76;14075,785;  294,848;36350,638;38,22115
 829,32;14070,017;  301,473;36122,411;38,43714
 829,89;14141,624;  252,224;36009,559;38,84350
 830,45;14180,356;  278,349;35833,582;39,09975
 831,01;14093,463;  277,725;35798,230;38,89511
 831,57;14195,945;  271,850;35675,003;39,33010
 832,14;14259,177;  253,101;35576,526;39,65096
 832,70;14152,784;  235,976;35404,174;39,57214
 833,26;14169,141;  230,227;35218,322;39,83902
 833,82;14316,873;  264,477;35142,345;40,29030
 834,38;14259,855;  250,978;35230,493;40,04880
 834,95;14290,337;  260,603;35090,141;40,28114
 835,51;14178,819;  235,103;35008,414;40,09890
 836,07;14343,051;  270,229;35057,937;40,45343
 836,63;14303,033;  283,979;34973,960;40,41240
 837,19;14344,140;  291,105;34833,483;40,68346
 837,75;14339,747;  221,230;34505,131;41,18119
 838,32;14393,229;  287,481;34618,779;41,08714
 838,88;14535,461;  280,481;34716,177;41,39594
 839,44;14505,943;  288,982;34549,450;41,49669
 840,00;14485,425;  274,607;34511,348;41,50751
 840,56;14462,532;  262,982;34225,496;41,80948
 841,12;14502,889;  251,233;34224,894;41,94913
 841,68;14486,121;  230,358;33893,042;42,34886
 842,25;14528,353;  252,234;34014,440;42,28432
 842,81;14456,460;  245,234;33837,963;42,30447
 843,37;14512,192;  234,735;33749,111;42,60099
 843,93;14628,674;  270,360;33702,760;42,94730
 844,49;14680,531;  279,986;33763,033;43,00847
 845,05;14622,138;  222,736;33538,806;43,22059
 845,61;14789,620;  284,111;33659,704;43,46143
 846,17;14743,477;  247,362;33445,477;43,66548
 846,73;14711,209;  265,487;33395,500;43,60313
 847,29;14716,192;  245,363;33244,023;43,85278
 847,86;14732,549;  256,363;33235,796;43,89459
 848,42;14722,656;  253,989;32993,694;44,19303
 848,98;14759,763;  260,864;32951,092;44,35239
 849,54;14799,745;  247,240;33001,615;44,42919
 850,10;14844,977;  266,490;32797,013;44,81479
 850,66;14779,084;  243,741;32648,661;44,85536
 851,22;14787,566;  228,616;32741,809;44,77859
 851,78;14904,048;  286,241;32630,707;45,19415
 852,34;14822,155;  272,867;32366,480;45,33390
 852,90;14754,137;  247,742;32345,253;45,19476
 853,46;14746,619;  258,993;32266,151;45,26371
 854,02;14838,226;  253,493;32184,174;45,67623
 854,58;14690,208;  254,494;31899,447;45,61774
 855,14;14765,565;  246,744;31813,345;45,99425
 855,70;14743,422;  224,870;31658,118;46,18852
 856,26;14692,279;  264,620;31672,141;45,93695
 856,82;14719,636;  257,245;31568,914;46,18850
 857,38;14793,868;  282,746;31440,062;46,57372
 857,94;14823,725;  252,996;31288,835;46,94807
 858,50;14800,582;  285,622;31094,608;47,11275
 859,06;14781,564;  232,997;30921,131;47,40779
 859,62;14793,171;  276,498;30964,779;47,30364
 860,18;14769,028;  260,748;30862,302;47,41027
 860,74;14769,760;  230,249;30585,200;47,89832
 861,30;14715,992;  227,499;30472,098;47,90440
 861,86;14802,474;  316,875;30517,371;47,96477
 862,42;14667,206;  260,500;30274,894;47,99932
 862,98;14752,813;  285,625;30344,668;48,12924
 863,54;14663,920;  263,876;30064,816;48,32077
 864,10;14799,777;  259,251;30079,839;48,76002
 864,66;14724,634;  241,127;29868,987;48,88476
 865,22;14690,241;  240,377;29722,385;49,01248
 865,78;14686,848;  257,253;29662,158;49,07207
 866,34;14739,455;  234,378;29471,431;49,61197
 866,90;14691,312;  247,254;29380,204;49,57980
 867,45;14689,044;  249,754;29259,227;49,77440
 868,01;14700,901;  262,879;29116,750;50,03842
 868,57;14586,133;  246,880;28889,273;50,06304
 869,13;14585,740;  229,755;28812,671;50,22575
 869,69;14647,222;  238,381;28766,319;50,50783
 870,25;14565,579;  223,881;28501,092;50,71822
 870,81;14660,436;  250,132;28594,365;50,84034
 871,37;14609,043;  258,507;28440,763;50,92047
 871,93;14571,150;  269,508;28325,911;50,97461
 872,49;14559,757;  291,133;28027,684;51,44340
 873,04;14471,114;  235,508;27799,082;51,64644
 873,60;14473,096;  242,259;27761,105;51,71306
 874,16;14477,328;  270,134;27678,378;51,83548
 874,72;14454,578;  257,759;27574,003;51,97208
 875,28;14434,453;  255,634;27548,378;51,95087
 875,84;14502,828;  250,759;27388,003;52,51848
 876,40;14477,953;  235,259;27368,753;52,49119
 876,95;14520,703;  270,259;27426,128;52,47648
 877,51;14526,703;  281,009;27443,628;52,44595
 878,07;14645,953;  294,259;27361,878;53,02163
 878,63;14658,453;  251,259;27411,753;53,04467
 879,19;14711,703;  266,384;27291,628;53,45121
 879,75;14785,578;  241,009;27423,878;53,50638
 880,30;14852,578;  244,509;27399,378;53,79539
 880,86;15005,953;  301,134;27534,628;53,99534
 881,42;14995,828;  233,009;27552,503;54,03767
 881,98;15101,953;  260,759;27569,628;54,34569
 882,54;15253,078;  250,259;27762,378;54,53167
 883,09;15318,078;  262,884;27892,003;54,49031
 883,65;15379,453;  244,134;27990,503;54,54883
 884,21;15663,953;  292,884;28238,128;55,00424
 884,77;15756,203;  240,759;28121,878;55,64857
 885,32;15908,703;  257,259;28303,628;55,80560
 885,88;15952,578;  291,509;28606,253;55,31065
 886,44;16084,703;  270,009;28655,253;55,71449
 887,00;16181,953;  276,509;28478,503;56,39830
 887,56;16241,453;  253,634;28735,378;56,13357
 888,11;16316,453;  263,634;28811,503;56,23123
 888,67;16499,578;  303,509;28942,128;56,55325
 889,23;16495,203;  259,634;28870,128;56,74690
 889,79;16485,078;  238,259;28843,503;56,79665
 890,34;16506,953;  270,509;28832,003;56,84732
 890,90;16654,953;  340,259;29040,753;56,84464
 891,46;16514,703;  243,634;28789,878;56,99898
 892,01;16552,828;  262,759;28743,628;57,19653
 892,57;16609,328;  272,009;28809,253;57,24911
 893,13;16455,703;  230,009;28569,378;57,25496
 893,69;16571,453;  250,009;28504,503;57,76583
 894,24;16490,578;  259,509;28454,378;57,56746
 894,80;16436,328;  258,134;28242,378;57,81180
 895,36;16489,453;  257,884;28222,128;58,04401
 895,91;16434,453;  242,884;27902,003;58,53971
 896,47;16431,578;  274,634;27778,378;58,74453
 897,03;16279,078;  240,384;27576,753;58,67163
 897,58;16371,953;  263,634;27518,253;59,10308
 898,14;16253,078;  276,634;27360,753;58,98824
 898,70;16130,203;  226,759;27240,253;58,87222
 899,25;16280,953;  262,509;27187,253;59,49339
 899,81;16173,578;  280,384;26960,503;59,56943
 900,37;16127,453;  226,634;26767,128;59,91154
 900,92;16160,578;  252,009;26852,753;59,80498
 901,48;16153,453;  248,509;26677,378;60,18019
 902,03;16179,078;  240,634;26584,128;60,50239
 902,59;16063,578;  236,009;26463,503;60,34724
 903,15;16095,453;  273,384;26409,253;60,53776
 903,70;15940,828;  255,134;26077,503;60,74460
 904,26;15962,328;  247,259;25967,003;61,10119
 904,82;15889,078;  244,509;25982,878;60,78306
 905,37;15939,703;  250,134;25797,128;61,41454
 905,93;15945,078;  236,759;25589,003;61,96027
 906,48;15905,953;  269,259;25615,253;61,69296
 907,04;15916,328;  268,384;25577,878;61,82638
 907,60;15859,703;  256,384;25384,503;62,09505
 908,15;15772,828;  236,384;25188,503;62,26503
 908,71;15793,703;  268,009;25178,378;62,32623
 909,26;15658,578;  246,009;25020,253;62,21207
 909,82;15644,703;  257,759;24899,628;62,44228
 910,37;15664,453;  294,509;24955,003;62,32618
 910,93;15572,578;  233,134;24603,128;62,94398
 911,48;15447,203;  233,384;24536,378;62,60060
 912,04;15421,703;  237,009;24384,628;62,88278
 912,60;15432,953;  232,134;24362,003;62,99586
 913,15;15439,078;  252,259;24192,878;63,43536
 913,71;15264,328;  234,634;23992,253;63,26263
 914,26;15165,578;  223,259;23946,878;62,98499
 914,82;15264,703;  256,509;23871,628;63,55333
 915,37;15212,203;  232,634;23710,003;63,80429
 915,93;15203,953;  304,259;23696,003;63,69638
 916,48;15139,203;  236,759;23541,128;63,94700
 917,04;15084,078;  258,134;23497,003;63,79804
 917,59;15175,578;  280,509;23373,003;64,50178
 918,15;15011,703;  219,009;23159,128;64,48395
 918,70;15049,078;  254,759;23074,003;64,83264
 919,26;15001,828;  256,009;23019,128;64,77943
 919,81;14962,328;  237,884;22797,628;65,26867
 920,37;14990,828;  250,384;22774,128;65,44402
 920,92;14937,078;  269,384;22682,628;65,44208
 921,48;14847,078;  243,634;22514,378;65,57232
 922,03;14894,078;  223,384;22542,503;65,73151
 922,59;14812,953;  257,509;22375,003;65,80964
 923,14;14831,703;  253,884;22156,253;66,55818
 923,69;14798,953;  263,384;22180,628;66,32024
 924,25;14833,453;  275,259;22133,003;66,60428
 924,80;14748,328;  237,759;21890,003;67,01647
 925,36;14612,828;  241,384;21806,878;66,64092
 925,91;14703,078;  243,884;21630,003;67,61018
 926,47;14624,328;  212,384;21562,503;67,50287
 927,02;14655,328;  309,009;21570,128;67,47678
 927,57;14610,328;  242,259;21285,378;68,27918
 928,13;14575,578;  230,259;21367,003;67,86910
 928,68;14538,953;  233,259;21214,128;68,18447
 929,24;14404,828;  214,759;21045,628;68,12039
 929,79;14418,078;  219,509;20830,128;68,88958
 930,34;14328,953;  245,259;20796,378;68,53006
 930,90;14231,953;  238,634;20702,128;68,38187
 931,45;14286,453;  253,009;20658,003;68,77456
 932,01;14273,578;  250,384;20551,628;69,07554
 932,56;14262,953;  267,634;20470,003;69,27563
 933,11;14258,953;  267,884;20446,628;69,33568
 933,67;14191,203;  229,259;20221,628;69,83637
 934,22;14145,453;  250,259;20171,003;69,75238
 934,77;14056,828;  254,384;20040,753;69,75734
 935,33;14028,328;  237,259;20014,753;69,73112
 935,88;14076,828;  249,759;19904,753;70,34888
 936,43;13997,203;  245,509;19795,128;70,34252
 936,99;13890,328;  235,884;19691,878;70,18117
 937,54;13823,578;  217,259;19403,378;70,91752
 938,09;13875,828;  253,884;19535,878;70,64593
 938,65;13745,453;  254,634;19403,378;70,45276
 939,20;13723,703;  211,884;19236,628;71,02234
 939,75;13788,953;  223,134;19270,753;71,22055
 940,31;13682,203;  227,634;19060,128;71,44337
 940,86;13725,078;  243,259;19067,378;71,61992
 941,41;13664,703;  331,009;19018,878;71,34946
 941,96;13634,203;  229,509;18780,503;72,25863
 942,52;13573,453;  251,009;18697,628;72,22160
 943,07;13463,578;  218,134;18676,128;71,75993
 943,62;13519,078;  226,259;18607,503;72,31730
 944,18;13454,328;  221,384;18586,378;72,05526
 944,73;13405,453;  245,259;18394,253;72,51197
 945,28;13309,703;  207,634;18279,003;72,50181
 945,83;13432,578;  234,134;18219,378;73,38485
 946,39;13339,453;  230,384;18248,128;72,75644
 946,94;13360,328;  261,009;18027,753;73,72943
 947,49;13271,328;  236,509;17966,753;73,51743
 948,04;13351,078;  275,009;18014,128;73,71318
 948,59;13308,828;  268,384;17873,253;74,07294
 949,15;13213,953;  231,884;17804,503;73,87669
 949,70;13173,703;  234,259;17653,503;74,28247
 950,25;13154,828;  248,884;17706,878;73,92570
 950,80;13061,578;  205,759;17511,628;74,28589
 951,36;12980,828;  217,884;17507,128;73,82014
 951,91;13075,828;  253,009;17470,503;74,47552
 952,46;12893,203;  222,509;17188,628;74,68234
 953,01;13005,578;  250,134;17225,128;75,14255
 953,56;12885,703;  213,634;17122,753;74,94222
 954,11;12957,203;  243,884;17078,753;75,51778
 954,67;12891,828;  223,009;16969,128;75,65227
 955,22;12876,828;  224,384;16796,378;76,34835
 955,77;12886,578;  253,509;16719,628;76,72159
 956,32;12833,078;  288,634;16633,628;76,74793
 956,87;12766,828;  225,384;16514,753;76,99159
 957,42;12725,328;  231,384;16456,628;77,00312
 957,98;12718,453;  232,509;16379,378;77,32734
 958,53;12767,203;  265,634;16353,253;77,70926
 959,08;12671,078;  224,634;16219,128;77,81705
 959,63;12620,703;  233,634;16169,003;77,73318
 960,18;12652,328;  244,384;16146,878;78,02514
 960,73;12719,703;  234,634;16087,128;78,75776
 961,28;12588,828;  203,384;15994,628;78,43235
 961,83;12632,828;  266,759;15909,253;79,05433
 962,39;12527,203;  227,259;15738,003;79,29951
 962,94;12500,078;  249,134;15684,003;79,37187
 963,49;12397,078;  234,884;15612,003;79,09280
 964,04;12386,953;  252,884;15539,503;79,37706
 964,59;12332,578;  203,759;15504,378;79,27012
 965,14;12351,203;  250,509;15330,128;80,24536
 965,69;12212,578;  235,134;15311,378;79,44581
 966,24;12154,453;  221,134;15202,003;79,65705
 966,79;12136,703;  252,884;15151,128;79,76657
 967,34;12048,328;  203,259;14946,253;80,34371
 967,89;12042,328;  234,634;14840,753;80,84073
 968,44;11985,203;  250,884;14788,878;80,71484
 968,99;11948,453;  256,259;14732,253;80,76954
 969,55;11865,703;  242,884;14691,128;80,44451
 970,10;11827,828;  234,884;14614,628;80,61996
 970,65;11814,828;  262,759;14470,378;81,30897
 971,20;11745,953;  225,009;14369,878;81,44963
 971,75;11610,953;  217,884;14270,753;81,07290
 972,30;11669,328;  245,009;14232,503;81,67524
 972,85;11612,578;  233,509;14126,628;81,90435
 973,40;11546,578;  220,509;13932,253;82,60123
 973,95;11517,453;  237,884;13944,253;82,29436
 974,50;11573,953;  265,884;13852,253;83,23099
 975,05;11502,203;  245,759;13745,753;83,38110
 975,60;11426,453;  260,884;13712,128;83,00771
 976,15;11304,453;  228,884;13604,628;82,80339
 976,70;11344,953;  239,134;13528,503;83,56920
 977,25;11252,828;  252,634;13442,003;83,40197
 977,80;11194,078;  228,009;13275,003;84,05054
 978,35;11107,328;  254,884;13120,753;84,35065
 978,89;11030,203;  210,134;13086,628;84,02962
 979,44;11132,703;  248,134;13051,753;85,01166
 979,99;11049,578;  214,509;12875,128;85,58088
 980,54;11019,203;  261,009;12754,628;86,10951
 981,09;10949,328;  267,759;12682,628;86,03852
 981,64;10842,578;  252,759;12533,003;86,23460
 982,19;10844,328;  269,759;12554,128;86,08150
 982,74;10765,828;  248,759;12370,003;86,76559
 983,29;10658,453;  237,884;12254,378;86,71888
 983,84;10663,578;  240,509;12178,503;87,31005
 984,39;10673,453;  335,759;12094,003;87,91869
 984,94;10503,578;  220,259;11988,128;87,38472
 985,49;10488,078;  262,884;11895,878;87,89821
 986,03;10518,828;  260,634;11798,878;88,90602
 986,58;10393,328;  293,884;11771,503;87,99250
 987,13;10319,578;  246,259;11579,128;88,88587
 987,68;10263,453;  253,509;11507,503;88,94570
 988,23;10231,453;  263,509;11439,503;89,19067
 988,78;10102,703;  232,884;11302,628;89,16032
 989,33;10105,328;  254,509;11168,253;90,26067
 989,88;10069,328;  285,134;11193,503;89,69438
 990,42; 9980,828;  244,259;10999,128;90,53173
 990,97; 9853,078;  243,759;10884,503;90,30683
 991,52; 9768,828;  265,884;10848,378;89,79872
 992,07; 9778,703;  280,634;10702,003;91,14032
 992,62; 9677,453;  247,134;10623,128;90,88593
 993,17; 9507,828;  259,634;10504,003;90,27588
 993,71; 9484,703;  260,509;10500,253;90,08227
 994,26; 9376,328;  233,259;10249,128;91,28583
 994,81; 9381,453;  277,509;10310,253;90,74231
 995,36; 9229,078;  243,134;10066,503;91,47517
 995,91; 9221,453;  241,009;10022,253;91,81290
 996,45; 9043,328;  262,259; 9928,878;90,83909
 997,00; 9032,828;  235,384; 9768,628;92,28175
 997,55; 8989,953;  250,634; 9720,753;92,28310
 998,10; 8951,078;  271,134; 9657,253;92,47639
 998,65; 8800,953;  240,134; 9575,003;91,70797
 999,19; 8743,703;  273,384; 9418,378;92,62247
 999,74; 8702,828;  296,634; 9336,253;92,99279
1000,29; 8597,078;  248,134; 9231,878;92,93390
1000,84; 8502,078;  260,384; 9129,378;92,92704
1001,38; 8475,328;  257,509; 9017,628;93,80944
1001,93; 8427,328;  261,384; 8967,378;93,79680
1002,48; 8293,578;  231,634; 8805,128;94,03335
1003,03; 8304,953;  262,509; 8742,128;94,84440
1003,57; 8162,453;  246,509; 8670,753;93,96622
1004,12; 8158,328;  298,384; 8602,003;94,65685
1004,67; 8073,828;  238,634; 8466,003;95,23329
1005,22; 7909,453;  243,509; 8329,503;94,80521
1005,76; 7799,703;  233,884; 8179,378;95,22151
1006,31; 7821,828;  261,634; 8210,128;95,11480
1006,86; 7649,078;  241,384; 8008,878;95,36788
1007,40; 7620,578;  227,884; 7869,878;96,73776
1007,95; 7543,828;  253,009; 7873,503;95,67384
1008,50; 7463,078;  257,759; 7767,753;95,94307
1009,04; 7352,703;  249,509; 7615,503;96,43225
1009,59; 7299,953;  249,884; 7503,128;97,19884
1010,14; 7128,703;  231,384; 7368,753;96,63672
1010,68; 7070,328;  251,509; 7250,003;97,43266
1011,23; 6939,953;  250,259; 7134,003;97,18104
1011,78; 6901,953;  266,259; 7093,128;97,19967
1012,32; 6821,578;  278,509; 7000,253;97,34184
1012,87; 6774,328;  271,009; 6989,378;96,79907
1013,42; 6640,953;  235,384; 6848,503;96,86154
1013,96; 6670,953;  275,759; 6864,128;97,06794
1014,51; 6531,453;  214,259; 6725,128;97,02536
1015,06; 6552,078;  221,259; 6773,628;96,61878
1015,60; 6658,828;  291,134; 6803,253;97,78221
1016,15; 6587,953;  236,009; 6754,753;97,44122
1016,69; 6637,578;  247,134; 6759,253;98,13156
1017,24; 6616,953;  218,259; 6711,378;98,54577
1017,79; 6676,328;  287,259; 6827,503;97,68854
1018,33; 6659,453;  252,509; 6727,253;98,95285
1018,88; 6746,328;  259,384; 6856,503;98,32995
1019,42; 6731,328;  233,009; 6879,628;97,76879
1019,97; 6754,203;  232,634; 6881,003;98,09277
1020,51; 6833,453;  273,884; 6943,003;98,35735
1021,06; 6814,578;  234,634; 6865,003;99,23948
1021,61; 6717,328;  216,634; 6885,503;97,47821
1022,15; 6780,828;  191,634; 6840,878;99,09689
1022,70; 6764,578;  249,759; 6853,628;98,65155
1023,24; 6700,453;  238,634; 6839,253;97,89717
1023,79; 6667,203;  243,134; 6774,503;98,35716
1024,33; 6626,703;  240,259; 6673,378;99,27446
1024,88; 6602,578;  258,509; 6621,503;99,70258
1025,42; 6455,953;  251,134; 6513,753;99,07706
1025,97; 6434,328;  218,259; 6406,753;100,44559
1026,51; 6339,578;  207,009; 6313,378;100,42906
1027,06; 6274,578;  227,634; 6260,253;100,23746
1027,60; 6142,578;  246,884; 6132,253;100,17544
1028,15; 6146,953;  254,509; 6078,753;101,17097
1028,69; 6015,203;  191,134; 5940,003;101,30808
1029,24; 6030,078;  239,134; 5863,253;102,96624
1029,78; 5858,578;  219,759; 5768,378;101,62563
1030,33; 5760,328;  217,634; 5648,628;102,05671
1030,87; 5740,328;  223,634; 5602,003;102,57188
1031,42; 5643,703;  218,009; 5497,003;102,77894
1031,96; 5594,953;  247,384; 5439,878;102,98652
1032,51; 5523,828;  230,759; 5345,128;103,49408
1033,05; 5499,453;  237,134; 5284,003;104,26898
1033,60; 5350,578;  215,259; 5192,128;103,18373
1034,14; 5316,078;  221,009; 5125,753;103,88043
1034,69; 5264,953;  235,384; 5066,003;104,11852
1035,23; 5183,078;  230,009; 5000,378;103,82989
1035,77; 5119,078;  235,759; 4943,253;103,73500
1036,32; 5075,578;  217,009; 4838,128;105,13837
1036,86; 5049,328;  246,634; 4790,878;105,68741
1037,41; 4943,703;  252,759; 4708,378;105,28153
1037,95; 4874,828;  200,259; 4616,253;105,85542
1038,50; 4859,703;  228,259; 4563,503;106,83237
1039,04; 4802,578;  256,759; 4536,378;106,22018
1039,58; 4780,953;  212,634; 4473,128;107,22510
1040,13; 4664,578;  221,759; 4372,253;107,04314
1040,67; 4687,828;  259,259; 4397,878;107,00596
1041,21; 4571,203;  258,509; 4295,628;106,82603
1041,76; 4489,328;  216,259; 4204,253;107,14833
1042,30; 4459,078;  228,009; 4140,253;108,14942
1042,85; 4371,203;  222,509; 4049,378;108,40962
1043,39; 4349,328;  216,759; 4013,003;108,85942
1043,93; 4311,328;  239,009; 4026,378;107,52369
1044,48; 4222,703;  246,134; 3922,253;108,17302
1045,02; 4169,453;  228,134; 3879,878;107,92977
1045,56; 4156,578;  263,634; 3844,628;108,71127
1046,11; 4060,453;  242,509; 3809,253;107,04284
1046,65; 4002,703;  250,009; 3732,878;107,74721
1047,19; 3973,953;  230,259; 3646,128;109,59712
1047,74; 3917,703;  214,259; 3568,378;110,41481
1048,28; 3868,078;  237,884; 3582,253;108,54646
1048,82; 3851,203;  259,134; 3544,628;109,33117
1049,37; 3790,828;  248,009; 3496,253;109,06875
1049,91; 3752,453;  240,509; 3480,253;108,40190
1050,45; 3680,828;  253,884; 3407,003;108,68426
1050,99; 3673,328;  253,009; 3363,628;109,95622
1051,54; 3588,328;  220,884; 3270,503;110,42179
1052,08; 3619,328;  266,259; 3269,128;111,66218
1052,62; 3536,453;  247,759; 3227,878;110,35445
1053,16; 3432,453;  226,634; 3147,628;109,75096
1053,71; 3422,203;  235,259; 3155,378;109,13747
1054,25; 3329,453;  263,259; 3056,753;109,76197
1054,79; 3313,453;  248,259; 3051,378;109,34941
1055,33; 3250,953;  207,009; 2974,378;109,99415
1055,88; 3267,703;  252,509; 2923,753;112,87602
1056,42; 3202,703;  250,634; 2927,503;110,28067
1056,96; 3187,078;  265,634; 2908,503;110,54063
1057,50; 3153,953;  234,634; 2872,628;110,66435
1058,05; 3072,953;  246,634; 2782,628;111,44817
1058,59; 3056,953;  270,634; 2757,378;112,04688
1059,13; 2949,578;  222,884; 2688,378;110,59423
1059,67; 2970,203;  260,759; 2655,503;113,14128
1060,21; 2884,828;  244,134; 2629,753;110,69219
1060,76; 2873,703;  254,884; 2590,878;112,10727
1061,30; 2851,078;  278,009; 2573,753;112,07996
1061,84; 2798,328;  238,384; 2505,378;112,92240
1062,38; 2727,328;  224,759; 2454,003;112,26088
1062,92; 2753,203;  283,259; 2508,003;111,02149
1063,46; 2691,078;  251,884; 2403,128;113,38528
1064,01; 2641,453;  229,384; 2331,253;114,75830
1064,55; 2623,078;  249,509; 2332,128;113,97039
1065,09; 2555,328;  213,509; 2301,253;112,16984
1065,63; 2558,828;  275,509; 2314,878;111,96203
1066,17; 2520,453;  282,259; 2276,003;112,26085
1066,71; 2494,203;  269,634; 2232,628;113,32531
1067,25; 2419,203;  252,759; 2183,628;112,20047
1067,80; 2434,703;  267,509; 2176,878;113,50315
1068,34; 2399,203;  267,884; 2183,003;111,28912
1068,88; 2329,578;  227,384; 2107,253;111,82662
1069,42; 2345,703;  264,634; 2130,503;111,53350
1069,96; 2295,953;  258,759; 2054,753;113,42989
1070,50; 2303,828;  281,509; 2088,753;111,90072
1071,04; 2197,828;  241,009; 1996,628;111,46035
1071,58; 2207,953;  245,134; 1985,003;112,81418
1072,12; 2174,328;  241,759; 1958,503;112,57177
1072,66; 2160,578;  242,759; 1971,878;110,91307
1073,21; 2189,828;  265,009; 1939,378;114,95788
1073,75; 2146,953;  260,759; 1910,503;114,33253
1074,29; 2084,828;  239,884; 1852,753;114,38896
1074,83; 2107,078;  271,509; 1869,628;114,85809
1075,37; 2067,203;  267,509; 1846,628;113,96823
1075,91; 2050,578;  262,884; 1820,878;114,74332
1076,45; 2021,328;  264,509; 1808,253;113,80249
1076,99; 1968,453;  274,884; 1784,753;112,16662
1077,53; 1962,328;  251,384; 1737,503;115,12833
1078,07; 1968,828;  263,009; 1706,003;118,21387
1078,61; 1895,828;  259,634; 1672,003;115,84749
1079,15; 1882,578;  242,759; 1671,378;114,78351
1079,69; 1866,703;  242,259; 1661,003;114,49874
1080,23; 1875,453;  270,509; 1651,003;116,25868
1080,77; 1883,578;  300,884; 1695,753;113,46542
1081,31; 1805,953;  243,634; 1588,003;116,21207
1081,85; 1822,953;  263,634; 1627,378;114,34104
1082,39; 1786,203;  244,884; 1565,128;116,74501
1082,93; 1745,828;  247,134; 1560,753;114,08894
1083,47; 1711,953;  233,384; 1516,628;115,22119
1084,01; 1758,453;  267,259; 1536,628;117,47522
1084,55; 1690,453;  248,009; 1494,628;115,70849
1085,09; 1700,828;  254,384; 1500,253;116,09921
1085,63; 1641,078;  252,259; 1475,878;113,50094
1086,17; 1643,203;  261,134; 1448,003;116,44664
1086,71; 1599,703;  245,009; 1412,128;116,07163
1087,24; 1639,453;  278,509; 1442,753;116,89509
1087,78; 1630,203;  260,259; 1446,503;115,48586
1088,32; 1555,703;  236,509; 1385,253;114,83795
1088,86; 1574,953;  271,384; 1385,253;117,03073
1089,40; 1537,953;  262,759; 1364,503;115,74323
1089,94; 1505,203;  224,009; 1318,878;117,01802
1090,48; 1516,078;  261,259; 1308,128;119,86400
1091,02; 1514,453;  277,884; 1317,253;118,97305
1091,56; 1478,078;  241,509; 1288,628;118,09250
1092,10; 1438,578;  234,634; 1270,628;116,21149
1092,63; 1464,203;  273,884; 1284,753;117,75206
1093,17; 1436,953;  263,134; 1265,628;117,08988
1093,71; 1399,953;  246,884; 1246,753;115,32201
1094,25; 1414,328;  278,009; 1237,003;118,49074
1094,79; 1378,828;  242,759; 1230,628;115,00199
1095,33; 1384,953;  264,509; 1201,378;119,59453
1095,87; 1362,703;  259,384; 1185,378;119,14970
1096,40; 1297,828;  242,634; 1136,253;118,08098
1096,94; 1317,078;  264,759; 1172,753;115,89493
1097,48; 1310,578;  273,509; 1160,628;116,90304
1098,02; 1276,203;  250,634; 1128,003;116,89142
1098,56; 1247,078;  223,384; 1101,503;116,57805
1099,10; 1236,078;  216,259; 1081,003;117,93306
1099,63; 1224,203;  226,884; 1054,878;120,45003
1100,17; 1246,953;  252,759; 1122,253;114,34168
1100,71; 1240,453;  285,884; 1087,378;119,09871

