
Integration time [ms]: 130,000
Averaging Nr. [scans]: 8
Smoothing Nr. [pixels]: 0
Data measured with spectrometer [name]: 2009305U1
Wave   ;Sample   ;Dark     ;Reference;Reflectance
[nm]   ;[counts] ;[counts] ;[counts] ;[%]

 175,72;  197,830;  184,647;  202,659;73,19076
 176,32;  233,944;  222,897;  211,946; 0,00000
 176,92;  265,547;  236,022;  234,253; 0,00000
 177,52;  269,502;  247,022;  266,339;116,37839
 178,12;  247,087;  220,272;  216,819; 0,00000
 178,72;  260,183;  254,772;  232,116; 0,00000
 179,32;  253,931;  236,022;  236,650; 0,00000
 179,92;  258,125;  237,272;  239,552;914,38588
 180,52;  262,171;  227,272;  247,498;172,54448
 181,12;  256,261;  233,897;  247,458;164,90802
 181,73;  268,336;  255,022;  265,840;123,06767
 182,33;  357,333;  298,022;  312,473;410,43538
 182,93;  274,825;  253,272;  263,032;220,82145
 183,53;  238,124;  231,647;  214,044; 0,00000
 184,13;  250,769;  240,772;  231,230; 0,00000
 184,73;  281,530;  260,772;  254,913; 0,00000
 185,33;  292,512;  221,522;  332,987;63,68827
 185,93;  300,706;  240,897;  349,033;55,30917
 186,53;  303,763;  235,397;  360,514;54,64122
 187,13;  336,777;  276,147;  418,944;42,45919
 187,73;  302,833;  221,397;  354,971;60,96723
 188,33;  303,349;  236,147;  369,308;50,46712
 188,93;  305,435;  233,772;  375,642;50,51299
 189,53;  315,402;  250,022;  372,915;53,20062
 190,13;  337,579;  256,647;  403,968;54,93549
 190,73;  294,627;  221,647;  340,553;61,37583
 191,34;  330,180;  260,647;  370,341;63,38803
 191,94;  292,123;  230,772;  342,362;54,97920
 192,54;  314,412;  258,772;  381,996;45,15348
 193,14;  323,254;  253,272;  373,617;58,15084
 193,74;  307,121;  241,272;  359,726;55,59049
 194,34;  296,530;  242,897;  362,007;45,02792
 194,94;  272,577;  212,772;  337,936;47,78107
 195,54;  250,767;  211,022;  325,315;34,77500
 196,14;  281,779;  222,147;  348,806;47,08121
 196,74;  279,367;  215,397;  317,051;62,92899
 197,34;  270,050;  183,272;  330,840;58,80517
 197,94;  282,730;  219,522;  362,590;44,18055
 198,54;  308,516;  234,397;  367,260;55,78617
 199,14;  277,776;  215,397;  360,862;42,88247
 199,74;  272,703;  192,897;  366,668;45,92595
 200,34;  275,817;  198,897;  369,311;45,13737
 200,94;  301,857;  223,522;  397,050;45,14258
 201,54;  293,919;  210,772;  406,061;42,57652
 202,14;  302,835;  217,897;  414,733;43,15182
 202,74;  305,685;  210,897;  446,295;40,26707
 203,34;  281,796;  191,772;  455,445;34,14224
 203,94;  269,471;  164,897;  446,139;37,18283
 204,54;  345,077;  236,897;  512,110;39,30757
 205,14;  317,763;  194,147;  526,691;37,17274
 205,74;  351,942;  222,397;  602,708;34,06287
 206,34;  324,145;  197,397;  615,632;30,30555
 206,94;  348,479;  215,022;  680,432;28,67507
 207,54;  339,627;  192,647;  679,883;30,16607
 208,14;  355,478;  202,272;  776,481;26,68131
 208,74;  369,995;  210,772;  835,193;25,49924
 209,34;  389,583;  198,022;  904,871;27,10072
 209,94;  420,466;  202,397;  984,838;27,87033
 210,54;  441,283;  203,272; 1057,351;27,86758
 211,14;  452,612;  209,647; 1162,476;25,49932
 211,73;  460,823;  200,522; 1281,916;24,07088
 212,33;  492,555;  220,647; 1367,619;23,70660
 212,93;  485,015;  195,147; 1438,081;23,32132
 213,53;  477,797;  172,272; 1482,749;23,31401
 214,13;  514,621;  181,897; 1524,126;24,78892
 214,73;  504,710;  190,397; 1584,233;22,55024
 215,33;  497,591;  151,022; 1596,588;23,97462
 215,93;  543,186;  193,147; 1749,005;22,49817
 216,53;  516,898;  160,022; 1804,923;21,69592
 217,13;  582,947;  206,272; 2015,862;20,81550
 217,73;  607,541;  180,522; 2206,492;21,07725
 218,33;  592,084;  154,397; 2370,804;19,74762
 218,93;  678,646;  170,272; 2565,586;21,22369
 219,53;  715,761;  182,772; 2869,485;19,83798
 220,13;  727,360;  175,147; 3150,943;18,55683
 220,73;  830,945;  181,272; 3496,701;19,59545
 221,32;  914,995;  183,397; 3819,693;20,11931
 221,92;  991,566;  177,522; 4195,354;20,26078
 222,52; 1063,184;  172,647; 4598,740;20,12016
 223,12; 1165,090;  170,147; 5027,534;20,48309
 223,72; 1264,017;  193,522; 5304,465;20,94516
 224,32; 1402,824;  184,147; 5675,974;22,19075
 224,92; 1455,923;  167,647; 5919,258;22,39853
 225,52; 1571,531;  196,397; 6249,239;22,71881
 226,12; 1649,132;  187,022; 6543,260;23,00276
 226,72; 1788,937;  148,772; 6883,206;24,35490
 227,31; 1916,286;  162,272; 7140,115;25,13690
 227,91; 2065,007;  186,022; 7468,912;25,80000
 228,51; 2204,242;  182,772; 7869,581;26,29791
 229,11; 2359,919;  180,772; 8198,208;27,18009
 229,71; 2498,687;  168,647; 8461,309;28,09762
 230,31; 2689,772;  156,772; 8826,842;29,21545
 230,91; 2836,521;  162,647; 9189,262;29,62212
 231,51; 3046,640;  163,397; 9498,651;30,88553
 232,10; 3222,485;  161,022; 9800,644;31,75916
 232,70; 3433,905;  178,272;10024,007;33,06643
 233,30; 3686,655;  185,772;10345,711;34,45772
 233,90; 3917,879;  175,772;10501,621;36,24019
 234,50; 4135,877;  169,647;10677,856;37,74411
 235,10; 4317,673;  173,397;10820,258;38,92486
 235,70; 4542,192;  178,147;10988,311;40,36984
 236,29; 4728,877;  193,522;11071,786;41,69191
 236,89; 4875,217;  162,022;10996,317;43,50255
 237,49; 5081,744;  187,522;11032,465;45,12907
 238,09; 5175,270;  168,772;10835,757;46,93452
 238,69; 5318,956;  207,147;10740,737;48,52866
 239,29; 5337,010;  181,647;10531,851;49,80929
 239,89; 5440,493;  194,647;10312,407;51,84790
 240,48; 5381,869;  169,147;10033,416;52,84449
 241,08; 5403,078;  170,522; 9775,717;54,47631
 241,68; 5437,512;  186,272; 9483,164;56,48383
 242,28; 5316,637;  165,272; 9212,088;56,94119
 242,88; 5352,923;  202,647; 8995,682;58,57222
 243,48; 5275,692;  195,522; 8708,159;59,67798
 244,07; 5149,731;  181,397; 8565,572;59,25848
 244,67; 5157,583;  193,772; 8502,469;59,74235
 245,27; 5101,698;  190,522; 8311,791;60,47301
 245,87; 5062,663;  197,147; 8314,276;59,94134
 246,47; 4995,349;  183,147; 8296,632;59,31116
 247,06; 4989,747;  178,022; 8345,556;58,91283
 247,66; 4981,452;  183,397; 8378,766;58,54594
 248,26; 5000,846;  207,397; 8567,242;57,33897
 248,86; 4999,828;  193,397; 8722,244;56,35499
 249,46; 4926,963;  155,897; 8931,595;54,36679
 250,05; 5054,890;  187,647; 9273,804;53,56768
 250,65; 5039,813;  166,647; 9568,635;51,83122
 251,25; 5145,362;  168,022;10131,525;49,95572
 251,85; 5238,079;  175,647;10590,521;48,60771
 252,44; 5286,469;  151,397;11116,103;46,83274
 253,04; 5462,820;  186,897;11893,951;45,06619
 253,64; 5498,664;  143,022;12526,309;43,24895
 254,24; 5610,463;  182,147;13363,373;41,18218
 254,84; 5705,463;  164,647;14223,470;39,41166
 255,43; 5807,211;  173,147;15068,885;37,82333
 256,03; 5859,070;  181,897;15994,853;35,90204
 256,63; 5981,691;  185,522;16940,726;34,59324
 257,23; 5956,808;  166,147;17667,259;33,08739
 257,82; 5894,420;  187,397;18498,116;31,16766
 258,42; 5839,756;  149,272;19213,306;29,84932
 259,02; 5905,380;  187,022;20054,849;28,78200
 259,62; 5734,366;  170,647;20571,072;27,27256
 260,21; 5584,107;  175,522;21025,898;25,93999
 260,81; 5434,278;  189,522;21376,148;24,75503
 261,41; 5255,561;  169,272;21717,425;23,60429
 262,01; 5129,457;  206,647;22148,590;22,43562
 262,60; 4862,933;  161,272;22340,634;21,19836
 263,20; 4709,883;  176,272;22599,315;20,21854
 263,80; 4481,267;  194,022;22739,239;19,01621
 264,40; 4326,967;  167,397;22861,621;18,32876
 264,99; 4196,486;  184,272;22991,445;17,59189
 265,59; 4035,315;  177,772;23148,946;16,79297
 266,19; 3923,569;  168,147;23137,295;16,34985
 266,78; 3837,692;  202,147;23373,933;15,68953
 267,38; 3687,955;  186,272;23356,179;15,11307
 267,98; 3619,421;  173,022;23297,045;14,90398
 268,58; 3527,179;  185,147;23291,714;14,46356
 269,17; 3482,786;  176,022;23331,868;14,28047
 269,77; 3456,748;  181,897;23081,436;14,30095
 270,37; 3421,171;  142,522;23088,344;14,28865
 270,96; 3415,032;  215,022;22899,820;14,10641
 271,56; 3330,290;  181,272;22655,010;14,01199
 272,16; 3344,668;  171,897;22569,177;14,16588
 272,75; 3366,785;  178,772;22492,960;14,28693
 273,35; 3432,826;  175,522;22460,784;14,61641
 273,95; 3490,712;  183,022;22407,016;14,88342
 274,54; 3554,075;  162,397;22523,327;15,16788
 275,14; 3730,042;  191,897;22831,851;15,62788
 275,74; 3734,207;  160,272;22947,688;15,68381
 276,33; 3974,584;  197,772;23380,675;16,29137
 276,93; 4097,715;  180,897;23674,311;16,67199
 277,53; 4297,430;  185,897;24035,592;17,23935
 278,12; 4515,154;  161,022;24636,529;17,78975
 278,72; 4747,385;  202,272;25139,253;18,22640
 279,32; 4977,841;  180,272;25844,289;18,69376
 279,91; 5235,576;  161,397;26530,806;19,24267
 280,51; 5603,146;  175,272;27005,784;20,23023
 281,11; 5852,550;  178,647;27709,590;20,60918
 281,70; 6130,966;  168,522;27974,990;21,44265
 282,30; 6432,915;  158,522;28574,010;22,08089
 282,90; 6787,500;  173,397;29090,750;22,87244
 283,49; 7123,128;  199,897;29473,590;23,65001
 284,09; 7544,586;  213,272;29938,913;24,66327
 284,69; 7800,500;  200,647;30286,222;25,26079
 285,28; 8241,909;  207,397;30624,231;26,41469
 285,88; 8640,129;  212,022;30748,041;27,60054
 286,47; 8945,073;  190,522;30818,443;28,58356
 287,07; 9358,289;  203,647;31076,483;29,65274
 287,67; 9722,567;  200,397;31127,784;30,78880
 288,26;10185,211;  169,897;31125,211;32,35410
 288,86;10684,625;  169,022;31152,048;33,93988
 289,46;11161,930;  200,897;31362,043;35,17532
 290,05;11708,684;  159,522;31388,094;36,98268
 290,65;12316,240;  183,647;31582,969;38,63967
 291,24;12973,596;  194,022;31667,867;40,60379
 291,84;13546,316;  196,647;31763,601;42,29001
 292,44;14212,150;  167,397;31900,258;44,25933
 293,03;14905,208;  235,147;32094,197;46,04676
 293,63;15447,599;  184,272;32166,784;47,72398
 294,22;16159,438;  190,647;32316,010;49,70774
 294,82;16569,434;  189,897;32363,688;50,90956
 295,41;16957,841;  169,772;32163,990;52,47220
 296,01;17451,795;  220,272;32039,192;54,15496
 296,61;17696,781;  183,647;31743,266;55,49222
 297,20;17863,215;  189,272;31482,655;56,47821
 297,80;18168,687;  205,022;31320,157;57,73288
 298,39;18289,579;  163,022;30945,521;58,88592
 298,99;18694,433;  190,772;30842,911;60,36662
 299,58;18804,781;  190,647;30591,412;61,22916
 300,18;18982,052;  204,272;30490,001;62,00207
 300,78;18987,862;  185,397;30024,351;63,01315
 301,37;19219,062;  188,897;30192,529;63,42620
 301,97;19482,404;  189,397;30239,702;64,20237
 302,56;19593,805;  174,522;30024,320;65,05667
 303,16;19711,777;  175,647;30039,291;65,41777
 303,75;19895,010;  187,647;30014,927;66,07161
 304,35;20293,525;  169,397;30225,432;66,95536
 304,94;20459,495;  176,397;30324,144;67,27898
 305,54;20525,745;  199,772;30256,568;67,62521
 306,13;20582,017;  162,647;30178,340;68,02898
 306,73;20575,736;  175,647;30043,748;68,30059
 307,33;20670,687;  199,272;29911,331;68,89935
 307,92;20802,859;  173,522;30020,038;69,11808
 308,52;21200,160;  171,772;30539,634;69,24553
 309,11;21538,488;  181,647;30999,058;69,30122
 309,71;21922,095;  150,272;31304,636;69,88370
 310,30;22162,617;  162,772;31427,505;70,36633
 310,90;22518,617;  191,772;31765,505;70,71335
 311,49;22591,474;  177,147;31936,132;70,57633
 312,09;22775,953;  161,022;32018,842;70,98706
 312,68;23132,797;  203,647;32424,874;71,16163
 313,28;23226,609;  166,272;32608,288;71,08170
 313,87;23211,138;  146,897;32706,393;70,83722
 314,47;23492,853;  180,272;32891,076;71,26875
 315,06;23552,799;  171,147;32971,389;71,28500
 315,66;23734,203;  163,897;33157,592;71,43882
 316,25;23693,045;  149,272;33146,414;71,35094
 316,85;23799,518;  151,272;33258,568;71,42911
 317,44;23696,493;  171,147;33329,511;70,94845
 318,04;23674,151;  155,022;33321,715;70,91189
 318,63;23689,749;  149,897;33387,543;70,82286
 319,22;23774,675;  189,522;33648,617;70,48951
 319,82;23600,456;  182,272;33594,335;70,08901
 320,41;23487,917;  178,272;33545,650;69,85759
 321,01;23449,132;  180,647;33506,787;69,82052
 321,60;23396,797;  164,897;33626,027;69,42952
 322,20;23235,075;  161,397;33615,230;68,97170
 322,79;23210,812;  206,022;33778,934;68,52188
 323,39;23068,442;  167,772;33798,208;68,09507
 323,98;22946,745;  171,147;33765,693;67,79552
 324,58;22734,923;  168,647;33682,804;67,33356
 325,17;22624,399;  172,772;33537,152;67,29221
 325,76;22398,810;  187,647;33380,746;66,91500
 326,36;21989,343;  152,397;33034,652;66,40952
 326,95;21742,539;  195,897;32707,184;66,27434
 327,55;21399,378;  157,397;32386,313;65,90970
 328,14;20993,731;  170,397;31988,246;65,44545
 328,74;20643,378;  197,522;31601,264;65,10643
 329,33;20280,515;  197,022;31157,505;64,86815
 329,92;19795,204;  163,397;30738,125;64,20926
 330,52;19321,111;  180,022;30181,574;63,80033
 331,11;18906,810;  183,772;29710,822;63,40978
 331,71;18410,701;  173,397;29188,931;62,85359
 332,30;18062,245;  194,647;28664,519;62,75967
 332,89;17635,372;  207,772;28232,007;62,18760
 333,49;17100,427;  185,397;27679,730;61,52188
 334,08;16692,240;  181,397;27255,018;60,98498
 334,68;16337,779;  179,897;26962,029;60,33083
 335,27;15993,674;  179,397;26527,536;60,02047
 335,86;15717,935;  207,147;26304,447;59,43446
 336,46;15426,390;  195,147;25992,228;59,04251
 337,05;15227,659;  173,272;25869,731;58,58545
 337,65;14933,667;  161,647;25765,949;57,69351
 338,24;14773,581;  222,772;25783,932;56,92546
 338,83;14665,034;  194,272;25720,454;56,68988
 339,43;14490,886;  173,272;25634,731;56,23250
 340,02;14318,928;  172,397;25518,507;55,81342
 340,61;14178,036;  167,772;25607,219;55,07299
 341,21;14073,878;  205,772;25618,014;54,57254
 341,80;13888,464;  174,897;25574,927;53,99036
 342,40;13775,314;  181,147;25674,970;53,32338
 342,99;13761,497;  180,272;25829,132;52,95060
 343,58;13637,015;  177,522;26027,505;52,06771
 344,18;13581,559;  185,772;26119,969;51,65299
 344,77;13518,014;  171,022;26439,121;50,81065
 345,36;13562,414;  148,647;26720,184;50,48171
 345,96;13593,166;  187,772;27053,470;49,89781
 346,55;13460,658;  179,772;27244,650;49,07056
 347,14;13489,603;  167,522;27527,356;48,69211
 347,74;13540,212;  139,397;28049,992;48,01336
 348,33;13634,813;  179,522;28663,791;47,23762
 348,92;13776,511;  180,522;29196,707;46,85657
 349,52;13769,464;  162,272;29712,180;46,04817
 350,11;13775,469;  180,147;29820,532;45,86756
 350,70;13635,747;  160,022;29997,708;45,16344
 351,29;13365,666;  161,397;29717,592;44,67513
 351,89;13151,600;  180,022;29661,512;43,99906
 352,48;13031,833;  150,647;29757,072;43,50808
 353,07;12797,752;  167,897;29680,432;42,79488
 353,67;12600,693;  186,522;29739,216;42,00690
 354,26;12394,741;  175,772;29443,152;41,74945
 354,85;12089,932;  181,272;29352,079;40,82390
 355,45;11813,394;  165,397;29054,998;40,31900
 356,04;11669,046;  164,272;29112,646;39,74238
 356,63;11406,255;  190,147;28910,001;39,05350
 357,22;11190,882;  174,897;28712,208;38,60204
 357,82;10937,981;  178,772;28536,416;37,94112
 358,41;10707,706;  183,147;28441,509;37,24405
 359,00;10472,274;  162,772;28231,277;36,72979
 359,60;10287,818;  178,272;28142,887;36,15121
 360,19;10092,142;  174,897;27960,291;35,69230
 360,78; 9880,391;  190,397;27796,608;35,10077
 361,37; 9639,568;  165,772;27702,039;34,40479
 361,97; 9406,550;  170,522;27643,840;33,61817
 362,56; 9166,154;  160,397;27198,181;33,30805
 363,15; 8990,024;  189,897;27001,451;32,82214
 363,74; 8716,793;  179,522;26639,177;32,26524
 364,34; 8473,209;  202,647;26268,675;31,72928
 364,93; 8230,834;  164,147;25903,501;31,33990
 365,52; 7957,810;  149,147;25623,947;30,65250
 366,11; 7736,162;  181,772;25242,572;30,14425
 366,71; 7579,675;  157,522;24859,367;30,04696
 367,30; 7345,138;  177,397;24566,594;29,38900
 367,89; 7136,242;  203,647;24321,103;28,74513
 368,48; 6964,397;  189,397;23989,665;28,46607
 369,07; 6762,997;  184,272;23630,458;28,05883
 369,67; 6571,006;  193,897;23396,730;27,48418
 370,26; 6405,101;  184,272;23144,195;27,09430
 370,85; 6220,172;  172,772;22872,777;26,64052
 371,44; 6013,597;  168,272;22683,068;25,96215
 372,03; 5880,722;  156,397;22385,971;25,75094
 372,63; 5713,354;  137,772;22100,286;25,38681
 373,22; 5579,604;  164,772;21897,710;24,91533
 373,81; 5446,034;  154,647;21525,606;24,75971
 374,40; 5357,369;  162,772;21342,666;24,52608
 374,99; 5152,459;  171,897;21156,599;23,73425
 375,59; 5042,200;  159,522;20934,952;23,50218
 376,18; 4980,326;  194,647;20759,632;23,27101
 376,77; 4884,753;  181,522;20537,612;23,10479
 377,36; 4785,258;  191,772;20604,266;22,50331
 377,95; 4725,029;  185,022;20233,105;22,64559
 378,55; 4587,007;  155,647;20088,537;22,23140
 379,14; 4543,745;  169,647;19978,096;22,08198
 379,73; 4468,883;  177,397;19896,717;21,76285
 380,32; 4432,063;  182,022;19972,885;21,47476
 380,91; 4374,790;  171,897;19885,288;21,31999
 381,50; 4347,331;  192,897;19824,362;21,16212
 382,10; 4324,813;  160,147;19732,135;21,27871
 382,69; 4257,081;  155,522;19629,210;21,06206
 383,28; 4253,316;  199,897;19644,552;20,84593
 383,87; 4180,165;  168,022;19450,837;20,80683
 384,46; 4195,223;  174,897;19497,574;20,80626
 385,05; 4169,443;  194,897;19482,692;20,60654
 385,64; 4184,287;  170,772;19378,947;20,89483
 386,24; 4128,494;  153,522;19447,337;20,60231
 386,83; 4163,121;  185,522;19473,476;20,62219
 387,42; 4196,891;  174,022;19580,684;20,72932
 388,01; 4235,512;  180,397;19817,063;20,65073
 388,60; 4301,720;  186,897;19989,059;20,77967
 389,19; 4362,922;  165,397;20230,100;20,91995
 389,78; 4420,516;  170,397;20443,730;20,96408
 390,37; 4601,549;  227,022;20833,233;21,22916
 390,96; 4620,402;  182,647;20994,270;21,32345
 391,56; 4643,758;  169,397;21197,665;21,27784
 392,15; 4732,380;  162,147;21556,623;21,36174
 392,74; 4769,254;  143,147;21710,891;21,44919
 393,33; 4906,360;  170,397;21877,964;21,81711
 393,92; 5026,663;  171,272;22384,352;21,85825
 394,51; 5086,644;  169,022;22566,272;21,95636
 395,10; 5221,047;  197,897;22667,776;22,35504
 395,69; 5307,271;  187,647;22862,734;22,57819
 396,28; 5361,340;  198,772;22910,579;22,73077
 396,87; 5446,187;  198,647;23083,930;22,92976
 397,46; 5558,857;  189,397;23161,948;23,37337
 398,06; 5638,429;  195,772;23457,383;23,39759
 398,65; 5718,634;  189,272;23497,243;23,72305
 399,24; 5778,346;  185,647;23706,134;23,77799
 399,83; 5858,188;  164,147;23505,606;24,39454
 400,42; 5984,301;  204,522;23783,813;24,51210
 401,01; 6073,245;  172,897;23852,958;24,91694
 401,60; 6172,492;  198,147;23819,617;25,29201
 402,19; 6241,530;  208,647;23796,170;25,57659
 402,78; 6355,661;  207,022;23736,927;26,13117
 403,37; 6338,316;  192,397;23710,308;26,13293
 403,96; 6403,784;  196,022;23510,157;26,62660
 404,55; 6433,849;  196,272;23504,956;26,76074
 405,14; 6493,721;  178,647;23369,785;27,23055
 405,73; 6578,570;  200,522;23216,044;27,71194
 406,32; 6673,917;  208,272;23205,389;28,11502
 406,91; 6747,369;  192,647;22835,776;28,94795
 407,50; 6749,331;  181,397;22673,393;29,20120
 408,09; 6770,461;  177,522;22405,419;29,66065
 408,68; 6806,478;  191,647;22237,761;30,00452
 409,27; 6891,676;  183,272;22132,583;30,56317
 409,86; 6932,590;  192,022;22103,622;30,76256
 410,45; 6989,719;  212,522;21947,518;31,18104
 411,04; 7041,884;  218,772;21929,036;31,42805
 411,63; 7037,693;  205,147;21587,734;31,95379
 412,22; 7090,657;  208,272;21355,189;32,54557
 412,81; 7126,991;  205,147;21086,069;33,14913
 413,40; 7089,921;  224,522;20737,442;33,46866
 413,99; 7119,693;  244,272;20429,308;34,06197
 414,58; 7071,856;  191,772;20099,292;34,56023
 415,17; 7069,543;  183,397;19854,251;35,00685
 415,76; 7115,136;  194,397;19743,253;35,40227
 416,35; 7156,948;  186,772;19584,410;35,93312
 416,94; 7291,860;  218,897;19714,010;36,28070
 417,53; 7417,223;  191,022;19833,620;36,78842
 418,12; 7486,011;  192,022;19930,854;36,95249
 418,71; 7770,103;  197,022;20251,451;37,76264
 419,30; 7859,894;  188,022;20266,745;38,20896
 419,89; 8026,901;  187,772;20520,560;38,55413
 420,48; 8240,418;  215,397;20790,803;39,00298
 421,07; 8328,262;  215,522;20909,357;39,20366
 421,66; 8382,742;  172,272;20864,603;39,67881
 422,25; 8554,675;  198,147;20858,067;40,44802
 422,84; 8615,222;  223,772;20851,643;40,68015
 423,43; 8587,288;  196,397;20597,299;41,13000
 424,02; 8624,506;  228,022;20224,603;41,98960
 424,60; 8580,123;  204,647;19841,563;42,65169
 425,19; 8474,523;  196,522;19628,720;42,59941
 425,78; 8570,137;  228,397;19626,239;43,00345
 426,37; 8593,196;  222,147;19404,083;43,64028
 426,96; 8663,999;  206,272;19253,514;44,40394
 427,55; 8634,799;  194,147;19031,113;44,80898
 428,14; 8657,103;  181,897;18941,705;45,17747
 428,73; 8616,815;  222,397;18767,700;45,26439
 429,32; 8755,944;  224,522;18744,769;46,06538
 429,91; 8815,998;  232,022;18773,834;46,29524
 430,50; 8842,213;  224,147;18733,048;46,56174
 431,08; 8775,902;  239,272;18537,921;46,65170
 431,67; 8880,475;  271,397;18387,636;47,52133
 432,26; 8916,180;  288,272;18235,819;48,07291
 432,85; 8826,508;  322,522;17780,542;48,71106
 433,44; 8727,098;  309,897;17459,430;49,08123
 434,03; 8609,475;  323,272;17142,237;49,26702
 434,62; 8448,294;  289,272;16718,234;49,66243
 435,21; 8447,946;  314,022;16585,129;49,98998
 435,79; 8390,798;  284,022;16377,958;50,37162
 436,38; 8408,958;  297,897;16340,574;50,55928
 436,97; 8470,690;  286,397;16196,625;51,44045
 437,56; 8377,818;  281,647;16046,969;51,35430
 438,15; 8399,616;  270,647;16020,724;51,61225
 438,74; 8508,511;  295,897;15949,036;52,46625
 439,33; 8483,571;  251,772;15894,010;52,62546
 439,91; 8611,250;  216,772;16015,277;53,13464
 440,50; 8782,735;  259,522;16040,717;54,00866
 441,09; 8825,624;  249,522;16192,896;53,79101
 441,68; 8858,006;  252,897;16152,858;54,12032
 442,27; 8933,618;  221,647;16170,215;54,62542
 442,86; 9027,798;  199,897;16147,212;55,35666
 443,44; 9115,372;  220,772;16211,559;55,62328
 444,03; 9150,928;  270,022;16197,040;55,76001
 444,62; 9078,540;  217,647;16139,995;55,65067
 445,21; 9101,759;  224,897;15893,903;56,65237
 445,80; 9175,412;  251,022;15862,926;57,16401
 446,39; 9074,800;  259,522;15553,047;57,64059
 446,97; 8932,408;  233,272;15372,781;57,45983
 447,56; 8859,126;  218,272;15144,732;57,88950
 448,15; 8814,968;  221,397;15032,554;58,02093
 448,74; 8758,345;  239,522;14783,493;58,57289
 449,33; 8692,579;  224,897;14611,580;58,85778
 449,91; 8627,929;  220,897;14428,047;59,17466
 450,50; 8471,851;  202,897;14194,851;59,09792
 451,09; 8498,643;  244,522;14159,175;59,31963
 451,68; 8530,937;  259,522;14010,487;60,15152
 452,26; 8490,209;  238,647;13956,661;60,15129
 452,85; 8410,035;  230,397;13850,320;60,05642
 453,44; 8495,768;  232,397;13903,478;60,44417
 454,03; 8462,574;  203,522;13816,603;60,66997
 454,61; 8477,343;  208,647;13777,110;60,94055
 455,20; 8662,517;  243,647;13969,124;61,33754
 455,79; 8701,008;  237,397;13966,523;61,64712
 456,38; 8779,779;  234,647;14045,990;61,87040
 456,97; 8817,012;  226,147;14115,568;61,85186
 457,55; 8863,852;  222,272;14075,532;62,37940
 458,14; 8908,150;  249,147;14060,814;62,69339
 458,73; 8835,802;  231,272;14043,664;62,29573
 459,31; 8964,239;  255,147;14045,196;63,15490
 459,90; 9047,328;  263,897;14174,602;63,14152
 460,49; 9141,581;  277,772;14258,693;63,39932
 461,08; 9188,007;  235,647;14346,792;63,44177
 461,66; 9214,359;  226,772;14371,243;63,54134
 462,25; 9296,269;  233,647;14430,810;63,83404
 462,84; 9321,832;  248,022;14456,799;63,86060
 463,43; 9329,255;  203,897;14410,009;64,23544
 464,01; 9408,359;  226,147;14442,344;64,58979
 464,60; 9423,938;  261,647;14364,670;64,96685
 465,19; 9296,554;  204,522;14172,822;65,09046
 465,77; 9225,952;  234,897;14192,621;64,41634
 466,36; 9245,268;  257,897;14108,054;64,89003
 466,95; 9096,882;  230,147;13701,698;65,81822
 467,53; 8915,170;  228,272;13470,599;65,59948
 468,12; 8794,099;  256,772;13223,844;65,83851
 468,71; 8681,280;  242,647;12987,045;66,21445
 469,29; 8489,990;  228,022;12758,328;65,93588
 469,88; 8377,114;  227,022;12545,050;66,16393
 470,47; 8472,579;  268,147;12654,938;66,23534
 471,06; 8443,348;  243,522;12618,811;66,25967
 471,64; 8546,843;  247,147;12754,684;66,35755
 472,23; 8531,812;  211,147;12662,220;66,82689
 472,81; 8594,839;  206,272;12740,865;66,92333
 473,40; 8718,541;  218,522;12934,457;66,84541
 473,99; 8904,067;  289,272;13155,173;66,95835
 474,57; 8934,648;  230,897;13178,834;67,22114
 475,16; 8990,761;  240,897;13412,017;66,43219
 475,75; 9122,488;  257,647;13494,298;66,97194
 476,33; 9246,321;  256,897;13570,919;67,51847
 476,92; 9240,760;  256,022;13612,713;67,26769
 477,51; 9291,759;  247,147;13749,158;66,98715
 478,09; 9294,311;  236,647;13669,590;67,42874
 478,68; 9292,506;  247,272;13546,818;68,01160
 479,27; 9383,869;  267,772;13736,501;67,68342
 479,85; 9336,001;  241,647;13672,115;67,71435
 480,44; 9360,391;  242,897;13869,772;66,90818
 481,02;10300,437;  246,147;15579,022;65,57342
 481,61;11692,893;  271,522;17364,135;66,82051
 482,20;12441,002;  268,772;18421,624;67,05409
 482,78;13037,126;  294,772;18995,164;68,13950
 483,37;13289,775;  272,272;19410,770;68,01737
 483,95;13467,946;  303,272;19646,172;68,05946
 484,54;13682,068;  314,897;19857,377;68,40059
 485,13;13657,237;  296,272;19884,768;68,20822
 485,71;13721,792;  272,022;19758,540;69,02090
 486,30;13448,469;  310,897;19512,346;68,41969
 486,88;13303,081;  331,147;19154,975;68,91231
 487,47;12864,193;  328,647;18476,853;69,07319
 488,05;12229,596;  307,647;17587,306;68,99412
 488,64;11484,580;  315,897;16271,893;69,99678
 489,23;10319,531;  324,772;14257,379;71,73646
 489,81; 8683,294;  305,647;12238,598;70,20599
 490,40; 8188,611;  269,022;11746,763;68,99955
 490,98; 8024,522;  256,772;11507,808;69,04031
 491,57; 7995,567;  283,522;11390,250;69,43580
 492,15; 7901,887;  267,647;11418,951;68,46051
 492,74; 7916,041;  264,272;11271,486;69,51595
 493,32; 7771,465;  276,397;11148,799;68,93664
 493,91; 7676,316;  261,397;11109,119;68,35462
 494,50; 7704,914;  269,647;11064,697;68,87663
 495,08; 7621,106;  254,897;11002,438;68,53856
 495,67; 7667,366;  279,147;10990,362;68,97648
 496,25; 7581,362;  225,772;10842,744;69,28143
 496,84; 7558,196;  237,522;10866,273;68,87615
 497,42; 7539,479;  225,397;10794,326;69,20363
 498,01; 7508,428;  257,272;10750,074;69,10600
 498,59; 7490,805;  213,772;10720,458;69,26097
 499,18; 7430,675;  214,522;10721,060;68,68251
 499,76; 7399,677;  243,897;10561,471;69,35526
 500,35; 7240,364;  254,397;10284,128;69,65258
 500,93; 7263,586;  222,272;10301,703;69,85825
 501,52; 7193,365;  211,022;10264,857;69,44955
 502,10; 7159,249;  226,647;10190,757;69,57573
 502,69; 7036,800;  220,522;10058,411;69,28599
 503,27; 6939,682;  209,397; 9901,195;69,44310
 503,86; 6882,741;  224,022; 9832,838;69,29801
 504,44; 6837,615;  190,397; 9702,061;69,88492
 505,03; 6651,753;  194,147; 9504,981;69,35583
 505,61; 6607,595;  200,522; 9318,749;70,26665
 506,19; 6452,261;  228,647; 9159,324;69,68805
 506,78; 6347,046;  201,522; 8997,515;69,86732
 507,36; 6246,420;  207,897; 8863,132;69,76729
 507,95; 6072,895;  216,272; 8722,523;68,85082
 508,53; 6024,468;  217,522; 8611,619;69,17893
 509,12; 5947,340;  219,397; 8423,278;69,81992
 509,70; 5849,741;  226,647; 8262,917;69,97144
 510,29; 5733,720;  227,522; 8180,253;69,23657
 510,87; 5627,192;  206,272; 7971,278;69,81218
 511,46; 5502,403;  198,022; 7831,191;69,49120
 512,04; 5372,848;  205,897; 7737,468;68,60389
 512,62; 5300,330;  208,897; 7580,497;69,06822
 513,21; 5203,613;  191,647; 7387,126;69,65438
 513,79; 5132,093;  210,522; 7278,095;69,63595
 514,38; 4982,886;  189,147; 7087,272;69,49335
 514,96; 4974,750;  220,522; 7043,116;69,68358
 515,54; 4811,924;  201,022; 6896,957;68,86122
 516,13; 4785,349;  214,647; 6795,874;69,45061
 516,71; 4666,606;  197,397; 6687,613;68,86072
 517,30; 4587,267;  199,897; 6587,957;68,68079
 517,88; 4533,275;  221,522; 6530,549;68,34259
 518,46; 4439,931;  200,772; 6391,142;68,47990
 519,05; 4380,779;  225,522; 6363,149;67,70137
 519,63; 4376,766;  218,147; 6257,305;68,86092
 520,22; 4283,245;  214,397; 6196,362;68,01858
 520,80; 4268,617;  197,147; 6120,973;68,73041
 521,38; 4241,013;  218,522; 6153,464;67,77643
 521,97; 4230,215;  201,022; 6117,605;68,10001
 522,55; 4211,051;  211,647; 6121,469;67,67385
 523,13; 4188,515;  192,522; 6020,320;68,56779
 523,72; 4164,188;  214,897; 6033,234;67,87664
 524,30; 4252,647;  232,397; 6149,511;67,94275
 524,89; 4201,963;  195,147; 6163,590;67,13334
 525,47; 4326,056;  214,647; 6285,992;67,71825
 526,05; 4363,368;  175,897; 6322,954;68,12155
 526,64; 4449,623;  224,397; 6410,831;68,29824
 527,22; 4527,366;  216,272; 6524,016;68,34604
 527,80; 4581,842;  256,147; 6620,163;67,97115
 528,39; 4656,581;  205,022; 6788,480;67,61734
 528,97; 4752,922;  216,522; 6859,748;68,28611
 529,55; 4829,791;  222,147; 7126,161;66,73862
 530,14; 4980,646;  229,397; 7267,755;67,50507
 530,72; 5012,974;  194,147; 7368,554;67,16691
 531,30; 5087,268;  196,397; 7493,740;67,02262
 531,89; 5192,492;  219,147; 7539,900;67,93489
 532,47; 5238,143;  240,147; 7674,289;67,23030
 533,05; 5257,040;  230,647; 7700,857;67,28583
 533,63; 5302,994;  245,647; 7757,387;67,32591
 534,22; 5298,283;  218,147; 7806,773;66,94409
 534,80; 5336,731;  248,397; 7907,113;66,43846
 535,38; 5437,429;  303,022; 7932,487;67,29709
 535,97; 5319,221;  229,772; 7956,061;65,87184
 536,55; 5395,741;  282,147; 7985,644;66,38016
 537,13; 5352,737;  292,772; 7985,072;65,77961
 537,71; 5381,115;  336,147; 7975,837;66,03629
 538,30; 5401,322;  352,522; 8119,333;65,00481
 538,88; 5462,996;  391,272; 8198,945;64,95820
 539,46; 5560,692;  439,522; 8371,978;64,55970
 540,05; 5603,371;  457,647; 8444,521;64,42726
 540,63; 5766,962;  521,022; 8658,463;64,46670
 541,21; 5831,831;  558,147; 8831,483;63,74314
 541,79; 5930,055;  596,272; 8942,392;63,90734
 542,38; 6028,999;  622,522; 9147,536;63,41898
 542,96; 6052,052;  640,397; 9263,976;62,75417
 543,54; 6203,972;  639,147; 9417,543;63,39228
 544,12; 6239,019;  630,522; 9574,070;62,70998
 544,70; 6282,458;  600,272; 9665,019;62,68445
 545,29; 6403,189;  619,022; 9801,262;62,99298
 545,87; 6429,680;  575,022; 9797,392;63,48323
 546,45; 6412,881;  528,522; 9830,503;63,25921
 547,03; 6439,832;  515,522; 9946,184;62,81966
 547,62; 6498,014;  474,772;10033,117;63,01553
 548,20; 6609,068;  475,397;10228,285;62,89081
 548,78; 6657,652;  438,147;10270,568;63,25508
 549,36; 6755,538;  397,272;10480,300;63,05910
 549,94; 6814,633;  360,022;10580,963;63,15085
 550,53; 6926,676;  355,897;10846,171;62,63687
 551,11; 7014,618;  333,647;11001,559;62,62680
 551,69; 7149,809;  327,022;11297,062;62,19473
 552,27; 7288,231;  294,397;11540,693;62,18789
 552,85; 7519,691;  300,647;11862,377;62,43913
 553,44; 7681,369;  293,522;12109,211;62,52574
 554,02; 7873,606;  310,397;12456,339;62,26943
 554,60; 8073,103;  252,647;12791,999;62,36730
 555,18; 8224,137;  275,522;13097,834;61,99050
 555,76; 8412,244;  259,022;13473,135;61,70086
 556,34; 8673,120;  272,647;13851,720;61,86338
 556,93; 8860,142;  271,272;14189,412;61,70990
 557,51; 9035,573;  239,397;14432,116;61,97668
 558,09; 9261,978;  267,647;14891,651;61,50389
 558,67; 9474,719;  269,772;15151,602;61,85360
 559,25; 9594,417;  276,272;15408,872;61,57663
 559,83; 9736,768;  253,272;15731,317;61,27063
 560,41; 9930,652;  251,772;16096,964;61,08402
 561,00;10100,370;  264,397;16313,192;61,28792
 561,58;10287,147;  256,897;16642,261;61,21469
 562,16;10435,782;  232,272;16970,944;60,95770
 562,74;10599,645;  219,397;17295,225;60,78913
 563,32;10776,091;  226,022;17690,636;60,40826
 563,90;11007,982;  247,397;18046,647;60,45527
 564,48;11180,183;  250,772;18352,459;60,37786
 565,06;11474,373;  244,272;19030,457;59,77851
 565,65;11816,525;  257,772;19649,931;59,60529
 566,23;12254,409;  296,772;20409,203;59,45396
 566,81;12591,740;  246,022;21092,441;59,22225
 567,39;13010,198;  259,022;21889,937;58,94885
 567,97;13313,440;  255,022;22446,323;58,84476
 568,55;13825,362;  256,897;23302,524;58,87653
 569,13;14134,737;  237,772;23947,725;58,61237
 569,71;14687,230;  240,522;24890,263;58,60795
 570,29;15146,077;  278,147;25841,935;58,16012
 570,87;15476,504;  262,272;26545,541;57,88562
 571,45;15782,615;  282,022;27160,365;57,66945
 572,03;15966,588;  216,397;27557,046;57,60723
 572,61;16220,922;  226,397;28333,047;56,90655
 573,20;16561,303;  257,022;29018,229;56,68844
 573,78;16914,854;  241,147;29637,557;56,72022
 574,36;17120,247;  265,897;30028,506;56,62928
 574,94;17122,604;  303,522;30286,404;56,09561
 575,52;17274,459;  258,022;30612,102;56,05980
 576,10;17453,272;  314,897;31138,216;55,60198
 576,68;17770,549;  302,897;31741,660;55,56088
 577,26;18029,949;  332,647;32362,419;55,25266
 577,84;18331,667;  326,272;32904,470;55,26823
 578,42;18456,616;  362,397;33036,248;55,37829
 579,00;18306,617;  313,272;33133,227;54,82441
 579,58;18389,294;  358,772;33384,256;54,59578
 580,16;18334,343;  356,522;33424,096;54,36692
 580,74;18447,525;  328,022;33596,105;54,46512
 581,32;18344,080;  341,147;33667,377;54,02031
 581,90;18222,528;  354,272;33702,495;53,58083
 582,48;18228,106;  368,022;33812,517;53,40216
 583,06;18287,885;  350,772;33836,698;53,56612
 583,64;18227,702;  364,772;34085,439;52,97324
 584,22;18088,290;  372,772;33707,312;53,14463
 584,80;17854,944;  367,022;33433,770;52,88673
 585,38;17611,878;  380,397;33043,062;52,75589
 585,96;17572,593;  352,772;33161,825;52,48497
 586,54;17481,373;  390,022;33262,612;51,99271
 587,12;17444,277;  325,022;33365,919;51,81232
 587,70;17562,026;  363,272;33469,209;51,95066
 588,28;17482,100;  344,397;33545,488;51,61789
 588,86;17415,957;  352,772;33682,663;51,19484
 589,44;17434,667;  338,897;33475,223;51,59223
 590,02;17452,654;  333,147;33925,379;50,96270
 590,59;17477,308;  311,897;33953,761;51,02396
 591,17;17467,002;  309,022;34012,657;50,90840
 591,75;17446,492;  311,147;34122,029;50,67997
 592,33;17463,052;  313,522;34431,004;50,26611
 592,91;17501,265;  264,647;34631,779;50,15437
 593,49;17588,562;  285,272;34887,980;50,00559
 594,07;17601,997;  297,147;35075,878;49,75699
 594,65;17574,970;  306,772;35171,257;49,52948
 595,23;17662,813;  290,272;35482,937;49,36410
 595,81;17622,412;  283,147;35539,020;49,18121
 596,39;17643,193;  290,522;35660,563;49,06036
 596,97;17645,489;  297,772;35817,063;48,84027
 597,55;17447,318;  278,772;35837,591;48,28211
 598,12;17388,785;  275,397;35799,938;48,17343
 598,70;17366,070;  260,772;35921,773;47,96640
 599,28;17379,359;  280,272;36114,784;47,71681
 599,86;17270,815;  279,647;36164,821;47,34871
 600,44;17311,840;  244,522;36156,710;47,52514
 601,02;17199,842;  289,147;36314,219;46,94146
 601,60;17055,057;  270,522;36241,755;46,66099
 602,18;16950,504;  248,397;36225,395;46,42441
 602,75;16913,480;  255,022;36471,511;45,99689
 603,33;16888,135;  276,397;36335,750;46,06777
 603,91;16735,025;  260,647;36327,130;45,67780
 604,49;16700,752;  280,272;36430,407;45,42301
 605,07;16688,565;  293,647;36437,598;45,36006
 605,65;16559,989;  300,897;36562,661;44,83812
 606,23;16464,147;  374,147;36694,890;44,29976
 606,80;16413,954;  405,897;36787,545;44,00036
 607,38;16360,647;  458,897;36720,692;43,85263
 607,96;16231,389;  511,772;36871,319;43,23381
 608,54;16163,588;  572,022;36834,195;42,99678
 609,12;16113,868;  581,772;37009,306;42,63834
 609,70;16108,461;  623,272;37029,583;42,53435
 610,27;15975,154;  618,147;37100,129;42,09477
 610,85;15899,205;  639,647;37235,255;41,69779
 611,43;15726,182;  642,022;37129,228;41,34096
 612,01;15590,930;  613,272;36936,317;41,23459
 612,59;15594,823;  610,522;36942,288;41,24297
 613,16;15413,191;  576,022;36896,027;40,85123
 613,74;15284,549;  548,397;36754,511;40,70073
 614,32;15181,817;  496,647;36644,558;40,62522
 614,90;15062,370;  465,147;36620,467;40,37365
 615,48;14808,457;  391,897;36263,636;40,18919
 616,05;14730,905;  373,147;36255,281;40,01367
 616,63;14657,603;  373,522;36024,051;40,06695
 617,21;14494,641;  372,522;35958,458;39,68455
 617,79;14321,245;  334,522;35933,120;39,29010
 618,36;14214,164;  357,522;35836,882;39,05550
 618,94;13952,803;  293,397;35420,906;38,88521
 619,52;13791,126;  325,522;35266,002;38,53869
 620,10;13706,058;  308,022;35226,408;38,36957
 620,67;13552,517;  298,897;35064,687;38,12259
 621,25;13419,544;  319,647;34899,335;37,88321
 621,83;13323,816;  294,397;35016,451;37,52491
 622,41;13340,811;  333,022;34899,873;37,63082
 622,98;13092,913;  330,147;34671,574;37,16434
 623,56;12959,738;  315,147;34730,033;36,74163
 624,14;12843,208;  284,272;34555,895;36,64529
 624,72;12677,514;  298,647;34526,145;36,16644
 625,29;12705,152;  276,647;34545,294;36,26786
 625,87;12599,271;  316,272;34585,335;35,84282
 626,45;12509,098;  292,147;34435,799;35,78103
 627,02;12315,690;  284,647;34243,049;35,42877
 627,60;12290,525;  271,147;34287,234;35,33440
 628,18;12160,493;  273,022;34316,806;34,91818
 628,76;12104,720;  274,272;34302,959;34,76610
 629,33;12005,105;  300,147;34292,413;34,43418
 629,91;12007,183;  280,397;34270,533;34,50056
 630,49;11929,465;  299,147;34520,929;33,98513
 631,06;11955,165;  295,022;34643,763;33,94635
 631,64;11810,655;  294,897;34409,183;33,75641
 632,22;11695,718;  253,272;34468,672;33,44239
 632,79;11696,257;  268,022;34699,058;33,19167
 633,37;11692,008;  253,772;34782,589;33,12664
 633,95;11657,507;  259,897;34808,732;32,98985
 634,52;11566,699;  250,897;34897,794;32,66036
 635,10;11560,948;  235,397;34998,842;32,57891
 635,68;11480,731;  259,772;35268,468;32,05192
 636,25;11409,213;  243,272;35113,872;32,02108
 636,83;11384,220;  223,022;35356,084;31,76836
 637,41;11333,341;  239,272;35473,234;31,48686
 637,98;11276,059;  259,272;35600,066;31,17301
 638,56;11288,495;  255,272;35582,241;31,23173
 639,13;11203,421;  244,772;35677,542;30,92800
 639,71;11192,480;  272,772;35782,364;30,75143
 640,29;11094,739;  216,147;35514,146;30,81929
 640,86;10998,565;  225,147;35762,659;30,31562
 641,44;10921,516;  232,647;35893,298;29,97385
 642,02;10868,967;  251,272;35770,061;29,89318
 642,59;10820,042;  236,147;36006,950;29,58808
 643,17;10752,743;  230,147;35927,713;29,47707
 643,74;10635,819;  228,647;36038,727;29,06213
 644,32;10626,520;  260,522;35847,490;29,12863
 644,89;10488,595;  252,397;35941,629;28,68148
 645,47;10437,421;  261,522;35917,017;28,53950
 646,05;10414,122;  239,397;35847,531;28,57416
 646,62;10252,822;  240,147;35860,294;28,10958
 647,20;10162,023;  247,897;36040,308;27,69896
 647,77;10110,474;  214,647;35958,946;27,68505
 648,35;10039,800;  220,147;35814,335;27,58780
 648,92; 9917,125;  261,147;35895,598;27,09731
 649,50; 9759,326;  212,147;35688,237;26,91159
 650,08; 9725,902;  221,522;35800,250;26,71366
 650,65; 9697,228;  234,772;36064,139;26,40978
 651,23; 9816,303;  208,272;36778,152;26,27307
 651,80; 9979,004;  217,272;37741,541;26,01445
 652,38; 9952,705;  228,522;38047,054;25,71275
 652,95;10036,280;  210,147;38373,818;25,74735
 653,53; 9927,356;  236,897;38514,331;25,31638
 654,10; 9951,557;  251,647;38729,595;25,20901
 654,68; 9864,008;  216,397;38578,859;25,14857
 655,25; 9819,833;  218,522;38749,247;24,91859
 655,83; 9714,409;  210,272;38847,136;24,59863
 656,40; 9757,610;  231,647;38786,899;24,70730
 656,98; 9636,061;  228,897;38750,788;24,42031
 657,55; 9497,761;  232,022;38653,926;24,11577
 658,13; 9387,337;  209,897;38220,815;24,14422
 658,70; 9269,413;  224,647;37960,078;23,96890
 659,28; 8981,364;  225,772;36934,717;23,85138
 659,85; 8707,314;  218,397;36199,605;23,59264
 660,43; 8664,140;  228,772;36351,494;23,35197
 661,00; 8615,091;  231,772;36462,882;23,13845
 661,58; 8610,291;  211,522;36799,646;22,95491
 662,15; 8599,117;  204,522;36918,159;22,86506
 662,73; 8634,443;  267,397;37316,298;22,58379
 663,30; 8575,769;  227,897;37331,436;22,49886
 663,88; 8558,219;  222,647;37651,075;22,27070
 664,45; 8507,670;  215,272;37843,213;22,03787
 665,03; 8560,371;  229,522;38313,852;21,87474
 665,60; 8693,947;  277,397;38581,365;21,97305
 666,17; 8511,147;  220,647;38735,504;21,52546
 666,75; 8563,723;  233,397;39104,767;21,43049
 667,32; 8523,424;  247,022;39437,031;21,11865
 667,90; 8572,249;  228,897;39616,669;21,18260
 668,47; 8517,700;  251,147;39899,558;20,84965
 669,05; 8537,526;  221,522;40225,571;20,78791
 669,62; 8506,227;  202,397;40229,835;20,74534
 670,19; 8550,427;  209,522;40441,848;20,73185
 670,77; 8485,128;  217,272;40496,237;20,52649
 671,34; 8358,829;  211,522;40562,375;20,19116
 671,92; 8379,405;  205,272;40899,639;20,08664
 672,49; 8344,355;  234,522;40792,902;19,99546
 673,06; 8242,431;  184,897;40920,291;19,78018
 673,64; 8225,757;  203,272;40888,054;19,71864
 674,21; 8179,333;  201,897;40777,443;19,66070
 674,79; 8144,408;  220,522;41113,831;19,37698
 675,36; 8126,109;  229,647;41100,845;19,32036
 675,93; 8034,810;  208,147;41046,483;19,16499
 676,51; 8067,010;  219,897;41191,872;19,15239
 677,08; 7946,711;  222,147;41243,885;18,83042
 677,65; 7921,162;  214,647;41410,149;18,70718
 678,23; 7930,363;  234,772;41534,037;18,63372
 678,80; 7842,438;  214,147;41712,301;18,38224
 679,38; 7818,389;  218,647;41881,689;18,24097
 679,95; 7854,590;  212,897;42105,453;18,24117
 680,52; 7829,791;  215,772;42445,716;18,02990
 681,10; 7924,991;  224,522;42805,105;18,08446
 681,67; 7831,192;  229,272;43003,868;17,77204
 682,24; 7806,143;  202,522;43020,757;17,75790
 682,82; 7865,719;  210,397;43593,645;17,64580
 683,39; 7887,169;  251,522;43870,284;17,50542
 683,96; 7903,245;  221,647;44287,672;17,43202
 684,54; 7883,446;  202,272;44636,686;17,28654
 685,11; 7917,271;  235,522;44930,074;17,18722
 685,68; 7892,472;  217,397;45240,838;17,04684
 686,25; 7842,798;  203,022;45370,851;16,91420
 686,83; 7819,999;  206,397;45587,240;16,77713
 687,40; 7888,324;  195,147;45944,253;16,81602
 687,97; 7902,025;  238,397;46215,767;16,66826
 688,55; 7809,476;  204,772;46199,280;16,53394
 689,12; 7777,927;  183,897;46496,794;16,39722
 689,69; 7735,502;  207,522;46643,807;16,21142
 690,26; 7740,828;  206,522;46709,446;16,20179
 690,84; 7754,154;  217,897;46768,459;16,18940
 691,41; 7719,854;  222,272;46807,473;16,09434
 691,98; 7756,680;  224,272;47205,861;16,03268
 692,56; 7686,756;  205,397;47227,000;15,91047
 693,13; 7692,207;  268,147;47281,013;15,79155
 693,70; 7720,282;  230,897;47426,777;15,86873
 694,27; 7678,608;  202,897;47620,040;15,76584
 694,84; 7628,184;  198,772;47566,179;15,68465
 695,42; 7644,635;  252,397;47824,692;15,53896
 695,99; 7568,210;  222,022;48003,331;15,37461
 696,56; 7562,411;  203,897;47896,344;15,42910
 697,13; 7592,862;  226,647;48260,233;15,33555
 697,71; 7585,813;  188,272;48192,496;15,41019
 698,28; 7552,263;  212,522;48604,385;15,16730
 698,85; 7507,964;  189,272;48724,898;15,07901
 699,42; 7551,915;  196,647;49057,162;15,05360
 699,99; 7501,115;  221,272;48942,425;14,94185
 700,57; 7480,816;  228,147;49058,189;14,85288
 701,14; 7478,392;  218,647;49041,827;14,86946
 701,71; 7419,343;  230,772;49332,091;14,64028
 702,28; 7415,543;  211,897;49441,854;14,63265
 702,85; 7433,994;  219,522;49482,743;14,64474
 703,43; 7422,695;  229,772;49606,006;14,56758
 704,00; 7419,396;  240,022;49743,270;14,50283
 704,57; 7355,471;  236,272;49847,283;14,35004
 705,14; 7433,297;  257,772;50073,422;14,40416
 705,71; 7387,123;  262,897;50113,935;14,29103
 706,28; 7298,948;  226,897;49903,574;14,23616
 706,86; 7394,274;  263,022;50261,712;14,26288
 707,43; 7340,475;  270,647;50155,101;14,17241
 708,00; 7335,926;  241,772;50244,364;14,18757
 708,57; 7238,001;  227,397;50043,503;14,07297
 709,14; 7246,452;  251,147;50339,891;13,96582
 709,71; 7231,028;  239,772;50516,280;13,90561
 710,28; 7185,979;  230,522;50682,418;13,78631
 710,86; 7172,054;  244,647;50780,557;13,70789
 711,43; 7245,630;  257,897;50797,195;13,82634
 712,00; 7233,206;  232,647;50808,209;13,84178
 712,57; 7191,532;  233,272;50921,847;13,72747
 713,14; 7175,607;  238,647;51114,361;13,63511
 713,71; 7171,058;  237,522;51083,749;13,63628
 714,28; 7166,134;  234,522;51161,763;13,61081
 714,85; 7093,959;  210,772;50769,776;13,61417
 715,42; 7120,910;  233,147;51107,290;13,53883
 716,00; 7173,986;  258,022;51180,053;13,58148
 716,57; 7190,312;  213,897;51316,817;13,65169
 717,14; 7102,262;  215,522;51209,455;13,50502
 717,71; 7058,213;  198,772;51251,844;13,43590
 718,28; 7178,414;  238,397;51250,857;13,60455
 718,85; 7085,490;  216,897;51271,246;13,45349
 719,42; 7119,315;  232,522;51434,509;13,45025
 719,99; 7057,516;  217,022;51234,898;13,40803
 720,56; 7138,967;  220,897;51531,286;13,48279
 721,13; 7124,542;  228,647;51663,800;13,40697
 721,70; 7107,868;  213,772;51482,313;13,44703
 722,27; 7096,819;  233,772;51595,702;13,36213
 722,84; 7142,770;  266,647;51653,465;13,38110
 723,41; 7125,720;  204,772;51662,979;13,44965
 723,98; 7136,296;  233,897;52106,742;13,30638
 724,55; 7165,747;  243,647;52190,131;13,32544
 725,12; 7093,573;  182,397;51986,644;13,34094
 725,69; 7095,148;  213,272;52148,283;13,25094
 726,27; 7149,349;  208,897;52227,921;13,34214
 726,84; 7187,675;  226,522;52581,060;13,29618
 727,41; 7217,751;  226,897;52513,573;13,37024
 727,98; 7229,076;  237,147;52776,962;13,30787
 728,55; 7252,152;  249,522;52741,475;13,34039
 729,12; 7228,228;  207,397;52832,489;13,34122
 729,69; 7218,803;  234,647;52967,127;13,24451
 730,26; 7243,504;  242,022;53259,516;13,20598
 730,82; 7198,205;  230,272;53081,279;13,18411
 731,39; 7314,656;  214,647;53148,793;13,41291
 731,96; 7341,106;  209,772;53419,681;13,40227
 732,53; 7335,932;  236,147;53732,820;13,27145
 733,10; 7290,633;  240,272;53695,583;13,18926
 733,67; 7367,709;  228,897;54010,347;13,27374
 734,24; 7319,409;  218,272;53605,235;13,30126
 734,81; 7360,485;  243,647;53703,499;13,31249
 735,38; 7348,936;  214,022;53489,012;13,39261
 735,95; 7357,636;  217,272;53521,526;13,39549
 736,52; 7358,587;  252,147;53455,165;13,35721
 737,09; 7347,913;  236,772;53278,053;13,40680
 737,66; 7447,364;  277,897;53295,317;13,52285
 738,23; 7434,189;  228,647;53394,705;13,55290
 738,80; 7520,515;  278,272;53729,969;13,54914
 739,37; 7524,591;  243,897;53924,107;13,56309
 739,94; 7532,667;  237,647;53914,996;13,59050
 740,51; 7615,117;  295,772;53858,509;13,66500
 741,07; 7529,943;  224,022;53870,148;13,61873
 741,64; 7572,519;  271,772;53969,161;13,59609
 742,21; 7556,595;  242,022;54225,675;13,54961
 742,78; 7527,545;  206,272;53975,063;13,61621
 743,35; 7616,496;  229,647;54147,077;13,70030
 743,92; 7675,947;  259,522;54364,215;13,70754
 744,49; 7644,272;  236,022;54183,979;13,73222
 745,06; 7645,473;  226,147;54292,617;13,72260
 745,63; 7653,299;  221,397;54261,631;13,75253
 746,19; 7654,000;  217,647;54202,519;13,77488
 746,76; 7710,950;  224,897;54273,033;13,85072
 747,33; 7713,151;  225,397;54181,546;13,87748
 747,90; 7804,102;  242,647;54513,560;13,93279
 748,47; 7767,178;  240,272;54464,948;13,88096
 749,04; 7834,878;  233,772;54465,587;14,01595
 749,61; 7820,579;  255,522;54474,725;13,95273
 750,17; 7828,905;  259,147;54307,239;14,00560
 750,74; 7839,356;  248,522;54279,002;14,04917
 751,31; 7825,431;  226,522;54254,391;14,06480
 751,88; 7860,632;  203,772;54062,029;14,21669
 752,45; 7898,708;  226,272;54285,043;14,19277
 753,02; 7906,658;  228,272;54189,806;14,22937
 753,58; 7878,734;  220,897;54072,570;14,22024
 754,15; 7919,060;  229,897;54223,208;14,24095
 754,72; 7897,011;  229,272;53944,972;14,27467
 755,29; 7922,961;  210,522;53821,985;14,38580
 755,86; 7958,662;  230,147;53900,249;14,40004
 756,42; 8032,613;  240,522;53797,637;14,54912
 756,99; 7959,314;  209,772;53792,526;14,46275
 757,56; 8004,889;  211,272;53686,414;14,57428
 758,13; 8069,590;  187,897;53695,803;14,72996
 758,70; 8104,041;  207,147;53748,441;14,74917
 759,26; 8148,866;  206,772;53792,080;14,82140
 759,83; 8233,567;  198,272;53889,093;14,96586
 760,40; 8207,143;  207,522;53871,982;14,90674
 760,97; 8162,594;  198,397;53763,120;14,86836
 761,53; 8208,669;  171,647;53439,509;15,08794
 762,10; 8201,495;  185,897;53530,897;15,02596
 762,67; 8295,821;  208,397;53401,036;15,20403
 763,24; 8219,897;  172,022;53032,674;15,22470
 763,80; 8228,347;  209,522;53183,188;15,13738
 764,37; 8278,548;  208,147;53113,076;15,25454
 764,94; 8199,499;  197,772;52506,590;15,29709
 765,50; 8238,700;  185,272;52608,228;15,36241
 766,07; 8241,400;  234,147;52650,367;15,27629
 766,64; 8249,476;  200,897;52395,755;15,42025
 767,21; 8300,552;  212,022;52256,019;15,54172
 767,77; 8322,002;  230,897;52181,782;15,57453
 768,34; 8321,953;  224,022;52141,921;15,59757
 768,91; 8346,029;  210,272;51932,059;15,72985
 769,47; 8338,355;  220,522;51984,448;15,68241
 770,04; 8344,305;  217,647;51950,836;15,70879
 770,61; 8338,381;  209,397;51690,850;15,79012
 771,18; 8372,207;  197,397;51606,863;15,90137
 771,74; 8454,783;  213,772;51713,627;16,00201
 772,31; 8412,108;  225,147;51493,515;15,96884
 772,88; 8361,059;  201,647;51172,029;16,00814
 773,44; 8423,010;  205,897;51201,792;16,11328
 774,01; 8470,460;  219,397;51241,431;16,17157
 774,58; 8482,786;  199,647;50952,944;16,32040
 775,14; 8484,737;  216,522;51019,708;16,27499
 775,71; 8557,813;  206,647;51055,221;16,42360
 776,27; 8610,513;  244,397;50806,110;16,54635
 776,84; 8649,714;  262,522;50818,623;16,58987
 777,41; 8654,165;  213,772;50713,512;16,71374
 777,97; 8660,491;  216,022;50489,650;16,79701
 778,54; 8598,066;  217,272;50523,664;16,65950
 779,11; 8725,267;  247,897;50472,302;16,87899
 779,67; 8728,718;  202,272;50453,691;16,96757
 780,24; 8713,044;  224,522;50230,329;16,97507
 780,80; 8806,744;  244,397;50167,843;17,15095
 781,37; 8811,820;  223,522;50194,481;17,18658
 781,94; 8766,021;  219,647;49885,620;17,20770
 782,50; 8807,346;  226,147;50009,133;17,23721
 783,07; 8858,922;  251,397;49965,772;17,31396
 783,63; 8846,748;  207,647;49726,410;17,44612
 784,20; 8936,449;  240,147;49531,549;17,64263
 784,77; 8881,024;  224,772;49460,187;17,58135
 785,33; 8959,725;  206,772;49220,451;17,85818
 785,90; 8943,676;  216,897;49166,464;17,82810
 786,46; 8953,627;  241,272;49074,228;17,84114
 787,03; 8998,077;  201,522;48952,741;18,04376
 787,59; 9064,153;  226,647;48939,255;18,14213
 788,16; 9084,604;  244,772;48804,893;18,20389
 788,73; 9016,054;  242,022;48709,782;18,10282
 789,29; 9014,630;  216,772;48409,545;18,25556
 789,86; 9097,581;  232,147;48263,934;18,45743
 790,42; 9033,532;  232,897;48145,447;18,36812
 790,99; 9062,482;  232,522;47797,961;18,56382
 791,55; 9099,308;  231,147;47829,474;18,63125
 792,12; 9072,509;  239,772;47676,488;18,62004
 792,68; 9110,085;  225,272;47379,876;18,84188
 793,25; 9118,910;  241,272;47168,765;18,91778
 793,81; 9111,361;  259,772;46823,778;19,00951
 794,38; 8971,062;  201,147;46585,042;18,90724
 794,94; 9042,013;  213,522;46600,305;19,03234
 795,51; 9098,838;  236,897;46268,819;19,25173
 796,07; 9059,539;  233,272;46125,332;19,23267
 796,64; 9136,240;  245,522;46230,471;19,33397
 797,20; 9090,065;  230,897;45686,234;19,48983
 797,77; 9091,516;  210,397;45411,873;19,64785
 798,33; 9101,092;  216,772;45246,511;19,72989
 798,90; 9143,793;  250,522;45131,650;19,81517
 799,46; 9070,118;  217,772;44524,663;19,97962
 800,03; 9119,819;  219,522;44510,427;20,09509
 800,59; 9133,395;  247,772;44254,815;20,19137
 801,15; 9147,471;  238,022;44210,954;20,26121
 801,72; 9068,546;  233,397;43915,717;20,22592
 802,28; 9079,872;  264,897;43571,481;20,35482
 802,85; 9043,448;  220,647;43485,119;20,39272
 803,41; 9048,649;  223,772;43268,883;20,50146
 803,98; 9025,099;  224,022;42834,521;20,65472
 804,54; 9045,175;  225,397;42568,535;20,82930
 805,11; 9017,876;  228,772;42457,173;20,81325
 805,67; 9063,201;  258,897;42340,562;20,92195
 806,23; 9042,527;  235,272;41845,075;21,16630
 806,80; 9047,978;  250,897;41867,714;21,13828
 807,36; 9116,179;  253,522;41886,852;21,28741
 807,93; 9099,379;  270,897;41501,366;21,41252
 808,49; 9057,205;  216,397;41202,879;21,57006
 809,05; 9000,031;  210,522;41011,518;21,54239
 809,62; 9069,107;  237,272;40925,281;21,70623
 810,18; 9084,932;  247,647;40927,670;21,72389
 810,74; 9027,133;  214,272;40519,433;21,86534
 811,31; 9070,334;  206,647;40336,572;22,08747
 811,87; 9099,284;  221,897;40158,460;22,22872
 812,44; 9142,235;  261,272;40159,849;22,25885
 813,00; 9071,186;  200,272;40017,862;22,27888
 813,56; 9139,512;  244,522;40061,251;22,33983
 814,13; 9182,712;  228,647;39922,014;22,55809
 814,69; 9216,288;  232,897;39745,903;22,73528
 815,25; 9133,114;  199,647;39333,666;22,82788
 815,82; 9184,315;  239,897;39241,680;22,93336
 816,38; 9145,265;  245,147;39051,069;22,93495
 816,94; 9097,841;  212,522;38692,207;23,09094
 817,51; 9164,167;  215,772;38643,596;23,28624
 818,07; 9123,368;  213,897;38369,859;23,35014
 818,63; 9106,193;  241,397;38202,873;23,35209
 819,20; 9218,269;  233,147;38011,636;23,78370
 819,76; 9121,220;  204,397;37698,900;23,78168
 820,32; 9176,420;  257,147;37606,913;23,88040
 820,89; 9186,871;  246,522;37287,802;24,13618
 821,45; 9068,072;  225,272;37154,065;23,94554
 822,01; 9056,023;  234,647;36927,079;24,04140
 822,57; 9150,848;  237,022;36755,467;24,40911
 823,14; 9108,299;  208,272;36555,856;24,48588
 823,70; 9073,000;  215,647;36270,994;24,56599
 824,26; 9115,201;  218,022;36184,508;24,73741
 824,82; 9098,276;  232,272;35971,396;24,80756
 825,39; 9100,852;  228,147;35791,285;24,94916
 825,95; 9142,303;  241,147;35835,048;25,00753
 826,51; 9128,378;  227,897;35500,687;25,23328
 827,08; 9158,329;  272,397;35594,575;25,15681
 827,64; 9174,905;  236,647;35309,964;25,48450
 828,20; 9094,981;  220,272;35049,227;25,48084
 828,76; 9170,931;  243,772;34963,741;25,71189
 829,32; 9143,507;  242,647;34835,879;25,73006
 829,89; 9144,708;  212,647;34741,518;25,86838
 830,45; 9209,034;  229,022;34673,156;26,07124
 831,01; 9172,859;  212,147;34502,295;26,13203
 831,57; 9226,185;  232,897;34402,683;26,31942
 832,14; 9276,761;  217,272;34294,697;26,58502
 832,70; 9182,462;  219,522;34085,460;26,46594
 833,26; 9232,662;  197,647;33985,849;26,74015
 833,82; 9302,988;  213,397;33944,612;26,94712
 834,38; 9356,064;  222,022;34042,126;27,00773
 834,95; 9347,264;  208,522;33847,889;27,16681
 835,51; 9267,590;  194,522;33723,028;27,06076
 836,07; 9425,666;  228,772;33794,666;27,39952
 836,63; 9435,367;  235,772;33762,305;27,43974
 837,19; 9398,317;  225,522;33579,818;27,50109
 837,75; 9331,768;  207,272;33234,832;27,62692
 838,32; 9506,594;  253,397;33500,845;27,83130
 838,88; 9478,920;  241,647;33440,109;27,82440
 839,44; 9530,870;  227,022;33300,122;28,13117
 840,00; 9515,571;  233,772;33201,261;28,15440
 840,56; 9457,897;  202,147;33049,399;28,17816
 841,12; 9526,472;  205,397;32961,038;28,45640
 841,68; 9481,048;  202,272;32802,801;28,46204
 842,25; 9559,749;  214,397;32811,690;28,66910
 842,81; 9532,700;  202,272;32559,828;28,83539
 843,37; 9553,775;  197,772;32580,842;28,89165
 843,93; 9641,226;  212,272;32547,855;29,15969
 844,49; 9662,552;  221,522;32594,494;29,16331
 845,05; 9667,003;  190,397;32289,132;29,52330
 845,61; 9724,703;  229,022;32463,146;29,45848
 846,17; 9736,279;  221,647;32359,409;29,60577
 846,73; 9749,230;  235,522;32193,423;29,76950
 847,29; 9759,556;  194,147;32062,311;30,01556
 847,86; 9798,881;  196,647;32006,200;30,18664
 848,42; 9693,957;  200,022;31846,338;30,00013
 848,98; 9737,283;  213,522;31706,727;30,24068
 849,54; 9800,983;  206,272;31832,115;30,33820
 850,10; 9847,684;  223,022;31711,004;30,56615
 850,66; 9762,385;  193,647;31528,142;30,53739
 851,22; 9766,336;  202,647;31387,156;30,66808
 851,78; 9910,661;  245,772;31456,419;30,96664
 852,34; 9824,362;  216,647;31208,308;31,00097
 852,90; 9853,438;  215,272;31164,196;31,14217
 853,46; 9787,389;  202,397;30932,335;31,19105
 854,02; 9902,589;  213,522;31022,223;31,44913
 854,58; 9818,040;  218,522;30742,737;31,44886
 855,14; 9857,741;  200,397;30736,000;31,62650
 855,70; 9793,316;  180,022;30510,014;31,69567
 856,26; 9874,142;  229,147;30392,902;31,97545
 856,82; 9929,343;  201,772;30308,666;32,31011
 857,38; 9834,544;  227,897;30256,054;31,99213
 857,94; 9937,119;  208,022;30182,318;32,45814
 858,50; 9926,445;  222,397;30008,956;32,57861
 859,06; 9826,521;  217,147;29734,345;32,55517
 859,62; 9928,972;  221,397;29691,483;32,94044
 860,18; 9856,797;  219,022;29606,372;32,79566
 860,74; 9820,998;  183,522;29445,760;32,93486
 861,30; 9810,074;  185,897;29227,774;33,13896
 861,86; 9922,525;  228,397;29317,287;33,32588
 862,42; 9875,725;  208,522;29164,551;33,38581
 862,98; 9946,176;  234,147;29081,064;33,66748
 863,54; 9881,252;  227,397;28914,203;33,65260
 864,10; 9968,202;  216,022;28889,341;34,01134
 864,66; 9875,528;  185,272;28739,855;33,93591
 865,22; 9884,729;  215,397;28594,993;34,07142
 865,78; 9871,430;  221,147;28450,382;34,18542
 866,34; 9928,255;  208,147;28415,645;34,45931
 866,90; 9929,206;  221,772;28277,784;34,60019
 867,45; 9964,282;  233,772;27989,172;35,05808
 868,01; 9853,483;  223,272;27879,061;34,82168
 868,57; 9814,683;  231,397;27725,449;34,85585
 869,13; 9848,759;  204,647;27746,463;35,01625
 869,69; 9865,960;  197,897;27460,851;35,46227
 870,25; 9836,286;  202,397;27389,240;35,43585
 870,81; 9901,236;  208,647;27389,878;35,65913
 871,37; 9882,437;  219,272;27306,892;35,67373
 871,93; 9887,638;  230,647;27169,530;35,84778
 872,49; 9878,213;  233,897;26892,294;36,17741
 873,04; 9836,414;  200,897;26664,557;36,41037
 873,60; 9829,615;  191,522;26735,696;36,30964
 874,16; 9808,066;  226,897;26601,834;36,32679
 874,72; 9831,066;  212,272;26468,459;36,63439
 875,28; 9791,441;  227,022;26342,209;36,62397
 875,84; 9847,566;  217,272;26326,084;36,88522
 876,40; 9833,816;  215,022;26211,959;36,99972
 876,95; 9880,441;  219,897;26214,209;37,16407
 877,51; 9909,566;  232,522;26216,209;37,24277
 878,07;10050,316;  251,147;26187,959;37,78093
 878,63;10009,566;  213,897;26115,209;37,81920
 879,19;10076,816;  228,897;26323,209;37,73971
 879,75;10046,941;  222,897;26282,459;37,69842
 880,30;10119,316;  211,897;26304,834;37,96973
 880,86;10237,566;  252,147;26477,834;38,07496
 881,42;10270,066;  196,647;26447,459;38,37374
 881,98;10333,816;  228,397;26470,959;38,50774
 882,54;10416,691;  207,022;26702,959;38,53296
 883,09;10509,816;  214,272;26697,834;38,87522
 883,65;10553,316;  195,647;26812,209;38,91437
 884,21;10758,691;  240,772;26956,459;39,36982
 884,77;10756,316;  205,272;26994,834;39,38491
 885,32;10889,816;  215,897;27151,834;39,62705
 885,88;10942,816;  253,147;27413,334;39,35786
 886,44;11080,691;  232,522;27429,209;39,88783
 887,00;11202,816;  234,397;27392,834;40,38678
 887,56;11219,816;  223,272;27562,709;40,22228
 888,11;11252,816;  217,647;27461,959;40,50449
 888,67;11431,316;  244,772;27707,459;40,73361
 889,23;11417,566;  242,897;27733,709;40,64874
 889,79;11402,816;  215,272;27678,084;40,73706
 890,34;11403,316;  223,147;27513,959;40,96679
 890,90;11570,441;  268,772;27625,209;41,31265
 891,46;11506,066;  214,147;27675,459;41,11937
 892,01;11496,191;  251,022;27653,709;41,03674
 892,57;11591,066;  245,022;27529,834;41,58373
 893,13;11579,566;  212,522;27317,584;41,93698
 893,69;11549,191;  214,272;27253,209;41,92073
 894,24;11619,316;  228,022;27190,334;42,24895
 894,80;11548,441;  235,897;27069,834;42,15760
 895,36;11529,566;  230,397;26973,834;42,25025
 895,91;11486,816;  228,272;26729,959;42,48237
 896,47;11442,066;  222,272;26672,209;42,41898
 897,03;11386,066;  210,772;26426,959;42,62746
 897,58;11392,816;  235,022;26363,084;42,70425
 898,14;11365,691;  228,647;26120,084;43,01439
 898,70;11327,441;  195,272;25985,334;43,16457
 899,25;11366,066;  220,522;26025,959;43,19068
 899,81;11291,566;  230,647;25833,584;43,20176
 900,37;11266,441;  196,647;25623,959;43,53505
 900,92;11340,816;  218,897;25642,084;43,74715
 901,48;11305,316;  210,897;25443,459;43,96866
 902,03;11275,816;  217,647;25365,084;43,97334
 902,59;11301,316;  214,647;25122,709;44,51036
 903,15;11240,441;  233,147;25071,959;44,31490
 903,70;11262,316;  226,647;24830,084;44,85417
 904,26;11210,691;  196,147;24751,709;44,85560
 904,82;11214,191;  224,772;24692,334;44,91424
 905,37;11162,566;  218,647;24568,584;44,94434
 905,93;11182,566;  206,022;24431,209;45,31046
 906,48;11188,316;  219,272;24324,709;45,50444
 907,04;11214,441;  234,897;24439,209;45,36193
 907,60;11120,941;  215,647;24090,584;45,67674
 908,15;11058,316;  203,272;23895,334;45,81722
 908,71;11112,691;  236,147;24052,084;45,66918
 909,26;11065,816;  211,147;23831,584;45,95456
 909,82;11097,816;  240,272;23757,584;46,16830
 910,37;11133,941;  258,897;23672,334;46,44787
 910,93;11081,941;  204,522;23450,334;46,79302
 911,48;11028,316;  205,772;23314,084;46,83399
 912,04;11019,691;  211,272;23190,709;47,03518
 912,60;11056,316;  232,897;23184,584;47,15740
 913,15;10976,566;  219,647;23045,334;47,12637
 913,71;10957,566;  218,022;22883,834;47,38213
 914,26;10992,941;  201,772;22870,334;47,60412
 914,82;10951,066;  217,022;22759,584;47,61679
 915,37;11021,941;  205,522;22601,459;48,29634
 915,93;10969,316;  247,772;22519,959;48,13871
 916,48;10931,441;  203,272;22453,209;48,21662
 917,04;10918,816;  235,397;22319,334;48,37642
 917,59;10910,566;  244,772;22180,459;48,62302
 918,15;10835,191;  198,397;22052,959;48,67082
 918,70;10821,441;  214,772;21989,584;48,71072
 919,26;10841,191;  222,272;21880,584;49,02930
 919,81;10774,941;  208,397;21695,584;49,17602
 920,37;10750,066;  211,772;21550,334;49,38615
 920,92;10693,316;  233,022;21502,584;49,17964
 921,48;10644,941;  200,022;21338,459;49,41197
 922,03;10697,816;  203,272;21372,709;49,57403
 922,59;10701,066;  202,272;21231,459;49,92487
 923,14;10678,441;  191,647;21121,209;50,10517
 923,69;10705,566;  213,272;20985,459;50,51126
 924,25;10752,316;  236,147;21041,834;50,54468
 924,80;10652,191;  223,147;20689,959;50,95588
 925,36;10607,316;  210,897;20678,959;50,79337
 925,91;10638,191;  207,022;20544,334;51,29079
 926,47;10601,691;  201,147;20532,959;51,15404
 927,02;10626,066;  241,897;20449,959;51,38627
 927,57;10625,941;  225,772;20289,834;51,83481
 928,13;10656,941;  222,772;20254,584;52,08799
 928,68;10629,941;  213,022;20173,334;52,18815
 929,24;10547,441;  199,397;19971,834;52,33570
 929,79;10568,066;  207,522;19856,959;52,72692
 930,34;10526,316;  216,147;19728,459;52,83930
 930,90;10502,691;  205,647;19757,209;52,66609
 931,45;10559,191;  237,772;19578,834;53,36531
 932,01;10522,316;  228,272;19640,084;53,02979
 932,56;10536,191;  234,022;19455,459;53,59729
 933,11;10547,941;  235,772;19334,709;53,99342
 933,67;10503,316;  215,647;19160,834;54,30228
 934,22;10454,566;  216,772;19085,834;54,25703
 934,77;10411,566;  248,522;18974,334;54,27291
 935,33;10345,066;  228,397;18956,709;54,01805
 935,88;10371,316;  234,772;18826,709;54,52118
 936,43;10277,566;  200,647;18710,834;54,43985
 936,99;10306,316;  215,522;18576,959;54,95645
 937,54;10304,816;  198,647;18466,959;55,32076
 938,09;10332,191;  207,897;18400,209;55,65149
 938,65;10247,066;  210,272;18317,459;55,42989
 939,20;10218,566;  202,522;18263,959;55,45541
 939,75;10145,066;  207,272;18139,959;55,41720
 940,31;10180,316;  194,147;18032,584;55,98119
 940,86;10194,691;  207,397;18008,334;56,10544
 941,41;10231,066;  253,147;17864,709;56,65550
 941,96;10161,191;  198,022;17905,334;56,26584
 942,52;10166,691;  220,897;17687,584;56,94150
 943,07;10141,316;  189,772;17574,584;57,24274
 943,62;10105,941;  210,022;17599,334;56,90805
 944,18;10078,566;  194,897;17519,834;57,04880
 944,73;10158,566;  203,147;17382,209;57,95088
 945,28;10077,566;  168,522;17236,084;58,05776
 945,83;10098,066;  216,647;17201,959;58,17626
 946,39;10085,441;  213,022;17154,334;58,27423
 946,94;10080,941;  227,772;17045,584;58,58770
 947,49;10037,816;  204,272;16969,334;58,65498
 948,04;10081,816;  217,272;16936,834;59,00001
 948,59;10074,566;  223,897;16853,709;59,23500
 949,15;10001,316;  204,897;16784,209;59,08821
 949,70;10001,316;  213,647;16669,209;59,47939
 950,25; 9929,441;  214,022;16527,334;59,55516
 950,80; 9918,316;  176,772;16457,959;59,83313
 951,36; 9929,316;  166,647;16458,709;59,92285
 951,91; 9923,941;  231,397;16354,959;60,11416
 952,46; 9849,066;  184,647;16232,584;60,22219
 953,01; 9870,441;  216,897;16222,834;60,31227
 953,56; 9859,566;  182,647;16112,209;60,74818
 954,11; 9860,941;  210,397;16000,209;61,11880
 954,67; 9820,566;  194,522;15983,959;60,96508
 955,22; 9721,066;  186,897;15812,334;61,01697
 955,77; 9734,066;  228,522;15775,459;61,14094
 956,32; 9761,191;  237,022;15673,959;61,69727
 956,87; 9640,316;  193,647;15575,334;61,41503
 957,42; 9671,941;  203,772;15448,959;62,10595
 957,98; 9643,316;  190,522;15384,334;62,21476
 958,53; 9662,191;  219,397;15384,584;62,26625
 959,08; 9530,941;  199,022;15220,209;62,12504
 959,63; 9599,316;  189,647;15203,334;62,67394
 960,18; 9614,691;  205,272;15059,709;63,34416
 960,73; 9533,941;  203,647;15075,084;62,73969
 961,28; 9539,816;  183,147;14963,334;63,30548
 961,83; 9553,316;  229,897;14939,334;63,38392
 962,39; 9526,941;  196,897;14815,584;63,82272
 962,94; 9466,566;  213,647;14778,459;63,52927
 963,49; 9437,316;  212,272;14666,709;63,82153
 964,04; 9434,066;  231,397;14566,584;64,19636
 964,59; 9406,566;  182,897;14460,584;64,60198
 965,14; 9440,691;  222,022;14407,834;64,98513
 965,69; 9426,941;  206,772;14288,209;65,47747
 966,24; 9379,941;  200,272;14204,084;65,55121
 966,79; 9301,941;  218,147;14146,084;65,21995
 967,34; 9230,816;  183,772;14097,084;65,02437
 967,89; 9267,691;  216,147;14001,959;65,65840
 968,44; 9195,941;  214,022;13888,959;65,68161
 968,99; 9232,566;  220,522;13840,959;66,16560
 969,55; 9180,691;  219,022;13754,959;66,20649
 970,10; 9136,441;  214,522;13705,834;66,13084
 970,65; 9060,441;  218,522;13561,709;66,26542
 971,20; 9042,066;  203,272;13435,459;66,79768
 971,75; 8889,066;  181,397;13312,709;66,31225
 972,30; 8910,566;  213,397;13295,084;66,48354
 972,85; 8892,816;  191,897;13248,084;66,64211
 973,40; 8839,566;  194,272;13105,459;66,95971
 973,95; 8812,691;  215,647;12940,584;67,56060
 974,50; 8842,066;  216,772;12899,709;68,00707
 975,05; 8764,066;  218,522;12885,584;67,46271
 975,60; 8719,316;  232,147;12789,834;67,58544
 976,15; 8720,941;  205,272;12644,459;68,45840
 976,70; 8703,816;  217,772;12546,084;68,83378
 977,25; 8673,691;  210,272;12536,834;68,66001
 977,80; 8581,941;  202,647;12444,584;68,44745
 978,35; 8548,191;  214,397;12210,959;69,46818
 978,89; 8525,566;  201,647;12198,709;69,38297
 979,44; 8527,691;  211,522;12186,834;69,44427
 979,99; 8418,316;  203,897;11992,584;69,68052
 980,54; 8437,066;  233,897;11982,084;69,82497
 981,09; 8354,816;  227,272;11809,334;70,17354
 981,64; 8258,816;  209,647;11653,209;70,33796
 982,19; 8271,066;  243,522;11684,334;70,16585
 982,74; 8219,441;  223,522;11617,459;70,17696
 983,29; 8131,441;  195,772;11414,959;70,73301
 983,84; 8109,191;  230,647;11298,584;71,18349
 984,39; 8080,691;  250,647;11195,834;71,53869
 984,94; 7994,816;  199,647;11162,334;71,10637
 985,49; 7956,316;  246,397;11103,709;71,01130
 986,03; 7912,191;  240,272;11042,209;71,02354
 986,58; 7895,316;  245,897;10848,084;72,14944
 987,13; 7762,066;  216,522;10773,834;71,47220
 987,68; 7683,941;  232,272;10673,959;71,36460
 988,23; 7764,191;  231,772;10604,209;72,61956
 988,78; 7602,066;  218,022;10480,209;71,95390
 989,33; 7603,691;  215,897;10342,209;72,95641
 989,88; 7593,566;  233,647;10234,584;73,59229
 990,42; 7458,691;  207,647;10215,834;72,45112
 990,97; 7467,941;  212,147;10071,084;73,59610
 991,52; 7487,316;  235,147; 9989,209;74,35024
 992,07; 7386,691;  246,772; 9876,834;74,14198
 992,62; 7345,816;  219,772; 9786,084;74,49102
 993,17; 7341,941;  223,772; 9700,459;75,11241
 993,71; 7235,816;  228,022; 9622,084;74,59812
 994,26; 7172,816;  187,147; 9476,709;75,19911
 994,81; 7216,191;  245,772; 9394,334;76,19141
 995,36; 7068,941;  207,897; 9329,709;75,21579
 995,91; 7071,191;  221,647; 9250,959;75,85897
 996,45; 7046,566;  222,647; 9172,584;76,24543
 997,00; 6904,941;  219,147; 8976,834;76,34200
 997,55; 6958,691;  225,772; 8982,834;76,88559
 998,10; 6927,816;  244,397; 8873,334;77,45355
 998,65; 6798,316;  228,022; 8756,959;77,03531
 999,19; 6786,816;  237,897; 8633,334;78,00569
 999,74; 6669,566;  239,522; 8568,209;77,20357
1000,29; 6679,941;  235,397; 8497,084;78,00517
1000,84; 6624,316;  224,772; 8411,084;78,17370
1001,38; 6528,816;  220,147; 8316,959;77,91546
1001,93; 6548,441;  227,897; 8253,334;78,75638
1002,48; 6427,941;  202,397; 8117,834;78,65066
1003,03; 6401,316;  225,772; 8078,334;78,64368
1003,57; 6346,566;  233,522; 7930,334;79,42306
1004,12; 6288,816;  235,397; 7915,959;78,81478
1004,67; 6178,941;  217,897; 7763,709;78,99804
1005,22; 6086,191;  209,397; 7650,209;78,98054
1005,76; 6026,691;  205,522; 7540,459;79,36221
1006,31; 6038,816;  244,647; 7497,084;79,89271
1006,86; 5952,316;  211,522; 7323,334;80,72195
1007,40; 5861,441;  209,397; 7227,084;80,53997
1007,95; 5796,691;  216,522; 7204,709;79,85145
1008,50; 5713,941;  227,397; 7034,459;80,60075
1009,04; 5685,566;  232,272; 6943,334;81,25828
1009,59; 5570,316;  228,647; 6828,584;80,93514
1010,14; 5486,566;  206,022; 6734,709;80,88216
1010,68; 5447,691;  225,397; 6630,084;81,53862
1011,23; 5373,691;  212,147; 6544,959;81,50476
1011,78; 5323,566;  228,647; 6451,584;81,87321
1012,32; 5275,441;  219,397; 6317,084;82,91740
1012,87; 5264,566;  243,147; 6347,459;82,26018
1013,42; 5155,066;  205,147; 6236,209;82,07374
1013,96; 5179,066;  248,772; 6186,209;83,03740
1014,51; 5116,191;  172,897; 6127,209;83,02039
1015,06; 5099,816;  201,647; 6081,334;83,30662
1015,60; 5184,941;  260,897; 6193,209;83,00378
1016,15; 5161,691;  218,522; 6144,834;83,41053
1016,69; 5168,191;  213,397; 6149,834;83,46409
1017,24; 5153,691;  197,147; 6175,584;82,90701
1017,79; 5226,441;  237,647; 6213,959;83,47612
1018,33; 5212,691;  200,522; 6216,834;83,30965
1018,88; 5274,191;  233,647; 6250,334;83,77606
1019,42; 5268,566;  213,397; 6211,334;84,28178
1019,97; 5262,441;  205,147; 6211,084;84,20490
1020,51; 5352,691;  214,897; 6286,084;84,62585
1021,06; 5332,191;  183,147; 6306,959;84,08232
1021,61; 5300,191;  188,397; 6276,584;83,96249
1022,15; 5274,691;  156,897; 6195,709;84,74835
1022,70; 5295,941;  212,647; 6213,709;84,70656
1023,24; 5296,941;  212,022; 6153,584;85,58218
1023,79; 5248,316;  209,147; 6105,834;85,45762
1024,33; 5203,066;  212,272; 6004,209;86,16795
1024,88; 5205,441;  225,772; 5988,459;86,41226
1025,42; 5078,816;  219,772; 5922,584;85,20434
1025,97; 5027,941;  199,897; 5814,334;85,99337
1026,51; 4890,941;  177,772; 5700,209;85,34581
1027,06; 4898,566;  191,772; 5676,834;85,81112
1027,60; 4817,941;  209,397; 5550,709;86,28111
1028,15; 4792,566;  227,897; 5451,834;87,37985
1028,69; 4674,941;  184,772; 5357,959;86,79695
1029,24; 4626,316;  197,772; 5283,834;87,07215
1029,78; 4536,316;  194,647; 5201,084;86,72172
1030,33; 4457,316;  189,147; 5094,209;87,01558
1030,87; 4444,066;  203,022; 5062,959;87,26540
1031,42; 4407,441;  187,022; 4911,084;89,33876
1031,96; 4345,316;  211,397; 4902,959;88,11390
1032,51; 4277,566;  198,022; 4839,209;87,89871
1033,05; 4251,691;  217,272; 4751,834;88,97041
1033,60; 4167,316;  180,022; 4623,459;89,73444
1034,14; 4126,566;  209,272; 4589,334;89,43465
1034,69; 4081,066;  198,272; 4512,709;89,99536
1035,23; 4024,066;  197,897; 4445,209;90,08447
1035,77; 4009,191;  193,272; 4417,584;90,33230
1036,32; 3946,191;  190,147; 4352,209;90,24477
1036,86; 3923,816;  195,022; 4310,084;90,61330
1037,41; 3835,566;  210,397; 4217,709;90,46384
1037,95; 3793,941;  175,897; 4189,084;90,15387
1038,50; 3807,566;  186,522; 4116,209;92,14584
1039,04; 3742,566;  216,022; 4050,959;91,95831
1039,58; 3641,316;  197,022; 3977,084;91,11738
1040,13; 3645,691;  209,897; 3952,084;91,81244
1040,67; 3631,941;  230,272; 3881,334;93,16928
1041,21; 3571,941;  237,397; 3795,834;93,70809
1041,76; 3468,316;  186,772; 3728,709;92,64827
1042,30; 3462,441;  200,897; 3677,459;93,81519
1042,85; 3445,066;  211,272; 3635,334;94,44319
1043,39; 3333,191;  207,897; 3600,959;92,10835
1043,93; 3343,316;  218,272; 3553,209;93,70622
1044,48; 3281,066;  195,522; 3477,959;94,00160
1045,02; 3248,566;  191,272; 3456,709;93,62585
1045,56; 3219,066;  217,397; 3440,959;93,11651
1046,11; 3186,066;  207,272; 3359,834;94,48802
1046,65; 3120,191;  219,522; 3314,834;93,71166
1047,19; 3085,316;  186,397; 3271,459;93,96629
1047,74; 3011,191;  191,022; 3189,709;94,04677
1048,28; 3045,441;  226,647; 3138,709;96,79716
1048,82; 3007,566;  219,397; 3179,834;94,18097
1049,37; 2977,941;  214,147; 3110,834;95,41222
1049,91; 2922,816;  199,522; 3054,334;95,39309
1050,45; 2926,066;  228,522; 3025,084;96,45927
1050,99; 2856,566;  205,647; 2946,209;96,72900
1051,54; 2812,191;  195,147; 2910,959;96,36320
1052,08; 2837,941;  218,397; 2873,834;98,64829
1052,62; 2756,441;  216,022; 2846,334;96,58239
1053,16; 2761,941;  202,897; 2788,459;98,97435
1053,71; 2694,191;  215,397; 2736,834;98,30875
1054,25; 2674,066;  228,897; 2712,334;98,45904
1054,79; 2652,691;  215,647; 2690,209;98,48382
1055,33; 2575,941;  201,647; 2626,459;97,91659
1055,88; 2565,691;  210,897; 2605,959;98,31868
1056,42; 2540,316;  236,522; 2617,084;96,77518
1056,96; 2526,191;  228,147; 2561,209;98,49902
1057,50; 2502,566;  211,897; 2510,709;99,64574
1058,05; 2451,816;  209,022; 2403,084;102,22105
1058,59; 2436,191;  229,522; 2407,584;101,31338
1059,13; 2345,066;  192,522; 2366,209;99,02729
1059,67; 2360,691;  223,272; 2342,834;100,84245
1060,21; 2304,566;  204,897; 2264,334;101,95351
1060,76; 2266,566;  230,522; 2288,584;98,93012
1061,30; 2263,066;  234,397; 2277,834;99,27726
1061,84; 2236,441;  206,397; 2207,584;101,44196
1062,38; 2172,066;  202,897; 2156,209;100,81176
1062,92; 2184,941;  246,022; 2150,584;101,80389
1063,46; 2177,191;  231,647; 2133,334;102,30618
1064,01; 2136,441;  192,647; 2088,959;102,50387
1064,55; 2077,941;  218,647; 2059,084;101,02455
1065,09; 2052,566;  183,272; 2037,209;100,82830
1065,63; 2088,316;  241,022; 2018,459;103,93017
1066,17; 2051,941;  225,647; 2005,209;102,62600
1066,71; 2009,816;  232,772; 1964,459;102,61919
1067,25; 1999,566;  217,272; 1924,334;104,40706
1067,80; 1968,691;  227,272; 1927,084;102,44770
1068,34; 1968,691;  240,397; 1911,334;103,43258
1068,88; 1909,816;  207,272; 1840,459;104,24668
1069,42; 1939,191;  246,522; 1900,959;102,31083
1069,96; 1860,066;  217,772; 1820,709;102,45526
1070,50; 1855,566;  247,397; 1834,334;101,33788
1071,04; 1839,816;  207,147; 1765,959;104,73798
1071,58; 1830,441;  221,272; 1785,209;102,89214
1072,12; 1811,941;  213,897; 1749,959;104,03507
1072,66; 1772,566;  227,272; 1722,084;103,37710
1073,21; 1765,941;  235,897; 1719,959;103,09834
1073,75; 1729,941;  226,272; 1690,459;102,69646
1074,29; 1746,566;  228,147; 1655,334;106,39238
1074,83; 1708,941;  229,147; 1653,209;103,91354
1075,37; 1705,566;  225,022; 1633,709;105,10094
1075,91; 1664,691;  227,022; 1588,459;105,59932
1076,45; 1652,816;  231,397; 1595,209;104,22391
1076,99; 1609,441;  232,647; 1559,584;103,75724
1077,53; 1594,691;  215,647; 1523,209;105,46676
1078,07; 1593,316;  227,272; 1520,334;105,64406
1078,61; 1545,066;  217,772; 1533,709;100,86298
1079,15; 1534,566;  217,772; 1481,334;104,21279
1079,69; 1546,316;  228,147; 1464,834;106,58867
1080,23; 1524,941;  238,897; 1469,334;104,51923
1080,77; 1512,816;  255,522; 1440,334;106,11753
1081,31; 1455,316;  211,522; 1424,834;102,51223
1081,85; 1491,191;  234,147; 1415,084;106,44456
1082,39; 1434,316;  225,647; 1392,084;103,62053
1082,93; 1433,941;  225,897; 1380,209;104,65483
1083,47; 1427,191;  209,522; 1358,209;106,00522
1084,01; 1413,191;  236,522; 1359,834;104,74990
1084,55; 1399,066;  210,147; 1312,334;107,86901
1085,09; 1392,316;  230,647; 1335,459;105,14624
1085,63; 1382,566;  223,647; 1280,459;109,66172
1086,17; 1353,566;  217,647; 1301,959;104,75935
1086,71; 1327,316;  213,772; 1290,209;103,44713
1087,24; 1320,941;  247,022; 1269,209;105,06084
1087,78; 1303,941;  226,647; 1230,334;107,33358
1088,32; 1280,691;  216,522; 1228,459;105,16151
1088,86; 1291,691;  247,897; 1216,334;107,78122
1089,40; 1288,816;  230,647; 1210,459;107,99707
1089,94; 1225,316;  204,397; 1166,834;106,07637
1090,48; 1234,691;  233,147; 1177,834;106,01852
1091,02; 1228,691;  231,647; 1163,584;106,98612
1091,56; 1212,316;  226,647; 1158,209;105,80812
1092,10; 1181,941;  215,897; 1113,084;107,67468
1092,63; 1227,316;  243,272; 1153,459;108,11440
1093,17; 1169,816;  232,147; 1103,709;107,58480
1093,71; 1151,316;  220,772; 1078,459;108,49450
1094,25; 1161,566;  248,397; 1107,459;106,29829
1094,79; 1134,941;  225,647; 1062,084;108,71030
1095,33; 1127,066;  229,897; 1060,584;108,00316
1095,87; 1100,691;  222,147; 1027,959;109,02583
1096,40; 1090,941;  215,272; 1030,334;107,43578
1096,94; 1085,441;  228,147; 1026,959;107,32102
1097,48; 1079,691;  217,897; 1002,084;109,89639
1098,02; 1054,316;  223,272; 1016,584;104,75616
1098,56; 1026,316;  194,147;  960,709;108,55850
1099,10; 1023,441;  200,397;  966,959;107,36812
1099,63; 1040,691;  202,022;  958,084;110,92585
1100,17; 1026,941;  229,272;  955,709;109,80556
1100,71; 1043,816;  242,397;  960,334;111,62793

