
Integration time [ms]: 130,000
Averaging Nr. [scans]: 8
Smoothing Nr. [pixels]: 0
Data measured with spectrometer [name]: 2009305U1
Wave   ;Sample   ;Dark     ;Reference;Reflectance
[nm]   ;[counts] ;[counts] ;[counts] ;[%]

 175,72;  221,004;  210,396;  218,316;133,93729
 176,32;  247,337;  240,998;  232,879; 0,00000
 176,92;  287,066;  269,139;  280,014;164,84501
 177,52;  280,007;  269,016;  290,032;52,29622
 178,12;  236,015;  261,249;  235,645; 0,00000
 178,72;  283,239;  279,243;  265,313; 0,00000
 179,32;  278,196;  285,873;  269,707; 0,00000
 179,92;  278,113;  264,882;  266,541;797,51820
 180,52;  264,067;  254,907;  264,527;95,21981
 181,12;  271,561;  275,258;  261,354; 0,00000
 181,73;  287,840;  295,635;  291,278; 0,00000
 182,33;  392,972;  392,023;  390,552; 0,00000
 182,93;  300,817;  290,891;  290,094; 0,00000
 183,53;  264,920;  252,740;  249,295; 0,00000
 184,13;  248,816;  255,743;  244,797; 0,00000
 184,73;  305,338;  311,487;  290,606; 0,00000
 185,33;  302,554;  259,857;  362,051;41,78056
 185,93;  303,353;  252,591;  372,759;42,24237
 186,53;  313,129;  271,100;  394,921;33,94361
 187,13;  346,964;  280,617;  417,713;48,39424
 187,73;  293,196;  267,969;  383,120;21,90829
 188,33;  303,355;  262,085;  379,270;35,21829
 188,93;  320,413;  286,806;  384,626;34,35599
 189,53;  313,001;  271,660;  395,440;33,39899
 190,13;  348,497;  304,874;  431,995;34,31591
 190,73;  296,769;  229,398;  369,339;48,14208
 191,34;  326,327;  281,048;  425,902;31,25811
 191,94;  292,744;  245,200;  379,248;35,46798
 192,54;  315,362;  272,255;  401,659;33,31197
 193,14;  321,625;  279,240;  400,728;34,88778
 193,74;  317,620;  283,487;  398,023;29,80090
 194,34;  318,182;  271,994;  393,574;37,98963
 194,94;  286,810;  233,615;  360,415;41,95186
 195,54;  249,466;  207,483;  327,520;34,97481
 196,14;  289,582;  241,498;  367,827;38,06271
 196,74;  277,908;  229,979;  361,924;36,32528
 197,34;  254,778;  223,133;  353,209;24,32797
 197,94;  287,936;  238,492;  374,995;36,22146
 198,54;  312,066;  248,373;  395,655;43,24568
 199,14;  269,364;  236,139;  373,103;24,25814
 199,74;  256,929;  218,639;  369,166;25,43686
 200,34;  263,256;  209,142;  378,480;31,95626
 200,94;  289,729;  240,756;  418,613;27,53514
 201,54;  301,892;  226,886;  420,492;38,74130
 202,14;  329,708;  271,896;  484,499;27,19269
 202,74;  279,376;  225,639;  446,775;24,30062
 203,34;  265,835;  212,028;  464,488;21,31305
 203,94;  247,656;  184,773;  456,187;23,16889
 204,54;  329,585;  272,994;  537,543;21,39166
 205,14;  293,473;  213,389;  534,306;24,95468
 205,74;  357,831;  262,653;  630,737;25,85771
 206,34;  301,503;  222,771;  623,514;19,64649
 206,94;  328,611;  234,143;  659,012;22,23455
 207,54;  290,325;  205,895;  680,248;17,79903
 208,14;  322,511;  217,272;  741,640;20,06971
 208,74;  337,920;  220,388;  808,040;20,00029
 209,34;  337,215;  219,640;  874,385;17,95736
 209,94;  358,820;  241,515;  973,088;16,03466
 210,54;  379,544;  216,025; 1043,813;19,75376
 211,14;  393,816;  232,389; 1123,837;18,10836
 211,73;  410,242;  225,260; 1227,319;18,46020
 212,33;  435,164;  244,880; 1337,301;17,41858
 212,93;  442,916;  214,263; 1401,040;19,26676
 213,53;  423,735;  200,639; 1439,478;18,00850
 214,13;  464,889;  222,534; 1556,163;18,17258
 214,73;  452,458;  206,396; 1548,999;18,32727
 215,33;  445,695;  190,890; 1567,963;18,50339
 215,93;  498,794;  218,027; 1711,643;18,79784
 216,53;  470,271;  160,012; 1737,742;19,66489
 217,13;  565,467;  225,275; 1923,954;20,02689
 217,73;  603,549;  221,528; 2112,518;20,20216
 218,33;  600,809;  167,786; 2239,258;20,90410
 218,93;  698,046;  199,053; 2506,144;21,62869
 219,53;  746,748;  198,161; 2773,446;21,30199
 220,13;  792,491;  177,665; 3033,730;21,52704
 220,73;  896,449;  203,390; 3305,088;22,34450
 221,32;  979,170;  205,638; 3663,540;22,36998
 221,92; 1073,406;  208,164; 4007,370;22,77429
 222,52; 1138,976;  187,903; 4323,660;22,99635
 223,12; 1274,170;  194,154; 4760,973;23,64919
 223,72; 1370,110;  200,280; 5128,535;23,73720
 224,32; 1481,461;  214,156; 5474,067;24,09365
 224,92; 1507,428;  193,656; 5752,224;23,63509
 225,52; 1625,676;  222,019; 6073,075;23,98980
 226,12; 1666,637;  198,524; 6387,469;23,72153
 226,72; 1742,769;  175,273; 6610,016;24,35989
 227,31; 1886,987;  166,273; 6944,422;25,38620
 227,91; 2012,212;  207,517; 7291,964;25,47403
 228,51; 2036,177;  203,632; 7649,427;24,61181
 229,11; 2197,717;  196,647; 8042,249;25,50562
 229,71; 2261,694;  195,012; 8218,633;25,75747
 230,31; 2361,671;  188,284; 8643,382;25,70505
 230,91; 2431,002;  180,627; 8963,002;25,62377
 231,51; 2545,141;  179,152; 9286,925;25,97769
 232,10; 2625,216;  186,911; 9647,102;25,77437
 232,70; 2705,307;  206,494; 9881,699;25,82698
 233,30; 2776,976;  217,276;10157,830;25,75007
 233,90; 2831,318;  189,276;10367,361;25,95815
 234,50; 2865,625;  178,402;10504,128;26,02454
 235,10; 2945,678;  174,656;10742,474;26,22133
 235,70; 2978,131;  205,642;10800,230;26,16892
 236,29; 2961,400;  201,138;10851,118;25,91801
 236,89; 2961,245;  200,253;10842,205;25,94441
 237,49; 2981,995;  210,899;10888,922;25,95140
 238,09; 2910,003;  194,146;10697,764;25,85639
 238,69; 2916,147;  235,373;10613,264;25,83158
 239,29; 2850,430;  188,019;10456,325;25,92843
 239,89; 2755,777;  202,004;10223,049;25,48410
 240,48; 2649,595;  197,396; 9924,045;25,21115
 241,08; 2548,079;  196,143; 9669,418;24,82706
 241,68; 2482,398;  207,521; 9499,811;24,48133
 242,28; 2375,548;  186,025; 9146,689;24,43483
 242,88; 2327,078;  237,159; 8937,851;24,02015
 243,48; 2190,306;  240,024; 8776,360;22,84683
 244,07; 2087,429;  226,642; 8509,621;22,46520
 244,67; 2004,140;  208,523; 8425,390;21,85282
 245,27; 1938,117;  213,760; 8203,694;21,58162
 245,87; 1875,255;  220,783; 8223,912;20,67282
 246,47; 1816,399;  201,510; 8183,038;20,23283
 247,06; 1772,164;  197,519; 8231,528;19,59973
 247,66; 1731,854;  186,272; 8290,421;19,07149
 248,26; 1707,581;  221,762; 8397,555;18,17340
 248,86; 1698,404;  230,261; 8601,163;17,53864
 249,46; 1662,452;  165,402; 8693,612;17,55409
 250,05; 1733,841;  220,770; 9050,795;17,13553
 250,65; 1728,169;  185,883; 9372,006;16,78930
 251,25; 1754,216;  189,143; 9755,465;16,36024
 251,85; 1846,104;  204,503;10364,409;16,15763
 252,44; 1909,138;  174,763;10836,071;16,26794
 253,04; 1986,199;  207,015;11466,838;15,80117
 253,64; 2057,080;  159,132;12100,145;15,89437
 254,24; 2224,902;  217,770;12970,357;15,73902
 254,84; 2327,452;  183,152;13803,737;15,74308
 255,43; 2506,533;  194,014;14576,619;16,07859
 256,03; 2680,149;  197,133;15453,958;16,27479
 256,63; 2808,962;  200,628;16321,112;16,18025
 257,23; 2978,858;  176,004;17189,534;16,47426
 257,82; 3173,666;  205,746;17991,857;16,68673
 258,42; 3277,843;  159,118;18727,214;16,79615
 259,02; 3554,493;  215,765;19628,979;17,19823
 259,62; 3633,734;  186,865;20177,931;17,24204
 260,21; 3817,029;  197,138;20741,618;17,61977
 260,81; 3996,007;  199,649;21143,469;18,12639
 261,41; 4144,501;  186,870;21413,262;18,64486
 262,01; 4279,696;  226,612;21957,257;18,65147
 262,60; 4430,233;  183,754;22238,034;19,25467
 263,20; 4530,911;  207,885;22453,335;19,43331
 263,80; 4694,366;  212,237;22668,022;19,95980
 264,40; 4788,769;  177,864;22781,821;20,39867
 264,99; 4967,922;  200,861;22916,959;20,98539
 265,59; 5106,694;  198,725;23021,234;21,50495
 266,19; 5185,430;  193,487;23251,085;21,64988
 266,78; 5327,437;  235,481;23328,972;22,04931
 267,38; 5408,303;  203,852;23298,391;22,53542
 267,98; 5511,316;  192,482;23352,097;22,96599
 268,58; 5595,646;  204,727;23361,047;23,28055
 269,17; 5712,918;  180,969;23435,151;23,78905
 269,77; 5699,538;  213,626;23199,391;23,86657
 270,37; 5757,966;  171,610;23180,100;24,27954
 270,96; 5839,525;  245,246;22992,185;24,59355
 271,56; 5831,180;  190,628;22911,643;24,82526
 272,16; 5892,573;  188,869;22696,496;25,34121
 272,75; 5960,718;  196,495;22395,919;25,96565
 273,35; 5993,985;  202,372;22462,170;26,01826
 273,95; 6051,533;  214,745;22422,481;26,28268
 274,54; 6117,261;  196,145;22521,685;26,52171
 275,14; 6278,598;  225,123;22809,374;26,80397
 275,74; 6307,872;  171,994;22810,137;27,10415
 276,33; 6507,865;  222,125;23339,875;27,19010
 276,93; 6682,245;  213,772;23628,218;27,62599
 277,53; 6854,340;  202,513;24020,055;27,92827
 278,12; 7030,007;  172,630;24493,207;28,19578
 278,72; 7400,380;  252,887;25068,570;28,80232
 279,32; 7562,170;  199,511;25538,710;29,05640
 279,91; 7835,935;  169,009;26174,928;29,48147
 280,51; 8100,328;  200,013;26806,259;29,69346
 281,11; 8393,403;  194,633;27460,209;30,07004
 281,70; 8655,395;  172,382;27885,083;30,61056
 282,30; 8906,930;  193,003;28474,643;30,81125
 282,90; 9111,257;  179,253;28895,627;31,10422
 283,49; 9416,050;  207,748;29538,858;31,39432
 284,09; 9704,108;  215,881;29900,614;31,96332
 284,69; 9947,682;  218,385;30273,132;32,37191
 285,28;10261,169;  216,381;30556,051;33,10777
 285,88;10545,400;  262,369;30906,605;33,55617
 286,47;10686,692;  201,128;30969,689;34,07883
 287,07;10968,355;  226,511;31111,648;34,77998
 287,67;11155,556;  221,274;31194,735;35,30210
 288,26;11429,008;  198,385;31152,866;36,28109
 288,86;11666,282;  192,882;31164,754;37,04458
 289,46;11992,940;  194,884;31355,553;37,86201
 290,05;12278,901;  188,017;31409,402;38,72629
 290,65;12700,559;  204,876;31627,688;39,76628
 291,24;12926,706;  212,887;31851,305;40,18475
 291,84;13392,587;  208,503;31863,612;41,64915
 292,44;13665,189;  208,650;32055,111;42,25443
 293,03;14051,315;  284,762;32178,633;43,16363
 293,63;14231,849;  195,253;32371,033;43,62473
 294,22;14600,669;  218,508;32574,756;44,44941
 294,82;14796,382;  201,239;32567,024;45,09436
 295,41;14944,145;  188,882;32300,833;45,94944
 296,01;15097,391;  228,743;32385,980;46,23733
 296,61;15139,875;  225,511;32113,945;46,77045
 297,20;15041,101;  207,494;31781,590;46,98031
 297,80;15060,619;  215,020;31685,763;47,17270
 298,39;14933,479;  182,253;31193,034;47,56806
 298,99;14958,558;  230,622;31153,529;47,62791
 299,58;14873,201;  208,397;31012,702;47,60634
 300,18;14841,921;  226,518;30723,200;47,92457
 300,78;14642,941;  210,014;30474,462;47,68938
 301,37;14659,051;  221,359;30407,505;47,82887
 301,97;14610,532;  217,759;30429,334;47,63993
 302,56;14608,264;  201,252;30309,548;47,85064
 303,16;14501,889;  183,999;30318,843;47,51274
 303,75;14475,030;  211,641;30216,948;47,53622
 304,35;14556,464;  184,904;30524,238;47,36940
 304,94;14586,270;  199,885;30546,413;47,40702
 305,54;14429,795;  226,638;30526,040;46,87603
 306,13;14405,485;  185,030;30487,285;46,92870
 306,73;14207,016;  185,150;30292,845;46,57237
 307,33;14130,269;  215,523;30309,141;46,23820
 307,92;14026,347;  217,637;30351,227;45,82498
 308,52;14116,994;  180,999;30725,671;45,62496
 309,11;14361,415;  201,867;31236,823;45,62452
 309,71;14329,588;  189,112;31661,304;44,93006
 310,30;14365,452;  180,261;31702,929;44,99997
 310,90;14506,327;  224,386;32095,304;44,81183
 311,49;14488,024;  208,385;32186,413;44,65453
 312,09;14440,829;  176,518;32307,668;44,39402
 312,68;14543,735;  269,514;32860,603;43,79793
 313,28;14422,722;  188,637;32868,727;43,55583
 313,87;14350,573;  173,510;33019,054;43,16282
 314,47;14317,492;  200,119;33278,012;42,67918
 315,06;14268,428;  168,137;33482,336;42,32517
 315,66;14213,329;  180,643;33694,668;41,87108
 316,25;14014,066;  165,250;33583,235;41,44121
 316,85;13969,659;  170,769;33686,028;41,17197
 317,44;13839,827;  194,992;33779,917;40,62785
 318,04;13729,539;  192,253;33813,346;40,26426
 318,63;13554,157;  180,400;33905,642;39,65504
 319,22;13434,228;  188,501;34023,829;39,14762
 319,82;13292,572;  192,131;34077,519;38,66103
 320,41;13112,873;  212,752;34096,876;38,07129
 321,01;12993,337;  198,517;34148,339;37,68744
 321,60;12814,185;  200,756;34227,223;37,06946
 322,20;12578,960;  190,262;34258,930;36,36391
 322,79;12468,819;  230,137;34211,508;36,01586
 323,39;12293,831;  193,653;34431,737;35,34128
 323,98;12074,045;  168,138;34448,415;34,73107
 324,58;11970,010;  181,374;34386,468;34,46456
 325,17;11700,196;  189,126;34136,985;33,90809
 325,76;11510,601;  204,760;34059,647;33,39500
 326,36;11298,038;  160,142;33795,949;33,11321
 326,95;11084,205;  220,132;33368,395;32,77419
 327,55;10758,850;  185,255;33089,613;32,13433
 328,14;10449,579;  183,396;32699,748;31,57237
 328,74;10212,325;  227,001;32370,110;31,06521
 329,33;10029,066;  200,766;32101,667;30,80885
 329,92; 9663,153;  188,242;31499,651;30,26025
 330,52; 9353,991;  214,771;30829,217;29,85264
 331,11; 9110,576;  180,881;30520,020;29,43292
 331,71; 8770,310;  195,509;29922,178;28,84548
 332,30; 8536,020;  196,635;29476,413;28,48172
 332,89; 8337,639;  271,515;28972,401;28,10409
 333,49; 8028,471;  212,757;28480,567;27,64881
 334,08; 7803,959;  190,880;28039,191;27,33767
 334,68; 7468,757;  201,255;27593,957;26,53080
 335,27; 7312,628;  215,148;27193,844;26,30772
 335,86; 7197,701;  260,756;26996,020;25,94680
 336,46; 6992,241;  220,024;26650,172;25,62308
 337,05; 6742,294;  192,256;26558,926;24,84211
 337,65; 6573,773;  180,380;26436,754;24,34987
 338,24; 6582,122;  232,388;26406,399;24,25969
 338,83; 6424,969;  225,763;26282,306;23,79136
 339,43; 6293,805;  183,626;26289,063;23,40577
 340,02; 6196,046;  190,874;26129,062;23,15186
 340,61; 6111,662;  195,887;26220,039;22,73186
 341,21; 6085,950;  217,626;26243,235;22,54827
 341,80; 5923,926;  196,505;26267,847;21,96827
 342,40; 5869,338;  199,647;26294,624;21,72713
 342,99; 5821,139;  186,265;26355,401;21,53252
 343,58; 5757,316;  193,141;26595,042;21,07490
 344,18; 5724,401;  214,767;26619,652;20,86596
 344,77; 5710,748;  189,374;26969,796;20,61720
 345,36; 5666,830;  183,507;27323,145;20,20411
 345,96; 5678,973;  221,016;27583,386;19,94695
 346,55; 5621,569;  189,403;27859,691;19,63176
 347,14; 5683,886;  171,397;28132,015;19,71519
 347,74; 5606,402;  164,413;28556,619;19,16719
 348,33; 5679,063;  180,537;29248,259;18,91626
 348,92; 5763,298;  201,044;29826,076;18,77552
 349,52; 5789,745;  175,165;30239,980;18,67492
 350,11; 5806,288;  196,748;30542,811;18,48523
 350,70; 5812,364;  188,762;30627,524;18,47513
 351,29; 5670,030;  173,481;30379,253;18,19701
 351,89; 5613,024;  215,367;30271,901;17,95835
 352,48; 5583,065;  173,137;30411,008;17,89123
 353,07; 5601,350;  212,149;30502,625;17,79174
 353,67; 5492,524;  207,045;30367,733;17,52440
 354,26; 5427,777;  204,647;30120,812;17,45922
 354,85; 5377,583;  207,019;30003,294;17,35306
 355,45; 5335,059;  173,379;29687,018;17,48914
 356,04; 5250,810;  194,775;29721,985;17,12331
 356,63; 5276,943;  227,257;29592,599;17,19607
 357,22; 5170,543;  210,235;29444,084;16,96769
 357,82; 5142,536;  201,489;29272,243;16,99662
 358,41; 5135,097;  213,009;29134,897;17,01856
 359,00; 5042,821;  174,876;28882,110;16,95721
 359,60; 5092,356;  199,638;28864,477;17,06871
 360,19; 5074,210;  220,776;28655,533;17,06867
 360,78; 5063,616;  196,505;28539,285;17,17231
 361,37; 4981,556;  197,506;28347,222;16,99502
 361,97; 4987,028;  200,758;28183,834;17,10416
 362,56; 4969,582;  188,373;27939,827;17,22868
 363,15; 4982,846;  236,129;27722,737;17,26920
 363,74; 4914,448;  197,869;27360,746;17,36406
 364,34; 4874,990;  219,500;26937,375;17,42462
 364,93; 4826,590;  188,747;26547,748;17,59491
 365,52; 4718,201;  169,756;26247,520;17,44185
 366,11; 4720,462;  196,001;25942,782;17,57292
 366,71; 4669,478;  196,501;25565,704;17,63152
 367,30; 4692,548;  203,632;25120,301;18,01571
 367,89; 4710,002;  219,518;24926,434;18,17501
 368,48; 4653,452;  211,995;24656,997;18,16918
 369,07; 4588,864;  197,262;24192,149;18,30224
 369,67; 4612,368;  209,121;23957,341;18,54138
 370,26; 4593,618;  180,512;23541,524;18,89090
 370,85; 4606,685;  191,881;23447,723;18,98363
 371,44; 4566,556;  203,883;23166,552;18,99898
 372,03; 4538,256;  178,000;22906,922;19,18373
 372,63; 4532,661;  172,507;22629,005;19,41600
 373,22; 4518,811;  182,386;22290,507;19,61462
 373,81; 4522,794;  168,006;21979,801;19,96529
 374,40; 4541,470;  190,521;21797,420;20,13685
 374,99; 4542,765;  184,129;21460,378;20,48592
 375,59; 4524,511;  192,020;21182,810;20,63996
 376,18; 4603,910;  210,005;21119,925;21,01350
 376,77; 4618,125;  201,759;20861,990;21,37617
 377,36; 4649,261;  218,756;20767,707;21,56074
 377,95; 4597,607;  207,502;20475,329;21,66046
 378,55; 4629,712;  183,017;20262,964;22,14495
 379,14; 4681,245;  206,131;20239,535;22,33826
 379,73; 4735,361;  203,877;20115,080;22,75847
 380,32; 4820,919;  212,258;20090,506;23,18444
 380,91; 4754,630;  174,621;19956,513;23,15253
 381,50; 4862,272;  213,123;19987,514;23,51096
 382,10; 4832,919;  190,008;19824,506;23,64670
 382,69; 4859,072;  167,756;19801,644;23,89397
 383,28; 5014,562;  210,875;19738,734;24,59915
 383,87; 5001,530;  190,749;19678,265;24,68647
 384,46; 5030,181;  186,864;19566,790;24,99141
 385,05; 5069,381;  216,623;19586,593;25,05299
 385,64; 5144,837;  201,001;19576,782;25,51554
 386,24; 5189,677;  174,864;19548,664;25,88451
 386,83; 5268,620;  214,362;19530,648;26,16578
 387,42; 5402,716;  216,126;19629,282;26,71688
 388,01; 5485,529;  202,104;19821,298;26,92988
 388,60; 5576,613;  192,866;20025,056;27,14651
 389,19; 5737,466;  187,842;20240,337;27,67548
 389,78; 5872,172;  187,470;20451,402;28,05330
 390,37; 6082,659;  249,609;20881,583;28,27190
 390,96; 6173,064;  209,863;21070,086;28,58647
 391,56; 6274,017;  209,338;21234,319;28,84511
 392,15; 6359,749;  187,972;21466,341;29,00494
 392,74; 6551,006;  166,947;21562,715;29,83795
 393,33; 6689,553;  190,086;21958,084;29,85790
 393,92; 6839,968;  203,314;22264,132;30,08344
 394,51; 6933,190;  182,336;22600,380;30,11349
 395,10; 7168,672;  219,041;22749,320;30,84574
 395,69; 7251,790;  203,420;22946,603;30,99113
 396,28; 7288,114;  206,033;23029,189;31,03024
 396,87; 7481,988;  216,512;23120,847;31,72096
 397,46; 7548,347;  206,623;23148,697;32,00114
 398,06; 7712,089;  236,981;23373,639;32,30851
 398,65; 7768,036;  205,941;23458,518;32,52153
 399,24; 7966,312;  243,683;23536,997;33,15384
 399,83; 7956,431;  194,622;23620,051;33,13412
 400,42; 8112,596;  238,443;23824,608;33,38463
 401,01; 8241,251;  213,255;23830,301;33,99238
 401,60; 8393,570;  216,171;23998,542;34,38429
 402,19; 8406,506;  255,354;23879,544;34,50341
 402,78; 8486,554;  248,375;23934,850;34,78010
 403,37; 8504,967;  226,902;23692,269;35,27780
 403,96; 8513,517;  235,287;23645,302;35,36192
 404,55; 8568,491;  243,033;23594,873;35,65226
 405,14; 8559,016;  222,417;23427,233;35,92616
 405,73; 8635,827;  229,780;23300,595;36,43585
 406,32; 8678,189;  257,813;23371,112;36,43087
 406,91; 8708,329;  238,582;23024,244;37,17139
 407,50; 8691,087;  242,278;22888,208;37,30829
 408,09; 8643,655;  216,364;22615,792;37,62279
 408,68; 8664,814;  242,712;22474,930;37,88242
 409,27; 8675,068;  233,872;22200,875;38,42671
 409,86; 8666,829;  234,205;22111,040;38,54591
 410,45; 8735,035;  256,274;22096,039;38,82258
 411,04; 8723,221;  270,846;21965,946;38,95983
 411,63; 8681,053;  256,439;21705,992;39,27641
 412,22; 8638,060;  260,398;21608,861;39,24246
 412,81; 8694,712;  282,552;21260,615;40,09979
 413,40; 8607,814;  282,965;21006,921;40,17017
 413,99; 8526,484;  333,579;20695,163;40,23707
 414,58; 8415,958;  232,836;20251,309;40,87785
 415,17; 8379,902;  246,678;20038,927;41,09297
 415,76; 8313,789;  240,645;19927,609;41,00756
 416,35; 8344,777;  235,036;19703,870;41,65499
 416,94; 8401,182;  268,277;19757,020;41,73130
 417,53; 8521,435;  252,805;19892,476;42,10167
 418,12; 8588,158;  250,688;19995,497;42,22614
 418,71; 8799,415;  272,216;20261,828;42,65815
 419,30; 8865,038;  251,691;20352,452;42,85085
 419,89; 9003,443;  246,072;20540,409;43,15179
 420,48; 9182,996;  266,342;20826,563;43,36847
 421,07; 9329,102;  277,348;20984,255;43,71369
 421,66; 9339,300;  238,366;20960,001;43,91996
 422,25; 9398,444;  256,774;20943,538;44,19091
 422,84; 9423,773;  272,406;21027,012;44,09318
 423,43; 9436,503;  256,016;20716,861;44,86856
 424,02; 9405,234;  282,898;20579,303;44,94558
 424,60; 9218,974;  234,188;20062,861;45,31209
 425,19; 9193,412;  264,292;19911,832;45,44650
 425,78; 9099,614;  270,169;19743,271;45,34175
 426,37; 9112,384;  283,559;19572,671;45,77103
 426,96; 9137,198;  256,809;19447,609;46,27420
 427,55; 9068,788;  263,207;19250,936;46,37512
 428,14; 9039,496;  242,217;19090,990;46,67296
 428,73; 8963,948;  249,573;18851,836;46,84578
 429,32; 9041,416;  274,682;18855,060;47,18275
 429,91; 9115,174;  288,824;18916,868;47,38205
 430,50; 9018,487;  294,336;18709,204;47,37558
 431,08; 8975,518;  274,847;18553,696;47,59966
 431,67; 8969,153;  314,108;18483,766;47,63461
 432,26; 8980,644;  342,868;18379,038;47,89141
 432,85; 8851,840;  357,365;18095,068;47,88938
 433,44; 8723,054;  361,880;17750,406;48,08443
 434,03; 8552,147;  376,151;17382,529;48,07606
 434,62; 8365,296;  342,256;16944,485;48,32508
 435,21; 8301,728;  357,867;16680,944;48,66644
 435,79; 8312,658;  356,268;16616,336;48,93208
 436,38; 8281,888;  350,913;16483,006;49,16271
 436,97; 8232,360;  330,166;16346,492;49,33837
 437,56; 8154,472;  349,822;16166,481;49,34449
 438,15; 8110,575;  325,064;16044,320;49,52850
 438,74; 8151,346;  349,317;16075,322;49,61228
 439,33; 8185,115;  322,438;16087,210;49,87499
 439,91; 8219,473;  265,326;16136,266;50,11768
 440,50; 8306,889;  317,078;16109,360;50,59314
 441,09; 8387,599;  314,470;16229,153;50,72755
 441,68; 8393,954;  303,863;16253,743;50,72195
 442,27; 8408,637;  292,105;16275,691;50,78042
 442,86; 8385,114;  257,518;16152,623;51,13270
 443,44; 8487,499;  262,636;16263,680;51,40204
 444,03; 8606,775;  347,769;16362,967;51,56981
 444,62; 8498,259;  278,144;16182,920;51,68331
 445,21; 8429,291;  282,889;16050,480;51,66548
 445,80; 8432,416;  312,660;16036,197;51,64078
 446,39; 8326,782;  354,157;15765,491;51,73222
 446,97; 8174,598;  291,430;15611,475;51,45656
 447,56; 8136,905;  291,073;15358,550;52,07131
 448,15; 8058,143;  287,680;15174,491;52,19696
 448,74; 7999,986;  286,557;15040,102;52,28187
 449,33; 7894,852;  282,070;14826,954;52,33993
 449,91; 7848,288;  276,215;14566,108;52,98901
 450,50; 7716,291;  287,961;14427,824;52,53467
 451,09; 7677,308;  298,589;14193,076;53,10537
 451,68; 7701,568;  320,097;14149,066;53,37687
 452,26; 7689,332;  309,106;14017,681;53,83657
 452,85; 7552,686;  288,225;13987,974;53,02623
 453,44; 7590,902;  297,503;14013,461;53,17455
 454,03; 7598,059;  280,237;13914,997;53,67034
 454,61; 7556,430;  289,755;13882,384;53,46041
 455,20; 7719,477;  313,514;13987,719;54,16010
 455,79; 7781,679;  308,248;14078,145;54,27369
 456,38; 7825,093;  308,279;14167,900;54,23535
 456,97; 7847,890;  288,399;14209,257;54,30334
 457,55; 7885,079;  297,161;14273,093;54,29275
 458,14; 7880,632;  307,771;14195,676;54,52846
 458,73; 7868,232;  301,913;14172,766;54,54834
 459,31; 7922,845;  323,054;14178,402;54,85096
 459,90; 7992,065;  344,795;14248,865;55,00023
 460,49; 8061,358;  404,665;14334,845;54,96478
 461,08; 8102,948;  311,063;14444,173;55,13213
 461,66; 8103,059;  320,429;14444,308;55,10264
 462,25; 8159,889;  312,320;14537,975;55,16490
 462,84; 8182,101;  329,065;14570,096;55,14374
 463,43; 8190,623;  274,464;14561,940;55,40628
 464,01; 8132,802;  297,097;14613,821;54,73114
 464,60; 8184,924;  359,207;14512,842;55,29122
 465,19; 8036,695;  288,727;14332,402;55,17052
 465,77; 8090,834;  308,486;14315,017;55,56228
 466,36; 8097,264;  333,714;14285,487;55,64562
 466,95; 7866,841;  308,216;13913,176;55,55787
 467,53; 7775,965;  316,871;13665,961;55,87717
 468,12; 7607,623;  332,373;13367,635;55,81207
 468,71; 7500,131;  309,854;13223,294;55,68057
 469,29; 7364,983;  277,376;13006,918;55,67841
 469,88; 7175,408;  297,008;12660,048;55,63680
 470,47; 7318,996;  375,773;12760,011;56,06500
 471,06; 7224,799;  324,899;12680,902;55,84249
 471,64; 7303,612;  320,895;12804,681;55,93429
 472,23; 7278,962;  286,051;12818,998;55,79622
 472,81; 7302,269;  283,911;12907,957;55,59516
 473,40; 7388,591;  303,926;13001,248;55,79653
 473,99; 7566,623;  413,676;13166,467;56,08927
 474,57; 7577,539;  309,550;13320,982;55,85848
 475,16; 7652,447;  326,539;13412,428;55,98327
 475,75; 7795,977;  349,437;13589,443;56,24272
 476,33; 7824,060;  357,199;13667,076;56,10015
 476,92; 7863,172;  333,929;13724,063;56,22978
 477,51; 7931,523;  327,319;13845,573;56,25138
 478,09; 7901,587;  340,694;13816,135;56,10869
 478,68; 7929,104;  333,574;13780,717;56,48434
 479,27; 7962,888;  370,188;13760,162;56,70437
 479,85; 7905,693;  328,698;13804,747;56,22564
 480,44; 7904,077;  320,329;13836,908;56,10701
 481,02; 8623,931;  346,340;14914,759;56,81873
 481,61; 9738,196;  357,585;16907,396;56,68107
 482,20;10448,136;  346,965;18201,368;56,57524
 482,78;10919,843;  376,077;19038,500;56,49731
 483,37;11132,576;  370,107;19381,863;56,60955
 483,95;11371,879;  398,485;19756,959;56,68522
 484,54;11515,417;  428,583;19988,598;56,68111
 485,13;11473,596;  377,749;19995,218;56,56105
 485,71;11506,079;  345,244;19951,012;56,92628
 486,30;11348,518;  382,744;19788,200;56,50872
 486,88;11231,652;  453,623;19491,530;56,61352
 487,47;10874,661;  409,626;18867,986;56,69537
 488,05;10451,812;  400,632;18064,443;56,90267
 488,64; 9683,927;  403,270;16903,545;56,24547
 489,23; 8783,631;  415,886;15314,211;56,16568
 489,81; 7468,297;  421,639;12926,135;56,35299
 490,40; 6846,596;  356,392;12031,856;55,58841
 490,98; 6744,476;  339,272;11776,391;56,00365
 491,57; 6669,986;  385,387;11614,493;55,96705
 492,15; 6590,429;  355,150;11562,205;55,63709
 492,74; 6553,179;  364,758;11436,022;55,89624
 493,32; 6496,000;  377,771;11409,484;55,46037
 493,91; 6385,486;  340,906;11192,881;55,70028
 494,50; 6404,979;  367,678;11201,801;55,72487
 495,08; 6358,253;  337,427;11120,269;55,83710
 495,67; 6350,083;  366,279;11144,207;55,51905
 496,25; 6294,965;  326,042;11037,356;55,72540
 496,84; 6222,123;  300,028;11007,347;55,30885
 497,42; 6260,010;  308,296;10951,656;55,91950
 498,01; 6220,345;  340,656;10814,334;56,13777
 498,59; 6161,289;  299,548;10805,579;55,79405
 499,18; 6130,027;  290,157;10818,225;55,46953
 499,76; 6104,420;  329,917;10765,591;55,33426
 500,35; 5990,908;  320,184;10568,477;55,33335
 500,93; 5954,582;  310,670;10459,765;55,61001
 501,52; 5872,708;  304,172;10379,345;55,26988
 502,10; 5878,531;  334,067;10338,046;55,42259
 502,69; 5818,646;  303,325;10244,863;55,47754
 503,27; 5683,657;  277,429;10056,693;55,28257
 503,86; 5682,827;  315,697; 9985,220;55,50563
 504,44; 5550,627;  284,079; 9831,850;55,15997
 505,03; 5481,518;  263,829; 9704,772;55,26660
 505,61; 5427,981;  290,826; 9526,723;55,62161
 506,19; 5314,748;  302,954; 9396,350;55,11465
 506,78; 5190,578;  266,095; 9180,267;55,24330
 507,36; 5081,009;  291,203; 9002,521;54,98371
 507,95; 5039,971;  297,727; 8892,803;55,17396
 508,53; 4972,481;  297,470; 8765,611;55,20706
 509,12; 4897,688;  285,225; 8578,505;55,61688
 509,70; 4789,745;  314,479; 8487,226;54,75841
 510,29; 4746,675;  314,612; 8355,106;55,12177
 510,87; 4579,574;  285,970; 8190,267;54,31987
 511,46; 4502,175;  282,098; 8048,253;54,33934
 512,04; 4440,593;  286,732; 7882,212;54,68859
 512,62; 4316,490;  288,848; 7717,816;54,21536
 513,21; 4266,852;  274,738; 7582,122;54,63124
 513,79; 4126,600;  281,638; 7431,498;53,77674
 514,38; 4015,291;  265,379; 7294,118;53,35114
 514,96; 4004,594;  313,253; 7226,429;53,39573
 515,54; 3884,490;  255,008; 7052,386;53,39532
 516,13; 3870,486;  295,635; 6927,215;53,90648
 516,71; 3785,666;  294,770; 6855,050;53,21261
 517,30; 3671,322;  263,404; 6686,588;53,05652
 517,88; 3657,551;  285,779; 6603,415;53,37079
 518,46; 3532,270;  265,533; 6560,106;51,89767
 519,05; 3545,788;  279,790; 6476,267;52,70733
 519,63; 3536,747;  280,912; 6432,468;52,92702
 520,22; 3468,101;  296,052; 6354,103;52,36088
 520,80; 3393,533;  280,679; 6277,119;51,91170
 521,38; 3450,079;  328,542; 6297,612;52,29519
 521,97; 3390,926;  261,436; 6190,530;52,78192
 522,55; 3373,752;  286,436; 6155,015;52,60757
 523,13; 3361,822;  266,566; 6130,737;52,78250
 523,72; 3337,875;  287,158; 6116,809;52,33104
 524,30; 3398,727;  305,823; 6299,945;51,59895
 524,89; 3344,107;  263,062; 6203,922;51,86194
 525,47; 3424,889;  295,076; 6358,119;51,62116
 526,05; 3417,276;  256,328; 6436,745;51,14458
 526,64; 3504,088;  297,832; 6495,342;51,73458
 527,22; 3551,808;  287,701; 6633,759;51,43519
 527,80; 3627,519;  318,207; 6738,904;51,54133
 528,39; 3678,496;  274,837; 6806,970;52,10640
 528,97; 3700,209;  289,959; 6967,921;51,06723
 529,55; 3807,354;  305,191; 7123,331;51,36537
 530,14; 3864,852;  313,842; 7300,957;50,82227
 530,72; 3906,399;  276,835; 7352,984;51,29293
 531,30; 3945,659;  268,468; 7502,724;50,83026
 531,89; 4025,127;  297,843; 7657,380;50,64563
 532,47; 4039,059;  313,597; 7725,476;50,26340
 533,05; 4077,205;  313,706; 7800,966;50,26536
 533,63; 4064,245;  311,599; 7804,743;50,08106
 534,22; 4077,543;  281,099; 7847,009;50,17829
 534,80; 4133,804;  318,360; 7965,454;49,89404
 535,38; 4192,889;  425,720; 8115,506;48,98926
 535,97; 4070,031;  304,972; 7977,633;49,07110
 536,55; 4198,502;  362,236; 8131,767;49,37577
 537,13; 4107,215;  378,092; 8036,911;48,69058
 537,71; 4107,158;  404,466; 8143,519;47,84426
 538,30; 4077,492;  424,103; 8166,402;47,18739
 538,88; 4133,839;  471,495; 8289,991;46,84205
 539,46; 4270,256;  537,235; 8454,563;47,15001
 540,05; 4249,813;  563,616; 8615,864;45,77849
 540,63; 4354,176;  596,116; 8770,817;45,97184
 541,21; 4405,440;  638,248; 8968,978;45,22043
 541,79; 4444,158;  673,498; 9084,509;44,83004
 542,38; 4534,757;  707,239; 9211,972;45,00456
 542,96; 4566,390;  717,507; 9311,156;44,78753
 543,54; 4644,899;  747,622; 9565,883;44,19553
 544,12; 4696,203;  726,250; 9690,479;44,28660
 544,70; 4702,583;  719,758; 9753,094;44,09031
 545,29; 4764,712;  728,740; 9937,957;43,82536
 545,87; 4778,783;  704,248; 9907,884;44,27093
 546,45; 4810,986;  648,489; 9982,925;44,59292
 547,03; 4878,790;  627,744; 9984,476;45,43302
 547,62; 4853,166;  590,124;10144,885;44,61694
 548,20; 4928,849;  585,130;10281,061;44,79940
 548,78; 4925,326;  549,902;10371,935;44,54703
 549,36; 5007,874;  503,900;10518,496;44,97409
 549,94; 5043,780;  464,127;10695,293;44,76179
 550,53; 5146,240;  470,272;10949,291;44,62220
 551,11; 5203,589;  429,407;11111,766;44,69221
 551,69; 5300,995;  438,650;11318,121;44,69284
 552,27; 5381,848;  390,517;11540,959;44,76352
 552,85; 5514,149;  399,531;11899,703;44,47428
 553,44; 5639,539;  383,149;12187,511;44,52922
 554,02; 5795,173;  393,778;12478,217;44,69711
 554,60; 5872,755;  349,408;12728,486;44,61840
 555,18; 6056,467;  372,900;13172,652;44,40372
 555,76; 6139,439;  358,778;13430,139;44,22387
 556,34; 6284,357;  359,166;13811,757;44,04498
 556,93; 6517,378;  350,776;14137,372;44,72897
 557,51; 6512,954;  332,292;14452,538;43,77163
 558,09; 6739,330;  363,401;14812,856;44,12574
 558,67; 6839,875;  346,798;15241,668;43,59271
 559,25; 6913,411;  357,794;15505,728;43,27730
 559,83; 7021,147;  341,054;15755,875;43,33552
 560,41; 7114,151;  345,913;16080,442;43,01519
 561,00; 7253,533;  346,174;16489,387;42,78801
 561,58; 7315,240;  324,413;16563,348;43,04979
 562,16; 7418,387;  328,032;16965,407;42,61703
 562,74; 7480,221;  308,528;17315,357;42,16949
 563,32; 7624,082;  312,179;17792,312;41,82979
 563,90; 7762,016;  341,299;18130,965;41,71364
 564,48; 7881,695;  338,536;18405,628;41,75082
 565,06; 8037,476;  338,547;18995,620;41,26547
 565,65; 8264,827;  348,689;19649,585;41,01435
 566,23; 8548,081;  381,049;20276,653;41,04943
 566,81; 8730,221;  339,794;20980,165;40,65056
 567,39; 9016,555;  346,431;21802,173;40,40934
 567,97; 9287,625;  365,796;22458,963;40,38275
 568,55; 9531,578;  382,553;23170,687;40,14820
 569,13; 9741,678;  351,799;23945,059;39,79899
 569,71;10042,823;  345,406;24839,719;39,59048
 570,29;10418,922;  387,525;25783,512;39,49993
 570,87;10570,887;  390,279;26499,577;38,99227
 571,45;10848,496;  370,548;27199,667;39,05439
 572,03;10907,914;  328,059;27581,581;38,82014
 572,61;11143,622;  329,428;28315,077;38,64193
 573,20;11353,958;  358,167;28930,414;38,48417
 573,78;11533,223;  342,179;29614,609;38,23066
 574,36;11691,876;  374,176;30059,123;38,12606
 574,94;11807,898;  435,436;30397,989;37,95559
 575,52;11757,446;  358,700;30702,232;37,56565
 576,10;11955,033;  416,319;31146,854;37,54804
 576,68;12091,865;  422,059;31712,815;37,29474
 577,26;12301,298;  427,581;32376,674;37,16449
 577,84;12435,086;  429,427;32885,858;36,99008
 578,42;12492,565;  479,190;33224,038;36,68783
 579,00;12331,114;  421,804;33286,031;36,23791
 579,58;12476,229;  477,311;33485,098;36,35178
 580,16;12264,126;  442,817;33572,180;35,68227
 580,74;12321,852;  439,068;33815,712;35,60209
 581,32;12278,209;  446,813;33925,381;35,34021
 581,90;12100,545;  484,942;33772,821;34,89439
 582,48;12114,517;  455,692;34078,727;34,67511
 583,06;12078,592;  470,812;34136,677;34,47938
 583,64;12041,116;  463,311;34176,270;34,34230
 584,22;11926,261;  474,453;34015,625;34,14254
 584,80;11700,661;  478,065;33754,570;33,72529
 585,38;11508,337;  486,665;33279,584;33,60991
 585,96;11447,550;  456,431;33481,673;33,28097
 586,54;11442,369;  487,700;33365,748;33,31910
 587,12;11405,570;  441,070;33459,448;33,20726
 587,70;11341,651;  473,557;33665,580;32,74309
 588,28;11351,380;  449,070;33657,010;32,83043
 588,86;11263,978;  475,698;33793,747;32,37969
 589,44;11170,529;  449,212;33780,866;32,16557
 590,02;11169,363;  436,209;33938,066;32,03749
 590,59;11164,414;  413,200;34142,639;31,87487
 591,17;11175,456;  408,727;34231,235;31,83303
 591,75;11076,458;  402,843;34401,041;31,39465
 592,33;11105,477;  416,964;34731,804;31,14837
 592,91;11106,197;  360,223;34864,529;31,14386
 593,49;11135,776;  386,605;35125,628;30,94264
 594,07;11152,070;  388,605;35363,643;30,77471
 594,65;11124,019;  423,702;35375,546;30,61446
 595,23;11151,750;  392,208;35751,738;30,42897
 595,81;11061,743;  389,587;35894,271;30,05845
 596,39;11014,312;  383,463;35994,710;29,85250
 596,97;10961,040;  375,598;36123,435;29,61142
 597,55;10934,387;  370,580;36069,705;29,59122
 598,12;10820,768;  360,734;36055,036;29,30449
 598,70;10814,480;  361,601;36142,328;29,21371
 599,28;10734,279;  393,476;36444,469;28,68382
 599,86;10661,944;  378,475;36402,234;28,54635
 600,44;10570,126;  334,229;36487,830;28,31225
 601,02;10566,445;  384,246;36648,951;28,07743
 601,60;10451,914;  380,468;36582,401;27,82019
 602,18;10438,075;  346,733;36604,973;27,83186
 602,75;10295,517;  344,461;36626,614;27,42686
 603,33;10312,436;  362,351;36609,312;27,45081
 603,91;10220,370;  347,865;36622,603;27,21593
 604,49;10129,956;  383,477;36695,110;26,84120
 605,07;10110,269;  397,093;36834,104;26,65744
 605,65;10052,840;  388,856;36923,315;26,45170
 606,23;10021,558;  445,573;37038,731;26,16879
 606,80; 9919,110;  499,710;37022,146;25,79072
 607,38; 9811,652;  545,862;37053,242;25,38059
 607,96; 9799,904;  607,210;37195,161;25,12492
 608,54; 9715,058;  669,605;37350,221;24,66003
 609,12; 9611,158;  661,336;37309,161;24,42116
 609,70; 9579,190;  722,224;37295,108;24,21730
 610,27; 9556,738;  714,834;37473,066;24,05422
 610,85; 9479,903;  760,849;37533,264;23,71086
 611,43; 9385,714;  751,601;37429,156;23,54059
 612,01; 9242,571;  716,966;37144,540;23,40426
 612,59; 9170,048;  713,849;37295,061;23,11624
 613,16; 9108,043;  676,703;37314,344;23,01278
 613,74; 8950,234;  653,851;37175,453;22,71637
 614,32; 8940,312;  615,106;37026,097;22,86454
 614,90; 8836,551;  581,595;36935,027;22,70750
 615,48; 8710,778;  494,330;36654,377;22,72245
 616,05; 8642,313;  471,701;36613,561;22,60706
 616,63; 8594,474;  471,947;36359,746;22,63311
 617,21; 8491,472;  471,834;36383,894;22,33132
 617,79; 8391,501;  458,838;36259,022;22,15816
 618,36; 8348,736;  440,343;36144,135;22,15001
 618,94; 8180,927;  387,457;35876,299;21,96034
 619,52; 8048,563;  415,699;35566,982;21,71432
 620,10; 7932,864;  393,586;35629,396;21,39664
 620,67; 7908,022;  398,447;35486,387;21,40215
 621,25; 7817,023;  426,468;35403,729;21,12960
 621,83; 7754,193;  396,082;35331,721;21,06191
 622,41; 7700,907;  440,581;35280,127;20,83932
 622,98; 7574,018;  406,822;35033,387;20,69855
 623,56; 7508,396;  418,570;35033,557;20,48196
 624,14; 7364,846;  379,472;34936,997;20,21376
 624,72; 7394,504;  394,456;34824,408;20,33127
 625,29; 7319,195;  367,070;34886,698;20,13963
 625,87; 7279,534;  410,463;34778,241;19,98695
 626,45; 7119,912;  364,193;34685,149;19,68395
 627,02; 7077,244;  374,839;34605,976;19,57985
 627,60; 7037,795;  379,729;34617,220;19,44671
 628,18; 6966,158;  355,336;34654,286;19,27412
 628,76; 6881,244;  343,198;34653,544;19,05561
 629,33; 6909,092;  373,703;34701,610;19,03812
 629,91; 6798,239;  371,586;34558,146;18,79877
 630,49; 6822,107;  382,451;34914,577;18,64831
 631,06; 6771,986;  355,949;34980,122;18,53051
 631,64; 6738,763;  357,194;34895,556;18,47676
 632,22; 6633,725;  331,938;34792,053;18,28719
 632,79; 6610,524;  351,063;35025,444;18,05212
 633,37; 6589,168;  332,842;35120,447;17,98435
 633,95; 6549,674;  345,317;35074,571;17,86493
 634,52; 6477,173;  327,581;35248,299;17,61015
 635,10; 6523,823;  330,460;35270,176;17,72586
 635,68; 6436,742;  336,938;35441,350;17,37617
 636,25; 6418,139;  319,055;35504,954;17,33389
 636,83; 6345,994;  305,948;35652,044;17,08830
 637,41; 6380,507;  315,436;35622,192;17,17822
 637,98; 6368,813;  361,810;35861,629;16,92122
 638,56; 6325,058;  331,802;35973,764;16,81517
 639,13; 6294,372;  317,571;36034,339;16,73388
 639,71; 6331,192;  376,824;36296,982;16,57667
 640,29; 6152,078;  282,574;35962,890;16,45026
 640,86; 6128,922;  311,450;36195,663;16,21179
 641,44; 6096,641;  302,450;36241,561;16,12224
 642,02; 6054,985;  338,576;36201,334;15,93968
 642,59; 6033,454;  303,826;36284,607;15,92413
 643,17; 5973,798;  319,827;36176,005;15,76847
 643,74; 5955,892;  309,577;36347,028;15,66791
 644,32; 5928,111;  329,453;36387,676;15,52672
 644,89; 5914,330;  329,828;36319,199;15,51709
 645,47; 5883,674;  342,454;36372,847;15,37929
 646,05; 5891,893;  331,454;36411,370;15,41145
 646,62; 5758,236;  307,204;36262,768;15,16047
 647,20; 5801,455;  325,830;36468,666;15,14996
 647,77; 5745,924;  296,455;36304,939;15,13385
 648,35; 5641,018;  304,456;36268,587;14,83857
 648,92; 5666,362;  315,331;36217,360;14,90454
 649,50; 5570,456;  284,582;36169,008;14,73027
 650,08; 5482,675;  285,832;36112,281;14,50560
 650,65; 5508,644;  302,333;36239,929;14,48709
 651,23; 5552,238;  278,958;36970,327;14,37199
 651,80; 5688,957;  278,708;37957,850;14,35874
 652,38; 5692,426;  304,584;38374,498;14,15249
 652,95; 5686,020;  277,834;38641,521;14,09715
 653,53; 5721,739;  295,710;38882,170;14,06200
 654,10; 5725,083;  342,210;39053,943;13,90502
 654,68; 5620,802;  284,086;38960,341;13,79843
 655,25; 5639,521;  276,711;39143,614;13,79788
 655,83; 5646,490;  288,212;39261,137;13,74872
 656,40; 5599,084;  324,337;39267,910;13,54459
 656,98; 5585,928;  290,712;39148,058;13,62732
 657,55; 5578,896;  292,088;39112,456;13,61865
 658,13; 5480,740;  300,213;38755,104;13,47170
 658,70; 5474,084;  314,089;38556,002;13,49304
 659,28; 5329,053;  283,714;37828,150;13,43831
 659,85; 5153,522;  319,465;36876,423;13,22336
 660,43; 5084,116;  322,840;36708,946;13,08542
 661,00; 5097,710;  295,591;36919,219;13,11208
 661,58; 5085,929;  293,341;37144,867;13,00513
 662,15; 5093,648;  284,717;37388,265;12,96084
 662,73; 5222,117;  356,717;37639,163;13,05011
 663,30; 5150,336;  299,592;37789,561;12,93878
 663,88; 5084,180;  307,718;38084,084;12,64405
 664,45; 5130,774;  284,218;38152,357;12,79850
 665,03; 5163,118;  298,844;38451,130;12,74963
 665,60; 5268,962;  388,719;39013,028;12,63516
 666,17; 5185,806;  311,095;39130,926;12,55727
 666,75; 5237,275;  289,720;39459,324;12,63111
 667,32; 5277,994;  319,346;39813,972;12,55525
 667,90; 5251,088;  301,596;40034,120;12,45703
 668,47; 5281,306;  313,846;40248,143;12,43908
 669,05; 5290,775;  302,847;40510,791;12,40533
 669,62; 5267,744;  287,597;40722,939;12,31632
 670,19; 5256,588;  281,223;40771,337;12,28785
 670,77; 5253,682;  282,473;40940,485;12,22689
 671,34; 5277,526;  288,224;40983,508;12,26015
 671,92; 5261,120;  273,474;41294,781;12,15867
 672,49; 5309,089;  308,850;41326,179;12,19055
 673,06; 5269,683;  252,350;41468,328;12,17327
 673,64; 5240,902;  271,976;41274,726;12,11852
 674,21; 5232,496;  277,976;41357,624;12,06077
 674,79; 5289,465;  307,976;41600,522;12,06389
 675,36; 5332,934;  307,727;41499,170;12,19964
 675,93; 5252,028;  271,102;41467,693;12,09063
 676,51; 5243,497;  301,853;41709,091;11,93425
 677,08; 5233,466;  292,103;41779,989;11,91037
 677,65; 5232,185;  285,854;41793,387;11,91671
 678,23; 5261,029;  293,854;42134,535;11,87164
 678,80; 5259,373;  281,480;42126,683;11,89597
 679,38; 5276,591;  299,230;42362,331;11,83308
 679,95; 5342,310;  309,230;42702,104;11,87247
 680,52; 5349,904;  286,356;42746,627;11,92538
 681,10; 5343,748;  310,231;43211,025;11,73292
 681,67; 5393,592;  301,607;43432,548;11,80588
 682,24; 5422,061;  260,607;43560,321;11,92030
 682,82; 5439,030;  275,733;43975,219;11,81546
 683,39; 5555,249;  342,233;44347,742;11,84628
 683,96; 5545,718;  287,984;44715,140;11,83451
 684,54; 5589,562;  265,109;44974,288;11,90908
 685,11; 5643,031;  345,734;45251,311;11,79652
 685,68; 5704,125;  289,485;45694,459;11,92521
 686,25; 5676,594;  268,610;45801,107;11,87720
 686,83; 5663,313;  268,986;46040,130;11,78543
 687,40; 5750,282;  271,486;46368,403;11,88538
 687,97; 5866,876;  320,112;46800,426;11,93358
 688,55; 5838,720;  261,987;46780,324;11,98825
 689,12; 5848,064;  252,738;47106,097;11,94221
 689,69; 5873,908;  251,988;47276,120;11,95539
 690,26; 5895,876;  284,114;47282,268;11,94039
 690,84; 5901,095;  280,864;47466,291;11,91095
 691,41; 5929,814;  292,989;47543,814;11,92958
 691,98; 6016,408;  290,990;47849,338;12,03872
 692,56; 5972,377;  283,490;47992,486;11,92414
 693,13; 6099,221;  333,741;47930,634;12,11314
 693,70; 6069,690;  296,616;48156,157;12,06254
 694,27; 6051,659;  277,492;48320,430;12,01876
 694,84; 6043,878;  274,617;48283,453;12,01708
 695,42; 6106,597;  334,368;48461,226;11,99378
 695,99; 6161,816;  295,243;48699,999;12,11983
 696,56; 6121,160;  299,993;48540,897;12,06687
 697,13; 6210,379;  302,744;48925,920;12,14983
 697,71; 6192,473;  269,119;48999,193;12,15544
 698,28; 6273,192;  283,370;49405,966;12,19362
 698,85; 6272,661;  249,370;49296,989;12,28050
 699,42; 6285,755;  253,621;49625,012;12,21787
 699,99; 6379,224;  312,621;49631,660;12,30073
 700,57; 6374,443;  289,622;49586,808;12,34314
 701,14; 6414,161;  277,122;49828,706;12,38515
 701,71; 6462,130;  306,372;50106,229;12,36100
 702,28; 6564,224;  288,998;50036,502;12,61415
 702,85; 6512,693;  293,748;50162,275;12,47068
 703,43; 6609,662;  316,749;50517,548;12,53548
 704,00; 6662,381;  329,124;50576,571;12,60414
 704,57; 6653,100;  294,000;50587,469;12,64399
 705,14; 6733,944;  317,750;50860,617;12,69456
 705,71; 6758,163;  335,126;50856,015;12,71363
 706,28; 6738,382;  293,751;50807,788;12,75810
 706,86; 6856,976;  335,627;51117,436;12,84190
 707,43; 6872,445;  356,002;51008,084;12,86510
 708,00; 6862,289;  347,377;51065,857;12,84524
 708,57; 6872,883;  316,378;50978,380;12,94166
 709,14; 6903,102;  321,753;51090,278;12,96344
 709,71; 6923,696;  311,754;51182,301;12,99758
 710,28; 7050,165;  300,254;51321,824;13,22952
 710,86; 7043,134;  324,255;51582,972;13,10778
 711,43; 7093,228;  344,755;51464,246;13,20137
 712,00; 7087,571;  306,631;51554,269;13,23171
 712,57; 7148,165;  318,881;51784,167;13,26969
 713,14; 7190,759;  310,381;51844,315;13,35116
 713,71; 7254,478;  316,382;51749,463;13,48956
 714,28; 7327,072;  308,132;51931,111;13,59654
 714,85; 7284,541;  286,008;51683,759;13,61642
 715,42; 7388,385;  295,758;51733,157;13,78885
 716,00; 7425,979;  360,259;51956,430;13,69427
 716,57; 7462,698;  276,259;52042,203;13,88256
 717,14; 7422,542;  291,885;52019,101;13,78512
 717,71; 7487,261;  274,885;52054,749;13,92892
 718,28; 7569,105;  321,636;52231,647;13,96160
 718,85; 7565,949;  273,136;52118,545;14,06646
 719,42; 7684,543;  296,261;52376,568;14,18632
 719,99; 7603,387;  263,762;52071,091;14,16716
 720,56; 7779,856;  295,762;52425,364;14,35671
 721,13; 7761,450;  277,638;52591,262;14,30567
 721,70; 7768,794;  285,388;52369,535;14,36791
 722,27; 7888,388;  299,264;52396,308;14,56728
 722,84; 7934,106;  368,264;52681,081;14,46269
 723,41; 7922,950;  279,140;52583,854;14,61400
 723,98; 8028,294;  282,890;52802,377;14,74768
 724,55; 8070,013;  305,265;52910,900;14,76030
 725,12; 8068,982;  246,516;52940,923;14,84497
 725,69; 8133,576;  283,766;53179,571;14,84014
 726,27; 8171,295;  298,642;53126,469;14,90247
 726,84; 8328,389;  293,642;53352,242;15,14316
 727,41; 8364,608;  306,768;53391,515;15,17920
 727,98; 8429,827;  296,518;53660,038;15,24133
 728,55; 8508,671;  334,519;53580,186;15,35177
 729,12; 8489,015;  275,394;53601,084;15,40275
 729,69; 8555,109;  310,269;53876,107;15,39197
 730,26; 8661,828;  302,770;54065,006;15,54820
 730,82; 8626,047;  288,520;54019,904;15,51705
 731,39; 8724,141;  302,146;54016,427;15,67925
 731,96; 8788,110;  279,021;54388,575;15,72567
 732,53; 8830,954;  308,022;54627,473;15,69039
 733,10; 8932,423;  309,522;54698,121;15,85424
 733,67; 8999,766;  314,273;54980,519;15,88822
 734,24; 8968,110;  288,773;54620,042;15,97485
 734,81; 9067,329;  327,149;54793,065;16,04706
 735,38; 8995,298;  301,274;54538,713;16,02956
 735,95; 9074,392;  285,899;54446,986;16,22658
 736,52; 9161,736;  305,275;54654,509;16,29547
 737,09; 9130,080;  316,650;54377,032;16,30294
 737,66; 9254,299;  371,526;54601,805;16,37973
 738,23; 9251,393;  307,776;54618,953;16,46736
 738,80; 9417,487;  365,527;54814,351;16,62471
 739,37; 9403,206;  337,277;55003,124;16,58426
 739,94; 9499,675;  303,403;55125,022;16,77490
 740,51; 9642,769;  426,778;55155,170;16,83951
 741,07; 9558,363;  298,028;55179,818;16,87324
 741,64; 9674,582;  355,029;55282,966;16,96687
 742,21; 9755,301;  310,904;55248,489;17,19114
 742,78; 9744,020;  289,405;55257,012;17,20034
 743,35; 9847,239;  295,030;55337,035;17,35440
 743,92; 9996,583;  347,531;55591,308;17,46631
 744,49;10108,926;  334,906;55353,331;17,76499
 745,06;10074,645;  303,407;55281,354;17,77301
 745,63;10152,114;  288,782;55351,752;17,91282
 746,19;10176,833;  303,658;55344,775;17,93782
 746,76;10203,177;  300,408;55377,923;17,97970
 747,33;10253,271;  300,783;55335,571;18,08399
 747,90;10338,240;  329,909;55570,344;18,11776
 748,47;10357,334;  315,034;55503,617;18,19634
 749,04;10391,553;  313,535;55530,640;18,25162
 749,61;10427,772;  336,535;55599,789;18,26030
 750,17;10490,741;  349,536;55701,812;18,32121
 750,74;10569,585;  319,911;55566,710;18,55252
 751,31;10592,179;  291,787;55396,858;18,69228
 751,88;10651,773;  293,662;55242,881;18,85033
 752,45;10703,492;  294,037;55405,654;18,88795
 753,02;10741,836;  329,663;55378,177;18,91454
 753,58;10763,055;  303,413;55347,575;19,00227
 754,15;10799,149;  307,539;55378,848;19,05095
 754,72;10920,118;  305,039;55070,746;19,38271
 755,29;10886,336;  284,790;54946,644;19,39478
 755,86;10943,180;  287,665;55141,042;19,42545
 756,42;11084,399;  318,041;55009,065;19,68579
 756,99;11022,118;  274,916;55078,588;19,61037
 757,56;11127,212;  279,541;54976,861;19,83218
 758,13;11198,181;  217,417;54791,509;20,12084
 758,70;11299,150;  258,917;54846,032;20,22498
 759,26;11365,119;  270,918;54975,680;20,28014
 759,83;11457,588;  277,168;55085,203;20,39923
 760,40;11523,682;  257,919;55051,726;20,56029
 760,97;11502,276;  237,044;55103,374;20,53214
 761,53;11536,995;  233,170;54726,272;20,74359
 762,10;11530,589;  222,795;54644,420;20,77813
 762,67;11625,808;  264,421;54679,193;20,87923
 763,24;11549,027;  218,296;54202,341;20,98904
 763,80;11692,996;  253,171;54363,364;21,14172
 764,37;11716,215;  257,797;54371,387;21,17475
 764,94;11678,184;  234,547;53955,285;21,30208
 765,50;11743,278;  239,048;53921,933;21,42998
 766,07;11894,496;  280,423;54013,831;21,61425
 766,64;11808,715;  267,424;53652,354;21,61901
 767,21;11859,184;  270,549;53620,252;21,72202
 767,77;11891,528;  286,050;53446,525;21,83103
 768,34;11960,872;  289,050;53410,424;21,97199
 768,91;12002,216;  301,925;53276,072;22,08679
 769,47;12050,310;  295,301;53384,470;22,14201
 770,04;12113,404;  295,801;53232,368;22,32408
 770,61;12091,998;  272,302;52951,266;22,43722
 771,18;12146,592;  266,927;52910,789;22,56610
 771,74;12255,311;  290,053;53126,187;22,64598
 772,31;12265,905;  287,428;52743,085;22,83543
 772,88;12274,124;  247,679;52519,358;23,00757
 773,44;12223,343;  271,804;52427,381;22,91517
 774,01;12293,687;  285,429;52609,029;22,94998
 774,58;12330,531;  274,555;52070,177;23,27605
 775,14;12344,500;  257,555;52260,325;23,24289
 775,71;12416,094;  272,056;52224,098;23,37548
 776,27;12561,313;  320,056;52094,996;23,64321
 776,84;12565,906;  363,807;52179,269;23,54915
 777,41;12584,500;  294,682;51862,792;23,83221
 777,97;12514,969;  277,558;51629,940;23,83027
 778,54;12572,313;  283,808;51722,338;23,88969
 779,11;12650,157;  318,309;51829,486;23,94014
 779,67;12689,126;  289,934;51613,759;24,15875
 780,24;12719,845;  295,309;51413,157;24,30567
 780,80;12752,314;  296,810;51356,055;24,39422
 781,37;12835,783;  289,310;51356,328;24,56864
 781,94;12853,877;  293,186;51175,226;24,68590
 782,50;12879,721;  292,436;51084,749;24,78187
 783,07;13038,565;  311,312;51102,772;25,05786
 783,63;13045,409;  288,062;51079,170;25,11728
 784,20;13056,128;  287,188;50844,943;25,25615
 784,77;13071,222;  288,813;50769,216;25,32153
 785,33;13142,191;  264,938;50504,239;25,63183
 785,90;13155,285;  284,689;50605,637;25,57701
 786,46;13206,879;  303,439;50423,660;25,74498
 787,03;13267,848;  280,565;50221,558;26,00525
 787,59;13240,191;  284,190;50098,707;26,00849
 788,16;13353,535;  294,816;50187,355;26,17369
 788,73;13329,504;  303,941;50058,128;26,17983
 789,29;13230,223;  276,192;49704,276;26,20784
 789,86;13405,067;  308,567;49612,299;26,56290
 790,42;13402,661;  285,943;49536,822;26,63246
 790,99;13382,005;  310,443;49118,720;26,78145
 791,55;13376,599;  282,318;49117,368;26,81328
 792,12;13491,193;  324,819;49157,266;26,96235
 792,68;13410,412;  297,694;48807,289;27,03118
 793,25;13422,381;  285,445;48599,812;27,19054
 793,81;13357,975;  368,070;48284,085;27,10974
 794,38;13263,694;  254,571;48050,608;27,21800
 794,94;13341,913;  274,571;47933,756;27,41831
 795,51;13255,132;  284,947;47759,529;27,32027
 796,07;13324,726;  285,572;47600,302;27,55834
 796,64;13343,945;  294,447;47582,575;27,59572
 797,20;13254,039;  295,448;47264,598;27,58958
 797,77;13223,508;  253,073;46810,996;27,85870
 798,33;13213,226;  293,449;46616,144;27,89082
 798,90;13336,320;  299,824;46613,667;28,14816
 799,46;13196,164;  276,575;46204,065;28,13041
 800,03;13219,258;  285,450;46082,838;28,24137
 800,59;13200,102;  303,076;45922,986;28,27061
 801,15;13237,196;  307,326;45651,884;28,51471
 801,72;13214,415;  290,951;45333,157;28,69190
 802,28;13087,009;  319,702;45032,805;28,55384
 802,85;13186,478;  296,452;44956,578;28,86249
 803,41;13166,197;  277,703;44739,351;28,98789
 803,98;13099,041;  284,953;44325,249;29,09628
 804,54;13174,885;  278,579;44070,647;29,44895
 805,11;13069,104;  297,454;43951,795;29,25631
 805,67;13150,823;  308,830;43792,443;29,53295
 806,23;13055,167;  306,705;43382,592;29,59536
 806,80;13115,511;  317,331;43176,615;29,86093
 807,36;13162,355;  305,331;43235,263;29,94886
 807,93;13201,824;  322,581;42844,536;30,28845
 808,49;13045,043;  274,957;42587,809;30,18016
 809,05;13079,886;  266,582;42414,707;30,40065
 809,62;13066,855;  292,958;42395,230;30,34016
 810,18;13062,574;  286,458;42319,878;30,39514
 810,74;13053,418;  260,459;42027,276;30,62948
 811,31;13021,012;  251,834;41764,049;30,76005
 811,87;13061,731;  287,460;41595,322;30,92455
 812,44;13085,700;  309,460;41703,720;30,86476
 813,00;13021,794;  230,710;41293,368;31,15016
 813,56;13075,388;  282,711;41415,641;31,10082
 814,13;13108,857;  276,461;41289,914;31,28826
 814,69;13163,451;  280,087;41046,437;31,60294
 815,25;12990,420;  234,837;40675,585;31,54141
 815,82;13135,264;  282,713;40590,108;31,88634
 816,38;13156,108;  313,713;40538,881;31,92627
 816,94;13048,327;  274,589;40158,029;32,02767
 817,51;13028,421;  257,714;39859,927;32,24746
 818,07;13031,140;  257,839;39667,700;32,41143
 818,63;12981,734;  289,840;39498,473;32,37015
 819,20;13047,703;  266,340;39398,871;32,66173
 819,76;12948,921;  246,466;39101,644;32,69180
 820,32;12977,890;  280,841;39011,042;32,78333
 820,89;12953,859;  288,092;38736,065;32,94261
 821,45;12895,203;  267,217;38466,088;33,05853
 822,01;12858,297;  265,093;38158,111;33,23357
 822,57;12911,891;  279,468;38189,759;33,32188
 823,14;12856,485;  239,344;37857,282;33,54023
 823,70;12874,454;  272,094;37686,305;33,68335
 824,26;12842,798;  266,219;37482,953;33,79281
 824,82;12867,767;  286,220;37313,476;33,97915
 825,39;12819,861;  263,595;37000,625;34,17877
 825,95;12842,330;  268,221;37130,398;34,11114
 826,51;12791,674;  286,471;36660,296;34,37968
 827,08;12895,268;  319,847;36759,944;34,50985
 827,64;12845,237;  278,597;36610,092;34,58883
 828,20;12830,206;  251,723;36290,115;34,90301
 828,76;12969,550;  294,848;36350,638;35,15303
 829,32;12932,894;  301,473;36122,411;35,26267
 829,89;12856,238;  252,224;36009,559;35,24875
 830,45;12945,956;  278,349;35833,582;35,62797
 831,01;12848,175;  277,725;35798,230;35,38928
 831,57;12898,644;  271,850;35675,003;35,66573
 832,14;12901,988;  253,101;35576,526;35,80878
 832,70;12873,957;  235,976;35404,174;35,93582
 833,26;12910,551;  230,227;35218,322;36,24183
 833,82;13027,520;  264,477;35142,345;36,59353
 834,38;13036,489;  250,978;35230,493;36,55143
 834,95;12963,958;  260,603;35090,141;36,47294
 835,51;12932,302;  235,103;35008,414;36,51421
 836,07;13010,521;  270,229;35057,937;36,62297
 836,63;13066,615;  283,979;34973,960;36,84821
 837,19;13059,834;  291,105;34833,483;36,96540
 837,75;12995,303;  221,230;34505,131;37,25968
 838,32;13093,522;  287,481;34618,779;37,30136
 838,88;13102,241;  280,481;34716,177;37,23392
 839,44;13162,335;  288,982;34549,450;37,57495
 840,00;13085,179;  274,607;34511,348;37,41761
 840,56;13109,398;  262,982;34225,496;37,82528
 841,12;13098,491;  251,233;34224,894;37,81535
 841,68;13090,210;  230,358;33893,042;38,20210
 842,25;13140,679;  252,234;34014,440;38,17418
 842,81;13123,148;  245,234;33837,963;38,33542
 843,37;13089,367;  234,735;33749,111;38,35558
 843,93;13209,086;  270,360;33702,760;38,70116
 844,49;13246,555;  279,986;33763,033;38,72578
 845,05;13165,649;  222,736;33538,806;38,84886
 845,61;13360,618;  284,111;33659,704;39,17985
 846,17;13279,837;  247,362;33445,477;39,25667
 846,73;13374,931;  265,487;33395,500;39,56969
 847,29;13341,650;  245,363;33244,023;39,68733
 847,86;13365,119;  256,363;33235,796;39,74828
 848,42;13328,463;  253,989;32993,694;39,93461
 848,98;13441,682;  260,864;32951,092;40,32036
 849,54;13512,901;  247,240;33001,615;40,50042
 850,10;13522,995;  266,490;32797,013;40,75097
 850,66;13411,464;  243,741;32648,661;40,63495
 851,22;13511,058;  228,616;32741,809;40,85247
 851,78;13560,526;  286,241;32630,707;41,04036
 852,34;13547,745;  272,867;32366,480;41,36299
 852,90;13448,089;  247,742;32345,253;41,12577
 853,46;13444,933;  258,993;32266,151;41,19685
 854,02;13511,652;  253,493;32184,174;41,52169
 854,58;13437,996;  254,494;31899,447;41,66068
 855,14;13423,215;  246,744;31813,345;41,74181
 855,70;13418,559;  224,870;31658,118;41,97367
 856,26;13484,153;  264,620;31672,141;42,09034
 856,82;13448,497;  257,245;31568,914;42,12887
 857,38;13460,216;  282,746;31440,062;42,29334
 857,94;13397,810;  252,996;31288,835;42,35366
 858,50;13440,404;  285,622;31094,608;42,69787
 859,06;13365,248;  232,997;30921,131;42,79260
 859,62;13439,592;  276,498;30964,779;42,89290
 860,18;13363,186;  260,748;30862,302;42,81625
 860,74;13325,530;  230,249;30585,200;43,14051
 861,30;13275,874;  227,499;30472,098;43,14282
 861,86;13384,468;  316,875;30517,371;43,26946
 862,42;13299,061;  260,500;30274,894;43,44103
 862,98;13396,905;  285,625;30344,668;43,61842
 863,54;13273,124;  263,876;30064,816;43,65382
 864,10;13377,093;  259,251;30079,839;43,98921
 864,66;13293,437;  241,127;29868,987;44,05418
 865,22;13374,781;  240,377;29722,385;44,55058
 865,78;13309,250;  257,253;29662,158;44,38714
 866,34;13241,844;  234,378;29471,431;44,48966
 866,90;13218,938;  247,254;29380,204;44,52582
 867,45;13182,657;  249,754;29259,227;44,58165
 868,01;13153,626;  262,879;29116,750;44,67597
 868,57;13170,220;  246,880;28889,273;45,11962
 869,13;13090,189;  229,755;28812,671;44,99343
 869,69;13107,908;  238,381;28766,319;45,11201
 870,25;13061,252;  223,881;28501,092;45,39829
 870,81;13173,346;  250,132;28594,365;45,59380
 871,37;13132,815;  258,507;28440,763;45,68232
 871,93;13125,159;  269,508;28325,911;45,82074
 872,49;13063,003;  291,133;28027,684;46,04707
 873,04;12991,596;  235,508;27799,082;46,27879
 873,60;12963,190;  242,259;27761,105;46,22625
 874,16;12938,784;  270,134;27678,378;46,22204
 874,72;12969,784;  257,759;27574,003;46,53650
 875,28;13042,034;  255,634;27548,378;46,84908
 875,84;13025,409;  250,759;27388,003;47,07424
 876,40;13065,284;  235,259;27368,753;47,28482
 876,95;13054,534;  270,259;27426,128;47,07739
 877,51;13192,909;  281,009;27443,628;47,53555
 878,07;13216,409;  294,259;27361,878;47,74025
 878,63;13263,409;  251,259;27411,753;47,90837
 879,19;13300,659;  266,384;27291,628;48,23000
 879,75;13376,409;  241,009;27423,878;48,32235
 880,30;13467,284;  244,509;27399,378;48,69394
 880,86;13622,034;  301,134;27534,628;48,91367
 881,42;13635,284;  233,009;27552,503;49,05755
 881,98;13761,534;  260,759;27569,628;49,43733
 882,54;13799,284;  250,259;27762,378;49,24748
 883,09;13874,909;  262,884;27892,003;49,26695
 883,65;13944,909;  244,134;27990,503;49,37862
 884,21;14127,159;  292,884;28238,128;49,50494
 884,77;14121,159;  240,759;28121,878;49,78423
 885,32;14252,034;  257,259;28303,628;49,89871
 885,88;14335,534;  291,509;28606,253;49,59969
 886,44;14404,784;  270,009;28655,253;49,79621
 887,00;14466,034;  276,509;28478,503;50,31391
 887,56;14495,784;  253,634;28735,378;50,00449
 888,11;14560,659;  263,634;28811,503;50,08088
 888,67;14739,534;  303,509;28942,128;50,40755
 889,23;14716,034;  259,634;28870,128;50,52831
 889,79;14691,034;  238,259;28843,503;50,52491
 890,34;14813,159;  270,509;28832,003;50,91698
 890,90;14928,409;  340,259;29040,753;50,82892
 891,46;14845,534;  243,634;28789,878;51,15174
 892,01;14955,034;  262,759;28743,628;51,58647
 892,57;14862,159;  272,009;28809,253;51,12670
 893,13;14805,409;  230,009;28569,378;51,43163
 893,69;14738,909;  250,009;28504,503;51,27998
 894,24;14765,284;  259,509;28454,378;51,44828
 894,80;14730,784;  258,134;28242,378;51,71714
 895,36;14692,409;  257,884;28222,128;51,61779
 895,91;14623,659;  242,884;27902,003;51,99289
 896,47;14713,909;  274,634;27778,378;52,49931
 897,03;14605,034;  240,384;27576,753;52,54776
 897,58;14576,659;  263,634;27518,253;52,51596
 898,14;14516,159;  276,634;27360,753;52,57518
 898,70;14468,409;  226,759;27240,253;52,72050
 899,25;14529,534;  262,509;27187,253;52,98853
 899,81;14440,784;  280,384;26960,503;53,07473
 900,37;14372,909;  226,634;26767,128;53,30072
 900,92;14378,784;  252,009;26852,753;53,10669
 901,48;14417,034;  248,509;26677,378;53,61003
 902,03;14376,159;  240,634;26584,128;53,65851
 902,59;14343,659;  236,009;26463,503;53,78955
 903,15;14312,159;  273,384;26409,253;53,71459
 903,70;14220,534;  255,134;26077,503;54,08257
 904,26;14201,159;  247,259;25967,003;54,25365
 904,82;14169,784;  244,509;25982,878;54,10318
 905,37;14181,159;  250,134;25797,128;54,53098
 905,93;14098,159;  236,759;25589,003;54,67524
 906,48;14074,909;  269,259;25615,253;54,46877
 907,04;14125,659;  268,384;25577,878;54,75129
 907,60;14008,034;  256,384;25384,503;54,72614
 908,15;14042,909;  236,384;25188,503;55,33207
 908,71;13950,909;  268,009;25178,378;54,92853
 909,26;14015,659;  246,009;25020,253;55,58051
 909,82;13840,034;  257,759;24899,628;55,11869
 910,37;13901,784;  294,509;24955,003;55,17844
 910,93;13859,909;  233,134;24603,128;55,91620
 911,48;13783,909;  233,384;24536,378;55,75661
 912,04;13698,909;  237,009;24384,628;55,74835
 912,60;13789,784;  232,134;24362,003;56,18617
 913,15;13728,034;  252,259;24192,878;56,28833
 913,71;13582,034;  234,634;23992,253;56,18156
 914,26;13631,284;  223,259;23946,878;56,51762
 914,82;13608,159;  256,509;23871,628;56,53857
 915,37;13602,909;  232,634;23710,003;56,94963
 915,93;13570,909;  304,259;23696,003;56,71510
 916,48;13482,534;  236,759;23541,128;56,83816
 917,04;13503,159;  258,134;23497,003;56,99514
 917,59;13446,409;  280,509;23373,003;57,01376
 918,15;13362,784;  219,009;23159,128;57,29602
 918,70;13334,159;  254,759;23074,003;57,31741
 919,26;13291,034;  256,009;23019,128;57,26379
 919,81;13279,659;  237,884;22797,628;57,80994
 920,37;13258,034;  250,384;22774,128;57,75083
 920,92;13257,534;  269,384;22682,628;57,94855
 921,48;13125,659;  243,634;22514,378;57,84281
 922,03;13181,409;  223,384;22542,503;58,05796
 922,59;13073,659;  257,509;22375,003;57,94576
 923,14;12990,534;  253,884;22156,253;58,15193
 923,69;13082,909;  263,384;22180,628;58,49059
 924,25;13054,909;  275,259;22133,003;58,46738
 924,80;12885,409;  237,759;21890,003;58,41265
 925,36;12801,909;  241,384;21806,878;58,24362
 925,91;12853,159;  243,884;21630,003;58,96009
 926,47;12809,784;  212,384;21562,503;59,00389
 927,02;12873,409;  309,009;21570,128;59,09567
 927,57;12713,409;  242,259;21285,378;59,26474
 928,13;12761,909;  230,259;21367,003;59,28846
 928,68;12806,659;  233,259;21214,128;59,92793
 929,24;12646,784;  214,759;21045,628;59,68078
 929,79;12532,784;  219,509;20830,128;59,74238
 930,34;12671,534;  245,259;20796,378;60,46520
 930,90;12650,284;  238,634;20702,128;60,65264
 931,45;12623,659;  253,009;20658,003;60,62560
 932,01;12619,909;  250,384;20551,628;60,92989
 932,56;12512,659;  267,634;20470,003;60,61183
 933,11;12554,284;  267,884;20446,628;60,88783
 933,67;12502,034;  229,259;20221,628;61,38730
 934,22;12495,409;  250,259;20171,003;61,46934
 934,77;12477,409;  254,384;20040,753;61,77498
 935,33;12402,659;  237,259;20014,753;61,51133
 935,88;12384,534;  249,759;19904,753;61,73889
 936,43;12359,534;  245,509;19795,128;61,96553
 936,99;12284,159;  235,884;19691,878;61,92578
 937,54;12200,784;  217,259;19403,378;62,45935
 938,09;12157,534;  253,884;19535,878;61,73454
 938,65;12184,909;  254,634;19403,378;62,30317
 939,20;12128,784;  211,884;19236,628;62,63895
 939,75;12034,534;  223,134;19270,753;62,00985
 940,31;11974,409;  227,634;19060,128;62,37504
 940,86;11977,784;  243,259;19067,378;62,33771
 941,41;12025,409;  331,009;19018,878;62,57749
 941,96;11838,159;  229,509;18780,503;62,57697
 942,52;11841,909;  251,009;18697,628;62,83482
 943,07;11793,784;  218,134;18676,128;62,71348
 943,62;11771,659;  226,259;18607,503;62,81077
 944,18;11652,159;  221,384;18586,378;62,24219
 944,73;11657,909;  245,259;18394,253;62,88310
 945,28;11467,909;  207,634;18279,003;62,31003
 945,83;11574,659;  234,134;18219,378;63,05461
 946,39;11467,034;  230,384;18248,128;62,36436
 946,94;11504,909;  261,009;18027,753;63,28622
 947,49;11496,409;  236,509;17966,753;63,50674
 948,04;11467,159;  275,009;18014,128;63,09304
 948,59;11438,659;  268,384;17873,253;63,44992
 949,15;11419,534;  231,884;17804,503;63,66524
 949,70;11310,034;  234,259;17653,503;63,58356
 950,25;11411,784;  248,884;17706,878;63,94148
 950,80;11370,784;  205,759;17511,628;64,51583
 951,36;11276,784;  217,884;17507,128;63,96405
 951,91;11314,784;  253,009;17470,503;64,24730
 952,46;11189,534;  222,509;17188,628;64,64074
 953,01;11170,284;  250,134;17225,128;64,33080
 953,56;11176,659;  213,634;17122,753;64,83499
 954,11;11197,034;  243,884;17078,753;65,06228
 954,67;11133,659;  223,009;16969,128;65,15331
 955,22;11096,409;  224,384;16796,378;65,60481
 955,77;11082,034;  253,509;16719,628;65,76246
 956,32;11024,534;  288,634;16633,628;65,68311
 956,87;11014,159;  225,384;16514,753;66,23200
 957,42;11016,534;  231,384;16456,628;66,47142
 957,98;10909,284;  232,509;16379,378;66,12288
 958,53;10929,659;  265,634;16353,253;66,28716
 959,08;10861,784;  224,634;16219,128;66,50507
 959,63;10702,784;  233,634;16169,003;65,69757
 960,18;10749,659;  244,384;16146,878;66,06055
 960,73;10744,534;  234,634;16087,128;66,29809
 961,28;10712,909;  203,384;15994,628;66,55286
 961,83;10652,409;  266,759;15909,253;66,39383
 962,39;10557,909;  227,259;15738,003;66,60319
 962,94;10581,784;  249,134;15684,003;66,94356
 963,49;10490,284;  234,884;15612,003;66,69260
 964,04;10578,784;  252,884;15539,503;67,54862
 964,59;10482,284;  203,759;15504,378;67,17719
 965,14;10422,284;  250,509;15330,128;67,45379
 965,69;10317,159;  235,134;15311,378;66,87359
 966,24;10358,284;  221,134;15202,003;67,66730
 966,79;10287,159;  252,884;15151,128;67,35207
 967,34;10230,784;  203,259;14946,253;68,01553
 967,89;10218,534;  234,634;14840,753;68,35423
 968,44;10176,409;  250,884;14788,878;68,27300
 968,99;10192,784;  256,259;14732,253;68,64140
 969,55;10170,784;  242,884;14691,128;68,71354
 970,10;10076,534;  234,884;14614,628;68,44107
 970,65;10032,784;  262,759;14470,378;68,76610
 971,20; 9963,034;  225,009;14369,878;68,84493
 971,75; 9907,284;  217,884;14270,753;68,94962
 972,30; 9951,034;  245,009;14232,503;69,39074
 972,85; 9870,784;  233,509;14126,628;69,36725
 973,40; 9814,909;  220,509;13932,253;69,97214
 973,95; 9811,034;  237,884;13944,253;69,84454
 974,50; 9765,659;  265,884;13852,253;69,92137
 975,05; 9686,909;  245,759;13745,753;69,93448
 975,60; 9643,659;  260,884;13712,128;69,75396
 976,15; 9587,409;  228,884;13604,628;69,96639
 976,70; 9540,784;  239,134;13528,503;69,99317
 977,25; 9445,034;  252,634;13442,003;69,69553
 977,80; 9429,909;  228,009;13275,003;70,52889
 978,35; 9362,284;  254,884;13120,753;70,78729
 978,89; 9265,409;  210,134;13086,628;70,32407
 979,44; 9322,409;  248,134;13051,753;70,87274
 979,99; 9129,284;  214,509;12875,128;70,41342
 980,54; 9155,284;  261,009;12754,628;71,19054
 981,09; 9049,034;  267,759;12682,628;70,73192
 981,64; 9012,534;  252,759;12533,003;71,33226
 982,19; 8989,159;  269,759;12554,128;70,97963
 982,74; 8891,284;  248,759;12370,003;71,30065
 983,29; 8808,284;  237,884;12254,378;71,32197
 983,84; 8739,034;  240,509;12178,503;71,18889
 984,39; 8779,784;  335,759;12094,003;71,81366
 984,94; 8624,284;  220,259;11988,128;71,41501
 985,49; 8621,659;  262,884;11895,878;71,85403
 986,03; 8535,034;  260,634;11798,878;71,71282
 986,58; 8498,159;  293,884;11771,503;71,48064
 987,13; 8419,784;  246,259;11579,128;72,12229
 987,68; 8360,409;  253,509;11507,503;72,03576
 988,23; 8338,034;  263,509;11439,503;72,24883
 988,78; 8222,159;  232,884;11302,628;72,17218
 989,33; 8147,159;  254,509;11168,253;72,31845
 989,88; 8182,284;  285,134;11193,503;72,39533
 990,42; 8105,534;  244,259;10999,128;73,09503
 990,97; 7991,159;  243,759;10884,503;72,80882
 991,52; 7964,784;  265,884;10848,378;72,75128
 992,07; 7917,534;  280,634;10702,003;73,28116
 992,62; 7800,909;  247,134;10623,128;72,80050
 993,17; 7781,409;  259,634;10504,003;73,42351
 993,71; 7757,034;  260,509;10500,253;73,21008
 994,26; 7626,409;  233,259;10249,128;73,81437
 994,81; 7623,284;  277,509;10310,253;73,21801
 995,36; 7487,034;  243,134;10066,503;73,74151
 995,91; 7493,659;  241,009;10022,253;74,14855
 996,45; 7359,284;  262,259; 9928,878;73,41786
 997,00; 7307,034;  235,384; 9768,628;74,17884
 997,55; 7239,159;  250,634; 9720,753;73,79554
 998,10; 7202,784;  271,134; 9657,253;73,85001
 998,65; 7172,659;  240,134; 9575,003;74,26484
 999,19; 7091,409;  273,384; 9418,378;74,55473
 999,74; 7041,409;  296,634; 9336,253;74,61349
1000,29; 6968,909;  248,134; 9231,878;74,81040
1000,84; 6909,159;  260,384; 9129,378;74,96651
1001,38; 6826,534;  257,509; 9017,628;74,98785
1001,93; 6796,534;  261,384; 8967,378;75,06495
1002,48; 6668,659;  231,634; 8805,128;75,08054
1003,03; 6708,784;  262,509; 8742,128;76,02081
1003,57; 6596,284;  246,509; 8670,753;75,37502
1004,12; 6558,534;  298,384; 8602,003;75,39062
1004,67; 6508,034;  238,634; 8466,003;76,20176
1005,22; 6341,409;  243,509; 8329,503;75,41312
1005,76; 6251,534;  233,884; 8179,378;75,73664
1006,31; 6235,534;  261,634; 8210,128;75,15764
1006,86; 6194,659;  241,384; 8008,878;76,64345
1007,40; 6057,534;  227,884; 7869,878;76,28441
1007,95; 6045,534;  253,009; 7873,503;76,01246
1008,50; 5886,284;  257,759; 7767,753;74,94713
1009,04; 5813,784;  249,509; 7615,503;75,54005
1009,59; 5719,034;  249,884; 7503,128;75,40282
1010,14; 5636,784;  231,384; 7368,753;75,73379
1010,68; 5620,909;  251,509; 7250,003;76,72222
1011,23; 5561,284;  250,259; 7134,003;77,15315
1011,78; 5451,659;  266,259; 7093,128;75,95576
1012,32; 5361,534;  278,509; 7000,253;75,62063
1012,87; 5333,284;  271,009; 6989,378;75,34976
1013,42; 5236,909;  235,384; 6848,503;75,63035
1013,96; 5340,409;  275,759; 6864,128;76,87259
1014,51; 5184,784;  214,259; 6725,128;76,34196
1015,06; 5265,534;  221,259; 6773,628;76,98399
1015,60; 5286,534;  291,134; 6803,253;76,70929
1016,15; 5220,409;  236,009; 6754,753;76,46259
1016,69; 5236,534;  247,134; 6759,253;76,61715
1017,24; 5286,909;  218,259; 6711,378;78,06187
1017,79; 5372,784;  287,259; 6827,503;77,75742
1018,33; 5355,284;  252,509; 6727,253;78,81045
1018,88; 5464,784;  259,384; 6856,503;78,90414
1019,42; 5426,534;  233,009; 6879,628;78,13785
1019,97; 5472,534;  232,634; 6881,003;78,81482
1020,51; 5514,409;  273,884; 6943,003;78,57897
1021,06; 5456,284;  234,634; 6865,003;78,75354
1021,61; 5486,784;  216,634; 6885,503;79,02615
1022,15; 5447,784;  191,634; 6840,878;79,04884
1022,70; 5463,159;  249,759; 6853,628;78,94463
1023,24; 5482,284;  238,634; 6839,253;79,44179
1023,79; 5419,159;  243,134; 6774,503;79,24870
1024,33; 5402,659;  240,259; 6673,378;80,24724
1024,88; 5324,284;  258,509; 6621,503;79,61308
1025,42; 5276,284;  251,134; 6513,753;80,24039
1025,97; 5198,659;  218,259; 6406,753;80,47839
1026,51; 5100,784;  207,009; 6313,378;80,14215
1027,06; 5084,909;  227,634; 6260,253;80,51686
1027,60; 5016,409;  246,884; 6132,253;81,04038
1028,15; 4933,409;  254,509; 6078,753;80,33489
1028,69; 4837,284;  191,134; 5940,003;80,81851
1029,24; 4764,409;  239,134; 5863,253;80,46194
1029,78; 4716,159;  219,759; 5768,378;81,03638
1030,33; 4655,534;  217,634; 5648,628;81,71433
1030,87; 4559,909;  223,634; 5602,003;80,62435
1031,42; 4517,034;  218,009; 5497,003;81,43645
1031,96; 4502,534;  247,384; 5439,878;81,94810
1032,51; 4402,159;  230,759; 5345,128;81,56236
1033,05; 4388,284;  237,134; 5284,003;82,25199
1033,60; 4236,034;  215,259; 5192,128;80,78925
1034,14; 4209,909;  221,009; 5125,753;81,32739
1034,69; 4170,659;  235,384; 5066,003;81,46524
1035,23; 4123,284;  230,009; 5000,378;81,61371
1035,77; 4104,659;  235,759; 4943,253;82,18598
1036,32; 4043,784;  217,009; 4838,128;82,81057
1036,86; 4000,534;  246,634; 4790,878;82,60780
1037,41; 3939,409;  252,759; 4708,378;82,74159
1037,95; 3844,784;  200,259; 4616,253;82,53012
1038,50; 3840,784;  228,259; 4563,503;83,32922
1039,04; 3850,159;  256,759; 4536,378;83,96542
1039,58; 3765,284;  212,634; 4473,128;83,38588
1040,13; 3702,909;  221,759; 4372,253;83,87315
1040,67; 3685,909;  259,259; 4397,878;82,79695
1041,21; 3632,784;  258,509; 4295,628;83,58127
1041,76; 3553,034;  216,259; 4204,253;83,67052
1042,30; 3548,034;  228,009; 4140,253;84,86243
1042,85; 3459,534;  222,509; 4049,378;84,58678
1043,39; 3397,159;  216,759; 4013,003;83,77755
1043,93; 3440,784;  239,009; 4026,378;84,53824
1044,48; 3344,784;  246,134; 3922,253;84,29135
1045,02; 3308,284;  228,134; 3879,878;84,34738
1045,56; 3247,284;  263,634; 3844,628;83,31905
1046,11; 3229,534;  242,509; 3809,253;83,74655
1046,65; 3178,159;  250,009; 3732,878;84,07294
1047,19; 3092,784;  230,259; 3646,128;83,80079
1047,74; 3060,034;  214,259; 3568,378;84,84419
1048,28; 3021,909;  237,884; 3582,253;83,24516
1048,82; 3009,284;  259,134; 3544,628;83,70584
1049,37; 2992,284;  248,009; 3496,253;84,48489
1049,91; 2911,284;  240,509; 3480,253;82,43785
1050,45; 2896,284;  253,884; 3407,003;83,80274
1050,99; 2849,284;  253,009; 3363,628;83,46491
1051,54; 2811,034;  220,884; 3270,503;84,93357
1052,08; 2786,159;  266,259; 3269,128;83,91642
1052,62; 2765,534;  247,759; 3227,878;84,48573
1053,16; 2693,034;  226,634; 3147,628;84,43702
1053,71; 2676,659;  235,259; 3155,378;83,60619
1054,25; 2641,409;  263,259; 3056,753;85,13175
1054,79; 2618,534;  248,259; 3051,378;84,55849
1055,33; 2541,159;  207,009; 2974,378;84,34546
1055,88; 2525,784;  252,509; 2923,753;85,10174
1056,42; 2525,034;  250,634; 2927,503;84,96494
1056,96; 2468,909;  265,634; 2908,503;83,36680
1057,50; 2444,034;  234,634; 2872,628;83,75304
1058,05; 2407,534;  246,634; 2782,628;85,20920
1058,59; 2383,409;  270,634; 2757,378;84,96151
1059,13; 2277,784;  222,884; 2688,378;83,34639
1059,67; 2292,034;  260,759; 2655,503;84,82223
1060,21; 2290,284;  244,134; 2629,753;85,77020
1060,76; 2252,034;  254,884; 2590,878;85,49466
1061,30; 2250,534;  278,009; 2573,753;85,92096
1061,84; 2179,909;  238,384; 2505,378;85,64316
1062,38; 2138,534;  224,759; 2454,003;85,84862
1062,92; 2156,034;  283,259; 2508,003;84,17936
1063,46; 2141,784;  251,884; 2403,128;87,85150
1064,01; 2077,409;  229,384; 2331,253;87,92295
1064,55; 2082,534;  249,509; 2332,128;88,01539
1065,09; 2022,284;  213,509; 2301,253;86,63779
1065,63; 2039,284;  275,509; 2314,878;86,48632
1066,17; 2025,909;  282,259; 2276,003;87,45607
1066,71; 1994,034;  269,634; 2232,628;87,84541
1067,25; 1950,284;  252,759; 2183,628;87,91509
1067,80; 1950,409;  267,509; 2176,878;88,13908
1068,34; 1914,284;  267,884; 2183,003;85,96856
1068,88; 1877,034;  227,384; 2107,253;87,75347
1069,42; 1883,534;  264,634; 2130,503;86,76387
1069,96; 1850,534;  258,759; 2054,753;88,62921
1070,50; 1834,534;  281,509; 2088,753;85,93334
1071,04; 1773,034;  241,009; 1996,628;87,26411
1071,58; 1767,034;  245,134; 1985,003;87,47212
1072,12; 1770,659;  241,759; 1958,503;89,05814
1072,66; 1727,784;  242,759; 1971,878;85,88334
1073,21; 1738,534;  265,009; 1939,378;88,00481
1073,75; 1687,159;  260,759; 1910,503;86,46191
1074,29; 1673,034;  239,884; 1852,753;88,85720
1074,83; 1668,284;  271,509; 1869,628;87,40120
1075,37; 1653,159;  267,509; 1846,628;87,74831
1075,91; 1649,409;  262,884; 1820,878;88,99426
1076,45; 1626,534;  264,509; 1808,253;88,22870
1076,99; 1600,534;  274,884; 1784,753;87,79902
1077,53; 1559,409;  251,384; 1737,503;88,01618
1078,07; 1530,909;  263,009; 1706,003;87,86594
1078,61; 1549,534;  259,634; 1672,003;91,32884
1079,15; 1509,534;  242,759; 1671,378;88,67131
1079,69; 1503,034;  242,259; 1661,003;88,86559
1080,23; 1512,284;  270,509; 1651,003;89,95151
1080,77; 1514,784;  300,884; 1695,753;87,02611
1081,31; 1435,909;  243,634; 1588,003;88,68660
1081,85; 1454,534;  263,634; 1627,378;87,32579
1082,39; 1402,284;  244,884; 1565,128;87,66563
1082,93; 1422,284;  247,134; 1560,753;89,45898
1083,47; 1375,534;  233,384; 1516,628;89,00491
1084,01; 1417,659;  267,259; 1536,628;90,62772
1084,55; 1366,034;  248,009; 1494,628;89,68460
1085,09; 1376,784;  254,384; 1500,253;90,08975
1085,63; 1356,284;  252,259; 1475,878;90,22622
1086,17; 1323,034;  261,134; 1448,003;89,47072
1086,71; 1303,784;  245,009; 1412,128;90,71699
1087,24; 1342,784;  278,509; 1442,753;91,41342
1087,78; 1325,909;  260,259; 1446,503;89,83398
1088,32; 1273,034;  236,509; 1385,253;90,23118
1088,86; 1286,659;  271,384; 1385,253;91,14853
1089,40; 1274,284;  262,759; 1364,503;91,81128
1089,94; 1202,159;  224,009; 1318,878;89,33948
1090,48; 1215,034;  261,259; 1308,128;91,10741
1091,02; 1236,659;  277,884; 1317,253;92,24589
1091,56; 1212,659;  241,509; 1288,628;92,74497
1092,10; 1182,534;  234,634; 1270,628;91,49669
1092,63; 1172,034;  273,884; 1284,753;88,84932
1093,17; 1163,659;  263,134; 1265,628;89,82849
1093,71; 1153,784;  246,884; 1246,753;90,70190
1094,25; 1165,034;  278,009; 1237,003;92,49539
1094,79; 1132,159;  242,759; 1230,628;90,03220
1095,33; 1104,034;  264,509; 1201,378;89,60967
1095,87; 1111,659;  259,384; 1185,378;92,03896
1096,40; 1068,534;  242,634; 1136,253;92,42196
1096,94; 1091,034;  264,759; 1172,753;91,00008
1097,48; 1057,159;  273,509; 1160,628;88,33654
1098,02; 1048,284;  250,634; 1128,003;90,91388
1098,56; 1012,784;  223,384; 1101,503;89,89673
1099,10; 1010,284;  216,259; 1081,003;91,82200
1099,63; 1016,159;  226,884; 1054,878;95,32379
1100,17; 1019,284;  252,759; 1122,253;88,15762
1100,71; 1035,909;  285,884; 1087,378;93,57840

