
Integration time [ms]: 130,000
Averaging Nr. [scans]: 8
Smoothing Nr. [pixels]: 0
Data measured with spectrometer [name]: 2009305U1
Wave   ;Sample   ;Dark     ;Reference;Reflectance
[nm]   ;[counts] ;[counts] ;[counts] ;[%]

 175,72;  228,149;  210,396;  218,316;224,15090
 176,32;  239,497;  240,998;  232,879; 0,00000
 176,92;  279,158;  269,139;  280,014;92,12685
 177,52;  267,467;  269,016;  290,032;-7,37067
 178,12;  261,212;  261,249;  235,645; 0,00000
 178,72;  278,667;  279,243;  265,313; 0,00000
 179,32;  276,227;  285,873;  269,707; 0,00000
 179,92;  283,523;  264,882;  266,541;1123,58333
 180,52;  259,227;  254,907;  264,527;44,90265
 181,12;  278,289;  275,258;  261,354; 0,00000
 181,73;  288,653;  295,635;  291,278; 0,00000
 182,33;  392,091;  392,023;  390,552; 0,00000
 182,93;  302,389;  290,891;  290,094; 0,00000
 183,53;  247,701;  252,740;  249,295; 0,00000
 184,13;  249,108;  255,743;  244,797; 0,00000
 184,73;  303,372;  311,487;  290,606; 0,00000
 185,33;  318,228;  259,857;  362,051;57,11758
 185,93;  329,949;  252,591;  372,759;64,37485
 186,53;  337,725;  271,100;  394,921;53,80787
 187,13;  356,442;  280,617;  417,713;55,30767
 187,73;  320,766;  267,969;  383,120;45,85068
 188,33;  336,912;  262,085;  379,270;63,85347
 188,93;  342,590;  286,806;  384,626;57,02675
 189,53;  312,720;  271,660;  395,440;33,17151
 190,13;  374,907;  304,874;  431,995;55,09170
 190,73;  330,739;  229,398;  369,339;72,41715
 191,34;  357,392;  281,048;  425,902;52,70393
 191,94;  329,256;  245,200;  379,248;62,70590
 192,54;  342,149;  272,255;  401,659;54,01231
 193,14;  343,031;  279,240;  400,728;52,50805
 193,74;  331,768;  283,487;  398,023;42,15382
 194,34;  344,134;  271,994;  393,574;59,33517
 194,94;  308,078;  233,615;  360,415;58,72455
 195,54;  274,298;  207,483;  327,520;55,66222
 196,14;  291,698;  241,498;  367,827;39,73738
 196,74;  300,820;  229,979;  361,924;53,69020
 197,34;  274,607;  223,133;  353,209;39,57244
 197,94;  319,809;  238,492;  374,995;59,57158
 198,54;  319,928;  248,373;  395,655;48,58387
 199,14;  297,199;  236,139;  373,103;44,58100
 199,74;  286,902;  218,639;  369,166;45,34941
 200,34;  286,325;  209,142;  378,480;45,57937
 200,94;  322,567;  240,756;  418,613;45,99845
 201,54;  316,226;  226,886;  420,492;46,14494
 202,14;  358,979;  271,896;  484,499;40,96031
 202,74;  334,937;  225,639;  446,775;49,42593
 203,34;  303,423;  212,028;  464,488;36,20155
 203,94;  290,620;  184,773;  456,187;38,99837
 204,54;  359,017;  272,994;  537,543;32,51681
 205,14;  346,805;  213,389;  534,306;41,57317
 205,74;  403,891;  262,653;  630,737;38,37117
 206,34;  362,756;  222,771;  623,514;34,93140
 206,94;  398,130;  234,143;  659,012;38,59704
 207,54;  366,041;  205,895;  680,248;33,76093
 208,14;  417,319;  217,272;  741,640;38,15011
 208,74;  430,589;  220,388;  808,040;35,76968
 209,34;  449,098;  219,640;  874,385;35,04535
 209,94;  490,797;  241,515;  973,088;34,07483
 210,54;  523,714;  216,025; 1043,813;37,17007
 211,14;  540,390;  232,389; 1123,837;34,55068
 211,73;  589,018;  225,260; 1227,319;36,30106
 212,33;  604,364;  244,880; 1337,301;32,90710
 212,93;  639,308;  214,263; 1401,040;35,81510
 213,53;  612,918;  200,639; 1439,478;33,27947
 214,13;  638,975;  222,534; 1556,163;31,22616
 214,73;  654,354;  206,396; 1548,999;33,36487
 215,33;  624,047;  190,890; 1567,963;31,45492
 215,93;  686,070;  218,027; 1711,643;31,33627
 216,53;  669,257;  160,012; 1737,742;32,27706
 217,13;  747,648;  225,275; 1923,954;30,75172
 217,73;  740,477;  221,528; 2112,518;27,44325
 218,33;  740,734;  167,786; 2239,258;27,65896
 218,93;  816,458;  199,053; 2506,144;26,76119
 219,53;  863,187;  198,161; 2773,446;25,82338
 220,13;  858,211;  177,665; 3033,730;23,82812
 220,73;  921,078;  203,390; 3305,088;23,13856
 221,32; 1037,214;  205,638; 3663,540;24,04858
 221,92; 1092,457;  208,164; 4007,370;23,27574
 222,52; 1159,567;  187,903; 4323,660;23,49422
 223,12; 1242,927;  194,154; 4760,973;22,96506
 223,72; 1334,130;  200,280; 5128,535;23,00713
 224,32; 1408,529;  214,156; 5474,067;22,70709
 224,92; 1456,990;  193,656; 5752,224;22,72769
 225,52; 1534,333;  222,019; 6073,075;22,42868
 226,12; 1579,300;  198,524; 6387,469;22,31036
 226,72; 1624,007;  175,273; 6610,016;22,51424
 227,31; 1754,093;  166,273; 6944,422;23,42556
 227,91; 1830,048;  207,517; 7291,964;22,90271
 228,51; 1936,834;  203,632; 7649,427;23,27759
 229,11; 2029,667;  196,647; 8042,249;23,36365
 229,71; 2134,191;  195,012; 8218,633;24,16837
 230,31; 2271,764;  188,284; 8643,382;24,64170
 230,91; 2377,437;  180,627; 8963,002;25,01385
 231,51; 2541,688;  179,152; 9286,925;25,93977
 232,10; 2682,773;  186,911; 9647,102;26,38278
 232,70; 2858,384;  206,494; 9881,699;27,40913
 233,30; 3056,461;  217,276;10157,830;28,56164
 233,90; 3166,547;  189,276;10367,361;29,25178
 234,50; 3393,168;  178,402;10504,128;31,13356
 235,10; 3594,615;  174,656;10742,474;32,36202
 235,70; 3785,450;  205,642;10800,230;33,78903
 236,29; 4033,913;  201,138;10851,118;35,98857
 236,89; 4203,231;  200,253;10842,205;37,61507
 237,49; 4419,656;  210,899;10888,922;39,41513
 238,09; 4613,131;  194,146;10697,764;42,07108
 238,69; 4788,651;  235,373;10613,264;43,87479
 239,29; 4939,365;  188,019;10456,325;46,27195
 239,89; 5108,145;  202,004;10223,049;48,95838
 240,48; 5149,967;  197,396; 9924,045;50,91755
 241,08; 5269,091;  196,143; 9669,418;53,55010
 241,68; 5387,932;  207,521; 9499,811;55,74956
 242,28; 5377,496;  186,025; 9146,689;57,93623
 242,88; 5470,678;  237,159; 8937,851;60,15061
 243,48; 5491,827;  240,024; 8776,360;61,52292
 244,07; 5494,259;  226,642; 8509,621;63,59568
 244,67; 5556,225;  208,523; 8425,390;65,08201
 245,27; 5660,143;  213,760; 8203,694;68,16556
 245,87; 5678,662;  220,783; 8223,912;68,19681
 246,47; 5753,807;  201,510; 8183,038;69,56434
 247,06; 5790,595;  197,519; 8231,528;69,61750
 247,66; 5864,530;  186,272; 8290,421;70,06606
 248,26; 5983,804;  221,762; 8397,555;70,47686
 248,86; 6122,589;  230,261; 8601,163;70,39059
 249,46; 6241,985;  165,402; 8693,612;71,25273
 250,05; 6394,185;  220,770; 9050,795;69,91391
 250,65; 6582,002;  185,883; 9372,006;69,62806
 251,25; 6791,454;  189,143; 9755,465;69,01619
 251,85; 6988,461;  204,503;10364,409;66,77186
 252,44; 7251,675;  174,763;10836,071;66,37940
 253,04; 7530,328;  207,015;11466,838;65,03933
 253,64; 7756,716;  159,132;12100,145;63,62596
 254,24; 8035,107;  217,770;12970,357;61,30001
 254,84; 8421,985;  183,152;13803,737;60,48810
 255,43; 8719,726;  194,014;14576,619;59,27794
 256,03; 8946,826;  197,133;15453,958;57,34937
 256,63; 9169,942;  200,628;16321,112;55,63923
 257,23; 9279,243;  176,004;17189,534;53,50588
 257,82; 9463,221;  205,746;17991,857;52,04890
 258,42; 9478,098;  159,118;18727,214;50,18813
 259,02; 9638,231;  215,765;19628,979;48,53635
 259,62; 9543,887;  186,865;20177,931;46,80602
 260,21; 9422,820;  197,138;20741,618;44,90589
 260,81; 9189,019;  199,649;21143,469;42,92135
 261,41; 8946,494;  186,870;21413,262;41,26760
 262,01; 8726,710;  226,612;21957,257;39,11572
 262,60; 8386,743;  183,754;22238,034;37,19454
 263,20; 8156,545;  207,885;22453,335;35,73162
 263,80; 7777,737;  212,237;22668,022;33,69065
 264,40; 7410,101;  177,864;22781,821;31,99545
 264,99; 7109,002;  200,861;22916,959;30,41077
 265,59; 6744,303;  198,725;23021,234;28,68036
 266,19; 6471,815;  193,487;23251,085;27,22889
 266,78; 6169,684;  235,481;23328,972;25,69643
 267,38; 5852,640;  203,852;23298,391;24,45941
 267,98; 5549,841;  192,482;23352,097;23,13233
 268,58; 5301,351;  204,727;23361,047;22,00964
 269,17; 5013,509;  180,969;23435,151;20,78138
 269,77; 4769,027;  213,626;23199,391;19,81836
 270,37; 4485,154;  171,610;23180,100;18,74762
 270,96; 4331,701;  245,246;22992,185;17,96486
 271,56; 4093,528;  190,628;22911,643;17,17749
 272,16; 3860,154;  188,869;22696,496;16,31129
 272,75; 3712,080;  196,495;22395,919;15,83638
 273,35; 3564,205;  202,372;22462,170;15,10271
 273,95; 3467,908;  214,745;22422,481;14,64878
 274,54; 3388,963;  196,145;22521,685;14,30119
 275,14; 3321,342;  225,123;22809,374;13,70964
 275,74; 3253,712;  171,994;22810,137;13,61294
 276,33; 3288,093;  222,125;23339,875;13,26240
 276,93; 3284,799;  213,772;23628,218;13,11595
 277,53; 3350,367;  202,513;24020,055;13,21653
 278,12; 3365,700;  172,630;24493,207;13,12909
 278,72; 3488,862;  252,887;25068,570;13,04004
 279,32; 3512,733;  199,511;25538,710;13,07548
 279,91; 3682,896;  169,009;26174,928;13,51188
 280,51; 3796,004;  200,013;26806,259;13,51559
 281,11; 3950,607;  194,633;27460,209;13,77552
 281,70; 4077,294;  172,382;27885,083;14,09070
 282,30; 4263,403;  193,003;28474,643;14,39237
 282,90; 4396,719;  179,253;28895,627;14,68662
 283,49; 4659,784;  207,748;29538,858;15,17855
 284,09; 4865,724;  215,881;29900,614;15,66409
 284,69; 5140,346;  218,385;30273,132;16,37665
 285,28; 5329,646;  216,381;30556,051;16,85340
 285,88; 5621,345;  262,369;30906,605;17,48771
 286,47; 5827,641;  201,128;30969,689;18,28657
 287,07; 6134,280;  226,511;31111,648;19,12820
 287,67; 6395,077;  221,274;31194,735;19,93256
 288,26; 6723,413;  198,385;31152,866;21,07943
 288,86; 7084,533;  192,882;31164,754;22,25132
 289,46; 7566,178;  194,884;31355,553;23,65576
 290,05; 8020,876;  188,017;31409,402;25,08812
 290,65; 8484,203;  204,876;31627,688;26,34814
 291,24; 9047,679;  212,887;31851,305;27,92425
 291,84; 9626,817;  208,503;31863,612;29,75290
 292,44;10185,640;  208,650;32055,111;31,32841
 293,03;10915,659;  284,762;32178,633;33,33210
 293,63;11444,805;  195,253;32371,033;34,96279
 294,22;12071,002;  218,508;32574,756;36,63124
 294,82;12632,363;  201,239;32567,024;38,40823
 295,41;13031,419;  188,882;32300,833;39,99302
 296,01;13621,032;  228,743;32385,980;41,64627
 296,61;13929,081;  225,511;32113,945;42,97348
 297,20;14284,536;  207,494;31781,590;44,58415
 297,80;14659,568;  215,020;31685,763;45,89834
 298,39;15048,711;  182,253;31193,034;47,93964
 298,99;15420,490;  230,622;31153,529;49,12173
 299,58;15667,022;  208,397;31012,702;50,18333
 300,18;16048,927;  226,518;30723,200;51,88240
 300,78;16230,015;  210,014;30474,462;52,93340
 301,37;16581,427;  221,359;30407,505;54,19727
 301,97;16940,639;  217,759;30429,334;55,35256
 302,56;17232,675;  201,252;30309,548;56,56721
 303,16;17497,569;  183,999;30318,843;57,45366
 303,75;17745,301;  211,641;30216,948;58,43520
 304,35;18333,079;  184,904;30524,238;59,81731
 304,94;18579,776;  199,885;30546,413;60,56670
 305,54;18867,839;  226,638;30526,040;61,52333
 306,13;19127,880;  185,030;30487,285;62,51300
 306,73;19269,332;  185,150;30292,845;63,38639
 307,33;19500,882;  215,523;30309,141;64,08455
 307,92;19806,698;  217,637;30351,227;65,00739
 308,52;20343,768;  180,999;30725,671;66,01076
 309,11;20831,008;  201,867;31236,823;66,47066
 309,71;21260,479;  189,112;31661,304;66,95233
 310,30;21625,647;  180,261;31702,929;68,03163
 310,90;22048,147;  224,386;32095,304;68,47547
 311,49;22343,557;  208,385;32186,413;69,21994
 312,09;22640,216;  176,518;32307,668;69,91252
 312,68;23142,293;  269,514;32860,603;70,18108
 313,28;23482,823;  188,637;32868,727;71,27944
 313,87;23698,866;  173,510;33019,054;71,62419
 314,47;24055,431;  200,119;33278,012;72,11860
 315,06;24224,671;  168,137;33482,336;72,21105
 315,66;24574,966;  180,643;33694,668;72,78840
 316,25;24579,159;  165,250;33583,235;73,05620
 316,85;24698,814;  170,769;33686,028;73,18471
 317,44;24946,954;  194,992;33779,917;73,69962
 318,04;25006,508;  192,253;33813,346;73,80562
 318,63;25072,351;  180,400;33905,642;73,80807
 319,22;25286,230;  188,501;34023,829;74,17611
 319,82;25312,403;  192,131;34077,519;74,13305
 320,41;25190,281;  212,752;34096,876;73,71455
 321,01;25335,298;  198,517;34148,339;74,04098
 321,60;25348,790;  200,756;34227,223;73,90727
 322,20;25282,585;  190,262;34258,930;73,65220
 322,79;25432,691;  230,137;34211,508;74,16579
 323,39;25454,391;  193,653;34431,737;73,77965
 323,98;25421,464;  168,138;34448,415;73,66722
 324,58;25326,538;  181,374;34386,468;73,51292
 325,17;25140,816;  189,126;34136,985;73,50004
 325,76;25150,873;  204,760;34059,647;73,68541
 326,36;24669,989;  160,142;33795,949;72,86832
 326,95;24573,966;  220,132;33368,395;73,46941
 327,55;24272,036;  185,255;33089,613;73,20240
 328,14;23969,072;  183,396;32699,748;73,14989
 328,74;23633,597;  227,001;32370,110;72,81995
 329,33;23246,122;  200,766;32101,667;72,24045
 329,92;22926,395;  188,242;31499,651;72,61939
 330,52;22198,768;  214,771;30829,217;71,80923
 331,11;22062,560;  180,881;30520,020;72,12360
 331,71;21462,646;  195,509;29922,178;71,54228
 332,30;21191,651;  196,635;29476,413;71,70483
 332,89;20792,782;  271,515;28972,401;71,50046
 333,49;20190,236;  212,757;28480,567;70,67218
 334,08;19794,141;  190,880;28039,191;70,39300
 334,68;19477,700;  201,255;27593,957;70,37073
 335,27;19113,112;  215,148;27193,844;70,04773
 335,86;18813,310;  260,756;26996,020;69,39357
 336,46;18591,999;  220,024;26650,172;69,51143
 337,05;18304,521;  192,256;26558,926;68,69379
 337,65;18021,720;  180,380;26436,754;67,95051
 338,24;18027,656;  232,388;26406,399;67,98831
 338,83;17846,023;  225,763;26282,306;67,62317
 339,43;17669,421;  183,626;26289,063;66,98143
 340,02;17578,608;  190,874;26129,062;67,03527
 340,61;17505,277;  195,887;26220,039;66,51279
 341,21;17365,347;  217,626;26243,235;65,88788
 341,80;17236,602;  196,505;26267,847;65,35949
 342,40;17227,635;  199,647;26294,624;65,25389
 342,99;17168,282;  186,265;26355,401;64,89330
 343,58;17187,372;  193,141;26595,042;64,36745
 344,18;17174,501;  214,767;26619,652;64,22953
 344,77;17200,050;  189,374;26969,796;63,51907
 345,36;17233,966;  183,507;27323,145;62,82493
 345,96;17316,661;  221,016;27583,386;62,47867
 346,55;17388,028;  189,403;27859,691;62,15557
 347,14;17445,069;  171,397;28132,015;61,77858
 347,74;17496,051;  164,413;28556,619;61,04365
 348,33;17809,640;  180,537;29248,259;60,64838
 348,92;18024,314;  201,044;29826,076;60,16287
 349,52;18152,743;  175,165;30239,980;59,79607
 350,11;18149,920;  196,748;30542,811;59,16145
 350,70;18169,968;  188,762;30627,524;59,07338
 351,29;17849,145;  173,481;30379,253;58,51751
 351,89;17579,114;  215,367;30271,901;57,77029
 352,48;17492,659;  173,137;30411,008;57,27759
 353,07;17324,980;  212,149;30502,625;56,49575
 353,67;17184,088;  207,045;30367,733;56,28865
 354,26;16807,713;  204,647;30120,812;55,49865
 354,85;16543,997;  207,019;30003,294;54,82893
 355,45;16328,184;  173,379;29687,018;54,73674
 356,04;16153,734;  194,775;29721,985;54,04831
 356,63;15926,103;  227,257;29592,599;53,46046
 357,22;15618,596;  210,235;29444,084;52,70726
 357,82;15393,120;  201,489;29272,243;52,25744
 358,41;15136,467;  213,009;29134,897;51,59918
 359,00;14871,441;  174,876;28882,110;51,19464
 359,60;14661,261;  199,638;28864,477;50,45074
 360,19;14472,691;  220,776;28655,533;50,12146
 360,78;14168,306;  196,505;28539,285;49,29580
 361,37;13870,009;  197,506;28347,222;48,57066
 361,97;13727,232;  200,758;28183,834;48,33805
 362,56;13409,198;  188,373;27939,827;47,64012
 363,15;13153,755;  236,129;27722,737;46,99607
 363,74;12785,654;  197,869;27360,746;46,34187
 364,34;12482,468;  219,500;26937,375;45,89799
 364,93;12153,154;  188,747;26547,748;45,39022
 365,52;11819,935;  169,756;26247,520;44,67476
 366,11;11474,835;  196,001;25942,782;43,80678
 366,71;11233,355;  196,501;25565,704;43,50493
 367,30;10896,927;  203,632;25120,301;42,91623
 367,89;10727,775;  219,518;24926,434;42,53164
 368,48;10407,310;  211,995;24656,997;41,70716
 369,07;10024,968;  197,262;24192,149;40,95750
 369,67; 9811,662;  209,121;23957,341;40,43478
 370,26; 9578,124;  180,512;23541,524;40,22776
 370,85; 9330,165;  191,881;23447,723;39,29457
 371,44; 9065,240;  203,883;23166,552;38,59027
 372,03; 8818,113;  178,000;22906,922;38,01374
 372,63; 8658,939;  172,507;22629,005;37,79054
 373,22; 8413,878;  182,386;22290,507;37,23289
 373,81; 8186,146;  168,006;21979,801;36,76057
 374,40; 7994,217;  190,521;21797,420;36,11669
 374,99; 7734,157;  184,129;21460,378;35,48571
 375,59; 7552,838;  192,020;21182,810;35,06689
 376,18; 7432,083;  210,005;21119,925;34,53900
 376,77; 7239,850;  201,759;20861,990;34,06589
 377,36; 7092,732;  218,756;20767,707;33,45171
 377,95; 6952,636;  207,502;20475,329;33,28001
 378,55; 6752,173;  183,017;20262,964;32,71500
 379,14; 6695,587;  206,131;20239,535;32,39318
 379,73; 6523,793;  203,877;20115,080;31,74050
 380,32; 6469,377;  212,258;20090,506;31,47721
 380,91; 6303,775;  174,621;19956,513;30,98366
 381,50; 6321,401;  213,123;19987,514;30,88984
 382,10; 6157,752;  190,008;19824,506;30,39418
 382,69; 6047,528;  167,756;19801,644;29,94706
 383,28; 5964,378;  210,875;19738,734;29,46305
 383,87; 5862,839;  190,749;19678,265;29,10627
 384,46; 5788,546;  186,864;19566,790;28,90456
 385,05; 5787,631;  216,623;19586,593;28,76106
 385,64; 5625,585;  201,001;19576,782;27,99673
 386,24; 5546,640;  174,864;19548,664;27,72701
 386,83; 5560,518;  214,362;19530,648;27,67694
 387,42; 5536,367;  216,126;19629,282;27,40533
 388,01; 5574,664;  202,104;19821,298;27,38420
 388,60; 5510,793;  192,866;20025,056;26,81462
 389,19; 5529,836;  187,842;20240,337;26,64005
 389,78; 5591,415;  187,470;20451,402;26,66780
 390,37; 5709,908;  249,609;20881,583;26,46523
 390,96; 5636,253;  209,863;21070,086;26,01310
 391,56; 5652,964;  209,338;21234,319;25,89123
 392,15; 5675,088;  187,972;21466,341;25,78729
 392,74; 5656,763;  166,947;21562,715;25,65842
 393,33; 5768,678;  190,086;21958,084;25,62749
 393,92; 5873,999;  203,314;22264,132;25,70478
 394,51; 5867,541;  182,336;22600,380;25,35995
 395,10; 5941,565;  219,041;22749,320;25,39926
 395,69; 5922,340;  203,420;22946,603;25,14564
 396,28; 5930,875;  206,033;23029,189;25,08348
 396,87; 6000,575;  216,512;23120,847;25,25314
 397,46; 6005,325;  206,623;23148,697;25,27540
 398,06; 6052,424;  236,981;23373,639;25,13519
 398,65; 6023,966;  205,941;23458,518;25,02099
 399,24; 6123,905;  243,683;23536,997;25,24425
 399,83; 6090,330;  194,622;23620,051;25,16798
 400,42; 6170,601;  238,443;23824,608;25,15101
 401,01; 6252,491;  213,255;23830,301;25,57151
 401,60; 6263,577;  216,171;23998,542;25,42810
 402,19; 6261,168;  255,354;23879,544;25,42231
 402,78; 6303,634;  248,375;23934,850;25,56420
 403,37; 6295,324;  226,902;23692,269;25,86119
 403,96; 6293,540;  235,287;23645,302;25,87890
 404,55; 6275,209;  243,033;23594,873;25,83170
 405,14; 6242,218;  222,417;23427,233;25,94203
 405,73; 6342,497;  229,780;23300,595;26,49545
 406,32; 6329,416;  257,813;23371,112;26,26887
 406,91; 6307,237;  238,582;23024,244;26,63365
 407,50; 6318,219;  242,278;22888,208;26,83017
 408,09; 6286,835;  216,364;22615,792;27,10101
 408,68; 6342,412;  242,712;22474,930;27,43631
 409,27; 6312,100;  233,872;22200,875;27,66981
 409,86; 6340,256;  234,205;22111,040;27,91103
 410,45; 6438,540;  256,274;22096,039;28,30738
 411,04; 6456,005;  270,846;21965,946;28,50948
 411,63; 6467,821;  256,439;21705,992;28,95809
 412,22; 6532,301;  260,398;21608,861;29,37871
 412,81; 6535,627;  282,552;21260,615;29,80769
 413,40; 6450,788;  282,965;21006,921;29,76180
 413,99; 6456,691;  333,579;20695,163;30,07188
 414,58; 6383,252;  232,836;20251,309;30,72370
 415,17; 6402,581;  246,678;20038,927;31,10259
 415,76; 6389,269;  240,645;19927,609;31,23196
 416,35; 6410,618;  235,036;19703,870;31,72035
 416,94; 6511,732;  268,277;19757,020;32,03621
 417,53; 6656,601;  252,805;19892,476;32,60643
 418,12; 6752,912;  250,688;19995,497;32,93131
 418,71; 6987,687;  272,216;20261,828;33,59480
 419,30; 7102,925;  251,691;20352,452;34,08445
 419,89; 7241,876;  246,072;20540,409;34,47170
 420,48; 7386,910;  266,342;20826,563;34,63274
 421,07; 7520,678;  277,348;20984,255;34,98026
 421,66; 7593,156;  238,366;20960,001;35,49329
 422,25; 7662,257;  256,774;20943,538;35,79817
 422,84; 7802,642;  272,406;21027,012;36,28224
 423,43; 7814,610;  256,016;20716,861;36,94175
 424,02; 7796,378;  282,898;20579,303;37,01877
 424,60; 7709,008;  234,188;20062,861;37,69703
 425,19; 7731,286;  264,292;19911,832;38,00473
 425,78; 7824,584;  270,169;19743,271;38,79410
 426,37; 7830,241;  283,559;19572,671;39,12405
 426,96; 7929,819;  256,809;19447,609;39,98275
 427,55; 7901,030;  263,207;19250,936;40,22505
 428,14; 7902,927;  242,217;19090,990;40,64302
 428,73; 7896,550;  249,573;18851,836;41,10778
 429,32; 8028,674;  274,682;18855,060;41,73215
 429,91; 8137,449;  288,824;18916,868;42,13338
 430,50; 8166,402;  294,336;18709,204;42,74843
 431,08; 8177,816;  274,847;18553,696;43,23559
 431,67; 8311,804;  314,108;18483,766;44,01677
 432,26; 8282,866;  342,868;18379,038;44,02264
 432,85; 8287,169;  357,365;18095,068;44,70593
 433,44; 8171,436;  361,880;17750,406;44,91212
 434,03; 8169,822;  376,151;17382,529;45,82793
 434,62; 7974,855;  342,256;16944,485;45,97334
 435,21; 8007,514;  357,867;16680,944;46,86400
 435,79; 7981,991;  356,268;16616,336;46,89847
 436,38; 7974,740;  350,913;16483,006;47,25876
 436,97; 8048,589;  330,166;16346,492;48,19097
 437,56; 8050,169;  349,822;16166,481;48,68504
 438,15; 8067,549;  325,064;16044,320;49,25478
 438,74; 8156,456;  349,317;16075,322;49,64477
 439,33; 8253,170;  322,438;16087,210;50,30667
 439,91; 8410,131;  265,326;16136,266;51,31899
 440,50; 8534,984;  317,078;16109,360;52,03748
 441,09; 8636,450;  314,470;16229,153;52,29121
 441,68; 8681,843;  303,863;16253,743;52,52691
 442,27; 8804,446;  292,105;16275,691;53,25676
 442,86; 8793,857;  257,518;16152,623;53,70420
 443,44; 8945,776;  262,636;16263,680;54,26608
 444,03; 9047,177;  347,769;16362,967;54,31970
 444,62; 9135,533;  278,144;16182,920;55,69012
 445,21; 9099,109;  282,889;16050,480;55,91355
 445,80; 9076,284;  312,660;16036,197;55,73570
 446,39; 9084,990;  354,157;15765,491;56,65203
 446,97; 9000,099;  291,430;15611,475;56,84493
 447,56; 8968,683;  291,073;15358,550;57,59166
 448,15; 8913,126;  287,680;15174,491;57,94019
 448,74; 8901,319;  286,557;15040,102;58,39113
 449,33; 8842,362;  282,070;14826,954;58,85432
 449,91; 8821,833;  276,215;14566,108;59,80183
 450,50; 8753,152;  287,961;14427,824;59,86756
 451,09; 8777,028;  298,589;14193,076;61,02017
 451,68; 8800,910;  320,097;14149,066;61,32643
 452,26; 8819,073;  309,106;14017,681;62,07769
 452,85; 8799,559;  288,225;13987,974;62,12766
 453,44; 8829,107;  297,503;14013,461;62,20203
 454,03; 8867,434;  280,237;13914,997;62,98018
 454,61; 8921,846;  289,755;13882,384;63,50568
 455,20; 9147,424;  313,514;13987,719;64,60273
 455,79; 9151,403;  308,248;14078,145;64,22092
 456,38; 9305,823;  308,279;14167,900;64,91912
 456,97; 9356,669;  288,399;14209,257;65,14160
 457,55; 9422,497;  297,161;14273,093;65,29322
 458,14; 9527,500;  307,771;14195,676;66,38675
 458,73; 9546,986;  301,913;14172,766;66,65108
 459,31; 9576,460;  323,054;14178,402;66,78581
 459,90; 9655,778;  344,795;14248,865;66,96588
 460,49; 9887,967;  404,665;14334,845;68,07738
 461,08; 9889,803;  311,063;14444,173;67,77517
 461,66;10054,015;  320,429;14444,308;68,91581
 462,25;10177,450;  312,320;14537,975;69,34746
 462,84;10221,292;  329,065;14570,096;69,46286
 463,43;10289,374;  274,464;14561,940;70,09572
 464,01;10317,283;  297,097;14613,821;69,98938
 464,60;10381,645;  359,207;14512,842;70,81176
 465,19;10222,265;  288,727;14332,402;70,73318
 465,77;10276,928;  308,486;14315,017;71,16996
 466,36;10330,268;  333,714;14285,487;71,65078
 466,95;10068,816;  308,216;13913,176;71,74295
 467,53;10003,634;  316,871;13665,961;72,56497
 468,12; 9819,905;  332,373;13367,635;72,78359
 468,71; 9764,668;  309,854;13223,294;73,21685
 469,29; 9605,366;  277,376;13006,918;73,27829
 469,88; 9461,994;  297,008;12660,048;74,13214
 470,47; 9497,386;  375,773;12760,011;73,65502
 471,06; 9564,226;  324,899;12680,902;74,77601
 471,64; 9689,966;  320,895;12804,681;75,04992
 472,23; 9694,684;  286,051;12818,998;75,07119
 472,81; 9799,718;  283,911;12907,957;75,37842
 473,40; 9938,965;  303,926;13001,248;75,88245
 473,99;10195,879;  413,676;13166,467;76,70637
 474,57;10237,500;  309,550;13320,982;76,30175
 475,16;10466,414;  326,539;13412,428;77,48710
 475,75;10580,828;  349,437;13589,443;77,27633
 476,33;10699,707;  357,199;13667,076;77,70551
 476,92;10743,919;  333,929;13724,063;77,74373
 477,51;10900,674;  327,319;13845,573;78,21539
 478,09;10973,002;  340,694;13816,135;78,90137
 478,68;11001,484;  333,574;13780,717;79,33217
 479,27;11025,024;  370,188;13760,162;79,57323
 479,85;10927,664;  328,698;13804,747;78,65039
 480,44;11137,064;  320,329;13836,908;80,02569
 481,02;11971,263;  346,340;14914,759;79,79537
 481,61;13636,070;  357,585;16907,396;80,23345
 482,20;14843,486;  346,965;18201,368;81,19297
 482,78;15489,977;  376,077;19038,500;80,98574
 483,37;15939,276;  370,107;19381,863;81,89232
 483,95;16172,348;  398,485;19756,959;81,48298
 484,54;16353,456;  428,583;19988,598;81,41544
 485,13;16473,040;  377,749;19995,218;82,04570
 485,71;16450,683;  345,244;19951,012;82,14643
 486,30;16317,261;  382,744;19788,200;82,11359
 486,88;16184,930;  453,623;19491,530;82,63149
 487,47;15579,224;  409,626;18867,986;82,18281
 488,05;15028,144;  400,632;18064,443;82,81062
 488,64;14062,312;  403,270;16903,545;82,78069
 489,23;12765,360;  415,886;15314,211;82,89170
 489,81;10794,443;  421,639;12926,135;82,95260
 490,40;10041,733;  356,392;12031,856;82,95466
 490,98; 9889,352;  339,272;11776,391;83,50075
 491,57; 9761,415;  385,387;11614,493;83,49755
 492,15; 9746,650;  355,150;11562,205;83,79989
 492,74; 9696,312;  364,758;11436,022;84,28626
 493,32; 9665,203;  377,771;11409,484;84,18849
 493,91; 9590,234;  340,906;11192,881;85,23175
 494,50; 9499,077;  367,678;11201,801;84,28369
 495,08; 9453,303;  337,427;11120,269;84,54057
 495,67; 9569,370;  366,279;11144,207;85,38831
 496,25; 9514,558;  326,042;11037,356;85,78327
 496,84; 9456,991;  300,028;11007,347;85,52059
 497,42; 9453,547;  308,296;10951,656;85,92448
 498,01; 9332,839;  340,656;10814,334;85,85507
 498,59; 9318,536;  299,548;10805,579;85,84582
 499,18; 9271,461;  290,157;10818,225;85,30818
 499,76; 9222,280;  329,917;10765,591;85,21120
 500,35; 9139,755;  320,184;10568,477;86,05892
 500,93; 9103,957;  310,670;10459,765;86,64110
 501,52; 9095,563;  304,172;10379,345;87,25797
 502,10; 9018,648;  334,067;10338,046;86,81127
 502,69; 8963,104;  303,325;10244,863;87,10703
 503,27; 8847,292;  277,429;10056,693;87,63301
 503,86; 8766,263;  315,697; 9985,220;87,39382
 504,44; 8690,140;  284,079; 9831,850;88,04213
 505,03; 8441,160;  263,829; 9704,772;86,61561
 505,61; 8386,858;  290,826; 9526,723;87,65832
 506,19; 8258,234;  302,954; 9396,350;87,48415
 506,78; 8121,169;  266,095; 9180,267;88,11894
 507,36; 8052,847;  291,203; 9002,521;89,09839
 507,95; 7879,632;  297,727; 8892,803;88,21219
 508,53; 7811,927;  297,470; 8765,611;88,73798
 509,12; 7667,737;  285,225; 8578,505;89,01800
 509,70; 7560,840;  314,479; 8487,226;88,66494
 510,29; 7447,249;  314,612; 8355,106;88,70893
 510,87; 7266,513;  285,970; 8190,267;88,31327
 511,46; 7158,143;  282,098; 8048,253;88,53859
 512,04; 6973,188;  286,732; 7882,212;88,03204
 512,62; 6906,346;  288,848; 7717,816;89,07695
 513,21; 6751,339;  274,738; 7582,122;88,63090
 513,79; 6669,195;  281,638; 7431,498;89,33820
 514,38; 6465,379;  265,379; 7294,118;88,20929
 514,96; 6428,238;  313,253; 7226,429;88,45406
 515,54; 6337,002;  255,008; 7052,386;89,47559
 516,13; 6252,327;  295,635; 6927,215;89,82311
 516,71; 6173,592;  294,770; 6855,050;89,61235
 517,30; 6078,399;  263,404; 6686,588;90,53136
 517,88; 5988,348;  285,779; 6603,415;90,26429
 518,46; 5936,397;  265,533; 6560,106;90,09132
 519,05; 5853,485;  279,790; 6476,267;89,94942
 519,63; 5807,027;  280,912; 6432,468;89,83280
 520,22; 5793,938;  296,052; 6354,103;90,75338
 520,80; 5674,935;  280,679; 6277,119;89,95763
 521,38; 5684,212;  328,542; 6297,612;89,72370
 521,97; 5597,773;  261,436; 6190,530;90,00256
 522,55; 5664,714;  286,436; 6155,015;91,64533
 523,13; 5607,536;  266,566; 6130,737;91,07801
 523,72; 5554,596;  287,158; 6116,809;90,35598
 524,30; 5677,988;  305,823; 6299,945;89,62389
 524,89; 5703,020;  263,062; 6203,922;91,56852
 525,47; 5763,665;  295,076; 6358,119;90,19545
 526,05; 5839,009;  256,328; 6436,745;90,32855
 526,64; 5888,518;  297,832; 6495,342;90,20859
 527,22; 6091,692;  287,701; 6633,759;91,45821
 527,80; 6200,034;  318,207; 6738,904;91,60730
 528,39; 6233,645;  274,837; 6806,970;91,22300
 528,97; 6329,093;  289,959; 6967,921;90,43379
 529,55; 6554,201;  305,191; 7123,331;91,65270
 530,14; 6733,181;  313,842; 7300,957;91,87396
 530,72; 6868,421;  276,835; 7352,984;93,15217
 531,30; 6903,053;  268,468; 7502,724;91,71068
 531,89; 7035,514;  297,843; 7657,380;91,55020
 532,47; 7128,867;  313,597; 7725,476;91,95063
 533,05; 7163,830;  313,706; 7800,966;91,49040
 533,63; 7188,895;  311,599; 7804,743;91,78118
 534,22; 7228,453;  281,099; 7847,009;91,82444
 534,80; 7403,941;  318,360; 7965,454;92,65718
 535,38; 7504,233;  425,720; 8115,506;92,05085
 535,97; 7365,984;  304,972; 7977,633;92,02821
 536,55; 7423,708;  362,236; 8131,767;90,88671
 537,13; 7405,693;  378,092; 8036,911;91,75829
 537,71; 7449,947;  404,466; 8143,519;91,03802
 538,30; 7486,576;  424,103; 8166,402;91,21932
 538,88; 7589,781;  471,495; 8289,991;91,04418
 539,46; 7682,883;  537,235; 8454,563;90,25328
 540,05; 7789,967;  563,616; 8615,864;89,74327
 540,63; 7925,354;  596,116; 8770,817;89,65756
 541,21; 8032,536;  638,248; 8968,978;88,75918
 541,79; 8148,371;  673,498; 9084,509;88,87009
 542,38; 8367,970;  707,239; 9211,972;90,07609
 542,96; 8448,370;  717,507; 9311,156;89,96020
 543,54; 8570,309;  747,622; 9565,883;88,71008
 544,12; 8734,005;  726,250; 9690,479;89,33010
 544,70; 8793,355;  719,758; 9753,094;89,37559
 545,29; 8876,943;  728,740; 9937,957;88,47878
 545,87; 8940,871;  704,248; 9907,884;89,49314
 546,45; 8954,419;  648,489; 9982,925;88,98160
 547,03; 9038,472;  627,744; 9984,476;89,88959
 547,62; 9128,559;  590,124;10144,885;89,36315
 548,20; 9301,143;  585,130;10281,061;89,89352
 548,78; 9453,842;  549,902;10371,935;90,65272
 549,36; 9533,169;  503,900;10518,496;90,16109
 549,94; 9692,303;  464,127;10695,293;90,19671
 550,53; 9896,000;  470,272;10949,291;89,94858
 551,11; 9985,168;  429,407;11111,766;89,45366
 551,69;10316,763;  438,650;11318,121;90,79590
 552,27;10474,018;  390,517;11540,959;90,43140
 552,85;10762,464;  399,531;11899,703;90,11111
 553,44;11032,915;  383,149;12187,511;90,21891
 554,02;11320,209;  393,778;12478,217;90,41737
 554,60;11611,395;  349,408;12728,486;90,97598
 555,18;11833,380;  372,900;13172,652;89,53674
 555,76;12241,354;  358,778;13430,139;90,90543
 556,34;12498,612;  359,166;13811,757;90,23872
 556,93;12865,326;  350,776;14137,372;90,77332
 557,51;13093,230;  332,292;14452,538;90,37334
 558,09;13365,017;  363,401;14812,856;89,97998
 558,67;13765,076;  346,798;15241,668;90,08657
 559,25;13966,059;  357,794;15505,728;89,83578
 559,83;14227,964;  341,054;15755,875;90,08804
 560,41;14459,283;  345,913;16080,442;89,69680
 561,00;14709,740;  346,174;16489,387;88,97588
 561,58;14881,463;  324,413;16563,348;89,64288
 562,16;15256,476;  328,032;16965,407;89,72836
 562,74;15519,268;  308,528;17315,357;89,43901
 563,32;15804,636;  312,179;17792,312;88,62894
 563,90;16029,845;  341,299;18130,965;88,18910
 564,48;16344,954;  338,536;18405,628;88,59432
 565,06;16815,618;  338,547;18995,620;88,31541
 565,65;17368,604;  348,689;19649,585;88,18200
 566,23;17906,048;  381,049;20276,653;88,08478
 566,81;18381,230;  339,794;20980,165;87,40849
 567,39;19162,984;  346,431;21802,173;87,69938
 567,97;19688,344;  365,796;22458,963;87,45939
 568,55;20320,479;  382,553;23170,687;87,49258
 569,13;20877,541;  351,799;23945,059;86,99833
 569,71;21584,148;  345,406;24839,719;86,70887
 570,29;22416,978;  387,525;25783,512;86,74384
 570,87;23060,995;  390,279;26499,577;86,83005
 571,45;23465,044;  370,548;27199,667;86,07996
 572,03;23795,696;  328,059;27581,581;86,10864
 572,61;24391,257;  329,428;28315,077;85,97917
 573,20;24907,886;  358,167;28930,414;85,92156
 573,78;25418,905;  342,179;29614,609;85,66671
 574,36;25792,682;  374,176;30059,123;85,62759
 574,94;26020,283;  435,436;30397,989;85,38941
 575,52;26166,198;  358,700;30702,232;85,05107
 576,10;26596,915;  416,319;31146,854;85,19408
 576,68;26908,637;  422,059;31712,815;84,64666
 577,26;27465,434;  427,581;32376,674;84,62792
 577,84;27799,686;  429,427;32885,858;84,32923
 578,42;27953,866;  479,190;33224,038;83,90534
 579,00;27953,550;  421,804;33286,031;83,77421
 579,58;28222,381;  477,311;33485,098;84,05613
 580,16;27898,769;  442,817;33572,180;82,87498
 580,74;28125,918;  439,068;33815,712;82,95277
 581,32;28193,436;  446,813;33925,381;82,87876
 581,90;27962,421;  484,942;33772,821;82,54500
 582,48;28111,914;  455,692;34078,727;82,25379
 583,06;28099,393;  470,812;34136,677;82,06705
 583,64;27966,619;  463,311;34176,270;81,58082
 584,22;27835,632;  474,453;34015,625;81,57491
 584,80;27719,233;  478,065;33754,570;81,86307
 585,38;27258,561;  486,665;33279,584;81,63926
 585,96;27278,828;  456,431;33481,673;81,21787
 586,54;27176,256;  487,700;33365,748;81,17439
 587,12;27180,110;  441,070;33459,448;80,98229
 587,70;27304,977;  473,557;33665,580;80,83695
 588,28;27245,032;  449,070;33657,010;80,69143
 588,86;27258,130;  475,698;33793,747;80,38416
 589,44;27163,327;  449,212;33780,866;80,14638
 590,02;27393,368;  436,209;33938,066;80,46467
 590,59;27534,658;  413,200;34142,639;80,40886
 591,17;27525,648;  408,727;34231,235;80,17419
 591,75;27490,254;  402,843;34401,041;79,67308
 592,33;27721,468;  416,964;34731,804;79,57054
 592,91;27741,479;  360,223;34864,529;79,35605
 593,49;27983,864;  386,605;35125,628;79,44167
 594,07;28141,891;  388,605;35363,643;79,35170
 594,65;27966,339;  423,702;35375,546;78,80167
 595,23;28225,981;  392,208;35751,738;78,71647
 595,81;28273,131;  389,587;35894,271;78,53483
 596,39;28249,991;  383,463;35994,710;78,25204
 596,97;28202,315;  375,598;36123,435;77,84168
 597,55;28179,738;  370,580;36069,705;77,89871
 598,12;28003,888;  360,734;36055,036;77,44417
 598,70;27997,499;  361,601;36142,328;77,23683
 599,28;28168,058;  393,476;36444,469;77,04249
 599,86;28058,053;  378,475;36402,234;76,83701
 600,44;27936,906;  334,229;36487,830;76,34835
 601,02;27964,728;  384,246;36648,951;76,05324
 601,60;27757,227;  380,468;36582,401;75,62237
 602,18;27791,904;  346,733;36604,973;75,69361
 602,75;27648,482;  344,461;36626,614;75,25469
 603,33;27574,347;  362,351;36609,312;75,07387
 603,91;27528,875;  347,865;36622,603;74,93096
 604,49;27405,273;  383,477;36695,110;74,41636
 605,07;27343,926;  397,093;36834,104;73,95457
 605,65;27372,942;  388,856;36923,315;73,85927
 606,23;27337,478;  445,573;37038,731;73,48889
 606,80;27150,443;  499,710;37022,146;72,97085
 607,38;27138,308;  545,862;37053,242;72,84129
 607,96;27164,970;  607,210;37195,161;72,58608
 608,54;26994,028;  669,605;37350,221;71,76658
 609,12;26942,752;  661,336;37309,161;71,71344
 609,70;26838,397;  722,224;37295,108;71,40857
 610,27;26804,118;  714,834;37473,066;70,97535
 610,85;26809,201;  760,849;37533,264;70,83667
 611,43;26559,729;  751,601;37429,156;70,36491
 612,01;26334,035;  716,966;37144,540;70,32329
 612,59;26297,002;  713,849;37295,061;69,93523
 613,16;26167,296;  676,703;37314,344;69,57488
 613,74;25929,280;  653,851;37175,453;69,20679
 614,32;25786,184;  615,106;37026,097;69,13044
 614,90;25696,321;  581,595;36935,027;69,08488
 615,48;25436,508;  494,330;36654,377;68,97717
 616,05;25258,366;  471,701;36613,561;68,58160
 616,63;25026,724;  471,947;36359,746;68,42096
 617,21;24814,974;  471,834;36383,894;67,78542
 617,79;24828,944;  458,838;36259,022;68,07257
 618,36;24635,262;  440,343;36144,135;67,76569
 618,94;24284,340;  387,457;35876,299;67,33633
 619,52;24117,260;  415,699;35566,982;67,42730
 620,10;23873,100;  393,586;35629,396;66,63537
 620,67;23683,783;  398,447;35486,387;66,36279
 621,25;23544,082;  426,468;35403,729;66,09327
 621,83;23346,610;  396,082;35331,721;65,69374
 622,41;23307,414;  440,581;35280,127;65,63471
 622,98;23074,751;  406,822;35033,387;65,46399
 623,56;22905,801;  418,570;35033,557;64,96386
 624,14;22725,580;  379,472;34936,997;64,66351
 624,72;22674,782;  394,456;34824,408;64,71204
 625,29;22650,110;  367,070;34886,698;64,55180
 625,87;22505,108;  410,463;34778,241;64,28884
 626,45;22307,965;  364,193;34685,149;63,93695
 627,02;22276,737;  374,839;34605,976;63,98239
 627,60;22109,309;  379,729;34617,220;63,46721
 628,18;21943,752;  355,336;34654,286;62,94191
 628,76;21955,400;  343,198;34653,544;62,99034
 629,33;21866,480;  373,703;34701,610;62,61022
 629,91;21706,600;  371,586;34558,146;62,40761
 630,49;21733,518;  382,451;34914,577;61,82958
 631,06;21692,818;  355,949;34980,122;61,62420
 631,64;21359,239;  357,194;34895,556;60,80788
 632,22;21230,330;  331,938;34792,053;60,64516
 632,79;21406,014;  351,063;35025,444;60,72192
 633,37;21291,402;  332,842;35120,447;60,24721
 633,95;21267,578;  345,317;35074,571;60,24391
 634,52;21193,059;  327,581;35248,299;59,75100
 635,10;21024,373;  330,460;35270,176;59,22748
 635,68;21082,600;  336,938;35441,350;59,09702
 636,25;20820,757;  319,055;35504,954;58,26681
 636,83;20866,400;  305,948;35652,044;58,16895
 637,41;20714,263;  315,436;35622,192;57,77599
 637,98;20828,654;  361,810;35861,629;57,65337
 638,56;20712,053;  331,802;35973,764;57,18050
 639,13;20558,825;  317,571;36034,339;56,67157
 639,71;20558,916;  376,824;36296,982;56,18598
 640,29;20288,055;  282,574;35962,890;56,06868
 640,86;20276,419;  311,450;36195,663;55,63719
 641,44;20127,282;  302,450;36241,561;55,16228
 642,02;20047,021;  338,576;36201,334;54,95519
 642,59;19909,510;  303,826;36284,607;54,48932
 643,17;19818,999;  319,827;36176,005;54,38162
 643,74;19749,113;  309,577;36347,028;53,94259
 644,32;19541,351;  329,453;36387,676;53,28021
 644,89;19603,965;  329,828;36319,199;53,55508
 645,47;19455,954;  342,454;36372,847;53,04827
 646,05;19337,818;  331,454;36411,370;52,67851
 646,62;19195,806;  307,204;36262,768;52,53318
 647,20;19156,045;  325,830;36468,666;52,09944
 647,77;19018,284;  296,455;36304,939;51,99283
 648,35;18791,398;  304,456;36268,587;51,40383
 648,92;18766,262;  315,331;36217,360;51,39244
 649,50;18681,875;  284,582;36169,008;51,26818
 650,08;18479,489;  285,832;36112,281;50,78275
 650,65;18403,978;  302,333;36239,929;50,36966
 651,23;18621,592;  278,958;36970,327;49,99168
 651,80;18972,330;  278,708;37957,850;49,61265
 652,38;19046,569;  304,584;38374,498;49,23044
 652,95;19196,933;  277,834;38641,521;49,31512
 653,53;19160,297;  295,710;38882,170;48,88914
 654,10;19056,911;  342,210;39053,943;48,34374
 654,68;18923,524;  284,086;38960,341;48,19349
 655,25;18859,263;  276,711;39143,614;47,81074
 655,83;18874,252;  288,212;39261,137;47,68962
 656,40;18807,241;  324,337;39267,910;47,46073
 656,98;18521,105;  290,712;39148,058;46,91621
 657,55;18380,843;  292,088;39112,456;46,59604
 658,13;18167,832;  300,213;38755,104;46,46384
 658,70;17841,321;  314,089;38556,002;45,83252
 659,28;17379,560;  283,714;37828,150;45,53496
 659,85;16861,423;  319,465;36876,423;45,24982
 660,43;16604,662;  322,840;36708,946;44,74736
 661,00;16578,651;  295,591;36919,219;44,46053
 661,58;16550,390;  293,341;37144,867;44,11499
 662,15;16517,129;  284,717;37388,265;43,74895
 662,73;16575,242;  356,717;37639,163;43,50177
 663,30;16528,981;  299,592;37789,561;43,28995
 663,88;16475,595;  307,718;38084,084;42,79892
 664,45;16462,334;  284,218;38152,357;42,72224
 665,03;16488,198;  298,844;38451,130;42,43351
 665,60;16572,061;  388,719;39013,028;41,89937
 666,17;16416,050;  311,095;39130,926;41,48641
 666,75;16491,539;  289,720;39459,324;41,36324
 667,32;16523,653;  319,346;39813,972;41,02914
 667,90;16580,641;  301,596;40034,120;40,97159
 668,47;16536,630;  313,846;40248,143;40,62369
 669,05;16483,369;  302,847;40510,791;40,24210
 669,62;16443,858;  287,597;40722,939;39,95579
 670,19;16413,722;  281,223;40771,337;39,84306
 670,77;16422,585;  282,473;40940,485;39,69725
 671,34;16243,324;  288,224;40983,508;39,20626
 671,92;16288,438;  273,474;41294,781;39,04060
 672,49;16187,427;  308,850;41326,179;38,71187
 673,06;16130,291;  252,350;41468,328;38,52375
 673,64;15986,154;  271,976;41274,726;38,32469
 674,21;15862,893;  277,976;41357,624;37,93829
 674,79;15909,757;  307,976;41600,522;37,78353
 675,36;15792,496;  307,727;41499,170;37,59220
 675,93;15605,359;  271,102;41467,693;37,22215
 676,51;15623,348;  301,853;41709,091;37,00197
 677,08;15502,587;  292,103;41779,989;36,66247
 677,65;15391,576;  285,854;41793,387;36,39272
 678,23;15387,440;  293,854;42134,535;36,07395
 678,80;15315,553;  281,480;42126,683;35,92783
 679,38;15304,292;  299,230;42362,331;35,67274
 679,95;15194,656;  309,230;42702,104;35,11304
 680,52;15236,520;  286,356;42746,627;35,20977
 681,10;15215,884;  310,231;43211,025;34,74447
 681,67;15227,622;  301,607;43432,548;34,60628
 682,24;15051,486;  260,607;43560,321;34,15930
 682,82;15217,725;  275,733;43975,219;34,19260
 683,39;15312,714;  342,233;44347,742;34,01956
 683,96;15201,577;  287,984;44715,140;33,56864
 684,54;15180,691;  265,109;44974,288;33,36134
 685,11;15270,180;  345,734;45251,311;33,23517
 685,68;15238,169;  289,485;45694,459;32,92301
 686,25;15185,283;  268,610;45801,107;32,76050
 686,83;15096,146;  268,986;46040,130;32,39412
 687,40;15085,760;  271,486;46368,403;32,13723
 687,97;15137,749;  320,112;46800,426;31,87938
 688,55;15044,488;  261,987;46780,324;31,77779
 689,12;14999,477;  252,738;47106,097;31,47424
 689,69;14983,090;  251,988;47276,120;31,32669
 690,26;14870,829;  284,114;47282,268;31,03678
 690,84;14792,318;  280,864;47466,291;30,75410
 691,41;14760,057;  292,989;47543,814;30,61760
 691,98;14754,420;  290,990;47849,338;30,41197
 692,56;14657,284;  283,490;47992,486;30,12806
 693,13;14567,648;  333,741;47930,634;29,90512
 693,70;14500,387;  296,616;48156,157;29,67803
 694,27;14448,126;  277,492;48320,430;29,49577
 694,84;14393,489;  274,617;48283,453;29,40890
 695,42;14366,728;  334,368;48461,226;29,15703
 695,99;14261,342;  295,243;48699,999;28,85274
 696,56;14208,206;  299,993;48540,897;28,83075
 697,13;14252,945;  302,744;48925,920;28,69043
 697,71;14081,058;  269,119;48999,193;28,34377
 698,28;14048,047;  283,370;49405,966;28,02107
 698,85;13995,661;  249,370;49296,989;28,02642
 699,42;14013,150;  253,621;49625,012;27,86944
 699,99;13935,638;  312,621;49631,660;27,62223
 700,57;13923,127;  289,622;49586,808;27,65575
 701,14;13809,366;  277,122;49828,706;27,30941
 701,71;13853,855;  306,372;50106,229;27,20386
 702,28;13800,844;  288,998;50036,502;27,16085
 702,85;13723,207;  293,748;50162,275;26,92973
 703,43;13679,821;  316,749;50517,548;26,61924
 704,00;13692,060;  329,124;50576,571;26,59426
 704,57;13606,299;  294,000;50587,469;26,46924
 705,14;13574,788;  317,750;50860,617;26,22929
 705,71;13539,276;  335,126;50856,015;26,13602
 706,28;13421,015;  293,751;50807,788;25,98736
 706,86;13377,504;  335,627;51117,436;25,68218
 707,43;13346,118;  356,002;51008,084;25,64577
 708,00;13192,231;  347,377;51065,857;25,32579
 708,57;13176,470;  316,378;50978,380;25,38410
 709,14;13090,584;  321,753;51090,278;25,15108
 709,71;13001,448;  311,754;51182,301;24,94507
 710,28;12965,312;  300,254;51321,824;24,82295
 710,86;12920,800;  324,255;51582,972;24,57445
 711,43;12970,039;  344,755;51464,246;24,69759
 712,00;12849,028;  306,631;51554,269;24,47410
 712,57;12850,142;  318,881;51784,167;24,34896
 713,14;12775,131;  310,381;51844,315;24,18746
 713,71;12633,494;  316,382;51749,463;23,94784
 714,28;12621,358;  308,132;51931,111;23,85222
 714,85;12467,972;  286,008;51683,759;23,70136
 715,42;12429,211;  295,758;51733,157;23,58878
 716,00;12463,449;  360,259;51956,430;23,45754
 716,57;12399,813;  276,259;52042,203;23,41994
 717,14;12329,802;  291,885;52019,101;23,27192
 717,71;12242,041;  274,885;52054,749;23,11160
 718,28;12233,405;  321,636;52231,647;22,94696
 718,85;12146,018;  273,136;52118,545;22,90055
 719,42;12187,882;  296,261;52376,568;22,83324
 719,99;12063,121;  263,762;52071,091;22,77546
 720,56;12120,860;  295,762;52425,364;22,68404
 721,13;12024,724;  277,638;52591,262;22,45512
 721,70;11996,337;  285,388;52369,535;22,48467
 722,27;11928,451;  299,264;52396,308;22,32216
 722,84;11944,440;  368,264;52681,081;22,12876
 723,41;11824,679;  279,140;52583,854;22,07361
 723,98;11827,667;  282,890;52802,377;21,98189
 724,55;11881,906;  305,265;52910,900;22,00647
 725,12;11708,145;  246,516;52940,923;21,75113
 725,69;11688,009;  283,766;53179,571;21,55982
 726,27;11673,998;  298,642;53126,469;21,53289
 726,84;11803,361;  293,642;53352,242;21,69247
 727,41;11776,600;  306,768;53391,515;21,60664
 727,98;11726,339;  296,518;53660,038;21,41879
 728,55;11725,078;  334,519;53580,186;21,39246
 729,12;11605,942;  275,394;53601,084;21,24782
 729,69;11673,305;  310,269;53876,107;21,21321
 730,26;11686,669;  302,770;54065,006;21,17453
 730,82;11541,283;  288,520;54019,904;20,94263
 731,39;11598,022;  302,146;54016,427;21,02956
 731,96;11593,760;  279,021;54388,575;20,91080
 732,53;11627,249;  308,022;54627,473;20,83826
 733,10;11578,988;  309,522;54698,121;20,72027
 733,67;11603,602;  314,273;54980,519;20,65137
 734,24;11515,841;  288,773;54620,042;20,66410
 734,81;11531,579;  327,149;54793,065;20,57145
 735,38;11407,318;  301,274;54538,713;20,47671
 735,95;11414,557;  285,899;54446,986;20,54733
 736,52;11359,296;  305,275;54654,509;20,33887
 737,09;11275,410;  316,650;54377,032;20,27133
 737,66;11406,273;  371,526;54601,805;20,34795
 738,23;11419,512;  307,776;54618,953;20,45939
 738,80;11367,376;  365,527;54814,351;20,20585
 739,37;11345,865;  337,277;55003,124;20,13796
 739,94;11405,853;  303,403;55125,022;20,25196
 740,51;11479,717;  426,778;55155,170;20,19599
 741,07;11383,456;  298,028;55179,818;20,19874
 741,64;11378,445;  355,029;55282,966;20,06887
 742,21;11415,934;  310,904;55248,489;20,21390
 742,78;11332,422;  289,405;55257,012;20,09005
 743,35;11411,536;  295,030;55337,035;20,19640
 743,92;11404,775;  347,531;55591,308;20,01537
 744,49;11421,014;  334,906;55353,331;20,14981
 745,06;11353,503;  303,407;55281,354;20,09914
 745,63;11353,616;  288,782;55351,752;20,09487
 746,19;11409,355;  303,658;55344,775;20,17709
 746,76;11353,719;  300,408;55377,923;20,06864
 747,33;11379,833;  300,783;55335,571;20,13099
 747,90;11432,821;  329,909;55570,344;20,09925
 748,47;11362,185;  315,034;55503,617;20,01709
 749,04;11373,299;  313,535;55530,640;20,02960
 749,61;11361,538;  336,535;55599,789;19,94997
 750,17;11383,777;  349,536;55701,812;19,93457
 750,74;11353,890;  319,911;55566,710;19,97216
 751,31;11251,754;  291,787;55396,858;19,88922
 751,88;11257,493;  293,662;55242,881;19,95266
 752,45;11274,607;  294,037;55405,654;19,92424
 753,02;11242,471;  329,663;55378,177;19,82398
 753,58;11147,334;  303,413;55347,575;19,70040
 754,15;11240,948;  307,539;55378,848;19,85319
 754,72;11182,437;  305,039;55070,746;19,86170
 755,29;11122,051;  284,790;54946,644;19,82600
 755,86;11183,039;  287,665;55141,042;19,86272
 756,42;11209,153;  318,041;55009,065;19,91389
 756,99;11192,267;  274,916;55078,588;19,92084
 757,56;11174,756;  279,541;54976,861;19,91910
 758,13;11201,745;  217,417;54791,509;20,12737
 758,70;11252,858;  258,917;54846,032;20,14018
 759,26;11269,847;  270,918;54975,680;20,10598
 759,83;11339,211;  277,168;55085,203;20,18325
 760,40;11314,075;  257,919;55051,726;20,17775
 760,97;11311,439;  237,044;55103,374;20,18432
 761,53;11350,552;  233,170;54726,272;20,40145
 762,10;11412,916;  222,795;54644,420;20,56190
 762,67;11392,905;  264,421;54679,193;20,45122
 763,24;11258,269;  218,296;54202,341;20,45044
 763,80;11320,257;  253,171;54363,364;20,45287
 764,37;11337,871;  257,797;54371,387;20,47559
 764,94;11277,485;  234,547;53955,285;20,55619
 765,50;11283,599;  239,048;53921,933;20,57369
 766,07;11352,838;  280,423;54013,831;20,60620
 766,64;11329,451;  267,424;53652,354;20,72126
 767,21;11308,440;  270,549;53620,252;20,68970
 767,77;11344,804;  286,050;53446,525;20,80259
 768,34;11335,043;  289,050;53410,424;20,79388
 768,91;11310,782;  301,925;53276,072;20,78156
 769,47;11355,395;  295,301;53384,470;20,83305
 770,04;11295,259;  295,801;53232,368;20,77856
 770,61;11325,998;  272,302;52951,266;20,98313
 771,18;11258,362;  266,927;52910,789;20,87885
 771,74;11387,475;  290,053;53126,187;21,00347
 772,31;11425,214;  287,428;52743,085;21,23276
 772,88;11319,328;  247,679;52519,358;21,18097
 773,44;11264,817;  271,804;52427,381;21,07735
 774,01;11385,181;  285,429;52609,029;21,21366
 774,58;11404,544;  274,555;52070,177;21,48828
 775,14;11448,533;  257,555;52260,325;21,51996
 775,71;11444,647;  272,056;52224,098;21,50559
 776,27;11494,636;  320,056;52094,996;21,58299
 776,84;11557,125;  363,807;52179,269;21,60227
 777,41;11490,238;  294,682;51862,792;21,71023
 777,97;11456,727;  277,558;51629,940;21,76952
 778,54;11496,716;  283,808;51722,338;21,79866
 779,11;11567,330;  318,309;51829,486;21,83802
 779,67;11619,068;  289,934;51613,759;22,07383
 780,24;11675,307;  295,309;51413,157;22,26228
 780,80;11672,046;  296,810;51356,055;22,27850
 781,37;11753,410;  289,310;51356,328;22,44913
 781,94;11741,274;  293,186;51175,226;22,49927
 782,50;11743,512;  292,436;51084,749;22,54490
 783,07;11768,376;  311,312;51102,772;22,55707
 783,63;11776,490;  288,062;51079,170;22,61897
 784,20;11788,854;  287,188;50844,943;22,74956
 784,77;11789,717;  288,813;50769,216;22,78291
 785,33;11800,081;  264,938;50504,239;22,96040
 785,90;11824,570;  284,689;50605,637;22,93256
 786,46;11787,059;  303,439;50423,660;22,91215
 787,03;11822,173;  280,565;50221,558;23,11049
 787,59;11865,036;  284,190;50098,707;23,24793
 788,16;11901,650;  294,816;50187,355;23,26367
 788,73;11966,139;  303,941;50058,128;23,43963
 789,29;11894,253;  276,192;49704,276;23,50498
 789,86;11962,367;  308,567;49612,299;23,63675
 790,42;11921,730;  285,943;49536,822;23,62554
 790,99;11905,594;  310,443;49118,720;23,75653
 791,55;11928,958;  282,318;49117,368;23,84894
 792,12;12031,822;  324,819;49157,266;23,97382
 792,68;11920,685;  297,694;48807,289;23,96019
 793,25;11965,424;  285,445;48599,812;24,17496
 793,81;12048,413;  368,070;48284,085;24,37670
 794,38;11894,402;  254,571;48050,608;24,35313
 794,94;11914,766;  274,571;47933,756;24,42382
 795,51;11955,879;  284,947;47759,529;24,58354
 796,07;11957,993;  285,572;47600,302;24,66974
 796,64;11999,732;  294,447;47582,575;24,75311
 797,20;11962,846;  295,448;47264,598;24,84056
 797,77;11940,960;  253,073;46810,996;25,10397
 798,33;11934,698;  293,449;46616,144;25,13077
 798,90;11959,687;  299,824;46613,667;25,17576
 799,46;11928,301;  276,575;46204,065;25,36983
 800,03;11907,540;  285,450;46082,838;25,37719
 800,59;11978,278;  303,076;45922,986;25,59234
 801,15;12003,767;  307,326;45651,884;25,79459
 801,72;11926,381;  290,951;45333,157;25,83228
 802,28;11933,495;  319,702;45032,805;25,97403
 802,85;11947,984;  296,452;44956,578;26,08934
 803,41;11944,847;  277,703;44739,351;26,24092
 803,98;11980,711;  284,953;44325,249;26,55695
 804,54;11924,075;  278,579;44070,647;26,59271
 805,11;11947,939;  297,454;43951,795;26,68803
 805,67;11997,678;  308,830;43792,443;26,88104
 806,23;11879,166;  306,705;43382,592;26,86529
 806,80;11990,155;  317,331;43176,615;27,23523
 807,36;11974,394;  305,331;43235,263;27,18165
 807,93;11968,883;  322,581;42844,536;27,38891
 808,49;11933,871;  274,957;42587,809;27,55407
 809,05;11944,610;  266,582;42414,707;27,70711
 809,62;12003,474;  292,958;42395,230;27,81445
 810,18;12013,588;  286,458;42319,878;27,89954
 810,74;11943,452;  260,459;42027,276;27,97195
 811,31;11946,690;  251,834;41764,049;28,17208
 811,87;12032,804;  287,460;41595,322;28,43368
 812,44;12090,418;  309,460;41703,720;28,46037
 813,00;12012,532;  230,710;41293,368;28,69230
 813,56;12172,021;  282,711;41415,641;28,90460
 814,13;12190,509;  276,461;41289,914;29,04912
 814,69;12224,498;  280,087;41046,437;29,29968
 815,25;12117,862;  234,837;40675,585;29,38379
 815,82;12196,226;  282,713;40590,108;29,55664
 816,38;12219,589;  313,713;40538,881;29,59808
 816,94;12106,078;  274,589;40158,029;29,66517
 817,51;12096,942;  257,714;39859,927;29,89537
 818,07;12080,681;  257,839;39667,700;29,99970
 818,63;12120,170;  289,840;39498,473;30,17277
 819,20;12196,658;  266,340;39398,871;30,48696
 819,76;12089,522;  246,466;39101,644;30,47999
 820,32;12155,636;  280,841;39011,042;30,66030
 820,89;12153,250;  288,092;38736,065;30,86029
 821,45;12072,864;  267,217;38466,088;30,90575
 822,01;12046,852;  265,093;38158,111;31,09216
 822,57;12062,841;  279,468;38189,759;31,08225
 823,14;12084,330;  239,344;37857,282;31,48760
 823,70;12137,819;  272,094;37686,305;31,71449
 824,26;12077,682;  266,219;37482,953;31,73697
 824,82;12164,546;  286,220;37313,476;32,07995
 825,39;12067,285;  263,595;37000,625;32,13022
 825,95;12173,774;  268,221;37130,398;32,29748
 826,51;12176,263;  286,471;36660,296;32,68777
 827,08;12231,251;  319,847;36759,944;32,68763
 827,64;12218,240;  278,597;36610,092;32,86307
 828,20;12175,229;  251,723;36290,115;33,08557
 828,76;12266,218;  294,848;36350,638;33,20235
 829,32;12340,207;  301,473;36122,411;33,60809
 829,89;12260,820;  252,224;36009,559;33,58359
 830,45;12345,809;  278,349;35833,582;33,94004
 831,01;12354,423;  277,725;35798,230;33,99923
 831,57;12378,662;  271,850;35675,003;34,19699
 832,14;12493,650;  253,101;35576,526;34,65278
 832,70;12426,139;  235,976;35404,174;34,66246
 833,26;12414,378;  230,227;35218,322;34,82371
 833,82;12536,492;  264,477;35142,345;35,18568
 834,38;12487,231;  250,978;35230,493;34,98120
 834,95;12551,969;  260,603;35090,141;35,29006
 835,51;12556,208;  235,103;35008,414;35,43265
 836,07;12637,322;  270,229;35057,937;35,55018
 836,63;12678,311;  283,979;34973,960;35,72885
 837,19;12740,300;  291,105;34833,483;36,04035
 837,75;12701,163;  221,230;34505,131;36,40173
 838,32;12798,152;  287,481;34618,779;36,44101
 838,88;12851,391;  280,481;34716,177;36,50546
 839,44;12869,255;  288,982;34549,450;36,71950
 840,00;12883,368;  274,607;34511,348;36,82816
 840,56;12866,732;  262,982;34225,496;37,11077
 841,12;12896,846;  251,233;34224,894;37,22181
 841,68;12885,460;  230,358;33893,042;37,59386
 842,25;12997,199;  252,234;34014,440;37,74921
 842,81;12938,312;  245,234;33837,963;37,78519
 843,37;12988,051;  234,735;33749,111;38,05327
 843,93;13080,040;  270,360;33702,760;38,31517
 844,49;13115,904;  279,986;33763,033;38,33557
 845,05;13118,143;  222,736;33538,806;38,70627
 845,61;13148,506;  284,111;33659,704;38,54432
 846,17;13200,745;  247,362;33445,477;39,01843
 846,73;13279,109;  265,487;33395,500;39,28046
 847,29;13170,723;  245,363;33244,023;39,16935
 847,86;13268,461;  256,363;33235,796;39,45519
 848,42;13267,450;  253,989;32993,694;39,74826
 848,98;13272,564;  260,864;32951,092;39,80303
 849,54;13341,178;  247,240;33001,615;39,97615
 850,10;13352,292;  266,490;32797,013;40,22623
 850,66;13362,405;  243,741;32648,661;40,48356
 851,22;13340,269;  228,616;32741,809;40,32718
 851,78;13447,633;  286,241;32630,707;40,69132
 852,34;13400,872;  272,867;32366,480;40,90535
 852,90;13380,361;  247,742;32345,253;40,91476
 853,46;13369,474;  258,993;32266,151;40,96109
 854,02;13531,588;  253,493;32184,174;41,58413
 854,58;13466,827;  254,494;31899,447;41,75179
 855,14;13540,191;  246,744;31813,345;42,11238
 855,70;13499,679;  224,870;31658,118;42,23175
 856,26;13602,293;  264,620;31672,141;42,46649
 856,82;13586,657;  257,245;31568,914;42,57011
 857,38;13604,521;  282,746;31440,062;42,75649
 857,94;13565,510;  252,996;31288,835;42,89400
 858,50;13697,498;  285,622;31094,608;43,53235
 859,06;13637,737;  232,997;30921,131;43,68053
 859,62;13649,601;  276,498;30964,779;43,57723
 860,18;13645,215;  260,748;30862,302;43,73787
 860,74;13657,454;  230,249;30585,200;44,23399
 861,30;13646,067;  227,499;30472,098;44,36682
 861,86;13829,056;  316,875;30517,371;44,74159
 862,42;13786,795;  260,500;30274,894;45,06603
 862,98;13809,909;  285,625;30344,668;44,99240
 863,54;13771,022;  263,876;30064,816;45,32457
 864,10;13868,136;  259,251;30079,839;45,63587
 864,66;13844,875;  241,127;29868,987;45,91539
 865,22;13790,614;  240,377;29722,385;45,96104
 865,78;13853,478;  257,253;29662,158;46,23795
 866,34;13901,966;  234,378;29471,431;46,74749
 866,90;13814,080;  247,254;29380,204;46,56867
 867,45;13895,944;  249,754;29259,227;47,04046
 868,01;13873,183;  262,879;29116,750;47,16977
 868,57;13838,672;  246,880;28889,273;47,45341
 869,13;13858,035;  229,755;28812,671;47,67981
 869,69;13972,274;  238,381;28766,319;48,14191
 870,25;13885,513;  223,881;28501,092;48,31322
 870,81;13956,752;  250,132;28594,365;48,35770
 871,37;13990,990;  258,507;28440,763;48,72741
 871,93;14008,979;  269,508;28325,911;48,97089
 872,49;14001,718;  291,133;28027,684;49,43147
 873,04;13960,582;  235,508;27799,082;49,79424
 873,60;13910,946;  242,259;27761,105;49,67028
 874,16;13980,434;  270,134;27678,378;50,02254
 874,72;14005,434;  257,759;27574,003;50,32784
 875,28;14022,684;  255,634;27548,378;50,44216
 875,84;14061,559;  250,759;27388,003;50,89242
 876,40;14074,934;  235,259;27368,753;51,00587
 876,95;14144,059;  270,259;27426,128;51,08951
 877,51;14229,184;  281,009;27443,628;51,35063
 878,07;14248,934;  294,259;27361,878;51,55487
 878,63;14306,684;  251,259;27411,753;51,74952
 879,19;14469,559;  266,384;27291,628;52,55522
 879,75;14408,809;  241,009;27423,878;52,12033
 880,30;14509,809;  244,509;27399,378;52,53312
 880,86;14718,434;  301,134;27534,628;52,93959
 881,42;14774,434;  233,009;27552,503;53,22729
 881,98;14877,184;  260,759;27569,628;53,52263
 882,54;15014,434;  250,259;27762,378;53,66426
 883,09;15154,059;  262,884;27892,003;53,89667
 883,65;15182,309;  244,134;27990,503;53,83831
 884,21;15414,309;  292,884;28238,128;54,11091
 884,77;15541,309;  240,759;28121,878;54,87782
 885,32;15682,184;  257,259;28303,628;54,99794
 885,88;15855,309;  291,509;28606,253;54,96712
 886,44;15975,309;  270,009;28655,253;55,32910
 887,00;16048,809;  276,509;28478,503;55,92619
 887,56;16261,059;  253,634;28735,378;56,20241
 888,11;16338,809;  263,634;28811,503;56,30954
 888,67;16513,934;  303,509;28942,128;56,60338
 889,23;16577,309;  259,634;28870,128;57,03388
 889,79;16645,559;  238,259;28843,503;57,35767
 890,34;16666,434;  270,509;28832,003;57,40570
 890,90;16948,309;  340,259;29040,753;57,86677
 891,46;16796,309;  243,634;28789,878;57,98547
 892,01;17013,059;  262,759;28743,628;58,81246
 892,57;16983,809;  272,009;28809,253;58,56137
 893,13;16981,309;  230,009;28569,378;59,10964
 893,69;17068,309;  250,009;28504,503;59,52434
 894,24;17065,309;  259,509;28454,378;59,60588
 894,80;16988,934;  258,134;28242,378;59,78650
 895,36;17005,309;  257,884;28222,128;59,88871
 895,91;16923,559;  242,884;27902,003;60,30805
 896,47;16968,059;  274,634;27778,378;60,69510
 897,03;16882,184;  240,384;27576,753;60,87787
 897,58;16911,809;  263,634;27518,253;61,08387
 898,14;16836,434;  276,634;27360,753;61,14210
 898,70;16825,684;  226,759;27240,253;61,44679
 899,25;16811,059;  262,509;27187,253;61,46224
 899,81;16904,934;  280,384;26960,503;62,31063
 900,37;16682,684;  226,634;26767,128;62,00356
 900,92;16704,809;  252,009;26852,753;61,85090
 901,48;16757,434;  248,509;26677,378;62,46550
 902,03;16613,934;  240,634;26584,128;62,15311
 902,59;16610,184;  236,009;26463,503;62,43134
 903,15;16685,684;  273,384;26409,253;62,79608
 903,70;16570,934;  255,134;26077,503;63,18475
 904,26;16518,809;  247,259;25967,003;63,26482
 904,82;16627,934;  244,509;25982,878;63,65370
 905,37;16586,684;  250,134;25797,128;63,94705
 905,93;16539,934;  236,759;25589,003;64,30664
 906,48;16533,434;  269,259;25615,253;64,16862
 907,04;16574,809;  268,384;25577,878;64,42810
 907,60;16556,434;  256,384;25384,503;64,86777
 908,15;16567,934;  236,384;25188,503;65,45156
 908,71;16658,309;  268,009;25178,378;65,79710
 909,26;16496,059;  246,009;25020,253;65,59252
 909,82;16488,934;  257,759;24899,628;65,86828
 910,37;16509,559;  294,509;24955,003;65,75314
 910,93;16439,684;  233,134;24603,128;66,50207
 911,48;16327,184;  233,384;24536,378;66,22147
 912,04;16428,934;  237,009;24384,628;67,05392
 912,60;16467,184;  232,134;24362,003;67,28197
 913,15;16478,934;  252,259;24192,878;67,77885
 913,71;16261,934;  234,634;23992,253;67,46173
 914,26;16252,434;  223,259;23946,878;67,56632
 914,82;16360,309;  256,509;23871,628;68,19275
 915,37;16335,934;  232,634;23710,003;68,59074
 915,93;16507,434;  304,259;23696,003;69,26878
 916,48;16276,309;  236,759;23541,128;68,82637
 917,04;16298,434;  258,134;23497,003;69,02358
 917,59;16304,434;  280,509;23373,003;69,39019
 918,15;16206,559;  219,009;23159,128;69,69253
 918,70;16290,184;  254,759;23074,003;70,27150
 919,26;16305,809;  256,009;23019,128;70,50791
 919,81;16286,434;  237,884;22797,628;71,13800
 920,37;16271,684;  250,384;22774,128;71,13072
 920,92;16253,684;  269,384;22682,628;71,31632
 921,48;16184,559;  243,634;22514,378;71,57787
 922,03;16256,934;  223,384;22542,503;71,83774
 922,59;16237,934;  257,509;22375,003;72,25242
 923,14;16175,309;  253,884;22156,253;72,69271
 923,69;16166,934;  263,384;22180,628;72,56182
 924,25;16320,059;  275,259;22133,003;73,40556
 924,80;16165,184;  237,759;21890,003;73,56016
 925,36;16178,184;  241,384;21806,878;73,89954
 925,91;16135,434;  243,884;21630,003;74,30778
 926,47;16134,684;  212,384;21562,503;74,57710
 927,02;16199,809;  309,009;21570,128;74,74113
 927,57;16089,434;  242,259;21285,378;75,30811
 928,13;16130,934;  230,259;21367,003;75,22765
 928,68;16157,934;  233,259;21214,128;75,90093
 929,24;16009,934;  214,759;21045,628;75,82581
 929,79;16066,184;  219,509;20830,128;76,88597
 930,34;15945,934;  245,259;20796,378;76,39815
 930,90;16054,434;  238,634;20702,128;77,28788
 931,45;16093,809;  253,009;20658,003;77,63198
 932,01;16039,059;  250,384;20551,628;77,77196
 932,56;15933,184;  267,634;20470,003;77,54313
 933,11;16020,559;  267,884;20446,628;78,06569
 933,67;15896,559;  229,259;20221,628;78,36640
 934,22;15943,684;  250,259;20171,003;78,77931
 934,77;15942,184;  254,384;20040,753;79,28590
 935,33;15886,184;  237,259;20014,753;79,12491
 935,88;15869,934;  249,759;19904,753;79,47179
 936,43;15870,309;  245,509;19795,128;79,92381
 936,99;15884,559;  235,884;19691,878;80,43113
 937,54;15755,434;  217,259;19403,378;80,98655
 938,09;15795,809;  253,884;19535,878;80,60331
 938,65;15831,934;  254,634;19403,378;81,34894
 939,20;15775,059;  211,884;19236,628;81,80491
 939,75;15748,684;  223,134;19270,753;81,50914
 940,31;15727,684;  227,634;19060,128;82,30482
 940,86;15766,309;  243,259;19067,378;82,46362
 941,41;15848,184;  331,009;19018,878;83,03341
 941,96;15676,684;  229,509;18780,503;83,26872
 942,52;15716,434;  251,009;18697,628;83,83881
 943,07;15569,434;  218,134;18676,128;83,16884
 943,62;15603,559;  226,259;18607,503;83,65756
 944,18;15653,809;  221,384;18586,378;84,03175
 944,73;15619,434;  245,259;18394,253;84,71089
 945,28;15464,184;  207,634;18279,003;84,42388
 945,83;15526,184;  234,134;18219,378;85,02554
 946,39;15622,184;  230,384;18248,128;85,42579
 946,94;15580,309;  261,009;18027,753;86,22458
 947,49;15464,309;  236,509;17966,753;85,88602
 948,04;15563,184;  275,009;18014,128;86,18340
 948,59;15599,059;  268,384;17873,253;87,08202
 949,15;15562,309;  231,884;17804,503;87,24041
 949,70;15407,434;  234,259;17653,503;87,10582
 950,25;15380,184;  248,884;17706,878;86,67262
 950,80;15403,059;  205,759;17511,628;87,81587
 951,36;15347,059;  217,884;17507,128;87,50629
 951,91;15476,809;  253,009;17470,503;88,42053
 952,46;15285,434;  222,509;17188,628;88,78239
 953,01;15307,934;  250,134;17225,128;88,70578
 953,56;15274,434;  213,634;17122,753;89,06910
 954,11;15312,434;  243,884;17078,753;89,50797
 954,67;15240,059;  223,009;16969,128;89,67481
 955,22;15206,934;  224,384;16796,378;90,40886
 955,77;15352,809;  253,509;16719,628;91,69921
 956,32;15215,809;  288,634;16633,628;91,32567
 956,87;15149,434;  225,384;16514,753;91,61834
 957,42;15191,309;  231,384;16456,628;92,20154
 957,98;15135,559;  232,509;16379,378;92,29684
 958,53;15241,684;  265,634;16353,253;93,09053
 959,08;15134,559;  224,634;16219,128;93,21911
 959,63;15104,309;  233,634;16169,003;93,31868
 960,18;15123,434;  244,384;16146,878;93,56426
 960,73;15137,434;  234,634;16087,128;94,00918
 961,28;15042,434;  203,384;15994,628;93,97012
 961,83;15119,934;  266,759;15909,253;94,95401
 962,39;14981,059;  227,259;15738,003;95,11987
 962,94;14958,684;  249,134;15684,003;95,30078
 963,49;14845,809;  234,884;15612,003;95,01731
 964,04;14842,559;  252,884;15539,503;95,44082
 964,59;14872,059;  203,759;15504,378;95,86736
 965,14;14814,809;  250,509;15330,128;96,58268
 965,69;14768,309;  235,134;15311,378;96,39785
 966,24;14697,184;  221,134;15202,003;96,63024
 966,79;14721,559;  252,884;15151,128;97,11665
 967,34;14519,684;  203,259;14946,253;97,10663
 967,89;14593,059;  234,634;14840,753;98,30418
 968,44;14532,684;  250,884;14788,878;98,23776
 968,99;14553,934;  256,259;14732,253;98,76818
 969,55;14518,184;  242,884;14691,128;98,80301
 970,10;14479,184;  234,884;14614,628;99,05809
 970,65;14462,434;  262,759;14470,378;99,94409
 971,20;14383,434;  225,009;14369,878;100,09584
 971,75;14263,184;  217,884;14270,753;99,94614
 972,30;14301,684;  245,009;14232,503;100,49459
 972,85;14139,059;  233,509;14126,628;100,08948
 973,40;14229,559;  220,509;13932,253;102,16826
 973,95;14171,684;  237,884;13944,253;101,65931
 974,50;14145,309;  265,884;13852,253;102,15699
 975,05;14101,934;  245,759;13745,753;102,63838
 975,60;14090,809;  260,884;13712,128;102,81521
 976,15;14069,434;  228,884;13604,628;103,47499
 976,70;13977,809;  239,134;13528,503;103,38095
 977,25;13949,434;  252,634;13442,003;103,84727
 977,80;13885,434;  228,009;13275,003;104,67871
 978,35;13761,809;  254,884;13120,753;104,98261
 978,89;13688,934;  210,134;13086,628;104,67756
 979,44;13765,559;  248,134;13051,753;105,57504
 979,99;13548,809;  214,509;12875,128;105,32108
 980,54;13529,559;  261,009;12754,628;106,20262
 981,09;13453,434;  267,759;12682,628;106,20873
 981,64;13369,309;  252,759;12533,003;106,81018
 982,19;13342,684;  269,759;12554,128;106,41918
 982,74;13207,934;  248,759;12370,003;106,91291
 983,29;13158,934;  237,884;12254,378;107,52762
 983,84;13078,434;  240,509;12178,503;107,53838
 984,39;13116,184;  335,759;12094,003;108,69332
 984,94;12913,559;  220,259;11988,128;107,86405
 985,49;12850,309;  262,884;11895,878;108,20452
 986,03;12801,184;  260,634;11798,878;108,68682
 986,58;12676,934;  293,884;11771,503;107,88867
 987,13;12562,809;  246,259;11579,128;108,67990
 987,68;12537,809;  253,509;11507,503;109,15503
 988,23;12545,309;  263,509;11439,503;109,89448
 988,78;12416,309;  232,884;11302,628;110,06059
 989,33;12285,309;  254,509;11168,253;110,23532
 989,88;12359,934;  285,134;11193,503;110,69299
 990,42;12230,684;  244,259;10999,128;111,45115
 990,97;12154,684;  243,759;10884,503;111,93696
 991,52;12116,809;  265,884;10848,378;111,98613
 992,07;12067,434;  280,634;10702,003;113,10223
 992,62;12020,559;  247,134;10623,128;113,46793
 993,17;11941,809;  259,634;10504,003;114,03509
 993,71;11890,184;  260,509;10500,253;113,57389
 994,26;11689,559;  233,259;10249,128;114,38149
 994,81;11681,934;  277,509;10310,253;113,67205
 995,36;11574,309;  243,134;10066,503;115,34918
 995,91;11521,434;  241,009;10022,253;115,32710
 996,45;11454,434;  262,259; 9928,878;115,78169
 997,00;11318,059;  235,384; 9768,628;116,25293
 997,55;11262,809;  250,634; 9720,753;116,28339
 998,10;11174,684;  271,134; 9657,253;116,16676
 998,65;11153,309;  240,134; 9575,003;116,90764
 999,19;10960,934;  273,384; 9418,378;116,86777
 999,74;10832,309;  296,634; 9336,253;116,54999
1000,29;10737,809;  248,134; 9231,878;116,76285
1000,84;10611,434;  260,384; 9129,378;116,71053
1001,38;10547,934;  257,509; 9017,628;117,46901
1001,93;10568,309;  261,384; 8967,378;118,38884
1002,48;10309,309;  231,634; 8805,128;117,54455
1003,03;10346,559;  262,509; 8742,128;118,92103
1003,57;10201,059;  246,509; 8670,753;118,16550
1004,12;10222,434;  298,384; 8602,003;119,51476
1004,67;10027,059;  238,634; 8466,003;118,97394
1005,22; 9860,934;  243,509; 8329,503;118,93931
1005,76; 9752,184;  233,884; 8179,378;119,79495
1006,31; 9736,934;  261,634; 8210,128;119,20875
1006,86; 9663,559;  241,384; 8008,878;121,30264
1007,40; 9532,059;  227,884; 7869,878;121,75062
1007,95; 9468,059;  253,009; 7873,503;120,92458
1008,50; 9287,934;  257,759; 7767,753;120,24211
1009,04; 9233,684;  249,509; 7615,503;121,96827
1009,59; 9055,309;  249,884; 7503,128;121,39982
1010,14; 8939,684;  231,384; 7368,753;122,00995
1010,68; 8856,434;  251,509; 7250,003;122,95396
1011,23; 8798,559;  250,259; 7134,003;124,18097
1011,78; 8664,059;  266,259; 7093,128;123,01101
1012,32; 8590,684;  278,509; 7000,253;123,66099
1012,87; 8521,684;  271,009; 6989,378;122,80771
1013,42; 8408,809;  235,384; 6848,503;123,59411
1013,96; 8454,184;  275,759; 6864,128;124,13429
1014,51; 8281,059;  214,259; 6725,128;123,89744
1015,06; 8267,059;  221,259; 6773,628;122,79223
1015,60; 8421,434;  291,134; 6803,253;124,84877
1016,15; 8407,559;  236,009; 6754,753;125,35467
1016,69; 8425,684;  247,134; 6759,253;125,58969
1017,24; 8447,309;  218,259; 6711,378;126,73494
1017,79; 8557,934;  287,259; 6827,503;126,45821
1018,33; 8554,309;  252,509; 6727,253;128,21820
1018,88; 8575,059;  259,384; 6856,503;126,05010
1019,42; 8627,059;  233,009; 6879,628;126,29053
1019,97; 8610,309;  232,634; 6881,003;126,01099
1020,51; 8745,559;  273,884; 6943,003;127,02840
1021,06; 8712,809;  234,634; 6865,003;127,86883
1021,61; 8727,184;  216,634; 6885,503;127,61610
1022,15; 8735,434;  191,634; 6840,878;128,49281
1022,70; 8746,934;  249,759; 6853,628;128,66965
1023,24; 8674,934;  238,634; 6839,253;127,81075
1023,79; 8603,059;  243,134; 6774,503;127,99652
1024,33; 8534,434;  240,259; 6673,378;128,92930
1024,88; 8508,809;  258,509; 6621,503;129,66066
1025,42; 8387,684;  251,134; 6513,753;129,92249
1025,97; 8289,184;  218,259; 6406,753;130,41825
1026,51; 8127,559;  207,009; 6313,378;129,70966
1027,06; 8093,184;  227,634; 6260,253;130,38367
1027,60; 7895,684;  246,884; 6132,253;129,96297
1028,15; 7875,934;  254,509; 6078,753;130,85690
1028,69; 7689,309;  191,134; 5940,003;130,42870
1029,24; 7651,059;  239,134; 5863,253;131,78820
1029,78; 7491,809;  219,759; 5768,378;131,06055
1030,33; 7413,309;  217,634; 5648,628;132,49279
1030,87; 7326,184;  223,634; 5602,003;132,05770
1031,42; 7254,809;  218,009; 5497,003;133,29813
1031,96; 7139,934;  247,384; 5439,878;132,74065
1032,51; 7050,184;  230,759; 5345,128;133,33855
1033,05; 6991,434;  237,134; 5284,003;133,83150
1033,60; 6820,309;  215,259; 5192,128;132,71497
1034,14; 6756,559;  221,009; 5125,753;133,24957
1034,69; 6713,559;  235,384; 5066,003;134,10653
1035,23; 6587,684;  230,009; 5000,378;133,27429
1035,77; 6538,559;  235,759; 4943,253;133,88865
1036,32; 6495,184;  217,009; 4838,128;135,85834
1036,86; 6387,559;  246,634; 4790,878;135,13635
1037,41; 6304,309;  252,759; 4708,378;135,81840
1037,95; 6223,184;  200,259; 4616,253;136,38889
1038,50; 6101,684;  228,259; 4563,503;135,48085
1039,04; 6092,434;  256,759; 4536,378;136,35969
1039,58; 6020,684;  212,634; 4473,128;136,32340
1040,13; 5914,309;  221,759; 4372,253;137,15356
1040,67; 5913,559;  259,259; 4397,878;136,62288
1041,21; 5786,559;  258,509; 4295,628;136,93058
1041,76; 5702,309;  216,259; 4204,253;137,56416
1042,30; 5654,684;  228,009; 4140,253;138,71004
1042,85; 5610,059;  222,509; 4049,378;140,78220
1043,39; 5528,684;  216,759; 4013,003;139,92581
1043,93; 5522,559;  239,009; 4026,378;139,50450
1044,48; 5385,934;  246,134; 3922,253;139,81594
1045,02; 5317,059;  228,134; 3879,878;139,35603
1045,56; 5294,309;  263,634; 3844,628;140,48265
1046,11; 5257,059;  242,509; 3809,253;140,59182
1046,65; 5112,309;  250,009; 3732,878;139,60618
1047,19; 5104,559;  230,259; 3646,128;142,69576
1047,74; 4987,434;  214,259; 3568,378;142,30787
1048,28; 4965,559;  237,884; 3582,253;141,36225
1048,82; 4933,809;  259,134; 3544,628;142,28227
1049,37; 4834,684;  248,009; 3496,253;141,20477
1049,91; 4791,934;  240,509; 3480,253;140,48719
1050,45; 4720,059;  253,884; 3407,003;141,64310
1050,99; 4697,559;  253,009; 3363,628;142,88315
1051,54; 4602,684;  220,884; 3270,503;143,68353
1052,08; 4589,559;  266,259; 3269,128;143,97233
1052,62; 4486,309;  247,759; 3227,878;142,22755
1053,16; 4443,309;  226,634; 3147,628;144,35755
1053,71; 4383,934;  235,259; 3155,378;142,07213
1054,25; 4320,559;  263,259; 3056,753;145,24106
1054,79; 4242,184;  248,259; 3051,378;142,48148
1055,33; 4166,809;  207,009; 2974,378;143,08899
1055,88; 4197,309;  252,509; 2923,753;147,67653
1056,42; 4089,059;  250,634; 2927,503;143,39235
1056,96; 4065,559;  265,634; 2908,503;143,78031
1057,50; 4035,684;  234,634; 2872,628;144,08867
1058,05; 3950,559;  246,634; 2782,628;146,05418
1058,59; 3910,934;  270,634; 2757,378;146,38822
1059,13; 3812,934;  222,884; 2688,378;145,61181
1059,67; 3787,309;  260,759; 2655,503;147,26210
1060,21; 3738,434;  244,134; 2629,753;146,47353
1060,76; 3683,684;  254,884; 2590,878;146,78121
1061,30; 3674,934;  278,009; 2573,753;147,96621
1061,84; 3596,559;  238,384; 2505,378;148,13340
1062,38; 3464,684;  224,759; 2454,003;145,33740
1062,92; 3536,559;  283,259; 2508,003;146,23257
1063,46; 3480,184;  251,884; 2403,128;150,06668
1064,01; 3406,684;  229,384; 2331,253;151,16548
1064,55; 3376,434;  249,509; 2332,128;150,14390
1065,09; 3320,559;  213,509; 2301,253;148,82334
1065,63; 3319,309;  275,509; 2314,878;149,25207
1066,17; 3256,684;  282,259; 2276,003;149,18793
1066,71; 3213,559;  269,634; 2232,628;149,97119
1067,25; 3163,559;  252,759; 2183,628;150,75080
1067,80; 3165,684;  267,509; 2176,878;151,78708
1068,34; 3122,809;  267,884; 2183,003;149,07300
1068,88; 3003,684;  227,384; 2107,253;147,68584
1069,42; 3025,059;  264,634; 2130,503;147,94315
1069,96; 2945,184;  258,759; 2054,753;149,57875
1070,50; 2977,309;  281,509; 2088,753;149,16638
1071,04; 2904,434;  241,009; 1996,628;151,70862
1071,58; 2871,184;  245,134; 1985,003;150,93380
1072,12; 2844,934;  241,759; 1958,503;151,63445
1072,66; 2815,184;  242,759; 1971,878;148,77087
1073,21; 2786,559;  265,009; 1939,378;150,59705
1073,75; 2757,809;  260,759; 1910,503;151,35987
1074,29; 2712,184;  239,884; 1852,753;153,28588
1074,83; 2717,309;  271,509; 1869,628;153,04244
1075,37; 2678,059;  267,509; 1846,628;152,65160
1075,91; 2630,184;  262,884; 1820,878;151,94541
1076,45; 2603,059;  264,509; 1808,253;151,48563
1076,99; 2585,309;  274,884; 1784,753;153,02158
1077,53; 2520,059;  251,384; 1737,503;152,65772
1078,07; 2535,434;  263,009; 1706,003;157,47989
1078,61; 2486,684;  259,634; 1672,003;157,68191
1079,15; 2447,434;  242,759; 1671,378;154,32214
1079,69; 2426,684;  242,259; 1661,003;153,96896
1080,23; 2385,934;  270,509; 1651,003;153,23684
1080,77; 2411,309;  300,884; 1695,753;151,29918
1081,31; 2352,809;  243,634; 1588,003;156,88962
1081,85; 2338,559;  263,634; 1627,378;152,14918
1082,39; 2291,559;  244,884; 1565,128;155,02251
1082,93; 2276,059;  247,134; 1560,753;154,45311
1083,47; 2227,934;  233,384; 1516,628;155,43033
1084,01; 2217,309;  267,259; 1536,628;153,62360
1084,55; 2182,434;  248,009; 1494,628;155,17374
1085,09; 2187,809;  254,384; 1500,253;155,18689
1085,63; 2132,559;  252,259; 1475,878;153,66715
1086,17; 2096,684;  261,134; 1448,003;154,65484
1086,71; 2066,934;  245,009; 1412,128;156,10451
1087,24; 2071,934;  278,509; 1442,753;154,04206
1087,78; 2061,434;  260,259; 1446,503;151,83852
1088,32; 2014,184;  236,509; 1385,253;154,74948
1088,86; 1989,434;  271,384; 1385,253;154,24169
1089,40; 1976,309;  262,759; 1364,503;155,53072
1089,94; 1923,309;  224,009; 1318,878;155,20582
1090,48; 1917,059;  261,259; 1308,128;158,16691
1091,02; 1908,309;  277,884; 1317,253;156,86685
1091,56; 1887,184;  241,509; 1288,628;157,16221
1092,10; 1844,684;  234,634; 1270,628;155,41117
1092,63; 1831,559;  273,884; 1284,753;154,09270
1093,17; 1810,059;  263,134; 1265,628;154,30770
1093,71; 1798,309;  246,884; 1246,753;155,16287
1094,25; 1785,934;  278,009; 1237,003;157,24034
1094,79; 1751,184;  242,759; 1230,628;152,69488
1095,33; 1713,059;  264,509; 1201,378;154,61611
1095,87; 1698,434;  259,384; 1185,378;155,40602
1096,40; 1657,559;  242,634; 1136,253;158,33654
1096,94; 1664,809;  264,759; 1172,753;154,19159
1097,48; 1688,184;  273,509; 1160,628;159,46850
1098,02; 1627,934;  250,634; 1128,003;156,98074
1098,56; 1561,559;  223,384; 1101,503;152,39112
1099,10; 1602,059;  216,259; 1081,003;160,25557
1099,63; 1556,934;  226,884; 1054,878;160,63527
1100,17; 1563,684;  252,759; 1122,253;150,76877
1100,71; 1550,934;  285,884; 1087,378;157,83654

