
Integration time [ms]: 130,000
Averaging Nr. [scans]: 8
Smoothing Nr. [pixels]: 0
Data measured with spectrometer [name]: 2009305U1
Wave   ;Sample   ;Dark     ;Reference;Reflectance
[nm]   ;[counts] ;[counts] ;[counts] ;[%]

 175,72;  221,922;  210,396;  218,316;145,53374
 176,32;  250,478;  240,998;  232,879; 0,00000
 176,92;  283,794;  269,139;  280,014;134,75490
 177,52;  274,912;  269,016;  290,032;28,05260
 178,12;  256,008;  261,249;  235,645; 0,00000
 178,72;  288,271;  279,243;  265,313; 0,00000
 179,32;  270,339;  285,873;  269,707; 0,00000
 179,92;  278,402;  264,882;  266,541;814,92058
 180,52;  264,673;  254,907;  264,527;101,52065
 181,12;  276,308;  275,258;  261,354; 0,00000
 181,73;  289,785;  295,635;  291,278; 0,00000
 182,33;  396,080;  392,023;  390,552; 0,00000
 182,93;  280,855;  290,891;  290,094; 0,00000
 183,53;  263,166;  252,740;  249,295; 0,00000
 184,13;  250,854;  255,743;  244,797; 0,00000
 184,73;  306,784;  311,487;  290,606; 0,00000
 185,33;  299,854;  259,857;  362,051;39,13816
 185,93;  311,954;  252,591;  372,759;49,39967
 186,53;  304,252;  271,100;  394,921;26,77457
 187,13;  339,753;  280,617;  417,713;43,13445
 187,73;  317,112;  267,969;  383,120;42,67730
 188,33;  312,882;  262,085;  379,270;43,34779
 188,93;  303,576;  286,806;  384,626;17,14356
 189,53;  298,745;  271,660;  395,440;21,88188
 190,13;  362,811;  304,874;  431,995;45,57644
 190,73;  291,065;  229,398;  369,339;44,06612
 191,34;  320,459;  281,048;  425,902;27,20719
 191,94;  296,775;  245,200;  379,248;38,47513
 192,54;  304,937;  272,255;  401,659;25,25566
 193,14;  312,582;  279,240;  400,728;27,44459
 193,74;  306,283;  283,487;  398,023;19,90277
 194,34;  313,661;  271,994;  393,574;34,27111
 194,94;  275,026;  233,615;  360,415;32,65828
 195,54;  263,370;  207,483;  327,520;46,55787
 196,14;  280,837;  241,498;  367,827;31,14008
 196,74;  294,416;  229,979;  361,924;48,83612
 197,34;  250,626;  223,133;  353,209;21,13628
 197,94;  284,712;  238,492;  374,995;33,86003
 198,54;  292,573;  248,373;  395,655;30,01039
 199,14;  283,682;  236,139;  373,103;34,71216
 199,74;  272,739;  218,639;  369,166;35,93999
 200,34;  266,008;  209,142;  378,480;33,58145
 200,94;  309,648;  240,756;  418,613;38,73441
 201,54;  286,786;  226,886;  420,492;30,93925
 202,14;  329,838;  271,896;  484,499;27,25384
 202,74;  299,959;  225,639;  446,775;33,60834
 203,34;  280,023;  212,028;  464,488;26,93283
 203,94;  251,995;  184,773;  456,187;24,76742
 204,54;  333,452;  272,994;  537,543;22,85317
 205,14;  311,793;  213,389;  534,306;30,66342
 205,74;  363,660;  262,653;  630,737;27,44137
 206,34;  304,518;  222,771;  623,514;20,39893
 206,94;  330,943;  234,143;  659,012;22,78332
 207,54;  313,113;  205,895;  680,248;22,60307
 208,14;  342,868;  217,272;  741,640;23,95196
 208,74;  351,388;  220,388;  808,040;22,29214
 209,34;  362,629;  219,640;  874,385;21,83892
 209,94;  368,628;  241,515;  973,088;17,37532
 210,54;  394,208;  216,025; 1043,813;21,52522
 211,14;  405,765;  232,389; 1123,837;19,44882
 211,73;  411,672;  225,260; 1227,319;18,60291
 212,33;  430,591;  244,880; 1337,301;16,99997
 212,93;  445,401;  214,263; 1401,040;19,47612
 213,53;  439,820;  200,639; 1439,478;19,30688
 214,13;  478,300;  222,534; 1556,163;19,17823
 214,73;  462,088;  206,396; 1548,999;19,04453
 215,33;  456,503;  190,890; 1567,963;19,28824
 215,93;  512,644;  218,027; 1711,643;19,72511
 216,53;  491,649;  160,012; 1737,742;21,01989
 217,13;  600,750;  225,275; 1923,954;22,10396
 217,73;  606,007;  221,528; 2112,518;20,33217
 218,33;  624,292;  167,786; 2239,258;22,03773
 218,93;  696,207;  199,053; 2506,144;21,54898
 219,53;  794,348;  198,161; 2773,446;23,15032
 220,13;  829,995;  177,665; 3033,730;22,84019
 220,73;  934,490;  203,390; 3305,088;23,57097
 221,32; 1042,888;  205,638; 3663,540;24,21266
 221,92; 1148,562;  208,164; 4007,370;24,75250
 222,52; 1255,912;  187,903; 4323,660;25,82378
 223,12; 1365,331;  194,154; 4760,973;25,64535
 223,72; 1462,512;  200,280; 5128,535;25,61215
 224,32; 1614,334;  214,156; 5474,067;26,61981
 224,92; 1686,056;  193,656; 5752,224;26,84865
 225,52; 1815,874;  222,019; 6073,075;27,24047
 226,12; 1862,680;  198,524; 6387,469;26,88916
 226,72; 1981,344;  175,273; 6610,016;28,06749
 227,31; 2111,815;  166,273; 6944,422;28,70315
 227,91; 2245,828;  207,517; 7291,964;28,77163
 228,51; 2398,429;  203,632; 7649,427;29,47700
 229,11; 2482,564;  196,647; 8042,249;29,13628
 229,71; 2621,816;  195,012; 8218,633;30,24575
 230,31; 2751,954;  188,284; 8643,382;30,32099
 230,91; 2863,514;  180,627; 8963,002;30,54854
 231,51; 2993,854;  179,152; 9286,925;30,90439
 232,10; 3139,570;  186,911; 9647,102;31,21141
 232,70; 3259,786;  206,494; 9881,699;31,55790
 233,30; 3411,100;  217,276;10157,830;32,12924
 233,90; 3479,947;  189,276;10367,361;32,33095
 234,50; 3572,590;  178,402;10504,128;32,87118
 235,10; 3655,181;  174,656;10742,474;32,93514
 235,70; 3767,883;  205,642;10800,230;33,62322
 236,29; 3830,137;  201,138;10851,118;34,07517
 236,89; 3816,600;  200,253;10842,205;33,98199
 237,49; 3853,291;  210,899;10888,922;34,11110
 238,09; 3791,393;  194,146;10697,764;34,24770
 238,69; 3780,893;  235,373;10613,264;34,16417
 239,29; 3720,362;  188,019;10456,325;34,40044
 239,89; 3640,129;  202,004;10223,049;34,30904
 240,48; 3510,240;  197,396; 9924,045;34,05946
 241,08; 3411,914;  196,143; 9669,418;33,94572
 241,68; 3310,770;  207,521; 9499,811;33,39595
 242,28; 3170,571;  186,025; 9146,689;33,30719
 242,88; 3068,982;  237,159; 8937,851;32,54710
 243,48; 2955,609;  240,024; 8776,360;31,81207
 244,07; 2807,800;  226,642; 8509,621;31,16220
 244,67; 2709,231;  208,523; 8425,390;30,43384
 245,27; 2566,672;  213,760; 8203,694;29,44845
 245,87; 2507,075;  220,783; 8223,912;28,56748
 246,47; 2436,450;  201,510; 8183,038;28,00141
 247,06; 2331,597;  197,519; 8231,528;26,56305
 247,66; 2274,340;  186,272; 8290,421;25,76542
 248,26; 2213,968;  221,762; 8397,555;24,36713
 248,86; 2204,938;  230,261; 8601,163;23,58978
 249,46; 2080,548;  165,402; 8693,612;22,45659
 250,05; 2098,377;  220,770; 9050,795;21,26390
 250,65; 2076,141;  185,883; 9372,006;20,57731
 251,25; 2075,316;  189,143; 9755,465;19,71681
 251,85; 2094,211;  204,503;10364,409;18,59966
 252,44; 2081,985;  174,763;10836,071;17,88919
 253,04; 2130,240;  207,015;11466,838;17,08042
 253,64; 2134,095;  159,132;12100,145;16,53933
 254,24; 2226,696;  217,770;12970,357;15,75309
 254,84; 2254,673;  183,152;13803,737;15,20875
 255,43; 2322,862;  194,014;14576,619;14,80155
 256,03; 2434,389;  197,133;15453,958;14,66397
 256,63; 2497,072;  200,628;16321,112;14,24550
 257,23; 2549,574;  176,004;17189,534;13,95107
 257,82; 2649,583;  205,746;17991,857;13,74014
 258,42; 2704,615;  159,118;18727,214;13,70899
 259,02; 2836,920;  215,765;19628,979;13,50191
 259,62; 2903,318;  186,865;20177,931;13,58833
 260,21; 3002,249;  197,138;20741,618;13,65384
 260,81; 3073,692;  199,649;21143,469;13,72263
 261,41; 3137,205;  186,870;21413,262;13,89937
 262,01; 3293,866;  226,612;21957,257;14,11488
 262,60; 3355,574;  183,754;22238,034;14,38188
 263,20; 3441,977;  207,885;22453,335;14,53822
 263,80; 3580,795;  212,237;22668,022;15,00085
 264,40; 3583,022;  177,864;22781,821;15,06444
 264,99; 3783,876;  200,861;22916,959;15,77302
 265,59; 3854,809;  198,725;23021,234;16,01964
 266,19; 3965,852;  193,487;23251,085;16,36061
 266,78; 4152,393;  235,481;23328,972;16,96111
 267,38; 4262,481;  203,852;23298,391;17,57398
 267,98; 4323,755;  192,482;23352,097;17,83827
 268,58; 4464,453;  204,727;23361,047;18,39552
 269,17; 4592,321;  180,969;23435,151;18,97015
 269,77; 4706,469;  213,626;23199,391;19,54620
 270,37; 4760,431;  171,610;23180,100;19,94403
 270,96; 4850,444;  245,246;22992,185;20,24535
 271,56; 4908,419;  190,628;22911,643;20,76400
 272,16; 4943,175;  188,869;22696,496;21,12309
 272,75; 5057,302;  196,495;22395,919;21,89609
 273,35; 5172,752;  202,372;22462,170;22,32895
 273,95; 5306,858;  214,745;22422,481;22,92946
 274,54; 5414,682;  196,145;22521,685;23,37474
 275,14; 5615,351;  225,123;22809,374;23,86720
 275,74; 5674,092;  171,994;22810,137;24,30455
 276,33; 5965,301;  222,125;23339,875;24,84314
 276,93; 6129,354;  213,772;23628,218;25,26467
 277,53; 6397,193;  202,513;24020,055;26,00890
 278,12; 6567,063;  172,630;24493,207;26,29228
 278,72; 6875,635;  252,887;25068,570;26,68775
 279,32; 7090,952;  199,511;25538,710;27,19676
 279,91; 7444,030;  169,009;26174,928;27,97448
 280,51; 7716,542;  200,013;26806,259;28,25099
 281,11; 8104,001;  194,633;27460,209;29,00862
 281,70; 8349,151;  172,382;27885,083;29,50549
 282,30; 8692,794;  193,003;28474,643;30,05410
 282,90; 9000,377;  179,253;28895,627;30,71810
 283,49; 9378,684;  207,748;29538,858;31,26692
 284,09; 9735,635;  215,881;29900,614;32,06953
 284,69;10091,228;  218,385;30273,132;32,84953
 285,28;10326,329;  216,381;30556,051;33,32254
 285,88;10668,633;  262,369;30906,605;33,95831
 286,47;10848,196;  201,128;30969,689;34,60372
 287,07;11144,521;  226,511;31111,648;35,35037
 287,67;11533,859;  221,274;31194,735;36,52348
 288,26;11807,936;  198,385;31152,866;37,50524
 288,86;12074,678;  192,882;31164,754;38,36318
 289,46;12525,142;  194,884;31355,553;39,56994
 290,05;12841,385;  188,017;31409,402;40,52789
 290,65;13386,845;  204,876;31627,688;41,95032
 291,24;13725,593;  212,887;31851,305;42,70980
 291,84;14175,322;  208,503;31863,612;44,12185
 292,44;14524,585;  208,650;32055,111;44,95298
 293,03;15136,329;  284,762;32178,633;46,56558
 293,63;15421,474;  195,253;32371,033;47,32199
 294,22;15882,391;  218,508;32574,756;48,41069
 294,82;16154,246;  201,239;32567,024;49,28973
 295,41;16273,776;  188,882;32300,833;50,09006
 296,01;16563,908;  228,743;32385,980;50,79779
 296,61;16576,897;  225,511;32113,945;51,27686
 297,20;16618,216;  207,494;31781,590;51,97527
 297,80;16670,918;  215,020;31685,763;52,28951
 298,39;16629,586;  182,253;31193,034;53,03747
 298,99;16800,972;  230,622;31153,529;53,58601
 299,58;16776,550;  208,397;31012,702;53,78518
 300,18;16709,011;  226,518;30723,200;54,04684
 300,78;16601,890;  210,014;30474,462;54,16215
 301,37;16619,303;  221,359;30407,505;54,32275
 301,97;16701,614;  217,759;30429,334;54,56139
 302,56;16644,666;  201,252;30309,548;54,61423
 303,16;16605,354;  183,999;30318,843;54,49291
 303,75;16584,311;  211,641;30216,948;54,56591
 304,35;16766,635;  184,904;30524,238;54,65424
 304,94;16746,338;  199,885;30546,413;54,52503
 305,54;16680,638;  226,638;30526,040;54,30470
 306,13;16685,512;  185,030;30487,285;54,45298
 306,73;16525,167;  185,150;30292,845;54,27190
 307,33;16450,469;  215,523;30309,141;53,94814
 307,92;16419,232;  217,637;30351,227;53,76590
 308,52;16598,353;  180,999;30725,671;53,74867
 309,11;16790,711;  201,867;31236,823;53,45213
 309,71;16852,130;  189,112;31661,304;52,94521
 310,30;16978,480;  180,261;31702,929;53,28933
 310,90;17100,730;  224,386;32095,304;52,95217
 311,49;17109,825;  208,385;32186,413;52,85329
 312,09;17071,914;  176,518;32307,668;52,58261
 312,68;17258,445;  269,514;32860,603;52,12753
 313,28;17105,982;  188,637;32868,727;51,76652
 313,87;17104,492;  173,510;33019,054;51,54727
 314,47;17161,480;  200,119;33278,012;51,27703
 315,06;17092,802;  168,137;33482,336;50,80316
 315,66;17155,414;  180,643;33694,668;50,64975
 316,25;16859,884;  165,250;33583,235;49,95703
 316,85;16716,235;  170,769;33686,028;49,36696
 317,44;16632,226;  194,992;33779,917;48,94230
 318,04;16586,030;  192,253;33813,346;48,76039
 318,63;16378,931;  180,400;33905,642;48,03088
 319,22;16329,275;  188,501;34023,829;47,70391
 319,82;16145,870;  192,131;34077,519;47,08147
 320,41;15989,902;  212,752;34096,876;46,56207
 321,01;15860,203;  198,517;34148,339;46,13186
 321,60;15728,968;  200,756;34227,223;45,63569
 322,20;15441,080;  190,262;34258,930;44,76494
 322,79;15337,941;  230,137;34211,508;44,45908
 323,39;15150,285;  193,653;34431,737;43,68420
 323,98;14965,013;  168,138;34448,415;43,16440
 324,58;14739,617;  181,374;34386,468;42,56162
 325,17;14494,622;  189,126;34136,985;42,13961
 325,76;14316,408;  204,760;34059,647;41,68275
 326,36;14016,786;  160,142;33795,949;41,19611
 326,95;13752,345;  220,132;33368,395;40,82329
 327,55;13467,410;  185,255;33089,613;40,36595
 328,14;13098,601;  183,396;32699,748;39,71911
 328,74;12727,609;  227,001;32370,110;38,89048
 329,33;12491,827;  200,766;32101,667;38,52888
 329,92;12092,434;  188,242;31499,651;38,01870
 330,52;11753,492;  214,771;30829,217;37,69044
 331,11;11506,607;  180,881;30520,020;37,33041
 331,71;11058,655;  195,509;29922,178;36,54344
 332,30;10792,088;  196,635;29476,413;36,18693
 332,89;10496,047;  271,515;28972,401;35,62445
 333,49;10062,359;  212,757;28480,567;34,84388
 334,08; 9859,771;  190,880;28039,191;34,71985
 334,68; 9531,813;  201,255;27593,957;34,06220
 335,27; 9233,080;  215,148;27193,844;33,42612
 335,86; 9045,857;  260,756;26996,020;32,85960
 336,46; 8799,553;  220,024;26650,172;32,46115
 337,05; 8594,704;  192,256;26558,926;31,86769
 337,65; 8461,202;  180,380;26436,754;31,53833
 338,24; 8309,221;  232,388;26406,399;30,85822
 338,83; 8163,306;  225,763;26282,306;30,46276
 339,43; 8009,858;  183,626;26289,063;29,97932
 340,02; 7870,632;  190,874;26129,062;29,60792
 340,61; 7777,913;  195,887;26220,039;29,13457
 341,21; 7729,734;  217,626;26243,235;28,86429
 341,80; 7531,493;  196,505;26267,847;28,13429
 342,40; 7457,701;  199,647;26294,624;27,81399
 342,99; 7401,672;  186,265;26355,401;27,57220
 343,58; 7262,327;  193,141;26595,042;26,77529
 344,18; 7257,385;  214,767;26619,652;26,67165
 344,77; 7181,215;  189,374;26969,796;26,10803
 345,36; 7102,095;  183,507;27323,145;25,49256
 345,96; 7115,855;  221,016;27583,386;25,19825
 346,55; 7057,259;  189,403;27859,691;24,82033
 347,14; 6998,118;  171,397;28132,015;24,41549
 347,74; 6963,200;  164,413;28556,619;23,94596
 348,33; 6998,529;  180,537;29248,259;23,45554
 348,92; 7094,199;  201,044;29826,076;23,26801
 349,52; 7085,858;  175,165;30239,980;22,98598
 350,11; 7060,032;  196,748;30542,811;22,61672
 350,70; 7002,496;  188,762;30627,524;22,38506
 351,29; 6831,240;  173,481;30379,253;22,04135
 351,89; 6727,321;  215,367;30271,901;21,66569
 352,48; 6642,454;  173,137;30411,008;21,39475
 353,07; 6533,539;  212,149;30502,625;20,86923
 353,67; 6439,396;  207,045;30367,733;20,66382
 354,26; 6321,382;  204,647;30120,812;20,44626
 354,85; 6183,902;  207,019;30003,294;20,05916
 355,45; 6077,282;  173,379;29687,018;20,00398
 356,04; 6029,472;  194,775;29721,985;19,76041
 356,63; 5897,943;  227,257;29592,599;19,31081
 357,22; 5771,889;  210,235;29444,084;19,02471
 357,82; 5666,786;  201,489;29272,243;18,79999
 358,41; 5602,795;  213,009;29134,897;18,63567
 359,00; 5471,872;  174,876;28882,110;18,45178
 359,60; 5413,957;  199,638;28864,477;18,19064
 360,19; 5363,086;  220,776;28655,533;18,08459
 360,78; 5304,674;  196,505;28539,285;18,02282
 361,37; 5211,856;  197,506;28347,222;17,81315
 361,97; 5165,001;  200,758;28183,834;17,74016
 362,56; 5074,462;  188,373;27939,827;17,60661
 363,15; 5093,423;  236,129;27722,737;17,67149
 363,74; 4928,425;  197,869;27360,746;17,41552
 364,34; 4852,426;  219,500;26937,375;17,34017
 364,93; 4768,501;  188,747;26547,748;17,37454
 365,52; 4663,982;  169,756;26247,520;17,23394
 366,11; 4602,011;  196,001;25942,782;17,11286
 366,71; 4488,900;  196,501;25565,704;16,91972
 367,30; 4496,817;  203,632;25120,301;17,23017
 367,89; 4425,457;  219,518;24926,434;17,02332
 368,48; 4382,538;  211,995;24656,997;17,06092
 369,07; 4287,871;  197,262;24192,149;17,04784
 369,67; 4292,041;  209,121;23957,341;17,19253
 370,26; 4229,109;  180,512;23541,524;17,33057
 370,85; 4184,343;  191,881;23447,723;17,16757
 371,44; 4157,292;  203,883;23166,552;17,21668
 372,03; 4122,315;  178,000;22906,922;17,35373
 372,63; 4083,165;  172,507;22629,005;17,41437
 373,22; 4077,591;  182,386;22290,507;17,61889
 373,81; 4054,204;  168,006;21979,801;17,81696
 374,40; 4021,365;  190,521;21797,420;17,72973
 374,99; 4024,477;  184,129;21460,378;18,04993
 375,59; 4027,807;  192,020;21182,810;18,27367
 376,18; 4031,729;  210,005;21119,925;18,27709
 376,77; 4032,461;  201,759;20861,990;18,54143
 377,36; 4087,426;  218,756;20767,707;18,82661
 377,95; 4071,388;  207,502;20475,329;19,06413
 378,55; 4030,078;  183,017;20262,964;19,15872
 379,14; 4088,912;  206,131;20239,535;19,38153
 379,73; 4119,125;  203,877;20115,080;19,66354
 380,32; 4201,391;  212,258;20090,506;20,06783
 380,91; 4168,818;  174,621;19956,513;20,19118
 381,50; 4208,018;  213,123;19987,514;20,20237
 382,10; 4238,016;  190,008;19824,506;20,61681
 382,69; 4279,495;  167,756;19801,644;20,94205
 383,28; 4359,647;  210,875;19738,734;21,24540
 383,87; 4336,243;  190,749;19678,265;21,27256
 384,46; 4416,538;  186,864;19566,790;21,82503
 385,05; 4501,629;  216,623;19586,593;22,12190
 385,64; 4539,136;  201,001;19576,782;22,38947
 386,24; 4625,551;  174,864;19548,664;22,97271
 386,83; 4709,658;  214,362;19530,648;23,27205
 387,42; 4792,123;  216,126;19629,282;23,57163
 388,01; 4882,553;  202,104;19821,298;23,85648
 388,60; 4995,056;  192,866;20025,056;24,21412
 389,19; 5171,052;  187,842;20240,337;24,85082
 389,78; 5273,934;  187,470;20451,402;25,10107
 390,37; 5446,789;  249,609;20881,583;25,18993
 390,96; 5563,702;  209,863;21070,086;25,66530
 391,56; 5685,709;  209,338;21234,319;26,04697
 392,15; 5842,953;  187,972;21466,341;26,57620
 392,74; 5955,365;  166,947;21562,715;27,05403
 393,33; 6118,414;  190,086;21958,084;27,23414
 393,92; 6334,290;  203,314;22264,132;27,79125
 394,51; 6477,815;  182,336;22600,380;28,08220
 395,10; 6682,234;  219,041;22749,320;28,68670
 395,69; 6767,882;  203,420;22946,603;28,86343
 396,28; 6942,907;  206,033;23029,189;29,51772
 396,87; 7038,592;  216,512;23120,847;29,78510
 397,46; 7172,197;  206,623;23148,697;30,36157
 398,06; 7275,029;  236,981;23373,639;30,41947
 398,65; 7447,305;  205,941;23458,518;31,14220
 399,24; 7598,412;  243,683;23536,997;31,57442
 399,83; 7629,665;  194,622;23620,051;31,73920
 400,42; 7786,157;  238,443;23824,608;32,00060
 401,01; 7961,989;  213,255;23830,301;32,80992
 401,60; 8064,198;  216,171;23998,542;32,99935
 402,19; 8179,936;  255,354;23879,544;33,54436
 402,78; 8225,014;  248,375;23934,850;33,67592
 403,37; 8304,315;  226,902;23692,269;34,42270
 403,96; 8341,574;  235,287;23645,302;34,62743
 404,55; 8475,369;  243,033;23594,873;35,25348
 405,14; 8462,514;  222,417;23427,233;35,51029
 405,73; 8542,109;  229,780;23300,595;36,02963
 406,32; 8655,438;  257,813;23371,112;36,33244
 406,91; 8658,052;  238,582;23024,244;36,95074
 407,50; 8657,641;  242,278;22888,208;37,16060
 408,09; 8690,116;  216,364;22615,792;37,83022
 408,68; 8723,007;  242,712;22474,930;38,14417
 409,27; 8835,816;  233,872;22200,875;39,15848
 409,86; 8829,116;  234,205;22111,040;39,28773
 410,45; 8882,204;  256,274;22096,039;39,49644
 411,04; 8933,226;  270,846;21965,946;39,92782
 411,63; 8883,066;  256,439;21705,992;40,21821
 412,22; 8932,814;  260,398;21608,861;40,62314
 412,81; 8939,303;  282,552;21260,615;41,26573
 413,40; 8903,008;  282,965;21006,921;41,59458
 413,99; 8865,118;  333,579;20695,163;41,90017
 414,58; 8720,512;  232,836;20251,309;42,39922
 415,17; 8733,485;  246,678;20038,927;42,87945
 415,76; 8700,501;  240,645;19927,609;42,97187
 416,35; 8719,667;  235,036;19703,870;43,58058
 416,94; 8841,950;  268,277;19757,020;43,99295
 417,53; 8951,074;  252,805;19892,476;44,28928
 418,12; 8990,843;  250,688;19995,497;44,26559
 418,71; 9290,080;  272,216;20261,828;45,11275
 419,30; 9339,267;  251,691;20352,452;45,21011
 419,89; 9476,867;  246,072;20540,409;45,48458
 420,48; 9761,901;  266,342;20826,563;46,18413
 421,07; 9865,208;  277,348;20984,255;46,30272
 421,66; 9872,807;  238,366;20960,001;46,49460
 422,25; 9998,194;  256,774;20943,538;47,09011
 422,84;10084,711;  272,406;21027,012;47,27772
 423,43; 9984,578;  256,016;20716,861;47,54721
 424,02; 9962,886;  282,898;20579,303;47,69311
 424,60; 9870,803;  234,188;20062,861;48,59940
 425,19; 9784,294;  264,292;19911,832;48,45391
 425,78; 9814,813;  270,169;19743,271;49,01450
 426,37; 9762,321;  283,559;19572,671;49,14048
 426,96; 9800,502;  256,809;19447,609;49,73057
 427,55; 9770,238;  263,207;19250,936;50,06934
 428,14; 9725,929;  242,217;19090,990;50,31475
 428,73; 9710,758;  249,573;18851,836;50,86040
 429,32; 9698,163;  274,682;18855,060;50,71738
 429,91; 9806,956;  288,824;18916,868;51,09571
 430,50; 9783,831;  294,336;18709,204;51,53170
 431,08; 9721,679;  274,847;18553,696;51,68177
 431,67; 9776,650;  314,108;18483,766;52,07881
 432,26; 9720,619;  342,868;18379,038;51,99414
 432,85; 9579,528;  357,365;18095,068;51,99187
 433,44; 9495,580;  361,880;17750,406;52,52716
 434,03; 9331,117;  376,151;17382,529;52,65651
 434,62; 9181,291;  342,256;16944,485;53,24005
 435,21; 9078,491;  357,867;16680,944;53,42512
 435,79; 9022,209;  356,268;16616,336;53,29584
 436,38; 8962,772;  350,913;16483,006;53,38340
 436,97; 8959,793;  330,166;16346,492;53,88019
 437,56; 8933,965;  349,822;16166,481;54,27280
 438,15; 8899,279;  325,064;16044,320;54,54594
 438,74; 8945,092;  349,317;16075,322;54,65963
 439,33; 8922,846;  322,438;16087,210;54,55460
 439,91; 8961,463;  265,326;16136,266;54,79283
 440,50; 9101,716;  317,078;16109,360;55,62615
 441,09; 9168,092;  314,470;16229,153;55,63178
 441,68; 9264,219;  303,863;16253,743;56,17820
 442,27; 9233,103;  292,105;16275,691;55,93862
 442,86; 9220,308;  257,518;16152,623;56,38711
 443,44; 9356,400;  262,636;16263,680;56,83232
 444,03; 9374,074;  347,769;16362,967;56,36087
 444,62; 9300,685;  278,144;16182,920;56,72850
 445,21; 9233,715;  282,889;16050,480;56,76724
 445,80; 9346,780;  312,660;16036,197;57,45603
 446,39; 9230,119;  354,157;15765,491;57,59373
 446,97; 9046,802;  291,430;15611,475;57,14978
 447,56; 8972,262;  291,073;15358,550;57,61541
 448,15; 8891,606;  287,680;15174,491;57,79563
 448,74; 8787,390;  286,557;15040,102;57,61892
 449,33; 8770,795;  282,070;14826,954;58,36228
 449,91; 8620,429;  276,215;14566,108;58,39242
 450,50; 8541,669;  287,961;14427,824;58,37191
 451,09; 8494,244;  298,589;14193,076;58,98495
 451,68; 8431,779;  320,097;14149,066;58,65717
 452,26; 8402,051;  309,106;14017,681;59,03564
 452,85; 8340,677;  288,225;13987,974;58,77809
 453,44; 8353,410;  297,503;14013,461;58,73383
 454,03; 8289,496;  280,237;13914,997;58,74147
 454,61; 8315,012;  289,755;13882,384;59,04124
 455,20; 8457,188;  313,514;13987,719;59,55501
 455,79; 8432,703;  308,248;14078,145;59,00157
 456,38; 8569,530;  308,279;14167,900;59,60661
 456,97; 8582,824;  288,399;14209,257;59,58272
 457,55; 8566,075;  297,161;14273,093;59,16539
 458,14; 8665,912;  307,771;14195,676;60,18288
 458,73; 8552,927;  301,913;14172,766;59,48455
 459,31; 8640,593;  323,054;14178,402;60,03125
 459,90; 8740,432;  344,795;14248,865;60,38258
 460,49; 8846,738;  404,665;14334,845;60,60276
 461,08; 8846,724;  311,063;14444,173;60,39479
 461,66; 8904,577;  320,429;14444,308;60,77756
 462,25; 8983,215;  312,320;14537,975;60,95252
 462,84; 9000,451;  329,065;14570,096;60,89016
 463,43; 8947,205;  274,464;14561,940;60,70170
 464,01; 9016,919;  297,097;14613,821;60,90655
 464,60; 8983,925;  359,207;14512,842;60,93642
 465,19; 8838,806;  288,727;14332,402;60,88206
 465,77; 8812,203;  308,486;14315,017;60,71251
 466,36; 8881,469;  333,714;14285,487;61,26644
 466,95; 8719,988;  308,216;13913,176;61,82872
 467,53; 8547,561;  316,871;13665,961;61,65731
 468,12; 8373,276;  332,373;13367,635;61,68578
 468,71; 8256,686;  309,854;13223,294;61,53923
 469,29; 8059,073;  277,376;13006,918;61,13101
 469,88; 7923,800;  297,008;12660,048;61,69026
 470,47; 8009,726;  375,773;12760,011;61,64249
 471,06; 7923,631;  324,899;12680,902;61,49830
 471,64; 7978,815;  320,895;12804,681;61,34293
 472,23; 7932,210;  286,051;12818,998;61,00847
 472,81; 8071,910;  283,911;12907,957;61,69178
 473,40; 8130,323;  303,926;13001,248;61,63817
 473,99; 8373,101;  413,676;13166,467;62,41320
 474,57; 8337,918;  309,550;13320,982;61,70241
 475,16; 8434,002;  326,539;13412,428;61,95576
 475,75; 8592,294;  349,437;13589,443;62,25720
 476,33; 8611,421;  357,199;13667,076;62,01576
 476,92; 8624,080;  333,929;13724,063;61,91238
 477,51; 8723,658;  327,319;13845,573;62,11112
 478,09; 8754,214;  340,694;13816,135;62,43595
 478,68; 8754,601;  333,574;13780,717;62,62317
 479,27; 8755,435;  370,188;13760,162;62,62332
 479,85; 8753,085;  328,698;13804,747;62,51377
 480,44; 8747,808;  320,329;13836,908;62,34920
 481,02; 9460,501;  346,340;14914,759;62,56109
 481,61;10778,767;  357,585;16907,396;62,96859
 482,20;11532,696;  346,965;18201,368;62,64971
 482,78;12134,886;  376,077;19038,500;63,00794
 483,37;12389,695;  370,107;19381,863;63,22187
 483,95;12595,411;  398,485;19756,959;63,00562
 484,54;12730,415;  428,583;19988,598;62,89275
 485,13;12743,139;  377,749;19995,218;63,03255
 485,71;12668,627;  345,244;19951,012;62,85591
 486,30;12640,309;  382,744;19788,200;63,16556
 486,88;12424,470;  453,623;19491,530;62,87901
 487,47;12043,257;  409,626;18867,986;63,02635
 488,05;11472,619;  400,632;18064,443;62,68176
 488,64;10772,525;  403,270;16903,545;62,84292
 489,23; 9787,725;  415,886;15314,211;62,90532
 489,81; 8217,414;  421,639;12926,135;62,34378
 490,40; 7584,643;  356,392;12031,856;61,90976
 490,98; 7440,254;  339,272;11776,391;62,08715
 491,57; 7357,034;  385,387;11614,493;62,08550
 492,15; 7278,023;  355,150;11562,205;61,77246
 492,74; 7269,330;  364,758;11436,022;62,36481
 493,32; 7169,056;  377,771;11409,484;61,56148
 493,91; 7130,163;  340,906;11192,881;62,56241
 494,50; 7129,565;  367,678;11201,801;62,41286
 495,08; 7055,242;  337,427;11120,269;62,30097
 495,67; 7088,186;  366,279;11144,207;62,36734
 496,25; 7006,231;  326,042;11037,356;62,36573
 496,84; 6947,378;  300,028;11007,347;62,08230
 497,42; 6966,908;  308,296;10951,656;62,56119
 498,01; 6953,399;  340,656;10814,334;63,13678
 498,59; 6872,760;  299,548;10805,579;62,56608
 499,18; 6836,666;  290,157;10818,225;62,18149
 499,76; 6866,051;  329,917;10765,591;62,63260
 500,35; 6703,092;  320,184;10568,477;62,28265
 500,93; 6644,254;  310,670;10459,765;62,40540
 501,52; 6650,815;  304,172;10379,345;62,99289
 502,10; 6651,975;  334,067;10338,046;63,15396
 502,69; 6504,633;  303,325;10244,863;62,37775
 503,27; 6453,594;  277,429;10056,693;63,15573
 503,86; 6364,153;  315,697; 9985,220;62,55175
 504,44; 6279,379;  284,079; 9831,850;62,79267
 505,03; 6128,143;  263,829; 9704,772;62,11577
 505,61; 6098,691;  290,826; 9526,723;62,88361
 506,19; 5971,142;  302,954; 9396,350;62,33302
 506,78; 5862,779;  266,095; 9180,267;62,78412
 507,36; 5776,793;  291,203; 9002,521;62,97084
 507,95; 5638,978;  297,727; 8892,803;62,14315
 508,53; 5579,820;  297,470; 8765,611;62,37910
 509,12; 5564,388;  285,225; 8578,505;63,65592
 509,70; 5440,842;  314,479; 8487,226;62,72510
 510,29; 5340,431;  314,612; 8355,106;62,50635
 510,87; 5221,792;  285,970; 8190,267;62,44480
 511,46; 5105,050;  282,098; 8048,253;62,10219
 512,04; 4993,113;  286,732; 7882,212;61,96292
 512,62; 4934,732;  288,848; 7717,816;62,53740
 513,21; 4807,586;  274,738; 7582,122;62,03106
 513,79; 4704,037;  281,638; 7431,498;61,85294
 514,38; 4611,710;  265,379; 7294,118;61,83657
 514,96; 4587,178;  313,253; 7226,429;61,82289
 515,54; 4491,053;  255,008; 7052,386;62,31881
 516,13; 4455,627;  295,635; 6927,215;62,73002
 516,71; 4352,777;  294,770; 6855,050;61,85722
 517,30; 4280,064;  263,404; 6686,588;62,53378
 517,88; 4199,812;  285,779; 6603,415;61,95407
 518,46; 4114,282;  265,533; 6560,106;61,14392
 519,05; 4099,980;  279,790; 6476,267;61,65100
 519,63; 4079,415;  280,912; 6432,468;61,74866
 520,22; 4022,481;  296,052; 6354,103;61,51201
 520,80; 3968,748;  280,679; 6277,119;61,50431
 521,38; 4038,483;  328,542; 6297,612;62,15276
 521,97; 3913,947;  261,436; 6190,530;61,60318
 522,55; 3911,904;  286,436; 6155,015;61,77763
 523,13; 3911,321;  266,566; 6130,737;62,15294
 523,72; 3854,280;  287,158; 6116,809;61,18929
 524,30; 3966,796;  305,823; 6299,945;61,07605
 524,89; 3924,464;  263,062; 6203,922;61,63084
 525,47; 4013,873;  295,076; 6358,119;61,33549
 526,05; 4045,586;  256,328; 6436,745;61,31072
 526,64; 4077,278;  297,832; 6495,342;60,98329
 527,22; 4122,428;  287,701; 6633,759;60,42691
 527,80; 4272,234;  318,207; 6738,904;61,58252
 528,39; 4278,554;  274,837; 6806,970;61,29264
 528,97; 4396,226;  289,959; 6967,921;61,48983
 529,55; 4491,224;  305,191; 7123,331;61,39553
 530,14; 4642,050;  313,842; 7300,957;61,94557
 530,72; 4680,158;  276,835; 7352,984;62,22768
 531,30; 4747,317;  268,468; 7502,724;61,91168
 531,89; 4833,039;  297,843; 7657,380;61,62339
 532,47; 4856,993;  313,597; 7725,476;61,29884
 533,05; 4896,552;  313,706; 7800,966;61,20859
 533,63; 4952,123;  311,599; 7804,743;61,93027
 534,22; 4910,415;  281,099; 7847,009;61,18651
 534,80; 4997,136;  318,360; 7965,454;61,18372
 535,38; 5084,127;  425,720; 8115,506;60,57915
 535,97; 5033,578;  304,972; 7977,633;61,62928
 536,55; 5047,543;  362,236; 8131,767;60,30360
 537,13; 5029,398;  378,092; 8036,911;60,73138
 537,71; 5024,131;  404,466; 8143,519;59,69290
 538,30; 5092,383;  424,103; 8166,402;60,29579
 538,88; 5170,410;  471,495; 8289,991;60,09999
 539,46; 5217,594;  537,235; 8454,563;59,11539
 540,05; 5232,735;  563,616; 8615,864;57,98528
 540,63; 5392,958;  596,116; 8770,817;58,67911
 541,21; 5418,044;  638,248; 8968,978;57,37547
 541,79; 5497,891;  673,498; 9084,509;57,35806
 542,38; 5594,092;  707,239; 9211,972;57,46039
 542,96; 5641,010;  717,507; 9311,156;57,29234
 543,54; 5809,540;  747,622; 9565,883;57,40268
 544,12; 5876,757;  726,250; 9690,479;57,45621
 544,70; 5890,429;  719,758; 9753,094;57,23988
 545,29; 5990,287;  728,740; 9937,957;57,13350
 545,87; 5929,016;  704,248; 9907,884;56,76852
 546,45; 6022,715;  648,489; 9982,925;57,57420
 547,03; 6026,993;  627,744; 9984,476;57,70443
 547,62; 6140,241;  590,124;10144,885;58,08745
 548,20; 6174,006;  585,130;10281,061;57,64146
 548,78; 6186,519;  549,902;10371,935;57,38747
 549,36; 6332,499;  503,900;10518,496;58,20104
 549,94; 6357,401;  464,127;10695,293;57,60119
 550,53; 6510,213;  470,272;10949,291;57,63842
 551,11; 6569,668;  429,407;11111,766;57,48039
 551,69; 6747,262;  438,650;11318,121;57,98639
 552,27; 6803,826;  390,517;11540,959;57,51618
 552,85; 7013,987;  399,531;11899,703;57,51614
 553,44; 7223,066;  383,149;12187,511;57,94398
 554,02; 7379,353;  393,778;12478,217;57,80637
 554,60; 7521,921;  349,408;12728,486;57,94061
 555,18; 7749,596;  372,900;13172,652;57,63156
 555,76; 7893,992;  358,778;13430,139;57,64675
 556,34; 8152,928;  359,166;13811,757;57,93502
 556,93; 8372,987;  350,776;14137,372;58,18849
 557,51; 8528,387;  332,292;14452,538;58,04499
 558,09; 8688,195;  363,401;14812,856;57,61321
 558,67; 8890,751;  346,798;15241,668;57,36172
 559,25; 9068,644;  357,794;15505,728;57,50520
 559,83; 9182,001;  341,054;15755,875;57,35355
 560,41; 9392,546;  345,913;16080,442;57,49541
 561,00; 9540,154;  346,174;16489,387;56,95261
 561,58; 9602,155;  324,413;16563,348;57,13270
 562,16; 9742,085;  328,032;16965,407;56,58377
 562,74; 9931,895;  308,528;17315,357;56,58531
 563,32;10088,819;  312,179;17792,312;55,93001
 563,90;10251,390;  341,299;18130,965;55,70701
 564,48;10450,289;  338,536;18405,628;55,96780
 565,06;10705,637;  338,547;18995,620;55,56654
 565,65;11014,901;  348,689;19649,585;55,26278
 566,23;11365,322;  381,049;20276,653;55,20955
 566,81;11669,588;  339,794;20980,165;54,89142
 567,39;12163,465;  346,431;21802,173;55,07632
 567,97;12431,815;  365,796;22458,963;54,61426
 568,55;12802,332;  382,553;23170,687;54,50108
 569,13;13112,031;  351,799;23945,059;54,08422
 569,71;13561,279;  345,406;24839,719;53,95486
 570,29;14157,042;  387,525;25783,512;54,21926
 570,87;14425,024;  390,279;26499,577;53,75382
 571,45;14740,388;  370,548;27199,667;53,56061
 572,03;14875,763;  328,059;27581,581;53,37917
 572,61;15184,261;  329,428;28315,077;53,08018
 573,20;15507,375;  358,167;28930,414;53,02071
 573,78;15749,583;  342,179;29614,609;52,63453
 574,36;16098,438;  374,176;30059,123;52,97049
 574,94;16159,185;  435,436;30397,989;52,47800
 575,52;16265,483;  358,700;30702,232;52,42232
 576,10;16398,970;  416,319;31146,854;52,00902
 576,68;16700,470;  422,059;31712,815;52,02307
 577,26;16942,053;  427,581;32376,674;51,68996
 577,84;17169,246;  429,427;32885,858;51,57628
 578,42;17326,000;  479,190;33224,038;51,44873
 579,00;17203,723;  421,804;33286,031;51,06440
 579,58;17329,255;  477,311;33485,098;51,05445
 580,16;17182,755;  442,817;33572,180;50,52901
 580,74;17273,452;  439,068;33815,712;50,43762
 581,32;17301,190;  446,813;33925,381;50,34378
 581,90;17127,310;  484,942;33772,821;49,99528
 582,48;17090,394;  455,692;34078,727;49,47412
 583,06;17080,604;  470,812;34136,677;49,33719
 583,64;17068,282;  463,311;34176,270;49,25397
 584,22;16852,601;  474,453;34015,625;48,82998
 584,80;16794,834;  478,065;33754,570;49,03390
 585,38;16514,176;  486,665;33279,584;48,87491
 585,96;16424,478;  456,431;33481,673;48,35104
 586,54;16381,025;  487,700;33365,748;48,34023
 587,12;16320,860;  441,070;33459,448;48,09379
 587,70;16461,300;  473,557;33665,580;48,16743
 588,28;16346,054;  449,070;33657,010;47,87103
 588,86;16383,200;  475,698;33793,747;47,74440
 589,44;16245,986;  449,212;33780,866;47,39271
 590,02;16344,046;  436,209;33938,066;47,48345
 590,59;16388,205;  413,200;34142,639;47,36220
 591,17;16311,772;  408,727;34231,235;47,01912
 591,75;16372,638;  402,843;34401,041;46,97248
 592,33;16402,017;  416,964;34731,804;46,58350
 592,91;16452,610;  360,223;34864,529;46,63878
 593,49;16417,127;  386,605;35125,628;46,14558
 594,07;16481,807;  388,605;35363,643;46,01339
 594,65;16429,890;  423,702;35375,546;45,79497
 595,23;16477,572;  392,208;35751,738;45,49089
 595,81;16511,470;  389,587;35894,271;45,40776
 596,39;16458,014;  383,463;35994,710;45,13897
 596,97;16426,207;  375,598;36123,435;44,89952
 597,55;16318,537;  370,580;36069,705;44,67324
 598,12;16194,525;  360,734;36055,036;44,35943
 598,70;16107,074;  361,601;36142,328;44,00546
 599,28;16234,617;  393,476;36444,469;43,94093
 599,86;16222,059;  378,475;36402,234;43,98093
 600,44;16009,638;  334,229;36487,830;43,35781
 601,02;16056,874;  384,246;36648,951;43,21730
 601,60;15929,459;  380,468;36582,401;42,95072
 602,18;15862,856;  346,733;36604,973;42,79337
 602,75;15731,648;  344,461;36626,614;42,40980
 603,33;15778,145;  362,351;36609,312;42,52989
 603,91;15606,844;  347,865;36622,603;42,06503
 604,49;15557,022;  383,477;36695,110;41,78701
 605,07;15434,957;  397,093;36834,104;41,27085
 605,65;15317,558;  388,856;36923,315;40,86198
 606,23;15346,895;  445,573;37038,731;40,72161
 606,80;15251,745;  499,710;37022,146;40,39171
 607,38;15153,061;  545,862;37053,242;40,01163
 607,96;15116,549;  607,210;37195,161;39,65606
 608,54;15022,530;  669,605;37350,221;39,12945
 609,12;14930,787;  661,336;37309,161;38,93669
 609,70;14943,321;  722,224;37295,108;38,88426
 610,27;14814,796;  714,834;37473,066;38,35865
 610,85;14726,680;  760,849;37533,264;37,97910
 611,43;14628,060;  751,601;37429,156;37,83365
 612,01;14474,926;  716,966;37144,540;37,76798
 612,59;14383,057;  713,849;37295,061;37,36674
 613,16;14262,504;  676,703;37314,344;37,08154
 613,74;14171,187;  653,851;37175,453;37,01189
 614,32;14049,018;  615,106;37026,097;36,89521
 614,90;13923,922;  581,595;36935,027;36,70170
 615,48;13739,176;  494,330;36654,377;36,62840
 616,05;13635,444;  471,701;36613,561;36,42243
 616,63;13503,962;  471,947;36359,746;36,31322
 617,21;13432,407;  471,834;36383,894;36,08975
 617,79;13322,195;  458,838;36259,022;35,93098
 618,36;13179,804;  440,343;36144,135;35,68098
 618,94;12935,541;  387,457;35876,299;35,35783
 619,52;12851,883;  415,699;35566,982;35,37903
 620,10;12790,232;  393,586;35629,396;35,18195
 620,67;12658,755;  398,447;35486,387;34,94166
 621,25;12549,195;  426,468;35403,729;34,65888
 621,83;12404,305;  396,082;35331,721;34,37242
 622,41;12269,664;  440,581;35280,127;33,95303
 622,98;12180,392;  406,822;35033,387;34,00155
 623,56;12036,568;  418,570;35033,557;33,56349
 624,14;11902,038;  379,472;34936,997;33,34314
 624,72;11846,624;  394,456;34824,408;33,26222
 625,29;11785,360;  367,070;34886,698;33,07767
 625,87;11643,973;  410,463;34778,241;32,68617
 626,45;11485,521;  364,193;34685,149;32,40390
 627,02;11408,781;  374,839;34605,976;32,23364
 627,60;11292,192;  379,729;34617,220;31,87285
 628,18;11297,537;  355,336;34654,286;31,90244
 628,76;11215,464;  343,198;34653,544;31,68801
 629,33;11176,296;  373,703;34701,610;31,46884
 629,91;11157,607;  371,586;34558,146;31,55047
 630,49;11063,999;  382,451;34914,577;30,93221
 631,06;11041,425;  355,949;34980,122;30,86132
 631,64;10893,843;  357,194;34895,556;30,50709
 632,22;10794,079;  331,938;34792,053;30,36015
 632,79;10836,246;  351,063;35025,444;30,23899
 633,37;10812,885;  332,842;35120,447;30,12580
 633,95;10749,797;  345,317;35074,571;29,95884
 634,52;10709,678;  327,581;35248,299;29,73048
 635,10;10611,854;  330,460;35270,176;29,42610
 635,68;10683,468;  336,938;35441,350;29,47359
 636,25;10513,712;  319,055;35504,954;28,97370
 636,83;10464,964;  305,948;35652,044;28,74155
 637,41;10392,671;  315,436;35622,192;28,54195
 637,98;10456,752;  361,810;35861,629;28,43660
 638,56;10417,705;  331,802;35973,764;28,29783
 639,13;10307,390;  317,571;36034,339;27,96955
 639,71;10299,371;  376,824;36296,982;27,62389
 640,29;10115,505;  282,574;35962,890;27,55842
 640,86;10119,462;  311,450;36195,663;27,33239
 641,44;10002,669;  302,450;36241,561;26,99070
 642,02; 9996,376;  338,576;36201,334;26,92989
 642,59; 9938,708;  303,826;36284,607;26,77786
 643,17; 9851,040;  319,827;36176,005;26,58179
 643,74; 9797,497;  309,577;36347,028;26,32794
 644,32; 9758,079;  329,453;36387,676;26,14834
 644,89; 9625,411;  329,828;36319,199;25,82869
 645,47; 9552,618;  342,454;36372,847;25,56221
 646,05; 9513,824;  331,454;36411,370;25,45009
 646,62; 9369,031;  307,204;36262,768;25,20285
 647,20; 9418,613;  325,830;36468,666;25,15791
 647,77; 9264,945;  296,455;36304,939;24,90660
 648,35; 9126,652;  304,456;36268,587;24,53054
 648,92; 9074,359;  315,331;36217,360;24,39703
 649,50; 8980,691;  284,582;36169,008;24,23366
 650,08; 8906,648;  285,832;36112,281;24,06271
 650,65; 8904,730;  302,333;36239,929;23,93704
 651,23; 8948,687;  278,958;36970,327;23,62880
 651,80; 9128,144;  278,708;37957,850;23,48630
 652,38; 9217,601;  304,584;38374,498;23,41223
 652,95; 9183,682;  277,834;38641,521;23,21427
 653,53; 9173,389;  295,710;38882,170;23,00724
 654,10; 9184,221;  342,210;39053,943;22,84065
 654,68; 9115,803;  284,086;38960,341;22,83499
 655,25; 9002,760;  276,711;39143,614;22,45110
 655,83; 9047,217;  288,212;39261,137;22,47459
 656,40; 9024,799;  324,337;39267,910;22,34120
 656,98; 8873,881;  290,712;39148,058;22,08892
 657,55; 8850,713;  292,088;39112,456;22,04674
 658,13; 8620,045;  300,213;38755,104;21,63530
 658,70; 8574,752;  314,089;38556,002;21,60107
 659,28; 8368,208;  283,714;37828,150;21,53314
 659,85; 8103,915;  319,465;36876,423;21,29403
 660,43; 7992,122;  322,840;36708,946;21,07750
 661,00; 7926,704;  295,591;36919,219;20,83659
 661,58; 7939,661;  293,341;37144,867;20,74899
 662,15; 7914,993;  284,717;37388,265;20,56482
 662,73; 8016,075;  356,717;37639,163;20,54414
 663,30; 7960,032;  299,592;37789,561;20,43330
 663,88; 7864,989;  307,718;38084,084;20,00529
 664,45; 7884,071;  284,218;38152,357;20,06925
 665,03; 7990,028;  298,844;38451,130;20,15917
 665,60; 8028,485;  388,719;39013,028;19,77968
 666,17; 7968,566;  311,095;39130,926;19,72567
 666,75; 7949,523;  289,720;39459,324;19,55548
 667,32; 7961,855;  319,346;39813,972;19,35076
 667,90; 7946,687;  301,596;40034,120;19,24139
 668,47; 7910,144;  313,846;40248,143;19,02199
 669,05; 7959,226;  302,847;40510,791;19,04196
 669,62; 7843,933;  287,597;40722,939;18,68745
 670,19; 7902,390;  281,223;40771,337;18,82229
 670,77; 7830,972;  282,473;40940,485;18,56583
 671,34; 7716,929;  288,224;40983,508;18,25446
 671,92; 7776,136;  273,474;41294,781;18,28967
 672,49; 7746,842;  308,850;41326,179;18,13378
 673,06; 7652,174;  252,350;41468,328;17,95378
 673,64; 7609,131;  271,976;41274,726;17,89430
 674,21; 7576,713;  277,976;41357,624;17,76728
 674,79; 7608,420;  307,976;41600,522;17,67981
 675,36; 7567,002;  307,727;41499,170;17,62326
 675,93; 7435,334;  271,102;41467,693;17,39035
 676,51; 7470,041;  301,853;41709,091;17,31144
 677,08; 7436,373;  292,103;41779,989;17,22013
 677,65; 7455,455;  285,854;41793,387;17,27301
 678,23; 7445,287;  293,854;42134,535;17,09206
 678,80; 7386,118;  281,480;42126,683;16,97838
 679,38; 7384,200;  299,230;42362,331;16,84367
 679,95; 7378,407;  309,230;42702,104;16,67539
 680,52; 7375,489;  286,356;42746,627;16,69592
 681,10; 7383,821;  310,231;43211,025;16,48825
 681,67; 7391,403;  301,607;43432,548;16,43784
 682,24; 7333,110;  260,607;43560,321;16,33383
 682,82; 7369,442;  275,733;43975,219;16,23293
 683,39; 7406,274;  342,233;44347,742;16,05263
 683,96; 7415,856;  287,984;44715,140;16,04395
 684,54; 7413,938;  265,109;44974,288;15,98962
 685,11; 7543,395;  345,734;45251,311;16,02843
 685,68; 7497,601;  289,485;45694,459;15,87517
 686,25; 7417,433;  268,610;45801,107;15,70049
 686,83; 7476,890;  268,986;46040,130;15,74770
 687,40; 7454,597;  271,486;46368,403;15,58263
 687,97; 7554,554;  320,112;46800,426;15,56453
 688,55; 7449,886;  261,987;46780,324;15,45175
 689,12; 7462,468;  252,738;47106,097;15,38786
 689,69; 7469,800;  251,988;47276,120;15,34917
 690,26; 7486,132;  284,114;47282,268;15,32404
 690,84; 7456,589;  280,864;47466,291;15,20750
 691,41; 7486,671;  292,989;47543,814;15,22446
 691,98; 7392,002;  290,990;47849,338;14,93116
 692,56; 7421,959;  283,490;47992,486;14,96252
 693,13; 7461,041;  333,741;47930,634;14,97430
 693,70; 7412,873;  296,616;48156,157;14,86905
 694,27; 7329,830;  277,492;48320,430;14,67924
 694,84; 7401,287;  274,617;48283,453;14,84450
 695,42; 7455,369;  334,368;48461,226;14,79631
 695,99; 7388,701;  295,243;48699,999;14,65446
 696,56; 7351,908;  299,993;48540,897;14,61812
 697,13; 7469,240;  302,744;48925,920;14,73885
 697,71; 7401,197;  269,119;48999,193;14,63588
 698,28; 7428,653;  283,370;49405,966;14,54582
 698,85; 7358,485;  249,370;49296,989;14,49431
 699,42; 7385,817;  253,621;49625,012;14,44601
 699,99; 7432,399;  312,621;49631,660;14,43617
 700,57; 7384,606;  289,622;49586,808;14,39227
 701,14; 7359,313;  277,122;49828,706;14,29256
 701,71; 7352,770;  306,372;50106,229;14,14943
 702,28; 7359,477;  288,998;50036,502;14,21273
 702,85; 7328,809;  293,748;50162,275;14,10722
 703,43; 7389,766;  316,749;50517,548;14,08945
 704,00; 7410,848;  329,124;50576,571;14,09370
 704,57; 7384,180;  294,000;50587,469;14,09762
 705,14; 7407,011;  317,750;50860,617;14,02623
 705,71; 7382,843;  335,126;50856,015;13,95011
 706,28; 7325,675;  293,751;50807,788;13,92073
 706,86; 7359,007;  335,627;51117,436;13,83050
 707,43; 7405,464;  356,002;51008,084;13,91742
 708,00; 7362,796;  347,377;51065,857;13,83208
 708,57; 7350,503;  316,378;50978,380;13,88442
 709,14; 7349,335;  321,753;51090,278;13,84240
 709,71; 7307,667;  311,754;51182,301;13,75238
 710,28; 7396,874;  300,254;51321,824;13,90906
 710,86; 7366,706;  324,255;51582,972;13,73903
 711,43; 7388,537;  344,755;51464,246;13,77905
 712,00; 7372,244;  306,631;51554,269;13,78720
 712,57; 7422,951;  318,881;51784,167;13,80362
 713,14; 7416,908;  310,381;51844,315;13,78999
 713,71; 7379,615;  316,382;51749,463;13,73286
 714,28; 7401,822;  308,132;51931,111;13,74134
 714,85; 7302,654;  286,008;51683,759;13,65166
 715,42; 7349,861;  295,758;51733,157;13,71396
 716,00; 7451,193;  360,259;51956,430;13,74314
 716,57; 7434,150;  276,259;52042,203;13,82741
 717,14; 7353,982;  291,885;52019,101;13,65257
 717,71; 7415,938;  274,885;52054,749;13,79118
 718,28; 7458,770;  321,636;52231,647;13,74905
 718,85; 7436,352;  273,136;52118,545;13,81649
 719,42; 7482,184;  296,261;52376,568;13,79777
 719,99; 7401,391;  263,762;52071,091;13,77726
 720,56; 7469,223;  295,762;52425,364;13,76082
 721,13; 7478,430;  277,638;52591,262;13,76466
 721,70; 7462,637;  285,388;52369,535;13,78010
 722,27; 7474,969;  299,264;52396,308;13,77373
 722,84; 7572,301;  368,264;52681,081;13,77107
 723,41; 7535,133;  279,140;52583,854;13,87254
 723,98; 7526,465;  282,890;52802,377;13,79217
 724,55; 7560,796;  305,265;52910,900;13,79231
 725,12; 7545,003;  246,516;52940,923;13,85059
 725,69; 7591,960;  283,766;53179,571;13,81621
 726,27; 7608,792;  298,642;53126,469;13,83769
 726,84; 7651,624;  293,642;53352,242;13,86765
 727,41; 7697,831;  306,768;53391,515;13,92314
 727,98; 7709,913;  296,518;53660,038;13,89225
 728,55; 7737,620;  334,519;53580,186;13,90367
 729,12; 7775,577;  275,394;53601,084;14,06486
 729,69; 7736,034;  310,269;53876,107;13,86287
 730,26; 7823,491;  302,770;54065,006;13,98885
 730,82; 7804,697;  288,520;54019,904;13,98843
 731,39; 7867,529;  302,146;54016,427;14,08449
 731,96; 7915,986;  279,021;54388,575;14,11389
 732,53; 7955,693;  308,022;54627,473;14,07907
 733,10; 8039,025;  309,522;54698,121;14,21162
 733,67; 8128,732;  314,273;54980,519;14,29485
 734,24; 8037,314;  288,773;54620,042;14,26166
 734,81; 8081,146;  327,149;54793,065;14,23642
 735,38; 8090,603;  301,274;54538,713;14,36154
 735,95; 8087,560;  285,899;54446,986;14,40455
 736,52; 8138,392;  305,275;54654,509;14,41256
 737,09; 8138,474;  316,650;54377,032;14,46868
 737,66; 8219,430;  371,526;54601,805;14,47144
 738,23; 8215,387;  307,776;54618,953;14,55982
 738,80; 8338,219;  365,527;54814,351;14,64254
 739,37; 8387,176;  337,277;55003,124;14,72565
 739,94; 8375,508;  303,403;55125,022;14,72431
 740,51; 8518,090;  426,778;55155,170;14,78449
 741,07; 8419,797;  298,028;55179,818;14,79866
 741,64; 8532,879;  355,029;55282,966;14,88833
 742,21; 8552,086;  310,904;55248,489;15,00099
 742,78; 8512,668;  289,405;55257,012;14,96020
 743,35; 8546,250;  295,030;55337,035;14,99077
 743,92; 8731,456;  347,531;55591,308;15,17624
 744,49; 8702,538;  334,906;55353,331;15,20878
 745,06; 8744,120;  303,407;55281,354;15,35291
 745,63; 8766,702;  288,782;55351,752;15,39677
 746,19; 8803,784;  303,658;55344,775;15,44323
 746,76; 8836,491;  300,408;55377,923;15,49831
 747,33; 8875,073;  300,783;55335,571;15,57976
 747,90; 8937,405;  329,909;55570,344;15,58188
 748,47; 8961,112;  315,034;55503,617;15,66642
 749,04; 8932,694;  313,535;55530,640;15,60958
 749,61; 9050,651;  336,535;55599,789;15,76837
 750,17; 9024,982;  349,536;55701,812;15,67315
 750,74; 9089,939;  319,911;55566,710;15,87427
 751,31; 9063,021;  291,787;55396,858;15,91729
 751,88; 9056,103;  293,662;55242,881;15,94643
 752,45; 9104,060;  294,037;55405,654;15,98578
 753,02; 9151,142;  329,663;55378,177;16,02492
 753,58; 9119,224;  303,413;55347,575;16,01589
 754,15; 9181,056;  307,539;55378,848;16,11278
 754,72; 9245,513;  305,039;55070,746;16,32495
 755,29; 9149,220;  284,790;54946,644;16,21685
 755,86; 9267,302;  287,665;55141,042;16,37025
 756,42; 9371,884;  318,041;55009,065;16,55453
 756,99; 9341,965;  274,916;55078,588;16,54460
 757,56; 9322,047;  279,541;54976,861;16,53190
 758,13; 9402,004;  217,417;54791,509;16,82957
 758,70; 9502,836;  258,917;54846,032;16,93425
 759,26; 9526,043;  270,918;54975,680;16,91832
 759,83; 9561,625;  277,168;55085,203;16,93996
 760,40; 9592,457;  257,919;55051,726;17,03575
 760,97; 9605,789;  237,044;55103,374;17,07558
 761,53; 9580,871;  233,170;54726,272;17,15392
 762,10; 9625,578;  222,795;54644,420;17,27766
 762,67; 9660,785;  264,421;54679,193;17,26804
 763,24; 9612,991;  218,296;54202,341;17,40273
 763,80; 9684,198;  253,171;54363,364;17,42930
 764,37; 9708,530;  257,797;54371,387;17,46462
 764,94; 9722,612;  234,547;53955,285;17,66183
 765,50; 9669,694;  239,048;53921,933;17,56732
 766,07; 9750,026;  280,423;54013,831;17,62331
 766,64; 9775,983;  267,424;53652,354;17,81132
 767,21; 9798,190;  270,549;53620,252;17,85884
 767,77; 9829,647;  286,050;53446,525;17,95243
 768,34; 9827,729;  289,050;53410,424;17,95639
 768,91; 9933,436;  301,925;53276,072;18,18153
 769,47; 9998,892;  295,301;53384,470;18,27791
 770,04;10011,724;  295,801;53232,368;18,35390
 770,61; 9927,681;  272,302;52951,266;18,32872
 771,18; 9972,263;  266,927;52910,789;18,43584
 771,74;10028,720;  290,053;53126,187;18,43183
 772,31;10072,927;  287,428;52743,085;18,65480
 772,88;10101,509;  247,679;52519,358;18,85118
 773,44; 9967,966;  271,804;52427,381;18,59084
 774,01;10111,048;  285,429;52609,029;18,77856
 774,58;10106,255;  274,555;52070,177;18,98172
 775,14;10166,712;  257,555;52260,325;19,05505
 775,71;10125,169;  272,056;52224,098;18,96579
 776,27;10256,750;  320,056;52094,996;19,19209
 776,84;10340,707;  363,807;52179,269;19,25468
 777,41;10347,914;  294,682;51862,792;19,49506
 777,97;10279,371;  277,558;51629,940;19,47682
 778,54;10362,703;  283,808;51722,338;19,59406
 779,11;10432,660;  318,309;51829,486;19,63526
 779,67;10407,867;  289,934;51613,759;19,71391
 780,24;10440,324;  295,309;51413,157;19,84633
 780,80;10504,031;  296,810;51356,055;19,99094
 781,37;10538,113;  289,310;51356,328;20,06932
 781,94;10419,195;  293,186;51175,226;19,90095
 782,50;10514,776;  292,436;51084,749;20,12576
 783,07;10581,108;  311,312;51102,772;20,21953
 783,63;10602,065;  288,062;51079,170;20,30671
 784,20;10654,522;  287,188;50844,943;20,50592
 784,77;10624,854;  288,813;50769,216;20,47535
 785,33;10596,936;  264,938;50504,239;20,56557
 785,90;10605,518;  284,689;50605,637;20,51000
 786,46;10708,975;  303,439;50423,660;20,76115
 787,03;10730,432;  280,565;50221,558;20,92443
 787,59;10745,264;  284,190;50098,707;21,00005
 788,16;10767,221;  294,816;50187,355;20,98992
 788,73;10791,427;  303,941;50058,128;21,07860
 789,29;10802,509;  276,192;49704,276;21,29623
 789,86;10834,591;  308,567;49612,299;21,34935
 790,42;10822,048;  285,943;49536,822;21,39273
 790,99;10765,505;  310,443;49118,720;21,42067
 791,55;10894,337;  282,318;49117,368;21,73033
 792,12;10840,169;  324,819;49157,266;21,53353
 792,68;10889,126;  297,694;48807,289;21,83368
 793,25;10833,708;  285,445;48599,812;21,83256
 793,81;10942,915;  368,070;48284,085;22,06954
 794,38;10821,872;  254,571;48050,608;22,10916
 794,94;10959,329;  274,571;47933,756;22,41909
 795,51;10850,410;  284,947;47759,529;22,25499
 796,07;10872,617;  285,572;47600,302;22,37579
 796,64;10953,324;  294,447;47582,575;22,54028
 797,20;10920,406;  295,448;47264,598;22,62114
 797,77;10867,613;  253,073;46810,996;22,79857
 798,33;10879,070;  293,449;46616,144;22,85191
 798,90;10941,277;  299,824;46613,667;22,97683
 799,46;10885,484;  276,575;46204,065;23,09926
 800,03;10841,066;  285,450;46082,838;23,04851
 800,59;10961,898;  303,076;45922,986;23,36441
 801,15;10976,230;  307,326;45651,884;23,52852
 801,72;10916,061;  290,951;45333,157;23,58923
 802,28;10932,018;  319,702;45032,805;23,73424
 802,85;10829,100;  296,452;44956,578;23,58401
 803,41;10873,557;  277,703;44739,351;23,83145
 803,98;10893,889;  284,953;44325,249;24,08916
 804,54;10856,346;  278,579;44070,647;24,15453
 805,11;10897,178;  297,454;43951,795;24,28103
 805,67;10909,760;  308,830;43792,443;24,37914
 806,23;10863,717;  306,705;43382,592;24,50794
 806,80;10922,299;  317,331;43176,615;24,74369
 807,36;10956,006;  305,331;43235,263;24,80944
 807,93;10918,463;  322,581;42844,536;24,91861
 808,49;10839,044;  274,957;42587,809;24,96662
 809,05;10909,376;  266,582;42414,707;25,25093
 809,62;10922,708;  292,958;42395,230;25,24745
 810,18;10929,040;  286,458;42319,878;25,31933
 810,74;10946,122;  260,459;42027,276;25,58410
 811,31;10884,329;  251,834;41764,049;25,61293
 811,87;10948,661;  287,460;41595,322;25,80913
 812,44;10977,118;  309,460;41703,720;25,77086
 813,00;10894,325;  230,710;41293,368;25,96913
 813,56;11023,032;  282,711;41415,641;26,11125
 814,13;11045,864;  276,461;41289,914;26,25822
 814,69;11038,320;  280,087;41046,437;26,38998
 815,25;10966,652;  234,837;40675,585;26,53713
 815,82;11036,609;  282,713;40590,108;26,67971
 816,38;11024,066;  313,713;40538,881;26,62600
 816,94;10930,023;  274,589;40158,029;26,71644
 817,51;10930,730;  257,714;39859,927;26,95055
 818,07;10914,062;  257,839;39667,700;27,03948
 818,63;10956,894;  289,840;39498,473;27,20588
 819,20;11006,976;  266,340;39398,871;27,44682
 819,76;10856,933;  246,466;39101,644;27,30773
 820,32;10952,265;  280,841;39011,042;27,55323
 820,89;10900,846;  288,092;38736,065;27,60290
 821,45;10841,553;  267,217;38466,088;27,68233
 822,01;10866,260;  265,093;38158,111;27,97657
 822,57;10781,842;  279,468;38189,759;27,70323
 823,14;10811,924;  239,344;37857,282;28,10516
 823,70;10755,631;  272,094;37686,305;28,02020
 824,26;10677,463;  266,219;37482,953;27,97463
 824,82;10744,670;  286,220;37313,476;28,24527
 825,39;10635,002;  263,595;37000,625;28,23148
 825,95;10723,209;  268,221;37130,398;28,36237
 826,51;10590,666;  286,471;36660,296;28,32860
 827,08;10627,998;  319,847;36759,944;28,28793
 827,64;10653,454;  278,597;36610,092;28,55610
 828,20;10614,411;  251,723;36290,115;28,75458
 828,76;10608,993;  294,848;36350,638;28,60607
 829,32;10626,950;  301,473;36122,411;28,82526
 829,89;10607,782;  252,224;36009,559;28,96065
 830,45;10632,239;  278,349;35833,582;29,12058
 831,01;10661,946;  277,725;35798,230;29,23444
 831,57;10646,153;  271,850;35675,003;29,30333
 832,14;10665,860;  253,101;35576,526;29,47834
 832,70;10677,942;  235,976;35404,174;29,69150
 833,26;10610,024;  230,227;35218,322;29,66665
 833,82;10673,855;  264,477;35142,345;29,84523
 834,38;10721,812;  250,978;35230,493;29,93419
 834,95;10749,644;  260,603;35090,141;30,11536
 835,51;10754,101;  235,103;35008,414;30,25021
 836,07;10866,433;  270,229;35057,937;30,45962
 836,63;10905,015;  283,979;34973,960;30,61701
 837,19;10913,472;  291,105;34833,483;30,75170
 837,75;10820,679;  221,230;34505,131;30,91669
 838,32;10941,636;  287,481;34618,779;31,03336
 838,88;11003,968;  280,481;34716,177;31,14061
 839,44;11042,300;  288,982;34549,450;31,38696
 840,00;11046,131;  274,607;34511,348;31,46189
 840,56;10965,713;  262,982;34225,496;31,51336
 841,12;11053,545;  251,233;34224,894;31,79614
 841,68;11038,127;  230,358;33893,042;32,10608
 842,25;11088,084;  252,234;34014,440;32,09462
 842,81;11076,791;  245,234;33837,963;32,24375
 843,37;11110,373;  234,735;33749,111;32,45067
 843,93;11079,830;  270,360;33702,760;32,33232
 844,49;11207,662;  279,986;33763,033;32,63644
 845,05;11178,619;  222,736;33538,806;32,88468
 845,61;11204,576;  284,111;33659,704;32,71991
 846,17;11214,283;  247,362;33445,477;33,03477
 846,73;11280,239;  265,487;33395,500;33,24705
 847,29;11232,321;  245,363;33244,023;33,29517
 847,86;11256,528;  256,363;33235,796;33,35462
 848,42;11198,485;  253,989;32993,694;33,42882
 848,98;11246,817;  260,864;32951,092;33,60623
 849,54;11348,899;  247,240;33001,615;33,89367
 850,10;11332,606;  266,490;32797,013;34,01764
 850,66;11307,063;  243,741;32648,661;34,14087
 851,22;11298,770;  228,616;32741,809;34,04819
 851,78;11366,477;  286,241;32630,707;34,25697
 852,34;11274,184;  272,867;32366,480;34,27884
 852,90;11333,515;  247,742;32345,253;34,53780
 853,46;11233,097;  258,993;32266,151;34,28641
 854,02;11334,179;  253,493;32184,174;34,70232
 854,58;11278,386;  254,494;31899,447;34,83618
 855,14;11268,843;  246,744;31813,345;34,91696
 855,70;11278,175;  224,870;31658,118;35,16438
 856,26;11278,007;  264,620;31672,141;35,06608
 856,82;11284,464;  257,245;31568,914;35,21760
 857,38;11245,421;  282,746;31440,062;35,18491
 857,94;11293,003;  252,996;31288,835;35,57180
 858,50;11217,960;  285,622;31094,608;35,48425
 859,06;11219,792;  232,997;30921,131;35,80144
 859,62;11236,748;  276,498;30964,779;35,71477
 860,18;11172,830;  260,748;30862,302;35,65859
 860,74;11117,912;  230,249;30585,200;35,86783
 861,30;11079,994;  227,499;30472,098;35,88242
 861,86;11249,951;  316,875;30517,371;36,20164
 862,42;11148,533;  260,500;30274,894;36,27604
 862,98;11226,240;  285,625;30344,668;36,39708
 863,54;11131,447;  263,876;30064,816;36,46721
 864,10;11216,779;  259,251;30079,839;36,74484
 864,66;11108,111;  241,127;29868,987;36,67826
 865,22;11150,068;  240,377;29722,385;37,00457
 865,78;11099,774;  257,253;29662,158;36,87317
 866,34;11153,231;  234,378;29471,431;37,34594
 866,90;11130,688;  247,254;29380,204;37,35782
 867,45;11060,395;  249,754;29259,227;37,26590
 868,01;11114,227;  262,879;29116,750;37,60794
 868,57;11074,934;  246,880;28889,273;37,80429
 869,13;11051,766;  229,755;28812,671;37,86181
 869,69;11069,473;  238,381;28766,319;37,96661
 870,25;11020,055;  223,881;28501,092;38,17977
 870,81;10991,887;  250,132;28594,365;37,89750
 871,37;11091,094;  258,507;28440,763;38,43761
 871,93;11017,800;  269,508;28325,911;38,30959
 872,49;10951,757;  291,133;28027,684;38,43529
 873,04;10866,839;  235,508;27799,082;38,57022
 873,60;10913,296;  242,259;27761,105;38,77720
 874,16;10863,003;  270,134;27678,378;38,64848
 874,72;10857,253;  257,759;27574,003;38,80290
 875,28;10914,878;  255,634;27548,378;39,05523
 875,84;10916,378;  250,759;27388,003;39,30251
 876,40;10870,878;  235,259;27368,753;39,19738
 876,95;10963,253;  270,259;27426,128;39,37636
 877,51;11037,753;  281,009;27443,628;39,60128
 878,07;11101,128;  294,259;27361,878;39,92545
 878,63;11099,253;  251,259;27411,753;39,94034
 879,19;11161,753;  266,384;27291,628;40,31552
 879,75;11122,003;  241,009;27423,878;40,02886
 880,30;11148,878;  244,509;27399,378;40,15622
 880,86;11270,378;  301,134;27534,628;40,27850
 881,42;11321,003;  233,009;27552,503;40,58638
 881,98;11394,378;  260,759;27569,628;40,76924
 882,54;11483,253;  250,259;27762,378;40,82926
 883,09;11517,003;  262,884;27892,003;40,73282
 883,65;11623,253;  244,134;27990,503;41,01120
 884,21;11784,128;  292,884;28238,128;41,12057
 884,77;11808,253;  240,759;28121,878;41,48863
 885,32;11901,128;  257,259;28303,628;41,51649
 885,88;12047,378;  291,509;28606,253;41,51854
 886,44;12100,128;  270,009;28655,253;41,67700
 887,00;12149,128;  276,509;28478,503;42,09851
 887,56;12279,378;  253,634;28735,378;42,22264
 888,11;12330,503;  263,634;28811,503;42,26890
 888,67;12449,753;  303,509;28942,128;42,41211
 889,23;12491,253;  259,634;28870,128;42,75221
 889,79;12552,003;  238,259;28843,503;43,04716
 890,34;12528,878;  270,509;28832,003;42,91921
 890,90;12633,378;  340,259;29040,753;42,83243
 891,46;12564,128;  243,634;28789,878;43,15977
 892,01;12687,003;  262,759;28743,628;43,62312
 892,57;12672,503;  272,009;28809,253;43,45372
 893,13;12541,753;  230,009;28569,378;43,44396
 893,69;12608,378;  250,009;28504,503;43,73948
 894,24;12599,628;  259,509;28454,378;43,76725
 894,80;12617,003;  258,134;28242,378;44,16367
 895,36;12603,128;  257,884;28222,128;44,14653
 895,91;12467,753;  242,884;27902,003;44,19833
 896,47;12466,503;  274,634;27778,378;44,32803
 897,03;12342,878;  240,384;27576,753;44,27250
 897,58;12341,253;  263,634;27518,253;44,31403
 898,14;12249,878;  276,634;27360,753;44,20762
 898,70;12218,503;  226,759;27240,253;44,39168
 899,25;12289,628;  262,509;27187,253;44,66939
 899,81;12229,378;  280,384;26960,503;44,78613
 900,37;12201,003;  226,634;26767,128;45,11735
 900,92;12161,753;  252,009;26852,753;44,77222
 901,48;12183,253;  248,509;26677,378;45,15798
 902,03;12137,128;  240,634;26584,128;45,15913
 902,59;12082,503;  236,009;26463,503;45,16823
 903,15;12160,753;  273,384;26409,253;45,48297
 903,70;11980,253;  255,134;26077,503;45,40683
 904,26;11994,753;  247,259;25967,003;45,67500
 904,82;12042,753;  244,509;25982,878;45,83913
 905,37;11983,753;  250,134;25797,128;45,92955
 905,93;11900,003;  236,759;25589,003;46,00478
 906,48;11928,253;  269,259;25615,253;45,99936
 907,04;11904,628;  268,384;25577,878;45,97581
 907,60;11819,378;  256,384;25384,503;46,01615
 908,15;11776,003;  236,384;25188,503;46,24705
 908,71;11842,628;  268,009;25178,378;46,46506
 909,26;11785,878;  246,009;25020,253;46,58010
 909,82;11736,628;  257,759;24899,628;46,58279
 910,37;11774,253;  294,509;24955,003;46,55115
 910,93;11704,003;  233,134;24603,128;47,06964
 911,48;11659,003;  233,384;24536,378;47,01322
 912,04;11650,378;  237,009;24384,628;47,26499
 912,60;11642,128;  232,134;24362,003;47,28577
 913,15;11573,753;  252,259;24192,878;47,28990
 913,71;11574,753;  234,634;23992,253;47,73256
 914,26;11489,753;  223,259;23946,878;47,49062
 914,82;11521,628;  256,509;23871,628;47,70299
 915,37;11524,128;  232,634;23710,003;48,09523
 915,93;11502,003;  304,259;23696,003;47,87050
 916,48;11476,878;  236,759;23541,128;48,23181
 917,04;11459,628;  258,134;23497,003;48,20154
 917,59;11378,378;  280,509;23373,003;48,05834
 918,15;11364,128;  219,009;23159,128;48,58353
 918,70;11313,378;  254,759;23074,003;48,46181
 919,26;11328,503;  256,009;23019,128;48,64225
 919,81;11293,503;  237,884;22797,628;49,00596
 920,37;11219,628;  250,384;22774,128;48,70080
 920,92;11335,378;  269,384;22682,628;49,37257
 921,48;11239,628;  243,634;22514,378;49,37416
 922,03;11261,753;  223,384;22542,503;49,45701
 922,59;11183,753;  257,509;22375,003;49,40091
 923,14;11178,753;  253,884;22156,253;49,87985
 923,69;11208,503;  263,384;22180,628;49,93839
 924,25;11185,003;  275,259;22133,003;49,91249
 924,80;11117,003;  237,759;21890,003;50,24534
 925,36;11072,628;  241,384;21806,878;50,22488
 925,91;11090,253;  243,884;21630,003;50,71686
 926,47;11072,753;  212,384;21562,503;50,86795
 927,02;11044,503;  309,009;21570,128;50,49355
 927,57;10936,253;  242,259;21285,378;50,81943
 928,13;10943,628;  230,259;21367,003;50,68599
 928,68;10924,128;  233,259;21214,128;50,95532
 929,24;10840,878;  214,759;21045,628;51,01140
 929,79;10840,003;  219,509;20830,128;51,52923
 930,34;10793,378;  245,259;20796,378;51,32625
 930,90;10864,378;  238,634;20702,128;51,92536
 931,45;10869,503;  253,009;20658,003;52,02890
 932,01;10851,753;  250,384;20551,628;52,22029
 932,56;10810,628;  267,634;20470,003;52,18692
 933,11;10882,003;  267,884;20446,628;52,60049
 933,67;10824,253;  229,259;20221,628;52,99519
 934,22;10747,503;  250,259;20171,003;52,69504
 934,77;10846,503;  254,384;20040,753;53,53240
 935,33;10735,253;  237,259;20014,753;53,08051
 935,88;10758,878;  249,759;19904,753;53,46793
 936,43;10750,378;  245,509;19795,128;53,73439
 936,99;10778,128;  235,884;19691,878;54,18507
 937,54;10661,503;  217,259;19403,378;54,43646
 938,09;10712,878;  253,884;19535,878;54,24228
 938,65;10702,878;  254,634;19403,378;54,56360
 939,20;10680,753;  211,884;19236,628;55,02765
 939,75;10653,878;  223,134;19270,753;54,76141
 940,31;10568,253;  227,634;19060,128;54,90839
 940,86;10597,503;  243,259;19067,378;55,00520
 941,41;10603,753;  331,009;19018,878;54,97012
 941,96;10502,753;  229,509;18780,503;55,37840
 942,52;10463,878;  251,009;18697,628;55,36445
 943,07;10422,628;  218,134;18676,128;55,28496
 943,62;10419,128;  226,259;18607,503;55,45255
 944,18;10370,753;  221,384;18586,378;55,26475
 944,73;10391,878;  245,259;18394,253;55,90734
 945,28;10304,878;  207,634;18279,003;55,87426
 945,83;10337,878;  234,134;18219,378;56,17796
 946,39;10362,503;  230,384;18248,128;56,23412
 946,94;10324,878;  261,009;18027,753;56,64442
 947,49;10254,878;  236,509;17966,753;56,50441
 948,04;10291,503;  275,009;18014,128;56,46557
 948,59;10250,253;  268,384;17873,253;56,69948
 949,15;10151,503;  231,884;17804,503;56,44929
 949,70;10261,003;  234,259;17653,503;57,56130
 950,25;10219,378;  248,884;17706,878;57,11134
 950,80;10150,628;  205,759;17511,628;57,46530
 951,36;10069,378;  217,884;17507,128;56,98048
 951,91;10218,378;  253,009;17470,503;57,87932
 952,46;10038,253;  222,509;17188,628;57,85497
 953,01;10083,128;  250,134;17225,128;57,92635
 953,56; 9970,503;  213,634;17122,753;57,70182
 954,11;10014,628;  243,884;17078,753;58,03873
 954,67; 9937,253;  223,009;16969,128;58,00893
 955,22; 9915,753;  224,384;16796,378;58,48040
 955,77; 9868,753;  253,509;16719,628;58,39411
 956,32; 9967,753;  288,634;16633,628;59,21764
 956,87; 9855,878;  225,384;16514,753;59,12134
 957,42; 9798,378;  231,384;16456,628;58,96364
 957,98; 9814,253;  232,509;16379,378;59,34119
 958,53; 9817,753;  265,634;16353,253;59,37559
 959,08; 9730,128;  224,634;16219,128;59,42979
 959,63; 9723,128;  233,634;16169,003;59,54988
 960,18; 9702,378;  244,384;16146,878;59,47491
 960,73; 9664,003;  234,634;16087,128;59,48193
 961,28; 9632,253;  203,384;15994,628;59,70948
 961,83; 9696,878;  266,759;15909,253;60,28526
 962,39; 9589,753;  227,259;15738,003;60,36135
 962,94; 9549,253;  249,134;15684,003;60,25395
 963,49; 9527,753;  234,884;15612,003;60,43309
 964,04; 9510,628;  252,884;15539,503;60,56110
 964,59; 9422,003;  203,759;15504,378;60,24752
 965,14; 9467,628;  250,509;15330,128;61,12302
 965,69; 9414,503;  235,134;15311,378;60,88631
 966,24; 9360,253;  221,134;15202,003;61,00527
 966,79; 9314,253;  252,884;15151,128;60,82172
 967,34; 9227,878;  203,259;14946,253;61,21293
 967,89; 9247,753;  234,634;14840,753;61,70783
 968,44; 9175,128;  250,884;14788,878;61,38566
 968,99; 9198,003;  256,259;14732,253;61,76946
 969,55; 9174,003;  242,884;14691,128;61,81456
 970,10; 9169,378;  234,884;14614,628;62,13250
 970,65; 9107,503;  262,759;14470,378;62,25353
 971,20; 8997,628;  225,009;14369,878;62,01980
 971,75; 8903,503;  217,884;14270,753;61,80673
 972,30; 8933,003;  245,009;14232,503;62,11258
 972,85; 8865,253;  233,509;14126,628;62,12963
 973,40; 8820,753;  220,509;13932,253;62,72174
 973,95; 8803,378;  237,884;13944,253;62,49280
 974,50; 8761,378;  265,884;13852,253;62,52954
 975,05; 8780,628;  245,759;13745,753;63,22128
 975,60; 8777,753;  260,884;13712,128;63,31659
 976,15; 8676,003;  228,884;13604,628;63,15252
 976,70; 8705,128;  239,134;13528,503;63,70501
 977,25; 8663,003;  252,634;13442,003;63,76627
 977,80; 8567,003;  228,009;13275,003;63,91506
 978,35; 8468,378;  254,884;13120,753;63,83940
 978,89; 8476,003;  210,134;13086,628;64,19347
 979,44; 8529,003;  248,134;13051,753;64,67600
 979,99; 8422,628;  214,509;12875,128;64,83189
 980,54; 8481,253;  261,009;12754,628;65,79554
 981,09; 8408,503;  267,759;12682,628;65,57253
 981,64; 8326,628;  252,759;12533,003;65,74681
 982,19; 8314,128;  269,759;12554,128;65,48459
 982,74; 8246,878;  248,759;12370,003;65,98431
 983,29; 8149,253;  237,884;12254,378;65,83758
 983,84; 8121,503;  240,509;12178,503;66,01607
 984,39; 8216,378;  335,759;12094,003;67,02207
 984,94; 7949,753;  220,259;11988,128;65,68304
 985,49; 8010,128;  262,884;11895,878;66,59716
 986,03; 7945,003;  260,634;11798,878;66,59912
 986,58; 7917,503;  293,884;11771,503;66,42161
 987,13; 7821,503;  246,259;11579,128;66,84313
 987,68; 7768,753;  253,509;11507,503;66,77846
 988,23; 7719,003;  263,509;11439,503;66,70990
 988,78; 7656,628;  232,884;11302,628;67,06337
 989,33; 7593,628;  254,509;11168,253;67,24657
 989,88; 7595,128;  285,134;11193,503;67,01271
 990,42; 7552,378;  244,259;10999,128;67,95172
 990,97; 7446,128;  243,759;10884,503;67,68670
 991,52; 7428,878;  265,884;10848,378;67,68720
 992,07; 7412,128;  280,634;10702,003;68,43145
 992,62; 7336,128;  247,134;10623,128;68,32111
 993,17; 7253,378;  259,634;10504,003;68,26915
 993,71; 7241,628;  260,509;10500,253;68,17669
 994,26; 7143,503;  233,259;10249,128;68,99295
 994,81; 7128,003;  277,509;10310,253;68,28136
 995,36; 7038,253;  243,134;10066,503;69,17300
 995,91; 7027,503;  241,009;10022,253;69,38273
 996,45; 6953,878;  262,259; 9928,878;69,22399
 997,00; 6879,378;  235,384; 9768,628;69,69290
 997,55; 6875,503;  250,634; 9720,753;69,95550
 998,10; 6779,753;  271,134; 9657,253;69,34303
 998,65; 6750,878;  240,134; 9575,003;69,74649
 999,19; 6652,753;  273,384; 9418,378;69,75804
 999,74; 6578,628;  296,634; 9336,253;69,49401
1000,29; 6558,128;  248,134; 9231,878;70,23791
1000,84; 6492,253;  260,384; 9129,378;70,26579
1001,38; 6430,253;  257,509; 9017,628;70,46416
1001,93; 6344,003;  261,384; 8967,378;69,86702
1002,48; 6305,628;  231,634; 8805,128;70,84619
1003,03; 6277,128;  262,509; 8742,128;70,93030
1003,57; 6253,878;  246,509; 8670,753;71,31048
1004,12; 6215,378;  298,384; 8602,003;71,25801
1004,67; 6135,628;  238,634; 8466,003;71,67533
1005,22; 5988,128;  243,509; 8329,503;71,04407
1005,76; 5949,378;  233,884; 8179,378;71,93378
1006,31; 5966,253;  261,634; 8210,128;71,76981
1006,86; 5819,253;  241,384; 8008,878;71,81041
1007,40; 5797,003;  227,884; 7869,878;72,87521
1007,95; 5746,628;  253,009; 7873,503;72,09006
1008,50; 5664,753;  257,759; 7767,753;71,99731
1009,04; 5582,003;  249,509; 7615,503;72,39341
1009,59; 5520,128;  249,884; 7503,128;72,66051
1010,14; 5440,253;  231,384; 7368,753;72,98024
1010,68; 5380,628;  251,509; 7250,003;73,28890
1011,23; 5290,878;  250,259; 7134,003;73,22496
1011,78; 5242,503;  266,259; 7093,128;72,89204
1012,32; 5200,878;  278,509; 7000,253;73,23053
1012,87; 5139,378;  271,009; 6989,378;72,46355
1013,42; 5012,253;  235,384; 6848,503;72,23322
1013,96; 5134,503;  275,759; 6864,128;73,74730
1014,51; 4976,503;  214,259; 6725,128;73,14298
1015,06; 5020,003;  221,259; 6773,628;73,23678
1015,60; 5073,503;  291,134; 6803,253;73,43798
1016,15; 5022,878;  236,009; 6754,753;73,43238
1016,69; 5062,378;  247,134; 6759,253;73,94281
1017,24; 5058,378;  218,259; 6711,378;74,54228
1017,79; 5160,378;  287,259; 6827,503;74,50974
1018,33; 5126,253;  252,509; 6727,253;75,27315
1018,88; 5220,253;  259,384; 6856,503;75,19751
1019,42; 5199,003;  233,009; 6879,628;74,71459
1019,97; 5234,503;  232,634; 6881,003;75,23453
1020,51; 5282,878;  273,884; 6943,003;75,10728
1021,06; 5237,878;  234,634; 6865,003;75,45951
1021,61; 5248,628;  216,634; 6885,503;75,45498
1022,15; 5217,628;  191,634; 6840,878;75,58745
1022,70; 5251,253;  249,759; 6853,628;75,73581
1023,24; 5262,378;  238,634; 6839,253;76,11019
1023,79; 5183,128;  243,134; 6774,503;75,63489
1024,33; 5186,128;  240,259; 6673,378;76,88135
1024,88; 5145,628;  258,509; 6621,503;76,80534
1025,42; 5016,378;  251,134; 6513,753;76,09027
1025,97; 4976,753;  218,259; 6406,753;76,89260
1026,51; 4872,503;  207,009; 6313,378;76,40373
1027,06; 4866,878;  227,634; 6260,253;76,90265
1027,60; 4858,628;  246,884; 6132,253;78,35947
1028,15; 4746,253;  254,509; 6078,753;77,12149
1028,69; 4613,003;  191,134; 5940,003;76,91720
1029,24; 4644,003;  239,134; 5863,253;78,32105
1029,78; 4556,878;  219,759; 5768,378;78,16574
1030,33; 4441,753;  217,634; 5648,628;77,77801
1030,87; 4443,503;  223,634; 5602,003;78,46001
1031,42; 4362,503;  218,009; 5497,003;78,50916
1031,96; 4341,128;  247,384; 5439,878;78,83965
1032,51; 4268,753;  230,759; 5345,128;78,95390
1033,05; 4209,503;  237,134; 5284,003;78,70957
1033,60; 4108,753;  215,259; 5192,128;78,23179
1034,14; 4090,128;  221,009; 5125,753;78,88524
1034,69; 4055,503;  235,384; 5066,003;79,08135
1035,23; 4000,128;  230,009; 5000,378;79,03202
1035,77; 3954,128;  235,759; 4943,253;78,98829
1036,32; 3914,253;  217,009; 4838,128;80,00755
1036,86; 3870,378;  246,634; 4790,878;79,74360
1037,41; 3778,628;  252,759; 4708,378;79,13309
1037,95; 3712,753;  200,259; 4616,253;79,54028
1038,50; 3700,503;  228,259; 4563,503;80,09339
1039,04; 3726,628;  256,759; 4536,378;81,07892
1039,58; 3646,253;  212,634; 4473,128;80,59204
1040,13; 3556,128;  221,759; 4372,253;80,33668
1040,67; 3592,003;  259,259; 4397,878;80,52792
1041,21; 3542,253;  258,509; 4295,628;81,33880
1041,76; 3433,003;  216,259; 4204,253;80,66070
1042,30; 3452,628;  228,009; 4140,253;82,42377
1042,85; 3409,378;  222,509; 4049,378;83,27614
1043,39; 3339,753;  216,759; 4013,003;82,26536
1043,93; 3331,503;  239,009; 4026,378;81,65283
1044,48; 3276,378;  246,134; 3922,253;82,43052
1045,02; 3248,628;  228,134; 3879,878;82,71374
1045,56; 3208,003;  263,634; 3844,628;82,22211
1046,11; 3155,003;  242,509; 3809,253;81,65694
1046,65; 3146,628;  250,009; 3732,878;83,16761
1047,19; 3079,003;  230,259; 3646,128;83,39734
1047,74; 3029,378;  214,259; 3568,378;83,93021
1048,28; 3006,378;  237,884; 3582,253;82,78076
1048,82; 2979,128;  259,134; 3544,628;82,78798
1049,37; 2946,378;  248,009; 3496,253;83,07162
1049,91; 2909,378;  240,509; 3480,253;82,37901
1050,45; 2863,003;  253,884; 3407,003;82,74724
1050,99; 2852,128;  253,009; 3363,628;83,55633
1051,54; 2760,378;  220,884; 3270,503;83,27250
1052,08; 2816,503;  266,259; 3269,128;84,92691
1052,62; 2750,003;  247,759; 3227,878;83,96457
1053,16; 2714,378;  226,634; 3147,628;85,16772
1053,71; 2695,003;  235,259; 3155,378;84,23437
1054,25; 2628,753;  263,259; 3056,753;84,67868
1054,79; 2614,503;  248,259; 3051,378;84,41468
1055,33; 2561,378;  207,009; 2974,378;85,07608
1055,88; 2546,503;  252,509; 2923,753;85,87737
1056,42; 2539,128;  250,634; 2927,503;85,49144
1056,96; 2482,753;  265,634; 2908,503;83,89061
1057,50; 2470,128;  234,634; 2872,628;84,74219
1058,05; 2386,503;  246,634; 2782,628;84,37989
1058,59; 2417,628;  270,634; 2757,378;86,33755
1059,13; 2310,878;  222,884; 2688,378;84,68867
1059,67; 2328,003;  260,759; 2655,503;86,32422
1060,21; 2293,878;  244,134; 2629,753;85,92084
1060,76; 2273,753;  254,884; 2590,878;86,42441
1061,30; 2255,628;  278,009; 2573,753;86,14283
1061,84; 2194,878;  238,384; 2505,378;86,30345
1062,38; 2135,753;  224,759; 2454,003;85,72386
1062,92; 2198,128;  283,259; 2508,003;86,07143
1063,46; 2122,878;  251,884; 2403,128;86,97265
1064,01; 2116,878;  229,384; 2331,253;89,80074
1064,55; 2084,503;  249,509; 2332,128;88,10992
1065,09; 2010,378;  213,509; 2301,253;86,06750
1065,63; 2059,628;  275,509; 2314,878;87,48387
1066,17; 2001,878;  282,259; 2276,003;86,25074
1066,71; 2005,003;  269,634; 2232,628;88,40419
1067,25; 1953,503;  252,759; 2183,628;88,08179
1067,80; 1947,628;  267,509; 2176,878;87,99341
1068,34; 1903,253;  267,884; 2183,003;85,39255
1068,88; 1865,753;  227,384; 2107,253;87,15336
1069,42; 1891,003;  264,634; 2130,503;87,16416
1069,96; 1826,503;  258,759; 2054,753;87,29116
1070,50; 1845,503;  281,509; 2088,753;86,54028
1071,04; 1799,628;  241,009; 1996,628;88,77888
1071,58; 1787,378;  245,134; 1985,003;88,64138
1072,12; 1775,878;  241,759; 1958,503;89,36213
1072,66; 1748,253;  242,759; 1971,878;87,06711
1073,21; 1736,753;  265,009; 1939,378;87,89842
1073,75; 1717,128;  260,759; 1910,503;88,27848
1074,29; 1699,378;  239,884; 1852,753;90,49055
1074,83; 1677,128;  271,509; 1869,628;87,95459
1075,37; 1669,128;  267,509; 1846,628;88,75955
1075,91; 1635,253;  262,884; 1820,878;88,08564
1076,45; 1617,253;  264,509; 1808,253;87,62748
1076,99; 1602,878;  274,884; 1784,753;87,95425
1077,53; 1573,378;  251,384; 1737,503;88,95613
1078,07; 1580,003;  263,009; 1706,003;91,26815
1078,61; 1528,753;  259,634; 1672,003;89,85746
1079,15; 1533,253;  242,759; 1671,378;90,33157
1079,69; 1552,628;  242,259; 1661,003;92,36120
1080,23; 1519,378;  270,509; 1651,003;90,46537
1080,77; 1573,628;  300,884; 1695,753;91,24470
1081,31; 1485,003;  243,634; 1588,003;92,33841
1081,85; 1479,128;  263,634; 1627,378;89,12919
1082,39; 1461,878;  244,884; 1565,128;92,17947
1082,93; 1430,503;  247,134; 1560,753;90,08464
1083,47; 1398,753;  233,384; 1516,628;90,81429
1084,01; 1418,753;  267,259; 1536,628;90,71389
1084,55; 1380,253;  248,009; 1494,628;90,82518
1085,09; 1389,753;  254,384; 1500,253;91,13069
1085,63; 1384,128;  252,259; 1475,878;92,50175
1086,17; 1364,253;  261,134; 1448,003;92,94362
1086,71; 1317,753;  245,009; 1412,128;91,91385
1087,24; 1335,128;  278,509; 1442,753;90,75580
1087,78; 1332,003;  260,259; 1446,503;90,34768
1088,32; 1282,503;  236,509; 1385,253;91,05545
1088,86; 1301,878;  271,384; 1385,253;92,51483
1089,40; 1273,503;  262,759; 1364,503;91,74037
1089,94; 1239,128;  224,009; 1318,878;92,71602
1090,48; 1242,503;  261,259; 1308,128;93,73131
1091,02; 1259,753;  277,884; 1317,253;94,46780
1091,56; 1224,003;  241,509; 1288,628;93,82830
1092,10; 1194,253;  234,634; 1270,628;92,62785
1092,63; 1214,003;  273,884; 1284,753;93,00107
1093,17; 1177,503;  263,134; 1265,628;91,20942
1093,71; 1159,628;  246,884; 1246,753;91,28636
1094,25; 1169,628;  278,009; 1237,003;92,97441
1094,79; 1134,878;  242,759; 1230,628;90,30742
1095,33; 1149,503;  264,509; 1201,378;94,46294
1095,87; 1107,753;  259,384; 1185,378;91,61711
1096,40; 1095,128;  242,634; 1136,253;95,39793
1096,94; 1089,378;  264,759; 1172,753;90,81767
1097,48; 1085,253;  273,509; 1160,628;91,50339
1098,02; 1073,128;  250,634; 1128,003;93,74550
1098,56; 1021,128;  223,384; 1101,503;90,84691
1099,10; 1045,378;  216,259; 1081,003;95,88028
1099,63; 1005,878;  226,884; 1054,878;94,08208
1100,17; 1049,378;  252,759; 1122,253;91,61869
1100,71; 1038,628;  285,884; 1087,378;93,91761

