
Integration time [ms]: 130,000
Averaging Nr. [scans]: 8
Smoothing Nr. [pixels]: 0
Data measured with spectrometer [name]: 2009305U1
Wave   ;Sample   ;Dark     ;Reference;Reflectance
[nm]   ;[counts] ;[counts] ;[counts] ;[%]

 175,72;  213,625;  184,647;  202,659;160,87872
 176,32;  240,667;  222,897;  211,946; 0,00000
 176,92;  284,983;  236,022;  234,253; 0,00000
 177,52;  279,932;  247,022;  266,339;170,37188
 178,12;  250,434;  220,272;  216,819; 0,00000
 178,72;  275,170;  254,772;  232,116; 0,00000
 179,32;  274,280;  236,022;  236,650; 0,00000
 179,92;  271,329;  237,272;  239,552;1493,32221
 180,52;  266,812;  227,272;  247,498;195,49181
 181,12;  271,210;  233,897;  247,458;275,14362
 181,73;  303,656;  255,022;  265,840;449,54027
 182,33;  386,122;  298,022;  312,473;609,65884
 182,93;  305,381;  253,272;  263,032;533,87211
 183,53;  254,618;  231,647;  214,044; 0,00000
 184,13;  252,757;  240,772;  231,230; 0,00000
 184,73;  295,282;  260,772;  254,913; 0,00000
 185,33;  304,454;  221,522;  332,987;74,40185
 185,93;  308,436;  240,897;  349,033;62,45811
 186,53;  329,848;  235,397;  360,514;75,48957
 187,13;  339,570;  276,147;  418,944;44,41532
 187,73;  307,808;  221,397;  354,971;64,69185
 188,33;  312,596;  236,147;  369,308;57,41097
 188,93;  312,375;  233,772;  375,642;55,40517
 189,53;  320,270;  250,022;  372,915;57,16196
 190,13;  348,158;  256,647;  403,968;62,11635
 190,73;  292,647;  221,647;  340,553;59,71118
 191,34;  330,890;  260,647;  370,341;64,03566
 191,94;  313,643;  230,772;  342,362;74,26360
 192,54;  313,924;  258,772;  381,996;44,75788
 193,14;  322,301;  253,272;  373,617;57,35914
 193,74;  329,301;  241,272;  359,726;74,31463
 194,34;  311,317;  242,897;  362,007;57,44320
 194,94;  294,125;  212,772;  337,936;64,99681
 195,54;  274,082;  211,022;  325,315;55,17434
 196,14;  294,308;  222,147;  348,806;56,97301
 196,74;  278,191;  215,397;  317,051;61,77254
 197,34;  273,803;  183,272;  330,840;61,34862
 197,94;  298,522;  219,522;  362,590;55,21874
 198,54;  312,545;  234,397;  367,260;58,81863
 199,14;  292,015;  215,397;  360,862;52,67127
 199,74;  282,316;  192,897;  366,668;51,45824
 200,34;  255,051;  198,897;  369,311;32,95133
 200,94;  294,492;  223,522;  397,050;40,89815
 201,54;  284,165;  210,772;  406,061;37,58198
 202,14;  345,432;  217,897;  414,733;64,79276
 202,74;  298,300;  210,897;  446,295;37,13008
 203,34;  298,001;  191,772;  455,445;40,28802
 203,94;  270,314;  164,897;  446,139;37,48273
 204,54;  346,116;  236,897;  512,110;39,68509
 205,14;  308,252;  194,147;  526,691;34,31280
 205,74;  363,773;  222,397;  602,708;37,17382
 206,34;  330,493;  197,397;  615,632;31,82339
 206,94;  354,083;  215,022;  680,432;29,87920
 207,54;  325,477;  192,647;  679,883;27,26198
 208,14;  362,074;  202,272;  776,481;27,82987
 208,74;  385,236;  210,772;  835,193;27,94015
 209,34;  405,695;  198,022;  904,871;29,38008
 209,94;  432,579;  202,397;  984,838;29,41848
 210,54;  419,872;  203,272; 1057,351;25,36066
 211,14;  461,477;  209,647; 1162,476;26,42969
 211,73;  481,947;  200,522; 1281,916;26,02432
 212,33;  512,440;  220,647; 1367,619;25,44034
 212,93;  515,759;  195,147; 1438,081;25,79474
 213,53;  506,662;  172,272; 1482,749;25,51670
 214,13;  567,312;  181,897; 1524,126;28,71456
 214,73;  532,182;  190,397; 1584,233;24,52122
 215,33;  529,579;  151,022; 1596,588;26,18748
 215,93;  589,020;  193,147; 1749,005;25,44402
 216,53;  534,518;  160,022; 1804,923;22,76709
 217,13;  598,785;  206,272; 2015,862;21,69075
 217,73;  613,747;  180,522; 2206,492;21,38360
 218,33;  598,646;  154,397; 2370,804;20,04364
 218,93;  656,667;  170,272; 2565,586;20,30609
 219,53;  686,197;  182,772; 2869,485;18,73758
 220,13;  686,037;  175,147; 3150,943;17,16818
 220,73;  757,307;  181,272; 3496,701;17,37437
 221,32;  799,861;  183,397; 3819,693;16,95308
 221,92;  872,245;  177,522; 4195,354;17,29100
 222,52;  918,263;  172,647; 4598,740;16,84593
 223,12;  962,667;  170,147; 5027,534;16,31578
 223,72; 1028,469;  193,522; 5304,465;16,33645
 224,32; 1102,398;  184,147; 5675,974;16,72033
 224,92; 1124,748;  167,647; 5919,258;16,64057
 225,52; 1187,884;  196,397; 6249,239;16,38053
 226,12; 1201,346;  187,022; 6543,260;15,95794
 226,72; 1257,529;  148,772; 6883,206;16,46400
 227,31; 1337,753;  162,272; 7140,115;16,84591
 227,91; 1421,615;  186,022; 7468,912;16,96569
 228,51; 1463,998;  182,772; 7869,581;16,66786
 229,11; 1599,388;  180,772; 8198,208;17,69413
 229,71; 1664,932;  168,647; 8461,309;18,04348
 230,31; 1753,713;  156,772; 8826,842;18,41901
 230,91; 1868,039;  162,647; 9189,262;18,89294
 231,51; 1988,222;  163,397; 9498,651;19,54767
 232,10; 2116,546;  161,022; 9800,644;20,28632
 232,70; 2247,067;  178,272;10024,007;21,01210
 233,30; 2455,866;  185,772;10345,711;22,34358
 233,90; 2580,965;  175,772;10501,621;23,29293
 234,50; 2760,084;  169,647;10677,856;24,65155
 235,10; 2894,748;  173,397;10820,258;25,56012
 235,70; 3100,301;  178,147;10988,311;27,03154
 236,29; 3232,496;  193,522;11071,786;27,93620
 236,89; 3412,107;  162,022;10996,317;29,99812
 237,49; 3607,083;  187,522;11032,465;31,53139
 238,09; 3744,368;  168,772;10835,757;33,52022
 238,69; 3951,235;  207,147;10740,737;35,54427
 239,29; 4033,487;  181,647;10531,851;37,21511
 239,89; 4075,133;  194,647;10312,407;38,35321
 240,48; 4239,593;  169,147;10033,416;41,26455
 241,08; 4273,057;  170,522; 9775,717;42,71163
 241,68; 4418,984;  186,272; 9483,164;45,52824
 242,28; 4415,475;  165,272; 9212,088;46,98009
 242,88; 4462,113;  202,647; 8995,682;48,44137
 243,48; 4481,282;  195,522; 8708,159;50,34586
 244,07; 4514,839;  181,397; 8565,572;51,68597
 244,67; 4591,301;  193,772; 8502,469;52,92682
 245,27; 4592,697;  190,522; 8311,791;54,20551
 245,87; 4677,107;  197,147; 8314,276;55,19143
 246,47; 4680,848;  183,147; 8296,632;55,43489
 247,06; 4752,099;  178,022; 8345,556;56,00316
 247,66; 4801,173;  183,397; 8378,766;56,34617
 248,26; 4890,092;  207,397; 8567,242;56,01413
 248,86; 4961,451;  193,397; 8722,244;55,90502
 249,46; 5081,920;  155,897; 8931,595;56,13255
 250,05; 5213,740;  187,647; 9273,804;55,31594
 250,65; 5341,941;  166,647; 9568,635;55,04467
 251,25; 5491,217;  168,022;10131,525;53,42695
 251,85; 5722,594;  175,647;10590,521;53,25986
 252,44; 5918,710;  151,397;11116,103;52,59889
 253,04; 6165,182;  186,897;11893,951;51,06567
 253,64; 6330,796;  143,022;12526,309;49,96875
 254,24; 6661,064;  182,147;13363,373;49,15261
 254,84; 6862,920;  164,647;14223,470;47,64462
 255,43; 7069,701;  173,147;15068,885;46,29884
 256,03; 7343,700;  181,897;15994,853;45,29073
 256,63; 7605,206;  185,522;16940,726;44,28286
 257,23; 7692,697;  166,147;17667,259;43,00612
 257,82; 7807,327;  187,397;18498,116;41,61459
 258,42; 7836,798;  149,272;19213,306;40,32476
 259,02; 7907,618;  187,022;20054,849;38,85979
 259,62; 7925,788;  170,647;20571,072;38,01461
 260,21; 7763,348;  175,522;21025,898;36,39180
 260,81; 7638,119;  189,522;21376,148;35,15707
 261,41; 7449,721;  169,272;21717,425;33,78688
 262,01; 7299,637;  206,647;22148,590;32,32617
 262,60; 7069,572;  161,272;22340,634;31,14742
 263,20; 6886,883;  176,272;22599,315;29,92730
 263,80; 6615,198;  194,022;22739,239;28,48132
 264,40; 6348,769;  167,397;22861,621;27,23764
 264,99; 6064,294;  184,272;22991,445;25,78146
 265,59; 5772,399;  177,772;23148,946;24,35499
 266,19; 5539,999;  168,147;23137,295;23,38725
 266,78; 5280,512;  202,147;23373,933;21,91616
 267,38; 5085,784;  186,272;23356,179;21,14601
 267,98; 4839,739;  173,022;23297,045;20,18125
 268,58; 4665,258;  185,147;23291,714;19,38891
 269,17; 4412,260;  176,022;23331,868;18,29447
 269,77; 4260,895;  181,897;23081,436;17,81258
 270,37; 4028,730;  142,522;23088,344;16,93645
 270,96; 3873,190;  215,022;22899,820;16,12608
 271,56; 3614,181;  181,272;22655,010;15,27520
 272,16; 3454,455;  171,897;22569,177;14,65606
 272,75; 3355,946;  178,772;22492,960;14,23836
 273,35; 3232,731;  175,522;22460,784;13,71853
 273,95; 3117,497;  183,022;22407,016;13,20409
 274,54; 3030,926;  162,397;22523,327;12,82831
 275,14; 3053,821;  191,897;22831,851;12,64103
 275,74; 2962,619;  160,272;22947,688;12,29778
 276,33; 3028,857;  197,772;23380,675;12,21195
 276,93; 3008,061;  180,897;23674,311;12,03386
 277,53; 3028,422;  185,897;24035,592;11,91850
 278,12; 3085,540;  161,022;24636,529;11,94875
 278,72; 3223,130;  202,272;25139,253;12,11397
 279,32; 3244,838;  180,272;25844,289;11,94110
 279,91; 3350,704;  161,397;26530,806;12,09472
 280,51; 3476,262;  175,272;27005,784;12,30312
 281,11; 3642,553;  178,647;27709,590;12,58186
 281,70; 3694,348;  168,522;27974,990;12,67988
 282,30; 3929,431;  158,522;28574,010;13,27061
 282,90; 4074,017;  173,397;29090,750;13,48886
 283,49; 4237,033;  199,897;29473,590;13,79100
 284,09; 4470,469;  213,272;29938,913;14,32163
 284,69; 4663,874;  200,647;30286,222;14,83511
 285,28; 4843,293;  207,397;30624,231;15,24122
 285,88; 5126,292;  212,022;30748,041;16,09335
 286,47; 5303,716;  190,522;30818,443;16,69455
 287,07; 5568,162;  203,647;31076,483;17,37617
 287,67; 5869,907;  200,397;31127,784;18,33168
 288,26; 6120,710;  169,897;31125,211;19,22388
 288,86; 6481,383;  169,022;31152,048;20,37361
 289,46; 6867,431;  200,897;31362,043;21,39374
 290,05; 7271,666;  159,522;31388,094;22,77448
 290,65; 7742,261;  183,647;31582,969;24,07254
 291,24; 8265,842;  194,022;31667,867;25,64612
 291,84; 8746,331;  196,647;31763,601;27,08429
 292,44; 9261,737;  167,397;31900,258;28,65906
 293,03; 9914,329;  235,147;32094,197;30,38126
 293,63;10349,616;  184,272;32166,784;31,78407
 294,22;10888,566;  190,647;32316,010;33,30054
 294,82;11385,859;  189,897;32363,688;34,79839
 295,41;11744,348;  169,772;32163,990;36,17709
 296,01;12227,212;  220,272;32039,192;37,73522
 296,61;12637,653;  183,647;31743,266;39,46184
 297,20;12849,503;  189,272;31482,655;40,45658
 297,80;13131,913;  205,022;31320,157;41,54535
 298,39;13453,469;  163,022;30945,521;43,17533
 298,99;13713,590;  190,772;30842,911;44,11705
 299,58;13991,375;  190,647;30591,412;45,39599
 300,18;14128,907;  204,272;30490,001;45,97754
 300,78;14369,727;  185,397;30024,351;47,53628
 301,37;14739,374;  188,897;30192,529;48,49572
 301,97;14943,406;  189,397;30239,702;49,09770
 302,56;15196,075;  174,522;30024,320;50,32380
 303,16;15326,177;  175,647;30039,291;50,73236
 303,75;15595,371;  187,647;30014,927;51,65648
 304,35;15962,353;  169,397;30225,432;52,54504
 304,94;16223,370;  176,397;30324,144;53,22777
 305,54;16333,986;  199,772;30256,568;53,67909
 306,13;16587,969;  162,647;30178,340;54,72245
 306,73;16572,324;  175,647;30043,748;54,89695
 307,33;16769,779;  199,272;29911,331;55,77031
 307,92;16957,230;  173,522;30020,038;56,23339
 308,52;17454,562;  171,772;30539,634;56,91145
 309,11;17892,657;  181,647;30999,058;57,47079
 309,71;18152,525;  150,272;31304,636;57,78405
 310,30;18466,989;  162,772;31427,505;58,54589
 310,90;18801,864;  191,772;31765,505;58,94169
 311,49;19042,598;  177,147;31936,132;59,40193
 312,09;19225,432;  161,022;32018,842;59,84217
 312,68;19641,287;  203,647;32424,874;60,32557
 313,28;19816,480;  166,272;32608,288;60,57024
 313,87;20092,011;  146,897;32706,393;61,25744
 314,47;20277,391;  180,272;32891,076;61,43878
 315,06;20454,294;  171,147;32971,389;61,83841
 315,66;20633,432;  163,897;33157,592;62,04075
 316,25;20772,068;  149,272;33146,414;62,49873
 316,85;20715,996;  151,272;33258,568;62,11538
 317,44;20925,785;  171,147;33329,511;62,59247
 318,04;20980,293;  155,022;33321,715;62,78971
 318,63;21036,462;  149,897;33387,543;62,84008
 319,22;21156,696;  189,522;33648,617;62,66510
 319,82;21154,091;  182,272;33594,335;62,76721
 320,41;21227,937;  178,272;33545,650;63,08456
 321,01;21223,115;  180,647;33506,787;63,14103
 321,60;21225,931;  164,897;33626,027;62,94179
 322,20;21184,944;  161,397;33615,230;62,84346
 322,79;21296,182;  206,022;33778,934;62,81898
 323,39;21306,773;  167,772;33798,208;62,85676
 323,98;21246,236;  171,147;33765,693;62,73366
 324,58;21191,074;  168,647;33682,804;62,72701
 325,17;21087,171;  172,772;33537,152;62,68481
 325,76;20981,435;  187,647;33380,746;62,64491
 326,36;20704,701;  152,397;33034,652;62,50272
 326,95;20577,046;  195,897;32707,184;62,68946
 327,55;20240,514;  157,397;32386,313;62,31397
 328,14;20069,705;  170,397;31988,246;62,54134
 328,74;19737,398;  197,522;31601,264;62,22149
 329,33;19450,374;  197,022;31157,505;62,18686
 329,92;19152,872;  163,397;30738,125;62,10840
 330,52;18803,458;  180,022;30181,574;62,07491
 331,11;18479,319;  183,772;29710,822;61,96199
 331,71;18003,579;  173,397;29188,931;61,45047
 332,30;17692,870;  194,647;28664,519;61,46225
 332,89;17421,733;  207,772;28232,007;61,42527
 333,49;16946,559;  185,397;27679,730;60,96224
 334,08;16693,876;  181,397;27255,018;60,99103
 334,68;16352,665;  179,897;26962,029;60,38641
 335,27;16110,391;  179,397;26527,536;60,46345
 335,86;15840,444;  207,147;26304,447;59,90389
 336,46;15649,981;  195,147;25992,228;59,90924
 337,05;15523,168;  173,272;25869,731;59,73545
 337,65;15284,803;  161,647;25765,949;59,06490
 338,24;15231,323;  222,772;25783,932;58,71623
 338,83;15185,525;  194,272;25720,454;58,72893
 339,43;15074,033;  173,272;25634,731;58,52281
 340,02;14911,078;  172,397;25518,507;58,14968
 340,61;14888,906;  167,772;25607,219;57,86735
 341,21;14788,148;  205,772;25618,014;57,38327
 341,80;14764,101;  174,897;25574,927;57,43774
 342,40;14664,660;  181,147;25674,970;56,81185
 342,99;14642,233;  180,272;25829,132;56,38442
 343,58;14687,749;  177,522;26027,505;56,13244
 344,18;14673,291;  185,772;26119,969;55,86261
 344,77;14699,664;  171,022;26439,121;55,30907
 345,36;14775,546;  148,647;26720,184;55,04725
 345,96;14835,150;  187,772;27053,470;54,52074
 346,55;14916,988;  179,772;27244,650;54,45144
 347,14;14927,699;  167,522;27527,356;53,94834
 347,74;15037,768;  139,397;28049,992;53,37891
 348,33;15263,998;  179,522;28663,791;52,95722
 348,92;15471,678;  180,522;29196,707;52,69871
 349,52;15604,765;  162,272;29712,180;52,25902
 350,11;15637,622;  180,147;29820,532;52,15005
 350,70;15648,492;  160,022;29997,708;51,90909
 351,29;15328,236;  161,397;29717,592;51,31526
 351,89;15298,519;  180,022;29661,512;51,28132
 352,48;15171,454;  150,647;29757,072;50,73496
 353,07;15039,218;  167,897;29680,432;50,38985
 353,67;14916,358;  186,522;29739,216;49,84262
 354,26;14628,211;  175,772;29443,152;49,38071
 354,85;14447,285;  181,272;29352,079;48,90510
 355,45;14212,783;  165,397;29054,998;48,62437
 356,04;14034,635;  164,272;29112,646;47,91413
 356,63;13897,261;  190,147;28910,001;47,72696
 357,22;13639,442;  174,897;28712,208;47,18225
 357,82;13472,782;  178,772;28536,416;46,87981
 358,41;13247,957;  183,147;28441,509;46,23343
 359,00;13004,421;  162,772;28231,277;45,75110
 359,60;12849,435;  178,272;28142,887;45,31142
 360,19;12640,728;  174,897;27960,291;44,86469
 360,78;12383,652;  190,397;27796,608;44,16852
 361,37;12243,078;  165,772;27702,039;43,85963
 361,97;12086,553;  170,522;27643,840;43,37310
 362,56;11776,558;  160,397;27198,181;42,96270
 363,15;11640,287;  189,897;27001,451;42,70692
 363,74;11366,455;  179,522;26639,177;42,27921
 364,34;11107,982;  202,647;26268,675;41,83735
 364,93;10796,491;  164,147;25903,501;41,30773
 365,52;10524,819;  149,147;25623,947;40,72916
 366,11;10227,559;  181,772;25242,572;40,08566
 366,71; 9955,196;  157,522;24859,367;39,66374
 367,30; 9718,896;  177,397;24566,594;39,12182
 367,89; 9551,971;  203,647;24321,103;38,76165
 368,48; 9314,183;  189,397;23989,665;38,33901
 369,07; 9030,742;  184,272;23630,458;37,73096
 369,67; 8849,289;  193,897;23396,730;37,30317
 370,26; 8588,345;  184,272;23144,195;36,60323
 370,85; 8402,931;  172,772;22872,777;36,25620
 371,44; 8259,476;  168,272;22683,068;35,93727
 372,03; 8048,744;  156,397;22385,971;35,50382
 372,63; 7824,361;  137,772;22100,286;34,99867
 373,22; 7688,851;  164,772;21897,710;34,62063
 373,81; 7468,293;  154,647;21525,606;34,22236
 374,40; 7257,093;  162,772;21342,666;33,49554
 374,99; 7114,222;  171,897;21156,599;33,08279
 375,59; 6929,176;  159,522;20934,952;32,58490
 376,18; 6825,213;  194,647;20759,632;32,24202
 376,77; 6634,005;  181,522;20537,612;31,69805
 377,36; 6506,517;  191,772;20604,266;30,93569
 377,95; 6434,299;  185,022;20233,105;31,17145
 378,55; 6290,240;  155,647;20088,537;30,77623
 379,14; 6154,755;  169,647;19978,096;30,21492
 379,73; 6037,652;  177,397;19896,717;29,71834
 380,32; 6003,191;  182,022;19972,885;29,41342
 380,91; 5864,824;  171,897;19885,288;28,87848
 381,50; 5864,985;  192,897;19824,362;28,89284
 382,10; 5702,441;  160,147;19732,135;28,31748
 382,69; 5675,716;  155,522;19629,210;28,34694
 383,28; 5629,965;  199,897;19644,552;27,92576
 383,87; 5499,065;  168,022;19450,837;27,64660
 384,46; 5367,272;  174,897;19497,574;26,87192
 385,05; 5387,597;  194,897;19482,692;26,92221
 385,64; 5329,684;  170,772;19378,947;26,85790
 386,24; 5245,044;  153,522;19447,337;26,38940
 386,83; 5247,551;  185,522;19473,476;26,24451
 387,42; 5194,536;  174,022;19580,684;25,87006
 388,01; 5227,963;  180,397;19817,063;25,70480
 388,60; 5228,141;  186,897;19989,059;25,45805
 389,19; 5224,526;  165,397;20230,100;25,21408
 389,78; 5296,738;  170,397;20443,730;25,28613
 390,37; 5364,736;  227,022;20833,233;24,93284
 390,96; 5364,705;  182,647;20994,270;24,89983
 391,56; 5370,747;  169,397;21197,665;24,73504
 392,15; 5365,597;  162,147;21556,623;24,32147
 392,74; 5378,531;  143,147;21710,891;24,27414
 393,33; 5513,478;  170,397;21877,964;24,61391
 393,92; 5599,459;  171,272;22384,352;24,43690
 394,51; 5557,763;  169,022;22566,272;24,05983
 395,10; 5647,149;  197,897;22667,776;24,25136
 395,69; 5686,739;  187,647;22862,734;24,25169
 396,28; 5672,712;  198,772;22910,579;24,10174
 396,87; 5713,361;  198,647;23083,930;24,09721
 397,46; 5715,190;  189,397;23161,948;24,05389
 398,06; 5810,678;  195,772;23457,383;24,13808
 398,65; 5779,232;  189,272;23497,243;23,98304
 399,24; 5878,962;  185,647;23706,134;24,20577
 399,83; 5813,952;  164,147;23505,606;24,20502
 400,42; 5897,696;  204,522;23783,813;24,14481
 401,01; 5910,168;  172,897;23852,958;24,22828
 401,60; 5958,995;  198,147;23819,617;24,38819
 402,19; 5991,822;  208,647;23796,170;24,51794
 402,78; 6030,580;  207,022;23736,927;24,74960
 403,37; 5991,474;  192,397;23710,308;24,65813
 403,96; 6017,221;  196,022;23510,157;24,96854
 404,55; 6003,099;  196,272;23504,956;24,91272
 405,14; 5976,504;  178,647;23369,785;25,00031
 405,73; 6000,060;  200,522;23216,044;25,19838
 406,32; 6063,881;  208,272;23205,389;25,46236
 406,91; 5993,216;  192,647;22835,776;25,61735
 407,50; 6003,434;  181,397;22673,393;25,88493
 408,09; 5973,158;  177,522;22405,419;26,07370
 408,68; 5990,492;  191,647;22237,761;26,30325
 409,27; 5980,104;  183,272;22132,583;26,41009
 409,86; 6035,943;  192,022;22103,622;26,67044
 410,45; 6085,402;  212,522;21947,518;27,02039
 411,04; 6072,144;  218,772;21929,036;26,96131
 411,63; 6042,477;  205,147;21587,734;27,29946
 412,22; 6024,611;  208,272;21355,189;27,50443
 412,81; 6137,998;  205,147;21086,069;28,41278
 413,40; 6053,336;  224,522;20737,442;28,41533
 413,99; 6041,261;  244,272;20429,308;28,71924
 414,58; 5945,781;  191,772;20099,292;28,90369
 415,17; 5906,175;  183,397;19854,251;29,09268
 415,76; 5919,098;  194,397;19743,253;29,28407
 416,35; 5934,994;  186,772;19584,410;29,63362
 416,94; 6044,553;  218,897;19714,010;29,88265
 417,53; 6109,973;  191,022;19833,620;30,13324
 418,12; 6230,493;  192,022;19930,854;30,59184
 418,71; 6409,890;  197,022;20251,451;30,98003
 419,30; 6422,243;  188,022;20266,745;31,04889
 419,89; 6561,359;  187,772;20520,560;31,34635
 420,48; 6725,579;  215,397;20790,803;31,64060
 421,07; 6827,907;  215,522;20909,357;31,95341
 421,66; 6869,220;  172,272;20864,603;32,36440
 422,25; 6981,698;  198,147;20858,067;32,83435
 422,84; 7041,102;  223,772;20851,643;33,04912
 423,43; 7064,453;  196,397;20597,299;33,66545
 424,02; 7042,406;  228,022;20224,603;34,07774
 424,60; 6944,051;  204,647;19841,563;34,32007
 425,19; 6986,876;  196,522;19628,720;34,94383
 425,78; 6989,860;  228,397;19626,239;34,85678
 426,37; 7028,884;  222,147;19404,083;35,48514
 426,96; 7047,185;  206,272;19253,514;35,91551
 427,55; 7032,181;  194,147;19031,113;36,30114
 428,14; 7014,336;  181,897;18941,705;36,42062
 428,73; 6976,469;  222,397;18767,700;36,41931
 429,32; 7091,887;  224,522;18744,769;37,08031
 429,91; 7169,398;  232,022;18773,834;37,41477
 430,50; 7193,710;  224,147;18733,048;37,65520
 431,08; 7230,997;  239,272;18537,921;38,20897
 431,67; 7269,793;  271,397;18387,636;38,63051
 432,26; 7263,848;  288,272;18235,819;38,86646
 432,85; 7208,810;  322,522;17780,542;39,44484
 433,44; 7223,487;  309,897;17459,430;40,31358
 434,03; 7111,313;  323,272;17142,237;40,35945
 434,62; 6972,430;  289,272;16718,234;40,67912
 435,21; 6943,492;  314,022;16585,129;40,74382
 435,79; 6949,905;  284,022;16377,958;41,41860
 436,38; 6964,641;  297,897;16340,574;41,55631
 436,97; 6947,991;  286,397;16196,625;41,86989
 437,56; 6945,546;  281,647;16046,969;42,26935
 438,15; 6974,737;  270,647;16020,724;42,56544
 438,74; 7039,000;  295,897;15949,036;43,07828
 439,33; 7128,695;  251,772;15894,010;43,96381
 439,91; 7175,216;  216,772;16015,277;44,04495
 440,50; 7242,572;  259,522;16040,717;44,24918
 441,09; 7377,545;  249,522;16192,896;44,70837
 441,68; 7397,508;  252,897;16152,858;44,93477
 442,27; 7490,389;  221,647;16170,215;45,57614
 442,86; 7506,351;  199,897;16147,212;45,81620
 443,44; 7560,193;  220,772;16211,559;45,89781
 444,03; 7756,854;  270,022;16197,040;47,00712
 444,62; 7693,467;  217,647;16139,995;46,95174
 445,21; 7715,447;  224,897;15893,903;47,80488
 445,80; 7733,048;  251,022;15862,926;47,92514
 446,39; 7631,070;  259,522;15553,047;48,20045
 446,97; 7593,496;  233,272;15372,781;48,61600
 447,56; 7568,796;  218,272;15144,732;49,24493
 448,15; 7524,932;  221,397;15032,554;49,31103
 448,74; 7437,929;  239,522;14783,493;49,49410
 449,33; 7463,007;  224,897;14611,580;50,31118
 449,91; 7389,557;  220,897;14428,047;50,45812
 450,50; 7328,115;  202,897;14194,851;50,92368
 451,09; 7346,400;  244,522;14159,175;51,03884
 451,68; 7327,923;  259,522;14010,487;51,40295
 452,26; 7310,299;  238,647;13956,661;51,55012
 452,85; 7279,888;  230,397;13850,320;51,75867
 453,44; 7324,555;  232,397;13903,478;51,87708
 454,03; 7350,649;  203,522;13816,603;52,50191
 454,61; 7333,125;  208,647;13777,110;52,50763
 455,20; 7534,902;  243,647;13969,124;53,12205
 455,79; 7507,932;  237,397;13966,523;52,95702
 456,38; 7645,003;  234,647;14045,990;53,65413
 456,97; 7687,371;  226,147;14115,568;53,71876
 457,55; 7738,058;  222,272;14075,532;54,25284
 458,14; 7836,393;  249,147;14060,814;54,93360
 458,73; 7813,879;  231,272;14043,664;54,89713
 459,31; 7893,650;  255,147;14045,196;55,39141
 459,90; 8015,886;  263,897;14174,602;55,72679
 460,49; 8117,777;  277,772;14258,693;56,07645
 461,08; 8162,773;  235,647;14346,792;56,17635
 461,66; 8219,647;  226,772;14371,243;56,50883
 462,25; 8312,267;  233,647;14430,810;56,90306
 462,84; 8361,593;  248,022;14456,799;57,10253
 463,43; 8369,458;  203,897;14410,009;57,47921
 464,01; 8385,667;  226,147;14442,344;57,39594
 464,60; 8491,531;  261,647;14364,670;58,35546
 465,19; 8327,350;  204,522;14172,822;58,15187
 465,77; 8367,976;  234,897;14192,621;58,26938
 466,36; 8378,346;  257,897;14108,054;58,63073
 466,95; 8212,330;  230,147;13701,698;59,25215
 467,53; 8137,295;  228,272;13470,599;59,72532
 468,12; 8007,343;  256,772;13223,844;59,77117
 468,71; 7907,572;  242,647;12987,045;60,14348
 469,29; 7810,853;  228,022;12758,328;60,51593
 469,88; 7653,709;  227,022;12545,050;60,29120
 470,47; 7720,512;  268,147;12654,938;60,16381
 471,06; 7701,403;  243,522;12618,811;60,26430
 471,64; 7757,659;  247,147;12754,684;60,04789
 472,23; 7801,303;  211,147;12662,220;60,95986
 472,81; 7935,991;  206,272;12740,865;61,66709
 473,40; 7977,656;  218,522;12934,457;61,01898
 473,99; 8268,182;  289,272;13155,173;62,01594
 474,57; 8250,390;  230,897;13178,834;61,93645
 475,16; 8367,905;  240,897;13412,017;61,70324
 475,75; 8448,702;  257,647;13494,298;61,88163
 476,33; 8558,505;  256,897;13570,919;62,35237
 476,92; 8659,368;  256,022;13612,713;62,91488
 477,51; 8685,331;  247,147;13749,158;62,49576
 478,09; 8778,882;  236,647;13669,590;63,59169
 478,68; 8707,441;  247,272;13546,818;63,61246
 479,27; 8788,080;  267,772;13736,501;63,25993
 479,85; 8750,062;  241,647;13672,115;63,35159
 480,44; 8822,938;  242,897;13869,772;62,96411
 481,02; 9527,333;  246,147;15579,022;60,53128
 481,61;10859,176;  271,522;17364,135;61,94286
 482,20;11702,397;  268,772;18421,624;62,98529
 482,78;12216,678;  294,772;18995,164;63,75217
 483,37;12478,630;  272,272;19410,770;63,77908
 483,95;12827,544;  303,272;19646,172;64,74867
 484,54;13011,980;  314,897;19857,377;64,97171
 485,13;13000,426;  296,272;19884,768;64,85518
 485,71;13058,993;  272,022;19758,540;65,61958
 486,30;12843,170;  310,897;19512,346;65,26733
 486,88;12771,523;  331,147;19154,975;66,08845
 487,47;12346,875;  328,647;18476,853;66,22268
 488,05;11853,639;  307,647;17587,306;66,81840
 488,64;11066,467;  315,897;16271,893;67,37637
 489,23; 9993,566;  324,772;14257,379;69,39687
 489,81; 8467,569;  305,647;12238,598;68,39819
 490,40; 7923,005;  269,022;11746,763;66,68545
 490,98; 7758,153;  256,772;11507,808;66,67281
 491,57; 7667,223;  283,522;11390,250;66,47953
 492,15; 7616,762;  267,647;11418,951;65,90364
 492,74; 7590,581;  264,272;11271,486;66,55916
 493,32; 7519,099;  276,397;11148,799;66,61547
 493,91; 7479,302;  261,397;11109,119;66,53843
 494,50; 7417,596;  269,647;11064,697;66,21506
 495,08; 7384,916;  254,897;11002,438;66,34093
 495,67; 7435,981;  279,147;10990,362;66,81627
 496,25; 7313,947;  225,772;10842,744;66,76268
 496,84; 7370,439;  237,522;10866,273;67,10964
 497,42; 7315,303;  225,397;10794,326;67,08254
 498,01; 7278,539;  257,272;10750,074;66,91508
 498,59; 7259,874;  213,772;10720,458;67,06303
 499,18; 7176,033;  214,522;10721,060;66,25885
 499,76; 7276,886;  243,897;10561,471;68,16515
 500,35; 7114,782;  254,397;10284,128;68,40049
 500,93; 7054,912;  222,272;10301,703;67,78796
 501,52; 6996,560;  211,022;10264,857;67,49204
 502,10; 7017,020;  226,647;10190,757;68,14832
 502,69; 6921,928;  220,522;10058,411;68,11834
 503,27; 6857,112;  209,397; 9901,195;68,59114
 503,86; 6759,751;  224,022; 9832,838;68,01805
 504,44; 6709,858;  190,397; 9702,061;68,54175
 505,03; 6573,121;  194,147; 9504,981;68,51130
 505,61; 6521,345;  200,522; 9318,749;69,32074
 506,19; 6428,880;  228,647; 9159,324;69,42624
 506,78; 6267,751;  201,522; 8997,515;68,96582
 507,36; 6218,790;  207,897; 8863,132;69,44807
 507,95; 6097,956;  216,272; 8722,523;69,14544
 508,53; 6061,924;  217,522; 8611,619;69,62514
 509,12; 5952,533;  219,397; 8423,278;69,88322
 509,70; 5895,425;  226,647; 8262,917;70,53991
 510,29; 5804,759;  227,522; 8180,253;70,12983
 510,87; 5682,273;  206,272; 7971,278;70,52153
 511,46; 5565,600;  198,022; 7831,191;70,31913
 512,04; 5449,399;  205,897; 7737,468;69,62030
 512,62; 5427,277;  208,897; 7580,497;70,79032
 513,21; 5242,025;  191,647; 7387,126;70,18821
 513,79; 5174,819;  210,522; 7278,095;70,24048
 514,38; 5051,632;  189,147; 7087,272;70,48995
 514,96; 4995,376;  220,522; 7043,116;69,98589
 515,54; 4895,787;  201,022; 6896,957;70,11365
 516,13; 4844,082;  214,647; 6795,874;70,34304
 516,71; 4775,813;  197,397; 6687,613;70,54336
 517,30; 4685,077;  199,897; 6587,957;70,21193
 517,88; 4648,712;  221,522; 6530,549;70,17231
 518,46; 4544,856;  200,772; 6391,142;70,17488
 519,05; 4495,062;  225,522; 6363,149;69,56338
 519,63; 4469,559;  218,147; 6257,305;70,39743
 520,22; 4447,749;  214,397; 6196,362;70,76859
 520,80; 4354,243;  197,147; 6120,973;70,17587
 521,38; 4393,418;  218,522; 6153,464;70,34435
 521,97; 4323,449;  201,022; 6117,605;69,67581
 522,55; 4316,286;  211,647; 6121,469;69,45452
 523,13; 4305,235;  192,522; 6020,320;70,57061
 523,72; 4330,741;  214,897; 6033,234;70,73918
 524,30; 4345,226;  232,397; 6149,511;69,50735
 524,89; 4362,068;  195,147; 6163,590;69,81587
 525,47; 4470,252;  214,647; 6285,992;70,09328
 526,05; 4466,185;  175,897; 6322,954;69,79417
 526,64; 4530,429;  224,397; 6410,831;69,60443
 527,22; 4633,063;  216,272; 6524,016;70,02172
 527,80; 4751,150;  256,147; 6620,163;70,63155
 528,39; 4787,000;  205,022; 6788,480;69,59835
 528,97; 4892,474;  216,522; 6859,748;70,38677
 529,55; 4995,011;  222,147; 7126,161;69,13172
 530,14; 5159,430;  229,397; 7267,755;70,04521
 530,72; 5262,525;  194,147; 7368,554;70,64526
 531,30; 5268,799;  196,397; 7493,740;69,51025
 531,89; 5365,023;  219,147; 7539,900;70,29162
 532,47; 5521,289;  240,147; 7674,289;71,03903
 533,05; 5514,974;  230,647; 7700,857;70,73867
 533,63; 5584,136;  245,647; 7757,387;71,06860
 534,22; 5549,674;  218,147; 7806,773;70,25682
 534,80; 5660,470;  248,397; 7907,113;70,66554
 535,38; 5694,581;  303,022; 7932,487;70,66759
 535,97; 5611,866;  229,772; 7956,061;69,65950
 536,55; 5726,977;  282,147; 7985,644;70,67997
 537,13; 5659,145;  292,772; 7985,072;69,76291
 537,71; 5684,026;  336,147; 7975,837;70,00126
 538,30; 5710,328;  352,522; 8119,333;68,98335
 538,88; 5758,712;  391,272; 8198,945;68,74570
 539,46; 5937,432;  439,522; 8371,978;69,30905
 540,05; 5939,846;  457,647; 8444,521;68,64011
 540,63; 6088,436;  521,022; 8658,463;68,41725
 541,21; 6204,414;  558,147; 8831,483;68,24656
 541,79; 6287,888;  596,272; 8942,392;68,19475
 542,38; 6381,852;  622,522; 9147,536;67,55802
 542,96; 6507,864;  640,397; 9263,976;68,03981
 543,54; 6667,933;  639,147; 9417,543;68,67754
 544,12; 6727,347;  630,522; 9574,070;68,17009
 544,70; 6703,892;  600,272; 9665,019;67,33360
 545,29; 6840,791;  619,022; 9801,262;67,75873
 545,87; 6864,013;  575,022; 9797,392;68,19279
 546,45; 6832,987;  528,522; 9830,503;67,77551
 547,03; 6941,548;  515,522; 9946,184;68,13971
 547,62; 7013,593;  474,772;10033,117;68,40956
 548,20; 7135,258;  475,397;10228,285;68,28603
 548,78; 7187,789;  438,147;10270,568;68,64680
 549,36; 7269,680;  397,272;10480,300;68,15817
 549,94; 7413,581;  360,022;10580,963;69,01086
 550,53; 7483,077;  355,897;10846,171;67,94083
 551,11; 7622,994;  333,647;11001,559;68,32966
 551,69; 7816,827;  327,022;11297,062;68,27509
 552,27; 8012,018;  294,397;11540,693;68,62367
 552,85; 8229,818;  300,647;11862,377;68,58118
 553,44; 8374,013;  293,522;12109,211;68,38781
 554,02; 8637,616;  310,397;12456,339;68,55968
 554,60; 8821,850;  252,647;12791,999;68,33849
 555,18; 9063,654;  275,522;13097,834;68,53781
 555,76; 9273,129;  259,022;13473,135;68,21575
 556,34; 9607,598;  272,647;13851,720;68,74513
 556,93; 9853,532;  271,272;14189,412;68,84728
 557,51;10026,050;  239,397;14432,116;68,95545
 558,09;10231,244;  267,647;14891,651;68,13180
 558,67;10488,804;  269,772;15151,602;68,66784
 559,25;10676,887;  276,272;15408,872;68,72986
 559,83;10859,465;  253,272;15731,317;68,52411
 560,41;11037,511;  251,772;16096,964;68,06947
 561,00;11350,579;  264,397;16313,192;69,07797
 561,58;11474,508;  256,897;16642,261;68,46116
 562,16;11641,783;  232,272;16970,944;68,16258
 562,74;11878,529;  219,397;17295,225;68,27857
 563,32;12125,663;  226,022;17690,636;68,13572
 563,90;12406,567;  247,397;18046,647;68,31282
 564,48;12603,674;  250,772;18352,459;68,24172
 565,06;12926,586;  244,272;19030,457;67,50872
 565,65;13366,071;  257,772;19649,931;67,59587
 566,23;13778,618;  296,772;20409,203;67,03240
 566,81;14242,835;  246,022;21092,441;67,14253
 567,39;14819,888;  259,022;21889,937;67,31507
 567,97;15160,906;  255,022;22446,323;67,16994
 568,55;15633,061;  256,897;23302,524;66,72053
 569,13;16067,820;  237,772;23947,725;66,76541
 569,71;16727,731;  240,522;24890,263;66,88593
 570,29;17287,593;  278,147;25841,935;66,53727
 570,87;17730,385;  262,272;26545,541;66,46096
 571,45;18105,701;  282,022;27160,365;66,31242
 572,03;18348,648;  216,397;27557,046;66,31975
 572,61;18775,246;  226,397;28333,047;65,99452
 573,20;19160,402;  257,022;29018,229;65,72527
 573,78;19478,676;  241,147;29637,557;65,44176
 574,36;19769,451;  265,897;30028,506;65,53039
 574,94;19965,783;  303,522;30286,404;65,57829
 575,52;20072,355;  258,022;30612,102;65,27733
 576,10;20375,306;  314,897;31138,216;65,08192
 576,68;20677,484;  302,897;31741,660;64,80722
 577,26;21129,830;  332,647;32362,419;64,93079
 577,84;21359,868;  326,272;32904,470;64,56341
 578,42;21544,411;  362,397;33036,248;64,82864
 579,00;21441,439;  313,272;33133,227;64,37598
 579,58;21594,472;  358,772;33384,256;64,30095
 580,16;21488,508;  356,522;33424,096;63,90546
 580,74;21653,562;  328,022;33596,105;64,10210
 581,32;21667,504;  341,147;33667,377;63,99271
 581,90;21610,193;  354,272;33702,495;63,73929
 582,48;21445,645;  368,022;33812,517;63,02270
 583,06;21576,437;  350,772;33836,698;63,38682
 583,64;21697,007;  364,772;34085,439;63,26161
 584,22;21494,679;  372,772;33707,312;63,36343
 584,80;21327,613;  367,022;33433,770;63,38873
 585,38;21126,982;  380,397;33043,062;63,51774
 585,96;21046,410;  352,772;33161,825;63,07295
 586,54;20972,643;  390,022;33262,612;62,61332
 587,12;21024,184;  325,022;33365,919;62,64710
 587,70;21222,965;  363,272;33469,209;63,00892
 588,28;21095,508;  344,397;33545,488;62,50129
 588,86;21243,108;  352,772;33682,663;62,67748
 589,44;21219,407;  338,897;33475,223;63,01396
 590,02;21224,154;  333,147;33925,379;62,18999
 590,59;21277,204;  311,897;33953,761;62,31910
 591,17;21355,832;  309,022;34012,657;62,44670
 591,75;21359,844;  311,147;34122,029;62,25421
 592,33;21500,789;  313,522;34431,004;62,10091
 592,91;21594,354;  264,647;34631,779;62,06426
 593,49;21762,008;  285,272;34887,980;62,06664
 594,07;21776,694;  297,147;35075,878;61,76058
 594,65;21720,986;  306,772;35171,257;61,42128
 595,23;21892,314;  290,272;35482,937;61,38223
 595,81;21920,779;  283,147;35539,020;61,37313
 596,39;21891,558;  290,522;35660,563;61,07156
 596,97;22030,078;  297,772;35817,063;61,18452
 597,55;21828,451;  278,772;35837,591;60,60291
 598,12;21792,223;  275,397;35799,938;60,56891
 598,70;21822,402;  260,772;35921,773;60,46277
 599,28;21930,441;  280,272;36114,784;60,41709
 599,86;21870,149;  279,647;36164,821;60,16552
 600,44;21776,415;  244,522;36156,710;59,95706
 601,02;21761,625;  289,147;36314,219;59,60426
 601,60;21675,783;  270,522;36241,755;59,50661
 602,18;21681,820;  248,397;36225,395;59,57535
 602,75;21565,349;  255,022;36471,511;58,84151
 603,33;21496,591;  276,397;36335,750;58,84796
 603,91;21440,823;  260,647;36327,130;58,72537
 604,49;21426,332;  280,272;36430,407;58,49511
 605,07;21335,417;  293,647;36437,598;58,21658
 605,65;21226,935;  300,897;36562,661;57,70827
 606,23;21272,297;  374,147;36694,890;57,53778
 606,80;21158,449;  405,897;36787,545;57,04126
 607,38;21067,951;  458,897;36720,692;56,83407
 607,96;21065,384;  511,772;36871,319;56,52879
 608,54;20907,159;  572,022;36834,195;56,07810
 609,12;20919,737;  581,772;37009,306;55,83130
 609,70;20878,046;  623,272;37029,583;55,63534
 610,27;20808,904;  618,147;37100,129;55,34446
 610,85;20791,043;  639,647;37235,255;55,06507
 611,43;20578,389;  642,022;37129,228;54,63934
 612,01;20403,661;  613,272;36936,317;54,48439
 612,59;20401,658;  610,522;36942,288;54,47337
 613,16;20125,454;  576,022;36896,027;53,82552
 613,74;20069,255;  548,397;36754,511;53,91592
 614,32;19978,137;  496,647;36644,558;53,89382
 614,90;19740,341;  465,147;36620,467;53,31219
 615,48;19473,214;  391,897;36263,636;53,19318
 616,05;19441,672;  373,147;36255,281;53,14212
 616,63;19249,880;  373,522;36024,051;52,94833
 617,21;19157,641;  372,522;35958,458;52,78804
 617,79;18884,109;  334,522;35933,120;52,10763
 618,36;18846,267;  357,522;35836,882;52,11127
 618,94;18585,807;  293,397;35420,906;52,07432
 619,52;18362,774;  325,522;35266,002;51,62280
 620,10;18261,176;  308,022;35226,408;51,41462
 620,67;18213,168;  298,897;35064,687;51,52845
 621,25;17995,145;  319,647;34899,335;51,11526
 621,83;17965,320;  294,397;35016,451;50,89250
 622,41;17849,192;  333,022;34899,873;50,67332
 622,98;17526,316;  330,147;34671,574;50,07412
 623,56;17546,521;  315,147;34730,033;50,06954
 624,14;17426,799;  284,272;34555,895;50,01960
 624,72;17255,769;  298,647;34526,145;49,54239
 625,29;17271,934;  276,647;34545,294;49,59428
 625,87;17151,260;  316,272;34585,335;49,12591
 626,45;16999,136;  292,147;34435,799;48,93146
 627,02;16835,927;  284,647;34243,049;48,73987
 627,60;16694,476;  271,147;34287,234;48,28107
 628,18;16687,487;  273,022;34316,806;48,21575
 628,76;16663,870;  274,272;34302,959;48,16406
 629,33;16591,868;  300,147;34292,413;47,92773
 629,91;16475,176;  280,397;34270,533;47,64553
 630,49;16375,858;  299,147;34520,929;46,97801
 631,06;16328,813;  295,022;34643,763;46,67941
 631,64;16319,440;  294,897;34409,183;46,97312
 632,22;16248,267;  253,272;34468,672;46,74794
 632,79;16115,805;  268,022;34699,058;46,02761
 633,37;16118,113;  253,772;34782,589;45,94522
 633,95;16084,546;  259,897;34808,732;45,80371
 634,52;16081,080;  250,897;34897,794;45,69004
 635,10;15956,695;  235,397;34998,842;45,22365
 635,68;15994,780;  259,772;35268,468;44,94600
 636,25;15884,782;  243,272;35113,872;44,85587
 636,83;15873,745;  223,022;35356,084;44,54700
 637,41;15822,770;  239,272;35473,234;44,22863
 637,98;15813,866;  259,272;35600,066;44,01314
 638,56;15833,945;  255,272;35582,241;44,09853
 639,13;15666,200;  244,772;35677,542;43,52307
 639,71;15767,752;  272,772;35782,364;43,63604
 640,29;15582,011;  216,147;35514,146;43,53183
 640,86;15511,586;  225,147;35762,659;43,01494
 641,44;15453,660;  232,647;35893,298;42,68294
 642,02;15418,735;  251,272;35770,061;42,70265
 642,59;15357,059;  236,147;36006,950;42,27166
 643,17;15301,259;  230,147;35927,713;42,21888
 643,74;15200,459;  228,647;36038,727;41,80893
 644,32;15127,283;  260,522;35847,490;41,77586
 644,89;15060,983;  252,397;35941,629;41,49315
 645,47;15010,308;  261,522;35917,017;41,36469
 646,05;14905,007;  239,397;35847,531;41,18612
 646,62;14758,832;  240,147;35860,294;40,75976
 647,20;14705,407;  247,897;36040,308;40,39267
 647,77;14599,356;  214,647;35958,946;40,24337
 648,35;14456,306;  220,147;35814,335;39,99574
 648,92;14410,756;  261,147;35895,598;39,70766
 649,50;14247,580;  212,147;35688,237;39,56308
 650,08;14106,280;  221,522;35800,250;39,02545
 650,65;14097,229;  234,772;36064,139;38,69021
 651,23;14201,429;  208,272;36778,152;38,26416
 651,80;14494,879;  217,272;37741,541;38,04899
 652,38;14558,703;  228,522;38047,054;37,89196
 652,95;14615,403;  210,147;38373,818;37,74599
 653,53;14694,603;  236,897;38514,331;37,77083
 654,10;14612,177;  251,647;38729,595;37,32146
 654,68;14409,002;  216,397;38578,859;36,99607
 655,25;14444,327;  218,522;38749,247;36,92068
 655,83;14440,776;  210,272;38847,136;36,83142
 656,40;14398,226;  231,647;38786,899;36,74358
 656,98;14319,300;  228,897;38750,788;36,57765
 657,55;14157,625;  232,022;38653,926;36,24392
 658,13;13939,575;  209,897;38220,815;36,12035
 658,70;13824,524;  224,647;37960,078;36,04007
 659,28;13404,224;  225,772;36934,717;35,89984
 659,85;12948,299;  218,397;36199,605;35,37931
 660,43;12881,123;  228,772;36351,494;35,02602
 661,00;12833,573;  231,772;36462,882;34,78171
 661,58;12819,273;  211,522;36799,646;34,45859
 662,15;12846,222;  204,522;36918,159;34,43326
 662,73;12905,047;  267,397;37316,298;34,11073
 663,30;12815,121;  227,897;37331,436;33,92459
 663,88;12775,571;  222,647;37651,075;33,53848
 664,45;12854,896;  215,272;37843,213;33,59106
 665,03;12875,595;  229,522;38313,852;33,20545
 665,60;13052,920;  277,397;38581,365;33,35300
 666,17;12871,245;  220,647;38735,504;32,84602
 666,75;12794,819;  233,397;39104,767;32,31536
 667,32;12894,269;  247,022;39437,031;32,27161
 667,90;12941,969;  228,897;39616,669;32,27670
 668,47;12919,918;  251,147;39899,558;31,95278
 669,05;12928,118;  221,522;40225,571;31,76327
 669,62;12870,943;  202,397;40229,835;31,64965
 670,19;12787,642;  209,522;40441,848;31,26372
 670,77;12755,217;  217,272;40496,237;31,12777
 671,34;12715,416;  211,522;40562,375;30,98793
 671,92;12714,116;  205,272;40899,639;30,73852
 672,49;12588,566;  234,522;40792,902;30,45990
 673,06;12481,015;  184,897;40920,291;30,18534
 673,64;12423,090;  203,272;40888,054;30,03535
 674,21;12336,540;  201,897;40777,443;29,90630
 674,79;12333,239;  220,522;41113,831;29,62029
 675,36;12316,689;  229,647;41100,845;29,57350
 675,93;12163,639;  208,147;41046,483;29,27517
 676,51;12104,213;  219,897;41191,872;29,00596
 677,08;12015,538;  222,147;41243,885;28,74913
 677,65;12026,237;  214,647;41410,149;28,67204
 678,23;11978,437;  234,772;41534,037;28,43553
 678,80;11954,762;  214,147;41712,301;28,29190
 679,38;11866,211;  218,647;41881,689;27,95659
 679,95;11885,411;  212,897;42105,453;27,86298
 680,52;11872,111;  215,772;42445,716;27,60207
 681,10;11974,810;  224,522;42805,105;27,59541
 681,67;11887,885;  229,272;43003,868;27,25593
 682,24;11885,085;  202,522;43020,757;27,28408
 682,82;11935,659;  210,397;43593,645;27,02717
 683,39;11915,609;  251,522;43870,284;26,74099
 683,96;11964,559;  221,647;44287,672;26,64845
 684,54;11995,383;  202,272;44636,686;26,54049
 685,11;12033,833;  235,522;44930,074;26,39765
 685,68;12012,407;  217,397;45240,838;26,19749
 686,25;11916,857;  203,022;45370,851;25,93402
 686,83;11902,432;  206,397;45587,240;25,77307
 687,40;11923,256;  195,147;45944,253;25,63571
 687,97;11935,956;  238,397;46215,767;25,44199
 688,55;11852,031;  204,772;46199,280;25,32315
 689,12;11797,230;  183,897;46496,794;25,07581
 689,69;11816,180;  207,522;46643,807;24,99911
 690,26;11740,755;  206,522;46709,446;24,80324
 690,84;11716,704;  217,897;46768,459;24,70176
 691,41;11621,529;  222,272;46807,473;24,46970
 691,98;11650,603;  224,272;47205,861;24,32087
 692,56;11519,928;  205,397;47227,000;24,06241
 693,13;11545,378;  268,147;47281,013;23,98754
 693,70;11498,952;  230,897;47426,777;23,87508
 694,27;11360,902;  202,897;47620,040;23,53158
 694,84;11324,227;  198,772;47566,179;23,48757
 695,42;11370,426;  252,397;47824,692;23,37081
 695,99;11321,376;  222,022;48003,331;23,22949
 696,56;11233,951;  203,897;47896,344;23,12746
 697,13;11196,275;  226,647;48260,233;22,83741
 697,71;11180,600;  188,272;48192,496;22,89867
 698,28;11135,800;  212,522;48604,385;22,57255
 698,85;11080,499;  189,272;48724,898;22,43966
 699,42;11036,199;  196,647;49057,162;22,18469
 699,99;11023,773;  221,272;48942,425;22,17210
 700,57;10919,598;  228,147;49058,189;21,89523
 701,14;10972,923;  218,647;49041,827;22,02699
 701,71;10953,872;  230,772;49332,091;21,83872
 702,28;10880,697;  211,897;49441,854;21,67136
 702,85;10791,772;  219,522;49482,743;21,46074
 703,43;10775,096;  229,772;49606,006;21,35709
 704,00;10725,546;  240,022;49743,270;21,18149
 704,57;10694,121;  236,272;49847,283;21,07969
 705,14;10640,320;  257,772;50073,422;20,84194
 705,71;10560,020;  262,897;50113,935;20,65578
 706,28;10423,344;  226,897;49903,574;20,52562
 706,86;10472,294;  263,022;50261,712;20,41908
 707,43;10467,744;  270,647;50155,101;20,44143
 708,00;10327,443;  241,772;50244,364;20,17030
 708,57;10267,018;  227,397;50043,503;20,15336
 709,14;10255,343;  251,147;50339,891;19,97294
 709,71;10188,542;  239,772;50516,280;19,78811
 710,28;10185,742;  230,522;50682,418;19,73210
 710,86;10169,442;  244,647;50780,557;19,63909
 711,43;10079,641;  257,897;50797,195;19,43388
 712,00;10016,091;  232,647;50808,209;19,34421
 712,57;10065,291;  233,272;50921,847;19,39691
 713,14; 9955,490;  238,647;51114,361;19,09918
 713,71; 9902,690;  237,522;51083,749;19,00862
 714,28; 9926,139;  234,522;51161,763;19,03032
 714,85; 9772,964;  210,772;50769,776;18,91294
 715,42; 9776,539;  233,147;51107,290;18,75883
 716,00; 9857,238;  258,022;51180,053;18,85081
 716,57; 9729,938;  213,897;51316,817;18,62133
 717,14; 9661,513;  215,522;51209,455;18,52375
 717,71; 9623,712;  198,772;51251,844;18,46106
 718,28; 9682,037;  238,397;51250,857;18,51242
 718,85; 9601,362;  216,897;51271,246;18,38132
 719,42; 9592,186;  232,522;51434,509;18,27988
 719,99; 9449,011;  217,022;51234,898;18,09560
 720,56; 9529,710;  220,897;51531,286;18,14216
 721,13; 9478,660;  228,647;51663,800;17,98384
 721,70; 9386,360;  213,772;51482,313;17,89126
 722,27; 9402,684;  233,772;51595,702;17,85157
 722,84; 9390,634;  266,647;51653,465;17,75550
 723,41; 9271,584;  204,772;51662,979;17,61976
 723,98; 9319,658;  233,897;52106,742;17,51545
 724,55; 9334,233;  243,647;52190,131;17,49991
 725,12; 9159,308;  182,397;51986,644;17,32852
 725,69; 9207,882;  213,272;52148,283;17,31897
 726,27; 9166,707;  208,897;52227,921;17,22026
 726,84; 9242,532;  226,522;52581,060;17,22107
 727,41; 9199,231;  226,897;52513,573;17,15989
 727,98; 9194,181;  237,147;52776,962;17,04809
 728,55; 9153,755;  249,522;52741,475;16,96304
 729,12; 9115,455;  207,397;52832,489;16,92740
 729,69; 9181,030;  234,647;52967,127;16,96560
 730,26; 9164,354;  242,022;53259,516;16,82903
 730,82; 9120,304;  230,272;53081,279;16,82093
 731,39; 9158,379;  214,647;53148,793;16,89596
 731,96; 9160,328;  209,772;53419,681;16,82122
 732,53; 9160,903;  236,147;53732,820;16,68282
 733,10; 9153,103;  240,272;53695,583;16,67342
 733,67; 9202,052;  228,897;54010,347;16,68448
 734,24; 9083,502;  218,272;53605,235;16,60561
 734,81; 9070,451;  243,647;53703,499;16,51109
 735,38; 9040,026;  214,022;53489,012;16,56688
 735,95; 9019,351;  217,272;53521,526;16,51290
 736,52; 8991,925;  252,147;53455,165;16,42722
 737,09; 8935,875;  236,772;53278,053;16,40063
 737,66; 8954,825;  277,897;53295,317;16,36618
 738,23; 9004,649;  228,647;53394,705;16,50678
 738,80; 9034,974;  278,272;53729,969;16,38246
 739,37; 8959,549;  243,897;53924,107;16,23625
 739,94; 8947,998;  237,647;53914,996;16,22724
 740,51; 9051,448;  295,772;53858,509;16,34658
 741,07; 8914,023;  224,022;53870,148;16,19875
 741,64; 8917,847;  271,772;53969,161;16,10148
 742,21; 8926,797;  242,022;54225,675;16,08779
 742,78; 8896,121;  206,272;53975,063;16,16151
 743,35; 8910,446;  229,647;54147,077;16,10017
 743,92; 8927,021;  259,522;54364,215;16,01987
 744,49; 8940,470;  236,022;54183,979;16,13490
 745,06; 8850,670;  226,147;54292,617;15,95170
 745,63; 8795,120;  221,397;54261,631;15,86544
 746,19; 8907,444;  217,647;54202,519;16,09673
 746,76; 8799,894;  224,897;54273,033;15,86548
 747,33; 8832,469;  225,397;54181,546;15,95198
 747,90; 8841,418;  242,647;54513,560;15,84416
 748,47; 8896,618;  240,272;54464,948;15,96385
 749,04; 8896,567;  233,772;54465,587;15,97364
 749,61; 8833,017;  255,522;54474,725;15,82003
 750,17; 8832,717;  259,147;54307,239;15,86285
 750,74; 8910,041;  248,522;54279,002;16,03080
 751,31; 8827,241;  226,522;54254,391;15,91904
 751,88; 8788,191;  203,772;54062,029;15,93891
 752,45; 8846,640;  226,272;54285,043;15,94629
 753,02; 8859,340;  228,272;54189,806;15,99485
 753,58; 8793,665;  220,897;54072,570;15,91922
 754,15; 8792,364;  229,897;54223,208;15,85839
 754,72; 8741,439;  229,272;53944,972;15,84670
 755,29; 8710,514;  210,522;53821,985;15,85480
 755,86; 8726,588;  230,147;53900,249;15,83086
 756,42; 8771,288;  240,522;53797,637;15,92835
 756,99; 8738,237;  209,772;53792,526;15,91644
 757,56; 8684,437;  211,272;53686,414;15,84505
 758,13; 8684,137;  187,897;53695,803;15,87848
 758,70; 8731,336;  207,147;53748,441;15,92078
 759,26; 8790,911;  206,772;53792,080;16,01958
 759,83; 8839,111;  198,272;53889,093;16,09370
 760,40; 8708,560;  207,522;53871,982;15,84110
 760,97; 8802,885;  198,397;53763,120;16,06372
 761,53; 8696,835;  171,647;53439,509;16,00437
 762,10; 8729,909;  185,897;53530,897;16,01652
 762,67; 8796,734;  208,397;53401,036;16,14572
 763,24; 8612,933;  172,022;53032,674;15,96823
 763,80; 8702,258;  209,522;53183,188;16,03200
 764,37; 8688,333;  208,147;53113,076;16,02910
 764,94; 8651,782;  197,772;52506,590;16,16173
 765,50; 8636,857;  185,272;52608,228;16,12192
 766,07; 8672,557;  234,147;52650,367;16,09885
 766,64; 8683,381;  200,897;52395,755;16,25157
 767,21; 8640,331;  212,022;52256,019;16,19458
 767,77; 8735,156;  230,897;52181,782;16,36981
 768,34; 8674,105;  224,022;52141,921;16,27586
 768,91; 8682,555;  210,272;51932,059;16,38049
 769,47; 8675,254;  220,522;51984,448;16,33325
 770,04; 8673,954;  217,647;51950,836;16,34600
 770,61; 8609,029;  209,397;51690,850;16,31584
 771,18; 8664,353;  197,397;51606,863;16,46964
 771,74; 8682,803;  213,772;51713,627;16,44477
 772,31; 8674,878;  225,147;51493,515;16,48137
 772,88; 8641,452;  201,647;51172,029;16,55825
 773,44; 8627,527;  205,897;51201,792;16,51433
 774,01; 8723,852;  219,397;51241,431;16,66820
 774,58; 8617,801;  199,647;50952,944;16,58642
 775,14; 8731,876;  216,522;51019,708;16,76146
 775,71; 8674,951;  206,647;51055,221;16,65396
 776,27; 8791,025;  244,397;50806,110;16,90336
 776,84; 8797,100;  262,522;50818,623;16,88140
 777,41; 8749,424;  213,772;50713,512;16,90237
 777,97; 8689,499;  216,022;50489,650;16,85472
 778,54; 8806,699;  217,272;50523,664;17,07423
 779,11; 8801,898;  247,897;50472,302;17,03156
 779,67; 8820,848;  202,272;50453,691;17,15091
 780,24; 8827,548;  224,522;50230,329;17,20405
 780,80; 8810,997;  244,397;50167,843;17,15947
 781,37; 8902,072;  223,522;50194,481;17,36719
 781,94; 8837,522;  219,647;49885,620;17,35167
 782,50; 8868,596;  226,147;50009,133;17,36025
 783,07; 8868,796;  251,397;49965,772;17,33382
 783,63; 8841,995;  207,647;49726,410;17,43652
 784,20; 8907,820;  240,147;49531,549;17,58455
 784,77; 8855,895;  224,772;49460,187;17,53031
 785,33; 8841,469;  206,772;49220,451;17,61691
 785,90; 8900,919;  216,897;49166,464;17,74075
 786,46; 8900,744;  241,272;49074,228;17,73284
 787,03; 8912,943;  201,522;48952,741;17,86914
 787,59; 9012,268;  226,647;48939,255;18,03562
 788,16; 9000,093;  244,772;48804,893;18,02986
 788,73; 9008,292;  242,022;48709,782;18,08681
 789,29; 8954,117;  216,772;48409,545;18,12999
 789,86; 9005,192;  232,147;48263,934;18,26508
 790,42; 8991,266;  232,897;48145,447;18,27991
 790,99; 8978,716;  232,522;47797,961;18,38771
 791,55; 8958,915;  231,147;47829,474;18,33629
 792,12; 9044,115;  239,772;47676,488;18,56019
 792,68; 9017,440;  225,272;47379,876;18,64541
 793,25; 8940,264;  241,272;47168,765;18,53709
 793,81; 9072,214;  259,772;46823,778;18,92544
 794,38; 8894,789;  201,147;46585,042;18,74280
 794,94; 8926,738;  213,522;46600,305;18,78383
 795,51; 8968,688;  236,897;46268,819;18,96899
 796,07; 8933,763;  233,272;46125,332;18,95860
 796,64; 9044,337;  245,522;46230,471;19,13412
 797,20; 8912,287;  230,897;45686,234;19,09873
 797,77; 8914,236;  210,397;45411,873;19,25565
 798,33; 8852,936;  216,772;45246,511;19,17880
 798,90; 8943,261;  250,522;45131,650;19,36836
 799,46; 8880,460;  217,772;44524,663;19,55156
 800,03; 8941,410;  219,522;44510,427;19,69228
 800,59; 8902,985;  247,772;44254,815;19,66779
 801,15; 8922,059;  238,022;44210,954;19,74860
 801,72; 8895,134;  233,397;43915,717;19,82893
 802,28; 8842,209;  264,897;43571,481;19,80602
 802,85; 8809,158;  220,647;43485,119;19,85119
 803,41; 8861,108;  223,772;43268,883;20,06578
 803,98; 8744,058;  224,022;42834,521;19,99516
 804,54; 8789,007;  225,397;42568,535;20,22432
 805,11; 8793,207;  228,772;42457,173;20,28122
 805,67; 8794,906;  258,897;42340,562;20,28439
 806,23; 8671,481;  235,272;41845,075;20,27457
 806,80; 8751,306;  250,897;41867,714;20,42542
 807,36; 8767,505;  253,522;41886,852;20,44992
 807,93; 8804,580;  270,897;41501,366;20,69752
 808,49; 8709,905;  216,397;41202,879;20,72270
 809,05; 8766,354;  210,522;41011,518;20,96967
 809,62; 8801,179;  237,272;40925,281;21,04774
 810,18; 8782,379;  247,647;40927,670;20,98015
 810,74; 8795,828;  214,272;40519,433;21,29146
 811,31; 8787,278;  206,647;40336,572;21,38213
 811,87; 8856,602;  221,897;40158,460;21,62105
 812,44; 8851,177;  261,272;40159,849;21,52935
 813,00; 8781,002;  200,272;40017,862;21,55010
 813,56; 8893,951;  244,522;40061,251;21,72310
 814,13; 8916,651;  228,647;39922,014;21,88780
 814,69; 8902,976;  232,897;39745,903;21,94234
 815,25; 8818,175;  199,647;39333,666;22,02311
 815,82; 8872,875;  239,897;39241,680;22,13483
 816,38; 8897,575;  245,147;39051,069;22,29667
 816,94; 8819,899;  212,522;38692,207;22,36863
 817,51; 8812,974;  215,772;38643,596;22,37234
 818,07; 8820,049;  213,897;38369,859;22,55519
 818,63; 8799,248;  241,397;38202,873;22,54352
 819,20; 8794,198;  233,147;38011,636;22,66118
 819,76; 8771,022;  204,397;37698,900;22,84768
 820,32; 8762,347;  257,147;37606,913;22,77176
 820,89; 8732,672;  246,522;37287,802;22,90998
 821,45; 8731,746;  225,272;37154,065;23,03480
 822,01; 8662,821;  234,647;36927,079;22,96979
 822,57; 8694,271;  237,022;36755,467;23,15884
 823,14; 8689,845;  208,272;36555,856;23,33463
 823,70; 8750,545;  215,647;36270,994;23,67166
 824,26; 8718,745;  218,022;36184,508;23,63512
 824,82; 8720,694;  232,272;35971,396;23,75106
 825,39; 8704,394;  228,147;35791,285;23,83436
 825,95; 8808,093;  241,147;35835,048;24,06858
 826,51; 8681,543;  227,897;35500,687;23,96648
 827,08; 8763,868;  272,397;35594,575;24,04005
 827,64; 8779,442;  236,647;35309,964;24,35697
 828,20; 8704,767;  220,272;35049,227;24,36046
 828,76; 8793,217;  243,772;34963,741;24,62400
 829,32; 8814,416;  242,647;34835,879;24,77875
 829,89; 8710,366;  212,647;34741,518;24,61047
 830,45; 8843,816;  229,022;34673,156;25,01092
 831,01; 8802,265;  212,147;34502,295;25,05127
 831,57; 8727,465;  232,897;34402,683;24,85988
 832,14; 8778,040;  217,272;34294,697;25,12152
 832,70; 8737,739;  219,522;34085,460;25,15276
 833,26; 8802,439;  197,647;33985,849;25,46685
 833,82; 8771,263;  213,397;33944,612;25,37076
 834,38; 8903,088;  222,022;34042,126;25,66836
 834,95; 8817,538;  208,522;33847,889;25,59209
 835,51; 8860,612;  194,522;33723,028;25,84693
 836,07; 8934,312;  228,772;33794,666;25,93567
 836,63; 8985,887;  235,772;33762,305;26,09907
 837,19; 8988,836;  225,522;33579,818;26,27342
 837,75; 8895,911;  207,272;33234,832;26,30724
 838,32; 8986,236;  253,397;33500,845;26,26619
 838,88; 9001,810;  241,647;33440,109;26,38726
 839,44; 9043,260;  227,022;33300,122;26,65682
 840,00; 9086,709;  233,772;33201,261;26,85354
 840,56; 9007,909;  202,147;33049,399;26,80822
 841,12; 8989,609;  205,397;32961,038;26,81740
 841,68; 8971,058;  202,272;32802,801;26,89768
 842,25; 9083,758;  214,397;32811,690;27,20889
 842,81; 8984,083;  202,272;32559,828;27,13991
 843,37; 9041,907;  197,772;32580,842;27,31099
 843,93; 9059,732;  212,272;32547,855;27,36137
 844,49; 9112,182;  221,522;32594,494;27,46322
 845,05; 9053,506;  190,397;32289,132;27,61202
 845,61; 9152,831;  229,022;32463,146;27,68435
 846,17; 9102,406;  221,647;32359,409;27,63341
 846,73; 9169,105;  235,522;32193,423;27,95422
 847,29; 9239,430;  194,147;32062,311;28,38345
 847,86; 9189,504;  196,647;32006,200;28,27093
 848,42; 9184,204;  200,022;31846,338;28,38935
 848,98; 9221,904;  213,522;31706,727;28,60421
 849,54; 9238,353;  206,272;31832,115;28,55918
 850,10; 9350,053;  223,022;31711,004;28,98576
 850,66; 9311,628;  193,647;31528,142;29,09886
 851,22; 9338,827;  202,647;31387,156;29,29718
 851,78; 9424,777;  245,772;31456,419;29,40985
 852,34; 9292,477;  216,647;31208,308;29,28475
 852,90; 9277,176;  215,272;31164,196;29,28019
 853,46; 9308,251;  202,397;30932,335;29,63187
 854,02; 9278,075;  213,522;31022,223;29,42206
 854,58; 9344,400;  218,522;30742,737;29,89718
 855,14; 9293,600;  200,397;30736,000;29,77902
 855,70; 9258,549;  180,022;30510,014;29,93251
 856,26; 9321,499;  229,147;30392,902;30,14330
 856,82; 9315,699;  201,772;30308,666;30,27189
 857,38; 9382,523;  227,897;30256,054;30,48681
 857,94; 9332,598;  208,022;30182,318;30,44134
 858,50; 9314,798;  222,397;30008,956;30,52518
 859,06; 9356,747;  217,147;29734,345;30,96364
 859,62; 9320,322;  221,397;29691,483;30,87512
 860,18; 9311,147;  219,022;29606,372;30,93891
 860,74; 9295,471;  183,522;29445,760;31,13893
 861,30; 9314,171;  185,897;29227,774;31,43142
 861,86; 9363,120;  228,397;29317,287;31,40279
 862,42; 9269,945;  208,522;29164,551;31,29374
 862,98; 9381,895;  234,147;29081,064;31,71135
 863,54; 9259,969;  227,397;28914,203;31,48685
 864,10; 9297,544;  216,022;28889,341;31,67238
 864,66; 9220,244;  185,272;28739,855;31,64106
 865,22; 9281,318;  215,397;28594,993;31,94521
 865,78; 9237,018;  221,147;28450,382;31,93806
 866,34; 9320,468;  208,147;28415,645;32,30460
 866,90; 9322,667;  221,772;28277,784;32,43831
 867,45; 9333,617;  233,772;27989,172;32,78585
 868,01; 9300,066;  223,272;27879,061;32,82060
 868,57; 9272,016;  231,397;27725,449;32,88209
 869,13; 9300,091;  204,647;27746,463;33,02413
 869,69; 9262,040;  197,897;27460,851;33,24711
 870,25; 9257,240;  202,397;27389,240;33,30598
 870,81; 9329,565;  208,647;27389,878;33,55594
 871,37; 9299,014;  219,272;27306,892;33,51990
 871,93; 9246,089;  230,647;27169,530;33,46628
 872,49; 9225,789;  233,897;26892,294;33,73005
 873,04; 9211,738;  200,897;26664,557;34,04987
 873,60; 9175,688;  191,522;26735,696;33,84609
 874,16; 9175,388;  226,897;26601,834;33,92801
 874,72; 9186,138;  212,272;26468,459;34,17810
 875,28; 9231,388;  227,022;26342,209;34,47942
 875,84; 9190,763;  217,272;26326,084;34,36959
 876,40; 9283,763;  215,022;26211,959;34,88388
 876,95; 9235,013;  219,897;26214,209;34,68111
 877,51; 9318,263;  232,522;26216,209;34,96709
 878,07; 9338,638;  251,147;26187,959;35,03704
 878,63; 9333,138;  213,897;26115,209;35,20764
 879,19; 9404,263;  228,897;26323,209;35,16232
 879,75; 9453,263;  222,897;26282,459;35,42026
 880,30; 9460,513;  211,897;26304,834;35,44490
 880,86; 9591,513;  252,147;26477,834;35,61152
 881,42; 9605,138;  196,647;26447,459;35,84076
 881,98; 9610,888;  228,397;26470,959;35,75295
 882,54; 9729,888;  207,022;26702,959;35,94085
 883,09; 9855,388;  214,272;26697,834;36,40415
 883,65; 9810,138;  195,647;26812,209;36,12221
 884,21; 9990,013;  240,772;26956,459;36,49257
 884,77; 9950,638;  205,272;26994,834;36,37747
 885,32; 9999,888;  215,897;27151,834;36,32319
 885,88;10065,013;  253,147;27413,334;36,12591
 886,44;10234,763;  232,522;27429,209;36,77742
 887,00;10246,638;  234,397;27392,834;36,86604
 887,56;10308,263;  223,272;27562,709;36,88807
 888,11;10372,763;  217,647;27461,959;37,27426
 888,67;10423,013;  244,772;27707,459;37,06207
 889,23;10483,513;  242,897;27733,709;37,25105
 889,79;10429,388;  215,272;27678,084;37,19253
 890,34;10481,013;  223,147;27513,959;37,58725
 890,90;10665,763;  268,772;27625,209;38,00565
 891,46;10602,638;  214,147;27675,459;37,82955
 892,01;10650,013;  251,022;27653,709;37,94880
 892,57;10634,763;  245,022;27529,834;38,07884
 893,13;10575,888;  212,522;27317,584;38,23406
 893,69;10648,263;  214,272;27253,209;38,58876
 894,24;10638,513;  228,022;27190,334;38,61127
 894,80;10634,763;  235,897;27069,834;38,75266
 895,36;10634,638;  230,397;26973,834;38,90390
 895,91;10560,138;  228,272;26729,959;38,98569
 896,47;10631,013;  222,272;26672,209;39,35261
 897,03;10506,388;  210,772;26426,959;39,27198
 897,58;10528,388;  235,022;26363,084;39,39582
 898,14;10583,388;  228,647;26120,084;39,99292
 898,70;10467,513;  195,272;25985,334;39,83023
 899,25;10476,388;  220,522;26025,959;39,74304
 899,81;10506,638;  230,647;25833,584;40,13598
 900,37;10408,138;  196,647;25623,959;40,15954
 900,92;10493,513;  218,897;25642,084;40,41435
 901,48;10487,138;  210,897;25443,459;40,72611
 902,03;10403,013;  217,647;25365,084;40,50260
 902,59;10467,888;  214,647;25122,709;41,16434
 903,15;10353,638;  233,147;25071,959;40,74466
 903,70;10299,638;  226,647;24830,084;40,94140
 904,26;10364,888;  196,147;24751,709;41,41115
 904,82;10429,638;  224,772;24692,334;41,70773
 905,37;10402,638;  218,647;24568,584;41,82348
 905,93;10370,638;  206,022;24431,209;41,95887
 906,48;10379,888;  219,272;24324,709;42,15072
 907,04;10335,513;  234,897;24439,209;41,73064
 907,60;10368,763;  215,647;24090,584;42,52625
 908,15;10359,513;  203,272;23895,334;42,86769
 908,71;10370,138;  236,147;24052,084;42,55130
 909,26;10256,388;  211,147;23831,584;42,52775
 909,82;10333,138;  240,272;23757,584;42,91675
 910,37;10345,763;  258,897;23672,334;43,08152
 910,93;10288,013;  204,522;23450,334;43,37766
 911,48;10220,388;  205,772;23314,084;43,33772
 912,04;10228,638;  211,272;23190,709;43,59274
 912,60;10317,013;  232,897;23184,584;43,93627
 913,15;10237,763;  219,647;23045,334;43,88966
 913,71;10205,638;  218,022;22883,834;44,06467
 914,26;10134,013;  201,772;22870,334;43,81504
 914,82;10196,763;  217,022;22759,584;44,27066
 915,37;10188,638;  205,522;22601,459;44,57556
 915,93;10227,763;  247,772;22519,959;44,80921
 916,48;10116,388;  203,272;22453,209;44,55345
 917,04;10112,888;  235,397;22319,334;44,72704
 917,59;10208,888;  244,772;22180,459;45,42422
 918,15;10127,888;  198,397;22052,959;45,43441
 918,70;10157,888;  214,772;21989,584;45,66338
 919,26;10117,013;  222,272;21880,584;45,68565
 919,81;10043,013;  208,397;21695,584;45,76967
 920,37;10053,263;  211,772;21550,334;46,12068
 920,92;10122,513;  233,022;21502,584;46,49598
 921,48; 9990,263;  200,022;21338,459;46,31487
 922,03;10056,013;  203,272;21372,709;46,54229
 922,59;10032,263;  202,272;21231,459;46,74451
 923,14; 9953,013;  191,647;21121,209;46,63913
 923,69; 9984,638;  213,272;20985,459;47,04062
 924,25; 9952,763;  236,147;21041,834;46,70173
 924,80; 9834,888;  223,147;20689,959;46,96257
 925,36; 9807,513;  210,897;20678,959;46,88580
 925,91; 9834,388;  207,022;20544,334;47,33844
 926,47; 9728,888;  201,147;20532,959;46,86125
 927,02; 9818,888;  241,897;20449,959;47,39193
 927,57; 9643,138;  225,772;20289,834;46,93648
 928,13; 9717,888;  222,772;20254,584;47,40018
 928,68; 9684,513;  213,022;20173,334;47,45161
 929,24; 9564,638;  199,397;19971,834;47,36513
 929,79; 9614,263;  207,522;19856,959;47,87282
 930,34; 9537,888;  216,147;19728,459;47,77363
 930,90; 9563,138;  205,647;19757,209;47,86058
 931,45; 9591,013;  237,772;19578,834;48,35950
 932,01; 9555,013;  228,272;19640,084;48,04673
 932,56; 9566,263;  234,022;19455,459;48,55121
 933,11; 9619,638;  235,772;19334,709;49,13292
 933,67; 9480,388;  215,647;19160,834;48,90287
 934,22; 9498,888;  216,772;19085,834;49,19225
 934,77; 9568,888;  248,522;18974,334;49,77282
 935,33; 9481,888;  228,397;18956,709;49,40910
 935,88; 9455,513;  234,772;18826,709;49,59537
 936,43; 9443,638;  200,647;18710,834;49,93461
 936,99; 9437,263;  215,522;18576,959;50,22341
 937,54; 9395,513;  198,647;18466,959;50,34327
 938,09; 9396,263;  207,897;18400,209;50,50686
 938,65; 9330,388;  210,272;18317,459;50,36738
 939,20; 9311,513;  202,522;18263,959;50,43336
 939,75; 9297,888;  207,272;18139,959;50,69299
 940,31; 9282,638;  194,147;18032,584;50,94892
 940,86; 9360,263;  207,397;18008,334;51,41789
 941,41; 9345,138;  253,147;17864,709;51,62512
 941,96; 9236,013;  198,022;17905,334;51,04101
 942,52; 9191,263;  220,897;17687,584;51,35699
 943,07; 9189,138;  189,772;17574,584;51,76568
 943,62; 9129,888;  210,022;17599,334;51,29510
 944,18; 9139,513;  194,897;17519,834;51,62856
 944,73; 9185,013;  203,147;17382,209;52,28379
 945,28; 9099,013;  168,522;17236,084;52,32435
 945,83; 9146,013;  216,647;17201,959;52,57110
 946,39; 9137,763;  213,022;17154,334;52,68034
 946,94; 9111,888;  227,772;17045,584;52,82563
 947,49; 9084,638;  204,272;16969,334;52,96948
 948,04; 9141,763;  217,272;16936,834;53,37754
 948,59; 9153,888;  223,897;16853,709;53,69868
 949,15; 9033,763;  204,897;16784,209;53,25230
 949,70; 9050,388;  213,647;16669,209;53,70063
 950,25; 9019,513;  214,022;16527,334;53,97733
 950,80; 8981,513;  176,772;16457,959;54,07923
 951,36; 9001,638;  166,647;16458,709;54,22880
 951,91; 9009,263;  231,397;16354,959;54,44123
 952,46; 8848,388;  184,647;16232,584;53,98663
 953,01; 8977,888;  216,897;16222,834;54,73588
 953,56; 8904,638;  182,647;16112,209;54,75349
 954,11; 8917,763;  210,397;16000,209;55,14547
 954,67; 8802,888;  194,522;15983,959;54,51977
 955,22; 8725,888;  186,897;15812,334;54,64801
 955,77; 8798,513;  228,522;15775,459;55,12334
 956,32; 8769,388;  237,022;15673,959;55,27240
 956,87; 8720,763;  193,647;15575,334;55,43680
 957,42; 8735,513;  203,772;15448,959;55,96350
 957,98; 8716,888;  190,522;15384,334;56,11735
 958,53; 8655,138;  219,397;15384,584;55,62569
 959,08; 8655,763;  199,022;15220,209;56,29875
 959,63; 8645,013;  189,647;15203,334;56,31771
 960,18; 8653,388;  205,272;15059,709;56,87267
 960,73; 8635,638;  203,647;15075,084;56,69923
 961,28; 8584,263;  183,147;14963,334;56,84039
 961,83; 8592,013;  229,897;14939,334;56,84864
 962,39; 8562,513;  196,897;14815,584;57,22549
 962,94; 8518,138;  213,647;14778,459;57,01749
 963,49; 8457,888;  212,272;14666,709;57,04557
 964,04; 8437,888;  231,397;14566,584;57,24718
 964,59; 8415,763;  182,897;14460,584;57,66246
 965,14; 8470,388;  222,022;14407,834;58,14518
 965,69; 8399,763;  206,772;14288,209;58,18291
 966,24; 8347,263;  200,272;14204,084;58,17695
 966,79; 8339,638;  218,147;14146,084;58,31079
 967,34; 8234,638;  183,772;14097,084;57,86448
 967,89; 8283,388;  216,147;14001,959;58,51843
 968,44; 8273,138;  214,022;13888,959;58,93347
 968,99; 8248,263;  220,522;13840,959;58,93893
 969,55; 8198,388;  219,022;13754,959;58,94949
 970,10; 8179,138;  214,522;13705,834;59,03514
 970,65; 8122,513;  218,522;13561,709;59,23615
 971,20; 8065,888;  203,272;13435,459;59,42038
 971,75; 7953,763;  181,397;13312,709;59,18956
 972,30; 7968,888;  213,397;13295,084;59,28509
 972,85; 7870,513;  191,897;13248,084;58,81208
 973,40; 7867,888;  194,272;13105,459;59,43385
 973,95; 7839,513;  215,647;12940,584;59,91279
 974,50; 7829,513;  216,772;12899,709;60,02348
 975,05; 7760,513;  218,522;12885,584;59,54017
 975,60; 7809,263;  232,147;12789,834;60,33846
 976,15; 7686,763;  205,272;12644,459;60,14453
 976,70; 7700,513;  217,772;12546,084;60,69558
 977,25; 7669,638;  210,272;12536,834;60,51456
 977,80; 7600,513;  202,647;12444,584;60,43051
 978,35; 7550,388;  214,397;12210,959;61,15077
 978,89; 7541,388;  201,647;12198,709;61,17948
 979,44; 7528,763;  211,522;12186,834;61,10271
 979,99; 7472,513;  203,897;11992,584;61,65755
 980,54; 7405,138;  233,897;11982,084;61,04125
 981,09; 7472,763;  227,272;11809,334;62,55786
 981,64; 7366,388;  209,647;11653,209;62,53945
 982,19; 7367,888;  243,522;11684,334;62,27150
 982,74; 7312,888;  223,522;11617,459;62,22051
 983,29; 7312,138;  195,772;11414,959;63,43031
 983,84; 7212,013;  230,647;11298,584;63,07739
 984,39; 7238,513;  250,647;11195,834;63,84418
 984,94; 7197,263;  199,647;11162,334;63,83121
 985,49; 7141,013;  246,397;11103,709;63,50205
 986,03; 7101,763;  240,272;11042,209;63,52093
 986,58; 7088,138;  245,897;10848,084;64,53612
 987,13; 6980,763;  216,522;10773,834;64,07162
 987,68; 6965,638;  232,272;10673,959;64,48542
 988,23; 6895,638;  231,772;10604,209;64,24590
 988,78; 6817,638;  218,022;10480,209;64,31003
 989,33; 6844,513;  215,897;10342,209;65,45932
 989,88; 6743,388;  233,647;10234,584;65,09130
 990,42; 6718,763;  207,647;10215,834;65,05789
 990,97; 6647,888;  212,147;10071,084;65,27824
 991,52; 6648,388;  235,147; 9989,209;65,74943
 992,07; 6582,763;  246,772; 9876,834;65,79387
 992,62; 6546,638;  219,772; 9786,084;66,13693
 993,17; 6464,888;  223,772; 9700,459;65,85756
 993,71; 6437,263;  228,022; 9622,084;66,09750
 994,26; 6356,138;  187,147; 9476,709;66,40776
 994,81; 6399,763;  245,772; 9394,334;67,26730
 995,36; 6303,638;  207,897; 9329,709;66,82598
 995,91; 6286,513;  221,647; 9250,959;67,16863
 996,45; 6267,263;  222,647; 9172,584;67,53808
 997,00; 6144,263;  219,147; 8976,834;67,65617
 997,55; 6123,388;  225,772; 8982,834;67,34696
 998,10; 6098,388;  244,397; 8873,334;67,84138
 998,65; 6054,013;  228,022; 8756,959;68,30852
 999,19; 6022,138;  237,897; 8633,334;68,89743
 999,74; 5997,513;  239,522; 8568,209;69,13443
1000,29; 5916,138;  235,397; 8497,084;68,76005
1000,84; 5864,763;  224,772; 8411,084;68,89537
1001,38; 5762,013;  220,147; 8316,959;68,44503
1001,93; 5776,638;  227,897; 8253,334;69,13942
1002,48; 5690,763;  202,397; 8117,834;69,33749
1003,03; 5673,013;  225,772; 8078,334;69,36896
1003,57; 5598,138;  233,522; 7930,334;69,69919
1004,12; 5574,888;  235,397; 7915,959;69,51953
1004,67; 5522,388;  217,897; 7763,709;70,29714
1005,22; 5375,388;  209,397; 7650,209;69,42778
1005,76; 5308,638;  205,522; 7540,459;69,57272
1006,31; 5329,388;  244,647; 7497,084;70,11078
1006,86; 5261,763;  211,522; 7323,334;71,01200
1007,40; 5196,513;  209,397; 7227,084;71,06494
1007,95; 5129,263;  216,522; 7204,709;70,30064
1008,50; 5038,638;  227,397; 7034,459;70,68013
1009,04; 4985,263;  232,272; 6943,334;70,82322
1009,59; 4894,513;  228,647; 6828,584;70,69560
1010,14; 4853,263;  206,022; 6734,709;71,18185
1010,68; 4779,388;  225,397; 6630,084;71,10403
1011,23; 4763,138;  212,147; 6544,959;71,86366
1011,78; 4727,513;  228,647; 6451,584;72,29489
1012,32; 4655,013;  219,397; 6317,084;72,74259
1012,87; 4651,763;  243,147; 6347,459;72,22133
1013,42; 4560,388;  205,147; 6236,209;72,21349
1013,96; 4567,388;  248,772; 6186,209;72,73534
1014,51; 4512,388;  172,897; 6127,209;72,87979
1015,06; 4505,388;  201,647; 6081,334;73,19676
1015,60; 4590,138;  260,897; 6193,209;72,97729
1016,15; 4580,263;  218,522; 6144,834;73,59957
1016,69; 4526,763;  213,397; 6149,834;72,65916
1017,24; 4538,388;  197,147; 6175,584;72,61497
1017,79; 4617,388;  237,647; 6213,959;73,28500
1018,33; 4566,888;  200,522; 6216,834;72,57545
1018,88; 4628,013;  233,647; 6250,334;73,03629
1019,42; 4636,513;  213,397; 6211,334;73,74394
1019,97; 4613,013;  205,147; 6211,084;73,39180
1020,51; 4693,263;  214,897; 6286,084;73,76425
1021,06; 4652,138;  183,147; 6306,959;72,97726
1021,61; 4679,888;  188,397; 6276,584;73,77386
1022,15; 4655,013;  156,897; 6195,709;74,48676
1022,70; 4708,763;  212,647; 6213,709;74,92199
1023,24; 4644,513;  212,022; 6153,584;74,60143
1023,79; 4608,888;  209,147; 6105,834;74,61377
1024,33; 4576,763;  212,272; 6004,209;75,35459
1024,88; 4563,263;  225,772; 5988,459;75,26854
1025,42; 4516,763;  219,772; 5922,584;75,34862
1025,97; 4465,513;  199,897; 5814,334;75,97583
1026,51; 4381,013;  177,772; 5700,209;76,11205
1027,06; 4358,888;  191,772; 5676,834;75,97207
1027,60; 4251,638;  209,397; 5550,709;75,67879
1028,15; 4234,763;  227,897; 5451,834;76,70202
1028,69; 4154,513;  184,772; 5357,959;76,73684
1029,24; 4108,888;  197,772; 5283,834;76,89869
1029,78; 4061,763;  194,647; 5201,084;77,24286
1030,33; 3985,763;  189,147; 5094,209;77,40198
1030,87; 3945,263;  203,022; 5062,959;77,00183
1031,42; 3898,513;  187,022; 4911,084;78,56565
1031,96; 3883,263;  211,397; 4902,959;78,26530
1032,51; 3808,388;  198,022; 4839,209;77,78970
1033,05; 3816,763;  217,272; 4751,834;79,37901
1033,60; 3711,513;  180,022; 4623,459;79,47655
1034,14; 3642,138;  209,272; 4589,334;78,37481
1034,69; 3599,513;  198,272; 4512,709;78,83393
1035,23; 3547,263;  197,897; 4445,209;78,85847
1035,77; 3507,013;  193,272; 4417,584;78,44450
1036,32; 3457,388;  190,147; 4352,209;78,50052
1036,86; 3467,888;  195,022; 4310,084;79,53380
1037,41; 3381,263;  210,397; 4217,709;79,12699
1037,95; 3353,388;  175,897; 4189,084;79,17623
1038,50; 3271,388;  186,522; 4116,209;78,50155
1039,04; 3297,013;  216,022; 4050,959;80,34005
1039,58; 3238,763;  197,022; 3977,084;80,46800
1040,13; 3235,638;  209,897; 3952,084;80,85486
1040,67; 3206,513;  230,272; 3881,334;81,51711
1041,21; 3130,638;  237,397; 3795,834;81,30649
1041,76; 3064,138;  186,772; 3728,709;81,23705
1042,30; 3049,138;  200,897; 3677,459;81,92692
1042,85; 3011,763;  211,272; 3635,334;81,78854
1043,39; 2957,138;  207,897; 3600,959;81,02535
1043,93; 2991,638;  218,272; 3553,209;83,16095
1044,48; 2926,513;  195,522; 3477,959;83,20008
1045,02; 2888,138;  191,272; 3456,709;82,58819
1045,56; 2892,888;  217,397; 3440,959;82,99794
1046,11; 2866,387;  207,272; 3359,834;84,34775
1046,65; 2828,387;  219,522; 3314,834;84,28440
1047,19; 2773,137;  186,397; 3271,459;83,84727
1047,74; 2703,512;  191,022; 3189,709;83,78634
1048,28; 2688,012;  226,647; 3138,709;84,52310
1048,82; 2720,262;  219,397; 3179,834;84,47622
1049,37; 2626,137;  214,147; 3110,834;83,26720
1049,91; 2642,637;  199,522; 3054,334;85,57885
1050,45; 2567,387;  228,522; 3025,084;83,63359
1050,99; 2559,137;  205,647; 2946,209;85,87619
1051,54; 2491,762;  195,147; 2910,959;84,56459
1052,08; 2543,887;  218,397; 2873,834;87,57467
1052,62; 2492,387;  216,022; 2846,334;86,54354
1053,16; 2405,262;  202,897; 2788,459;85,17936
1053,71; 2398,637;  215,397; 2736,834;86,58714
1054,25; 2372,762;  228,897; 2712,334;86,32654
1054,79; 2371,012;  215,647; 2690,209;87,10088
1055,33; 2250,387;  201,647; 2626,459;84,49068
1055,88; 2289,137;  210,897; 2605,959;86,77187
1056,42; 2268,637;  236,522; 2617,084;85,36283
1056,96; 2222,137;  228,147; 2561,209;85,46666
1057,50; 2216,637;  211,897; 2510,709;87,20766
1058,05; 2181,762;  209,022; 2403,084;89,91269
1058,59; 2171,887;  229,522; 2407,584;89,17860
1059,13; 2104,387;  192,522; 2366,209;87,95494
1059,67; 2094,512;  223,272; 2342,834;88,28429
1060,21; 2037,012;  204,897; 2264,334;88,96194
1060,76; 2040,512;  230,522; 2288,584;87,94634
1061,30; 2031,512;  234,397; 2277,834;87,94571
1061,84; 1996,762;  206,397; 2207,584;89,46516
1062,38; 1931,012;  202,897; 2156,209;88,47103
1062,92; 1928,637;  246,022; 2150,584;88,34657
1063,46; 1940,012;  231,647; 2133,334;89,83419
1064,01; 1873,387;  192,647; 2088,959;88,63205
1064,55; 1873,137;  218,647; 2059,084;89,89659
1065,09; 1818,137;  183,272; 2037,209;88,18343
1065,63; 1839,887;  241,022; 2018,459;89,95341
1066,17; 1824,262;  225,647; 2005,209;89,83195
1066,71; 1800,637;  232,772; 1964,459;90,53976
1067,25; 1752,387;  217,272; 1924,334;89,92732
1067,80; 1743,512;  227,272; 1927,084;89,20046
1068,34; 1716,262;  240,397; 1911,334;88,32560
1068,88; 1691,137;  207,272; 1840,459;90,85703
1069,42; 1688,637;  246,522; 1900,959;87,16652
1069,96; 1650,762;  217,772; 1820,709;89,39779
1070,50; 1666,887;  247,397; 1834,334;89,44843
1071,04; 1597,387;  207,147; 1765,959;89,18588
1071,58; 1577,637;  221,272; 1785,209;86,72761
1072,12; 1594,762;  213,897; 1749,959;89,89645
1072,66; 1559,512;  227,272; 1722,084;89,12426
1073,21; 1565,387;  235,897; 1719,959;89,58454
1073,75; 1533,387;  226,272; 1690,459;89,27242
1074,29; 1494,137;  228,147; 1655,334;88,70528
1074,83; 1528,012;  229,147; 1653,209;91,20847
1075,37; 1466,387;  225,022; 1633,709;88,12214
1075,91; 1455,262;  227,022; 1588,459;90,21645
1076,45; 1448,887;  231,397; 1595,209;89,27111
1076,99; 1420,512;  232,647; 1559,584;89,51933
1077,53; 1408,637;  215,647; 1523,209;91,23775
1078,07; 1404,262;  227,272; 1520,334;91,02349
1078,61; 1389,387;  217,772; 1533,709;89,03277
1079,15; 1355,387;  217,772; 1481,334;90,03240
1079,69; 1350,887;  228,147; 1464,834;90,78612
1080,23; 1346,762;  238,897; 1469,334;90,03835
1080,77; 1402,887;  255,522; 1440,334;96,83943
1081,31; 1316,762;  211,522; 1424,834;91,09282
1081,85; 1310,887;  234,147; 1415,084;91,17677
1082,39; 1306,387;  225,647; 1392,084;92,65311
1082,93; 1279,387;  225,897; 1380,209;91,26563
1083,47; 1260,762;  209,522; 1358,209;91,51668
1084,01; 1259,013;  236,522; 1359,834;91,02459
1084,55; 1234,762;  210,147; 1312,334;92,96201
1085,09; 1237,638;  230,647; 1335,459;91,14584
1085,63; 1223,513;  223,647; 1280,459;94,61145
1086,17; 1208,013;  217,647; 1301,959;91,33581
1086,71; 1193,763;  213,772; 1290,209;91,04018
1087,24; 1201,388;  247,022; 1269,209;93,36503
1087,78; 1215,513;  226,647; 1230,334;98,52326
1088,32; 1150,763;  216,522; 1228,459;92,32197
1088,86; 1164,763;  247,897; 1216,334;94,67473
1089,40; 1180,263;  230,647; 1210,459;96,91810
1089,94; 1124,763;  204,397; 1166,834;95,62861
1090,48; 1087,513;  233,147; 1177,834;90,43897
1091,02; 1130,388;  231,647; 1163,584;96,43786
1091,56; 1104,263;  226,647; 1158,209;94,20899
1092,10; 1059,763;  215,897; 1113,084;94,05677
1092,63; 1090,388;  243,272; 1153,459;93,07045
1093,17; 1093,013;  232,147; 1103,709;98,77268
1093,71; 1057,513;  220,772; 1078,459;97,55775
1094,25; 1052,138;  248,397; 1107,459;93,56020
1094,79; 1047,013;  225,647; 1062,084;98,19809
1095,33; 1033,263;  229,897; 1060,584;96,71093
1095,87; 1010,763;  222,147; 1027,959;97,86590
1096,40;  978,013;  215,272; 1030,334;93,58063
1096,94;  979,013;  228,147; 1026,959;93,99773
1097,48;  998,138;  217,897; 1002,084;99,49669
1098,02;  955,638;  223,272; 1016,584;92,31742
1098,56;  927,013;  194,147;  960,709;95,60416
1099,10;  922,763;  200,397;  966,959;94,23441
1099,63;  914,388;  202,022;  958,084;94,22047
1100,17;  927,888;  229,272;  955,709;96,17009
1100,71;  933,513;  242,397;  960,334;96,26404

