
Integration time [ms]: 130,000
Averaging Nr. [scans]: 8
Smoothing Nr. [pixels]: 0
Data measured with spectrometer [name]: 2009305U1
Wave   ;Sample   ;Dark     ;Reference;Reflectance
[nm]   ;[counts] ;[counts] ;[counts] ;[%]

 175,72;  213,180;  184,647;  202,659;158,40652
 176,32;  239,301;  222,897;  211,946; 0,00000
 176,92;  271,409;  236,022;  234,253; 0,00000
 177,52;  278,712;  247,022;  266,339;164,05412
 178,12;  237,146;  220,272;  216,819; 0,00000
 178,72;  283,587;  254,772;  232,116; 0,00000
 179,32;  280,542;  236,022;  236,650; 0,00000
 179,92;  279,754;  237,272;  239,552;1862,75406
 180,52;  256,363;  227,272;  247,498;143,82933
 181,12;  267,552;  233,897;  247,458;248,16965
 181,73;  292,269;  255,022;  265,840;344,28482
 182,33;  382,681;  298,022;  312,473;585,84624
 182,93;  271,427;  253,272;  263,032;186,00587
 183,53;  264,839;  231,647;  214,044; 0,00000
 184,13;  257,061;  240,772;  231,230; 0,00000
 184,73;  293,777;  260,772;  254,913; 0,00000
 185,33;  296,456;  221,522;  332,987;67,22606
 185,93;  287,921;  240,897;  349,033;43,48613
 186,53;  300,249;  235,397;  360,514;51,83288
 187,13;  331,172;  276,147;  418,944;38,53401
 187,73;  293,422;  221,397;  354,971;53,92159
 188,33;  280,435;  236,147;  369,308;33,25868
 188,93;  298,371;  233,772;  375,642;45,53437
 189,53;  289,187;  250,022;  372,915;31,86913
 190,13;  342,728;  256,647;  403,968;58,43068
 190,73;  275,297;  221,647;  340,553;45,11974
 191,34;  313,578;  260,647;  370,341;48,25344
 191,94;  288,869;  230,772;  342,362;52,06268
 192,54;  293,343;  258,772;  381,996;28,05545
 193,14;  319,865;  253,272;  373,617;55,33509
 193,74;  311,152;  241,272;  359,726;58,99360
 194,34;  294,673;  242,897;  362,007;43,46948
 194,94;  271,206;  212,772;  337,936;46,68554
 195,54;  238,417;  211,022;  325,315;23,96935
 196,14;  280,714;  222,147;  348,806;46,24021
 196,74;  261,984;  215,397;  317,051;45,82928
 197,34;  243,892;  183,272;  330,840;41,07969
 197,94;  278,724;  219,522;  362,590;41,38039
 198,54;  291,706;  234,397;  367,260;43,13347
 199,14;  274,167;  215,397;  360,862;40,40172
 199,74;  254,452;  192,897;  366,668;35,42303
 200,34;  260,444;  198,897;  369,311;36,11646
 200,94;  294,098;  223,522;  397,050;40,67116
 201,54;  279,597;  210,772;  406,061;35,24249
 202,14;  299,581;  217,897;  414,733;41,49831
 202,74;  271,857;  210,897;  446,295;25,89644
 203,34;  253,761;  191,772;  455,445;23,50994
 203,94;  247,379;  164,897;  446,139;29,32776
 204,54;  303,121;  236,897;  512,110;24,06298
 205,14;  280,659;  194,147;  526,691;26,01505
 205,74;  331,442;  222,397;  602,708;28,67262
 206,34;  305,287;  197,397;  615,632;25,79661
 206,94;  304,635;  215,022;  680,432;19,25465
 207,54;  292,942;  192,647;  679,883;20,58447
 208,14;  303,801;  202,272;  776,481;17,68153
 208,74;  323,438;  210,772;  835,193;18,04332
 209,34;  318,038;  198,022;  904,871;16,97910
 209,94;  369,836;  202,397;  984,838;21,39951
 210,54;  365,337;  203,272; 1057,351;18,97540
 211,14;  366,391;  209,647; 1162,476;16,45042
 211,73;  388,449;  200,522; 1281,916;17,37826
 212,33;  391,938;  220,647; 1367,619;14,93422
 212,93;  393,619;  195,147; 1438,081;15,96803
 213,53;  385,598;  172,272; 1482,749;16,27849
 214,13;  411,894;  181,897; 1524,126;17,13544
 214,73;  384,581;  190,397; 1584,233;13,93160
 215,33;  370,711;  151,022; 1596,588;15,19741
 215,93;  406,605;  193,147; 1749,005;13,71966
 216,53;  384,791;  160,022; 1804,923;13,66459
 217,13;  440,363;  206,272; 2015,862;12,93613
 217,73;  454,300;  180,522; 2206,492;13,51341
 218,33;  419,244;  154,397; 2370,804;11,94939
 218,93;  475,365;  170,272; 2565,586;12,73709
 219,53;  492,404;  182,772; 2869,485;11,52456
 220,13;  521,177;  175,147; 3150,943;11,62816
 220,73;  569,280;  181,272; 3496,701;11,70310
 221,32;  622,063;  183,397; 3819,693;12,06355
 221,92;  670,689;  177,522; 4195,354;12,27447
 222,52;  704,770;  172,647; 4598,740;12,02241
 223,12;  770,374;  170,147; 5027,534;12,35699
 223,72;  841,659;  193,522; 5304,465;12,68135
 224,32;  897,905;  184,147; 5675,974;12,99673
 224,92;  920,262;  167,647; 5919,258;13,08530
 225,52; 1003,045;  196,397; 6249,239;13,32676
 226,12; 1063,319;  187,022; 6543,260;13,78642
 226,72; 1098,814;  148,772; 6883,206;14,10724
 227,31; 1188,047;  162,272; 7140,115;14,70046
 227,91; 1286,363;  186,022; 7468,912;15,10857
 228,51; 1358,271;  182,772; 7869,581;15,29242
 229,11; 1469,219;  180,772; 8198,208;16,07057
 229,71; 1529,067;  168,647; 8461,309;16,40511
 230,31; 1631,286;  156,772; 8826,842;17,00695
 230,91; 1749,583;  162,647; 9189,262;17,58063
 231,51; 1865,782;  163,397; 9498,651;18,23609
 232,10; 1970,886;  161,022; 9800,644;18,77526
 232,70; 2124,673;  178,272;10024,007;19,76898
 233,30; 2248,376;  185,772;10345,711;20,30135
 233,90; 2333,234;  175,772;10501,621;20,89380
 234,50; 2486,024;  169,647;10677,856;22,04350
 235,10; 2605,512;  173,397;10820,258;22,84350
 235,70; 2732,819;  178,147;10988,311;23,63213
 236,29; 2834,610;  193,522;11071,786;24,27858
 236,89; 2925,338;  162,022;10996,317;25,50527
 237,49; 2999,561;  187,522;11032,465;25,92949
 238,09; 3077,037;  168,772;10835,757;27,26417
 238,69; 3164,874;  207,147;10740,737;28,07900
 239,29; 3122,739;  181,647;10531,851;28,41579
 239,89; 3161,730;  194,647;10312,407;29,32550
 240,48; 3174,770;  169,147;10033,416;30,46980
 241,08; 3130,118;  170,522; 9775,717;30,81245
 241,68; 3165,865;  186,272; 9483,164;32,04935
 242,28; 3085,031;  165,272; 9212,088;32,27389
 242,88; 3080,553;  202,647; 8995,682;32,72939
 243,48; 3066,151;  195,522; 8708,159;33,72197
 244,07; 3008,720;  181,397; 8565,572;33,72214
 244,67; 2993,495;  193,772; 8502,469;33,69630
 245,27; 2940,199;  190,522; 8311,791;33,85773
 245,87; 2930,880;  197,147; 8314,276;33,67857
 246,47; 2929,092;  183,147; 8296,632;33,84421
 247,06; 2867,605;  178,022; 8345,556;32,93018
 247,66; 2850,784;  183,397; 8378,766;32,54749
 248,26; 2854,881;  207,397; 8567,242;31,66906
 248,86; 2903,536;  193,397; 8722,244;31,77615
 249,46; 2863,248;  155,897; 8931,595;30,85054
 250,05; 2915,076;  187,647; 9273,804;30,01741
 250,65; 2918,026;  166,647; 9568,635;29,26380
 251,25; 2964,932;  168,022;10131,525;28,07155
 251,85; 3041,454;  175,647;10590,521;27,51649
 252,44; 3035,421;  151,397;11116,103;26,30279
 253,04; 3128,280;  186,897;11893,951;25,12488
 253,64; 3157,844;  143,022;12526,309;24,34590
 254,24; 3289,666;  182,147;13363,373;23,57534
 254,84; 3355,123;  164,647;14223,470;22,69376
 255,43; 3385,249;  173,147;15068,885;21,56390
 256,03; 3453,948;  181,897;15994,853;20,69222
 256,63; 3505,321;  185,522;16940,726;19,81354
 257,23; 3459,774;  166,147;17667,259;18,81953
 257,82; 3561,558;  187,397;18498,116;18,42725
 258,42; 3494,491;  149,272;19213,306;17,54728
 259,02; 3498,236;  187,022;20054,849;16,66621
 259,62; 3452,607;  170,647;20571,072;16,08770
 260,21; 3435,555;  175,522;21025,898;15,63537
 260,81; 3322,000;  189,522;21376,148;14,78517
 261,41; 3235,527;  169,272;21717,425;14,22978
 262,01; 3205,376;  206,647;22148,590;13,66665
 262,60; 3063,524;  161,272;22340,634;13,08537
 263,20; 2992,531;  176,272;22599,315;12,55967
 263,80; 2895,958;  194,022;22739,239;11,98452
 264,40; 2814,925;  167,397;22861,621;11,66609
 264,99; 2745,854;  184,272;22991,445;11,23148
 265,59; 2643,534;  177,772;23148,946;10,73416
 266,19; 2603,118;  168,147;23137,295;10,60105
 266,78; 2558,076;  202,147;23373,933;10,16723
 267,38; 2513,668;  186,272;23356,179;10,04491
 267,98; 2468,895;  173,022;23297,045; 9,92852
 268,58; 2458,526;  185,147;23291,714; 9,83867
 269,17; 2419,099;  176,022;23331,868; 9,68687
 269,77; 2400,151;  181,897;23081,436; 9,68689
 270,37; 2346,686;  142,522;23088,344; 9,60595
 270,96; 2403,675;  215,022;22899,820; 9,64810
 271,56; 2316,678;  181,272;22655,010; 9,50179
 272,16; 2326,307;  171,897;22569,177; 9,61907
 272,75; 2324,385;  178,772;22492,960; 9,61547
 273,35; 2332,412;  175,522;22460,784; 9,67855
 273,95; 2369,670;  183,022;22407,016; 9,83913
 274,54; 2429,532;  162,397;22523,327;10,13882
 275,14; 2534,973;  191,897;22831,851;10,34930
 275,74; 2519,833;  160,272;22947,688;10,35467
 276,33; 2704,375;  197,772;23380,675;10,81229
 276,93; 2747,042;  180,897;23674,311;10,92283
 277,53; 2877,020;  185,897;24035,592;11,28368
 278,12; 2967,296;  161,022;24636,529;11,46564
 278,72; 3143,907;  202,272;25139,253;11,79628
 279,32; 3306,045;  180,272;25844,289;12,17959
 279,91; 3442,910;  161,397;26530,806;12,44439
 280,51; 3558,581;  175,272;27005,784;12,60993
 281,11; 3764,767;  178,647;27709,590;13,02578
 281,70; 3940,379;  168,522;27974,990;13,56467
 282,30; 4150,178;  158,522;28574,010;14,04747
 282,90; 4306,402;  173,397;29090,750;14,29248
 283,49; 4570,447;  199,897;29473,590;14,92996
 284,09; 4761,917;  213,272;29938,913;15,30209
 284,69; 4977,359;  200,647;30286,222;15,87708
 285,28; 5181,508;  207,397;30624,231;16,35315
 285,88; 5442,156;  212,022;30748,041;17,12775
 286,47; 5595,118;  190,522;30818,443;17,64598
 287,07; 5863,385;  203,647;31076,483;18,33242
 287,67; 6084,526;  200,397;31127,784;19,02563
 288,26; 6305,333;  169,897;31125,211;19,82030
 288,86; 6581,943;  169,022;31152,048;20,69818
 289,46; 6937,229;  200,897;31362,043;21,61773
 290,05; 7252,272;  159,522;31388,094;22,71238
 290,65; 7609,979;  183,647;31582,969;23,65125
 291,24; 8027,631;  194,022;31667,867;24,88927
 291,84; 8362,821;  196,647;31763,601;25,86938
 292,44; 8762,040;  167,397;31900,258;27,08436
 293,03; 9227,748;  235,147;32094,197;28,22620
 293,63; 9527,260;  184,272;32166,784;29,21280
 294,22; 9934,901;  190,647;32316,010;30,33197
 294,82;10236,360;  189,897;32363,688;31,22561
 295,41;10484,754;  169,772;32163,990;32,24014
 296,01;10789,642;  220,272;32039,192;33,21725
 296,61;10972,588;  183,647;31743,266;34,18590
 297,20;11083,130;  189,272;31482,655;34,81202
 297,80;11277,774;  205,022;31320,157;35,58638
 298,39;11373,954;  163,022;30945,521;36,41983
 298,99;11482,942;  190,772;30842,911;36,83975
 299,58;11706,336;  190,647;30591,412;37,87960
 300,18;11749,850;  204,272;30490,001;38,12217
 300,78;11712,266;  185,397;30024,351;38,63027
 301,37;11864,030;  188,897;30192,529;38,91240
 301,97;11953,962;  189,397;30239,702;39,14957
 302,56;12021,272;  174,522;30024,320;39,68787
 303,16;12168,504;  175,647;30039,291;40,15872
 303,75;12271,823;  187,647;30014,927;40,51384
 304,35;12415,331;  169,397;30225,432;40,74368
 304,94;12496,397;  176,397;30324,144;40,86541
 305,54;12570,813;  199,772;30256,568;41,15888
 306,13;12689,409;  162,647;30178,340;41,73404
 306,73;12575,264;  175,647;30043,748;41,51458
 307,33;12679,314;  199,272;29911,331;42,00329
 307,92;12789,890;  173,522;30020,038;42,27082
 308,52;12991,301;  171,772;30539,634;42,21413
 309,11;13275,271;  181,647;30999,058;42,48775
 309,71;13439,510;  150,272;31304,636;42,65611
 310,30;13658,062;  162,772;31427,505;43,16458
 310,90;13781,562;  191,772;31765,505;43,04144
 311,49;13909,842;  177,147;31936,132;43,24035
 312,09;14006,493;  161,022;32018,842;43,46020
 312,68;14288,723;  203,647;32424,874;43,71365
 313,28;14269,765;  166,272;32608,288;43,47292
 313,87;14370,243;  146,897;32706,393;43,68417
 314,47;14479,764;  180,272;32891,076;43,71489
 315,06;14532,183;  171,147;32971,389;43,78332
 315,66;14510,368;  163,897;33157,592;43,48246
 316,25;14561,724;  149,272;33146,414;43,67788
 316,85;14610,411;  151,272;33258,568;43,67357
 317,44;14557,108;  171,147;33329,511;43,38562
 318,04;14510,795;  155,022;33321,715;43,28370
 318,63;14570,272;  149,897;33387,543;43,38567
 319,22;14676,561;  189,522;33648,617;43,29776
 319,82;14568,206;  182,272;33594,335;43,05611
 320,41;14474,764;  178,272;33545,650;42,84572
 321,01;14378,113;  180,647;33506,787;42,60159
 321,60;14342,891;  164,897;33626,027;42,37153
 322,20;14299,826;  161,397;33615,230;42,26251
 322,79;14330,692;  206,022;33778,934;42,07163
 323,39;14161,442;  167,772;33798,208;41,61014
 323,98;14051,063;  171,147;33765,693;41,31598
 324,58;14060,310;  168,647;33682,804;41,45013
 325,17;13887,418;  172,772;33537,152;41,10565
 325,76;13740,441;  187,647;33380,746;40,83016
 326,36;13510,087;  152,397;33034,652;40,62279
 326,95;13383,094;  195,897;32707,184;40,56190
 327,55;13125,279;  157,397;32386,313;40,23679
 328,14;12898,636;  170,397;31988,246;40,00346
 328,74;12724,113;  197,522;31601,264;39,88885
 329,33;12447,285;  197,022;31157,505;39,56742
 329,92;12168,332;  163,397;30738,125;39,26424
 330,52;11846,473;  180,022;30181,574;38,88616
 331,11;11659,900;  183,772;29710,822;38,86649
 331,71;11295,785;  173,397;29188,931;38,33253
 332,30;11076,522;  194,647;28664,519;38,22242
 332,89;10866,314;  207,772;28232,007;38,03330
 333,49;10527,603;  185,397;27679,730;37,61577
 334,08;10195,270;  181,397;27255,018;36,98756
 334,68;10044,921;  179,897;26962,029;36,83435
 335,27; 9826,181;  179,397;26527,536;36,61277
 335,86; 9664,525;  207,147;26304,447;36,23891
 336,46; 9456,241;  195,147;25992,228;35,89978
 337,05; 9254,258;  173,272;25869,731;35,33944
 337,65; 9128,430;  161,647;25765,949;35,02061
 338,24; 9078,662;  222,772;25783,932;34,64589
 338,83; 8965,464;  194,272;25720,454;34,36155
 339,43; 8827,535;  173,272;25634,731;33,98966
 340,02; 8749,396;  172,397;25518,507;33,83951
 340,61; 8678,925;  167,772;25607,219;33,45652
 341,21; 8606,988;  205,772;25618,014;33,05972
 341,80; 8461,378;  174,897;25574,927;32,62390
 342,40; 8429,150;  181,147;25674,970;32,35295
 342,99; 8371,064;  180,272;25829,132;31,93433
 343,58; 8312,410;  177,522;26027,505;31,46961
 344,18; 8274,647;  185,772;26119,969;31,19000
 344,77; 8275,495;  171,022;26439,121;30,85291
 345,36; 8280,094;  148,647;26720,184;30,60210
 345,96; 8300,427;  187,772;27053,470;30,19708
 346,55; 8223,128;  179,772;27244,650;29,71880
 347,14; 8237,926;  167,522;27527,356;29,49727
 347,74; 8209,745;  139,397;28049,992;28,91500
 348,33; 8358,313;  179,522;28663,791;28,71336
 348,92; 8425,235;  180,522;29196,707;28,41419
 349,52; 8470,996;  162,272;29712,180;28,11760
 350,11; 8483,508;  180,147;29820,532;28,01367
 350,70; 8410,524;  160,022;29997,708;27,65128
 351,29; 8212,183;  161,397;29717,592;27,23891
 351,89; 8074,387;  180,022;29661,512;26,77736
 352,48; 7976,873;  150,647;29757,072;26,43421
 353,07; 7942,858;  167,897;29680,432;26,34461
 353,67; 7820,357;  186,522;29739,216;25,83126
 354,26; 7636,060;  175,772;29443,152;25,49011
 354,85; 7512,937;  181,272;29352,079;25,13357
 355,45; 7377,998;  165,397;29054,998;24,96608
 356,04; 7280,720;  164,272;29112,646;24,58324
 356,63; 7098,780;  190,147;28910,001;24,05525
 357,22; 7017,285;  174,897;28712,208;23,97699
 357,82; 6783,683;  178,772;28536,416;23,29147
 358,41; 6744,496;  183,147;28441,509;23,21914
 359,00; 6585,168;  162,772;28231,277;22,88115
 359,60; 6459,029;  178,272;28142,887;22,45966
 360,19; 6375,993;  174,897;27960,291;22,31783
 360,78; 6247,162;  190,397;27796,608;21,93986
 361,37; 6133,072;  165,772;27702,039;21,67069
 361,97; 6023,017;  170,522;27643,840;21,30247
 362,56; 5832,964;  160,397;27198,181;20,98015
 363,15; 5787,459;  189,897;27001,451;20,87743
 363,74; 5574,932;  179,522;26639,177;20,39108
 364,34; 5467,375;  202,647;26268,675;20,19766
 364,93; 5282,209;  164,147;25903,501;19,88419
 365,52; 5128,275;  149,147;25623,947;19,54531
 366,11; 5030,677;  181,772;25242,572;19,34857
 366,71; 4888,811;  157,522;24859,367;19,15358
 367,30; 4750,702;  177,397;24566,594;18,75136
 367,89; 4670,144;  203,647;24321,103;18,51977
 368,48; 4590,126;  189,397;23989,665;18,49025
 369,07; 4387,899;  184,272;23630,458;17,92883
 369,67; 4315,407;  193,897;23396,730;17,76296
 370,26; 4188,218;  184,272;23144,195;17,43885
 370,85; 4121,141;  172,772;22872,777;17,39369
 371,44; 4021,840;  168,272;22683,068;17,11572
 372,03; 3946,884;  156,397;22385,971;17,05155
 372,63; 3839,137;  137,772;22100,286;16,85311
 373,22; 3801,053;  164,772;21897,710;16,73166
 373,81; 3665,633;  154,647;21525,606;16,42877
 374,40; 3596,145;  162,772;21342,666;16,21053
 374,99; 3523,166;  171,897;21156,599;15,97006
 375,59; 3459,032;  159,522;20934,952;15,88179
 376,18; 3437,244;  194,647;20759,632;15,76756
 376,77; 3405,944;  181,522;20537,612;15,84009
 377,36; 3322,490;  191,772;20604,266;15,33727
 377,95; 3298,005;  185,022;20233,105;15,52759
 378,55; 3185,113;  155,647;20088,537;15,19833
 379,14; 3201,857;  169,647;19978,096;15,30766
 379,73; 3190,074;  177,397;19896,717;15,27780
 380,32; 3196,276;  182,022;19972,885;15,23053
 380,91; 3101,722;  171,897;19885,288;14,86210
 381,50; 3138,499;  192,897;19824,362;15,00449
 382,10; 3069,276;  160,147;19732,135;14,86374
 382,69; 3058,331;  155,522;19629,210;14,90631
 383,28; 3102,030;  199,897;19644,552;14,92509
 383,87; 3025,762;  168,022;19450,837;14,82014
 384,46; 3019,886;  174,897;19497,574;14,72358
 385,05; 3065,740;  194,897;19482,692;14,88425
 385,64; 3055,927;  170,772;19378,947;15,02045
 386,24; 3045,317;  153,522;19447,337;14,98820
 386,83; 3077,152;  185,522;19473,476;14,99190
 387,42; 3085,871;  174,022;19580,684;15,00438
 388,01; 3139,415;  180,397;19817,063;15,06884
 388,60; 3164,801;  186,897;19989,059;15,03828
 389,19; 3193,357;  165,397;20230,100;15,09098
 389,78; 3257,543;  170,397;20443,730;15,22762
 390,37; 3370,146;  227,022;20833,233;15,25329
 390,96; 3388,256;  182,647;20994,270;15,40298
 391,56; 3405,040;  169,397;21197,665;15,38711
 392,15; 3464,411;  162,147;21556,623;15,43512
 392,74; 3504,540;  143,147;21710,891;15,58528
 393,33; 3571,483;  170,397;21877,964;15,66774
 393,92; 3714,897;  171,272;22384,352;15,95288
 394,51; 3720,172;  169,022;22566,272;15,85530
 395,10; 3821,574;  197,897;22667,776;16,12682
 395,69; 3843,973;  187,647;22862,734;16,12486
 396,28; 3915,729;  198,772;22910,579;16,36575
 396,87; 3981,506;  198,647;23083,930;16,52966
 397,46; 4069,581;  189,397;23161,948;16,89052
 398,06; 4108,881;  195,772;23457,383;16,82218
 398,65; 4142,734;  189,272;23497,243;16,96185
 399,24; 4256,626;  185,647;23706,134;17,30823
 399,83; 4251,157;  164,147;23505,606;17,50966
 400,42; 4362,076;  204,522;23783,813;17,63223
 401,01; 4374,425;  172,897;23852,958;17,74289
 401,60; 4475,438;  198,147;23819,617;18,10764
 402,19; 4514,517;  208,647;23796,170;18,25486
 402,78; 4611,624;  207,022;23736,927;18,71917
 403,37; 4563,078;  192,397;23710,308;18,58448
 403,96; 4584,286;  196,022;23510,157;18,82233
 404,55; 4633,603;  196,272;23504,956;19,03724
 405,14; 4650,163;  178,647;23369,785;19,28114
 405,73; 4683,588;  200,522;23216,044;19,47845
 406,32; 4773,003;  208,272;23205,389;19,84914
 406,91; 4702,073;  192,647;22835,776;19,91521
 407,50; 4761,724;  181,397;22673,393;20,36425
 408,09; 4714,151;  177,522;22405,419;20,40962
 408,68; 4767,959;  191,647;22237,761;20,75791
 409,27; 4795,918;  183,272;22132,583;21,01499
 409,86; 4812,679;  192,022;22103,622;21,08772
 410,45; 4883,877;  212,522;21947,518;21,49232
 411,04; 4895,516;  218,772;21929,036;21,54163
 411,63; 4905,955;  205,147;21587,734;21,98428
 412,22; 4887,291;  208,272;21355,189;22,12625
 412,81; 4936,467;  205,147;21086,069;22,65858
 413,40; 4884,871;  224,522;20737,442;22,71909
 413,99; 4963,929;  244,272;20429,308;23,38196
 414,58; 4856,912;  191,772;20099,292;23,43406
 415,17; 4818,501;  183,397;19854,251;23,56331
 415,76; 4842,194;  194,397;19743,253;23,77529
 416,35; 4851,066;  186,772;19584,410;24,04568
 416,94; 4958,259;  218,897;19714,010;24,31051
 417,53; 5010,162;  191,022;19833,620;24,53413
 418,12; 5097,645;  192,022;19930,854;24,85265
 418,71; 5258,493;  197,022;20251,451;25,23867
 419,30; 5281,108;  188,022;20266,745;25,36559
 419,89; 5381,986;  187,772;20520,560;25,54600
 420,48; 5515,661;  215,397;20790,803;25,76019
 421,07; 5580,139;  215,522;20909,357;25,92374
 421,66; 5604,498;  172,272;20864,603;26,25236
 422,25; 5673,447;  198,147;20858,067;26,50204
 422,84; 5751,727;  223,772;20851,643;26,79847
 423,43; 5700,106;  196,397;20597,299;26,97778
 424,02; 5754,959;  228,022;20224,603;27,63941
 424,60; 5647,697;  204,647;19841,563;27,71846
 425,19; 5638,384;  196,522;19628,720;28,00435
 425,78; 5618,626;  228,397;19626,239;27,78778
 426,37; 5641,121;  222,147;19404,083;28,25040
 426,96; 5692,656;  206,272;19253,514;28,80409
 427,55; 5651,686;  194,147;19031,113;28,97249
 428,14; 5657,553;  181,897;18941,705;29,18823
 428,73; 5631,948;  222,397;18767,700;29,16939
 429,32; 5721,495;  224,522;18744,769;29,68088
 429,91; 5720,569;  232,022;18773,834;29,60092
 430,50; 5740,503;  224,147;18733,048;29,80380
 431,08; 5728,418;  239,272;18537,921;29,99755
 431,67; 5801,506;  271,397;18387,636;30,52570
 432,26; 5795,391;  288,272;18235,819;30,68452
 432,85; 5708,777;  322,522;17780,542;30,85261
 433,44; 5679,126;  309,897;17459,430;31,30831
 434,03; 5619,457;  323,272;17142,237;31,48936
 434,62; 5498,756;  289,272;16718,234;31,70915
 435,21; 5478,860;  314,022;16585,129;31,74239
 435,79; 5442,840;  284,022;16377,958;32,05442
 436,38; 5466,735;  297,897;16340,574;32,21930
 436,97; 5422,931;  286,397;16196,625;32,28448
 437,56; 5410,094;  281,647;16046,969;32,52992
 438,15; 5424,460;  270,647;16020,724;32,72247
 438,74; 5465,682;  295,897;15949,036;33,02715
 439,33; 5512,098;  251,772;15894,010;33,62898
 439,91; 5576,631;  216,772;16015,277;33,92637
 440,50; 5610,287;  259,522;16040,717;33,90596
 441,09; 5658,085;  249,522;16192,896;33,92358
 441,68; 5691,837;  252,897;16152,858;34,20725
 442,27; 5734,121;  221,647;16170,215;34,56407
 442,86; 5737,026;  199,897;16147,212;34,72139
 443,44; 5753,535;  220,772;16211,559;34,59969
 444,03; 5870,738;  270,022;16197,040;35,16487
 444,62; 5818,979;  217,647;16139,995;35,17906
 445,21; 5787,084;  224,897;15893,903;35,49802
 445,80; 5836,807;  251,022;15862,926;35,77901
 446,39; 5829,650;  259,522;15553,047;36,42148
 446,97; 5685,551;  233,272;15372,781;36,01358
 447,56; 5685,026;  218,272;15144,732;36,62459
 448,15; 5621,382;  221,397;15032,554;36,45890
 448,74; 5601,384;  239,522;14783,493;36,86656
 449,33; 5570,412;  224,897;14611,580;37,15600
 449,91; 5499,100;  220,897;14428,047;37,15174
 450,50; 5484,132;  202,897;14194,851;37,74480
 451,09; 5440,785;  244,522;14159,175;37,34382
 451,68; 5472,479;  259,522;14010,487;37,90975
 452,26; 5455,618;  238,647;13956,661;38,03007
 452,85; 5470,253;  230,397;13850,320;38,47199
 453,44; 5480,944;  232,397;13903,478;38,39161
 454,03; 5489,401;  203,522;13816,603;38,82941
 454,61; 5475,161;  208,647;13777,110;38,81438
 455,20; 5612,567;  243,647;13969,124;39,11645
 455,79; 5610,980;  237,397;13966,523;39,14003
 456,38; 5665,364;  234,647;14045,990;39,32070
 456,97; 5730,728;  226,147;14115,568;39,63146
 457,55; 5698,161;  222,272;14075,532;39,52780
 458,14; 5757,196;  249,147;14060,814;39,87968
 458,73; 5721,253;  231,272;14043,664;39,74678
 459,31; 5764,374;  255,147;14045,196;39,95074
 459,90; 5917,977;  263,897;14174,602;40,64553
 460,49; 5957,271;  277,772;14258,693;40,62321
 461,08; 5926,926;  235,647;14346,792;40,33180
 461,66; 6006,162;  226,772;14371,243;40,85971
 462,25; 6089,891;  233,647;14430,810;41,24940
 462,84; 6091,017;  248,022;14456,799;41,12244
 463,43; 6042,962;  203,897;14410,009;41,10248
 464,01; 6107,863;  226,147;14442,344;41,37334
 464,60; 6101,876;  261,647;14364,670;41,41119
 465,19; 6036,408;  204,522;14172,822;41,75087
 465,77; 6028,297;  234,897;14192,621;41,50677
 466,36; 6076,720;  257,897;14108,054;42,01269
 466,95; 5916,588;  230,147;13701,698;42,21074
 467,53; 5846,441;  228,272;13470,599;42,42584
 468,12; 5806,727;  256,772;13223,844;42,80037
 468,71; 5675,017;  242,647;12987,045;42,62555
 469,29; 5527,361;  228,022;12758,328;42,29218
 469,88; 5485,443;  227,022;12545,050;42,68882
 470,47; 5564,792;  268,147;12654,938;42,76043
 471,06; 5532,262;  243,522;12618,811;42,73630
 471,64; 5625,010;  247,147;12754,684;42,99698
 472,23; 5607,359;  211,147;12662,220;43,33933
 472,81; 5693,338;  206,272;12740,865;43,77538
 473,40; 5728,803;  218,522;12934,457;43,33367
 473,99; 5920,696;  289,272;13155,173;43,77015
 474,57; 5923,708;  230,897;13178,834;43,96693
 475,16; 5991,202;  240,897;13412,017;43,65843
 475,75; 6033,391;  257,647;13494,298;43,63448
 476,33; 6130,027;  256,897;13570,919;44,11237
 476,92; 6179,865;  256,022;13612,713;44,35113
 477,51; 6228,154;  247,147;13749,158;44,29715
 478,09; 6199,563;  236,647;13669,590;44,39025
 478,68; 6223,234;  247,272;13546,818;44,93358
 479,27; 6250,978;  267,772;13736,501;44,42294
 479,85; 6235,397;  241,647;13672,115;44,62801
 480,44; 6307,698;  242,897;13869,772;44,50618
 481,02; 6815,519;  246,147;15579,022;42,84501
 481,61; 7686,615;  271,522;17364,135;43,38186
 482,20; 8272,312;  268,772;18421,624;44,08971
 482,78; 8722,813;  294,772;18995,164;45,06880
 483,37; 8881,282;  272,272;19410,770;44,98268
 483,95; 9020,646;  303,272;19646,172;45,06756
 484,54; 9217,649;  314,897;19857,377;45,55589
 485,13; 9141,921;  296,272;19884,768;45,15737
 485,71; 9157,875;  272,022;19758,540;45,60000
 486,30; 9106,910;  310,897;19512,346;45,80911
 486,88; 8959,567;  331,147;19154,975;45,83775
 487,47; 8690,974;  328,647;18476,853;46,07798
 488,05; 8374,659;  307,647;17587,306;46,68502
 488,64; 7824,312;  315,897;16271,893;47,05701
 489,23; 7126,406;  324,772;14257,379;48,81810
 489,81; 6074,456;  305,647;12238,598;48,34352
 490,40; 5604,500;  269,022;11746,763;46,48544
 490,98; 5471,732;  256,772;11507,808;46,35093
 491,57; 5451,097;  283,522;11390,250;46,52653
 492,15; 5442,099;  267,647;11418,951;46,40222
 492,74; 5412,913;  264,272;11271,486;46,77516
 493,32; 5373,860;  276,397;11148,799;46,88443
 493,91; 5307,051;  261,397;11109,119;46,51349
 494,50; 5274,654;  269,647;11064,697;46,36390
 495,08; 5259,532;  254,897;11002,438;46,56540
 495,67; 5324,084;  279,147;10990,362;47,09958
 496,25; 5200,746;  225,772;10842,744;46,85869
 496,84; 5199,847;  237,522;10866,273;46,68775
 497,42; 5199,365;  225,397;10794,326;47,06218
 498,01; 5196,792;  257,272;10750,074;47,07532
 498,59; 5132,957;  213,772;10720,458;46,81957
 499,18; 5113,707;  214,522;10721,060;46,62987
 499,76; 5114,790;  243,897;10561,471;47,20967
 500,35; 5059,911;  254,397;10284,128;47,91269
 500,93; 5003,145;  222,272;10301,703;47,43197
 501,52; 4979,663;  211,022;10264,857;47,43107
 502,10; 4989,291;  226,647;10190,757;47,79799
 502,69; 4930,782;  220,522;10058,411;47,87877
 503,27; 4841,874;  209,397; 9901,195;47,79791
 503,86; 4829,410;  224,022; 9832,838;47,92877
 504,44; 4743,366;  190,397; 9702,061;47,86722
 505,03; 4632,000;  194,147; 9504,981;47,66333
 505,61; 4579,895;  200,522; 9318,749;48,02878
 506,19; 4528,172;  228,647; 9159,324;48,14333
 506,78; 4429,776;  201,522; 8997,515;48,07023
 507,36; 4387,861;  207,897; 8863,132;48,29406
 507,95; 4326,840;  216,272; 8722,523;48,32409
 508,53; 4250,974;  217,522; 8611,619;48,05106
 509,12; 4173,680;  219,397; 8423,278;48,20015
 509,70; 4150,238;  226,647; 8262,917;48,82353
 510,29; 4043,514;  227,522; 8180,253;47,98342
 510,87; 3927,707;  206,272; 7971,278;47,92572
 511,46; 3913,472;  198,022; 7831,191;48,67506
 512,04; 3824,183;  205,897; 7737,468;48,04159
 512,62; 3777,381;  208,897; 7580,497;48,40854
 513,21; 3686,984;  191,647; 7387,126;48,57685
 513,79; 3620,050;  210,522; 7278,095;48,24185
 514,38; 3563,079;  189,147; 7087,272;48,91086
 514,96; 3545,031;  220,522; 7043,116;48,72793
 515,54; 3449,771;  201,022; 6896,957;48,51823
 516,13; 3412,470;  214,647; 6795,874;48,59008
 516,71; 3373,015;  197,397; 6687,613;48,92931
 517,30; 3306,787;  199,897; 6587,957;48,63590
 517,88; 3304,584;  221,522; 6530,549;48,86748
 518,46; 3190,604;  200,772; 6391,142;48,29812
 519,05; 3171,543;  225,522; 6363,149;47,99936
 519,63; 3163,494;  218,147; 6257,305;48,77083
 520,22; 3105,977;  214,397; 6196,362;48,33829
 520,80; 3074,141;  197,147; 6120,973;48,56649
 521,38; 3097,574;  218,522; 6153,464;48,51020
 521,97; 3027,581;  201,022; 6117,605;47,77350
 522,55; 3006,930;  211,647; 6121,469;47,29893
 523,13; 3021,446;  192,522; 6020,320;48,54189
 523,72; 2964,151;  214,897; 6033,234;47,25155
 524,30; 3087,199;  232,397; 6149,511;48,24654
 524,89; 3026,120;  195,147; 6163,590;47,43235
 525,47; 3117,180;  214,647; 6285,992;47,80707
 526,05; 3092,762;  175,897; 6322,954;47,45141
 526,64; 3173,265;  224,397; 6410,831;47,66668
 527,22; 3263,386;  216,272; 6524,016;48,30751
 527,80; 3278,411;  256,147; 6620,163;47,48989
 528,39; 3311,194;  205,022; 6788,480;47,18148
 528,97; 3433,839;  216,522; 6859,748;48,43005
 529,55; 3527,088;  222,147; 7126,161;47,86985
 530,14; 3579,779;  229,397; 7267,755;47,60175
 530,72; 3620,874;  194,147; 7368,554;47,76321
 531,30; 3694,443;  196,397; 7493,740;47,93589
 531,89; 3742,051;  219,147; 7539,900;48,12215
 532,47; 3783,984;  240,147; 7674,289;47,66975
 533,05; 3805,751;  230,647; 7700,857;47,85815
 533,63; 3813,343;  245,647; 7757,387;47,49493
 534,22; 3868,494;  218,147; 7806,773;48,10287
 534,80; 3880,332;  248,397; 7907,113;47,42224
 535,38; 3947,759;  303,022; 7932,487;47,77185
 535,97; 3888,411;  229,772; 7956,061;47,35312
 536,55; 3948,130;  282,147; 7985,644;47,58856
 537,13; 3885,589;  292,772; 7985,072;46,70667
 537,71; 3904,675;  336,147; 7975,837;46,71038
 538,30; 4000,561;  352,522; 8119,333;46,96959
 538,88; 3990,298;  391,272; 8198,945;46,09602
 539,46; 4084,806;  439,522; 8371,978;45,95404
 540,05; 4138,883;  457,647; 8444,521;46,09107
 540,63; 4221,693;  521,022; 8658,463;45,47709
 541,21; 4290,813;  558,147; 8831,483;45,11682
 541,79; 4364,671;  596,272; 8942,392;45,15151
 542,38; 4389,343;  622,522; 9147,536;44,18551
 542,96; 4465,292;  640,397; 9263,976;44,35392
 543,54; 4560,032;  639,147; 9417,543;44,66517
 544,12; 4592,521;  630,522; 9574,070;44,30008
 544,70; 4633,646;  600,272; 9665,019;44,49517
 545,29; 4728,261;  619,022; 9801,262;44,75204
 545,87; 4737,046;  575,022; 9797,392;45,12966
 546,45; 4698,515;  528,522; 9830,503;44,82909
 547,03; 4750,272;  515,522; 9946,184;44,90406
 547,62; 4802,435;  474,772;10033,117;45,27628
 548,20; 4878,136;  475,397;10228,285;45,14293
 548,78; 4897,855;  438,147;10270,568;45,35718
 549,36; 4939,113;  397,272;10480,300;45,04441
 549,94; 4997,514;  360,022;10580,963;45,37245
 550,53; 5081,331;  355,897;10846,171;45,04585
 551,11; 5141,582;  333,647;11001,559;45,06913
 551,69; 5322,793;  327,022;11297,062;45,54014
 552,27; 5332,785;  294,397;11540,693;44,80042
 552,85; 5446,547;  300,647;11862,377;44,50805
 553,44; 5585,375;  293,522;12109,211;44,78667
 554,02; 5753,032;  310,397;12456,339;44,81032
 554,60; 5836,113;  252,647;12791,999;44,52755
 555,18; 6045,845;  275,522;13097,834;45,00221
 555,76; 6163,291;  259,022;13473,135;44,68154
 556,34; 6336,540;  272,647;13851,720;44,65616
 556,93; 6425,557;  271,272;14189,412;44,21773
 557,51; 6561,342;  239,397;14432,116;44,54358
 558,09; 6688,281;  267,647;14891,651;43,90476
 558,67; 6845,604;  269,772;15151,602;44,18699
 559,25; 6960,154;  276,272;15408,872;44,16876
 559,83; 7095,719;  253,272;15731,317;44,20744
 560,41; 7231,478;  251,772;16096,964;44,04936
 561,00; 7318,371;  264,397;16313,192;43,95330
 561,58; 7403,266;  256,897;16642,261;43,61434
 562,16; 7530,233;  232,272;16970,944;43,59940
 562,74; 7611,308;  219,397;17295,225;43,28874
 563,32; 7839,060;  226,022;17690,636;43,59122
 563,90; 7933,863;  247,397;18046,647;43,18421
 564,48; 8059,666;  250,772;18352,459;43,13904
 565,06; 8263,957;  244,272;19030,457;42,68927
 565,65; 8539,639;  257,772;19649,931;42,70730
 566,23; 8835,772;  296,772;20409,203;42,45633
 566,81; 9064,119;  246,022;21092,441;42,30030
 567,39; 9401,630;  259,022;21889,937;42,26640
 567,97; 9625,461;  255,022;22446,323;42,22573
 568,55; 9942,615;  256,897;23302,524;42,02844
 569,13;10098,449;  237,772;23947,725;41,58877
 569,71;10541,573;  240,522;24890,263;41,78969
 570,29;10913,264;  278,147;25841,935;41,60227
 570,87;11193,964;  262,272;26545,541;41,59183
 571,45;11351,035;  282,022;27160,365;41,18190
 572,03;11471,765;  216,397;27557,046;41,16716
 572,61;11794,322;  226,397;28333,047;41,15725
 573,20;12007,661;  257,022;29018,229;40,85586
 573,78;12241,443;  241,147;29637,557;40,82232
 574,36;12367,748;  265,897;30028,506;40,66126
 574,94;12460,025;  303,522;30286,404;40,54481
 575,52;12496,343;  258,022;30612,102;40,31854
 576,10;12779,969;  314,897;31138,216;40,44040
 576,68;12800,489;  302,897;31741,660;39,75218
 577,26;13022,501;  332,647;32362,419;39,61894
 577,84;13210,110;  326,272;32904,470;39,54743
 578,42;13259,199;  362,397;33036,248;39,47133
 579,00;13247,827;  313,272;33133,227;39,41064
 579,58;13300,818;  358,772;33384,256;39,18806
 580,16;13241,308;  356,522;33424,096;38,96502
 580,74;13289,055;  328,022;33596,105;38,95936
 581,32;13225,759;  341,147;33667,377;38,66207
 581,90;13185,765;  354,272;33702,495;38,47729
 582,48;13198,942;  368,022;33812,517;38,36482
 583,06;13193,379;  350,772;33836,698;38,35225
 583,64;13158,508;  364,772;34085,439;37,94034
 584,22;13042,521;  372,772;33707,312;38,00787
 584,80;12892,751;  367,022;33433,770;37,88014
 585,38;12768,712;  380,397;33043,062;37,92806
 585,96;12660,436;  352,772;33161,825;37,51301
 586,54;12585,119;  390,022;33262,612;37,09807
 587,12;12539,681;  325,022;33365,919;36,96830
 587,70;12588,557;  363,272;33469,209;36,92777
 588,28;12573,521;  344,397;33545,488;36,83350
 588,86;12627,717;  352,772;33682,663;36,82864
 589,44;12520,479;  338,897;33475,223;36,76202
 590,02;12517,055;  333,147;33925,379;36,27002
 590,59;12499,201;  311,897;33953,761;36,22660
 591,17;12551,116;  309,022;34012,657;36,32277
 591,75;12531,236;  311,147;34122,029;36,14248
 592,33;12573,527;  313,522;34431,004;35,93467
 592,91;12636,084;  264,647;34631,779;35,99788
 593,49;12652,864;  285,272;34887,980;35,74169
 594,07;12743,946;  297,147;35075,878;35,78854
 594,65;12655,016;  306,772;35171,257;35,41783
 595,23;12797,744;  290,272;35482,937;35,54000
 595,81;12681,142;  283,147;35539,020;35,16576
 596,39;12685,371;  290,522;35660,563;35,04336
 596,97;12682,317;  297,772;35817,063;34,86709
 597,55;12555,665;  278,772;35837,591;34,52559
 598,12;12513,637;  275,397;35799,938;34,45010
 598,70;12495,870;  260,772;35921,773;34,30946
 599,28;12486,521;  280,272;36114,784;34,06283
 599,86;12443,534;  279,647;36164,821;33,89669
 600,44;12405,592;  244,522;36156,710;33,86335
 601,02;12391,256;  289,147;36314,219;33,59357
 601,60;12233,405;  270,522;36241,755;33,25680
 602,18;12130,034;  248,397;36225,395;33,02565
 602,75;12130,021;  255,022;36471,511;32,78893
 603,33;12071,288;  276,397;36335,750;32,70966
 603,91;11966,796;  260,647;36327,130;32,45714
 604,49;11890,241;  280,272;36430,407;32,11598
 605,07;11826,577;  293,647;36437,598;31,90833
 605,65;11825,149;  300,897;36562,661;31,78073
 606,23;11832,385;  374,147;36694,890;31,54737
 606,80;11744,879;  405,897;36787,545;31,16676
 607,38;11644,420;  458,897;36720,692;30,84658
 607,96;11630,586;  511,772;36871,319;30,58018
 608,54;11662,756;  572,022;36834,195;30,58486
 609,12;11541,155;  581,772;37009,306;30,08544
 609,70;11515,714;  623,272;37029,583;29,91910
 610,27;11435,305;  618,147;37100,129;29,65069
 610,85;11382,378;  639,647;37235,255;29,35525
 611,43;11330,236;  642,022;37129,228;29,29305
 612,01;11176,404;  613,272;36936,317;29,08107
 612,59;11081,956;  610,522;36942,288;28,82170
 613,16;10955,538;  576,022;36896,027;28,57796
 613,74;10833,064;  548,397;36754,511;28,40589
 614,32;10802,201;  496,647;36644,558;28,50940
 614,90;10767,613;  465,147;36620,467;28,49502
 615,48;10552,673;  391,897;36263,636;28,32530
 616,05;10422,973;  373,147;36255,281;28,00788
 616,63;10309,272;  373,522;36024,051;27,86985
 617,21;10221,421;  372,522;35958,458;27,67638
 617,79;10143,531;  334,522;35933,120;27,55448
 618,36;10060,935;  357,522;35836,882;27,34946
 618,94; 9866,196;  293,397;35420,906;27,25157
 619,52; 9707,579;  325,522;35266,002;26,85154
 620,10; 9659,573;  308,022;35226,408;26,78117
 620,67; 9599,923;  298,897;35064,687;26,75339
 621,25; 9493,271;  319,647;34899,335;26,52894
 621,83; 9377,579;  294,397;35016,451;26,15969
 622,41; 9379,993;  333,022;34899,873;26,17239
 622,98; 9202,479;  330,147;34671,574;25,83565
 623,56; 9096,530;  315,147;34730,033;25,51623
 624,14; 9029,713;  284,272;34555,895;25,51802
 624,72; 8930,295;  298,647;34526,145;25,21846
 625,29; 8860,056;  276,647;34545,294;25,04741
 625,87; 8839,423;  316,272;34585,335;24,87127
 626,45; 8712,520;  292,147;34435,799;24,66161
 627,02; 8597,911;  284,647;34243,049;24,48073
 627,60; 8578,923;  271,147;34287,234;24,42308
 628,18; 8499,780;  273,022;34316,806;24,16523
 628,76; 8416,475;  274,272;34302,959;23,92747
 629,33; 8383,189;  300,147;34292,413;23,77906
 629,91; 8302,948;  280,397;34270,533;23,60259
 630,49; 8263,930;  299,147;34520,929;23,27401
 631,06; 8222,605;  295,022;34643,763;23,07969
 631,64; 8164,391;  294,897;34409,183;23,06803
 632,22; 8088,142;  253,272;34468,672;22,89867
 632,79; 8107,918;  268,022;34699,058;22,76985
 633,37; 8007,456;  253,772;34782,589;22,45569
 633,95; 7992,209;  259,897;34808,732;22,38082
 634,52; 7961,751;  250,897;34897,794;22,25554
 635,10; 7931,292;  235,397;34998,842;22,13790
 635,68; 7906,401;  259,772;35268,468;21,84209
 636,25; 7861,349;  243,272;35113,872;21,84671
 636,83; 7814,225;  223,022;35356,084;21,60701
 637,41; 7804,516;  239,272;35473,234;21,47146
 637,98; 7833,412;  259,272;35600,066;21,43172
 638,56; 7748,787;  255,272;35582,241;21,21188
 639,13; 7762,651;  244,772;35677,542;21,21731
 639,71; 7783,524;  272,772;35782,364;21,15133
 640,29; 7577,530;  216,147;35514,146;20,85496
 640,86; 7588,830;  225,147;35762,659;20,72087
 641,44; 7467,755;  232,647;35893,298;20,28877
 642,02; 7451,806;  251,272;35770,061;20,27246
 642,59; 7368,856;  236,147;36006,950;19,94003
 643,17; 7356,907;  230,147;35927,713;19,96427
 643,74; 7314,457;  228,647;36038,727;19,78719
 644,32; 7202,508;  260,522;35847,490;19,50710
 644,89; 7191,808;  252,397;35941,629;19,44399
 645,47; 7167,983;  261,522;35917,017;19,36998
 646,05; 7069,034;  239,397;35847,531;19,17999
 646,62; 6998,459;  240,147;35860,294;18,97329
 647,20; 6971,760;  247,897;36040,308;18,78572
 647,77; 6883,310;  214,647;35958,946;18,65658
 648,35; 6821,360;  220,147;35814,335;18,54576
 648,92; 6767,786;  261,147;35895,598;18,25941
 649,50; 6716,586;  212,147;35688,237;18,33471
 650,08; 6658,512;  221,522;35800,250;18,09224
 650,65; 6638,687;  234,772;36064,139;17,87337
 651,23; 6668,862;  208,272;36778,152;17,66642
 651,80; 6724,538;  217,272;37741,541;17,34149
 652,38; 6785,838;  228,522;38047,054;17,33890
 652,95; 6801,889;  210,147;38373,818;17,27229
 653,53; 6823,939;  236,897;38514,331;17,20868
 654,10; 6804,114;  251,647;38729,595;17,02915
 654,68; 6733,415;  216,397;38578,859;16,98801
 655,25; 6687,465;  218,522;38749,247;16,78905
 655,83; 6688,391;  210,272;38847,136;16,76668
 656,40; 6641,691;  231,647;38786,899;16,62561
 656,98; 6569,241;  228,897;38750,788;16,45907
 657,55; 6490,042;  232,022;38653,926;16,28764
 658,13; 6421,217;  209,897;38220,815;16,34089
 658,70; 6331,518;  224,647;37960,078;16,18339
 659,28; 6156,693;  225,772;36934,717;16,15661
 659,85; 5972,118;  218,397;36199,605;15,99091
 660,43; 5897,919;  228,772;36351,494;15,69413
 661,00; 5856,094;  231,772;36462,882;15,52346
 661,58; 5865,520;  211,522;36799,646;15,45310
 662,15; 5800,570;  204,522;36918,159;15,24242
 662,73; 5881,746;  267,397;37316,298;15,15389
 663,30; 5853,796;  227,897;37331,436;15,16270
 663,88; 5836,471;  222,647;37651,075;14,99883
 664,45; 5763,272;  215,272;37843,213;14,74436
 665,03; 5779,947;  229,522;38313,852;14,57404
 665,60; 5923,123;  277,397;38581,365;14,73927
 666,17; 5791,548;  220,647;38735,504;14,46429
 666,75; 5826,723;  233,397;39104,767;14,38932
 667,32; 5855,524;  247,022;39437,031;14,31105
 667,90; 5801,324;  228,897;39616,669;14,14761
 668,47; 5854,125;  251,147;39899,558;14,13166
 669,05; 5803,925;  221,522;40225,571;13,95460
 669,62; 5816,475;  202,397;40229,835;14,02558
 670,19; 5771,151;  209,522;40441,848;13,82378
 670,77; 5786,576;  217,272;40496,237;13,82683
 671,34; 5735,127;  211,522;40562,375;13,68894
 671,92; 5723,052;  205,272;40899,639;13,55908
 672,49; 5712,602;  234,522;40792,902;13,50666
 673,06; 5678,153;  184,897;40920,291;13,48522
 673,64; 5572,953;  203,272;40888,054;13,19826
 674,21; 5585,504;  201,897;40777,443;13,26811
 674,79; 5577,554;  220,522;41113,831;13,10002
 675,36; 5542,354;  229,647;41100,845;12,99866
 675,93; 5471,530;  208,147;41046,483;12,88834
 676,51; 5491,705;  219,897;41191,872;12,86686
 677,08; 5449,631;  222,147;41243,885;12,74320
 677,65; 5409,806;  214,647;41410,149;12,61099
 678,23; 5392,856;  234,772;41534,037;12,48953
 678,80; 5355,032;  214,147;41712,301;12,38823
 679,38; 5316,582;  218,647;41881,689;12,23611
 679,95; 5341,508;  212,897;42105,453;12,24230
 680,52; 5283,683;  215,772;42445,716;12,00075
 681,10; 5343,358;  224,522;42805,105;12,02153
 681,67; 5362,909;  229,272;43003,868;12,00160
 682,24; 5305,959;  202,522;43020,757;11,91884
 682,82; 5340,135;  210,397;43593,645;11,82424
 683,39; 5368,310;  251,522;43870,284;11,73070
 683,96; 5332,611;  221,647;44287,672;11,59842
 684,54; 5291,411;  202,272;44636,686;11,45315
 685,11; 5310,586;  235,522;44930,074;11,35500
 685,68; 5353,137;  217,397;45240,838;11,40681
 686,25; 5267,562;  203,022;45370,851;11,21272
 686,83; 5307,863;  206,397;45587,240;11,24145
 687,40; 5301,663;  195,147;45944,253;11,16200
 687,97; 5360,463;  238,397;46215,767;11,14041
 688,55; 5271,389;  204,772;46199,280;11,01570
 689,12; 5257,814;  183,897;46496,794;10,95573
 689,69; 5263,490;  207,522;46643,807;10,88797
 690,26; 5272,540;  206,522;46709,446;10,89398
 690,84; 5198,715;  217,897;46768,459;10,69980
 691,41; 5246,516;  222,272;46807,473;10,78506
 691,98; 5277,691;  224,272;47205,861;10,75617
 692,56; 5209,117;  205,397;47227,000;10,64132
 693,13; 5222,917;  268,147;47281,013;10,53918
 693,70; 5228,092;  230,897;47426,777;10,58820
 694,27; 5210,768;  202,897;47620,040;10,56131
 694,84; 5152,443;  198,772;47566,179;10,45797
 695,42; 5192,994;  252,397;47824,692;10,38545
 695,99; 5165,669;  222,022;48003,331;10,34640
 696,56; 5114,969;  203,897;47896,344;10,29738
 697,13; 5166,645;  226,647;48260,233;10,28447
 697,71; 5108,695;  188,272;48192,496;10,24998
 698,28; 5128,246;  212,522;48604,385;10,15816
 698,85; 5091,421;  189,272;48724,898;10,10010
 699,42; 5061,346;  196,647;49057,162; 9,95630
 699,99; 5104,647;  221,272;48942,425;10,02311
 700,57; 5084,322;  228,147;49058,189; 9,94506
 701,14; 5030,248;  218,647;49041,827; 9,85516
 701,71; 5097,673;  230,772;49332,091; 9,91196
 702,28; 5054,349;  211,897;49441,854; 9,83639
 702,85; 5027,524;  219,522;49482,743; 9,75982
 703,43; 5084,824;  229,772;49606,006; 9,83277
 704,00; 5065,000;  240,022;49743,270; 9,74679
 704,57; 4994,175;  236,272;49847,283; 9,59042
 705,14; 5027,726;  257,772;50073,422; 9,57521
 705,71; 5012,026;  262,897;50113,935; 9,52664
 706,28; 4943,326;  226,897;49903,574; 9,49425
 706,86; 4969,377;  263,022;50261,712; 9,41296
 707,43; 5003,052;  270,647;50155,101; 9,48673
 708,00; 4979,478;  241,772;50244,364; 9,47492
 708,57; 4904,778;  227,397;50043,503; 9,38929
 709,14; 4896,453;  251,147;50339,891; 9,27415
 709,71; 4928,129;  239,772;50516,280; 9,32514
 710,28; 4932,304;  230,522;50682,418; 9,31934
 710,86; 4885,855;  244,647;50780,557; 9,18398
 711,43; 4965,905;  257,897;50797,195; 9,31554
 712,00; 4884,830;  232,647;50808,209; 9,19848
 712,57; 4955,881;  233,272;50921,847; 9,31691
 713,14; 4953,681;  238,647;51114,361; 9,26775
 713,71; 4960,232;  237,522;51083,749; 9,28822
 714,28; 4903,157;  234,522;51161,763; 9,16727
 714,85; 4845,957;  210,772;50769,776; 9,16787
 715,42; 4895,258;  233,147;51107,290; 9,16401
 716,00; 4964,183;  258,022;51180,053; 9,24190
 716,57; 4923,234;  213,897;51316,817; 9,21540
 717,14; 4881,284;  215,522;51209,455; 9,14964
 717,71; 4868,584;  198,772;51251,844; 9,14698
 718,28; 4971,260;  238,397;51250,857; 9,27786
 718,85; 4878,685;  216,897;51271,246; 9,13103
 719,42; 4910,736;  232,522;51434,509; 9,13678
 719,99; 4899,661;  217,022;51234,898; 9,17843
 720,56; 4901,836;  220,897;51531,286; 9,12279
 721,13; 4859,137;  228,647;51663,800; 9,00258
 721,70; 4861,687;  213,772;51482,313; 9,06582
 722,27; 4853,988;  233,772;51595,702; 8,99541
 722,84; 4951,913;  266,647;51653,465; 9,11764
 723,41; 4837,339;  204,772;51662,979; 9,00258
 723,98; 4907,014;  233,897;52106,742; 9,00879
 724,55; 4907,314;  243,647;52190,131; 8,97783
 725,12; 4817,365;  182,397;51986,644; 8,94708
 725,69; 4876,665;  213,272;52148,283; 8,97929
 726,27; 4921,591;  208,897;52227,921; 9,05956
 726,84; 4937,016;  226,522;52581,060; 8,99730
 727,41; 4934,816;  226,897;52513,573; 9,00405
 727,98; 4927,117;  237,147;52776,962; 8,92651
 728,55; 4986,417;  249,522;52741,475; 9,02404
 729,12; 4919,718;  207,397;52832,489; 8,95451
 729,69; 4990,018;  234,647;52967,127; 9,01792
 730,26; 5018,443;  242,022;53259,516; 9,00914
 730,82; 4956,619;  230,272;53081,279; 8,94278
 731,39; 4945,794;  214,647;53148,793; 8,93780
 731,96; 5008,345;  209,772;53419,681; 9,01819
 732,53; 5034,895;  236,147;53732,820; 8,97018
 733,10; 5021,445;  240,272;53695,583; 8,94424
 733,67; 5036,996;  228,897;54010,347; 8,94007
 734,24; 5036,171;  218,272;53605,235; 9,02449
 734,81; 5049,847;  243,647;53703,499; 8,99030
 735,38; 5068,522;  214,022;53489,012; 9,11216
 735,95; 5088,447;  217,272;53521,526; 9,13844
 736,52; 5072,373;  252,147;53455,165; 9,06006
 737,09; 5060,798;  236,772;53278,053; 9,09485
 737,66; 5111,974;  277,897;53295,317; 9,11790
 738,23; 5093,649;  228,647;53394,705; 9,15058
 738,80; 5222,824;  278,272;53729,969; 9,25051
 739,37; 5155,750;  243,897;53924,107; 9,15021
 739,94; 5170,300;  237,647;53914,996; 9,18945
 740,51; 5280,976;  295,772;53858,509; 9,30722
 741,07; 5185,901;  224,022;53870,148; 9,24928
 741,64; 5209,202;  271,772;53969,161; 9,19492
 742,21; 5221,002;  242,022;54225,675; 9,22313
 742,78; 5235,677;  206,272;53975,063; 9,35376
 743,35; 5236,353;  229,647;54147,077; 9,28588
 743,92; 5320,778;  259,522;54364,215; 9,35456
 744,49; 5263,954;  236,022;54183,979; 9,31997
 745,06; 5233,629;  226,147;54292,617; 9,26171
 745,63; 5217,804;  221,397;54261,631; 9,24572
 746,19; 5299,105;  217,647;54202,519; 9,41274
 746,76; 5289,280;  224,897;54273,033; 9,37014
 747,33; 5298,456;  225,397;54181,546; 9,40219
 747,90; 5395,631;  242,647;54513,560; 9,49493
 748,47; 5359,681;  240,272;54464,948; 9,44111
 749,04; 5349,732;  233,772;54465,587; 9,43350
 749,61; 5385,532;  255,522;54474,725; 9,46161
 750,17; 5388,833;  259,147;54307,239; 9,49097
 750,74; 5421,133;  248,522;54279,002; 9,57351
 751,31; 5367,183;  226,522;54254,391; 9,51483
 751,88; 5427,984;  203,772;54062,029; 9,69993
 752,45; 5434,409;  226,272;54285,043; 9,63421
 753,02; 5466,960;  228,272;54189,806; 9,70819
 753,58; 5444,760;  220,897;54072,570; 9,70047
 754,15; 5469,060;  229,897;54223,208; 9,70336
 754,72; 5467,236;  229,272;53944,972; 9,75127
 755,29; 5473,036;  210,522;53821,985; 9,81602
 755,86; 5486,212;  230,147;53900,249; 9,79328
 756,42; 5563,637;  240,522;53797,637; 9,93914
 756,99; 5529,437;  209,772;53792,526; 9,92794
 757,56; 5556,738;  211,272;53686,414; 9,99617
 758,13; 5529,038;  187,897;53695,803; 9,98197
 758,70; 5605,714;  207,147;53748,441;10,08300
 759,26; 5585,264;  206,772;53792,080;10,03725
 759,83; 5646,564;  198,272;53889,093;10,14753
 760,40; 5637,240;  207,522;53871,982;10,11790
 760,97; 5647,915;  198,397;53763,120;10,17371
 761,53; 5657,591;  171,647;53439,509;10,29879
 762,10; 5675,266;  185,897;53530,897;10,29032
 762,67; 5650,067;  208,397;53401,036;10,23012
 763,24; 5645,867;  172,022;53032,674;10,35524
 763,80; 5707,167;  209,522;53183,188;10,37807
 764,37; 5725,468;  208,147;53113,076;10,42875
 764,94; 5693,643;  197,772;52506,590;10,50659
 765,50; 5725,694;  185,272;52608,228;10,56869
 766,07; 5838,244;  234,147;52650,367;10,69153
 766,64; 5717,419;  200,897;52395,755;10,56909
 767,21; 5773,845;  212,022;52256,019;10,68677
 767,77; 5798,645;  230,897;52181,782;10,71733
 768,34; 5781,571;  224,022;52141,921;10,70449
 768,91; 5790,871;  210,272;51932,059;10,78965
 769,47; 5802,921;  220,522;51984,448;10,78434
 770,04; 5843,097;  217,647;51950,836;10,87397
 770,61; 5856,022;  209,397;51690,850;10,96827
 771,18; 5846,448;  197,397;51606,863;10,98835
 771,74; 5932,748;  213,772;51713,627;11,10484
 772,31; 5906,048;  225,147;51493,515;11,08071
 772,88; 5854,599;  201,647;51172,029;11,09066
 773,44; 5865,774;  205,897;51201,792;11,09869
 774,01; 5916,450;  219,397;51241,431;11,16587
 774,58; 5914,750;  199,647;50952,944;11,26056
 775,14; 5976,175;  216,522;51019,708;11,33719
 775,71; 5960,851;  206,647;51055,221;11,31635
 776,27; 6054,276;  244,397;50806,110;11,49067
 776,84; 6106,327;  262,522;50818,623;11,55905
 777,41; 6029,502;  213,772;50713,512;11,51636
 777,97; 6002,802;  216,022;50489,650;11,51057
 778,54; 6060,603;  217,272;50523,664;11,61548
 779,11; 6118,403;  247,897;50472,302;11,68855
 779,67; 6068,829;  202,272;50453,691;11,67441
 780,24; 6114,129;  224,522;50230,329;11,77785
 780,80; 6115,430;  244,397;50167,843;11,76007
 781,37; 6149,605;  223,522;50194,481;11,85905
 781,94; 6189,155;  219,647;49885,620;12,01931
 782,50; 6194,956;  226,147;50009,133;11,98966
 783,07; 6232,881;  251,397;49965,772;12,03170
 783,63; 6231,557;  207,647;49726,410;12,16490
 784,20; 6263,482;  240,147;49531,549;12,21985
 784,77; 6197,657;  224,772;49460,187;12,13128
 785,33; 6220,583;  206,772;49220,451;12,26966
 785,90; 6269,258;  216,897;49166,464;12,36448
 786,46; 6313,684;  241,272;49074,228;12,43507
 787,03; 6306,234;  201,522;48952,741;12,52217
 787,59; 6355,534;  226,647;48939,255;12,58173
 788,16; 6338,335;  244,772;48804,893;12,54849
 788,73; 6352,010;  242,022;48709,782;12,60629
 789,29; 6353,936;  216,772;48409,545;12,73461
 789,86; 6444,986;  232,147;48263,934;12,93485
 790,42; 6409,911;  232,897;48145,447;12,89227
 790,99; 6412,712;  232,522;47797,961;12,99303
 791,55; 6398,387;  231,147;47829,474;12,95684
 792,12; 6387,063;  239,772;47676,488;12,95893
 792,68; 6400,613;  225,272;47379,876;13,09595
 793,25; 6420,163;  241,272;47168,765;13,16689
 793,81; 6505,964;  259,772;46823,778;13,41421
 794,38; 6349,014;  201,147;46585,042;13,25431
 794,94; 6410,315;  213,522;46600,305;13,35896
 795,51; 6372,615;  236,897;46268,819;13,32927
 796,07; 6416,040;  233,272;46125,332;13,47241
 796,64; 6450,466;  245,522;46230,471;13,49342
 797,20; 6402,766;  230,897;45686,234;13,57788
 797,77; 6344,067;  210,397;45411,873;13,56962
 798,33; 6392,617;  216,772;45246,511;13,71504
 798,90; 6413,167;  250,522;45131,650;13,73104
 799,46; 6376,093;  217,772;44524,663;13,89924
 800,03; 6378,018;  219,522;44510,427;13,90465
 800,59; 6412,194;  247,772;44254,815;14,00781
 801,15; 6411,369;  238,022;44210,954;14,03897
 801,72; 6391,045;  233,397;43915,717;14,09643
 802,28; 6406,345;  264,897;43571,481;14,18133
 802,85; 6403,145;  220,647;43485,119;14,29001
 803,41; 6420,571;  223,772;43268,883;14,39606
 803,98; 6368,496;  224,022;42834,521;14,42009
 804,54; 6404,297;  225,397;42568,535;14,59245
 805,11; 6375,597;  228,772;42457,173;14,55614
 805,67; 6392,022;  258,897;42340,562;14,57434
 806,23; 6300,948;  235,272;41845,075;14,57752
 806,80; 6340,498;  250,897;41867,714;14,63255
 807,36; 6368,799;  253,522;41886,852;14,68842
 807,93; 6382,099;  270,897;41501,366;14,82205
 808,49; 6347,274;  216,397;41202,879;14,95829
 809,05; 6340,700;  210,522;41011,518;15,02458
 809,62; 6377,750;  237,272;40925,281;15,09162
 810,18; 6377,676;  247,647;40927,670;15,06889
 810,74; 6341,101;  214,272;40519,433;15,20110
 811,31; 6318,901;  206,647;40336,572;15,23116
 811,87; 6385,577;  221,897;40158,460;15,43368
 812,44; 6421,002;  261,272;40159,849;15,43847
 813,00; 6404,428;  200,272;40017,862;15,58144
 813,56; 6425,228;  244,522;40061,251;15,52289
 814,13; 6426,528;  228,647;39922,014;15,61440
 814,69; 6400,704;  232,897;39745,903;15,60956
 815,25; 6432,129;  199,647;39333,666;15,92600
 815,82; 6445,930;  239,897;39241,680;15,91218
 816,38; 6514,855;  245,147;39051,069;16,15658
 816,94; 6345,655;  212,522;38692,207;15,93863
 817,51; 6424,081;  215,772;38643,596;16,15577
 818,07; 6449,631;  213,897;38369,859;16,34275
 818,63; 6395,557;  241,397;38202,873;16,21159
 819,20; 6408,607;  233,147;38011,636;16,34650
 819,76; 6379,533;  204,397;37698,900;16,46944
 820,32; 6467,458;  257,147;37606,913;16,62744
 820,89; 6418,383;  246,522;37287,802;16,66212
 821,45; 6384,309;  225,272;37154,065;16,67814
 822,01; 6384,609;  234,647;36927,079;16,76085
 822,57; 6374,910;  237,022;36755,467;16,80764
 823,14; 6317,960;  208,272;36555,856;16,80906
 823,70; 6324,760;  215,647;36270,994;16,94371
 824,26; 6334,561;  218,022;36184,508;17,00622
 824,82; 6330,861;  232,272;35971,396;17,06418
 825,39; 6295,537;  228,147;35791,285;17,06090
 825,95; 6343,712;  241,147;35835,048;17,14497
 826,51; 6260,387;  227,897;35500,687;17,10239
 827,08; 6384,188;  272,397;35594,575;17,30298
 827,64; 6314,113;  236,647;35309,964;17,32789
 828,20; 6317,414;  220,272;35049,227;17,50596
 828,76; 6393,714;  243,772;34963,741;17,71298
 829,32; 6371,889;  242,647;34835,879;17,71804
 829,89; 6347,565;  212,647;34741,518;17,76750
 830,45; 6336,990;  229,022;34673,156;17,73297
 831,01; 6401,416;  212,147;34502,295;18,04970
 831,57; 6405,591;  232,897;34402,683;18,06477
 832,14; 6394,766;  217,272;34294,697;18,12782
 832,70; 6360,817;  219,522;34085,460;18,13414
 833,26; 6348,492;  197,647;33985,849;18,20412
 833,82; 6378,793;  213,397;33944,612;18,27801
 834,38; 6417,468;  222,022;34042,126;18,31883
 834,95; 6428,893;  208,522;33847,889;18,49135
 835,51; 6438,569;  194,522;33723,028;18,62310
 836,07; 6518,869;  228,772;33794,666;18,73955
 836,63; 6525,170;  235,772;33762,305;18,75946
 837,19; 6496,720;  225,522;33579,818;18,80177
 837,75; 6505,895;  207,272;33234,832;19,07081
 838,32; 6575,571;  253,397;33500,845;19,01552
 838,88; 6611,246;  241,647;33440,109;19,18643
 839,44; 6579,922;  227,022;33300,122;19,20866
 840,00; 6570,222;  233,772;33201,261;19,22030
 840,56; 6602,148;  202,147;33049,399;19,48413
 841,12; 6582,198;  205,397;32961,038;19,46780
 841,68; 6573,748;  202,272;32802,801;19,54409
 842,25; 6628,924;  214,397;32811,690;19,67810
 842,81; 6606,599;  202,272;32559,828;19,79237
 843,37; 6631,400;  197,772;32580,842;19,86726
 843,93; 6671,950;  212,272;32547,855;19,97700
 844,49; 6710,500;  221,522;32594,494;20,04443
 845,05; 6679,926;  190,397;32289,132;20,21740
 845,61; 6752,476;  229,022;32463,146;20,23773
 846,17; 6732,402;  221,647;32359,409;20,25889
 846,73; 6755,827;  235,522;32193,423;20,40280
 847,29; 6727,377;  194,147;32062,311;20,50081
 847,86; 6763,053;  196,647;32006,200;20,64287
 848,42; 6736,978;  200,022;31846,338;20,65629
 848,98; 6798,654;  213,522;31706,727;20,90969
 849,54; 6815,329;  206,272;31832,115;20,89765
 850,10; 6858,254;  223,022;31711,004;21,07227
 850,66; 6802,430;  193,647;31528,142;21,09108
 851,22; 6802,855;  202,647;31387,156;21,16502
 851,78; 6802,156;  245,772;31456,419;21,00688
 852,34; 6798,331;  216,647;31208,308;21,23695
 852,90; 6795,631;  215,272;31164,196;21,26200
 853,46; 6763,307;  202,397;30932,335;21,35022
 854,02; 6817,357;  213,522;31022,223;21,43497
 854,58; 6783,658;  218,522;30742,737;21,50796
 855,14; 6795,583;  200,397;30736,000;21,59835
 855,70; 6715,383;  180,022;30510,014;21,54752
 856,26; 6790,059;  229,147;30392,902;21,75098
 856,82; 6799,734;  201,772;30308,666;21,91512
 857,38; 6849,660;  227,897;30256,054;22,05185
 857,94; 6774,710;  208,022;30182,318;21,90773
 858,50; 6828,636;  222,397;30008,956;22,17859
 859,06; 6744,936;  217,147;29734,345;22,11521
 859,62; 6844,986;  221,397;29691,483;22,47564
 860,18; 6750,287;  219,022;29606,372;22,22475
 860,74; 6793,087;  183,522;29445,760;22,58735
 861,30; 6753,263;  185,897;29227,774;22,61343
 861,86; 6872,313;  228,397;29317,287;22,84005
 862,42; 6753,863;  208,522;29164,551;22,60442
 862,98; 6855,664;  234,147;29081,064;22,95398
 863,54; 6747,464;  227,397;28914,203;22,72845
 864,10; 6771,390;  216,022;28889,341;22,86226
 864,66; 6748,190;  185,272;28739,855;22,98376
 865,22; 6783,615;  215,397;28594,993;23,14416
 865,78; 6786,541;  221,147;28450,382;23,25743
 866,34; 6780,966;  208,147;28415,645;23,30167
 866,90; 6793,517;  221,772;28277,784;23,42366
 867,45; 6769,817;  233,772;27989,172;23,54873
 868,01; 6773,617;  223,272;27879,061;23,68526
 868,57; 6758,793;  231,397;27725,449;23,74112
 869,13; 6760,843;  204,647;27746,463;23,80452
 869,69; 6734,019;  197,897;27460,851;23,97437
 870,25; 6782,694;  202,397;27389,240;24,20398
 870,81; 6775,994;  208,647;27389,878;24,16133
 871,37; 6825,420;  219,272;27306,892;24,38807
 871,93; 6784,970;  230,647;27169,530;24,33035
 872,49; 6822,896;  233,897;26892,294;24,71641
 873,04; 6723,196;  200,897;26664,557;24,64625
 873,60; 6776,121;  191,522;26735,696;24,80620
 874,16; 6731,672;  226,897;26601,834;24,66271
 874,72; 6764,422;  212,272;26468,459;24,95469
 875,28; 6785,047;  227,022;26342,209;25,11192
 875,84; 6788,297;  217,272;26326,084;25,16784
 876,40; 6700,422;  215,022;26211,959;24,94678
 876,95; 6761,922;  219,897;26214,209;25,16714
 877,51; 6828,547;  232,522;26216,209;25,38525
 878,07; 6848,797;  251,147;26187,959;25,43740
 878,63; 6907,922;  213,897;26115,209;25,84435
 879,19; 6906,047;  228,897;26323,209;25,58853
 879,75; 6889,172;  222,897;26282,459;25,58092
 880,30; 6980,797;  211,897;26304,834;25,94150
 880,86; 7024,672;  252,147;26477,834;25,82401
 881,42; 7000,422;  196,647;26447,459;25,91834
 881,98; 7029,047;  228,397;26470,959;25,91458
 882,54; 7141,047;  207,022;26702,959;26,17014
 883,09; 7202,797;  214,272;26697,834;26,38816
 883,65; 7179,797;  195,647;26812,209;26,23986
 884,21; 7322,922;  240,772;26956,459;26,50933
 884,77; 7316,297;  205,272;26994,834;26,54401
 885,32; 7405,172;  215,897;27151,834;26,69027
 885,88; 7437,297;  253,147;27413,334;26,45103
 886,44; 7541,172;  232,522;27429,209;26,87331
 887,00; 7509,172;  234,397;27392,834;26,78643
 887,56; 7518,922;  223,272;27562,709;26,68544
 888,11; 7595,922;  217,647;27461,959;27,08189
 888,67; 7652,547;  244,772;27707,459;26,97396
 889,23; 7721,172;  242,897;27733,709;27,20282
 889,79; 7682,797;  215,272;27678,084;27,19141
 890,34; 7731,172;  223,147;27513,959;27,51118
 890,90; 7855,547;  268,772;27625,209;27,73305
 891,46; 7791,047;  214,147;27675,459;27,59118
 892,01; 7820,672;  251,022;27653,709;27,62375
 892,57; 7794,922;  245,022;27529,834;27,67071
 893,13; 7791,422;  212,522;27317,584;27,96120
 893,69; 7752,547;  214,272;27253,209;27,87933
 894,24; 7770,797;  228,022;27190,334;27,97525
 894,80; 7779,422;  235,897;27069,834;28,11188
 895,36; 7806,922;  230,397;26973,834;28,33041
 895,91; 7734,047;  228,272;26729,959;28,32188
 896,47; 7744,922;  222,272;26672,209;28,44109
 897,03; 7740,297;  210,772;26426,959;28,72090
 897,58; 7703,172;  235,022;26363,084;28,58287
 898,14; 7685,172;  228,647;26120,084;28,79919
 898,70; 7676,922;  195,272;25985,334;29,00982
 899,25; 7702,297;  220,522;26025,959;28,99302
 899,81; 7661,172;  230,647;25833,584;29,02216
 900,37; 7614,547;  196,647;25623,959;29,17296
 900,92; 7670,172;  218,897;25642,084;29,30897
 901,48; 7641,547;  210,897;25443,459;29,44865
 902,03; 7597,672;  217,647;25365,084;29,34703
 902,59; 7651,672;  214,647;25122,709;29,85790
 903,15; 7621,422;  233,147;25071,959;29,74488
 903,70; 7589,547;  226,647;24830,084;29,92631
 904,26; 7585,297;  196,147;24751,709;30,09155
 904,82; 7576,922;  224,772;24692,334;30,04856
 905,37; 7618,172;  218,647;24568,584;30,38827
 905,93; 7575,172;  206,022;24431,209;30,41937
 906,48; 7622,672;  219,272;24324,709;30,71257
 907,04; 7605,797;  234,897;24439,209;30,45284
 907,60; 7523,172;  215,647;24090,584;30,60751
 908,15; 7536,047;  203,272;23895,334;30,95034
 908,71; 7578,797;  236,147;24052,084;30,83082
 909,26; 7528,422;  211,147;23831,584;30,97858
 909,82; 7506,922;  240,272;23757,584;30,89915
 910,37; 7493,797;  258,897;23672,334;30,90063
 910,93; 7453,172;  204,522;23450,334;31,18261
 911,48; 7426,172;  205,772;23314,084;31,24590
 912,04; 7378,297;  211,272;23190,709;31,18886
 912,60; 7435,172;  232,897;23184,584;31,38015
 913,15; 7434,922;  219,647;23045,334;31,61033
 913,71; 7378,422;  218,022;22883,834;31,59119
 914,26; 7390,922;  201,772;22870,334;31,71419
 914,82; 7400,797;  217,022;22759,584;31,86761
 915,37; 7377,422;  205,522;22601,459;32,02322
 915,93; 7410,922;  247,772;22519,959;32,16186
 916,48; 7349,422;  203,272;22453,209;32,11762
 917,04; 7360,297;  235,397;22319,334;32,26282
 917,59; 7344,172;  244,772;22180,459;32,36461
 918,15; 7320,672;  198,397;22052,959;32,58942
 918,70; 7254,297;  214,772;21989,584;32,32875
 919,26; 7339,422;  222,272;21880,584;32,86106
 919,81; 7241,797;  208,397;21695,584;32,73299
 920,37; 7272,672;  211,772;21550,334;33,08986
 920,92; 7269,047;  233,022;21502,584;33,08025
 921,48; 7228,047;  200,022;21338,459;33,24761
 922,03; 7198,672;  203,272;21372,709;33,04481
 922,59; 7155,547;  202,272;21231,459;33,06488
 923,14; 7189,297;  191,647;21121,209;33,43429
 923,69; 7216,797;  213,272;20985,459;33,71588
 924,25; 7211,297;  236,147;21041,834;33,52521
 924,80; 7115,047;  223,147;20689,959;33,67354
 925,36; 7108,297;  210,897;20678,959;33,69835
 925,91; 7058,672;  207,022;20544,334;33,69005
 926,47; 7068,797;  201,147;20532,959;33,77785
 927,02; 7105,922;  241,897;20449,959;33,96676
 927,57; 7009,797;  225,772;20289,834;33,81182
 928,13; 7054,297;  222,772;20254,584;34,10338
 928,68; 7024,922;  213,022;20173,334;34,12722
 929,24; 7023,172;  199,397;19971,834;34,51155
 929,79; 6999,797;  207,522;19856,959;34,56727
 930,34; 6935,297;  216,147;19728,459;34,43544
 930,90; 6993,797;  205,647;19757,209;34,71922
 931,45; 7024,547;  237,772;19578,834;35,08998
 932,01; 6968,172;  228,272;19640,084;34,72061
 932,56; 6913,422;  234,022;19455,459;34,74974
 933,11; 6946,172;  235,772;19334,709;35,13494
 933,67; 6861,547;  215,647;19160,834;35,07962
 934,22; 6913,297;  216,772;19085,834;35,48944
 934,77; 6881,797;  248,522;18974,334;35,42316
 935,33; 6853,297;  228,397;18956,709;35,37372
 935,88; 6843,422;  234,772;18826,709;35,54578
 936,43; 6840,047;  200,647;18710,834;35,86890
 936,99; 6816,297;  215,522;18576,959;35,94912
 937,54; 6727,297;  198,647;18466,959;35,73756
 938,09; 6784,672;  207,897;18400,209;36,15140
 938,65; 6771,297;  210,272;18317,459;36,23437
 939,20; 6732,922;  202,522;18263,959;36,15659
 939,75; 6720,672;  207,272;18139,959;36,32138
 940,31; 6710,047;  194,147;18032,584;36,52730
 940,86; 6726,547;  207,397;18008,334;36,62251
 941,41; 6756,922;  253,147;17864,709;36,92901
 941,96; 6627,797;  198,022;17905,334;36,31141
 942,52; 6658,422;  220,897;17687,584;36,85602
 943,07; 6614,922;  189,772;17574,584;36,95841
 943,62; 6599,297;  210,022;17599,334;36,74254
 944,18; 6625,672;  194,897;17519,834;37,11860
 944,73; 6651,922;  203,147;17382,209;37,53857
 945,28; 6545,172;  168,522;17236,084;37,36122
 945,83; 6605,672;  216,647;17201,959;37,61500
 946,39; 6599,172;  213,022;17154,334;37,69572
 946,94; 6616,172;  227,772;17045,584;37,98592
 947,49; 6536,797;  204,272;16969,334;37,77215
 948,04; 6590,922;  217,272;16936,834;38,12091
 948,59; 6544,047;  223,897;16853,709;38,00494
 949,15; 6519,797;  204,897;16784,209;38,08903
 949,70; 6501,672;  213,647;16669,209;38,21215
 950,25; 6492,172;  214,022;16527,334;38,48483
 950,80; 6497,297;  176,772;16457,959;38,82103
 951,36; 6403,672;  166,647;16458,709;38,28260
 951,91; 6437,297;  231,397;16354,959;38,48963
 952,46; 6336,797;  184,647;16232,584;38,33608
 953,01; 6414,422;  216,897;16222,834;38,72016
 953,56; 6322,297;  182,647;16112,209;38,54249
 954,11; 6354,297;  210,397;16000,209;38,91053
 954,67; 6345,922;  194,522;15983,959;38,95896
 955,22; 6275,797;  186,897;15812,334;38,96787
 955,77; 6306,297;  228,522;15775,459;39,09307
 956,32; 6308,547;  237,022;15673,959;39,33115
 956,87; 6248,297;  193,647;15575,334;39,36272
 957,42; 6208,422;  203,772;15448,959;39,38718
 957,98; 6250,297;  190,522;15384,334;39,88318
 958,53; 6247,797;  219,397;15384,584;39,75157
 959,08; 6173,047;  199,022;15220,209;39,77066
 959,63; 6164,172;  189,647;15203,334;39,79385
 960,18; 6208,297;  205,272;15059,709;40,41233
 960,73; 6179,422;  203,647;15075,084;40,18290
 961,28; 6143,047;  183,147;14963,334;40,32358
 961,83; 6153,047;  229,897;14939,334;40,26769
 962,39; 6115,422;  196,897;14815,584;40,48602
 962,94; 6082,797;  213,647;14778,459;40,29678
 963,49; 6055,797;  212,272;14666,709;40,42720
 964,04; 6113,172;  231,397;14566,584;41,03033
 964,59; 6086,297;  182,897;14460,584;41,34703
 965,14; 6106,047;  222,022;14407,834;41,47824
 965,69; 6109,047;  206,772;14288,209;41,91529
 966,24; 6027,547;  200,272;14204,084;41,61206
 966,79; 6020,047;  218,147;14146,084;41,65656
 967,34; 5976,297;  183,772;14097,084;41,63297
 967,89; 5966,547;  216,147;14001,959;41,71245
 968,44; 5952,172;  214,022;13888,959;41,96107
 968,99; 5985,547;  220,522;13840,959;42,32628
 969,55; 5918,422;  219,022;13754,959;42,10569
 970,10; 5888,297;  214,522;13705,834;42,05503
 970,65; 5912,297;  218,522;13561,709;42,67178
 971,20; 5817,172;  203,272;13435,459;42,42609
 971,75; 5819,672;  181,397;13312,709;42,93763
 972,30; 5802,797;  213,397;13295,084;42,72690
 972,85; 5798,422;  191,897;13248,084;42,94152
 973,40; 5760,672;  194,272;13105,459;43,11300
 973,95; 5767,547;  215,647;12940,584;43,63008
 974,50; 5803,297;  216,772;12899,709;44,04756
 975,05; 5729,297;  218,522;12885,584;43,50476
 975,60; 5726,297;  232,147;12789,834;43,75129
 976,15; 5680,797;  205,272;12644,459;44,01835
 976,70; 5644,047;  217,772;12546,084;44,01474
 977,25; 5606,047;  210,272;12536,834;43,77356
 977,80; 5597,422;  202,647;12444,584;44,06798
 978,35; 5541,047;  214,397;12210,959;44,40147
 978,89; 5500,547;  201,647;12198,709;44,16831
 979,44; 5516,797;  211,522;12186,834;44,30177
 979,99; 5423,797;  203,897;11992,584;44,27889
 980,54; 5411,922;  233,897;11982,084;44,07510
 981,09; 5454,297;  227,272;11809,334;45,13035
 981,64; 5344,922;  209,647;11653,209;44,87479
 982,19; 5401,422;  243,522;11684,334;45,08334
 982,74; 5336,547;  223,522;11617,459;44,87496
 983,29; 5273,547;  195,772;11414,959;45,25974
 983,84; 5254,922;  230,647;11298,584;45,39486
 984,39; 5278,797;  250,647;11195,834;45,93937
 984,94; 5141,797;  199,647;11162,334;45,08156
 985,49; 5167,547;  246,397;11103,709;45,32567
 986,03; 5128,797;  240,272;11042,209;45,25600
 986,58; 5078,422;  245,897;10848,084;45,58045
 987,13; 5021,422;  216,522;10773,834;45,51253
 987,68; 5024,297;  232,272;10673,959;45,89320
 988,23; 4980,297;  231,772;10604,209;45,78022
 988,78; 4925,797;  218,022;10480,209;45,87497
 989,33; 4955,547;  215,897;10342,209;46,80529
 989,88; 4957,172;  233,647;10234,584;47,23082
 990,42; 4854,047;  207,647;10215,834;46,42599
 990,97; 4818,047;  212,147;10071,084;46,71802
 991,52; 4848,172;  235,147; 9989,209;47,29337
 992,07; 4787,047;  246,772; 9876,834;47,14689
 992,62; 4756,672;  219,772; 9786,084;47,42580
 993,17; 4666,297;  223,772; 9700,459;46,87846
 993,71; 4655,172;  228,022; 9622,084;47,12711
 994,26; 4577,797;  187,147; 9476,709;47,26434
 994,81; 4610,297;  245,772; 9394,334;47,70722
 995,36; 4534,172;  207,897; 9329,709;47,42780
 995,91; 4525,547;  221,647; 9250,959;47,66587
 996,45; 4487,297;  222,647; 9172,584;47,65005
 997,00; 4412,797;  219,147; 8976,834;47,88536
 997,55; 4433,922;  225,772; 8982,834;48,05436
 998,10; 4382,547;  244,397; 8873,334;47,95666
 998,65; 4319,672;  228,022; 8756,959;47,97374
 999,19; 4312,672;  237,897; 8633,334;48,53559
 999,74; 4247,047;  239,522; 8568,209;48,11713
1000,29; 4277,172;  235,397; 8497,084;48,92191
1000,84; 4168,922;  224,772; 8411,084;48,17981
1001,38; 4147,297;  220,147; 8316,959;48,50242
1001,93; 4145,922;  227,897; 8253,334;48,82008
1002,48; 4071,297;  202,397; 8117,834;48,87790
1003,03; 4058,797;  225,772; 8078,334;48,81241
1003,57; 3993,797;  233,522; 7930,334;48,85496
1004,12; 4019,047;  235,397; 7915,959;49,26267
1004,67; 3980,172;  217,897; 7763,709;49,85911
1005,22; 3908,172;  209,397; 7650,209;49,70929
1005,76; 3811,672;  205,522; 7540,459;49,16402
1006,31; 3887,672;  244,647; 7497,084;50,23173
1006,86; 3819,297;  211,522; 7323,334;50,72933
1007,40; 3742,047;  209,397; 7227,084;50,33923
1007,95; 3727,547;  216,522; 7204,709;50,24228
1008,50; 3644,297;  227,397; 7034,459;50,19640
1009,04; 3636,672;  232,272; 6943,334;50,72818
1009,59; 3564,172;  228,647; 6828,584;50,53874
1010,14; 3516,047;  206,022; 6734,709;50,69970
1010,68; 3479,172;  225,397; 6630,084;50,80303
1011,23; 3439,297;  212,147; 6544,959;50,95919
1011,78; 3410,797;  228,647; 6451,584;51,13582
1012,32; 3386,047;  219,397; 6317,084;51,93198
1012,87; 3362,047;  243,147; 6347,459;51,09339
1013,42; 3307,547;  205,147; 6236,209;51,44036
1013,96; 3328,797;  248,772; 6186,209;51,87465
1014,51; 3233,672;  172,897; 6127,209;51,40434
1015,06; 3243,297;  201,647; 6081,334;51,73149
1015,60; 3328,172;  260,897; 6193,209;51,70454
1016,15; 3236,297;  218,522; 6144,834;50,92163
1016,69; 3266,672;  213,397; 6149,834;51,43278
1017,24; 3287,922;  197,147; 6175,584;51,69871
1017,79; 3315,172;  237,647; 6213,959;51,49538
1018,33; 3302,047;  200,522; 6216,834;51,55193
1018,88; 3348,672;  233,647; 6250,334;51,77309
1019,42; 3319,422;  213,397; 6211,334;51,78488
1019,97; 3316,922;  205,147; 6211,084;51,81164
1020,51; 3409,797;  214,897; 6286,084;52,62397
1021,06; 3341,922;  183,147; 6306,959;51,58184
1021,61; 3382,672;  188,397; 6276,584;52,46676
1022,15; 3321,797;  156,897; 6195,709;52,40931
1022,70; 3355,547;  212,647; 6213,709;52,37239
1023,24; 3328,922;  212,022; 6153,584;52,45926
1023,79; 3321,797;  209,147; 6105,834;52,78642
1024,33; 3311,922;  212,272; 6004,209;53,51663
1024,88; 3264,797;  225,772; 5988,459;52,73625
1025,42; 3237,297;  219,772; 5922,584;52,91293
1025,97; 3179,797;  199,897; 5814,334;53,07566
1026,51; 3101,922;  177,772; 5700,209;52,95035
1027,06; 3099,047;  191,772; 5676,834;53,00350
1027,60; 3028,922;  209,397; 5550,709;52,78712
1028,15; 3006,922;  227,897; 5451,834;53,19790
1028,69; 2914,172;  184,772; 5357,959;52,76051
1029,24; 2953,297;  197,772; 5283,834;54,17796
1029,78; 2890,922;  194,647; 5201,084;53,85616
1030,33; 2840,172;  189,147; 5094,209;54,04671
1030,87; 2813,047;  203,022; 5062,959;53,70491
1031,42; 2742,297;  187,022; 4911,084;54,09063
1031,96; 2773,672;  211,397; 4902,959;54,61453
1032,51; 2691,172;  198,022; 4839,209;53,71793
1033,05; 2698,047;  217,272; 4751,834;54,70814
1033,60; 2610,047;  180,022; 4623,459;54,68795
1034,14; 2587,797;  209,272; 4589,334;54,30345
1034,69; 2596,172;  198,272; 4512,709;55,57851
1035,23; 2577,547;  197,897; 4445,209;56,02719
1035,77; 2517,297;  193,272; 4417,584;55,01546
1036,32; 2505,422;  190,147; 4352,209;55,62807
1036,86; 2474,422;  195,022; 4310,084;55,39163
1037,41; 2450,547;  210,397; 4217,709;55,90155
1037,95; 2400,922;  175,897; 4189,084;55,44284
1038,50; 2350,922;  186,522; 4116,209;55,07817
1039,04; 2371,547;  216,022; 4050,959;56,20757
1039,58; 2323,172;  197,022; 3977,084;56,24642
1040,13; 2296,797;  209,897; 3952,084;55,76685
1040,67; 2287,172;  230,272; 3881,334;56,33703
1041,21; 2248,672;  237,397; 3795,834;56,52130
1041,76; 2224,047;  186,772; 3728,709;57,51866
1042,30; 2203,297;  200,897; 3677,459;57,59712
1042,85; 2188,047;  211,272; 3635,334;57,73186
1043,39; 2127,922;  207,897; 3600,959;56,58679
1043,93; 2136,797;  218,272; 3553,209;57,52806
1044,48; 2100,922;  195,522; 3477,959;58,04833
1045,02; 2079,297;  191,272; 3456,709;57,81844
1045,56; 2090,672;  217,397; 3440,959;58,11195
1046,11; 2055,922;  207,272; 3359,834;58,63960
1046,65; 2033,422;  219,522; 3314,834;58,60151
1047,19; 2010,047;  186,397; 3271,459;59,11225
1047,74; 1961,047;  191,022; 3189,709;59,02666
1048,28; 1964,797;  226,647; 3138,709;59,68794
1048,82; 1969,172;  219,397; 3179,834;59,10528
1049,37; 1946,297;  214,147; 3110,834;59,79761
1049,91; 1905,047;  199,522; 3054,334;59,74210
1050,45; 1870,797;  228,522; 3025,084;58,72477
1050,99; 1857,297;  205,647; 2946,209;60,26682
1051,54; 1820,297;  195,147; 2910,959;59,84029
1052,08; 1830,672;  218,397; 2873,834;60,71598
1052,62; 1786,172;  216,022; 2846,334;59,69443
1053,16; 1757,547;  202,897; 2788,459;60,12812
1053,71; 1742,797;  215,397; 2736,834;60,57656
1054,25; 1743,672;  228,897; 2712,334;60,99509
1054,79; 1720,922;  215,647; 2690,209;60,82994
1055,33; 1637,422;  201,647; 2626,459;59,21179
1055,88; 1649,797;  210,897; 2605,959;60,07776
1056,42; 1634,922;  236,522; 2617,084;58,74242
1056,96; 1630,172;  228,147; 2561,209;60,09376
1057,50; 1600,922;  211,897; 2510,709;60,42359
1058,05; 1590,047;  209,022; 2403,084;62,94374
1058,59; 1559,672;  229,522; 2407,584;61,07033
1059,13; 1495,422;  192,522; 2366,209;59,93962
1059,67; 1534,422;  223,272; 2342,834;61,85946
1060,21; 1483,672;  204,897; 2264,334;62,09341
1060,76; 1460,672;  230,522; 2288,584;59,77224
1061,30; 1469,047;  234,397; 2277,834;60,42025
1061,84; 1424,297;  206,397; 2207,584;60,85887
1062,38; 1403,172;  202,897; 2156,209;61,44818
1062,92; 1442,047;  246,022; 2150,584;62,79789
1063,46; 1402,547;  231,647; 2133,334;61,57163
1064,01; 1370,672;  192,647; 2088,959;62,12188
1064,55; 1346,422;  218,647; 2059,084;61,27755
1065,09; 1314,547;  183,272; 2037,209;61,02013
1065,63; 1344,172;  241,022; 2018,459;62,06407
1066,17; 1323,547;  225,647; 2005,209;61,69494
1066,71; 1334,422;  232,772; 1964,459;63,61714
1067,25; 1306,922;  217,272; 1924,334;63,83187
1067,80; 1294,422;  227,272; 1927,084;62,78045
1068,34; 1295,547;  240,397; 1911,334;63,14719
1068,88; 1220,797;  207,272; 1840,459;62,05809
1069,42; 1261,172;  246,522; 1900,959;61,32900
1069,96; 1209,922;  217,772; 1820,709;61,89574
1070,50; 1240,797;  247,397; 1834,334;62,59856
1071,04; 1176,547;  207,147; 1765,959;62,18836
1071,58; 1185,422;  221,272; 1785,209;61,64888
1072,12; 1171,797;  213,897; 1749,959;62,36074
1072,66; 1167,547;  227,272; 1722,084;62,90254
1073,21; 1182,672;  235,897; 1719,959;63,79617
1073,75; 1156,672;  226,272; 1690,459;63,54377
1074,29; 1137,797;  228,147; 1655,334;63,73725
1074,83; 1140,047;  229,147; 1653,209;63,96489
1075,37; 1128,547;  225,022; 1633,709;64,13949
1075,91; 1130,547;  227,022; 1588,459;66,36551
1076,45; 1097,172;  231,397; 1595,209;63,48197
1076,99; 1105,297;  232,647; 1559,584;65,76421
1077,53; 1063,047;  215,647; 1523,209;64,80761
1078,07; 1071,172;  227,272; 1520,334;65,26367
1078,61; 1082,422;  217,772; 1533,709;65,70601
1079,15; 1043,297;  217,772; 1481,334;65,33314
1079,69; 1043,422;  228,147; 1464,834;65,92409
1080,23; 1038,672;  238,897; 1469,334;64,99924
1080,77; 1073,922;  255,522; 1440,334;69,07422
1081,31; 1011,547;  211,522; 1424,834;65,93726
1081,85; 1014,172;  234,147; 1415,084;66,05134
1082,39;  998,547;  225,647; 1392,084;66,26159
1082,93; 1008,172;  225,897; 1380,209;67,76978
1083,47;  964,297;  209,522; 1358,209;65,70760
1084,01;  985,047;  236,522; 1359,834;66,63551
1084,55;  949,797;  210,147; 1312,334;67,10746
1085,09;  957,547;  230,647; 1335,459;65,79397
1085,63;  943,172;  223,647; 1280,459;68,08445
1086,17;  938,297;  217,647; 1301,959;66,46147
1086,71;  901,422;  213,772; 1290,209;63,88202
1087,24;  939,172;  247,022; 1269,209;67,71263
1087,78;  902,047;  226,647; 1230,334;67,29186
1088,32;  879,672;  216,522; 1228,459;65,53270
1088,86;  903,547;  247,897; 1216,334;67,70184
1089,40;  879,297;  230,647; 1210,459;66,20144
1089,94;  846,547;  204,397; 1166,834;66,72122
1090,48;  866,922;  233,147; 1177,834;67,08832
1091,02;  861,547;  231,647; 1163,584;67,59037
1091,56;  845,547;  226,647; 1158,209;66,43677
1092,10;  831,797;  215,897; 1113,084;68,64786
1092,63;  847,922;  243,272; 1153,459;66,43137
1093,17;  828,172;  232,147; 1103,709;68,38580
1093,71;  816,797;  220,772; 1078,459;69,49209
1094,25;  830,922;  248,397; 1107,459;67,80939
1094,79;  792,172;  225,647; 1062,084;67,73070
1095,33;  814,922;  229,897; 1060,584;70,42660
1095,87;  791,297;  222,147; 1027,959;70,63057
1096,40;  745,672;  215,272; 1030,334;65,07476
1096,94;  777,547;  228,147; 1026,959;68,77709
1097,48;  785,172;  217,897; 1002,084;72,33920
1098,02;  743,547;  223,272; 1016,584;65,58260
1098,56;  716,672;  194,147;  960,709;68,16470
1099,10;  715,297;  200,397;  966,959;67,17000
1099,63;  739,297;  202,022;  958,084;71,06225
1100,17;  722,797;  229,272;  955,709;67,93771
1100,71;  774,422;  242,397;  960,334;74,10464

