
Integration time [ms]: 130,000
Averaging Nr. [scans]: 8
Smoothing Nr. [pixels]: 0
Data measured with spectrometer [name]: 2009305U1
Wave   ;Sample   ;Dark     ;Reference;Reflectance
[nm]   ;[counts] ;[counts] ;[counts] ;[%]

 175,72;  208,327;  184,647;  202,659;131,46699
 176,32;  217,738;  222,897;  211,946; 0,00000
 176,92;  255,991;  236,022;  234,253; 0,00000
 177,52;  255,213;  247,022;  266,339;42,40316
 178,12;  235,340;  220,272;  216,819; 0,00000
 178,72;  260,085;  254,772;  232,116; 0,00000
 179,32;  258,468;  236,022;  236,650; 0,00000
 179,92;  252,633;  237,272;  239,552;673,56619
 180,52;  256,068;  227,272;  247,498;142,37325
 181,12;  261,921;  233,897;  247,458;206,64621
 181,73;  281,687;  255,022;  265,840;246,47344
 182,33;  339,426;  298,022;  312,473;286,51688
 182,93;  281,130;  253,272;  263,032;285,41735
 183,53;  242,073;  231,647;  214,044; 0,00000
 184,13;  224,023;  240,772;  231,230; 0,00000
 184,73;  260,455;  260,772;  254,913; 0,00000
 185,33;  285,369;  221,522;  332,987;57,28003
 185,93;  296,868;  240,897;  349,033;51,76016
 186,53;  323,638;  235,397;  360,514;70,52669
 187,13;  345,094;  276,147;  418,944;48,28370
 187,73;  301,342;  221,397;  354,971;59,85043
 188,33;  313,614;  236,147;  369,308;58,17547
 188,93;  314,270;  233,772;  375,642;56,74070
 189,53;  306,221;  250,022;  372,915;45,72987
 190,13;  347,290;  256,647;  403,968;61,52749
 190,73;  305,458;  221,647;  340,553;70,48499
 191,34;  321,457;  260,647;  370,341;55,43636
 191,94;  305,701;  230,772;  342,362;67,14620
 192,54;  326,229;  258,772;  381,996;54,74328
 193,14;  318,536;  253,272;  373,617;54,23061
 193,74;  334,731;  241,272;  359,726;78,89905
 194,34;  317,318;  242,897;  362,007;62,48086
 194,94;  276,078;  212,772;  337,936;50,57875
 195,54;  250,201;  211,022;  325,315;34,27912
 196,14;  289,183;  222,147;  348,806;52,92681
 196,74;  279,919;  215,397;  317,051;63,47223
 197,34;  283,740;  183,272;  330,840;68,08246
 197,94;  297,718;  219,522;  362,590;54,65661
 198,54;  297,538;  234,397;  367,260;47,52307
 199,14;  293,038;  215,397;  360,862;53,37426
 199,74;  262,870;  192,897;  366,668;40,26755
 200,34;  273,198;  198,897;  369,311;43,60035
 200,94;  311,038;  223,522;  397,050;50,43350
 201,54;  296,399;  210,772;  406,061;43,84639
 202,14;  332,666;  217,897;  414,733;58,30672
 202,74;  317,393;  210,897;  446,295;45,24100
 203,34;  301,960;  191,772;  455,445;41,78960
 203,94;  281,453;  164,897;  446,139;41,44348
 204,54;  354,319;  236,897;  512,110;42,66587
 205,14;  341,017;  194,147;  526,691;44,16555
 205,74;  378,920;  222,397;  602,708;41,15656
 206,34;  350,562;  197,397;  615,632;36,62191
 206,94;  380,652;  215,022;  680,432;35,58797
 207,54;  374,585;  192,647;  679,883;37,34090
 208,14;  414,393;  202,272;  776,481;36,94135
 208,74;  435,290;  210,772;  835,193;35,95619
 209,34;  432,577;  198,022;  904,871;33,18315
 209,94;  449,016;  202,397;  984,838;31,51917
 210,54;  467,699;  203,272; 1057,351;30,96046
 211,14;  510,601;  209,647; 1162,476;31,58530
 211,73;  529,423;  200,522; 1281,916;30,41457
 212,33;  573,081;  220,647; 1367,619;30,72732
 212,93;  604,000;  195,147; 1438,081;32,89419
 213,53;  569,873;  172,272; 1482,749;30,34014
 214,13;  611,716;  181,897; 1524,126;32,02280
 214,73;  623,666;  190,397; 1584,233;31,08462
 215,33;  626,266;  151,022; 1596,588;32,87597
 215,93;  703,838;  193,147; 1749,005;32,82379
 216,53;  714,814;  160,022; 1804,923;33,72800
 217,13;  822,885;  206,272; 2015,862;34,07477
 217,73;  887,503;  180,522; 2206,492;34,89595
 218,33;  942,128;  154,397; 2370,804;35,54090
 218,93; 1103,835;  170,272; 2565,586;38,97457
 219,53; 1198,835;  182,772; 2869,485;37,81809
 220,13; 1309,285;  175,147; 3150,943;38,11208
 220,73; 1516,431;  181,272; 3496,701;40,27108
 221,32; 1658,165;  183,397; 3819,693;40,55687
 221,92; 1845,266;  177,522; 4195,354;41,50856
 222,52; 2060,480;  172,647; 4598,740;42,65237
 223,12; 2229,853;  170,147; 5027,534;42,40359
 223,72; 2462,436;  193,522; 5304,465;44,39325
 224,32; 2605,225;  184,147; 5675,974;44,08510
 224,92; 2805,183;  167,647; 5919,258;45,85735
 225,52; 2955,360;  196,397; 6249,239;45,58128
 226,12; 3150,157;  187,022; 6543,260;46,61775
 226,72; 3339,098;  148,772; 6883,206;47,37333
 227,31; 3505,057;  162,272; 7140,115;47,90570
 227,91; 3720,301;  186,022; 7468,912;48,52852
 228,51; 3947,951;  182,772; 7869,581;48,98234
 229,11; 4171,121;  180,772; 8198,208;49,77089
 229,71; 4336,751;  168,647; 8461,309;50,26256
 230,31; 4608,633;  156,772; 8826,842;51,34746
 230,91; 4812,985;  162,647; 9189,262;51,51807
 231,51; 4988,837;  163,397; 9498,651;51,69051
 232,10; 5213,794;  161,022; 9800,644;52,41670
 232,70; 5373,818;  178,272;10024,007;52,76951
 233,30; 5584,966;  185,772;10345,711;53,14199
 233,90; 5716,424;  175,772;10501,621;53,65808
 234,50; 5858,942;  169,647;10677,856;54,14143
 235,10; 5930,058;  173,397;10820,258;54,06909
 235,70; 6028,323;  178,147;10988,311;54,11737
 236,29; 6062,104;  193,522;11071,786;53,94779
 236,89; 6093,919;  162,022;10996,317;54,75112
 237,49; 6106,762;  187,522;11032,465;54,58064
 238,09; 5971,187;  168,772;10835,757;54,39602
 238,69; 5847,516;  207,147;10740,737;53,54650
 239,29; 5701,900;  181,647;10531,851;53,33472
 239,89; 5543,960;  194,647;10312,407;52,87053
 240,48; 5287,146;  169,147;10033,416;51,88422
 241,08; 5143,361;  170,522; 9775,717;51,77239
 241,68; 4899,748;  186,272; 9483,164;50,69948
 242,28; 4657,614;  165,272; 9212,088;49,65661
 242,88; 4421,799;  202,647; 8995,682;47,98288
 243,48; 4140,054;  195,522; 8708,159;46,33737
 244,07; 3956,635;  181,397; 8565,572;45,02814
 244,67; 3757,683;  193,772; 8502,469;42,89374
 245,27; 3562,173;  190,522; 8311,791;41,51631
 245,87; 3388,886;  197,147; 8314,276;39,32103
 246,47; 3237,090;  183,147; 8296,632;37,64033
 247,06; 3081,379;  178,022; 8345,556;35,54754
 247,66; 2972,726;  183,397; 8378,766;34,03544
 248,26; 2941,607;  207,397; 8567,242;32,70646
 248,86; 2872,130;  193,397; 8722,244;31,40791
 249,46; 2763,755;  155,897; 8931,595;29,71681
 250,05; 2743,356;  187,647; 9273,804;28,12750
 250,65; 2681,011;  166,647; 9568,635;26,74289
 251,25; 2702,716;  168,022;10131,525;25,43979
 251,85; 2754,524;  175,647;10590,521;24,76148
 252,44; 2794,624;  151,397;11116,103;24,10668
 253,04; 2911,806;  186,897;11893,951;23,27579
 253,64; 2969,577;  143,022;12526,309;22,82557
 254,24; 3139,648;  182,147;13363,373;22,43723
 254,84; 3258,380;  164,647;14223,470;22,00563
 255,43; 3422,059;  173,147;15068,885;21,81102
 256,03; 3631,575;  181,897;15994,853;21,81552
 256,63; 3864,378;  185,522;16940,726;21,95650
 257,23; 4022,439;  166,147;17667,259;22,03455
 257,82; 4283,437;  187,397;18498,116;22,36963
 258,42; 4464,009;  149,272;19213,306;22,63287
 259,02; 4777,578;  187,022;20054,849;23,10548
 259,62; 4966,015;  170,647;20571,072;23,50622
 260,21; 5184,144;  175,522;21025,898;24,02174
 260,81; 5431,742;  189,522;21376,148;24,74306
 261,41; 5573,190;  169,272;21717,425;25,07834
 262,01; 5878,669;  206,647;22148,590;25,85014
 262,60; 6098,314;  161,272;22340,634;26,76832
 263,20; 6349,695;  176,272;22599,315;27,53160
 263,80; 6620,816;  194,022;22739,239;28,50624
 264,40; 6792,082;  167,397;22861,621;29,19106
 264,99; 7038,443;  184,272;22991,445;30,05270
 265,59; 7197,346;  177,772;23148,946;30,55819
 266,19; 7452,649;  168,147;23137,295;31,71429
 266,78; 7750,685;  202,147;23373,933;32,57642
 267,38; 7884,340;  186,272;23356,179;33,22442
 267,98; 8095,100;  173,022;23297,045;34,25908
 268,58; 8198,673;  185,147;23291,714;34,68073
 269,17; 8349,965;  176,022;23331,868;35,29970
 269,77; 8493,676;  181,897;23081,436;36,29671
 270,37; 8529,215;  142,522;23088,344;36,54998
 270,96; 8703,291;  215,022;22899,820;37,41832
 271,56; 8793,212;  181,272;22655,010;38,32001
 272,16; 8862,088;  171,897;22569,177;38,80021
 272,75; 8974,274;  178,772;22492,960;39,41664
 273,35; 9093,810;  175,522;22460,784;40,01877
 273,95; 9196,857;  183,022;22407,016;40,55902
 274,54; 9381,253;  162,397;22523,327;41,22752
 275,14; 9640,579;  191,897;22831,851;41,73455
 275,74; 9758,275;  160,272;22947,688;42,11975
 276,33;10134,614;  197,772;23380,675;42,86280
 276,93;10406,747;  180,897;23674,311;43,52645
 277,53;10709,187;  185,897;24035,592;44,12337
 278,12;11076,914;  161,022;24636,529;44,59925
 278,72;11506,669;  202,272;25139,253;45,33186
 279,32;11827,525;  180,272;25844,289;45,38359
 279,91;12317,406;  161,397;26530,806;46,09891
 280,51;12682,831;  175,272;27005,784;46,61692
 281,11;13184,240;  178,647;27709,590;47,23991
 281,70;13595,535;  168,522;27974,990;48,28737
 282,30;14122,337;  158,522;28574,010;49,14156
 282,90;14449,900;  173,397;29090,750;49,37002
 283,49;14898,892;  199,897;29473,590;50,21230
 284,09;15292,078;  213,272;29938,913;50,72660
 284,69;15703,256;  200,647;30286,222;51,52838
 285,28;16208,246;  207,397;30624,231;52,60524
 285,88;16571,652;  212,022;30748,041;53,57486
 286,47;16844,942;  190,522;30818,443;54,37659
 287,07;17197,943;  203,647;31076,483;55,04611
 287,67;17723,679;  200,397;31127,784;56,65943
 288,26;18030,944;  169,897;31125,211;57,69945
 288,86;18359,765;  169,022;31152,048;58,71196
 289,46;19009,571;  200,897;31362,043;60,35938
 290,05;19364,759;  159,522;31388,094;61,49893
 290,65;19911,237;  183,647;31582,969;62,82808
 291,24;20456,982;  194,022;31667,867;64,38031
 291,84;20986,378;  196,647;31763,601;65,85916
 292,44;21508,759;  167,397;31900,258;67,25319
 293,03;22015,336;  235,147;32094,197;68,36421
 293,63;22512,108;  184,272;32166,784;69,81264
 294,22;22878,511;  190,647;32316,010;70,62290
 294,82;23141,226;  189,897;32363,688;71,33548
 295,41;23313,035;  169,772;32163,990;72,33577
 296,01;23565,571;  220,272;32039,192;73,36924
 296,61;23525,753;  183,647;31743,266;73,96194
 297,20;23472,090;  189,272;31482,655;74,40173
 297,80;23533,482;  205,022;31320,157;74,97464
 298,39;23237,149;  163,022;30945,521;74,95859
 298,99;23260,833;  190,772;30842,911;75,26411
 299,58;23124,100;  190,647;30591,412;75,43709
 300,18;22993,194;  204,272;30490,001;75,24641
 300,78;22805,601;  185,397;30024,351;75,80763
 301,37;22757,094;  188,897;30192,529;75,21822
 301,97;22729,655;  189,397;30239,702;75,00842
 302,56;22540,965;  174,522;30024,320;74,92996
 303,16;22487,325;  175,647;30039,291;74,71184
 303,75;22412,659;  187,647;30014,927;74,51237
 304,35;22417,875;  169,397;30225,432;74,02333
 304,94;22434,799;  176,397;30324,144;73,83106
 305,54;22215,790;  199,772;30256,568;73,24805
 306,13;22130,436;  162,647;30178,340;73,18768
 306,73;21890,447;  175,647;30043,748;72,70231
 307,33;21738,348;  199,272;29911,331;72,49271
 307,92;21612,627;  173,522;30020,038;71,83118
 308,52;21752,765;  171,772;30539,634;71,06524
 309,11;21918,657;  181,647;30999,058;70,53484
 309,71;22070,065;  150,272;31304,636;70,35866
 310,30;22112,692;  162,772;31427,505;70,20664
 310,90;22188,067;  191,772;31765,505;69,66644
 311,49;22015,090;  177,147;31936,132;68,76146
 312,09;22021,986;  161,022;32018,842;68,62040
 312,68;22126,373;  203,647;32424,874;68,03815
 313,28;22083,627;  166,272;32608,288;67,55855
 313,87;21994,026;  146,897;32706,393;67,09910
 314,47;21895,735;  180,272;32891,076;66,38621
 315,06;21737,480;  171,147;32971,389;65,75053
 315,66;21699,611;  163,897;33157,592;65,27221
 316,25;21375,552;  149,272;33146,414;64,32763
 316,85;21237,589;  151,272;33258,568;63,69085
 317,44;21078,989;  171,147;33329,511;63,05450
 318,04;20752,441;  155,022;33321,715;62,10272
 318,63;20498,093;  149,897;33387,543;61,22033
 319,22;20365,509;  189,522;33648,617;60,30046
 319,82;20155,122;  182,272;33594,335;59,77736
 320,41;19833,945;  178,272;33545,650;58,90685
 321,01;19591,676;  180,647;33506,787;58,24566
 321,60;19311,891;  164,897;33626,027;57,22160
 322,20;18978,147;  161,397;33615,230;56,24692
 322,79;18836,126;  206,022;33778,934;55,49147
 323,39;18606,670;  167,772;33798,208;54,82801
 323,98;18356,165;  171,147;33765,693;54,13086
 324,58;18058,410;  168,647;33682,804;53,37972
 325,17;17729,218;  172,772;33537,152;52,62033
 325,76;17378,903;  187,647;33380,746;51,79166
 326,36;16907,489;  152,397;33034,652;50,95482
 326,95;16503,827;  195,897;32707,184;50,16083
 327,55;16167,623;  157,397;32386,313;49,67659
 328,14;15762,125;  170,397;31988,246;49,00309
 328,74;15198,008;  197,522;31601,264;47,76655
 329,33;14828,365;  197,022;31157,505;47,25812
 329,92;14400,177;  163,397;30738,125;46,56388
 330,52;13924,832;  180,022;30181,574;45,81366
 331,11;13538,662;  183,772;29710,822;45,22934
 331,71;13058,656;  173,397;29188,931;44,40814
 332,30;12663,674;  194,647;28664,519;43,79727
 332,89;12208,263;  207,772;28232,007;42,82184
 333,49;11847,348;  185,397;27679,730;42,41584
 334,08;11478,103;  181,397;27255,018;41,72588
 334,68;11087,164;  179,897;26962,029;40,72591
 335,27;10800,452;  179,397;26527,536;40,31046
 335,86;10513,037;  207,147;26304,447;39,49025
 336,46;10219,472;  195,147;25992,228;38,85837
 337,05;10005,246;  173,272;25869,731;38,26198
 337,65; 9717,435;  161,647;25765,949;37,32103
 338,24; 9587,103;  222,772;25783,932;36,63500
 338,83; 9403,102;  194,272;25720,454;36,07602
 339,43; 9151,822;  173,272;25634,731;35,26330
 340,02; 9003,492;  172,397;25518,507;34,84201
 340,61; 8872,585;  167,772;25607,219;34,21778
 341,21; 8844,883;  205,772;25618,014;33,99586
 341,80; 8605,811;  174,897;25574,927;33,19254
 342,40; 8524,456;  181,147;25674,970;32,72679
 342,99; 8428,388;  180,272;25829,132;32,15783
 343,58; 8303,240;  177,522;26027,505;31,43414
 344,18; 8261,759;  185,772;26119,969;31,14030
 344,77; 8131,555;  171,022;26439,121;30,30494
 345,36; 8117,952;  148,647;26720,184;29,99189
 345,96; 8071,407;  187,772;27053,470;29,34461
 346,55; 7988,064;  179,772;27244,650;28,85028
 347,14; 7959,143;  167,522;27527,356;28,47832
 347,74; 7909,726;  139,397;28049,992;27,84007
 348,33; 8067,418;  179,522;28663,791;27,69211
 348,92; 8117,441;  180,522;29196,707;27,35342
 349,52; 8048,325;  162,272;29712,180;26,68723
 350,11; 8061,287;  180,147;29820,532;26,58919
 350,70; 7925,148;  160,022;29997,708;26,02456
 351,29; 7779,768;  161,397;29717,592;25,77589
 351,89; 7669,012;  180,022;29661,512;25,40235
 352,48; 7570,836;  150,647;29757,072;25,06277
 353,07; 7523,701;  167,897;29680,432;24,92434
 353,67; 7444,980;  186,522;29739,216;24,56107
 354,26; 7232,663;  175,772;29443,152;24,11180
 354,85; 7117,026;  181,272;29352,079;23,77635
 355,45; 7018,627;  165,397;29054,998;23,72213
 356,04; 6966,719;  164,272;29112,646;23,49855
 356,63; 6813,972;  190,147;28910,001;23,06357
 357,22; 6765,403;  174,897;28712,208;23,09435
 357,82; 6659,853;  178,772;28536,416;22,85479
 358,41; 6591,613;  183,147;28441,509;22,67812
 359,00; 6452,718;  162,772;28231,277;22,40927
 359,60; 6515,582;  178,272;28142,887;22,66189
 360,19; 6383,195;  174,897;27960,291;22,34375
 360,78; 6379,769;  190,397;27796,608;22,42022
 361,37; 6273,976;  165,772;27702,039;22,18240
 361,97; 6278,365;  170,522;27643,840;22,23191
 362,56; 6152,558;  160,397;27198,181;22,16218
 363,15; 6145,958;  189,897;27001,451;22,21453
 363,74; 6016,838;  179,522;26639,177;22,06120
 364,34; 5982,614;  202,647;26268,675;22,17433
 364,93; 5881,499;  164,147;25903,501;22,21249
 365,52; 5799,537;  149,147;25623,947;22,18031
 366,11; 5813,113;  181,772;25242,572;22,47072
 366,71; 5722,884;  157,522;24859,367;22,53015
 367,30; 5689,911;  177,397;24566,594;22,60228
 367,89; 5685,673;  203,647;24321,103;22,73053
 368,48; 5666,129;  189,397;23989,665;23,01122
 369,07; 5634,398;  184,272;23630,458;23,24526
 369,67; 5569,625;  193,897;23396,730;23,16841
 370,26; 5545,688;  184,272;23144,195;23,35119
 370,85; 5534,516;  172,772;22872,777;23,62002
 371,44; 5536,616;  168,272;22683,068;23,84363
 372,03; 5483,385;  156,397;22385,971;23,96352
 372,63; 5456,555;  137,772;22100,286;24,21755
 373,22; 5474,171;  164,772;21897,710;24,43019
 373,81; 5459,871;  154,647;21525,606;24,82445
 374,40; 5480,271;  162,772;21342,666;25,10635
 374,99; 5476,355;  171,897;21156,599;25,27774
 375,59; 5468,378;  159,522;20934,952;25,55353
 376,18; 5494,416;  194,647;20759,632;25,77084
 376,77; 5569,739;  181,522;20537,612;26,46980
 377,36; 5601,830;  191,772;20604,266;26,50366
 377,95; 5626,424;  185,022;20233,105;27,14176
 378,55; 5593,426;  155,647;20088,537;27,28044
 379,14; 5689,559;  169,647;19978,096;27,86645
 379,73; 5789,464;  177,397;19896,717;28,45974
 380,32; 5831,886;  182,022;19972,885;28,54784
 380,91; 5851,606;  171,897;19885,288;28,81142
 381,50; 5955,016;  192,897;19824,362;29,35145
 382,10; 6064,011;  160,147;19732,135;30,16486
 382,69; 6075,997;  155,522;19629,210;30,40243
 383,28; 6170,887;  199,897;19644,552;30,70762
 383,87; 6171,346;  168,022;19450,837;31,13303
 384,46; 6266,913;  174,897;19497,574;31,52781
 385,05; 6418,495;  194,897;19482,692;32,26703
 385,64; 6409,113;  170,772;19378,947;32,47753
 386,24; 6536,623;  153,522;19447,337;33,08367
 386,83; 6703,231;  185,522;19473,476;33,79160
 387,42; 6786,153;  174,022;19580,684;34,07145
 388,01; 6960,629;  180,397;19817,063;34,52843
 388,60; 7159,055;  186,897;19989,059;35,20908
 389,19; 7313,388;  165,397;20230,100;35,62470
 389,78; 7504,630;  170,397;20443,730;36,17675
 390,37; 7780,198;  227,022;20833,233;36,65485
 390,96; 7943,104;  182,647;20994,270;37,28905
 391,56; 8148,710;  169,397;21197,665;37,94565
 392,15; 8322,083;  162,147;21556,623;38,14039
 392,74; 8516,667;  143,147;21710,891;38,82427
 393,33; 8733,527;  170,397;21877,964;39,44767
 393,92; 9061,916;  171,272;22384,352;40,02436
 394,51; 9215,757;  169,022;22566,272;40,39217
 395,10; 9442,162;  197,897;22667,776;41,14070
 395,69; 9626,736;  187,647;22862,734;41,62758
 396,28; 9762,976;  198,772;22910,579;42,11115
 396,87; 9969,883;  198,647;23083,930;42,69659
 397,46;10180,189;  189,397;23161,948;43,49013
 398,06;10378,546;  195,772;23457,383;43,77502
 398,65;10491,399;  189,272;23497,243;44,20002
 399,24;10768,356;  185,647;23706,134;44,99358
 399,83;10896,053;  164,147;23505,606;45,97787
 400,42;10992,066;  204,522;23783,813;45,75008
 401,01;11271,455;  172,897;23852,958;46,86879
 401,60;11403,233;  198,147;23819,617;47,43602
 402,19;11556,384;  208,647;23796,170;48,10907
 402,78;11616,024;  207,022;23736,927;48,48724
 403,37;11655,087;  192,397;23710,308;48,74026
 403,96;11696,818;  196,022;23510,157;49,32971
 404,55;11846,563;  196,272;23504,956;49,98262
 405,14;11897,693;  178,647;23369,785;50,53243
 405,73;12007,062;  200,522;23216,044;51,29817
 406,32;12087,693;  208,272;23205,389;51,65613
 406,91;12032,027;  192,647;22835,776;52,28685
 407,50;12059,999;  181,397;22673,393;52,81257
 408,09;12067,326;  177,522;22405,419;53,49046
 408,68;12174,646;  191,647;22237,761;54,35424
 409,27;12137,202;  183,272;22132,583;54,46153
 409,86;12170,762;  192,022;22103,622;54,66849
 410,45;12310,522;  212,522;21947,518;55,66138
 411,04;12341,360;  218,772;21929,036;55,83805
 411,63;12279,602;  205,147;21587,734;56,46864
 412,22;12274,387;  208,272;21355,189;57,05851
 412,81;12239,500;  205,147;21086,069;57,63324
 413,40;12213,569;  224,522;20737,442;58,44632
 413,99;12101,557;  244,272;20429,308;58,74295
 414,58;11939,475;  191,772;20099,292;59,01139
 415,17;11916,582;  183,397;19854,251;59,64757
 415,76;11962,812;  194,397;19743,253;60,20002
 416,35;11939,769;  186,772;19584,410;60,58984
 416,94;12013,377;  218,897;19714,010;60,49967
 417,53;12258,388;  191,022;19833,620;61,43468
 418,12;12405,056;  192,022;19930,854;61,87314
 418,71;12769,608;  197,022;20251,451;62,69232
 419,30;12829,111;  188,022;20266,745;62,95764
 419,89;13082,407;  187,772;20520,560;63,41794
 420,48;13304,711;  215,397;20790,803;63,61631
 421,07;13530,320;  215,522;20909,357;64,34186
 421,66;13578,170;  172,272;20864,603;64,78680
 422,25;13700,107;  198,147;20858,067;65,35340
 422,84;13732,589;  223,772;20851,643;65,48818
 423,43;13638,480;  196,397;20597,299;65,88965
 424,02;13591,339;  228,022;20224,603;66,82801
 424,60;13395,154;  204,647;19841,563;67,17199
 425,19;13341,019;  196,522;19628,720;67,64287
 425,78;13390,097;  228,397;19626,239;67,85136
 426,37;13296,456;  222,147;19404,083;68,15949
 426,96;13357,163;  206,272;19253,514;69,04355
 427,55;13225,314;  194,147;19031,113;69,17869
 428,14;13197,726;  181,897;18941,705;69,38146
 428,73;13272,086;  222,397;18767,700;70,36655
 429,32;13299,607;  224,522;18744,769;70,59887
 429,91;13298,250;  232,022;18773,834;70,46899
 430,50;13284,616;  224,147;18733,048;70,56318
 431,08;13244,066;  239,272;18537,921;71,06970
 431,67;13287,705;  271,397;18387,636;71,84884
 432,26;13186,034;  288,272;18235,819;71,86365
 432,85;13013,792;  322,522;17780,542;72,69593
 433,44;12876,399;  309,897;17459,430;73,27606
 434,03;12618,450;  323,272;17142,237;73,10306
 434,62;12340,083;  289,272;16718,234;73,35102
 435,21;12239,662;  314,022;16585,129;73,29336
 435,79;12225,761;  284,022;16377,958;74,20024
 436,38;12199,293;  297,897;16340,574;74,18585
 436,97;12258,806;  286,397;16196,625;75,24977
 437,56;12090,937;  281,647;16046,969;74,90675
 438,15;12089,957;  270,647;16020,724;75,04287
 438,74;12139,158;  295,897;15949,036;75,66061
 439,33;12137,689;  251,772;15894,010;75,98604
 439,91;12248,842;  216,772;16015,277;76,15955
 440,50;12319,588;  259,522;16040,717;76,42049
 441,09;12466,669;  249,522;16192,896;76,62837
 441,68;12513,436;  252,897;16152,858;77,11050
 442,27;12518,435;  221,647;16170,215;77,10277
 442,86;12555,379;  199,897;16147,212;77,47688
 443,44;12606,440;  220,772;16211,559;77,45503
 444,03;12741,710;  270,022;16197,040;78,30523
 444,62;12646,190;  217,647;16139,995;78,05722
 445,21;12496,077;  224,897;15893,903;78,31499
 445,80;12540,169;  251,022;15862,926;78,71652
 446,39;12377,949;  259,522;15553,047;79,23894
 446,97;12173,639;  233,272;15372,781;78,86892
 447,56;12100,844;  218,272;15144,732;79,60744
 448,15;11910,036;  221,397;15032,554;78,91779
 448,74;11815,134;  239,522;14783,493;79,59045
 449,33;11758,477;  224,897;14611,580;80,16845
 449,91;11630,987;  220,897;14428,047;80,31231
 450,50;11515,623;  202,897;14194,851;80,85165
 451,09;11457,783;  244,522;14159,175;80,58599
 451,68;11445,908;  259,522;14010,487;81,34982
 452,26;11305,197;  238,647;13956,661;80,67166
 452,85;11262,857;  230,397;13850,320;81,00236
 453,44;11273,412;  232,397;13903,478;80,76183
 454,03;11253,765;  203,522;13816,603;81,17372
 454,61;11308,053;  208,647;13777,110;81,80297
 455,20;11447,634;  243,647;13969,124;81,62912
 455,79;11507,509;  237,397;13966,523;82,08907
 456,38;11574,992;  234,647;14045,990;82,10892
 456,97;11659,024;  226,147;14115,568;82,31356
 457,55;11632,640;  222,272;14075,532;82,36595
 458,14;11620,304;  249,147;14060,814;82,33008
 458,73;11566,656;  231,272;14043,664;82,06677
 459,31;11696,364;  255,147;14045,196;82,96719
 459,90;11756,928;  263,897;14174,602;82,62005
 460,49;11796,046;  277,772;14258,693;82,38566
 461,08;11864,322;  235,647;14346,792;82,40773
 461,66;11884,532;  226,772;14371,243;82,41920
 462,25;11980,448;  233,647;14430,810;82,74048
 462,84;12068,463;  248,022;14456,799;83,19112
 463,43;12031,880;  203,897;14410,009;83,25982
 464,01;12036,777;  226,147;14442,344;83,07868
 464,60;12078,063;  261,647;14364,670;83,78640
 465,19;11841,577;  204,522;14172,822;83,31046
 465,77;11890,366;  234,897;14192,621;83,50551
 466,36;11802,151;  257,897;14108,054;83,35107
 466,95;11613,729;  230,147;13701,698;84,50090
 467,53;11279,090;  228,272;13470,599;83,45073
 468,12;11155,896;  256,772;13223,844;84,05232
 468,71;10975,259;  242,647;12987,045;84,21435
 469,29;10740,265;  228,022;12758,328;83,89455
 469,88;10498,871;  227,022;12545,050;83,38875
 470,47;10640,728;  268,147;12654,938;83,73905
 471,06;10564,580;  243,522;12618,811;83,40054
 471,64;10615,883;  247,147;12754,684;82,89990
 472,23;10585,908;  211,147;12662,220;83,32423
 472,81;10694,487;  206,272;12740,865;83,67416
 473,40;10828,073;  218,522;12934,457;83,43508
 473,99;11044,115;  289,272;13155,173;83,59183
 474,57;11094,971;  230,897;13178,834;83,90583
 475,16;11218,729;  240,897;13412,017;83,34775
 475,75;11238,588;  257,647;13494,298;82,95860
 476,33;11365,014;  256,897;13570,919;83,43172
 476,92;11443,566;  256,022;13612,713;83,75985
 477,51;11480,654;  247,147;13749,158;83,19876
 478,09;11489,611;  236,647;13669,590;83,77140
 478,68;11459,286;  247,272;13546,818;84,30374
 479,27;11441,794;  267,772;13736,501;82,96271
 479,85;11447,705;  241,647;13672,115;83,43758
 480,44;11544,065;  242,897;13869,772;82,93293
 481,02;12732,662;  246,147;15579,022;81,43623
 481,61;14286,029;  271,522;17364,135;81,99160
 482,20;15295,391;  268,772;18421,624;82,77828
 482,78;15883,070;  294,772;18995,164;83,35814
 483,37;16121,911;  272,272;19410,770;82,81548
 483,95;16311,028;  303,272;19646,172;82,75778
 484,54;16611,513;  314,897;19857,377;83,39072
 485,13;16557,785;  296,272;19884,768;83,01563
 485,71;16450,360;  272,022;19758,540;83,02324
 486,30;16284,192;  310,897;19512,346;83,18797
 486,88;16024,662;  331,147;19154,975;83,37048
 487,47;15499,757;  328,647;18476,853;83,59564
 488,05;14777,887;  307,647;17587,306;83,74147
 488,64;13750,480;  315,897;16271,893;84,19771
 489,23;12275,275;  324,772;14257,379;85,77363
 489,81;10304,036;  305,647;12238,598;83,78807
 490,40; 9706,363;  269,022;11746,763;82,22298
 490,98; 9500,557;  256,772;11507,808;82,15941
 491,57; 9466,229;  283,522;11390,250;82,67698
 492,15; 9348,385;  267,647;11418,951;81,43207
 492,74; 9296,822;  264,272;11271,486;82,06028
 493,32; 9200,143;  276,397;11148,799;82,07705
 493,91; 9057,681;  261,397;11109,119;81,08877
 494,50; 9024,083;  269,647;11064,697;81,09677
 495,08; 9002,795;  254,897;11002,438;81,39441
 495,67; 8967,666;  279,147;10990,362;81,11609
 496,25; 8842,029;  225,772;10842,744;81,15550
 496,84; 8831,647;  237,522;10866,273;80,85734
 497,42; 8765,831;  225,397;10794,326;80,80699
 498,01; 8742,911;  257,272;10750,074;80,87105
 498,59; 8677,596;  213,772;10720,458;80,55656
 499,18; 8577,553;  214,522;10721,060;79,59835
 499,76; 8603,382;  243,897;10561,471;81,02182
 500,35; 8379,590;  254,397;10284,128;81,01107
 500,93; 8315,979;  222,272;10301,703;80,29924
 501,52; 8267,368;  211,022;10264,857;80,13208
 502,10; 8273,609;  226,647;10190,757;80,75947
 502,69; 8076,422;  220,522;10058,411;79,85352
 503,27; 7920,310;  209,397; 9901,195;79,56123
 503,86; 7890,910;  224,022; 9832,838;79,79014
 504,44; 7751,766;  190,397; 9702,061;79,49576
 505,03; 7579,787;  194,147; 9504,981;79,32307
 505,61; 7455,441;  200,522; 9318,749;79,56501
 506,19; 7375,351;  228,647; 9159,324;80,02422
 506,78; 7196,392;  201,522; 8997,515;79,52337
 507,36; 7086,082;  207,897; 8863,132;79,46850
 507,95; 6905,457;  216,272; 8722,523;78,63847
 508,53; 6812,893;  217,522; 8611,619;78,57155
 509,12; 6693,776;  219,397; 8423,278;78,91849
 509,70; 6576,808;  226,647; 8262,917;79,01876
 510,29; 6451,579;  227,522; 8180,253;78,26315
 510,87; 6247,352;  206,272; 7971,278;77,79878
 511,46; 6087,406;  198,022; 7831,191;77,15516
 512,04; 6008,696;  205,897; 7737,468;77,04633
 512,62; 5871,363;  208,897; 7580,497;76,81462
 513,21; 5741,306;  191,647; 7387,126;77,12703
 513,79; 5621,638;  210,522; 7278,095;76,56258
 514,38; 5493,327;  189,147; 7087,272;76,89306
 514,96; 5464,039;  220,522; 7043,116;76,85518
 515,54; 5320,254;  201,022; 6896,957;76,45283
 516,13; 5233,854;  214,647; 6795,874;76,26552
 516,71; 5128,515;  197,397; 6687,613;75,97772
 517,30; 4992,575;  199,897; 6587,957;75,02556
 517,88; 4961,264;  221,522; 6530,549;75,12635
 518,46; 4849,002;  200,772; 6391,142;75,08809
 519,05; 4837,317;  225,522; 6363,149;75,13971
 519,63; 4752,431;  218,147; 6257,305;75,08140
 520,22; 4714,808;  214,397; 6196,362;75,23299
 520,80; 4629,575;  197,147; 6120,973;74,82374
 521,38; 4606,313;  218,522; 6153,464;73,93150
 521,97; 4563,390;  201,022; 6117,605;73,73121
 522,55; 4520,953;  211,647; 6121,469;72,91770
 523,13; 4498,355;  192,522; 6020,320;73,88439
 523,72; 4493,941;  214,897; 6033,234;73,54412
 524,30; 4570,901;  232,397; 6149,511;73,32128
 524,89; 4532,407;  195,147; 6163,590;72,66987
 525,47; 4620,372;  214,647; 6285,992;72,56587
 526,05; 4639,617;  175,897; 6322,954;72,61556
 526,64; 4700,939;  224,397; 6410,831;72,36062
 527,22; 4808,269;  216,272; 6524,016;72,79935
 527,80; 4872,816;  256,147; 6620,163;72,54334
 528,39; 4894,760;  205,022; 6788,480;71,23518
 528,97; 5029,539;  216,522; 6859,748;72,44999
 529,55; 5129,772;  222,147; 7126,161;71,08364
 530,14; 5257,603;  229,397; 7267,755;71,44005
 530,72; 5253,746;  194,147; 7368,554;70,52289
 531,30; 5387,870;  196,397; 7493,740;71,14196
 531,89; 5413,329;  219,147; 7539,900;70,95148
 532,47; 5453,861;  240,147; 7674,289;70,13202
 533,05; 5468,234;  230,647; 7700,857;70,11298
 533,63; 5474,668;  245,647; 7757,387;69,61132
 534,22; 5472,230;  218,147; 7806,773;69,23629
 534,80; 5517,619;  248,397; 7907,113;68,80033
 535,38; 5610,074;  303,022; 7932,487;69,55996
 535,97; 5479,235;  229,772; 7956,061;67,94287
 536,55; 5502,907;  282,147; 7985,644;67,77130
 537,13; 5480,498;  292,772; 7985,072;67,44050
 537,71; 5496,856;  336,147; 7975,837;67,55129
 538,30; 5491,783;  352,522; 8119,333;66,16951
 538,88; 5563,594;  391,272; 8198,945;66,24666
 539,46; 5667,432;  439,522; 8371,978;65,90532
 540,05; 5714,229;  457,647; 8444,521;65,81526
 540,63; 5776,123;  521,022; 8658,463;64,57929
 541,21; 5881,648;  558,147; 8831,483;64,34528
 541,79; 5954,107;  596,272; 8942,392;64,19551
 542,38; 5957,087;  622,522; 9147,536;62,57544
 542,96; 6020,730;  640,397; 9263,976;62,39095
 543,54; 6197,402;  639,147; 9417,543;63,31743
 544,12; 6213,143;  630,522; 9574,070;62,42066
 544,70; 6251,603;  600,272; 9665,019;62,34405
 545,29; 6302,565;  619,022; 9801,262;61,89713
 545,87; 6316,857;  575,022; 9797,392;62,25986
 546,45; 6324,901;  528,522; 9830,503;62,31338
 547,03; 6316,407;  515,522; 9946,184;61,51090
 547,62; 6381,937;  474,772;10033,117;61,80113
 548,20; 6500,108;  475,397;10228,285;61,77361
 548,78; 6537,490;  438,147;10270,568;62,03297
 549,36; 6573,537;  397,272;10480,300;61,25407
 549,94; 6663,596;  360,022;10580,963;61,67313
 550,53; 6778,067;  355,897;10846,171;61,22023
 551,11; 6856,000;  333,647;11001,559;61,13992
 551,69; 6950,497;  327,022;11297,062;60,37785
 552,27; 7113,892;  294,397;11540,693;60,63770
 552,85; 7304,292;  300,647;11862,377;60,57610
 553,44; 7476,019;  293,522;12109,211;60,78780
 554,02; 7665,989;  310,397;12456,339;60,56007
 554,60; 7781,246;  252,647;12791,999;60,03978
 555,18; 8026,371;  275,522;13097,834;60,44814
 555,76; 8177,134;  259,022;13473,135;59,92163
 556,34; 8378,079;  272,647;13851,720;59,69062
 556,93; 8520,827;  271,272;14189,412;59,27197
 557,51; 8705,953;  239,397;14432,116;59,65422
 558,09; 8866,765;  267,647;14891,651;58,80139
 558,67; 9103,144;  269,772;15151,602;59,35676
 559,25; 9175,946;  276,272;15408,872;58,81127
 559,83; 9301,234;  253,272;15731,317;58,45675
 560,41; 9558,462;  251,772;16096,964;58,73510
 561,00; 9612,186;  264,397;16313,192;58,24604
 561,58; 9700,755;  256,897;16642,261;57,63594
 562,16; 9833,562;  232,272;16970,944;57,35992
 562,74; 9979,801;  219,397;17295,225;57,15918
 563,32;10147,902;  226,022;17690,636;56,81133
 563,90;10344,915;  247,397;18046,647;56,73002
 564,48;10526,594;  250,772;18352,459;56,76720
 565,06;10843,418;  244,272;19030,457;56,41990
 565,65;11101,020;  257,772;19649,931;55,91563
 566,23;11438,122;  296,772;20409,203;55,39534
 566,81;11725,364;  246,022;21092,441;55,06625
 567,39;12158,540;  259,022;21889,937;55,01163
 567,97;12418,380;  255,022;22446,323;54,81138
 568,55;12851,237;  256,897;23302,524;54,64959
 569,13;13107,496;  237,772;23947,725;54,27984
 569,71;13507,104;  240,522;24890,263;53,82037
 570,29;13981,849;  278,147;25841,935;53,60591
 570,87;14307,672;  262,272;26545,541;53,43856
 571,45;14598,479;  282,022;27160,365;53,26391
 572,03;14731,660;  216,397;27557,046;53,09041
 572,61;14958,634;  226,397;28333,047;52,41548
 573,20;15293,993;  257,022;29018,229;52,28213
 573,78;15504,673;  241,147;29637,557;51,92309
 574,36;15725,409;  265,897;30028,506;51,94273
 574,94;15796,904;  303,522;30286,404;51,67409
 575,52;15835,139;  258,022;30612,102;51,31803
 576,10;15973,403;  314,897;31138,216;50,80084
 576,68;16218,223;  302,897;31741,660;50,62326
 577,26;16488,582;  332,647;32362,419;50,44037
 577,84;16600,052;  326,272;32904,470;49,95298
 578,42;16659,665;  362,397;33036,248;49,87863
 579,00;16566,318;  313,272;33133,227;49,52184
 579,58;16618,882;  358,772;33384,256;49,23504
 580,16;16543,222;  356,522;33424,096;48,95037
 580,74;16559,136;  328,022;33596,105;48,78885
 581,32;16521,086;  341,147;33667,377;48,55016
 581,90;16435,369;  354,272;33702,495;48,22175
 582,48;16449,743;  368,022;33812,517;48,08481
 583,06;16289,526;  350,772;33836,698;47,59837
 583,64;16343,737;  364,772;34085,439;47,38627
 584,22;16115,236;  372,772;33707,312;47,22568
 584,80;15939,039;  367,022;33433,770;47,09268
 585,38;15636,269;  380,397;33043,062;46,70737
 585,96;15560,125;  352,772;33161,825;46,35109
 586,54;15527,701;  390,022;33262,612;46,04955
 587,12;15417,734;  325,022;33365,919;45,67888
 587,70;15460,289;  363,272;33469,209;45,60215
 588,28;15374,902;  344,397;33545,488;45,27112
 588,86;15282,665;  352,772;33682,663;44,79431
 589,44;15232,816;  338,897;33475,223;44,94741
 590,02;15286,679;  333,147;33925,379;44,51485
 590,59;15118,848;  311,897;33953,761;44,01347
 591,17;15162,216;  309,022;34012,657;44,07001
 591,75;15131,322;  311,147;34122,029;43,83256
 592,33;15129,978;  313,522;34431,004;43,42776
 592,91;15163,996;  264,647;34631,779;43,35348
 593,49;15192,103;  285,272;34887,980;43,07996
 594,07;15181,250;  297,147;35075,878;42,79657
 594,65;15011,427;  306,772;35171,257;42,17660
 595,23;15135,785;  290,272;35482,937;42,18354
 595,81;15092,609;  283,147;35539,020;42,00566
 596,39;15011,232;  290,522;35660,563;41,61915
 596,97;15000,080;  297,772;35817,063;41,39246
 597,55;14871,751;  278,772;35837,591;41,03899
 598,12;14723,053;  275,397;35799,938;40,66951
 598,70;14698,177;  260,772;35921,773;40,48514
 599,28;14678,739;  280,272;36114,784;40,18045
 599,86;14648,721;  279,647;36164,821;40,04181
 600,44;14528,377;  244,522;36156,710;39,77440
 601,02;14524,188;  289,147;36314,219;39,51426
 601,60;14321,925;  270,522;36241,755;39,06289
 602,18;14283,930;  248,397;36225,395;39,01252
 602,75;14178,945;  255,022;36471,511;38,44636
 603,33;14098,905;  276,397;36335,750;38,33266
 603,91;13974,371;  260,647;36327,130;38,02346
 604,49;13949,091;  280,272;36430,407;37,81125
 605,07;13855,865;  293,647;36437,598;37,52279
 605,65;13774,186;  300,897;36562,661;37,15564
 606,23;13757,269;  374,147;36694,890;36,84705
 606,80;13647,779;  405,897;36787,545;36,39715
 607,38;13605,272;  458,897;36720,692;36,25407
 607,96;13495,051;  511,772;36871,319;35,70803
 608,54;13375,395;  572,022;36834,195;35,30779
 609,12;13387,966;  581,772;37009,306;35,15526
 609,70;13287,306;  623,272;37029,583;34,78527
 610,27;13264,429;  618,147;37100,129;34,66446
 610,85;13179,224;  639,647;37235,255;34,26525
 611,43;13049,781;  642,022;37129,228;34,00578
 612,01;12826,952;  613,272;36936,317;33,62515
 612,59;12802,535;  610,522;36942,288;33,55745
 613,16;12717,902;  576,022;36896,027;33,43028
 613,74;12591,467;  548,397;36754,511;33,26253
 614,32;12441,310;  496,647;36644,558;33,04385
 614,90;12371,671;  465,147;36620,467;32,93159
 615,48;12180,646;  391,897;36263,636;32,86361
 616,05;12070,198;  373,147;36255,281;32,59854
 616,63;11865,625;  373,522;36024,051;32,23544
 617,21;11720,784;  372,522;35958,458;31,88974
 617,79;11647,939;  334,522;35933,120;31,78051
 618,36;11562,698;  357,522;35836,882;31,58224
 618,94;11328,122;  293,397;35420,906;31,41334
 619,52;11132,309;  325,522;35266,002;30,92913
 620,10;11065,944;  308,022;35226,408;30,80876
 620,67;10955,437;  298,897;35064,687;30,65237
 621,25;10811,905;  319,647;34899,335;30,34226
 621,83;10653,643;  294,397;35016,451;29,83477
 622,41;10638,187;  333,022;34899,873;29,81227
 622,98;10443,772;  330,147;34671,574;29,45022
 623,56;10345,172;  315,147;34730,033;29,14444
 624,14;10201,332;  284,272;34555,895;28,93665
 624,72;10144,185;  298,647;34526,145;28,76500
 625,29;10005,359;  276,647;34545,294;28,38954
 625,87; 9982,981;  316,272;34585,335;28,20827
 626,45; 9843,053;  292,147;34435,799;27,97271
 627,02; 9756,499;  284,647;34243,049;27,89251
 627,60; 9667,524;  271,147;34287,234;27,62333
 628,18; 9603,966;  273,022;34316,806;27,40866
 628,76; 9492,811;  274,272;34302,959;27,09049
 629,33; 9465,714;  300,147;34292,413;26,96368
 629,91; 9357,944;  280,397;34270,533;26,70642
 630,49; 9384,345;  299,147;34520,929;26,54800
 631,06; 9290,621;  295,022;34643,763;26,18902
 631,64; 9168,217;  294,897;34409,183;26,01057
 632,22; 9075,481;  253,272;34468,672;25,78432
 632,79; 9166,668;  268,022;34699,058;25,84484
 633,37; 9069,701;  253,772;34782,589;25,53209
 633,95; 9029,034;  259,897;34808,732;25,38186
 634,52; 9018,707;  250,897;34897,794;25,30619
 635,10; 8886,573;  235,397;34998,842;24,88584
 635,68; 8859,502;  259,772;35268,468;24,56455
 636,25; 8843,544;  243,272;35113,872;24,66339
 636,83; 8832,186;  223,022;35356,084;24,50445
 637,41; 8814,383;  239,272;35473,234;24,33763
 637,98; 8822,635;  259,272;35600,066;24,23082
 638,56; 8753,551;  255,272;35582,241;24,05607
 639,13; 8679,711;  244,772;35677,542;23,80548
 639,71; 8679,224;  272,772;35782,364;23,67375
 640,29; 8542,988;  216,147;35514,146;23,59012
 640,86; 8519,358;  225,147;35762,659;23,33931
 641,44; 8471,728;  232,647;35893,298;23,10412
 642,02; 8461,223;  251,272;35770,061;23,11439
 642,59; 8440,468;  236,147;36006,950;22,93580
 643,17; 8345,463;  230,147;35927,713;22,73353
 643,74; 8273,584;  228,647;36038,727;22,46556
 644,32; 8249,829;  260,522;35847,490;22,45009
 644,89; 8228,824;  252,397;35941,629;22,34967
 645,47; 8175,069;  261,522;35917,017;22,19447
 646,05; 8087,189;  239,397;35847,531;22,03932
 646,62; 8010,434;  240,147;35860,294;21,81430
 647,20; 7975,429;  247,897;36040,308;21,58986
 647,77; 7851,424;  214,647;35958,946;21,36502
 648,35; 7790,294;  220,147;35814,335;21,26793
 648,92; 7736,914;  261,147;35895,598;20,97904
 649,50; 7704,034;  212,147;35688,237;21,11813
 650,08; 7639,404;  221,522;35800,250;20,84921
 650,65; 7626,524;  234,772;36064,139;20,63043
 651,23; 7629,269;  208,272;36778,152;20,29265
 651,80; 7783,139;  217,272;37741,541;20,16260
 652,38; 7803,885;  228,522;38047,054;20,03082
 652,95; 7783,005;  210,147;38373,818;19,84311
 653,53; 7841,750;  236,897;38514,331;19,86772
 654,10; 7799,245;  251,647;38729,595;19,61539
 654,68; 7717,990;  216,397;38578,859;19,55451
 655,25; 7754,985;  218,522;38749,247;19,55962
 655,83; 7679,230;  210,272;38847,136;19,33117
 656,40; 7649,225;  231,647;38786,899;19,23883
 656,98; 7536,595;  228,897;38750,788;18,97025
 657,55; 7486,465;  232,022;38653,926;18,88101
 658,13; 7430,710;  209,897;38220,815;18,99668
 658,70; 7342,205;  224,647;37960,078;18,86174
 659,28; 7131,575;  225,772;36934,717;18,81232
 659,85; 6930,195;  218,397;36199,605;18,65362
 660,43; 6872,441;  228,772;36351,494;18,39194
 661,00; 6825,186;  231,772;36462,882;18,19821
 661,58; 6915,431;  211,522;36799,646;18,32264
 662,15; 6870,176;  204,522;36918,159;18,15580
 662,73; 6943,546;  267,397;37316,298;18,01983
 663,30; 6888,916;  227,897;37331,436;17,95252
 663,88; 6865,411;  222,647;37651,075;17,74791
 664,45; 6910,531;  215,272;37843,213;17,79332
 665,03; 6946,526;  229,522;38313,852;17,63719
 665,60; 7042,021;  277,397;38581,365;17,66037
 666,17; 6946,016;  220,647;38735,504;17,46175
 666,75; 6989,636;  233,397;39104,767;17,38102
 667,32; 6995,131;  247,022;39437,031;17,21895
 667,90; 7024,251;  228,897;39616,669;17,25245
 668,47; 7067,621;  251,147;39899,558;17,19230
 669,05; 7070,242;  221,522;40225,571;17,12007
 669,62; 6975,237;  202,397;40229,835;16,92049
 670,19; 6991,482;  209,522;40441,848;16,85699
 670,77; 6976,352;  217,272;40496,237;16,78067
 671,34; 6977,097;  211,522;40562,375;16,76687
 671,92; 7005,967;  205,272;40899,639;16,71164
 672,49; 6949,962;  234,522;40792,902;16,55747
 673,06; 6923,582;  184,897;40920,291;16,54258
 673,64; 6945,077;  203,272;40888,054;16,57083
 674,21; 6874,322;  201,897;40777,443;16,44445
 674,79; 6875,942;  220,522;41113,831;16,27508
 675,36; 6859,437;  229,647;41100,845;16,22118
 675,93; 6820,932;  208,147;41046,483;16,19259
 676,51; 6855,802;  219,897;41191,872;16,19621
 677,08; 6838,922;  222,147;41243,885;16,12992
 677,65; 6866,918;  214,647;41410,149;16,14805
 678,23; 6882,538;  234,772;41534,037;16,09657
 678,80; 6885,783;  214,147;41712,301;16,07695
 679,38; 6868,528;  218,647;41881,689;15,96110
 679,95; 6873,648;  212,897;42105,453;15,89961
 680,52; 6901,643;  215,772;42445,716;15,83206
 681,10; 6976,013;  224,522;42805,105;15,85580
 681,67; 6997,508;  229,272;43003,868;15,82303
 682,24; 6941,253;  202,522;43020,757;15,73799
 682,82; 7041,498;  210,397;43593,645;15,74594
 683,39; 7113,368;  251,522;43870,284;15,73141
 683,96; 7125,488;  221,647;44287,672;15,66704
 684,54; 7170,483;  202,272;44636,686;15,68202
 685,11; 7185,728;  235,522;44930,074;15,55046
 685,68; 7247,474;  217,397;45240,838;15,61426
 686,25; 7252,969;  203,022;45370,851;15,60834
 686,83; 7211,839;  206,397;45587,240;15,43700
 687,40; 7329,709;  195,147;45944,253;15,59498
 687,97; 7413,579;  238,397;46215,767;15,60590
 688,55; 7368,199;  204,772;46199,280;15,57453
 689,12; 7395,069;  183,897;46496,794;15,57055
 689,69; 7408,564;  207,522;46643,807;15,50736
 690,26; 7426,434;  206,522;46709,446;15,52572
 690,84; 7460,304;  217,897;46768,459;15,55815
 691,41; 7486,049;  222,272;46807,473;15,59246
 691,98; 7578,919;  224,272;47205,861;15,65432
 692,56; 7532,539;  205,397;47227,000;15,58250
 693,13; 7519,659;  268,147;47281,013;15,42453
 693,70; 7580,904;  230,897;47426,777;15,57341
 694,27; 7613,150;  202,897;47620,040;15,62779
 694,84; 7578,770;  198,772;47566,179;15,58033
 695,42; 7632,765;  252,397;47824,692;15,51400
 695,99; 7634,260;  222,022;48003,331;15,51284
 696,56; 7623,255;  203,897;47896,344;15,55667
 697,13; 7695,125;  226,647;48260,233;15,54845
 697,71; 7692,370;  188,272;48192,496;15,63216
 698,28; 7738,365;  212,522;48604,385;15,55188
 698,85; 7759,735;  189,272;48724,898;15,59774
 699,42; 7784,230;  196,647;49057,162;15,52907
 699,99; 7881,975;  221,272;48942,425;15,72357
 700,57; 7873,970;  228,147;49058,189;15,65803
 701,14; 7935,340;  218,647;49041,827;15,80539
 701,71; 7904,460;  230,772;49332,091;15,62827
 702,28; 7934,955;  211,897;49441,854;15,68772
 702,85; 7971,576;  219,522;49482,743;15,73599
 703,43; 8036,696;  229,772;49606,006;15,81110
 704,00; 8107,816;  240,022;49743,270;15,89349
 704,57; 8028,936;  236,272;49847,283;15,70753
 705,14; 8165,056;  257,772;50073,422;15,87309
 705,71; 8214,301;  262,897;50113,935;15,95033
 706,28; 8157,296;  226,897;49903,574;15,96403
 706,86; 8304,041;  263,022;50261,712;16,08246
 707,43; 8287,161;  270,647;50155,101;16,07017
 708,00; 8321,031;  241,772;50244,364;16,15768
 708,57; 8279,151;  227,397;50043,503;16,16295
 709,14; 8360,396;  251,147;50339,891;16,18976
 709,71; 8298,391;  239,772;50516,280;16,02860
 710,28; 8402,761;  230,522;50682,418;16,19808
 710,86; 8404,632;  244,647;50780,557;16,14690
 711,43; 8482,502;  257,897;50797,195;16,27368
 712,00; 8435,872;  232,647;50808,209;16,21974
 712,57; 8571,742;  233,272;50921,847;16,45039
 713,14; 8536,987;  238,647;51114,361;16,31100
 713,71; 8612,982;  237,522;51083,749;16,47214
 714,28; 8627,977;  234,522;51161,763;16,48127
 714,85; 8601,097;  210,772;50769,776;16,59512
 715,42; 8690,217;  233,147;51107,290;16,62351
 716,00; 8780,337;  258,022;51180,053;16,73601
 716,57; 8807,332;  213,897;51316,817;16,81594
 717,14; 8863,452;  215,522;51209,455;16,95874
 717,71; 8866,822;  198,772;51251,844;16,97851
 718,28; 8967,067;  238,397;51250,857;17,11086
 718,85; 8928,812;  216,897;51271,246;17,06400
 719,42; 9064,308;  232,522;51434,509;17,24891
 719,99; 9028,803;  217,022;51234,898;17,27195
 720,56; 9117,548;  220,897;51531,286;17,33889
 721,13; 9192,293;  228,647;51663,800;17,42708
 721,70; 9179,788;  213,772;51482,313;17,48834
 722,27; 9264,783;  233,772;51595,702;17,58308
 722,84; 9366,403;  266,647;51653,465;17,70835
 723,41; 9371,648;  204,772;51662,979;17,81422
 723,98; 9412,143;  233,897;52106,742;17,69374
 724,55; 9484,013;  243,647;52190,131;17,78824
 725,12; 9503,383;  182,397;51986,644;17,99271
 725,69; 9530,628;  213,272;52148,283;17,94041
 726,27; 9627,873;  208,897;52227,921;18,10679
 726,84; 9687,868;  226,522;52581,060;18,07168
 727,41; 9789,113;  226,897;52513,573;18,28806
 727,98; 9800,609;  237,147;52776,962;18,20231
 728,55; 9923,604;  249,522;52741,475;18,42965
 729,12; 9928,099;  207,397;52832,489;18,47161
 729,69;10009,969;  234,647;52967,127;18,53757
 730,26;10044,339;  242,022;53259,516;18,48883
 730,82;10061,709;  230,272;53081,279;18,60218
 731,39;10137,454;  214,647;53148,793;18,74557
 731,96;10281,199;  209,772;53419,681;18,92773
 732,53;10325,069;  236,147;53732,820;18,85897
 733,10;10365,689;  240,272;53695,583;18,94184
 733,67;10447,309;  228,897;54010,347;18,99988
 734,24;10491,429;  218,272;53605,235;19,24282
 734,81;10564,549;  243,647;53703,499;19,30589
 735,38;10529,044;  214,022;53489,012;19,36185
 735,95;10645,165;  217,272;53521,526;19,56297
 736,52;10680,285;  252,147;53455,165;19,60065
 737,09;10662,405;  236,772;53278,053;19,65570
 737,66;10758,400;  277,897;53295,317;19,76804
 738,23;10841,270;  228,647;53394,705;19,96127
 738,80;10989,265;  278,272;53729,969;20,03864
 739,37;11013,760;  243,897;53924,107;20,06300
 739,94;11104,630;  237,647;53914,996;20,24501
 740,51;11200,000;  295,772;53858,509;20,35786
 741,07;11166,870;  224,022;53870,148;20,39821
 741,64;11252,490;  271,772;53969,161;20,44926
 742,21;11339,235;  242,022;54225,675;20,55662
 742,78;11348,480;  206,272;53975,063;20,72245
 743,35;11341,975;  229,647;54147,077;20,60990
 743,92;11491,220;  259,522;54364,215;20,75919
 744,49;11546,966;  236,022;54183,979;20,96640
 745,06;11580,586;  226,147;54292,617;21,00089
 745,63;11555,581;  221,397;54261,631;20,97360
 746,19;11662,326;  217,647;54202,519;21,19979
 746,76;11647,196;  224,897;54273,033;21,13357
 747,33;11786,066;  225,397;54181,546;21,42605
 747,90;11884,311;  242,647;54513,560;21,45102
 748,47;11971,181;  240,272;54464,948;21,63389
 749,04;11998,051;  233,772;54465,587;21,69258
 749,61;12074,796;  255,522;54474,725;21,79906
 750,17;12078,041;  259,147;54307,239;21,86737
 750,74;12225,661;  248,522;54279,002;22,16738
 751,31;12208,656;  226,522;54254,391;22,17769
 751,88;12297,026;  203,772;54062,029;22,45385
 752,45;12367,647;  226,272;54285,043;22,45958
 753,02;12393,142;  228,272;54189,806;22,54359
 753,58;12468,387;  220,897;54072,570;22,74301
 754,15;12568,007;  229,897;54223,208;22,85118
 754,72;12485,502;  229,272;53944,972;22,81685
 755,29;12608,247;  210,522;53821,985;23,12514
 755,86;12677,742;  230,147;53900,249;23,19279
 756,42;12728,612;  240,522;53797,637;23,31733
 756,99;12750,482;  209,772;53792,526;23,40438
 757,56;12855,477;  211,272;53686,414;23,64501
 758,13;12930,597;  187,897;53695,803;23,81461
 758,70;13007,967;  207,147;53748,441;23,90831
 759,26;13177,087;  206,772;53792,080;24,20498
 759,83;13254,332;  198,272;53889,093;24,31712
 760,40;13229,202;  207,522;53871,982;24,26500
 760,97;13301,823;  198,397;53763,120;24,46279
 761,53;13293,443;  171,647;53439,509;24,63361
 762,10;13345,313;  185,897;53530,897;24,66851
 762,67;13449,808;  208,397;53401,036;24,89331
 763,24;13403,178;  172,022;53032,674;25,03025
 763,80;13514,548;  209,522;53183,188;25,11630
 764,37;13554,043;  208,147;53113,076;25,22619
 764,94;13598,413;  197,772;52506,590;25,61832
 765,50;13602,783;  185,272;52608,228;25,59472
 766,07;13686,028;  234,147;52650,367;25,66359
 766,64;13680,648;  200,897;52395,755;25,82582
 767,21;13676,018;  212,022;52256,019;25,87041
 767,77;13741,638;  230,897;52181,782;26,00676
 768,34;13780,883;  224,022;52141,921;26,11212
 768,91;13916,628;  210,272;51932,059;26,50016
 769,47;13920,874;  220,522;51984,448;26,46699
 770,04;13941,494;  217,647;51950,836;26,52813
 770,61;13988,864;  209,397;51690,850;26,76589
 771,18;13999,984;  197,397;51606,863;26,84834
 771,74;14123,479;  213,772;51713,627;27,00922
 772,31;14150,474;  225,147;51493,515;27,16163
 772,88;14180,344;  201,647;51172,029;27,42514
 773,44;14104,464;  205,897;51201,792;27,25429
 774,01;14212,709;  219,397;51241,431;27,42602
 774,58;14237,829;  199,647;50952,944;27,65965
 775,14;14330,824;  216,522;51019,708;27,78232
 775,71;14377,944;  206,647;51055,221;27,86961
 776,27;14625,564;  244,397;50806,110;28,44280
 776,84;14605,184;  262,522;50818,623;28,36980
 777,41;14534,555;  213,772;50713,512;28,35813
 777,97;14469,175;  216,022;50489,650;28,35115
 778,54;14504,295;  217,272;50523,664;28,40001
 779,11;14702,665;  247,897;50472,302;28,78037
 779,67;14731,535;  202,272;50453,691;28,91314
 780,24;14715,780;  224,522;50230,329;28,97915
 780,80;14756,525;  244,397;50167,843;29,06876
 781,37;14833,270;  223,522;50194,481;29,23648
 781,94;14896,265;  219,647;49885,620;29,55065
 782,50;15025,510;  226,147;50009,133;29,72775
 783,07;15066,505;  251,397;49965,772;29,80045
 783,63;15107,750;  207,647;49726,410;30,08981
 784,20;15156,995;  240,147;49531,549;30,26258
 784,77;15129,740;  224,772;49460,187;30,27286
 785,33;15190,860;  206,772;49220,451;30,57124
 785,90;15280,856;  216,897;49166,464;30,77445
 786,46;15317,976;  241,272;49074,228;30,87403
 787,03;15299,346;  201,522;48952,741;30,96912
 787,59;15340,591;  226,647;48939,255;31,02676
 788,16;15469,336;  244,772;48804,893;31,35199
 788,73;15517,956;  242,022;48709,782;31,51772
 789,29;15465,701;  216,772;48409,545;31,64153
 789,86;15506,321;  232,147;48263,934;31,80014
 790,42;15590,441;  232,897;48145,447;32,05328
 790,99;15509,311;  232,522;47797,961;32,11741
 791,55;15646,431;  231,147;47829,474;32,38619
 792,12;15689,301;  239,772;47676,488;32,56872
 792,68;15617,546;  225,272;47379,876;32,64215
 793,25;15710,791;  241,272;47168,765;32,96473
 793,81;15722,036;  259,772;46823,778;33,20647
 794,38;15605,907;  201,147;46585,042;33,21144
 794,94;15666,277;  213,522;46600,305;33,31284
 795,51;15687,397;  236,897;46268,819;33,56475
 796,07;15624,267;  233,272;46125,332;33,53738
 796,64;15842,887;  245,522;46230,471;33,91841
 797,20;15775,007;  230,897;45686,234;34,19645
 797,77;15727,252;  210,397;45411,873;34,32820
 798,33;15704,372;  216,772;45246,511;34,39416
 798,90;15741,617;  250,522;45131,650;34,51583
 799,46;15735,987;  217,772;44524,663;35,02438
 800,03;15746,107;  219,522;44510,427;35,05592
 800,59;15824,352;  247,772;44254,815;35,39565
 801,15;15812,722;  238,022;44210,954;35,41884
 801,72;15729,842;  233,397;43915,717;35,47533
 802,28;15720,338;  264,897;43571,481;35,68843
 802,85;15803,708;  220,647;43485,119;36,01815
 803,41;15800,203;  223,772;43268,883;36,18629
 803,98;15695,073;  224,022;42834,521;36,30807
 804,54;15747,193;  225,397;42568,535;36,65717
 805,11;15674,188;  228,772;42457,173;36,57590
 805,67;15723,683;  258,897;42340,562;36,74946
 806,23;15618,428;  235,272;41845,075;36,97003
 806,80;15736,673;  250,897;41867,714;37,21038
 807,36;15683,668;  253,522;41886,852;37,06200
 807,93;15694,663;  270,897;41501,366;37,40866
 808,49;15695,033;  216,397;41202,879;37,76522
 809,05;15668,653;  210,522;41011,518;37,88665
 809,62;15677,523;  237,272;40925,281;37,94792
 810,18;15760,768;  247,647;40927,670;38,13450
 810,74;15653,889;  214,272;40519,433;38,30680
 811,31;15722,384;  206,647;40336,572;38,66376
 811,87;15706,129;  221,897;40158,460;38,77207
 812,44;15774,749;  261,272;40159,849;38,88228
 813,00;15807,619;  200,272;40017,862;39,19712
 813,56;15840,239;  244,522;40061,251;39,16875
 814,13;15860,109;  228,647;39922,014;39,38054
 814,69;15903,229;  232,897;39745,903;39,65867
 815,25;15707,849;  199,647;39333,666;39,62844
 815,82;15840,094;  239,897;39241,680;39,99868
 816,38;15866,339;  245,147;39051,069;40,25466
 816,94;15730,459;  212,522;38692,207;40,32761
 817,51;15783,579;  215,772;38643,596;40,51181
 818,07;15687,324;  213,897;38369,859;40,55311
 818,63;15602,569;  241,397;38202,873;40,46516
 819,20;15761,190;  233,147;38011,636;41,10287
 819,76;15582,810;  204,397;37698,900;41,01511
 820,32;15635,180;  257,147;37606,913;41,17304
 820,89;15632,675;  246,522;37287,802;41,53785
 821,45;15548,920;  225,272;37154,065;41,49512
 822,01;15518,415;  234,647;36927,079;41,65373
 822,57;15678,910;  237,022;36755,467;42,28517
 823,14;15548,030;  208,272;36555,856;42,20297
 823,70;15453,275;  215,647;36270,994;42,26177
 824,26;15604,395;  218,022;36184,508;42,77975
 824,82;15576,515;  232,272;35971,396;42,93402
 825,39;15496,010;  228,147;35791,285;42,93171
 825,95;15638,005;  241,147;35835,048;43,25701
 826,51;15524,875;  227,897;35500,687;43,36765
 827,08;15659,246;  272,397;35594,575;43,56144
 827,64;15657,116;  236,647;35309,964;43,96638
 828,20;15582,611;  220,272;35049,227;44,10795
 828,76;15734,606;  243,772;34963,741;44,61650
 829,32;15749,976;  242,647;34835,879;44,82764
 829,89;15716,471;  212,647;34741,518;44,90105
 830,45;15809,591;  229,022;34673,156;45,23432
 831,01;15778,336;  212,147;34502,295;45,39551
 831,57;15845,206;  232,897;34402,683;45,69039
 832,14;15860,451;  217,272;34294,697;45,90482
 832,70;15913,696;  219,522;34085,460;46,34206
 833,26;15842,941;  197,647;33985,849;46,30402
 833,82;15978,936;  213,397;33944,612;46,73872
 834,38;16049,681;  222,022;34042,126;46,79956
 834,95;16004,551;  208,522;33847,889;46,95698
 835,51;15976,797;  194,522;33723,028;47,07121
 836,07;16055,167;  228,772;33794,666;47,15023
 836,63;16171,412;  235,772;33762,305;47,53143
 837,19;16188,532;  225,522;33579,818;47,85893
 837,75;16091,652;  207,272;33234,832;48,09432
 838,32;16216,147;  253,397;33500,845;48,01196
 838,88;16308,517;  241,647;33440,109;48,39643
 839,44;16351,012;  227,022;33300,122;48,75258
 840,00;16345,007;  233,772;33201,261;48,87007
 840,56;16237,752;  202,147;33049,399;48,81871
 841,12;16324,997;  205,397;32961,038;49,21168
 841,68;16259,367;  202,272;32802,801;49,25409
 842,25;16341,737;  214,397;32811,690;49,47448
 842,81;16332,982;  202,272;32559,828;49,85145
 843,37;16410,227;  197,772;32580,842;50,06460
 843,93;16395,723;  212,272;32547,855;50,04843
 844,49;16460,218;  221,522;32594,494;50,16128
 845,05;16442,338;  190,397;32289,132;50,63109
 845,61;16543,333;  229,022;32463,146;50,61193
 846,17;16555,203;  221,647;32359,409;50,82356
 846,73;16622,823;  235,522;32193,423;51,27778
 847,29;16553,818;  194,147;32062,311;51,33547
 847,86;16503,688;  196,647;32006,200;51,26460
 848,42;16523,433;  200,022;31846,338;51,58076
 848,98;16612,928;  213,522;31706,727;52,07284
 849,54;16625,423;  206,272;31832,115;51,91688
 850,10;16652,793;  223,022;31711,004;52,17791
 850,66;16568,413;  193,647;31528,142;52,25796
 851,22;16590,783;  202,647;31387,156;52,55217
 851,78;16721,279;  245,772;31456,419;52,78810
 852,34;16591,399;  216,647;31208,308;52,83599
 852,90;16637,894;  215,272;31164,196;53,06363
 853,46;16573,264;  202,397;30932,335;53,27335
 854,02;16737,009;  213,522;31022,223;53,63253
 854,58;16578,254;  218,522;30742,737;53,59591
 855,14;16591,124;  200,397;30736,000;53,67743
 855,70;16628,869;  180,022;30510,014;54,23294
 856,26;16675,364;  229,147;30392,902;54,52311
 856,82;16528,234;  201,772;30308,666;54,22832
 857,38;16649,229;  227,897;30256,054;54,68645
 857,94;16626,599;  208,022;30182,318;54,77552
 858,50;16669,594;  222,397;30008,956;55,21684
 859,06;16592,964;  217,147;29734,345;55,47890
 859,62;16669,834;  221,397;29691,483;55,81401
 860,18;16605,955;  219,022;29606,372;55,76186
 860,74;16590,450;  183,522;29445,760;56,06860
 861,30;16548,070;  185,897;29227,774;56,33993
 861,86;16712,815;  228,397;29317,287;56,66912
 862,42;16548,310;  208,522;29164,551;56,42966
 862,98;16700,305;  234,147;29081,064;57,08117
 863,54;16615,800;  227,397;28914,203;57,12871
 864,10;16667,795;  216,022;28889,341;57,37659
 864,66;16571,415;  185,272;28739,855;57,38534
 865,22;16586,410;  215,397;28594,993;57,68586
 865,78;16604,155;  221,147;28450,382;58,03561
 866,34;16595,650;  208,147;28415,645;58,09627
 866,90;16561,520;  221,772;28277,784;58,23974
 867,45;16461,390;  233,772;27989,172;58,46653
 868,01;16402,760;  223,272;27879,061;58,50308
 868,57;16403,131;  231,397;27725,449;58,81903
 869,13;16279,251;  204,647;27746,463;58,36436
 869,69;16393,871;  197,897;27460,851;59,40652
 870,25;16349,866;  202,397;27389,240;59,39442
 870,81;16377,611;  208,647;27389,878;59,48577
 871,37;16465,356;  219,272;27306,892;59,97605
 871,93;16448,976;  230,647;27169,530;60,20416
 872,49;16302,221;  233,897;26892,294;60,27491
 873,04;16255,216;  200,897;26664,557;60,66553
 873,60;16297,086;  191,522;26735,696;60,67457
 874,16;16325,331;  226,897;26601,834;61,03686
 874,72;16398,081;  212,272;26468,459;61,64570
 875,28;16374,206;  227,022;26342,209;61,83063
 875,84;16344,206;  217,272;26326,084;61,76816
 876,40;16398,456;  215,022;26211,959;62,25131
 876,95;16393,831;  219,897;26214,209;62,22105
 877,51;16523,081;  232,522;26216,209;62,69533
 878,07;16579,081;  251,147;26187,959;62,95274
 878,63;16559,956;  213,897;26115,209;63,10900
 879,19;16691,081;  228,897;26323,209;63,08725
 879,75;16801,956;  222,897;26282,459;63,61987
 880,30;16755,081;  211,897;26304,834;63,40100
 880,86;16881,331;  252,147;26477,834;63,40800
 881,42;17010,081;  196,647;26447,459;64,04920
 881,98;17048,831;  228,397;26470,959;64,09601
 882,54;17267,456;  207,022;26702,959;64,38887
 883,09;17456,581;  214,272;26697,834;65,10570
 883,65;17413,456;  195,647;26812,209;64,68833
 884,21;17646,331;  240,772;26956,459;65,15108
 884,77;17809,331;  205,272;26994,834;65,71238
 885,32;17858,831;  215,897;27151,834;65,49961
 885,88;18108,331;  253,147;27413,334;65,74028
 886,44;18179,081;  232,522;27429,209;65,98803
 887,00;18336,206;  234,397;27392,834;66,65262
 887,56;18402,831;  223,272;27562,709;66,49573
 888,11;18582,206;  217,647;27461,959;67,40695
 888,67;18747,456;  244,772;27707,459;67,37390
 889,23;18779,706;  242,897;27733,709;67,42911
 889,79;18866,956;  215,272;27678,084;67,91615
 890,34;18772,706;  223,147;27513,959;67,96998
 890,90;19003,456;  268,772;27625,209;68,48364
 891,46;18969,081;  214,147;27675,459;68,29584
 892,01;18988,706;  251,022;27653,709;68,37900
 892,57;19079,206;  245,022;27529,834;69,02809
 893,13;18969,081;  212,522;27317,584;69,19947
 893,69;19046,956;  214,272;27253,209;69,65024
 894,24;19029,831;  228,022;27190,334;69,73367
 894,80;18984,706;  235,897;27069,834;69,86977
 895,36;19009,581;  230,397;26973,834;70,21979
 895,91;18905,456;  228,272;26729,959;70,47545
 896,47;18882,956;  222,272;26672,209;70,55096
 897,03;18895,081;  210,772;26426,959;71,27012
 897,58;18830,706;  235,022;26363,084;71,17131
 898,14;18877,081;  228,647;26120,084;72,02549
 898,70;18791,831;  195,272;25985,334;72,10746
 899,25;18805,206;  220,522;26025,959;72,01848
 899,81;18764,081;  230,647;25833,584;72,38792
 900,37;18688,956;  196,647;25623,959;72,72617
 900,92;18759,581;  218,897;25642,084;72,92824
 901,48;18757,706;  210,897;25443,459;73,50347
 902,03;18689,331;  217,647;25365,084;73,45355
 902,59;18570,331;  214,647;25122,709;73,69375
 903,15;18606,081;  233,147;25071,959;73,96865
 903,70;18557,456;  226,647;24830,084;74,50507
 904,26;18540,331;  196,147;24751,709;74,70480
 904,82;18535,331;  224,772;24692,334;74,83606
 905,37;18488,831;  218,647;24568,584;75,03175
 905,93;18363,831;  206,022;24431,209;74,95426
 906,48;18315,956;  219,272;24324,709;75,07304
 907,04;18452,706;  234,897;24439,209;75,26679
 907,60;18303,956;  215,647;24090,584;75,76275
 908,15;18241,706;  203,272;23895,334;76,13704
 908,71;18235,331;  236,147;24052,084;75,57622
 909,26;18178,081;  211,147;23831,584;76,06521
 909,82;18164,081;  240,272;23757,584;76,21538
 910,37;18169,956;  258,897;23672,334;76,49906
 910,93;18093,831;  204,522;23450,334;76,95713
 911,48;18050,081;  205,772;23314,084;77,22030
 912,04;18032,081;  211,272;23190,709;77,55111
 912,60;18036,956;  232,897;23184,584;77,57190
 913,15;17930,706;  219,647;23045,334;77,59267
 913,71;17923,456;  218,022;22883,834;78,11515
 914,26;17897,706;  201,772;22870,334;78,06377
 914,82;17835,331;  217,022;22759,584;78,15575
 915,37;17765,956;  205,522;22601,459;78,40902
 915,93;17815,956;  247,772;22519,959;78,87947
 916,48;17814,831;  203,272;22453,209;79,15330
 917,04;17751,081;  235,397;22319,334;79,31414
 917,59;17829,956;  244,772;22180,459;80,16701
 918,15;17687,331;  198,397;22052,959;80,02418
 918,70;17672,456;  214,772;21989,584;80,17375
 919,26;17645,706;  222,272;21880,584;80,44687
 919,81;17622,706;  208,397;21695,584;81,04509
 920,37;17608,581;  211,772;21550,334;81,52756
 920,92;17666,206;  233,022;21502,584;81,96306
 921,48;17584,206;  200,022;21338,459;82,23968
 922,03;17540,206;  203,272;21372,709;81,89606
 922,59;17465,456;  202,272;21231,459;82,09154
 923,14;17457,331;  191,647;21121,209;82,49424
 923,69;17467,581;  213,272;20985,459;83,06448
 924,25;17501,206;  236,147;21041,834;82,98240
 924,80;17340,706;  223,147;20689,959;83,63569
 925,36;17242,706;  210,897;20678,959;83,21163
 925,91;17240,206;  207,022;20544,334;83,75337
 926,47;17261,831;  201,147;20532,959;83,91128
 927,02;17205,706;  241,897;20449,959;83,94575
 927,57;17094,331;  225,772;20289,834;84,07350
 928,13;17127,081;  222,772;20254,584;84,38732
 928,68;17076,081;  213,022;20173,334;84,48294
 929,24;16884,206;  199,397;19971,834;84,38418
 929,79;16918,081;  207,522;19856,959;85,04345
 930,34;16899,831;  216,147;19728,459;85,50337
 930,90;16840,706;  205,647;19757,209;85,08302
 931,45;16879,081;  237,772;19578,834;86,04134
 932,01;16804,456;  228,272;19640,084;85,39225
 932,56;16676,206;  234,022;19455,459;85,54087
 933,11;16740,581;  235,772;19334,709;86,41742
 933,67;16645,831;  215,647;19160,834;86,72484
 934,22;16706,456;  216,772;19085,834;87,39006
 934,77;16556,081;  248,522;18974,334;87,08599
 935,33;16502,456;  228,397;18956,709;86,89549
 935,88;16492,706;  234,772;18826,709;87,44615
 936,43;16485,331;  200,647;18710,834;87,97687
 936,99;16454,456;  215,522;18576,959;88,44043
 937,54;16356,456;  198,647;18466,959;88,44719
 938,09;16458,331;  207,897;18400,209;89,32583
 938,65;16273,456;  210,272;18317,459;88,71165
 939,20;16269,581;  202,522;18263,959;88,95781
 939,75;16262,956;  207,272;18139,959;89,53306
 940,31;16160,331;  194,147;18032,584;89,50439
 940,86;16271,956;  207,397;18008,334;90,24558
 941,41;16105,706;  253,147;17864,709;90,01223
 941,96;16014,331;  198,022;17905,334;89,32078
 942,52;15994,331;  220,897;17687,584;90,30581
 943,07;15895,831;  189,772;17574,584;90,34356
 943,62;15877,331;  210,022;17599,334;90,09735
 944,18;15924,706;  194,897;17519,834;90,79288
 944,73;15804,081;  203,147;17382,209;90,81365
 945,28;15678,331;  168,522;17236,084;90,87302
 945,83;15754,706;  216,647;17201,959;91,47938
 946,39;15812,331;  213,022;17154,334;92,07852
 946,94;15775,831;  227,772;17045,584;92,44995
 947,49;15596,706;  204,272;16969,334;91,81257
 948,04;15615,581;  217,272;16936,834;92,09756
 948,59;15664,581;  223,897;16853,709;92,84942
 949,15;15644,581;  204,897;16784,209;93,12620
 949,70;15540,581;  213,647;16669,209;93,14136
 950,25;15495,081;  214,022;16527,334;93,67233
 950,80;15407,331;  176,772;16457,959;93,54698
 951,36;15455,206;  166,647;16458,709;93,84054
 951,91;15444,706;  231,397;16354,959;94,35452
 952,46;15198,206;  184,647;16232,584;93,55445
 953,01;15309,956;  216,897;16222,834;94,29663
 953,56;15170,831;  182,647;16112,209;94,09037
 954,11;15197,081;  210,397;16000,209;94,91363
 954,67;15122,456;  194,522;15983,959;94,54380
 955,22;15082,206;  186,897;15812,334;95,32731
 955,77;15108,831;  228,522;15775,459;95,71216
 956,32;14963,956;  237,022;15673,959;95,40062
 956,87;14920,831;  193,647;15575,334;95,74492
 957,42;14935,831;  203,772;15448,959;96,63416
 957,98;14821,081;  190,522;15384,334;96,29288
 958,53;14933,581;  219,397;15384,584;97,02606
 959,08;14823,831;  199,022;15220,209;97,36121
 959,63;14789,581;  189,647;15203,334;97,24416
 960,18;14888,831;  205,272;15059,709;98,84965
 960,73;14798,081;  203,647;15075,084;98,13735
 961,28;14747,706;  183,147;14963,334;98,54110
 961,83;14733,081;  229,897;14939,334;98,59782
 962,39;14706,081;  196,897;14815,584;99,25094
 962,94;14658,831;  213,647;14778,459;99,17865
 963,49;14554,706;  212,272;14666,709;99,22513
 964,04;14562,706;  231,397;14566,584;99,97295
 964,59;14510,206;  182,897;14460,584;100,34755
 965,14;14569,331;  222,022;14407,834;101,13844
 965,69;14408,456;  206,772;14288,209;100,85394
 966,24;14332,456;  200,272;14204,084;100,91669
 966,79;14226,581;  218,147;14146,084;100,57795
 967,34;14168,956;  183,772;14097,084;100,51657
 967,89;14140,581;  216,147;14001,959;101,00554
 968,44;14103,581;  214,022;13888,959;101,56945
 968,99;14090,206;  220,522;13840,959;101,82995
 969,55;13987,831;  219,022;13754,959;101,72040
 970,10;13955,956;  214,522;13705,834;101,85395
 970,65;13787,831;  218,522;13561,709;101,69466
 971,20;13703,581;  203,272;13435,459;102,02629
 971,75;13648,331;  181,397;13312,709;102,55589
 972,30;13598,831;  213,397;13295,084;102,32192
 972,85;13554,831;  191,897;13248,084;102,34944
 973,40;13443,956;  194,272;13105,459;102,62173
 973,95;13424,081;  215,647;12940,584;103,79960
 974,50;13352,831;  216,772;12899,709;103,57269
 975,05;13226,706;  218,522;12885,584;102,69298
 975,60;13256,456;  232,147;12789,834;103,71583
 976,15;13182,206;  205,272;12644,459;104,32301
 976,70;13102,456;  217,772;12546,084;104,51296
 977,25;13078,706;  210,272;12536,834;104,39597
 977,80;13020,831;  202,647;12444,584;104,70715
 978,35;12858,831;  214,397;12210,959;105,40048
 978,89;12839,331;  201,647;12198,709;105,33982
 979,44;12791,081;  211,522;12186,834;105,04577
 979,99;12718,456;  203,897;11992,584;106,15736
 980,54;12652,331;  233,897;11982,084;105,70511
 981,09;12611,831;  227,272;11809,334;106,92879
 981,64;12518,831;  209,647;11653,209;107,56427
 982,19;12512,956;  243,522;11684,334;107,24268
 982,74;12329,206;  223,522;11617,459;106,24672
 983,29;12205,081;  195,772;11414,959;107,04259
 983,84;12180,206;  230,647;11298,584;107,96555
 984,39;12190,081;  250,647;11195,834;109,08387
 984,94;12043,081;  199,647;11162,334;108,03404
 985,49;12088,456;  246,397;11103,709;109,06990
 986,03;11922,081;  240,272;11042,209;108,14550
 986,58;11876,581;  245,897;10848,084;109,70080
 987,13;11747,581;  216,522;10773,834;109,22344
 987,68;11666,206;  232,272;10673,959;109,50274
 988,23;11736,206;  231,772;10604,209;110,91351
 988,78;11641,831;  218,022;10480,209;111,31944
 989,33;11532,831;  215,897;10342,209;111,75770
 989,88;11516,706;  233,647;10234,584;112,82002
 990,42;11342,206;  207,647;10215,834;111,25450
 990,97;11209,706;  212,147;10071,084;111,54913
 991,52;11204,331;  235,147; 9989,209;112,45760
 992,07;11171,206;  246,772; 9876,834;113,44095
 992,62;11038,581;  219,772; 9786,084;113,09279
 993,17;10964,331;  223,772; 9700,459;113,33664
 993,71;10913,456;  228,022; 9622,084;113,74668
 994,26;10818,206;  187,147; 9476,709;114,44090
 994,81;10773,206;  245,772; 9394,334;115,07201
 995,36;10636,581;  207,897; 9329,709;114,32689
 995,91;10613,081;  221,647; 9250,959;115,08555
 996,45;10444,706;  222,647; 9172,584;114,21375
 997,00;10383,831;  219,147; 8976,834;116,06585
 997,55;10376,331;  225,772; 8982,834;115,91283
 998,10;10229,331;  244,397; 8873,334;115,71453
 998,65;10166,831;  228,022; 8756,959;116,53045
 999,19;10040,456;  237,897; 8633,334;116,76055
 999,74; 9956,456;  239,522; 8568,209;116,66826
1000,29; 9894,956;  235,397; 8497,084;116,91993
1000,84; 9728,081;  224,772; 8411,084;116,08779
1001,38; 9595,706;  220,147; 8316,959;115,79321
1001,93; 9583,581;  227,897; 8253,334;116,57538
1002,48; 9463,956;  202,397; 8117,834;117,00629
1003,03; 9378,706;  225,772; 8078,334;116,55984
1003,57; 9241,706;  233,522; 7930,334;117,03786
1004,12; 9226,831;  235,397; 7915,959;117,06739
1004,67; 9076,706;  217,897; 7763,709;117,40034
1005,22; 8946,331;  209,397; 7650,209;117,41909
1005,76; 8793,831;  205,522; 7540,459;117,08770
1006,31; 8744,956;  244,647; 7497,084;117,20624
1006,86; 8609,206;  211,522; 7323,334;118,08079
1007,40; 8490,456;  209,397; 7227,084;118,00268
1007,95; 8430,706;  216,522; 7204,709;117,54385
1008,50; 8276,331;  227,397; 7034,459;118,24387
1009,04; 8121,331;  232,272; 6943,334;117,55306
1009,59; 7959,581;  228,647; 6828,584;117,13648
1010,14; 7843,706;  206,022; 6734,709;116,98652
1010,68; 7755,331;  225,397; 6630,084;117,56911
1011,23; 7710,206;  212,147; 6544,959;118,40015
1011,78; 7607,956;  228,647; 6451,584;118,58241
1012,32; 7489,706;  219,397; 6317,084;119,23060
1012,87; 7447,706;  243,147; 6347,459;118,02409
1013,42; 7340,831;  205,147; 6236,209;118,31554
1013,96; 7383,956;  248,772; 6186,209;120,17279
1014,51; 7325,956;  172,897; 6127,209;120,13241
1015,06; 7312,831;  201,647; 6081,334;120,94494
1015,60; 7390,706;  260,897; 6193,209;120,18600
1016,15; 7318,456;  218,522; 6144,834;119,80358
1016,69; 7378,831;  213,397; 6149,834;120,70260
1017,24; 7334,706;  197,147; 6175,584;119,38837
1017,79; 7464,581;  237,647; 6213,959;120,92631
1018,33; 7510,081;  200,522; 6216,834;121,49567
1018,88; 7544,956;  233,647; 6250,334;121,51719
1019,42; 7595,206;  213,397; 6211,334;123,07246
1019,97; 7587,081;  205,147; 6211,084;122,91061
1020,51; 7680,456;  214,897; 6286,084;122,96704
1021,06; 7655,956;  183,147; 6306,959;122,02871
1021,61; 7652,206;  188,397; 6276,584;122,59493
1022,15; 7621,706;  156,897; 6195,709;123,61386
1022,70; 7664,081;  212,647; 6213,709;124,16858
1023,24; 7636,206;  212,022; 6153,584;124,95340
1023,79; 7539,081;  209,147; 6105,834;124,30597
1024,33; 7501,706;  212,272; 6004,209;125,85485
1024,88; 7410,581;  225,772; 5988,459;124,67810
1025,42; 7364,206;  219,772; 5922,584;125,27914
1025,97; 7279,831;  199,897; 5814,334;126,10229
1026,51; 7163,081;  177,772; 5700,209;126,48960
1027,06; 7111,581;  191,772; 5676,834;126,15735
1027,60; 7021,581;  209,397; 5550,709;127,53765
1028,15; 6917,581;  227,897; 5451,834;128,05828
1028,69; 6780,331;  184,772; 5357,959;127,49508
1029,24; 6706,331;  197,772; 5283,834;127,96853
1029,78; 6587,706;  194,647; 5201,084;127,69678
1030,33; 6447,831;  189,147; 5094,209;127,59642
1030,87; 6397,581;  203,022; 5062,959;127,46171
1031,42; 6280,206;  187,022; 4911,084;128,98187
1031,96; 6189,581;  211,397; 4902,959;127,42417
1032,51; 6148,581;  198,022; 4839,209;128,21200
1033,05; 6061,331;  217,272; 4751,834;128,87813
1033,60; 5888,456;  180,022; 4623,459;128,46888
1034,14; 5814,831;  209,272; 4589,334;127,97898
1034,69; 5745,706;  198,272; 4512,709;128,57839
1035,23; 5687,831;  197,897; 4445,209;129,25666
1035,77; 5637,706;  193,272; 4417,584;128,88332
1036,32; 5521,706;  190,147; 4352,209;128,09897
1036,86; 5480,706;  195,022; 4310,084;128,44724
1037,41; 5400,956;  210,397; 4217,709;129,52719
1037,95; 5368,706;  175,897; 4189,084;129,39364
1038,50; 5257,331;  186,522; 4116,209;129,03849
1039,04; 5270,956;  216,022; 4050,959;131,81269
1039,58; 5189,331;  197,022; 3977,084;132,06949
1040,13; 5095,831;  209,897; 3952,084;130,56359
1040,67; 5108,081;  230,272; 3881,334;133,59972
1041,21; 4958,831;  237,397; 3795,834;132,68280
1041,76; 4872,456;  186,772; 3728,709;132,29156
1042,30; 4818,081;  200,897; 3677,459;132,80890
1042,85; 4764,831;  211,272; 3635,334;132,98704
1043,39; 4696,081;  207,897; 3600,959;132,27532
1043,93; 4674,081;  218,272; 3553,209;133,60998
1044,48; 4605,831;  195,522; 3477,959;134,36080
1045,02; 4487,456;  191,272; 3456,709;131,56535
1045,56; 4502,706;  217,397; 3440,959;132,93706
1046,11; 4436,081;  207,272; 3359,834;134,13880
1046,65; 4348,456;  219,522; 3314,834;133,39313
1047,19; 4262,206;  186,397; 3271,459;132,11432
1047,74; 4233,456;  191,022; 3189,709;134,80679
1048,28; 4150,081;  226,647; 3138,709;134,73043
1048,82; 4170,456;  219,397; 3179,834;133,46201
1049,37; 4084,831;  214,147; 3110,834;133,62451
1049,91; 4076,331;  199,522; 3054,334;135,79909
1050,45; 3962,206;  228,522; 3025,084;133,50978
1050,99; 3955,331;  205,647; 2946,209;136,82171
1051,54; 3838,706;  195,147; 2910,959;134,16093
1052,08; 3837,581;  218,397; 2873,834;136,29334
1052,62; 3760,206;  216,022; 2846,334;134,74385
1053,16; 3718,081;  202,897; 2788,459;135,95434
1053,71; 3663,456;  215,397; 2736,834;136,74975
1054,25; 3576,831;  228,897; 2712,334;134,81049
1054,79; 3532,081;  215,647; 2690,209;134,02104
1055,33; 3512,456;  201,647; 2626,459;136,53878
1055,88; 3478,831;  210,897; 2605,959;136,44464
1056,42; 3453,581;  236,522; 2617,084;135,13862
1056,96; 3378,956;  228,147; 2561,209;135,05036
1057,50; 3346,206;  211,897; 2510,709;136,34472
1058,05; 3239,081;  209,022; 2403,084;138,10269
1058,59; 3223,831;  229,522; 2407,584;137,47582
1059,13; 3161,831;  192,522; 2366,209;136,60240
1059,67; 3139,956;  223,272; 2342,834;137,60785
1060,21; 3076,206;  204,897; 2264,334;139,42202
1060,76; 3075,581;  230,522; 2288,584;138,23970
1061,30; 3027,456;  234,397; 2277,834;136,68436
1061,84; 2998,581;  206,397; 2207,584;139,52637
1062,38; 2906,581;  202,897; 2156,209;138,41535
1062,92; 2925,581;  246,022; 2150,584;140,69160
1063,46; 2839,956;  231,647; 2133,334;137,15762
1064,01; 2799,206;  192,647; 2088,959;137,45411
1064,55; 2772,456;  218,647; 2059,084;138,76099
1065,09; 2692,706;  183,272; 2037,209;135,35701
1065,63; 2752,456;  241,022; 2018,459;141,29523
1066,17; 2708,206;  225,647; 2005,209;139,50392
1066,71; 2664,831;  232,772; 1964,459;140,44447
1067,25; 2607,581;  217,272; 1924,334;140,02471
1067,80; 2616,831;  227,272; 1927,084;140,57782
1068,34; 2591,581;  240,397; 1911,334;140,71049
1068,88; 2515,331;  207,272; 1840,459;141,32238
1069,42; 2529,706;  246,522; 1900,959;138,00366
1069,96; 2495,081;  217,772; 1820,709;142,07100
1070,50; 2497,956;  247,397; 1834,334;141,81777
1071,04; 2417,706;  207,147; 1765,959;141,81047
1071,58; 2377,206;  221,272; 1785,209;137,85298
1072,12; 2382,706;  213,897; 1749,959;141,19278
1072,66; 2343,581;  227,272; 1722,084;141,57691
1073,21; 2338,581;  235,897; 1719,959;141,68435
1073,75; 2289,456;  226,272; 1690,459;140,90985
1074,29; 2223,581;  228,147; 1655,334;139,81585
1074,83; 2212,956;  229,147; 1653,209;139,30634
1075,37; 2211,956;  225,022; 1633,709;141,04863
1075,91; 2203,706;  227,022; 1588,459;145,19097
1076,45; 2165,956;  231,397; 1595,209;141,84937
1076,99; 2138,331;  232,647; 1559,584;143,61523
1077,53; 2096,081;  215,647; 1523,209;143,81220
1078,07; 2112,081;  227,272; 1520,334;145,76321
1078,61; 2055,206;  217,772; 1533,709;139,62930
1079,15; 2033,456;  217,772; 1481,334;143,69565
1079,69; 2034,956;  228,147; 1464,834;146,10072
1080,23; 2024,331;  238,897; 1469,334;145,10565
1080,77; 1997,581;  255,522; 1440,334;147,03249
1081,31; 1924,206;  211,522; 1424,834;141,15773
1081,85; 1982,331;  234,147; 1415,084;148,03361
1082,39; 1915,956;  225,647; 1392,084;144,91213
1082,93; 1879,581;  225,897; 1380,209;143,26141
1083,47; 1859,706;  209,522; 1358,209;143,65825
1084,01; 1856,331;  236,522; 1359,834;144,19935
1084,55; 1782,956;  210,147; 1312,334;142,69889
1085,09; 1785,706;  230,647; 1335,459;140,75324
1085,63; 1779,581;  223,647; 1280,459;147,22899
1086,17; 1748,081;  217,647; 1301,959;141,14329
1086,71; 1707,956;  213,772; 1290,209;138,80828
1087,24; 1722,831;  247,022; 1269,209;144,37756
1087,78; 1693,706;  226,647; 1230,334;146,16695
1088,32; 1630,331;  216,522; 1228,459;139,71311
1088,86; 1662,206;  247,897; 1216,334;146,04034
1089,40; 1617,456;  230,647; 1210,459;141,53824
1089,94; 1587,956;  204,397; 1166,834;143,75576
1090,48; 1578,956;  233,147; 1177,834;142,46080
1091,02; 1564,956;  231,647; 1163,584;143,06854
1091,56; 1552,706;  226,647; 1158,209;142,34787
1092,10; 1503,206;  215,897; 1113,084;143,48276
1092,63; 1538,206;  243,272; 1153,459;142,27117
1093,17; 1494,831;  232,147; 1103,709;144,87594
1093,71; 1458,081;  220,772; 1078,459;144,26109
1094,25; 1485,956;  248,397; 1107,459;144,05929
1094,79; 1446,206;  225,647; 1062,084;145,92356
1095,33; 1427,206;  229,897; 1060,584;144,13475
1095,87; 1412,456;  222,147; 1027,959;147,71543
1096,40; 1357,706;  215,272; 1030,334;140,16525
1096,94; 1370,081;  228,147; 1026,959;142,95399
1097,48; 1362,081;  217,897; 1002,084;145,90699
1098,02; 1331,706;  223,272; 1016,584;139,72229
1098,56; 1284,831;  194,147;  960,709;142,28251
1099,10; 1282,331;  200,397;  966,959;141,14105
1099,63; 1285,706;  202,022;  958,084;143,33264
1100,17; 1266,456;  229,272;  955,709;142,77682
1100,71; 1290,206;  242,397;  960,334;145,94716

