
Integration time [ms]: 130,000
Averaging Nr. [scans]: 8
Smoothing Nr. [pixels]: 0
Data measured with spectrometer [name]: 2009305U1
Wave   ;Sample   ;Dark     ;Reference;Reflectance
[nm]   ;[counts] ;[counts] ;[counts] ;[%]

 175,72;  220,398;  210,396;  218,316;126,29139
 176,32;  248,195;  240,998;  232,879; 0,00000
 176,92;  273,219;  269,139;  280,014;37,51892
 177,52;  285,433;  269,016;  290,032;78,11610
 178,12;  262,216;  261,249;  235,645; 0,00000
 178,72;  280,044;  279,243;  265,313; 0,00000
 179,32;  261,807;  285,873;  269,707; 0,00000
 179,92;  273,527;  264,882;  266,541;521,08486
 180,52;  271,273;  254,907;  264,527;170,13534
 181,12;  268,292;  275,258;  261,354; 0,00000
 181,73;  294,623;  295,635;  291,278; 0,00000
 182,33;  386,157;  392,023;  390,552; 0,00000
 182,93;  292,630;  290,891;  290,094; 0,00000
 183,53;  262,475;  252,740;  249,295; 0,00000
 184,13;  249,004;  255,743;  244,797; 0,00000
 184,73;  287,748;  311,487;  290,606; 0,00000
 185,33;  285,843;  259,857;  362,051;25,42849
 185,93;  305,365;  252,591;  372,759;43,91661
 186,53;  312,822;  271,100;  394,921;33,69548
 187,13;  333,887;  280,617;  417,713;38,85621
 187,73;  296,874;  267,969;  383,120;25,10214
 188,33;  297,989;  262,085;  379,270;30,63880
 188,93;  311,990;  286,806;  384,626;25,74441
 189,53;  304,017;  271,660;  395,440;26,14130
 190,13;  337,839;  304,874;  431,995;25,93193
 190,73;  280,709;  229,398;  369,339;36,66575
 191,34;  319,585;  281,048;  425,902;26,60424
 191,94;  297,235;  245,200;  379,248;38,81780
 192,54;  318,185;  272,255;  401,659;35,49341
 193,14;  309,734;  279,240;  400,728;25,10046
 193,74;  310,718;  283,487;  398,023;23,77462
 194,34;  308,897;  271,994;  393,574;30,35233
 194,94;  272,431;  233,615;  360,415;30,61215
 195,54;  250,726;  207,483;  327,520;36,02468
 196,14;  280,782;  241,498;  367,827;31,09700
 196,74;  285,439;  229,979;  361,924;42,03244
 197,34;  247,584;  223,133;  353,209;18,79712
 197,94;  287,467;  238,492;  374,995;35,87808
 198,54;  295,644;  248,373;  395,655;32,09578
 199,14;  283,202;  236,139;  373,103;34,36162
 199,74;  268,005;  218,639;  369,166;32,79539
 200,34;  259,626;  209,142;  378,480;29,81279
 200,94;  296,758;  240,756;  418,613;31,48739
 201,54;  282,587;  226,886;  420,492;28,77025
 202,14;  315,783;  271,896;  484,499;20,64249
 202,74;  294,984;  225,639;  446,775;31,35891
 203,34;  264,014;  212,028;  464,488;20,59187
 203,94;  254,172;  184,773;  456,187;25,56968
 204,54;  310,317;  272,994;  537,543;14,10831
 205,14;  301,939;  213,389;  534,306;27,59275
 205,74;  343,658;  262,653;  630,737;22,00738
 206,34;  319,341;  222,771;  623,514;24,09787
 206,94;  325,417;  234,143;  659,012;21,48290
 207,54;  314,571;  205,895;  680,248;22,91032
 208,14;  344,678;  217,272;  741,640;24,29712
 208,74;  344,168;  220,388;  808,040;21,06350
 209,34;  349,513;  219,640;  874,385;19,83558
 209,94;  372,268;  241,515;  973,088;17,87297
 210,54;  378,865;  216,025; 1043,813;19,67179
 211,14;  394,162;  232,389; 1123,837;18,14727
 211,73;  415,862;  225,260; 1227,319;19,02103
 212,33;  437,705;  244,880; 1337,301;17,65118
 212,93;  438,812;  214,263; 1401,040;18,92097
 213,53;  420,971;  200,639; 1439,478;17,78542
 214,13;  468,981;  222,534; 1556,163;18,47945
 214,73;  434,908;  206,396; 1548,999;17,02004
 215,33;  427,268;  190,890; 1567,963;17,16531
 215,93;  456,401;  218,027; 1711,643;15,95953
 216,53;  435,693;  160,012; 1737,742;17,47328
 217,13;  498,530;  225,275; 1923,954;16,08634
 217,73;  504,382;  221,528; 2112,518;14,95800
 218,33;  484,951;  167,786; 2239,258;15,31108
 218,93;  557,812;  199,053; 2506,144;15,55028
 219,53;  593,254;  198,161; 2773,446;15,34170
 220,13;  598,988;  177,665; 3033,730;14,75188
 220,73;  662,999;  203,390; 3305,088;14,81799
 221,32;  720,543;  205,638; 3663,540;14,89068
 221,92;  809,941;  208,164; 4007,370;15,83955
 222,52;  824,778;  187,903; 4323,660;15,39922
 223,12;  923,062;  194,154; 4760,973;15,96094
 223,72;  998,240;  200,280; 5128,535;16,19153
 224,32; 1080,800;  214,156; 5474,067;16,47640
 224,92; 1126,524;  193,656; 5752,224;16,78252
 225,52; 1221,720;  222,019; 6073,075;17,08584
 226,12; 1309,214;  198,524; 6387,469;17,94635
 226,72; 1353,390;  175,273; 6610,016;18,30869
 227,31; 1423,489;  166,273; 6944,422;18,54807
 227,91; 1581,692;  207,517; 7291,964;19,39707
 228,51; 1687,273;  203,632; 7649,427;19,92589
 229,11; 1786,120;  196,647; 8042,249;20,25940
 229,71; 1868,108;  195,012; 8218,633;20,85213
 230,31; 2018,758;  188,284; 8643,382;21,64935
 230,91; 2131,412;  180,627; 8963,002;22,21250
 231,51; 2341,980;  179,152; 9286,925;23,74706
 232,10; 2426,352;  186,911; 9647,102;23,67226
 232,70; 2630,772;  206,494; 9881,699;25,05660
 233,30; 2773,742;  217,276;10157,830;25,71754
 233,90; 2909,216;  189,276;10367,361;26,72349
 234,50; 3075,842;  178,402;10504,128;28,06040
 235,10; 3243,274;  174,656;10742,474;29,03738
 235,70; 3427,501;  205,642;10800,230;30,41043
 236,29; 3535,049;  201,138;10851,118;31,30439
 236,89; 3681,861;  200,253;10842,205;32,71587
 237,49; 3784,951;  210,899;10888,922;33,47110
 238,09; 3878,466;  194,146;10697,764;35,07668
 238,69; 3994,710;  235,373;10613,264;36,22448
 239,29; 3971,451;  188,019;10456,325;36,84573
 239,89; 4004,638;  202,004;10223,049;37,94648
 240,48; 4018,190;  197,396; 9924,045;39,28171
 241,08; 4012,766;  196,143; 9669,418;40,28831
 241,68; 4012,711;  207,521; 9499,811;40,94996
 242,28; 3981,221;  186,025; 9146,689;42,35396
 242,88; 3947,034;  237,159; 8937,851;42,63885
 243,48; 3884,648;  240,024; 8776,360;42,69541
 244,07; 3820,791;  226,642; 8509,621;43,39199
 244,67; 3822,284;  208,523; 8425,390;43,97980
 245,27; 3777,862;  213,760; 8203,694;44,60740
 245,87; 3766,269;  220,783; 8223,912;44,30125
 246,47; 3725,638;  201,510; 8183,038;44,15355
 247,06; 3693,813;  197,519; 8231,528;43,51867
 247,66; 3657,277;  186,272; 8290,421;42,82997
 248,26; 3692,390;  221,762; 8397,555;42,45005
 248,86; 3721,369;  230,261; 8601,163;41,70528
 249,46; 3620,302;  165,402; 8693,612;40,51144
 250,05; 3746,834;  220,770; 9050,795;39,93266
 250,65; 3736,722;  185,883; 9372,006;38,65438
 251,25; 3787,173;  189,143; 9755,465;37,61143
 251,85; 3907,473;  204,503;10364,409;36,44689
 252,44; 3932,017;  174,763;10836,071;35,24196
 253,04; 4069,874;  207,015;11466,838;34,30657
 253,64; 4071,694;  159,132;12100,145;32,76575
 254,24; 4283,531;  217,770;12970,357;31,88185
 254,84; 4298,302;  183,152;13803,737;30,21273
 255,43; 4392,261;  194,014;14576,619;29,18976
 256,03; 4459,478;  197,133;15453,958;27,93730
 256,63; 4536,210;  200,628;16321,112;26,89486
 257,23; 4541,329;  176,004;17189,534;25,65796
 257,82; 4599,044;  205,746;17991,857;24,70072
 258,42; 4541,993;  159,118;18727,214;23,60434
 259,02; 4599,683;  215,765;19628,979;22,58214
 259,62; 4547,471;  186,865;20177,931;21,81277
 260,21; 4466,530;  197,138;20741,618;20,78121
 260,81; 4378,358;  199,649;21143,469;19,95199
 261,41; 4247,556;  186,870;21413,262;19,13036
 262,01; 4217,928;  226,612;21957,257;18,36722
 262,60; 3968,454;  183,754;22238,034;17,16084
 263,20; 3924,796;  207,885;22453,335;16,70864
 263,80; 3762,362;  212,237;22668,022;15,80940
 264,40; 3586,443;  177,864;22781,821;15,07957
 264,99; 3485,953;  200,861;22916,959;14,46152
 265,59; 3358,375;  198,725;23021,234;13,84445
 266,19; 3328,040;  193,487;23251,085;13,59445
 266,78; 3290,020;  235,481;23328,972;13,22684
 267,38; 3154,897;  203,852;23298,391;12,77811
 267,98; 3124,876;  192,482;23352,097;12,66167
 268,58; 3044,371;  204,727;23361,047;12,26293
 269,17; 2996,578;  180,969;23435,151;12,10797
 269,77; 2981,509;  213,626;23199,391;12,04173
 270,37; 2895,887;  171,610;23180,100;11,84031
 270,96; 2938,281;  245,246;22992,185;11,83911
 271,56; 2865,308;  190,628;22911,643;11,77183
 272,16; 2814,160;  188,869;22696,496;11,66400
 272,75; 2848,029;  196,495;22395,919;11,94416
 273,35; 2860,703;  202,372;22462,170;11,94229
 273,95; 2888,207;  214,745;22422,481;12,03843
 274,54; 2903,018;  196,145;22521,685;12,12456
 275,14; 3058,671;  225,123;22809,374;12,54656
 275,74; 3019,950;  171,994;22810,137;12,58034
 276,33; 3129,219;  222,125;23339,875;12,57516
 276,93; 3294,415;  213,772;23628,218;13,15702
 277,53; 3425,227;  202,513;24020,055;13,53084
 278,12; 3581,554;  172,630;24493,207;14,01662
 278,72; 3834,430;  252,887;25068,570;14,43258
 279,32; 3935,883;  199,511;25538,710;14,74542
 279,91; 4110,485;  169,009;26174,928;15,15608
 280,51; 4352,820;  200,013;26806,259;15,60839
 281,11; 4566,834;  194,633;27460,209;16,03561
 281,70; 4708,622;  172,382;27885,083;16,36881
 282,30; 4986,558;  193,003;28474,643;16,94935
 282,90; 5176,268;  179,253;28895,627;17,40128
 283,49; 5477,381;  207,748;29538,858;17,96602
 284,09; 5770,739;  215,881;29900,614;18,71285
 284,69; 6025,290;  218,385;30273,132;19,32109
 285,28; 6286,686;  216,381;30556,051;20,00782
 285,88; 6570,620;  262,369;30906,605;20,58544
 286,47; 6793,965;  201,128;30969,689;21,42719
 287,07; 7054,580;  226,511;31111,648;22,10795
 287,67; 7358,023;  221,274;31194,735;23,04150
 288,26; 7591,250;  198,385;31152,866;23,88302
 288,86; 8007,154;  192,882;31164,754;25,23022
 289,46; 8348,716;  194,884;31355,553;26,16706
 290,05; 8738,495;  188,017;31409,402;27,38661
 290,65; 9200,253;  204,876;31627,688;28,62690
 291,24; 9628,640;  212,887;31851,305;29,76051
 291,84;10063,710;  208,503;31863,612;31,13307
 292,44;10514,485;  208,650;32055,111;32,36100
 293,03;11059,002;  284,762;32178,633;33,78154
 293,63;11432,242;  195,253;32371,033;34,92375
 294,22;11898,472;  218,508;32574,756;36,09802
 294,82;12290,661;  201,239;32567,024;37,35247
 295,41;12496,872;  188,882;32300,833;38,32838
 296,01;12884,533;  228,743;32385,980;39,35596
 296,61;13094,449;  225,511;32113,945;40,35613
 297,20;13172,955;  207,494;31781,590;41,06360
 297,80;13457,254;  215,020;31685,763;42,07792
 298,39;13482,848;  182,253;31193,034;42,89023
 298,99;13728,057;  230,622;31153,529;43,64866
 299,58;13878,981;  208,397;31012,702;44,37881
 300,18;14029,864;  226,518;30723,200;45,26180
 300,78;14064,537;  210,014;30474,462;45,77821
 301,37;14212,898;  221,359;30407,505;46,35086
 301,97;14427,190;  217,759;30429,334;47,03307
 302,56;14488,945;  201,252;30309,548;47,45434
 303,16;14609,534;  183,999;30318,843;47,86995
 303,75;14790,316;  211,641;30216,948;48,58699
 304,35;15027,120;  184,904;30524,238;48,92071
 304,94;15114,907;  199,885;30546,413;49,14903
 305,54;15342,293;  226,638;30526,040;49,88764
 306,13;15328,365;  185,030;30487,285;49,97428
 306,73;15291,820;  185,150;30292,845;50,17544
 307,33;15431,765;  215,523;30309,141;50,56302
 307,92;15547,903;  217,637;30351,227;50,87435
 308,52;15846,790;  180,999;30725,671;51,28813
 309,11;16211,223;  201,867;31236,823;51,58492
 309,71;16393,691;  189,112;31661,304;51,48856
 310,30;16556,409;  180,261;31702,929;51,95039
 310,90;16906,659;  224,386;32095,304;52,34325
 311,49;16932,388;  208,385;32186,413;52,29842
 312,09;17065,391;  176,518;32307,668;52,56230
 312,68;17369,471;  269,514;32860,603;52,46820
 313,28;17451,403;  188,637;32868,727;52,82350
 313,87;17502,428;  173,510;33019,054;52,75881
 314,47;17699,094;  200,119;33278,012;52,90233
 315,06;17671,095;  168,137;33482,336;52,53903
 315,66;17900,766;  180,643;33694,668;52,87375
 316,25;17859,930;  165,250;33583,235;52,94957
 316,85;17912,832;  170,769;33686,028;52,93727
 317,44;17919,355;  194,992;33779,917;52,77476
 318,04;17952,545;  192,253;33813,346;52,82485
 318,63;17875,333;  180,400;33905,642;52,46792
 319,22;17833,937;  188,501;34023,829;52,15092
 319,82;17934,357;  192,131;34077,519;52,35952
 320,41;17750,931;  212,752;34096,876;51,75928
 321,01;17767,942;  198,517;34148,339;51,75116
 321,60;17676,700;  200,756;34227,223;51,35985
 322,20;17500,121;  190,262;34258,930;50,80873
 322,79;17556,483;  230,137;34211,508;50,98778
 323,39;17558,408;  193,653;34431,737;50,71766
 323,98;17307,293;  168,138;34448,415;49,99713
 324,58;17224,678;  181,374;34386,468;49,82680
 325,17;17066,036;  189,126;34136,985;49,71421
 325,76;17011,974;  204,760;34059,647;49,64487
 326,36;16665,778;  160,142;33795,949;49,07162
 326,95;16468,194;  220,132;33368,395;49,01633
 327,55;16281,527;  185,255;33089,613;48,91836
 328,14;15946,552;  183,396;32699,748;48,47763
 328,74;15709,892;  227,001;32370,110;48,16861
 329,33;15393,948;  200,766;32101,667;47,62618
 329,92;15066,440;  188,242;31499,651;47,51686
 330,52;14656,309;  214,771;30829,217;47,17230
 331,11;14357,838;  180,881;30520,020;46,72828
 331,71;14057,235;  195,509;29922,178;46,63061
 332,30;13761,657;  196,635;29476,413;46,32898
 332,89;13436,927;  271,515;28972,401;45,87110
 333,49;13090,707;  212,757;28480,567;45,55694
 334,08;12776,264;  190,880;28039,191;45,19263
 334,68;12454,554;  201,255;27593,957;44,73198
 335,27;12172,502;  215,148;27193,844;44,32147
 335,86;11950,088;  260,756;26996,020;43,72252
 336,46;11765,470;  220,024;26650,172;43,68286
 337,05;11544,186;  192,256;26558,926;43,05409
 337,65;11356,317;  180,380;26436,754;42,56466
 338,24;11332,879;  232,388;26406,399;42,41035
 338,83;11113,958;  225,763;26282,306;41,78680
 339,43;11003,022;  183,626;26289,063;41,44499
 340,02;10816,436;  190,874;26129,062;40,96493
 340,61;10827,831;  195,887;26220,039;40,85414
 341,21;10691,767;  217,626;26243,235;40,24551
 341,80;10569,363;  196,505;26267,847;39,78644
 342,40;10592,889;  199,647;26294,624;39,82851
 342,99;10507,052;  186,265;26355,401;39,43878
 343,58;10424,198;  193,141;26595,042;38,75121
 344,18;10370,245;  214,767;26619,652;38,46060
 344,77;10442,271;  189,374;26969,796;38,28504
 345,36;10335,694;  183,507;27323,145;37,40723
 345,96;10430,725;  221,016;27583,386;37,31295
 346,55;10396,251;  189,403;27859,691;36,88739
 347,14;10369,803;  171,397;28132,015;36,47418
 347,74;10414,585;  164,413;28556,619;36,10206
 348,33;10480,182;  180,537;29248,259;35,43327
 348,92;10595,525;  201,044;29826,076;35,08682
 349,52;10658,344;  175,165;30239,980;34,86860
 350,11;10646,724;  196,748;30542,811;34,43602
 350,70;10466,042;  188,762;30627,524;33,76379
 351,29;10255,118;  173,481;30379,253;33,37653
 351,89;10173,959;  215,367;30271,901;33,13287
 352,48;10096,127;  173,137;30411,008;32,81643
 353,07; 9887,081;  212,149;30502,625;31,94051
 353,67; 9782,711;  207,045;30367,733;31,74883
 354,26; 9631,317;  204,647;30120,812;31,51029
 354,85; 9439,372;  207,019;30003,294;30,98492
 355,45; 9209,164;  173,379;29687,018;30,61563
 356,04; 9037,754;  194,775;29721,985;29,94858
 356,63; 8892,287;  227,257;29592,599;29,50767
 357,22; 8750,472;  210,235;29444,084;29,21352
 357,82; 8558,956;  201,489;29272,243;28,74871
 358,41; 8463,368;  213,009;29134,897;28,52635
 359,00; 8255,161;  174,876;28882,110;28,14721
 359,60; 8111,615;  199,638;28864,477;27,60168
 360,19; 7952,104;  220,776;28655,533;27,18971
 360,78; 7827,416;  196,505;28539,285;26,92365
 361,37; 7647,094;  197,506;28347,222;26,46417
 361,97; 7538,584;  200,758;28183,834;26,22237
 362,56; 7325,907;  188,373;27939,827;25,71950
 363,15; 7273,546;  236,129;27722,737;25,60308
 363,74; 7022,660;  197,869;27360,746;25,12543
 364,34; 6810,719;  219,500;26937,375;24,66970
 364,93; 6617,959;  188,747;26547,748;24,39095
 365,52; 6402,838;  169,756;26247,520;23,90190
 366,11; 6292,924;  196,001;25942,782;23,68033
 366,71; 6103,687;  196,501;25565,704;23,28487
 367,30; 5954,917;  203,632;25120,301;23,08208
 367,89; 5796,931;  219,518;24926,434;22,57430
 368,48; 5689,516;  211,995;24656,997;22,40753
 369,07; 5522,917;  197,262;24192,149;22,19496
 369,67; 5381,629;  209,121;23957,341;21,78061
 370,26; 5224,523;  180,512;23541,524;21,59157
 370,85; 5118,575;  191,881;23447,723;21,18476
 371,44; 5008,504;  203,883;23166,552;20,92362
 372,03; 4862,233;  178,000;22906,922;20,60913
 372,63; 4769,135;  172,507;22629,005;20,46903
 373,22; 4663,396;  182,386;22290,507;20,26861
 373,81; 4512,436;  168,006;21979,801;19,91780
 374,40; 4458,940;  190,521;21797,420;19,75489
 374,99; 4348,855;  184,129;21460,378;19,57453
 375,59; 4217,018;  192,020;21182,810;19,17507
 376,18; 4189,349;  210,005;21119,925;19,03089
 376,77; 4121,913;  201,759;20861,990;18,97440
 377,36; 4080,035;  218,756;20767,707;18,79064
 377,95; 3972,418;  207,502;20475,329;18,57583
 378,55; 3890,942;  183,017;20262,964;18,46581
 379,14; 3902,272;  206,131;20239,535;18,44989
 379,73; 3833,274;  203,877;20115,080;18,22791
 380,32; 3801,847;  212,258;20090,506;18,05787
 380,91; 3738,911;  174,621;19956,513;18,01795
 381,50; 3737,460;  213,123;19987,514;17,82273
 382,10; 3668,972;  190,008;19824,506;17,71863
 382,69; 3661,857;  167,756;19801,644;17,79628
 383,28; 3709,324;  210,875;19738,734;17,91517
 383,87; 3604,172;  190,749;19678,265;17,51595
 384,46; 3575,700;  186,864;19566,790;17,48632
 385,05; 3609,822;  216,623;19586,593;17,51783
 385,64; 3615,674;  201,001;19576,782;17,62341
 386,24; 3576,844;  174,864;19548,664;17,55970
 386,83; 3588,968;  214,362;19530,648;17,47026
 387,42; 3646,655;  216,126;19629,282;17,67115
 388,01; 3610,333;  202,104;19821,298;17,37191
 388,60; 3666,077;  192,866;20025,056;17,51300
 389,19; 3744,583;  187,842;20240,337;17,73715
 389,78; 3774,934;  187,470;20451,402;17,70370
 390,37; 3912,010;  249,609;20881,583;17,75109
 390,96; 3897,252;  209,863;21070,086;17,67665
 391,56; 3965,657;  209,338;21234,319;17,86598
 392,15; 4003,055;  187,972;21466,341;17,92940
 392,74; 4031,106;  166,947;21562,715;18,06039
 393,33; 4169,629;  190,086;21958,084;18,28162
 393,92; 4240,867;  203,314;22264,132;18,30192
 394,51; 4295,286;  182,336;22600,380;18,34661
 395,10; 4380,683;  219,041;22749,320;18,47133
 395,69; 4445,667;  203,420;22946,603;18,65283
 396,28; 4448,450;  206,033;23029,189;18,58821
 396,87; 4542,985;  216,512;23120,847;18,88932
 397,46; 4590,739;  206,623;23148,697;19,10950
 398,06; 4712,134;  236,981;23373,639;19,34226
 398,65; 4752,719;  205,941;23458,518;19,55387
 399,24; 4835,408;  243,683;23536,997;19,71263
 399,83; 4831,944;  194,622;23620,051;19,79610
 400,42; 4907,270;  238,443;23824,608;19,79477
 401,01; 4973,403;  213,255;23830,301;20,15556
 401,60; 5038,649;  216,171;23998,542;20,27753
 402,19; 5102,987;  255,354;23879,544;20,51979
 402,78; 5157,185;  248,375;23934,850;20,72410
 403,37; 5177,296;  226,902;23692,269;21,09660
 403,96; 5206,422;  235,287;23645,302;21,23508
 404,55; 5263,730;  243,033;23594,873;21,50022
 405,14; 5266,255;  222,417;23427,233;21,73617
 405,73; 5280,073;  229,780;23300,595;21,89040
 406,32; 5324,146;  257,813;23371,112;21,91956
 406,91; 5328,032;  238,582;23024,244;22,33619
 407,50; 5346,957;  242,278;22888,208;22,54126
 408,09; 5350,472;  216,364;22615,792;22,92071
 408,68; 5358,908;  242,712;22474,930;23,01253
 409,27; 5380,337;  233,872;22200,875;23,42816
 409,86; 5415,121;  234,205;22111,040;23,68220
 410,45; 5494,582;  256,274;22096,039;23,98518
 411,04; 5539,334;  270,846;21965,946;24,28423
 411,63; 5565,671;  256,439;21705,992;24,75218
 412,22; 5592,760;  260,398;21608,861;24,97773
 412,81; 5559,432;  282,552;21260,615;25,15427
 413,40; 5487,100;  282,965;21006,921;25,11169
 413,99; 5555,212;  333,579;20695,163;25,64453
 414,58; 5384,023;  232,836;20251,309;25,73217
 415,17; 5414,734;  246,678;20038,927;26,11152
 415,76; 5458,980;  240,645;19927,609;26,50655
 416,35; 5441,091;  235,036;19703,870;26,74046
 416,94; 5508,975;  268,277;19757,020;26,89090
 417,53; 5638,172;  252,805;19892,476;27,42086
 418,12; 5702,733;  250,688;19995,497;27,61255
 418,71; 5897,035;  272,216;20261,828;28,13871
 419,30; 5956,625;  251,691;20352,452;28,38168
 419,89; 5996,402;  246,072;20540,409;28,33465
 420,48; 6183,477;  266,342;20826,563;28,77953
 421,07; 6323,089;  277,348;20984,255;29,19674
 421,66; 6305,872;  238,366;20960,001;29,28102
 422,25; 6394,153;  256,774;20943,538;29,66815
 422,84; 6474,096;  272,406;21027,012;29,88103
 423,43; 6439,244;  256,016;20716,861;30,21980
 424,02; 6424,231;  282,898;20579,303;30,25823
 424,60; 6343,593;  234,188;20062,861;30,81096
 425,19; 6293,681;  264,292;19911,832;30,68775
 425,78; 6367,677;  270,169;19743,271;31,31246
 426,37; 6368,904;  283,559;19572,671;31,54808
 426,96; 6381,457;  256,809;19447,609;31,91450
 427,55; 6420,949;  263,207;19250,936;32,43012
 428,14; 6337,783;  242,217;19090,990;32,33933
 428,73; 6356,564;  249,573;18851,836;32,82929
 429,32; 6416,020;  274,682;18855,060;33,05281
 429,91; 6460,250;  288,824;18916,868;33,12976
 430,50; 6458,250;  294,336;18709,204;33,47249
 431,08; 6453,724;  274,847;18553,696;33,80342
 431,67; 6483,203;  314,108;18483,766;33,95273
 432,26; 6483,563;  342,868;18379,038;34,04656
 432,85; 6460,382;  357,365;18095,068;34,40703
 433,44; 6339,143;  361,880;17750,406;34,37475
 434,03; 6363,456;  376,151;17382,529;35,20623
 434,62; 6179,966;  342,256;16944,485;35,16221
 435,21; 6195,575;  357,867;16680,944;35,76353
 435,79; 6172,131;  356,268;16616,336;35,76777
 436,38; 6167,477;  350,913;16483,006;36,05585
 436,97; 6156,467;  330,166;16346,492;36,37726
 437,56; 6085,436;  349,822;16166,481;36,26312
 438,15; 6095,585;  325,064;16044,320;36,70989
 438,74; 6156,114;  349,317;16075,322;36,92481
 439,33; 6196,662;  322,438;16087,210;37,26172
 439,91; 6279,632;  265,326;16136,266;37,89508
 440,50; 6373,870;  317,078;16109,360;38,35286
 441,09; 6426,686;  314,470;16229,153;38,40614
 441,68; 6415,496;  303,863;16253,743;38,31774
 442,27; 6454,086;  292,105;16275,691;38,55193
 442,86; 6439,754;  257,518;16152,623;38,89396
 443,44; 6527,430;  262,636;16263,680;39,15241
 444,03; 6693,137;  347,769;16362,967;39,62091
 444,62; 6607,748;  278,144;16182,920;39,79688
 445,21; 6629,579;  282,889;16050,480;40,25149
 445,80; 6628,543;  312,660;16036,197;40,16834
 446,39; 6616,921;  354,157;15765,491;40,63739
 446,97; 6470,349;  291,430;15611,475;40,33225
 447,56; 6413,869;  291,073;15358,550;40,63584
 448,15; 6362,033;  287,680;15174,491;40,80359
 448,74; 6329,417;  286,557;15040,102;40,95870
 449,33; 6326,313;  282,070;14826,954;41,55580
 449,91; 6246,974;  276,215;14566,108;41,78309
 450,50; 6148,009;  287,961;14427,824;41,44346
 451,09; 6168,058;  298,589;14193,076;42,24315
 451,68; 6213,752;  320,097;14149,066;42,61818
 452,26; 6184,551;  309,106;14017,681;42,85964
 452,85; 6139,236;  288,225;13987,974;42,70889
 453,44; 6162,175;  297,503;14013,461;42,75802
 454,03; 6154,058;  280,237;13914,997;43,07975
 454,61; 6170,006;  289,755;13882,384;43,26059
 455,20; 6305,207;  313,514;13987,719;43,81749
 455,79; 6326,149;  308,248;14078,145;43,70331
 456,38; 6385,764;  308,279;14167,900;43,85029
 456,97; 6475,357;  288,399;14209,257;44,44380
 457,55; 6433,357;  297,161;14273,093;43,90546
 458,14; 6527,610;  307,771;14195,676;44,78601
 458,73; 6503,938;  301,913;14172,766;44,71265
 459,31; 6514,675;  323,054;14178,402;44,68758
 459,90; 6619,362;  344,795;14248,865;45,12755
 460,49; 6684,349;  404,665;14334,845;45,07970
 461,08; 6688,217;  311,063;14444,173;45,12209
 461,66; 6749,042;  320,429;14444,308;45,51592
 462,25; 6829,627;  312,320;14537,975;45,81375
 462,84; 6878,298;  329,065;14570,096;45,98848
 463,43; 6894,167;  274,464;14561,940;46,33221
 464,01; 6923,920;  297,097;14613,821;46,28729
 464,60; 6927,581;  359,207;14512,842;46,40768
 465,19; 6787,379;  288,727;14332,402;46,27459
 465,77; 6819,679;  308,486;14315,017;46,48684
 466,36; 6836,931;  333,714;14285,487;46,61212
 466,95; 6698,676;  308,216;13913,176;46,97155
 467,53; 6603,803;  316,871;13665,961;47,09633
 468,12; 6524,865;  332,373;13367,635;47,50569
 468,71; 6402,112;  309,854;13223,294;47,17766
 469,29; 6286,512;  277,376;13006,918;47,20623
 469,88; 6178,534;  297,008;12660,048;47,57346
 470,47; 6244,170;  375,773;12760,011;47,38601
 471,06; 6173,940;  324,899;12680,902;47,33765
 471,64; 6293,172;  320,895;12804,681;47,84027
 472,23; 6319,609;  286,051;12818,998;48,14157
 472,81; 6397,217;  283,911;12907,957;48,42588
 473,40; 6431,590;  303,926;13001,248;48,25949
 473,99; 6596,491;  413,676;13166,467;48,48205
 474,57; 6594,694;  309,550;13320,982;48,30478
 475,16; 6696,648;  326,539;13412,428;48,67922
 475,75; 6804,944;  349,437;13589,443;48,75758
 476,33; 6827,688;  357,199;13667,076;48,61419
 476,92; 6875,316;  333,929;13724,063;48,85229
 477,51; 6931,360;  327,319;13845,573;48,85276
 478,09; 6967,413;  340,694;13816,135;49,17626
 478,68; 6958,372;  333,574;13780,717;49,26547
 479,27; 6986,076;  370,188;13760,162;49,40927
 479,85; 6948,240;  328,698;13804,747;49,12079
 480,44; 7041,523;  320,329;13836,908;49,72555
 481,02; 7571,226;  346,340;14914,759;49,59279
 481,61; 8571,918;  357,585;16907,396;49,63400
 482,20; 9322,917;  346,965;18201,368;50,27304
 482,78; 9630,750;  376,077;19038,500;49,58988
 483,37; 9897,738;  370,107;19381,863;50,11442
 483,95;10074,545;  398,485;19756,959;49,98359
 484,54;10239,962;  428,583;19988,598;50,16038
 485,13;10209,251;  377,749;19995,218;50,11606
 485,71;10144,666;  345,244;19951,012;49,98234
 486,30;10093,219;  382,744;19788,200;50,03992
 486,88; 9990,592;  453,623;19491,530;50,09463
 487,47; 9669,964;  409,626;18867,986;50,16880
 488,05; 9268,886;  400,632;18064,443;50,20578
 488,64; 8637,282;  403,270;16903,545;49,90227
 489,23; 7896,455;  415,886;15314,211;50,21081
 489,81; 6690,354;  421,639;12926,135;50,13169
 490,40; 6209,180;  356,392;12031,856;50,12895
 490,98; 6094,982;  339,272;11776,391;50,32482
 491,57; 5975,997;  385,387;11614,493;49,78677
 492,15; 5949,728;  355,150;11562,205;49,92015
 492,74; 5968,584;  364,758;11436,022;50,61596
 493,32; 5909,422;  377,771;11409,484;50,14317
 493,91; 5855,551;  340,906;11192,881;50,81697
 494,50; 5837,464;  367,678;11201,801;50,48665
 495,08; 5838,404;  337,427;11120,269;51,01602
 495,67; 5837,970;  366,279;11144,207;50,76755
 496,25; 5729,004;  326,042;11037,356;50,44163
 496,84; 5757,797;  300,028;11007,347;50,97232
 497,42; 5747,759;  308,296;10951,656;51,10663
 498,01; 5756,663;  340,656;10814,334;51,71065
 498,59; 5648,590;  299,548;10805,579;50,91401
 499,18; 5738,914;  290,157;10818,225;51,75458
 499,76; 5660,195;  329,917;10765,591;51,07747
 500,35; 5548,056;  320,184;10568,477;51,01213
 500,93; 5524,363;  310,670;10459,765;51,37101
 501,52; 5455,024;  304,172;10379,345;51,12420
 502,10; 5507,467;  334,067;10338,046;51,71343
 502,69; 5410,417;  303,325;10244,863;51,37125
 503,27; 5332,610;  277,429;10056,693;51,69286
 503,86; 5287,847;  315,697; 9985,220;51,42084
 504,44; 5235,619;  284,079; 9831,850;51,86069
 505,03; 5101,382;  263,829; 9704,772;51,24015
 505,61; 5041,089;  290,826; 9526,723;51,43261
 506,19; 5005,888;  302,954; 9396,350;51,71813
 506,78; 4864,348;  266,095; 9180,267;51,58362
 507,36; 4811,420;  291,203; 9002,521;51,88902
 507,95; 4741,593;  297,727; 8892,803;51,70246
 508,53; 4673,268;  297,470; 8765,611;51,67366
 509,12; 4588,156;  285,225; 8578,505;51,88455
 509,70; 4556,818;  314,479; 8487,226;51,90836
 510,29; 4431,321;  314,612; 8355,106;51,19970
 510,87; 4348,492;  285,970; 8190,267;51,39637
 511,46; 4264,963;  282,098; 8048,253;51,28490
 512,04; 4183,808;  286,732; 7882,212;51,30783
 512,62; 4139,516;  288,848; 7717,816;51,83314
 513,21; 4026,466;  274,738; 7582,122;51,34160
 513,79; 3948,146;  281,638; 7431,498;51,28084
 514,38; 3815,538;  265,379; 7294,118;50,50918
 514,96; 3821,023;  313,253; 7226,429;50,74035
 515,54; 3749,213;  255,008; 7052,386;51,40519
 516,13; 3691,143;  295,635; 6927,215;51,20209
 516,71; 3628,806;  294,770; 6855,050;50,82155
 517,30; 3554,244;  263,404; 6686,588;51,23378
 517,88; 3535,500;  285,779; 6603,415;51,43887
 518,46; 3409,669;  265,533; 6560,106;49,94996
 519,05; 3437,040;  279,790; 6476,267;50,95233
 519,63; 3381,766;  280,912; 6432,468;50,40764
 520,22; 3361,665;  296,052; 6354,103;50,60394
 520,80; 3321,291;  280,679; 6277,119;50,70696
 521,38; 3349,903;  328,542; 6297,612;50,61695
 521,97; 3268,161;  261,436; 6190,530;50,71138
 522,55; 3321,122;  286,436; 6155,015;51,71075
 523,13; 3256,477;  266,566; 6130,737;50,98608
 523,72; 3264,800;  287,158; 6116,809;51,07755
 524,30; 3298,629;  305,823; 6299,945;49,92902
 524,89; 3313,788;  263,062; 6203,922;51,35159
 525,47; 3375,672;  295,076; 6358,119;50,80941
 526,05; 3379,115;  256,328; 6436,745;50,52713
 526,64; 3442,633;  297,832; 6495,342;50,74298
 527,22; 3518,231;  287,701; 6633,759;50,90609
 527,80; 3594,725;  318,207; 6738,904;51,03056
 528,39; 3599,856;  274,837; 6806,970;50,90250
 528,97; 3675,813;  289,959; 6967,921;50,70191
 529,55; 3752,628;  305,191; 7123,331;50,56272
 530,14; 3826,308;  313,842; 7300,957;50,27063
 530,72; 3871,116;  276,835; 7352,984;50,79432
 531,30; 3954,060;  268,468; 7502,724;50,94639
 531,89; 4007,533;  297,843; 7657,380;50,40658
 532,47; 4077,196;  313,597; 7725,476;50,77793
 533,05; 4065,672;  313,706; 7800,966;50,11133
 533,63; 4095,428;  311,599; 7804,743;50,49722
 534,22; 4097,718;  281,099; 7847,009;50,44494
 534,80; 4159,072;  318,360; 7965,454;50,22447
 535,38; 4268,351;  425,720; 8115,506;49,97059
 535,97; 4117,025;  304,972; 7977,633;49,68359
 536,55; 4193,337;  362,236; 8131,767;49,30930
 537,13; 4186,651;  378,092; 8036,911;49,72776
 537,71; 4193,274;  404,466; 8143,519;48,95700
 538,30; 4198,269;  424,103; 8166,402;48,74735
 538,88; 4244,366;  471,495; 8289,991;48,25572
 539,46; 4290,658;  537,235; 8454,563;47,40770
 540,05; 4355,231;  563,616; 8615,864;47,08766
 540,63; 4437,448;  596,116; 8770,817;46,99049
 541,21; 4520,713;  638,248; 8968,978;46,60413
 541,79; 4553,436;  673,498; 9084,509;46,12927
 542,38; 4628,854;  707,239; 9211,972;46,11097
 542,96; 4701,334;  717,507; 9311,156;46,35781
 543,54; 4773,599;  747,622; 9565,883;45,65500
 544,12; 4827,030;  726,250; 9690,479;45,74605
 544,70; 4881,993;  719,758; 9753,094;46,07639
 545,29; 4947,420;  728,740; 9937,957;45,80933
 545,87; 4968,436;  704,248; 9907,884;46,33156
 546,45; 4927,860;  648,489; 9982,925;45,84499
 547,03; 4939,327;  627,744; 9984,476;46,08001
 547,62; 4967,273;  590,124;10144,885;45,81118
 548,20; 5103,721;  585,130;10281,061;46,60296
 548,78; 5117,246;  549,902;10371,935;46,50100
 549,36; 5180,000;  503,900;10518,496;46,69285
 549,94; 5221,526;  464,127;10695,293;46,49909
 550,53; 5362,502;  470,272;10949,291;46,68596
 551,11; 5342,724;  429,407;11111,766;45,99469
 551,69; 5479,144;  438,650;11318,121;46,33033
 552,27; 5603,918;  390,517;11540,959;46,75511
 552,85; 5716,296;  399,531;11899,703;46,23205
 553,44; 5884,953;  383,149;12187,511;46,60823
 554,02; 6010,450;  393,778;12478,217;46,47856
 554,60; 6122,838;  349,408;12728,486;46,63861
 555,18; 6351,974;  372,900;13172,652;46,71242
 555,76; 6436,589;  358,778;13430,139;46,49715
 556,34; 6654,380;  359,166;13811,757;46,79555
 556,93; 6750,731;  350,776;14137,372;46,42158
 557,51; 6880,335;  332,292;14452,538;46,37343
 558,09; 7048,816;  363,401;14812,856;46,26760
 558,67; 7240,250;  346,798;15241,668;46,28071
 559,25; 7346,686;  357,794;15505,728;46,13759
 559,83; 7436,066;  341,054;15755,875;46,02721
 560,41; 7585,153;  345,913;16080,442;46,00862
 561,00; 7712,527;  346,174;16489,387;45,63127
 561,58; 7815,396;  324,413;16563,348;46,12977
 562,16; 7858,389;  328,032;16965,407;45,26169
 562,74; 8029,615;  308,528;17315,357;45,39992
 563,32; 8178,638;  312,179;17792,312;45,00228
 563,90; 8366,388;  341,299;18130,965;45,11096
 564,48; 8477,801;  338,536;18405,628;45,05022
 565,06; 8764,775;  338,547;18995,620;45,16372
 565,65; 8904,854;  348,689;19649,585;44,33040
 566,23; 9267,941;  381,049;20276,653;44,66762
 566,81; 9468,383;  339,794;20980,165;44,22687
 567,39; 9879,878;  346,431;21802,173;44,43308
 567,97;10093,465;  365,796;22458,963;44,03021
 568,55;10394,657;  382,553;23170,687;43,93560
 569,13;10625,271;  351,799;23945,059;43,54410
 569,71;11059,461;  345,406;24839,719;43,74099
 570,29;11406,915;  387,525;25783,512;43,39028
 570,87;11680,854;  390,279;26499,577;43,24350
 571,45;11921,519;  370,548;27199,667;43,05386
 572,03;12013,650;  328,059;27581,581;42,87736
 572,61;12272,590;  329,428;28315,077;42,67603
 573,20;12567,066;  358,167;28930,414;42,72992
 573,78;12770,026;  342,179;29614,609;42,45581
 574,36;12907,036;  374,176;30059,123;42,21958
 574,94;13071,548;  435,436;30397,989;42,17301
 575,52;13094,445;  358,700;30702,232;41,97186
 576,10;13307,866;  416,319;31146,854;41,95029
 576,68;13457,110;  422,059;31712,815;41,65784
 577,26;13724,452;  427,581;32376,674;41,61893
 577,84;13874,833;  429,427;32885,858;41,42602
 578,42;13998,072;  479,190;33224,038;41,28552
 579,00;13923,289;  421,804;33286,031;41,08262
 579,58;14007,614;  477,311;33485,098;40,99124
 580,16;13955,304;  442,817;33572,180;40,78704
 580,74;13980,615;  439,068;33815,712;40,57192
 581,32;13949,530;  446,813;33925,381;40,33242
 581,90;13887,988;  484,942;33772,821;40,26404
 582,48;13887,942;  455,692;34078,727;39,94955
 583,06;13923,831;  470,812;34136,677;39,96042
 583,64;13848,146;  463,311;34176,270;39,70234
 584,22;13745,284;  474,453;34015,625;39,56579
 584,80;13581,901;  478,065;33754,570;39,37864
 585,38;13385,886;  486,665;33279,584;39,33538
 585,96;13311,272;  456,431;33481,673;38,92429
 586,54;13278,860;  487,700;33365,748;38,90486
 587,12;13299,999;  441,070;33459,448;38,94476
 587,70;13278,707;  473,557;33665,580;38,57900
 588,28;13258,196;  449,070;33657,010;38,57248
 588,86;13253,811;  475,698;33793,747;38,35192
 589,44;13188,439;  449,212;33780,866;38,21961
 590,02;13263,290;  436,209;33938,066;38,28767
 590,59;13238,294;  413,200;34142,639;38,02344
 591,17;13310,568;  408,727;34231,235;38,14572
 591,75;13292,406;  402,843;34401,041;37,91249
 592,33;13364,579;  416,964;34731,804;37,73182
 592,91;13383,195;  360,223;34864,529;37,74303
 593,49;13447,887;  386,605;35125,628;37,59830
 594,07;13473,071;  388,605;35363,643;37,41087
 594,65;13482,835;  423,702;35375,546;37,36322
 595,23;13514,698;  392,208;35751,738;37,11161
 595,81;13512,807;  389,587;35894,271;36,96194
 596,39;13479,841;  383,463;35994,710;36,77596
 596,97;13464,794;  375,598;36123,435;36,61535
 597,55;13369,194;  370,580;36069,705;36,41158
 598,12;13297,372;  360,734;36055,036;36,24286
 598,70;13298,257;  361,601;36142,328;36,15538
 599,28;13231,047;  393,476;36444,469;35,60948
 599,86;13208,375;  378,475;36402,234;35,61511
 600,44;13065,037;  334,229;36487,830;35,21311
 601,02;13130,964;  384,246;36648,951;35,14910
 601,60;13026,097;  380,468;36582,401;34,93081
 602,18;12978,463;  346,733;36604,973;34,83823
 602,75;12870,871;  344,461;36626,614;34,52499
 603,33;12882,199;  362,351;36609,312;34,54041
 603,91;12809,503;  347,865;36622,603;34,35349
 604,49;12759,193;  383,477;36695,110;34,08196
 605,07;12720,228;  397,093;36834,104;33,82038
 605,65;12593,065;  388,856;36923,315;33,40465
 606,23;12688,877;  445,573;37038,731;33,45790
 606,80;12624,595;  499,710;37022,146;33,19846
 607,38;12495,119;  545,862;37053,242;32,73107
 607,96;12508,654;  607,210;37195,161;32,52831
 608,54;12458,414;  669,605;37350,221;32,13907
 609,12;12402,010;  661,336;37309,161;32,03648
 609,70;12394,519;  722,224;37295,108;31,91516
 610,27;12267,790;  714,834;37473,066;31,42958
 610,85;12259,011;  760,849;37533,264;31,26845
 611,43;12174,244;  751,601;37429,156;31,14342
 612,01;12032,588;  716,966;37144,540;31,06334
 612,59;12005,756;  713,849;37295,061;30,86805
 613,16;11861,560;  676,703;37314,344;30,52832
 613,74;11759,113;  653,851;37175,453;30,40738
 614,32;11662,020;  615,106;37026,097;30,33950
 614,90;11537,290;  581,595;36935,027;30,13662
 615,48;11397,457;  494,330;36654,377;30,15242
 616,05;11341,269;  471,701;36613,561;30,07473
 616,63;11198,955;  471,947;36359,746;29,89040
 617,21;11078,527;  471,834;36383,894;29,53518
 617,79;10987,769;  458,838;36259,022;29,41027
 618,36;10895,702;  440,343;36144,135;29,28361
 618,94;10711,308;  387,457;35876,299;29,09041
 619,52;10616,483;  415,699;35566,982;29,01966
 620,10;10543,826;  393,586;35629,396;28,80660
 620,67;10442,120;  398,447;35486,387;28,62429
 621,25;10338,084;  426,468;35403,729;28,33731
 621,83;10199,946;  396,082;35331,721;28,06264
 622,41;10212,938;  440,581;35280,127;28,04961
 622,98;10028,389;  406,822;35033,387;27,78666
 623,56; 9896,459;  418,570;35033,557;27,38088
 624,14; 9886,135;  379,472;34936,997;27,50967
 624,72; 9758,393;  394,456;34824,408;27,19707
 625,29; 9674,124;  367,070;34886,698;26,96163
 625,87; 9704,045;  410,463;34778,241;27,04156
 626,45; 9544,812;  364,193;34685,149;26,74931
 627,02; 9492,092;  374,839;34605,976;26,63439
 627,60; 9359,971;  379,729;34617,220;26,22926
 628,18; 9316,385;  355,336;34654,286;26,12631
 628,76; 9263,324;  343,198;34653,544;25,99836
 629,33; 9249,475;  373,703;34701,610;25,85585
 629,91; 9135,451;  371,586;34558,146;25,63541
 630,49; 9111,702;  382,451;34914,577;25,27864
 631,06; 9116,648;  355,949;34980,122;25,30226
 631,64; 9018,622;  357,194;34895,556;25,07770
 632,22; 8925,668;  331,938;34792,053;24,93819
 632,79; 8989,083;  351,063;35025,444;24,91182
 633,37; 8959,543;  332,842;35120,447;24,79820
 633,95; 8873,469;  345,317;35074,571;24,55610
 634,52; 8833,952;  327,581;35248,299;24,35909
 635,10; 8818,337;  330,460;35270,176;24,29292
 635,68; 8850,307;  336,938;35441,350;24,25156
 636,25; 8745,889;  319,055;35504,954;23,94946
 636,83; 8727,824;  305,948;35652,044;23,82689
 637,41; 8690,534;  315,436;35622,192;23,72095
 637,98; 8709,125;  361,810;35861,629;23,51368
 638,56; 8708,413;  331,802;35973,764;23,50210
 639,13; 8656,144;  317,571;36034,339;23,34638
 639,71; 8656,714;  376,824;36296,982;23,05082
 640,29; 8486,473;  282,574;35962,890;22,99279
 640,86; 8490,550;  311,450;36195,663;22,79303
 641,44; 8504,127;  302,450;36241,561;22,82104
 642,02; 8431,079;  338,576;36201,334;22,56520
 642,59; 8479,532;  303,826;36284,607;22,72242
 643,17; 8381,234;  319,827;36176,005;22,48262
 643,74; 8344,061;  309,577;36347,028;22,29482
 644,32; 8266,888;  329,453;36387,676;22,01283
 644,89; 8215,465;  329,828;36319,199;21,91102
 645,47; 8164,917;  342,454;36372,847;21,71074
 646,05; 8123,744;  331,454;36411,370;21,59731
 646,62; 8073,696;  307,204;36262,768;21,60025
 647,20; 8047,773;  325,830;36468,666;21,36507
 647,77; 7962,975;  296,455;36304,939;21,29087
 648,35; 7829,302;  304,456;36268,587;20,92320
 648,92; 7821,254;  315,331;36217,360;20,90668
 649,50; 7716,706;  284,582;36169,008;20,71128
 650,08; 7682,158;  285,832;36112,281;20,64488
 650,65; 7672,985;  302,333;36239,929;20,50959
 651,23; 7728,063;  278,958;36970,327;20,30206
 651,80; 7910,640;  278,708;37957,850;20,25506
 652,38; 7876,717;  304,584;38374,498;19,89007
 652,95; 7876,419;  277,834;38641,521;19,80671
 653,53; 7921,996;  295,710;38882,170;19,76415
 654,10; 7928,323;  342,210;39053,943;19,59642
 654,68; 7859,525;  284,086;38960,341;19,58680
 655,25; 7802,477;  276,711;39143,614;19,36292
 655,83; 7801,929;  288,212;39261,137;19,27933
 656,40; 7752,881;  324,337;39267,910;19,07515
 656,98; 7708,583;  290,712;39148,058;19,09001
 657,55; 7605,285;  292,088;39112,456;18,83856
 658,13; 7492,237;  300,213;38755,104;18,70250
 658,70; 7433,064;  314,089;38556,002;18,61564
 659,28; 7266,017;  283,714;37828,150;18,59744
 659,85; 7070,969;  319,465;36876,423;18,46845
 660,43; 7086,921;  322,840;36708,946;18,58973
 661,00; 6981,123;  295,591;36919,219;18,25470
 661,58; 6945,075;  293,341;37144,867;18,05009
 662,15; 6911,152;  284,717;37388,265;17,85930
 662,73; 7063,854;  356,717;37639,163;17,99007
 663,30; 6988,806;  299,592;37789,561;17,84268
 663,88; 6936,008;  307,718;38084,084;17,54613
 664,45; 6947,960;  284,218;38152,357;17,59723
 665,03; 6956,287;  298,844;38451,130;17,44966
 665,60; 7075,989;  388,719;39013,028;17,31363
 666,17; 6953,816;  311,095;39130,926;17,11167
 666,75; 7002,643;  289,720;39459,324;17,13809
 667,32; 7039,720;  319,346;39813,972;17,01592
 667,90; 7076,923;  301,596;40034,120;17,05234
 668,47; 7043,125;  313,846;40248,143;16,85087
 669,05; 7036,952;  302,847;40510,791;16,74819
 669,62; 7050,779;  287,597;40722,939;16,72592
 670,19; 7023,106;  281,223;40771,337;16,65069
 670,77; 7001,433;  282,473;40940,485;16,52555
 671,34; 6967,135;  288,224;40983,508;16,41200
 671,92; 6975,962;  273,474;41294,781;16,33904
 672,49; 6980,289;  308,850;41326,179;16,26493
 673,06; 6904,491;  252,350;41468,328;16,13971
 673,64; 6919,568;  271,976;41274,726;16,21255
 674,21; 6871,645;  277,976;41357,624;16,05094
 674,79; 6940,097;  307,976;41600,522;16,06130
 675,36; 6918,924;  307,727;41499,170;16,04993
 675,93; 6795,251;  271,102;41467,693;15,83662
 676,51; 6796,954;  301,853;41709,091;15,68591
 677,08; 6813,031;  292,103;41779,989;15,71767
 677,65; 6778,983;  285,854;41793,387;15,64325
 678,23; 6795,560;  293,854;42134,535;15,53920
 678,80; 6736,512;  281,480;42126,683;15,42598
 679,38; 6782,089;  299,230;42362,331;15,41222
 679,95; 6821,541;  309,230;42702,104;15,36180
 680,52; 6774,493;  286,356;42746,627;15,28049
 681,10; 6840,445;  310,231;43211,025;15,22166
 681,67; 6809,022;  301,607;43432,548;15,08758
 682,24; 6789,724;  260,607;43560,321;15,07889
 682,82; 6802,926;  275,733;43975,219;14,93655
 683,39; 6925,253;  342,233;44347,742;14,95954
 683,96; 6854,455;  287,984;44715,140;14,78031
 684,54; 6927,532;  265,109;44974,288;14,90169
 685,11; 6979,360;  345,734;45251,311;14,77239
 685,68; 6980,937;  289,485;45694,459;14,73727
 686,25; 6941,264;  268,610;45801,107;14,65471
 686,83; 6976,591;  268,986;46040,130;14,65466
 687,40; 7019,668;  271,486;46368,403;14,63912
 687,97; 7102,245;  320,112;46800,426;14,59141
 688,55; 7035,322;  261,987;46780,324;14,56057
 689,12; 6991,399;  252,738;47106,097;14,38245
 689,69; 6992,726;  251,988;47276,120;14,33464
 690,26; 6987,428;  284,114;47282,268;14,26293
 690,84; 7047,630;  280,864;47466,291;14,34080
 691,41; 7034,082;  292,989;47543,814;14,26661
 691,98; 7090,284;  290,990;47849,338;14,29674
 692,56; 7009,236;  283,490;47992,486;14,09744
 693,13; 7092,813;  333,741;47930,634;14,20066
 693,70; 7045,016;  296,616;48156,157;14,10043
 694,27; 6975,718;  277,492;48320,430;13,94217
 694,84; 7017,795;  274,617;48283,453;14,04570
 695,42; 7092,622;  334,368;48461,226;14,04258
 695,99; 6985,449;  295,243;48699,999;13,82138
 696,56; 6976,276;  299,993;48540,897;13,83946
 697,13; 7106,978;  302,744;48925,920;13,99381
 697,71; 7038,055;  269,119;48999,193;13,89067
 698,28; 7032,757;  283,370;49405,966;13,73988
 698,85; 6981,834;  249,370;49296,989;13,72638
 699,42; 6987,411;  253,621;49625,012;13,63905
 699,99; 7053,488;  312,621;49631,660;13,66788
 700,57; 7015,315;  289,622;49586,808;13,64316
 701,14; 7032,892;  277,122;49828,706;13,63381
 701,71; 7038,219;  306,372;50106,229;13,51780
 702,28; 7021,047;  288,998;50036,502;13,53243
 702,85; 6982,999;  293,748;50162,275;13,41377
 703,43; 7014,701;  316,749;50517,548;13,34232
 704,00; 7058,653;  329,124;50576,571;13,39278
 704,57; 7007,980;  294,000;50587,469;13,34961
 705,14; 7059,307;  317,750;50860,617;13,33829
 705,71; 7031,509;  335,126;50856,015;13,25468
 706,28; 6949,586;  293,751;50807,788;13,17621
 706,86; 7056,663;  335,627;51117,436;13,23513
 707,43; 7075,990;  356,002;51008,084;13,26695
 708,00; 7052,442;  347,377;51065,857;13,22016
 708,57; 6997,644;  316,378;50978,380;13,18792
 709,14; 7023,971;  321,753;51090,278;13,20152
 709,71; 6970,673;  311,754;51182,301;13,08993
 710,28; 7077,500;  300,254;51321,824;13,28310
 710,86; 7040,203;  324,255;51582,972;13,10206
 711,43; 7136,155;  344,755;51464,246;13,28534
 712,00; 7066,982;  306,631;51554,269;13,19154
 712,57; 7158,434;  318,881;51784,167;13,28964
 713,14; 7090,511;  310,381;51844,315;13,15663
 713,71; 7087,088;  316,382;51749,463;13,16411
 714,28; 7107,165;  308,132;51931,111;13,17055
 714,85; 7067,242;  286,008;51683,759;13,19364
 715,42; 7056,944;  295,758;51733,157;13,14449
 716,00; 7177,396;  360,259;51956,430;13,21249
 716,57; 7124,348;  276,259;52042,203;13,22895
 717,14; 7122,550;  291,885;52019,101;13,20517
 717,71; 7130,002;  274,885;52054,749;13,23896
 718,28; 7157,329;  321,636;52231,647;13,16835
 718,85; 7133,157;  273,136;52118,545;13,23168
 719,42; 7198,484;  296,261;52376,568;13,25304
 719,99; 7155,936;  263,762;52071,091;13,30347
 720,56; 7212,638;  295,762;52425,364;13,26861
 721,13; 7182,590;  277,638;52591,262;13,19915
 721,70; 7170,167;  285,388;52369,535;13,21857
 722,27; 7133,244;  299,264;52396,308;13,11779
 722,84; 7236,696;  368,264;52681,081;13,12954
 723,41; 7189,648;  279,140;52583,854;13,21202
 723,98; 7237,725;  282,890;52802,377;13,24239
 724,55; 7319,302;  305,265;52910,900;13,33324
 725,12; 7244,879;  246,516;52940,923;13,28104
 725,69; 7246,331;  283,766;53179,571;13,16279
 726,27; 7286,158;  298,642;53126,469;13,22696
 726,84; 7356,110;  293,642;53352,242;13,31069
 727,41; 7345,938;  306,768;53391,515;13,26025
 727,98; 7438,140;  296,518;53660,038;13,38297
 728,55; 7412,342;  334,519;53580,186;13,29277
 729,12; 7421,794;  275,394;53601,084;13,40142
 729,69; 7460,121;  310,269;53876,107;13,34778
 730,26; 7501,198;  302,770;54065,006;13,38938
 730,82; 7514,900;  288,520;54019,904;13,44909
 731,39; 7524,102;  302,146;54016,427;13,44513
 731,96; 7545,054;  279,021;54388,575;13,42837
 732,53; 7629,756;  308,022;54627,473;13,47903
 733,10; 7698,708;  309,522;54698,121;13,58591
 733,67; 7709,410;  314,273;54980,519;13,52779
 734,24; 7647,612;  288,773;54620,042;13,54439
 734,81; 7634,814;  327,149;54793,065;13,41695
 735,38; 7635,891;  301,274;54538,713;13,52316
 735,95; 7646,594;  285,899;54446,986;13,59037
 736,52; 7695,921;  305,275;54654,509;13,59844
 737,09; 7695,873;  316,650;54377,032;13,64996
 737,66; 7728,825;  371,526;54601,805;13,56677
 738,23; 7719,777;  307,776;54618,953;13,64728
 738,80; 7863,354;  365,527;54814,351;13,77041
 739,37; 7800,056;  337,277;55003,124;13,65163
 739,94; 7809,508;  303,403;55125,022;13,69187
 740,51; 7954,460;  426,778;55155,170;13,75462
 741,07; 7871,037;  298,028;55179,818;13,79876
 741,64; 7895,739;  355,029;55282,966;13,72837
 742,21; 7994,191;  310,904;55248,489;13,98548
 742,78; 7934,893;  289,405;55257,012;13,90908
 743,35; 8028,220;  295,030;55337,035;14,04962
 743,92; 8056,422;  347,531;55591,308;13,95432
 744,49; 8098,125;  334,906;55353,331;14,11022
 745,06; 8041,702;  303,407;55281,354;14,07527
 745,63; 8049,779;  288,782;55351,752;14,09477
 746,19; 8073,856;  303,658;55344,775;14,11708
 746,76; 8134,933;  300,408;55377,923;14,22454
 747,33; 8192,260;  300,783;55335,571;14,33907
 747,90; 8223,212;  329,909;55570,344;14,28900
 748,47; 8185,789;  315,034;55503,617;14,26156
 749,04; 8239,491;  313,535;55530,640;14,35417
 749,61; 8315,693;  336,535;55599,789;14,43845
 750,17; 8373,520;  349,536;55701,812;14,49621
 750,74; 8415,972;  319,911;55566,710;14,65435
 751,31; 8335,424;  291,787;55396,858;14,59691
 751,88; 8330,001;  293,662;55242,881;14,62503
 752,45; 8465,578;  294,037;55405,654;14,82726
 753,02; 8384,531;  329,663;55378,177;14,63231
 753,58; 8434,983;  303,413;55347,575;14,77281
 754,15; 8496,060;  307,539;55378,848;14,86894
 754,72; 8453,387;  305,039;55070,746;14,87856
 755,29; 8424,339;  284,790;54946,644;14,89073
 755,86; 8549,291;  287,665;55141,042;15,06129
 756,42; 8586,868;  318,041;55009,065;15,11917
 756,99; 8528,945;  274,916;55078,588;15,06109
 757,56; 8580,272;  279,541;54976,861;15,17575
 758,13; 8578,474;  217,417;54791,509;15,32056
 758,70; 8661,176;  258,917;54846,032;15,39238
 759,26; 8657,503;  270,918;54975,680;15,33063
 759,83; 8733,830;  277,168;55085,203;15,42960
 760,40; 8675,282;  257,919;55051,726;15,36189
 760,97; 8718,609;  237,044;55103,374;15,45860
 761,53; 8731,062;  233,170;54726,272;15,59444
 762,10; 8811,389;  222,795;54644,420;15,78158
 762,67; 8784,966;  264,421;54679,193;15,65851
 763,24; 8720,293;  218,296;54202,341;15,74909
 763,80; 8866,870;  253,171;54363,364;15,91881
 764,37; 8831,197;  257,797;54371,387;15,84334
 764,94; 8830,649;  234,547;53955,285;16,00146
 765,50; 8897,726;  239,048;53921,933;16,12931
 766,07; 8914,678;  280,423;54013,831;16,06869
 766,64; 8855,755;  267,424;53652,354;16,08756
 767,21; 8929,707;  270,549;53620,252;16,23094
 767,77; 8983,034;  286,050;53446,525;16,35987
 768,34; 8985,486;  289,050;53410,424;16,37088
 768,91; 9009,063;  301,925;53276,072;16,43658
 769,47; 9005,015;  295,301;53384,470;16,40582
 770,04; 9034,968;  295,801;53232,368;16,50875
 770,61; 9006,420;  272,302;52951,266;16,57990
 771,18; 9007,372;  266,927;52910,789;16,60297
 771,74; 9046,699;  290,053;53126,187;16,57321
 772,31; 9044,401;  287,428;52743,085;16,69405
 772,88; 9080,228;  247,679;52519,358;16,89739
 773,44; 9043,305;  271,804;52427,381;16,81795
 774,01; 9104,507;  285,429;52609,029;16,85488
 774,58; 9008,959;  274,555;52070,177;16,86321
 775,14; 9119,286;  257,555;52260,325;17,04088
 775,71; 9162,738;  272,056;52224,098;17,11325
 776,27; 9227,815;  320,056;52094,996;17,20477
 776,84; 9321,892;  363,807;52179,269;17,28844
 777,41; 9312,594;  294,682;51862,792;17,48738
 777,97; 9202,671;  277,558;51629,940;17,38014
 778,54; 9278,624;  283,808;51722,338;17,48653
 779,11; 9319,326;  318,309;51829,486;17,47391
 779,67; 9321,528;  289,934;51613,759;17,59727
 780,24; 9350,230;  295,309;51413,157;17,71381
 780,80; 9403,682;  296,810;51356,055;17,83589
 781,37; 9441,134;  289,310;51356,328;17,92120
 781,94; 9426,586;  293,186;51175,226;17,95015
 782,50; 9511,163;  292,436;51084,749;18,14985
 783,07; 9517,115;  311,312;51102,772;18,12471
 783,63; 9549,692;  288,062;51079,170;18,23475
 784,20; 9548,894;  287,188;50844,943;18,31906
 784,77; 9531,471;  288,813;50769,216;18,30940
 785,33; 9590,673;  264,938;50504,239;18,56263
 785,90; 9654,500;  284,689;50605,637;18,62010
 786,46; 9626,078;  303,439;50423,660;18,60055
 787,03; 9646,530;  280,565;50221,558;18,75406
 787,59; 9625,607;  284,190;50098,707;18,75240
 788,16; 9723,684;  294,816;50187,355;18,89835
 788,73; 9741,136;  303,941;50058,128;18,96764
 789,29; 9681,463;  276,192;49704,276;19,02819
 789,86; 9743,290;  308,567;49612,299;19,13592
 790,42; 9768,867;  285,943;49536,822;19,25433
 790,99; 9753,819;  310,443;49118,720;19,34790
 791,55; 9755,396;  282,318;49117,368;19,39811
 792,12; 9878,848;  324,819;49157,266;19,56492
 792,68; 9782,925;  297,694;48807,289;19,55331
 793,25; 9805,002;  285,445;48599,812;19,70337
 793,81; 9895,829;  368,070;48284,085;19,88429
 794,38; 9711,156;  254,571;48050,608;19,78529
 794,94; 9833,109;  274,571;47933,756;20,05602
 795,51; 9828,936;  284,947;47759,529;20,10337
 796,07; 9810,388;  285,572;47600,302;20,13076
 796,64; 9881,840;  294,447;47582,575;20,27442
 797,20; 9805,042;  295,448;47264,598;20,24647
 797,77; 9789,244;  253,073;46810,996;20,48238
 798,33; 9739,696;  293,449;46616,144;20,39227
 798,90; 9843,023;  299,824;46613,667;20,60550
 799,46; 9750,600;  276,575;46204,065;20,62822
 800,03; 9801,927;  285,450;46082,838;20,77952
 800,59; 9864,254;  303,076;45922,986;20,95835
 801,15; 9817,581;  307,326;45651,884;20,97331
 801,72; 9776,658;  290,951;45333,157;21,05960
 802,28; 9755,235;  319,702;45032,805;21,10239
 802,85; 9697,187;  296,452;44956,578;21,04950
 803,41; 9703,390;  277,703;44739,351;21,19959
 803,98; 9689,717;  284,953;44325,249;21,35490
 804,54; 9693,419;  278,579;44070,647;21,49896
 805,11; 9623,121;  297,454;43951,795;21,36252
 805,67; 9705,198;  308,830;43792,443;21,60899
 806,23; 9630,150;  306,705;43382,592;21,64423
 806,80; 9689,977;  317,331;43176,615;21,86842
 807,36; 9714,429;  305,331;43235,263;21,91734
 807,93; 9669,506;  322,581;42844,536;21,98141
 808,49; 9657,958;  274,957;42587,809;22,17530
 809,05; 9599,535;  266,582;42414,707;22,14322
 809,62; 9646,487;  292,958;42395,230;22,21621
 810,18; 9676,064;  286,458;42319,878;22,33843
 810,74; 9625,141;  260,459;42027,276;22,42135
 811,31; 9656,093;  251,834;41764,049;22,65420
 811,87; 9687,296;  287,460;41595,322;22,75556
 812,44; 9756,498;  309,460;41703,720;22,82210
 813,00; 9629,575;  230,710;41293,368;22,88908
 813,56; 9735,652;  282,711;41415,641;22,98144
 814,13; 9732,479;  276,461;41289,914;23,05589
 814,69; 9742,806;  280,087;41046,437;23,21208
 815,25; 9690,508;  234,837;40675,585;23,38154
 815,82; 9745,960;  282,713;40590,108;23,47769
 816,38; 9721,287;  313,713;40538,881;23,38728
 816,94; 9643,864;  274,589;40158,029;23,49164
 817,51; 9643,941;  257,714;39859,927;23,70127
 818,07; 9693,018;  257,839;39667,700;23,94116
 818,63; 9671,845;  289,840;39498,473;23,92842
 819,20; 9716,047;  266,340;39398,871;24,14796
 819,76; 9594,749;  246,466;39101,644;24,05930
 820,32; 9677,202;  280,841;39011,042;24,26107
 820,89; 9690,904;  288,092;38736,065;24,45594
 821,45; 9627,856;  267,217;38466,088;24,50501
 822,01; 9646,808;  265,093;38158,111;24,75843
 822,57; 9640,260;  279,468;38189,759;24,69195
 823,14; 9626,087;  239,344;37857,282;24,95284
 823,70; 9551,914;  272,094;37686,305;24,80293
 824,26; 9614,116;  266,219;37482,953;25,11746
 824,82; 9553,068;  286,220;37313,476;25,02710
 825,39; 9568,020;  263,595;37000,625;25,32710
 825,95; 9614,722;  268,221;37130,398;25,35526
 826,51; 9586,174;  286,471;36660,296;25,56702
 827,08; 9639,501;  319,847;36759,944;25,57527
 827,64; 9651,703;  278,597;36610,092;25,79885
 828,20; 9609,905;  251,723;36290,115;25,96726
 828,76; 9654,733;  294,848;36350,638;25,95945
 829,32; 9695,435;  301,473;36122,411;26,22478
 829,89; 9645,387;  252,224;36009,559;26,26919
 830,45; 9633,214;  278,349;35833,582;26,31080
 831,01; 9666,291;  277,725;35798,230;26,43140
 831,57; 9713,243;  271,850;35675,003;26,66823
 832,14; 9743,195;  253,101;35576,526;26,86629
 832,70; 9706,147;  235,976;35404,174;26,92822
 833,26; 9672,474;  230,227;35218,322;26,98703
 833,82; 9738,301;  264,477;35142,345;27,16285
 834,38; 9774,628;  250,978;35230,493;27,22637
 834,95; 9720,205;  260,603;35090,141;27,15971
 835,51; 9721,907;  235,103;35008,414;27,28185
 836,07; 9814,109;  270,229;35057,937;27,43463
 836,63; 9892,186;  283,979;34973,960;27,69736
 837,19; 9830,639;  291,105;34833,483;27,61690
 837,75; 9820,841;  221,230;34505,131;28,00034
 838,32; 9881,418;  287,481;34618,779;27,94516
 838,88; 9924,745;  280,481;34716,177;28,00659
 839,44; 9971,447;  288,982;34549,450;28,26133
 840,00; 9890,774;  274,607;34511,348;28,08727
 840,56; 9907,601;  262,982;34225,496;28,39783
 841,12; 9946,178;  251,233;34224,894;28,53665
 841,68; 9977,255;  230,358;33893,042;28,95460
 842,25; 9941,082;  252,234;34014,440;28,69732
 842,81; 9925,659;  245,234;33837,963;28,81702
 843,37;10011,111;  234,735;33749,111;29,17069
 843,93;10031,938;  270,360;33702,760;29,19796
 844,49;10114,390;  279,986;33763,033;29,37130
 845,05;10093,843;  222,736;33538,806;29,62866
 845,61;10141,295;  284,111;33659,704;29,53411
 846,17;10082,997;  247,362;33445,477;29,62709
 846,73;10174,199;  265,487;33395,500;29,90857
 847,29;10064,776;  245,363;33244,023;29,75701
 847,86;10147,978;  256,363;33235,796;29,99328
 848,42;10099,680;  253,989;32993,694;30,07263
 848,98;10137,007;  260,864;32951,092;30,21130
 849,54;10205,584;  247,240;33001,615;30,40310
 850,10;10222,161;  266,490;32797,013;30,60409
 850,66;10208,738;  243,741;32648,661;30,75150
 851,22;10120,940;  228,616;32741,809;30,42557
 851,78;10283,017;  286,241;32630,707;30,90722
 852,34;10226,094;  272,867;32366,480;31,01311
 852,90;10169,421;  247,742;32345,253;30,91105
 853,46;10169,874;  258,993;32266,151;30,96458
 854,02;10201,701;  253,493;32184,174;31,15564
 854,58;10281,028;  254,494;31899,447;31,68446
 855,14;10184,855;  246,744;31813,345;31,48299
 855,70;10123,057;  224,870;31658,118;31,48955
 856,26;10270,634;  264,620;31672,141;31,85866
 856,82;10264,836;  257,245;31568,914;31,96122
 857,38;10257,163;  282,746;31440,062;32,01308
 857,94;10205,865;  252,996;31288,835;32,06895
 858,50;10233,692;  285,622;31094,608;32,28951
 859,06;10197,269;  232,997;30921,131;32,46946
 859,62;10266,721;  276,498;30964,779;32,55387
 860,18;10235,548;  260,748;30862,302;32,59573
 860,74;10141,875;  230,249;30585,200;32,65242
 861,30;10176,952;  227,499;30472,098;32,89663
 861,86;10280,655;  316,875;30517,371;32,99211
 862,42;10198,107;  260,500;30274,894;33,10947
 862,98;10218,184;  285,625;30344,668;33,04350
 863,54;10163,386;  263,876;30064,816;33,21878
 864,10;10248,213;  259,251;30079,839;33,49686
 864,66;10123,290;  241,127;29868,987;33,35429
 865,22;10160,492;  240,377;29722,385;33,64803
 865,78;10133,444;  257,253;29662,158;33,58688
 866,34;10142,521;  234,378;29471,431;33,88899
 866,90;10154,348;  247,254;29380,204;34,00649
 867,45;10118,800;  249,754;29259,227;34,02008
 868,01;10182,502;  262,879;29116,750;34,37883
 868,57;10076,829;  246,880;28889,273;34,31958
 869,13;10061,531;  229,755;28812,671;34,39739
 869,69;10092,483;  238,381;28766,319;34,54194
 870,25;10098,936;  223,881;28501,092;34,92231
 870,81;10102,388;  250,132;28594,365;34,75930
 871,37;10196,965;  258,507;28440,763;35,26495
 871,93;10193,042;  269,508;28325,911;35,36994
 872,49;10160,869;  291,133;28027,684;35,58386
 873,04;10140,696;  235,508;27799,082;35,93579
 873,60;10068,898;  242,259;27761,105;35,70876
 874,16;10136,350;  270,134;27678,378;35,99726
 874,72;10090,225;  257,759;27574,003;35,99494
 875,28;10139,475;  255,634;27548,378;36,21417
 875,84;10168,975;  250,759;27388,003;36,54835
 876,40;10203,850;  235,259;27368,753;36,73906
 876,95;10251,100;  270,259;27426,128;36,75390
 877,51;10367,100;  281,009;27443,628;37,13225
 878,07;10309,975;  294,259;27361,878;37,00257
 878,63;10340,725;  251,259;27411,753;37,14758
 879,19;10437,100;  266,384;27291,628;37,63413
 879,75;10476,350;  241,009;27423,878;37,65364
 880,30;10517,725;  244,509;27399,378;37,83195
 880,86;10585,225;  301,134;27534,628;37,76266
 881,42;10649,975;  233,009;27552,503;38,13016
 881,98;10680,725;  260,759;27569,628;38,15598
 882,54;10758,600;  250,259;27762,378;38,19532
 883,09;10856,850;  262,884;27892,003;38,34348
 883,65;10962,975;  244,134;27990,503;38,63151
 884,21;11061,350;  292,884;28238,128;38,53416
 884,77;11070,725;  240,759;28121,878;38,84337
 885,32;11160,475;  257,259;28303,628;38,87568
 885,88;11336,600;  291,509;28606,253;39,00827
 886,44;11396,225;  270,009;28655,253;39,19718
 887,00;11411,600;  276,509;28478,503;39,48335
 887,56;11463,225;  253,634;28735,378;39,35711
 888,11;11560,600;  263,634;28811,503;39,57201
 888,67;11699,350;  303,509;28942,128;39,79187
 889,23;11726,350;  259,634;28870,128;40,07871
 889,79;11688,100;  238,259;28843,503;40,02707
 890,34;11768,850;  270,509;28832,003;40,25819
 890,90;11916,100;  340,259;29040,753;40,33325
 891,46;11835,225;  243,634;28789,878;40,60636
 892,01;11897,350;  262,759;28743,628;40,85055
 892,57;11961,475;  272,009;28809,253;40,96214
 893,13;11868,600;  230,009;28569,378;41,06863
 893,69;11968,350;  250,009;28504,503;41,47425
 894,24;11826,725;  259,509;28454,378;41,02596
 894,80;11882,850;  258,134;28242,378;41,54022
 895,36;11893,350;  257,884;28222,128;41,60837
 895,91;11897,725;  242,884;27902,003;42,13743
 896,47;11889,725;  274,634;27778,378;42,23094
 897,03;11807,350;  240,384;27576,753;42,31347
 897,58;11765,725;  263,634;27518,253;42,20235
 898,14;11700,725;  276,634;27360,753;42,18003
 898,70;11605,975;  226,759;27240,253;42,12419
 899,25;11744,850;  262,509;27187,253;42,64605
 899,81;11696,850;  280,384;26960,503;42,79016
 900,37;11600,100;  226,634;26767,128;42,85326
 900,92;11691,975;  252,009;26852,753;43,00619
 901,48;11585,350;  248,509;26677,378;42,89567
 902,03;11583,475;  240,634;26584,128;43,05747
 902,59;11563,475;  236,009;26463,503;43,18928
 903,15;11508,475;  273,384;26409,253;42,98725
 903,70;11418,350;  255,134;26077,503;43,23080
 904,26;11370,475;  247,259;25967,003;43,24777
 904,82;11434,600;  244,509;25982,878;43,47630
 905,37;11366,100;  250,134;25797,128;43,51183
 905,93;11292,725;  236,759;25589,003;43,60942
 906,48;11393,225;  269,259;25615,253;43,88846
 907,04;11364,475;  268,384;25577,878;43,84161
 907,60;11244,225;  256,384;25384,503;43,72727
 908,15;11267,975;  236,384;25188,503;44,21104
 908,71;11251,100;  268,009;25178,378;44,09044
 909,26;11272,725;  246,009;25020,253;44,50879
 909,82;11255,725;  257,759;24899,628;44,63122
 910,37;11261,725;  294,509;24955,003;44,47281
 910,93;11181,600;  233,134;24603,128;44,92601
 911,48;11177,100;  233,384;24536,378;45,03032
 912,04;11131,850;  237,009;24384,628;45,11766
 912,60;11217,100;  232,134;24362,003;45,52435
 913,15;11103,100;  252,259;24192,878;45,32398
 913,71;11118,975;  234,634;23992,253;45,81411
 914,26;11077,600;  223,259;23946,878;45,75331
 914,82;11154,975;  256,509;23871,628;46,15037
 915,37;11170,350;  232,634;23710,003;46,58834
 915,93;11124,600;  304,259;23696,003;46,25709
 916,48;11143,225;  236,759;23541,128;46,80009
 917,04;11049,100;  258,134;23497,003;46,43499
 917,59;11192,975;  280,509;23373,003;47,25547
 918,15;11025,725;  219,009;23159,128;47,10837
 918,70;11035,100;  254,759;23074,003;47,24232
 919,26;11080,850;  256,009;23019,128;47,55429
 919,81;10977,225;  237,884;22797,628;47,60400
 920,37;10922,975;  250,384;22774,128;47,38373
 920,92;10994,600;  269,384;22682,628;47,85213
 921,48;10886,475;  243,634;22514,378;47,78844
 922,03;10964,975;  223,384;22542,503;48,12731
 922,59;10946,600;  257,509;22375,003;48,32867
 923,14;10914,350;  253,884;22156,253;48,67266
 923,69;10938,350;  263,384;22180,628;48,70579
 924,25;10935,100;  275,259;22133,003;48,76917
 924,80;10852,725;  237,759;21890,003;49,02478
 925,36;10893,975;  241,384;21806,878;49,39646
 925,91;10885,350;  243,884;21630,003;49,75875
 926,47;10859,475;  212,384;21562,503;49,86900
 927,02;10901,350;  309,009;21570,128;49,82024
 927,57;10829,850;  242,259;21285,378;50,31379
 928,13;10774,475;  230,259;21367,003;49,88571
 928,68;10792,475;  233,259;21214,128;50,32783
 929,24;10667,975;  214,759;21045,628;50,18137
 929,79;10693,100;  219,509;20830,128;50,81648
 930,34;10605,975;  245,259;20796,378;50,41436
 930,90;10603,725;  238,634;20702,128;50,65162
 931,45;10646,850;  253,009;20658,003;50,93773
 932,01;10606,225;  250,384;20551,628;51,01087
 932,56;10614,100;  267,634;20470,003;51,21412
 933,11;10628,475;  267,884;20446,628;51,34408
 933,67;10567,475;  229,259;20221,628;51,71081
 934,22;10555,475;  250,259;20171,003;51,73108
 934,77;10616,225;  254,384;20040,753;52,36858
 935,33;10492,100;  237,259;20014,753;51,85106
 935,88;10455,850;  249,759;19904,753;51,92620
 936,43;10520,475;  245,509;19795,128;52,55839
 936,99;10513,100;  235,884;19691,878;52,82288
 937,54;10442,350;  217,259;19403,378;53,29421
 938,09;10466,225;  253,884;19535,878;52,96309
 938,65;10446,975;  254,634;19403,378;53,22720
 939,20;10397,350;  211,884;19236,628;53,53799
 939,75;10372,975;  223,134;19270,753;53,28666
 940,31;10331,225;  227,634;19060,128;53,64978
 940,86;10378,350;  243,259;19067,378;53,84098
 941,41;10416,100;  331,009;19018,878;53,96598
 941,96;10277,850;  229,509;18780,503;54,16605
 942,52;10313,725;  251,009;18697,628;54,55046
 943,07;10236,475;  218,134;18676,128;54,27643
 943,62;10220,975;  226,259;18607,503;54,37453
 944,18;10167,225;  221,384;18586,378;54,15652
 944,73;10241,100;  245,259;18394,253;55,07656
 945,28;10123,100;  207,634;18279,003;54,86837
 945,83;10119,475;  234,134;18219,378;54,96362
 946,39;10154,850;  230,384;18248,128;55,08162
 946,94;10187,475;  261,009;18027,753;55,87105
 947,49;10113,350;  236,509;17966,753;55,70618
 948,04;10067,850;  275,009;18014,128;55,20478
 948,59;10069,725;  268,384;17873,253;55,67403
 949,15;10022,975;  231,884;17804,503;55,71788
 949,70;10008,725;  234,259;17653,503;56,11303
 950,25; 9962,975;  248,884;17706,878;55,64265
 950,80; 9886,100;  205,759;17511,628;55,93675
 951,36; 9871,225;  217,884;17507,128;55,83437
 951,91;10006,975;  253,009;17470,503;56,65148
 952,46; 9881,225;  222,509;17188,628;56,92944
 953,01; 9889,475;  250,134;17225,128;56,78553
 953,56; 9851,100;  213,634;17122,753;56,99567
 954,11; 9809,850;  243,884;17078,753;56,82234
 954,67; 9902,600;  223,009;16969,128;57,80199
 955,22; 9754,100;  224,384;16796,378;57,50494
 955,77; 9815,600;  253,509;16719,628;58,07131
 956,32; 9801,225;  288,634;16633,628;58,19880
 956,87; 9761,600;  225,384;16514,753;58,54257
 957,42; 9788,350;  231,384;16456,628;58,90183
 957,98; 9727,725;  232,509;16379,378;58,80531
 958,53; 9724,475;  265,634;16353,253;58,79578
 959,08; 9731,100;  224,634;16219,128;59,43586
 959,63; 9644,600;  233,634;16169,003;59,05709
 960,18; 9638,725;  244,384;16146,878;59,07464
 960,73; 9618,725;  234,634;16087,128;59,19631
 961,28; 9594,850;  203,384;15994,628;59,47262
 961,83; 9589,350;  266,759;15909,253;59,59785
 962,39; 9544,975;  227,259;15738,003;60,07266
 962,94; 9487,100;  249,134;15684,003;59,85127
 963,49; 9398,475;  234,884;15612,003;59,59238
 964,04; 9419,975;  252,884;15539,503;59,96807
 964,59; 9388,850;  203,759;15504,378;60,03084
 965,14; 9388,725;  250,509;15330,128;60,59978
 965,69; 9359,100;  235,134;15311,378;60,51883
 966,24; 9303,100;  221,134;15202,003;60,62376
 966,79; 9271,850;  252,884;15151,128;60,53711
 967,34; 9161,475;  203,259;14946,253;60,76253
 967,89; 9214,475;  234,634;14840,753;61,47999
 968,44; 9143,850;  250,884;14788,878;61,17051
 968,99; 9166,975;  256,259;14732,253;61,55512
 969,55; 9141,225;  242,884;14691,128;61,58770
 970,10; 9138,225;  234,884;14614,628;61,91585
 970,65; 9086,850;  262,759;14470,378;62,10816
 971,20; 9018,225;  225,009;14369,878;62,16541
 971,75; 8950,850;  217,884;14270,753;62,14365
 972,30; 8959,725;  245,009;14232,503;62,30362
 972,85; 8886,350;  233,509;14126,628;62,28148
 973,40; 8863,975;  220,509;13932,253;63,03695
 973,95; 8860,100;  237,884;13944,253;62,90664
 974,50; 8858,225;  265,884;13852,253;63,24236
 975,05; 8794,475;  245,759;13745,753;63,32385
 975,60; 8763,600;  260,884;13712,128;63,21137
 976,15; 8683,725;  228,884;13604,628;63,21025
 976,70; 8644,975;  239,134;13528,503;63,25237
 977,25; 8688,725;  252,634;13442,003;63,96129
 977,80; 8536,100;  228,009;13275,003;63,67820
 978,35; 8425,475;  254,884;13120,753;63,50594
 978,89; 8404,100;  210,134;13086,628;63,63507
 979,44; 8432,600;  248,134;13051,753;63,92307
 979,99; 8316,100;  214,509;12875,128;63,99048
 980,54; 8326,725;  261,009;12754,628;64,55868
 981,09; 8259,225;  267,759;12682,628;64,37012
 981,64; 8231,975;  252,759;12533,003;64,97604
 982,19; 8224,850;  269,759;12554,128;64,75783
 982,74; 8137,600;  248,759;12370,003;65,08277
 983,29; 8049,225;  237,884;12254,378;65,00516
 983,84; 7987,100;  240,509;12178,503;64,89022
 984,39; 8093,350;  335,759;12094,003;65,97576
 984,94; 7936,350;  220,259;11988,128;65,56914
 985,49; 7861,350;  262,884;11895,878;65,31823
 986,03; 7826,850;  260,634;11798,878;65,57511
 986,58; 7799,100;  293,884;11771,503;65,39001
 987,13; 7736,975;  246,259;11579,128;66,09726
 987,68; 7661,725;  253,509;11507,503;65,82744
 988,23; 7647,225;  263,509;11439,503;66,06764
 988,78; 7582,725;  232,884;11302,628;66,39576
 989,33; 7535,600;  254,509;11168,253;66,71488
 989,88; 7524,600;  285,134;11193,503;66,36616
 990,42; 7366,975;  244,259;10999,128;66,22782
 990,97; 7334,850;  243,759;10884,503;66,64093
 991,52; 7343,225;  265,884;10848,378;66,87782
 992,07; 7306,100;  280,634;10702,003;67,41404
 992,62; 7217,850;  247,134;10623,128;67,18119
 993,17; 7159,350;  259,634;10504,003;67,35130
 993,71; 7174,100;  260,509;10500,253;67,51722
 994,26; 7040,600;  233,259;10249,128;67,96555
 994,81; 7082,350;  277,509;10310,253;67,82632
 995,36; 6883,475;  243,134;10066,503;67,59739
 995,91; 6918,725;  241,009;10022,253;68,27062
 996,45; 6876,475;  262,259; 9928,878;68,42326
 997,00; 6782,850;  235,384; 9768,628;68,68035
 997,55; 6764,975;  250,634; 9720,753;68,78837
 998,10; 6693,975;  271,134; 9657,253;68,42914
 998,65; 6613,475;  240,134; 9575,003;68,27456
 999,19; 6571,600;  273,384; 9418,378;68,87064
 999,74; 6521,600;  296,634; 9336,253;68,86314
1000,29; 6472,100;  248,134; 9231,878;69,28031
1000,84; 6368,725;  260,384; 9129,378;68,87298
1001,38; 6335,100;  257,509; 9017,628;69,37795
1001,93; 6326,100;  261,384; 8967,378;69,66138
1002,48; 6174,975;  231,634; 8805,128;69,32227
1003,03; 6196,225;  262,509; 8742,128;69,97621
1003,57; 6158,100;  246,509; 8670,753;70,17355
1004,12; 6150,350;  298,384; 8602,003;70,47488
1004,67; 6001,725;  238,634; 8466,003;70,04780
1005,22; 5864,600;  243,509; 8329,503;69,51639
1005,76; 5900,225;  233,884; 8179,378;71,31515
1006,31; 5893,475;  261,634; 8210,128;70,85419
1006,86; 5776,225;  241,384; 8008,878;71,25645
1007,40; 5643,350;  227,884; 7869,878;70,86456
1007,95; 5668,850;  253,009; 7873,503;71,06942
1008,50; 5561,100;  257,759; 7767,753;70,61711
1009,04; 5506,850;  249,509; 7615,503;71,37313
1009,59; 5411,225;  249,884; 7503,128;71,15907
1010,14; 5314,725;  231,384; 7368,753;71,22149
1010,68; 5217,600;  251,509; 7250,003;70,95942
1011,23; 5183,100;  250,259; 7134,003;71,65927
1011,78; 5174,850;  266,259; 7093,128;71,90105
1012,32; 5064,350;  278,509; 7000,253;71,19939
1012,87; 5070,850;  271,009; 6989,378;71,44354
1013,42; 4973,225;  235,384; 6848,503;71,64306
1013,96; 4985,725;  275,759; 6864,128;71,48910
1014,51; 4898,475;  214,259; 6725,128;71,94456
1015,06; 4880,100;  221,259; 6773,628;71,10162
1015,60; 4965,225;  291,134; 6803,253;71,77527
1016,15; 4936,350;  236,009; 6754,753;72,10501
1016,69; 4964,225;  247,134; 6759,253;72,43557
1017,24; 5012,225;  218,259; 6711,378;73,83148
1017,79; 5084,100;  287,259; 6827,503;73,34345
1018,33; 5084,725;  252,509; 6727,253;74,63177
1018,88; 5126,850;  259,384; 6856,503;73,78169
1019,42; 5079,850;  233,009; 6879,628;72,92190
1019,97; 5136,100;  232,634; 6881,003;73,75442
1020,51; 5241,100;  273,884; 6943,003;74,48084
1021,06; 5228,225;  234,634; 6865,003;75,31392
1021,61; 5170,350;  216,634; 6885,503;74,28120
1022,15; 5179,100;  191,634; 6840,878;75,00801
1022,70; 5218,475;  249,759; 6853,628;75,23947
1023,24; 5224,100;  238,634; 6839,253;75,53028
1023,79; 5211,100;  243,134; 6774,503;76,06316
1024,33; 5163,225;  240,259; 6673,378;76,52533
1024,88; 5162,475;  258,509; 6621,503;77,07010
1025,42; 5062,600;  251,134; 6513,753;76,82833
1025,97; 4958,350;  218,259; 6406,753;76,59522
1026,51; 4901,600;  207,009; 6313,378;76,88023
1027,06; 4823,850;  227,634; 6260,253;76,18939
1027,60; 4779,475;  246,884; 6132,253;77,01456
1028,15; 4783,600;  254,509; 6078,753;77,76272
1028,69; 4612,100;  191,134; 5940,003;76,90149
1029,24; 4629,225;  239,134; 5863,253;78,05828
1029,78; 4522,225;  219,759; 5768,378;77,54120
1030,33; 4430,475;  217,634; 5648,628;77,57035
1030,87; 4366,350;  223,634; 5602,003;77,02550
1031,42; 4333,475;  218,009; 5497,003;77,95928
1031,96; 4303,850;  247,384; 5439,878;78,12172
1032,51; 4229,975;  230,759; 5345,128;78,19568
1033,05; 4170,850;  237,134; 5284,003;77,94369
1033,60; 4082,475;  215,259; 5192,128;77,70379
1034,14; 4020,225;  221,009; 5125,753;77,46002
1034,69; 3948,725;  235,384; 5066,003;76,87091
1035,23; 3942,725;  230,009; 5000,378;77,82869
1035,77; 3896,225;  235,759; 4943,253;77,75827
1036,32; 3823,475;  217,009; 4838,128;78,04313
1036,86; 3766,100;  246,634; 4790,878;77,44887
1037,41; 3714,475;  252,759; 4708,378;77,69326
1037,95; 3686,350;  200,259; 4616,253;78,94238
1038,50; 3628,350;  228,259; 4563,503;78,42905
1039,04; 3594,475;  256,759; 4536,378;77,99096
1039,58; 3527,350;  212,634; 4473,128;77,80121
1040,13; 3493,475;  221,759; 4372,253;78,82714
1040,67; 3488,975;  259,259; 4397,878;78,03849
1041,21; 3415,475;  258,509; 4295,628;78,19848
1041,76; 3343,100;  216,259; 4204,253;78,40636
1042,30; 3318,850;  228,009; 4140,253;79,00430
1042,85; 3263,100;  222,509; 4049,378;79,45375
1043,39; 3234,975;  216,759; 4013,003;79,50532
1043,93; 3215,850;  239,009; 4026,378;78,59918
1044,48; 3165,850;  246,134; 3922,253;79,42387
1045,02; 3123,100;  228,134; 3879,878;79,27625
1045,56; 3084,850;  263,634; 3844,628;78,78304
1046,11; 3073,975;  242,509; 3809,253;79,38517
1046,65; 2998,850;  250,009; 3732,878;78,92461
1047,19; 2976,725;  230,259; 3646,128;80,40314
1047,74; 2985,225;  214,259; 3568,378;82,61382
1048,28; 2911,475;  237,884; 3582,253;79,94306
1048,82; 2942,600;  259,134; 3544,628;81,67618
1049,37; 2908,225;  248,009; 3496,253;81,89704
1049,91; 2867,100;  240,509; 3480,253;81,07402
1050,45; 2830,975;  253,884; 3407,003;81,73148
1050,99; 2762,475;  253,009; 3363,628;80,67416
1051,54; 2735,475;  220,884; 3270,503;82,45590
1052,08; 2732,100;  266,259; 3269,128;82,11616
1052,62; 2699,475;  247,759; 3227,878;82,26906
1053,16; 2648,100;  226,634; 3147,628;82,89869
1053,71; 2638,600;  235,259; 3155,378;82,30284
1054,25; 2589,850;  263,259; 3056,753;83,28605
1054,79; 2598,850;  248,259; 3051,378;83,85626
1055,33; 2506,100;  207,009; 2974,378;83,07858
1055,88; 2511,225;  252,509; 2923,753;84,55670
1056,42; 2510,725;  250,634; 2927,503;84,43039
1056,96; 2459,100;  265,634; 2908,503;82,99563
1057,50; 2448,975;  234,634; 2872,628;83,94033
1058,05; 2394,600;  246,634; 2782,628;84,69917
1058,59; 2363,475;  270,634; 2757,378;84,15988
1059,13; 2295,100;  222,884; 2688,378;84,04871
1059,67; 2317,225;  260,759; 2655,503;85,87414
1060,21; 2252,600;  244,134; 2629,753;84,19055
1060,76; 2237,600;  254,884; 2590,878;84,87675
1061,30; 2230,725;  278,009; 2573,753;85,05808
1061,84; 2208,100;  238,384; 2505,378;86,88668
1062,38; 2104,100;  224,759; 2454,003;84,30395
1062,92; 2149,225;  283,259; 2508,003;83,87328
1063,46; 2110,100;  251,884; 2403,128;86,37866
1064,01; 2067,350;  229,384; 2331,253;87,44436
1064,55; 2031,475;  249,509; 2332,128;85,56370
1065,09; 1985,600;  213,509; 2301,253;84,88066
1065,63; 2025,975;  275,509; 2314,878;85,83370
1066,17; 1978,100;  282,259; 2276,003;85,05810
1066,71; 1965,725;  269,634; 2232,628;86,40326
1067,25; 1930,225;  252,759; 2183,628;86,87621
1067,80; 1915,600;  267,509; 2176,878;86,31599
1068,34; 1908,100;  267,884; 2183,003;85,64564
1068,88; 1844,975;  227,384; 2107,253;86,04806
1069,42; 1866,225;  264,634; 2130,503;85,83619
1069,96; 1812,600;  258,759; 2054,753;86,51704
1070,50; 1822,350;  281,509; 2088,753;85,25915
1071,04; 1756,600;  241,009; 1996,628;86,32800
1071,58; 1761,600;  245,134; 1985,003;87,15977
1072,12; 1697,850;  241,759; 1958,503;84,81700
1072,66; 1713,725;  242,759; 1971,878;85,07025
1073,21; 1709,475;  265,009; 1939,378;86,26927
1073,75; 1676,725;  260,759; 1910,503;85,82943
1074,29; 1654,725;  239,884; 1852,753;87,72199
1074,83; 1659,975;  271,509; 1869,628;86,88125
1075,37; 1640,225;  267,509; 1846,628;86,92922
1075,91; 1614,725;  262,884; 1820,878;86,76804
1076,45; 1597,475;  264,509; 1808,253;86,34630
1076,99; 1565,725;  274,884; 1784,753;85,49357
1077,53; 1531,100;  251,384; 1737,503;86,11126
1078,07; 1543,100;  263,009; 1706,003;88,71075
1078,61; 1516,600;  259,634; 1672,003;88,99699
1079,15; 1486,975;  242,759; 1671,378;87,09221
1079,69; 1504,225;  242,259; 1661,003;88,94951
1080,23; 1474,350;  270,509; 1651,003;87,20363
1080,77; 1501,975;  300,884; 1695,753;86,10779
1081,31; 1413,600;  243,634; 1588,003;87,02714
1081,85; 1432,475;  263,634; 1627,378;85,70823
1082,39; 1400,100;  244,884; 1565,128;87,50018
1082,93; 1418,850;  247,134; 1560,753;89,19754
1083,47; 1359,725;  233,384; 1516,628;87,77293
1084,01; 1365,725;  267,259; 1536,628;86,53637
1084,55; 1322,350;  248,009; 1494,628;86,18037
1085,09; 1338,850;  254,384; 1500,253;87,04493
1085,63; 1349,350;  252,259; 1475,878;89,65951
1086,17; 1289,475;  261,134; 1448,003;86,64316
1086,71; 1293,725;  245,009; 1412,128;89,85509
1087,24; 1318,725;  278,509; 1442,753;89,34689
1087,78; 1314,225;  260,259; 1446,503;88,84899
1088,32; 1236,225;  236,509; 1385,253;87,02686
1088,86; 1262,975;  271,384; 1385,253;89,02221
1089,40; 1223,350;  262,759; 1364,503;87,18821
1089,94; 1214,850;  224,009; 1318,878;90,49858
1090,48; 1194,600;  261,259; 1308,128;89,15546
1091,02; 1198,350;  277,884; 1317,253;88,56006
1091,56; 1180,850;  241,509; 1288,628;89,70717
1092,10; 1151,975;  234,634; 1270,628;88,54693
1092,63; 1177,475;  273,884; 1284,753;89,38753
1093,17; 1147,350;  263,134; 1265,628;88,20161
1093,71; 1109,600;  246,884; 1246,753;86,28289
1094,25; 1143,100;  278,009; 1237,003;90,20816
1094,79; 1097,975;  242,759; 1230,628;86,57179
1095,33; 1113,225;  264,509; 1201,378;90,59066
1095,87; 1086,350;  259,384; 1185,378;89,30575
1096,40; 1054,225;  242,634; 1136,253;90,82068
1096,94; 1054,850;  264,759; 1172,753;87,01498
1097,48; 1054,850;  273,509; 1160,628;88,07622
1098,02; 1012,100;  250,634; 1128,003;86,78969
1098,56;  997,100;  223,384; 1101,503;88,11059
1099,10; 1007,100;  216,259; 1081,003;91,45375
1099,63; 1008,475;  226,884; 1054,878;94,39572
1100,17; 1008,975;  252,759; 1122,253;86,97194
1100,71; 1018,725;  285,884; 1087,378;91,43435

