
Integration time [ms]: 130,000
Averaging Nr. [scans]: 7
Smoothing Nr. [pixels]: 0
Data measured with spectrometer [name]: 2009305U1
Wave   ;Sample   ;Dark     ;Reference;Reflectance
[nm]   ;[counts] ;[counts] ;[counts] ;[%]

 175,72;  215,479;  192,986;  201,498;264,26296
 176,32;  223,830;  222,384;  221,717; 0,00000
 176,92;  265,266;  241,385;  235,854; 0,00000
 177,52;  273,417;  259,786;  258,523; 0,00000
 178,12;  241,763;  246,984;  204,441; 0,00000
 178,72;  277,307;  250,783;  241,274; 0,00000
 179,32;  244,654;  247,384;  249,069;-161,97544
 179,92;  246,877;  231,385;  239,762;184,92698
 180,52;  259,303;  244,988;  241,098; 0,00000
 181,12;  271,535;  248,385;  229,716; 0,00000
 181,73;  286,928;  272,585;  262,308; 0,00000
 182,33;  363,576;  306,387;  321,281;383,97241
 182,93;  274,000;  256,186;  256,932; 0,00000
 183,53;  248,321;  246,183;  223,624; 0,00000
 184,13;  242,637;  236,383;  230,131; 0,00000
 184,73;  300,566;  249,982;  256,507;775,29018
 185,33;  280,953;  234,768;  346,100;41,48447
 185,93;  311,034;  232,166;  351,877;65,88245
 186,53;  318,653;  241,967;  348,122;72,23922
 187,13;  348,812;  257,569;  394,908;66,43632
 187,73;  291,274;  220,566;  335,660;61,43512
 188,33;  293,096;  254,365;  362,824;35,70996
 188,93;  311,134;  244,562;  398,475;43,25272
 189,53;  318,748;  258,559;  392,476;44,94470
 190,13;  364,858;  283,155;  430,284;55,53176
 190,73;  300,945;  220,558;  363,114;56,39003
 191,34;  322,218;  253,561;  378,621;54,89968
 191,94;  295,907;  240,364;  345,758;52,70002
 192,54;  325,207;  245,370;  399,729;51,72144
 193,14;  328,550;  248,969;  381,307;60,13476
 193,74;  311,839;  249,968;  364,047;54,23461
 194,34;  304,338;  227,969;  353,891;60,64733
 194,94;  276,561;  218,569;  355,716;42,28486
 195,54;  268,711;  215,168;  334,977;44,69030
 196,14;  276,488;  221,569;  355,380;41,04184
 196,74;  265,209;  216,167;  336,993;40,58892
 197,34;  263,676;  188,971;  344,465;48,04342
 197,94;  275,724;  220,769;  365,195;38,05071
 198,54;  293,884;  238,769;  365,333;43,54673
 199,14;  292,143;  213,971;  370,842;49,83177
 199,74;  272,989;  202,971;  374,033;40,93106
 200,34;  275,338;  199,372;  356,968;48,20328
 200,94;  313,414;  232,170;  410,644;45,52157
 201,54;  280,783;  216,571;  406,478;33,81231
 202,14;  339,422;  231,172;  444,781;50,67648
 202,74;  306,341;  223,371;  453,508;36,05236
 203,34;  295,624;  184,573;  446,416;42,41118
 203,94;  287,508;  173,772;  465,735;38,95562
 204,54;  372,426;  229,569;  530,605;47,45506
 205,14;  342,396;  190,571;  533,994;44,20911
 205,74;  401,646;  239,373;  624,034;42,18600
 206,34;  377,114;  210,772;  632,343;39,45775
 206,94;  385,348;  212,972;  703,417;35,14679
 207,54;  380,895;  188,772;  726,418;35,73417
 208,14;  425,784;  196,172;  794,506;38,37514
 208,74;  458,034;  217,771;  891,670;35,65262
 209,34;  475,603;  210,171;  960,509;35,37496
 209,94;  504,021;  204,571; 1037,280;35,96095
 210,54;  530,583;  213,973; 1112,879;35,22176
 211,14;  589,187;  204,571; 1236,499;37,27157
 211,73;  632,366;  197,971; 1326,867;38,47968
 212,33;  647,711;  206,770; 1438,453;35,79988
 212,93;  703,199;  203,171; 1522,488;37,90052
 213,53;  708,880;  174,371; 1562,260;38,51232
 214,13;  780,168;  205,174; 1652,697;39,72262
 214,73;  752,993;  195,372; 1657,381;38,14073
 215,33;  760,593;  168,771; 1707,080;38,47221
 215,93;  818,460;  206,573; 1816,158;38,01523
 216,53;  844,046;  162,571; 1892,659;39,38961
 217,13;  939,968;  227,173; 2126,822;37,52245
 217,73; 1024,866;  196,373; 2281,539;39,73272
 218,33; 1061,880;  148,574; 2495,337;38,91770
 218,93; 1189,557;  192,576; 2756,037;38,89198
 219,53; 1300,012;  185,774; 3043,728;38,98726
 220,13; 1358,096;  168,574; 3315,721;37,79684
 220,73; 1523,856;  196,771; 3663,262;38,28323
 221,32; 1670,605;  176,771; 4002,670;39,04531
 221,92; 1813,954;  167,774; 4489,701;38,08903
 222,52; 1946,514;  177,173; 4825,264;38,06597
 223,12; 2076,194;  176,973; 5207,436;37,75440
 223,72; 2233,469;  185,573; 5646,427;37,50138
 224,32; 2365,786;  194,973; 5979,694;37,52667
 224,92; 2451,292;  176,373; 6339,999;36,90877
 225,52; 2490,908;  191,372; 6688,408;35,39361
 226,12; 2553,803;  188,373; 6945,384;35,00706
 226,72; 2669,738;  156,572; 7238,269;35,48819
 227,31; 2725,815;  154,172; 7537,973;34,82817
 227,91; 2836,788;  179,172; 7960,806;34,15242
 228,51; 2874,929;  181,371; 8348,198;32,98171
 229,11; 2962,519;  177,972; 8762,344;32,43740
 229,71; 3033,573;  176,971; 9024,802;32,28590
 230,31; 3110,662;  169,774; 9523,192;31,44186
 230,91; 3173,363;  158,770; 9767,098;31,37479
 231,51; 3201,229;  158,573;10040,244;30,79091
 232,10; 3265,946;  173,574;10533,432;29,84956
 232,70; 3256,623;  168,769;10665,091;29,41844
 233,30; 3329,637;  186,173;11029,985;28,98855
 233,90; 3269,285;  172,773;11194,690;28,09414
 234,50; 3246,625;  170,773;11401,596;27,38759
 235,10; 3252,720;  166,173;11490,599;27,25566
 235,70; 3259,481;  186,972;11624,368;26,86371
 236,29; 3148,881;  179,571;11659,240;25,86581
 236,89; 3089,142;  160,370;11714,814;25,34758
 237,49; 3050,056;  180,372;11688,736;24,93563
 238,09; 2960,257;  182,372;11480,943;24,58616
 238,69; 2927,619;  195,970;11405,171;24,36971
 239,29; 2770,599;  172,372;11141,789;23,68610
 239,89; 2711,636;  182,770;10898,509;23,59955
 240,48; 2605,477;  159,372;10599,047;23,43085
 241,08; 2533,567;  180,972;10337,522;23,16334
 241,68; 2476,553;  189,772;10061,372;23,16525
 242,28; 2372,561;  164,373; 9819,061;22,87167
 242,88; 2391,442;  198,374; 9482,888;23,62071
 243,48; 2392,496;  203,372; 9250,746;24,19623
 244,07; 2303,151;  177,372; 9107,911;23,80348
 244,67; 2360,190;  195,772; 9009,487;24,55738
 245,27; 2353,509;  195,971; 8880,267;24,84414
 245,87; 2397,784;  209,373; 8777,534;25,54120
 246,47; 2443,289;  188,171; 8790,362;26,21563
 247,06; 2528,709;  173,372; 8816,141;27,25211
 247,66; 2594,003;  172,972; 8941,810;27,60949
 248,26; 2726,343;  208,171; 9026,468;28,55621
 248,86; 2924,695;  197,971; 9181,944;30,35099
 249,46; 3065,812;  165,373; 9444,253;31,25850
 250,05; 3287,071;  195,972; 9783,266;32,24162
 250,65; 3485,709;  149,571;10138,313;33,39898
 251,25; 3769,051;  171,372;10609,388;34,46708
 251,85; 4048,109;  159,770;11118,766;35,48080
 252,44; 4359,111;  132,971;11710,174;36,50398
 253,04; 4747,427;  197,371;12463,062;37,09580
 253,64; 5112,304;  163,171;13112,912;38,21801
 254,24; 5598,368;  193,572;13970,475;39,23085
 254,84; 6074,812;  183,973;14890,853;40,05499
 255,43; 6549,550;  191,571;15757,603;40,84521
 256,03; 7106,270;  183,971;16591,684;42,18930
 256,63; 7629,648;  198,570;17660,118;42,55681
 257,23; 8088,086;  169,170;18345,547;43,56708
 257,82; 8708,467;  190,769;19251,922;44,68616
 258,42; 9062,075;  152,769;19951,490;44,99940
 259,02; 9620,406;  194,171;20729,623;45,90225
 259,62;10015,374;  163,369;21428,059;46,33035
 260,21;10342,572;  194,771;21896,222;46,76093
 260,81;10640,683;  172,972;22326,403;47,25097
 261,41;10902,018;  167,369;22570,864;47,91506
 262,01;11242,597;  206,768;23108,504;48,18774
 262,60;11437,801;  168,170;23373,147;48,56557
 263,20;11666,631;  156,371;23500,628;49,30660
 263,80;11760,861;  205,368;23599,066;49,39575
 264,40;11940,969;  160,968;23819,858;49,79101
 264,99;12072,609;  182,368;23843,294;50,25265
 265,59;12090,499;  167,567;24059,513;49,90356
 266,19;12136,136;  146,568;24172,257;49,90312
 266,78;12251,174;  210,768;24316,185;49,94897
 267,38;12249,914;  183,967;24330,944;49,96877
 267,98;12196,437;  157,568;24150,966;50,17576
 268,58;12274,848;  184,567;24217,448;50,30725
 269,17;12176,614;  164,966;24285,346;49,79875
 269,77;12070,958;  198,370;24085,497;49,70287
 270,37;11993,873;  147,368;23944,855;49,78049
 270,96;11917,720;  207,769;23900,074;49,42512
 271,56;11756,296;  182,770;23601,023;49,42096
 272,16;11633,513;  177,569;23375,339;49,38382
 272,75;11459,095;  187,969;23411,568;48,53307
 273,35;11427,433;  190,969;23294,694;48,63486
 273,95;11333,798;  185,769;23354,159;48,11741
 274,54;11254,907;  158,572;23331,028;47,88588
 275,14;11381,378;  192,569;23707,828;47,58106
 275,74;11327,755;  153,369;23879,482;47,09741
 276,33;11445,716;  203,970;24142,154;46,96157
 276,93;11588,608;  188,772;24583,858;46,73005
 277,53;11666,298;  192,571;25175,231;45,92676
 278,12;11874,074;  166,570;25657,758;45,92765
 278,72;12137,013;  205,171;26178,411;45,93898
 279,32;12400,157;  164,571;26753,991;46,01675
 279,91;12573,884;  171,371;27521,361;45,34742
 280,51;12827,242;  184,971;28009,765;45,43527
 281,11;13132,961;  196,371;28752,665;45,30206
 281,70;13314,864;  168,771;29039,102;45,53496
 282,30;13541,868;  164,370;29898,623;44,99019
 282,90;13746,483;  162,570;30314,080;45,05218
 283,49;13957,136;  190,569;30828,085;44,93369
 284,09;14124,392;  203,370;31190,426;44,92528
 284,69;14358,355;  185,371;31498,658;45,26189
 285,28;14472,403;  210,370;31942,235;44,94546
 285,88;14675,415;  227,969;32156,996;45,24862
 286,47;14784,066;  177,970;32188,289;45,62934
 287,07;14829,168;  194,771;32347,001;45,51596
 287,67;14991,496;  195,172;32354,546;46,00937
 288,26;15062,256;  184,971;32405,315;46,17358
 288,86;15133,062;  186,570;32495,769;46,26079
 289,46;15360,862;  186,371;32680,542;46,69912
 290,05;15522,920;  179,172;32626,997;47,28745
 290,65;15736,397;  185,370;32941,526;47,47513
 291,24;15966,914;  194,771;32878,468;48,25691
 291,84;16117,790;  202,970;33219,118;48,20314
 292,44;16238,594;  169,373;33300,709;48,50158
 293,03;16407,881;  246,171;33547,421;48,53184
 293,63;16520,417;  186,770;33615,584;48,86098
 294,22;16691,709;  208,371;33698,513;49,21848
 294,82;16598,342;  182,368;33743,792;48,91322
 295,41;16502,578;  156,771;33498,702;49,02478
 296,01;16449,603;  227,569;33383,433;48,92659
 296,61;16392,178;  194,371;33207,630;49,06455
 297,20;15943,030;  196,769;32826,653;48,25718
 297,80;15945,874;  204,972;32694,780;48,44874
 298,39;15391,109;  175,570;32287,366;47,38302
 298,99;15294,214;  191,569;32103,970;47,32532
 299,58;15052,201;  202,372;31960,897;46,75856
 300,18;14807,359;  209,372;31811,026;46,19374
 300,78;14394,044;  171,771;31484,299;45,42039
 301,37;14222,710;  207,968;31547,997;44,71834
 301,97;14125,653;  187,571;31411,847;44,63861
 302,56;13802,133;  182,570;31378,165;43,65861
 303,16;13606,970;  154,770;31499,886;42,91642
 303,75;13427,306;  174,571;31460,900;42,35951
 304,35;13370,744;  188,573;31471,397;42,13869
 304,94;13282,026;  194,771;31687,381;41,55659
 305,54;12957,605;  187,371;31750,070;40,45989
 306,13;12844,469;  151,573;31621,627;40,33325
 306,73;12558,638;  159,173;31458,566;39,61567
 307,33;12337,596;  198,772;31266,869;39,07167
 307,92;12211,233;  181,971;31330,916;38,61852
 308,52;12175,388;  169,770;31983,457;37,73727
 309,11;12066,999;  176,969;32351,365;36,95494
 309,71;12026,630;  152,968;32616,552;36,57533
 310,30;11973,651;  174,971;32954,887;35,99363
 310,90;11994,937;  185,971;33262,687;35,70175
 311,49;11773,147;  183,771;33381,562;34,91008
 312,09;11594,567;  151,372;33501,122;34,31269
 312,68;11621,451;  211,971;33895,860;33,87222
 313,28;11497,519;  158,371;34163,316;33,34558
 313,87;11297,388;  155,571;34084,705;32,83850
 314,47;11237,920;  180,169;34410,101;32,30433
 315,06;11168,683;  167,171;34623,354;31,92899
 315,66;11037,282;  175,372;34781,722;31,38704
 316,25;10788,046;  155,370;34635,211;30,83737
 316,85;10561,018;  151,972;34745,960;30,08918
 317,44;10556,900;  158,569;34808,042;30,01007
 318,04;10329,692;  154,570;34964,575;29,23045
 318,63;10125,099;  152,173;34926,013;28,67939
 319,22;10119,518;  179,570;35223,088;28,36458
 319,82; 9976,920;  169,770;35286,149;27,92757
 320,41; 9776,385;  180,770;35143,517;27,44526
 321,01; 9618,503;  184,572;35123,206;27,00143
 321,60; 9478,579;  168,770;35341,283;26,46899
 322,20; 9370,606;  157,971;35299,850;26,21554
 322,79; 9240,145;  208,771;35313,402;25,72701
 323,39; 9138,218;  169,373;35372,034;25,47775
 323,98; 8952,748;  144,771;35282,670;25,06689
 324,58; 8904,135;  178,970;35129,905;24,96404
 325,17; 8755,309;  196,170;35027,392;24,57318
 325,76; 8605,905;  188,171;34881,219;24,26346
 326,36; 8371,975;  149,972;34539,463;23,90848
 326,95; 8256,732;  188,371;34192,512;23,72759
 327,55; 8074,151;  153,970;33899,863;23,47006
 328,14; 7831,730;  170,972;33373,200;23,07302
 328,74; 7808,572;  209,170;33084,174;23,11605
 329,33; 7639,778;  182,972;32760,777;22,88922
 329,92; 7360,801;  158,569;31966,499;22,64288
 330,52; 7219,059;  188,172;31457,277;22,48509
 331,11; 7040,755;  179,770;31131,730;22,16656
 331,71; 6910,313;  183,571;30498,361;22,18964
 332,30; 6738,741;  180,371;29967,981;22,01711
 332,89; 6691,845;  211,371;29360,253;22,23232
 333,49; 6424,194;  177,171;28810,559;21,81727
 334,08; 6295,976;  185,570;28460,415;21,61075
 334,68; 6211,931;  184,370;28111,558;21,58313
 335,27; 6114,991;  194,572;27666,421;21,55086
 335,86; 6042,612;  225,970;27437,330;21,37578
 336,46; 5925,936;  194,772;27302,755;21,14198
 337,05; 5845,403;  170,170;27101,835;21,07271
 337,65; 5826,536;  161,970;26927,606;21,16358
 338,24; 5841,221;  230,171;26958,727;20,99272
 338,83; 5800,847;  214,371;26752,013;21,05114
 339,43; 5798,705;  166,370;26752,745;21,18504
 340,02; 5794,607;  181,970;26565,382;21,27336
 340,61; 5750,222;  175,971;26737,307;20,98633
 341,21; 5792,430;  207,170;26763,374;21,03185
 341,80; 5768,195;  187,370;26798,720;20,97160
 342,40; 5805,542;  194,772;26864,163;21,03824
 342,99; 5838,273;  180,971;26944,253;21,13830
 343,58; 5911,492;  176,772;27133,577;21,27374
 344,18; 6003,206;  180,572;27216,597;21,53658
 344,77; 6071,366;  173,570;27606,039;21,49933
 345,36; 6151,018;  160,371;27912,912;21,58594
 345,96; 6287,844;  210,972;28078,872;21,80599
 346,55; 6339,734;  176,173;28447,768;21,80125
 347,14; 6484,212;  160,972;28783,106;22,09213
 347,74; 6628,120;  139,974;29189,920;22,33445
 348,33; 6774,858;  191,974;29817,918;22,22000
 348,92; 6989,598;  183,775;30549,105;22,41314
 349,52; 7123,645;  156,174;30955,103;22,62245
 350,11; 7246,652;  162,170;31210,819;22,81736
 350,70; 7315,266;  172,171;31120,364;23,08081
 351,29; 7303,680;  152,368;30924,689;23,23943
 351,89; 7422,109;  179,969;30993,518;23,50310
 352,48; 7434,167;  148,171;30885,421;23,70413
 353,07; 7509,760;  183,172;30877,907;23,86920
 353,67; 7626,201;  190,175;30820,573;24,27662
 354,26; 7575,959;  178,172;30601,753;24,31596
 354,85; 7607,545;  177,172;30468,703;24,52954
 355,45; 7612,702;  147,370;30439,404;24,64454
 356,04; 7684,902;  173,573;30375,327;24,87051
 356,63; 7719,248;  206,771;30066,646;25,15911
 357,22; 7738,060;  184,368;29905,512;25,41521
 357,82; 7795,431;  187,968;29668,706;25,80486
 358,41; 7837,499;  199,771;29572,438;26,00284
 359,00; 7885,024;  163,770;29435,592;26,37777
 359,60; 8003,474;  185,571;29456,479;26,70878
 360,19; 8033,461;  182,373;29120,338;27,13076
 360,78; 7992,613;  182,770;29146,310;26,96439
 361,37; 8047,887;  189,170;28916,701;27,35605
 361,97; 8070,533;  182,971;28635,265;27,72206
 362,56; 8116,774;  167,969;28360,780;28,19444
 363,15; 8149,745;  215,170;28158,481;28,39526
 363,74; 8148,228;  172,569;27752,539;28,91830
 364,34; 8084,431;  182,370;27352,554;29,08357
 364,93; 8031,709;  175,169;26963,065;29,32869
 365,52; 8042,469;  145,370;26728,130;29,70759
 366,11; 8041,628;  181,770;26167,240;30,24713
 366,71; 8007,232;  159,970;26022,688;30,34199
 367,30; 7980,095;  174,170;25559,416;30,74985
 367,89; 8044,809;  206,172;25401,865;31,11102
 368,48; 7968,062;  166,169;25075,721;31,32089
 369,07; 7994,552;  183,571;24633,164;31,94728
 369,67; 7913,797;  191,769;24284,979;32,05064
 370,26; 7886,243;  168,771;24087,545;32,26533
 370,85; 7870,150;  186,170;23838,483;32,48723
 371,44; 7929,335;  177,571;23618,579;33,06925
 372,03; 7892,749;  168,370;23337,002;33,33982
 372,63; 7845,611;  147,771;23093,550;33,54796
 373,22; 7868,618;  167,171;22783,439;34,05269
 373,81; 7809,403;  147,170;22461,635;34,33752
 374,40; 7851,191;  169,372;22139,047;34,96556
 374,99; 7768,867;  165,970;21953,443;34,89572
 375,59; 7778,478;  156,172;21667,828;35,43338
 376,18; 7803,163;  191,770;21468,872;35,77269
 376,77; 7870,587;  203,371;21364,952;36,23178
 377,36; 7813,623;  199,370;21278,940;36,12148
 377,95; 7803,638;  176,570;20936,669;36,73907
 378,55; 7830,931;  175,772;20880,606;36,97281
 379,14; 7838,590;  198,770;20761,892;37,15302
 379,73; 7928,044;  184,170;20648,651;37,84056
 380,32; 8029,566;  202,171;20712,913;38,16242
 380,91; 8012,138;  151,769;20583,445;38,47148
 381,50; 8030,048;  179,570;20550,771;38,53714
 382,10; 8099,566;  162,771;20394,913;39,22864
 382,69; 8115,920;  160,970;20364,549;39,37396
 383,28; 8240,783;  192,770;20401,829;39,82379
 383,87; 8199,146;  157,570;20188,334;40,14613
 384,46; 8261,155;  162,369;20195,735;40,42649
 385,05; 8323,872;  202,570;20207,523;40,59646
 385,64; 8327,628;  171,770;20158,440;40,80649
 386,24; 8384,035;  156,168;20099,553;41,25612
 386,83; 8563,696;  192,168;20144,447;41,95775
 387,42; 8636,177;  200,570;20295,621;41,97853
 388,01; 8790,517;  177,767;20546,811;42,28353
 388,60; 8980,209;  179,569;20726,841;42,83119
 389,19; 9114,550;  159,766;21010,611;42,94687
 389,78; 9252,449;  180,366;21128,927;43,30647
 390,37; 9508,391;  208,568;21641,549;43,39025
 390,96; 9673,090;  186,168;21815,620;43,86113
 391,56; 9807,016;  182,966;21914,379;44,28635
 392,15;10043,798;  157,167;22239,463;44,77176
 392,74;10104,514;  149,764;22406,546;44,72682
 393,33;10396,896;  154,165;22663,977;45,50341
 393,92;10612,555;  188,363;23131,835;45,43424
 394,51;10740,095;  163,965;23327,444;45,65864
 395,10;10976,357;  194,760;23569,872;46,12426
 395,69;11022,298;  182,161;23573,066;46,34339
 396,28;11174,816;  182,959;23658,331;46,82293
 396,87;11268,616;  201,757;23993,409;46,51572
 397,46;11442,585;  181,955;24041,473;47,19555
 398,06;11630,470;  204,753;24189,344;47,63774
 398,65;11695,442;  197,949;24189,052;47,92399
 399,24;11782,043;  180,348;24500,131;47,70476
 399,83;11861,628;  163,741;24445,460;48,17570
 400,42;12018,109;  206,135;24512,385;48,59645
 401,01;12125,718;  170,928;24724,112;48,68937
 401,60;12192,414;  181,918;24816,096;48,75541
 402,19;12210,478;  194,110;24662,362;49,11004
 402,78;12282,555;  219,099;24613,473;49,45179
 403,37;12233,187;  196,288;24505,274;49,51625
 403,96;12261,857;  187,674;24293,776;50,08766
 404,55;12274,485;  192,660;24133,732;50,46485
 405,14;12198,596;  184,247;24038,022;50,36666
 405,73;12311,836;  197,631;23981,267;50,93504
 406,32;12262,023;  191,621;24101,578;50,48274
 406,91;12204,157;  187,609;23737,316;51,02632
 407,50;12171,714;  185,002;23539,545;51,32497
 408,09;12049,729;  152,198;23115,950;51,81005
 408,68;12140,370;  182,995;23193,869;51,96402
 409,27;12001,831;  154,999;22857,262;52,18349
 409,86;12017,137;  157,808;22774,037;52,43725
 410,45;12036,840;  211,416;22694,697;52,59652
 411,04;12062,266;  212,624;22573,806;52,99202
 411,63;12011,046;  196,235;22229,067;53,62366
 412,22;11896,108;  191,644;22057,939;53,52742
 412,81;11868,355;  201,048;21784,907;54,05570
 413,40;11697,747;  210,252;21438,664;54,11378
 413,99;11575,462;  258,651;21227,216;53,97036
 414,58;11402,147;  187,452;20694,737;54,68640
 415,17;11290,915;  175,248;20501,298;54,68680
 415,76;11249,793;  180,244;20395,432;54,75857
 416,35;11210,755;  174,846;20161,732;55,21575
 416,94;11258,599;  222,045;20313,714;54,93100
 417,53;11379,715;  177,648;20493,672;55,13907
 418,12;11451,829;  174,049;20614,393;55,17412
 418,71;11755,779;  197,252;20941,732;55,71857
 419,30;11717,111;  181,049;21012,852;55,37717
 419,89;11923,687;  185,050;21163,001;55,95703
 420,48;12068,658;  199,052;21489,970;55,74962
 421,07;12180,135;  204,653;21596,176;55,98237
 421,66;12265,382;  164,255;21538,096;56,61653
 422,25;12273,714;  185,259;21534,257;56,62305
 422,84;12279,817;  208,860;21487,749;56,72738
 423,43;12153,666;  195,258;21191,232;56,95572
 424,02;12116,429;  218,859;20971,837;57,32946
 424,60;11879,039;  191,663;20564,538;57,36734
 425,19;11752,828;  209,061;20305,406;57,44212
 425,78;11676,749;  205,261;20207,342;57,35147
 426,37;11677,186;  206,063;20111,059;57,62937
 426,96;11636,317;  205,863;19945,049;57,90742
 427,55;11554,208;  188,865;19762,574;58,06433
 428,14;11505,023;  183,867;19519,125;58,55187
 428,73;11344,601;  208,464;19341,737;58,20299
 429,32;11342,946;  205,063;19425,276;57,94880
 429,91;11397,919;  228,464;19418,805;58,20352
 430,50;11320,885;  205,466;19183,005;58,57145
 431,08;11321,358;  226,467;18999,311;59,10075
 431,67;11157,820;  268,868;19016,987;58,08024
 432,26;11109,844;  281,070;18905,633;58,14243
 432,85;10977,891;  281,869;18476,831;58,78562
 433,44;10810,008;  293,471;18078,520;59,13133
 434,03;10592,142;  304,473;17738,947;59,00762
 434,62;10292,358;  268,471;17308,235;58,82644
 435,21;10257,394;  309,069;17213,975;58,84875
 435,79;10162,567;  281,872;16934,179;59,33529
 436,38;10055,471;  278,275;16896,072;58,83569
 436,97;10003,259;  274,475;16729,837;59,12227
 437,56; 9877,791;  266,478;16623,825;58,75838
 438,15; 9911,293;  255,878;16496,161;59,45349
 438,74; 9951,037;  252,078;16499,268;59,69622
 439,33; 9911,722;  229,677;16456,341;59,66750
 439,91; 9972,544;  196,479;16520,581;59,88731
 440,50;10058,136;  232,479;16621,240;59,95363
 441,09;10124,867;  254,681;16749,826;59,83692
 441,68;10119,608;  232,283;16730,041;59,93133
 442,27;10105,989;  209,882;16687,816;60,05672
 442,86;10142,953;  206,287;16651,772;60,42185
 443,44;10236,092;  203,886;16753,004;60,62079
 444,03;10319,996;  273,887;16791,849;60,81930
 444,62;10214,820;  204,087;16619,601;60,98337
 445,21;10103,704;  219,286;16471,340;60,81950
 445,80;10091,618;  221,889;16363,863;61,14326
 446,39; 9925,786;  255,888;16196,422;60,66232
 446,97; 9765,995;  209,491;15841,813;61,13297
 447,56; 9712,923;  201,493;15706,886;61,34272
 448,15; 9571,830;  204,091;15505,975;61,21952
 448,74; 9476,213;  230,291;15290,758;61,39200
 449,33; 9373,256;  211,892;15142,083;61,36133
 449,91; 9207,324;  223,095;14894,015;61,23835
 450,50; 9065,548;  196,694;14714,040;61,09143
 451,09; 9036,600;  211,295;14708,166;60,87731
 451,68; 8961,757;  235,696;14536,163;61,01941
 452,26; 8969,606;  227,697;14402,943;61,67025
 452,85; 8836,556;  211,896;14299,357;61,22224
 453,44; 8799,343;  219,299;14312,838;60,87927
 454,03; 8787,248;  191,497;14305,367;60,90287
 454,61; 8805,594;  207,099;14368,230;60,71898
 455,20; 8930,651;  220,300;14521,704;60,90556
 455,79; 8959,821;  222,498;14447,995;61,42016
 456,38; 8918,714;  223,302;14552,908;60,68145
 456,97; 9006,916;  213,701;14622,094;61,02842
 457,55; 8991,740;  212,703;14558,695;61,19505
 458,14; 9002,227;  229,501;14553,453;61,24515
 458,73; 8927,419;  214,503;14483,287;61,06278
 459,31; 9002,525;  232,705;14529,387;61,34164
 459,90; 9089,072;  247,904;14600,360;61,60038
 460,49; 9117,868;  283,703;14696,165;61,29532
 461,08; 9117,758;  207,506;14867,089;60,78108
 461,66; 9184,910;  224,505;14888,910;61,10309
 462,25; 9257,092;  226,907;14940,115;61,37469
 462,84; 9251,152;  251,506;15011,281;60,97414
 463,43; 9201,953;  194,909;14974,511;60,94240
 464,01; 9263,089;  218,710;14995,271;61,20760
 464,60; 9213,828;  257,108;14803,201;61,57474
 465,19; 9059,447;  185,910;14720,475;61,05127
 465,77; 9012,009;  217,911;14554,854;61,33873
 466,36; 9018,272;  245,309;14525,559;61,43424
 466,95; 8777,050;  200,709;14226,494;61,14696
 467,53; 8614,066;  204,512;13914,149;61,34046
 468,12; 8506,865;  249,513;13740,122;61,20815
 468,71; 8337,335;  230,310;13415,162;61,48741
 469,29; 8112,424;  191,513;13187,353;60,94959
 469,88; 7978,010;  227,514;12883,731;61,23865
 470,47; 8060,270;  255,916;12949,820;61,48112
 471,06; 7941,775;  220,316;13005,744;60,39265
 471,64; 8061,296;  220,515;13189,379;60,45850
 472,23; 8039,772;  196,519;13015,701;61,18372
 472,81; 8041,522;  188,917;13223,040;60,24651
 473,40; 8122,892;  191,319;13326,682;60,38336
 473,99; 8286,672;  285,319;13423,177;60,90302
 474,57; 8341,101;  209,519;13701,757;60,26860
 475,16; 8412,760;  222,117;13824,843;60,21325
 475,75; 8507,211;  225,720;13942,558;60,37464
 476,33; 8577,474;  231,721;14015,988;60,54550
 476,92; 8528,505;  233,519;13987,799;60,30840
 477,51; 8581,820;  229,721;14118,754;60,13449
 478,09; 8594,237;  232,321;14143,545;60,10914
 478,68; 8543,595;  216,521;14012,349;60,35937
 479,27; 8586,112;  233,520;14178,435;59,89704
 479,85; 8493,838;  218,121;14165,872;59,33370
 480,44; 8571,975;  207,122;14306,392;59,32827
 481,02; 9363,800;  229,523;16077,972;57,63515
 481,61;10533,365;  254,923;17850,264;58,41570
 482,20;11253,822;  254,723;19118,411;58,30832
 482,78;11739,703;  260,922;19733,161;58,94946
 483,37;11929,828;  262,525;19948,568;59,26688
 483,95;12167,495;  295,325;20382,571;59,10303
 484,54;12234,257;  297,122;20576,671;58,86292
 485,13;12180,427;  258,327;20626,963;58,53166
 485,71;12178,926;  265,126;20428,959;59,08500
 486,30;12082,487;  288,926;20149,750;59,38102
 486,88;11852,175;  315,727;19817,991;59,15441
 487,47;11464,007;  305,527;19173,432;59,14000
 488,05;10920,749;  304,528;18210,999;59,28706
 488,64;10257,934;  297,729;16839,124;60,21382
 489,23; 9195,020;  293,128;14766,050;61,50722
 489,81; 7682,203;  292,329;12721,186;59,45739
 490,40; 7247,893;  236,929;12197,408;58,61776
 490,98; 7013,481;  233,530;11871,146;58,25894
 491,57; 6901,315;  277,529;11845,499;57,25971
 492,15; 6901,974;  261,530;11813,481;57,48331
 492,74; 6857,528;  257,928;11767,515;57,34002
 493,32; 6778,164;  259,930;11624,078;57,35788
 493,91; 6737,067;  231,331;11482,743;57,82151
 494,50; 6673,046;  245,333;11400,981;57,61846
 495,08; 6603,871;  225,733;11356,514;57,30180
 495,67; 6562,673;  241,930;11337,151;56,96816
 496,25; 6515,320;  210,132;11263,524;57,04302
 496,84; 6510,103;  202,730;11298,531;56,84468
 497,42; 6484,338;  197,532;11106,042;57,63212
 498,01; 6460,891;  219,131;11139,496;57,15707
 498,59; 6331,303;  203,133;11065,034;56,41895
 499,18; 6349,373;  202,331;11012,202;56,86509
 499,76; 6316,913;  205,132;10907,562;57,10648
 500,35; 6130,590;  203,734;10683,262;56,55651
 500,93; 6085,548;  187,332;10677,317;56,22711
 501,52; 6029,425;  200,133;10557,596;56,28108
 502,10; 6078,120;  208,535;10546,594;56,77647
 502,69; 5894,266;  196,336;10400,362;55,84002
 503,27; 5803,265;  190,133;10262,506;55,72800
 503,86; 5741,852;  209,735;10065,112;56,13298
 504,44; 5689,867;  182,936;10030,290;55,92295
 505,03; 5529,614;  162,736; 9694,137;56,30733
 505,61; 5437,408;  192,536; 9702,182;55,15318
 506,19; 5376,032;  204,136; 9472,108;55,80397
 506,78; 5242,786;  172,338; 9340,713;55,30367
 507,36; 5153,945;  183,936; 9137,175;55,51074
 507,95; 5073,878;  181,139; 9036,995;55,24862
 508,53; 4984,303;  187,138; 8897,027;55,07722
 509,12; 4869,506;  199,738; 8754,622;54,58599
 509,70; 4775,580;  204,739; 8637,406;54,20398
 510,29; 4744,429;  205,340; 8415,965;55,28311
 510,87; 4579,951;  174,738; 8270,731;54,41226
 511,46; 4520,288;  177,338; 8086,477;54,91053
 512,04; 4412,654;  186,939; 7957,770;54,37919
 512,62; 4308,420;  196,138; 7778,868;54,23221
 513,21; 4183,648;  171,140; 7678,090;53,45058
 513,79; 4116,053;  197,143; 7549,188;53,30368
 514,38; 4028,083;  181,142; 7320,047;53,88699
 514,96; 3977,854;  209,742; 7281,093;53,28702
 515,54; 3876,903;  181,542; 7104,679;53,37698
 516,13; 3840,089;  186,942; 7021,976;53,44738
 516,71; 3740,958;  192,944; 6926,813;52,68908
 517,30; 3683,696;  181,145; 6826,840;52,70407
 517,88; 3615,543;  188,345; 6746,811;52,25610
 518,46; 3524,088;  170,545; 6594,672;52,20232
 519,05; 3497,609;  179,746; 6495,754;52,53101
 519,63; 3499,140;  191,345; 6542,018;52,08574
 520,22; 3436,147;  217,947; 6442,155;51,70457
 520,80; 3368,201;  187,147; 6364,261;51,49741
 521,38; 3401,772;  210,146; 6401,013;51,55379
 521,97; 3331,578;  200,348; 6282,943;51,47852
 522,55; 3262,623;  199,748; 6282,800;50,35095
 523,13; 3254,200;  179,949; 6301,529;50,21989
 523,72; 3249,935;  168,345; 6249,243;50,67656
 524,30; 3329,347;  211,950; 6385,078;50,49948
 524,89; 3308,918;  176,548; 6358,449;50,67000
 525,47; 3342,410;  200,750; 6540,633;49,55391
 526,05; 3376,342;  161,550; 6521,777;50,54524
 526,64; 3443,821;  201,551; 6660,943;50,19467
 527,22; 3464,245;  202,350; 6749,594;49,82089
 527,80; 3517,427;  216,751; 6871,971;49,59530
 528,39; 3539,498;  197,351; 6962,595;49,40172
 528,97; 3593,435;  197,551; 7113,440;49,10264
 529,55; 3679,265;  203,749; 7325,624;48,80058
 530,14; 3772,956;  207,752; 7528,922;48,69719
 530,72; 3769,138;  185,551; 7652,030;47,99568
 531,30; 3885,152;  177,752; 7705,828;49,24764
 531,89; 3856,086;  197,552; 7831,933;47,92182
 532,47; 3939,302;  228,752; 7901,317;48,36128
 533,05; 3940,581;  233,151; 8000,980;47,72801
 533,63; 3936,191;  227,153; 8024,404;47,56853
 534,22; 3913,718;  184,953; 8097,148;47,12681
 534,80; 3998,751;  208,154; 8130,623;47,84616
 535,38; 4052,876;  261,952; 8300,477;47,15944
 535,97; 3961,928;  217,952; 8189,603;46,96613
 536,55; 4024,409;  239,754; 8349,577;46,66754
 537,13; 3941,472;  259,552; 8289,256;45,85374
 537,71; 3919,847;  298,752; 8354,350;44,95129
 538,30; 3983,110;  324,553; 8330,979;45,69525
 538,88; 3980,039;  370,155; 8471,232;44,56054
 539,46; 4006,938;  409,954; 8696,680;43,40658
 540,05; 4055,317;  418,554; 8885,743;42,95124
 540,63; 4173,690;  489,755; 8987,277;43,35306
 541,21; 4179,091;  514,355; 9101,578;42,67661
 541,79; 4248,739;  550,155; 9207,482;42,72201
 542,38; 4299,835;  583,154; 9437,837;41,97418
 542,96; 4338,093;  595,756; 9546,966;41,80817
 543,54; 4410,784;  618,955; 9809,719;41,25695
 544,12; 4420,023;  575,756; 9945,922;41,02667
 544,70; 4476,202;  567,556; 9959,138;41,61861
 545,29; 4530,714;  575,354;10202,475;41,08559
 545,87; 4500,453;  539,155;10182,482;41,07813
 546,45; 4524,825;  494,954;10226,408;41,41078
 547,03; 4530,797;  481,555;10286,689;41,29717
 547,62; 4557,694;  445,155;10398,845;41,31672
 548,20; 4667,358;  442,556;10554,508;41,78028
 548,78; 4692,161;  423,559;10673,898;41,64353
 549,36; 4704,669;  378,158;10871,763;41,22998
 549,94; 4755,230;  338,556;10875,057;41,91784
 550,53; 4880,266;  337,358;11173,922;41,92203
 551,11; 4932,113;  320,159;11369,121;41,74107
 551,69; 4980,834;  321,158;11645,981;41,14569
 552,27; 5069,908;  263,357;11964,718;41,07685
 552,85; 5205,553;  262,159;12227,130;41,31556
 553,44; 5271,384;  260,958;12593,143;40,62886
 554,02; 5433,216;  280,559;12963,584;40,62640
 554,60; 5518,563;  217,759;13196,779;40,84132
 555,18; 5672,889;  271,558;13667,468;40,32075
 555,76; 5760,963;  251,559;13974,632;40,14702
 556,34; 5951,939;  240,560;14358,681;40,45424
 556,93; 6041,361;  228,358;14680,944;40,22119
 557,51; 6133,565;  209,960;14982,768;40,09803
 558,09; 6240,691;  232,158;15343,801;39,76095
 558,67; 6421,746;  236,761;15780,364;39,79119
 559,25; 6490,035;  255,961;15964,284;39,68644
 559,83; 6579,510;  221,562;16289,350;39,56953
 560,41; 6674,898;  221,760;16657,165;39,26364
 561,00; 6759,097;  218,961;17034,859;38,89258
 561,58; 6802,569;  214,160;17279,088;38,60789
 562,16; 6931,498;  211,959;17477,464;38,91887
 562,74; 7012,743;  185,759;17965,327;38,39792
 563,32; 7133,521;  200,362;18437,359;38,01700
 563,90; 7229,779;  224,961;18787,212;37,73690
 564,48; 7347,285;  225,160;19233,648;37,46813
 565,06; 7543,044;  212,161;19645,953;37,72235
 565,65; 7766,522;  215,363;20566,587;37,10420
 566,23; 7985,339;  265,961;21284,202;36,72704
 566,81; 8191,189;  220,561;21811,894;36,91587
 567,39; 8445,309;  241,762;22814,523;36,34269
 567,97; 8653,440;  243,961;23468,486;36,20948
 568,55; 8956,686;  233,162;24299,977;36,24711
 569,13; 9094,393;  208,961;24989,088;35,85709
 569,71; 9419,938;  226,159;25929,073;35,76940
 570,29; 9842,482;  262,958;26884,706;35,98383
 570,87;10004,050;  260,159;27621,986;35,61126
 571,45;10182,340;  260,561;28308,382;35,37451
 572,03;10207,296;  207,762;28687,954;35,11049
 572,61;10383,522;  205,562;29493,539;34,75133
 573,20;10576,971;  253,960;30196,149;34,47647
 573,78;10762,840;  237,562;30789,806;34,45010
 574,36;10863,765;  247,561;31220,242;34,27603
 574,94;11016,426;  271,162;31592,384;34,30665
 575,52;11024,237;  227,364;31876,615;34,11415
 576,10;11161,297;  291,163;32314,782;33,94411
 576,68;11215,626;  281,962;32978,611;33,43971
 577,26;11443,594;  282,765;33716,239;33,38220
 577,84;11475,907;  314,361;34175,662;32,96254
 578,42;11544,323;  332,563;34450,721;32,86156
 579,00;11456,872;  282,962;34449,854;32,70391
 579,58;11542,876;  314,963;34647,623;32,70330
 580,16;11509,640;  304,563;34683,208;32,59313
 580,74;11407,529;  320,163;35084,276;31,89314
 581,32;11413,600;  300,363;35042,672;31,98762
 581,90;11274,619;  308,963;35056,770;31,55783
 582,48;11367,387;  323,563;35155,656;31,70589
 583,06;11282,964;  327,563;35249,557;31,37106
 583,64;11262,217;  322,562;35423,889;31,16593
 584,22;11152,959;  320,164;35040,284;31,20034
 584,80;10983,092;  344,963;34743,607;30,92601
 585,38;10789,786;  333,160;34402,452;30,69223
 585,96;10761,475;  315,962;34409,142;30,63813
 586,54;10731,621;  351,964;34509,758;30,38738
 587,12;10617,055;  306,564;34596,659;30,06842
 587,70;10576,364;  333,362;34763,209;29,75036
 588,28;10554,780;  320,363;34823,468;29,66231
 588,86;10521,854;  312,964;35000,232;29,43123
 589,44;10532,500;  299,765;35002,445;29,48687
 590,02;10570,031;  311,965;35292,308;29,32523
 590,59;10454,171;  283,364;35307,920;29,03907
 591,17;10465,002;  275,567;35479,458;28,94406
 591,75;10537,758;  279,566;35627,726;29,02044
 592,33;10547,729;  292,366;35740,399;28,93070
 592,91;10480,742;  243,367;36020,216;28,61452
 593,49;10568,417;  253,767;36438,908;28,50521
 594,07;10572,538;  263,167;36604,270;28,36835
 594,65;10518,466;  294,964;36588,969;28,16857
 595,23;10588,086;  266,765;37001,975;28,09654
 595,81;10566,599;  254,965;37266,968;27,86024
 596,39;10522,280;  252,565;37293,740;27,72513
 596,97;10494,391;  251,967;37509,721;27,49072
 597,55;10436,408;  256,365;37318,563;27,46746
 598,12;10434,216;  237,968;37345,902;27,47727
 598,70;10379,828;  234,367;37422,990;27,28109
 599,28;10396,926;  257,567;37742,333;27,04928
 599,86;10319,070;  238,367;37792,313;26,84326
 600,44;10233,429;  205,967;37837,897;26,64615
 601,02;10245,698;  252,969;37871,236;26,56350
 601,60;10201,637;  247,766;38017,964;26,35377
 602,18;10092,964;  211,768;37952,129;26,18204
 602,75;10060,567;  231,365;37897,901;26,09532
 603,33;10016,992;  238,167;37944,028;25,93450
 603,91;10065,001;  235,169;37847,926;26,13430
 604,49;10046,145;  240,167;37988,858;25,97700
 605,07; 9949,769;  267,166;37989,735;25,66793
 605,65; 9903,263;  275,568;38103,299;25,45142
 606,23; 9895,019;  313,964;38417,871;25,14455
 606,80; 9943,359;  387,765;38345,005;25,17463
 607,38; 9815,619;  416,568;38379,543;24,75847
 607,96; 9879,194;  473,965;38471,967;24,75190
 608,54; 9827,197;  556,368;38527,803;24,41527
 609,12; 9767,457;  539,765;38612,748;24,23685
 609,70; 9727,807;  566,567;38558,532;24,11363
 610,27; 9677,459;  583,965;38723,908;23,84244
 610,85; 9750,764;  613,567;38653,055;24,02029
 611,43; 9640,795;  590,967;38701,742;23,74611
 612,01; 9503,112;  553,366;38429,382;23,62906
 612,59; 9519,345;  558,967;38572,284;23,57168
 613,16; 9446,168;  545,364;38430,980;23,49389
 613,74; 9401,948;  498,767;38313,171;23,54442
 614,32; 9317,031;  441,568;38356,385;23,40896
 614,90; 9260,855;  421,966;37970,909;23,53965
 615,48; 9186,298;  377,365;37840,010;23,51391
 616,05; 9100,587;  335,764;37790,131;23,40134
 616,63; 8979,448;  347,564;37695,651;23,11199
 617,21; 9024,855;  318,965;37566,661;23,37296
 617,79; 8896,840;  321,566;37422,331;23,11347
 618,36; 8865,704;  317,366;37454,440;23,01834
 618,94; 8705,143;  270,365;37060,621;22,92666
 619,52; 8568,282;  298,764;36965,252;22,55334
 620,10; 8641,622;  269,565;36874,987;22,87108
 620,67; 8552,404;  287,364;36807,394;22,63153
 621,25; 8518,604;  299,566;36373,517;22,78386
 621,83; 8384,461;  292,565;36417,269;22,39990
 622,41; 8422,990;  318,765;36510,592;22,39242
 622,98; 8379,141;  307,364;36334,213;22,40489
 623,56; 8301,670;  305,963;36379,316;22,16513
 624,14; 8217,424;  258,167;36056,749;22,23344
 624,72; 8271,473;  273,565;36110,078;22,31776
 625,29; 8206,912;  252,364;35955,259;22,27984
 625,87; 8249,049;  300,966;36094,026;22,20565
 626,45; 8130,826;  257,563;35941,085;22,06414
 627,02; 8121,191;  266,766;35895,646;22,04511
 627,60; 8060,693;  251,167;35822,259;21,95470
 628,18; 8074,029;  244,365;35763,548;22,04348
 628,76; 8045,744;  246,764;35870,280;21,89279
 629,33; 8013,553;  269,364;35839,123;21,77183
 629,91; 8067,622;  268,565;35889,587;21,89453
 630,49; 8105,994;  276,764;35956,892;21,94283
 631,06; 8041,238;  277,964;36097,795;21,67312
 631,64; 7978,858;  279,563;36138,753;21,47091
 632,22; 8002,776;  229,363;35886,519;21,80043
 632,79; 8067,303;  236,363;36219,263;21,76295
 633,37; 8022,880;  241,966;36164,868;21,66004
 633,95; 7955,882;  254,963;36379,551;21,31766
 634,52; 8025,022;  225,965;36519,239;21,48899
 635,10; 8014,887;  237,565;36531,728;21,42857
 635,68; 8006,808;  223,963;36626,567;21,37991
 636,25; 8017,717;  227,562;36805,065;21,29767
 636,83; 8007,459;  202,364;36852,080;21,29647
 637,41; 8088,679;  232,762;36929,937;21,40741
 637,98; 8163,998;  240,162;37154,764;21,46532
 638,56; 8135,105;  226,961;37210,748;21,38273
 639,13; 8104,702;  212,564;37252,383;21,30717
 639,71; 8193,259;  266,964;37549,434;21,26011
 640,29; 8094,282;  211,964;37153,267;21,33741
 640,86; 8151,902;  230,164;37489,945;21,26083
 641,44; 8106,522;  211,764;37365,822;21,24871
 642,02; 8126,714;  241,964;37456,499;21,18728
 642,59; 8122,619;  209,564;37651,177;21,13439
 643,17; 8194,954;  215,764;37740,454;21,26384
 643,74; 8129,573;  227,564;37589,132;21,15010
 644,32; 8148,336;  243,964;37598,009;21,16069
 644,89; 8206,385;  239,564;37716,287;21,25805
 645,47; 8225,005;  269,364;37663,564;21,27507
 646,05; 8210,053;  235,364;37667,042;21,30465
 646,62; 8140,530;  229,765;37442,319;21,25833
 647,20; 8209,293;  230,965;37713,197;21,28563
 647,77; 8117,056;  203,765;37561,474;21,18249
 648,35; 8149,105;  205,965;37397,551;21,35736
 648,92; 8109,010;  236,965;37432,229;21,16411
 649,50; 8185,630;  176,965;37285,506;21,58173
 650,08; 8123,679;  196,965;37310,984;21,35774
 650,65; 8157,156;  230,365;37572,261;21,22761
 651,23; 8323,347;  196,765;38502,139;21,21525
 651,80; 8532,253;  199,965;39424,016;21,24280
 652,38; 8613,301;  218,965;39698,694;21,26240
 652,95; 8722,350;  196,765;40069,171;21,38217
 653,53; 8740,113;  228,165;40138,648;21,32760
 654,10; 8854,161;  242,565;40354,726;21,46879
 654,68; 8820,210;  202,165;40204,403;21,54391
 655,25; 8924,687;  199,965;40496,681;21,65120
 655,83; 8926,878;  194,965;40659,958;21,57893
 656,40; 8957,784;  233,765;40666,636;21,57655
 656,98; 8950,547;  210,165;40604,713;21,63753
 657,55; 8899,881;  205,566;40348,391;21,65845
 658,13; 8834,644;  202,366;39910,468;21,73934
 658,70; 8799,692;  218,366;39739,745;21,71313
 659,28; 8647,169;  193,166;38768,623;21,91550
 659,85; 8452,932;  213,366;37923,300;21,84986
 660,43; 8519,838;  231,366;38173,578;21,84499
 661,00; 8586,172;  213,166;38140,655;22,07635
 661,58; 8588,935;  198,966;38531,533;21,88731
 662,15; 8634,555;  183,366;38548,410;22,02836
 662,73; 8802,175;  245,966;39044,488;22,05293
 663,30; 8837,081;  215,566;39303,365;22,05679
 663,88; 8873,129;  199,966;39299,442;22,18230
 664,45; 8963,035;  196,766;39619,720;22,23646
 665,03; 9009,083;  215,166;40113,397;22,04087
 665,60; 9280,417;  260,566;40505,075;22,41263
 666,17; 9192,609;  214,766;40460,152;22,30776
 666,75; 9323,229;  216,166;40839,830;22,41812
 667,32; 9454,706;  225,566;41222,107;22,51200
 667,90; 9456,754;  198,766;41635,185;22,34264
 668,47; 9630,517;  224,966;41620,662;22,72108
 669,05; 9722,709;  212,167;42125,139;22,69117
 669,62; 9784,614;  187,567;42222,417;22,83117
 670,19; 9853,663;  195,967;42072,294;23,06242
 670,77; 9917,426;  204,767;42438,372;22,99747
 671,34; 9933,617;  229,567;42484,249;22,96562
 671,92;10002,523;  188,167;42555,727;23,16479
 672,49;10078,000;  215,167;42680,604;23,22555
 673,06;10112,334;  169,967;42731,482;23,35999
 673,64;10142,240;  192,567;42741,559;23,38404
 674,21;10152,003;  189,767;42651,636;23,46160
 674,79;10276,908;  192,567;42965,714;23,57634
 675,36;10328,385;  223,767;42944,591;23,65268
 675,93;10297,862;  207,967;42904,469;23,63167
 676,51;10399,339;  215,567;43098,746;23,74771
 677,08;10475,531;  210,967;43232,024;23,85939
 677,65;10475,722;  210,167;43365,901;23,78723
 678,23;10624,056;  209,567;43610,179;23,99618
 678,80;10656,819;  194,967;43687,256;24,05450
 679,38;10734,154;  185,567;43810,733;24,18005
 679,95;10814,488;  198,368;44029,211;24,22066
 680,52;10876,536;  200,968;44211,488;24,25686
 681,10;11077,299;  216,968;44679,566;24,42577
 681,67;11136,205;  212,368;45044,843;24,36590
 682,24;11194,253;  185,368;45052,921;24,53641
 682,82;11350,016;  196,768;45621,998;24,55298
 683,39;11544,350;  218,368;46011,476;24,73294
 683,96;11633,113;  206,168;46193,953;24,84778
 684,54;11762,019;  177,968;46633,031;24,93604
 685,11;11876,782;  224,968;46853,308;24,98870
 685,68;11968,830;  212,968;47257,785;24,98864
 686,25;12057,450;  195,768;47467,063;25,09278
 686,83;12195,927;  179,168;47447,340;25,42252
 687,40;12325,833;  184,368;47926,018;25,43160
 687,97;12505,881;  218,968;48281,895;25,56422
 688,55;12501,787;  181,568;48410,373;25,54535
 689,12;12621,407;  182,368;48523,650;25,73171
 689,69;12722,027;  186,168;48757,928;25,80895
 690,26;12961,504;  185,168;48923,805;26,21398
 690,84;12955,410;  188,968;49088,882;26,10729
 691,41;13039,887;  214,969;49135,360;26,21589
 691,98;13215,221;  204,769;49439,637;26,42528
 692,56;13295,698;  184,969;49458,515;26,60805
 693,13;13406,318;  246,969;49461,192;26,73892
 693,70;13508,224;  210,369;49672,870;26,88472
 694,27;13543,558;  192,969;49684,347;26,97559
 694,84;13735,464;  193,369;49844,425;27,27454
 695,42;13824,941;  228,769;49975,702;27,33067
 695,99;13895,704;  186,569;50355,379;27,32601
 696,56;13961,466;  186,569;50230,457;27,52563
 697,13;14159,372;  202,169;50660,334;27,66094
 697,71;14194,849;  171,569;50584,612;27,81677
 698,28;14343,469;  200,969;50862,089;27,91589
 698,85;14429,661;  175,969;51010,167;28,03957
 699,42;14592,138;  166,369;51064,844;28,34224
 699,99;14662,186;  192,769;51126,522;28,40831
 700,57;14776,378;  195,769;51344,599;28,50624
 701,14;14880,855;  183,769;51441,476;28,67293
 701,71;15024,760;  224,169;51729,554;28,73601
 702,28;15171,523;  189,369;51685,431;29,09379
 702,85;15104,143;  216,570;51676,309;28,93053
 703,43;15370,620;  194,770;51904,386;29,34822
 704,00;15548,383;  223,770;52188,864;29,49021
 704,57;15513,003;  222,170;51968,341;29,54969
 705,14;15674,051;  238,970;52528,019;29,51877
 705,71;15823,814;  238,970;52596,096;29,76642
 706,28;15829,720;  219,770;52301,373;29,97210
 706,86;16008,768;  235,370;52719,051;30,05391
 707,43;16148,246;  258,170;52483,928;30,42574
 708,00;16122,008;  238,970;52641,806;30,30950
 708,57;16223,343;  204,170;52481,083;30,64292
 709,14;16361,105;  241,770;52773,961;30,68468
 709,71;16398,297;  210,770;52768,438;30,79955
 710,28;16529,774;  213,970;53039,716;30,88608
 710,86;16559,965;  222,570;53179,193;30,85052
 711,43;16773,300;  231,170;53178,870;31,24239
 712,00;16901,919;  219,770;53330,348;31,41022
 712,57;17001,825;  233,170;53295,225;31,60197
 713,14;17061,731;  208,370;53449,903;31,65454
 713,71;17114,779;  228,371;53334,380;31,79755
 714,28;17303,399;  208,371;53302,258;32,19773
 714,85;17310,734;  200,171;53229,935;32,26596
 715,42;17438,782;  204,171;53233,813;32,49996
 716,00;17665,259;  274,371;53582,890;32,62309
 716,57;17743,022;  210,171;53702,167;32,77659
 717,14;17779,785;  188,971;53671,045;32,89105
 717,71;17948,262;  183,971;53611,322;33,24943
 718,28;18072,168;  216,971;53832,000;33,30260
 718,85;18131,359;  186,571;53962,077;33,36982
 719,42;18347,836;  223,771;53933,555;33,74444
 719,99;18313,170;  191,771;53690,232;33,87275
 720,56;18480,647;  211,371;54167,910;33,85924
 721,13;18486,839;  210,571;54121,387;33,90093
 721,70;18641,602;  202,171;54006,865;34,27104
 722,27;18712,936;  217,171;54134,942;34,30365
 722,84;18838,413;  252,771;54232,419;34,43083
 723,41;18936,176;  188,571;54242,497;34,68315
 723,98;19037,081;  198,571;54586,774;34,63713
 724,55;19215,844;  230,371;54513,652;34,97481
 725,12;19234,893;  168,372;54409,729;35,15126
 725,69;19526,798;  190,572;54631,407;35,51787
 726,27;19604,276;  208,772;54839,084;35,50319
 726,84;19829,181;  204,172;55140,362;35,72328
 727,41;19903,944;  217,172;54813,639;36,05869
 727,98;20026,564;  222,372;55353,716;35,92184
 728,55;20115,470;  250,572;55086,394;36,22613
 729,12;20227,518;  200,972;55243,871;36,38352
 729,69;20348,710;  219,772;55415,549;36,46826
 730,26;20448,044;  217,372;55694,226;36,46687
 730,82;20460,949;  209,772;55473,904;36,64434
 731,39;20634,712;  220,972;55566,181;36,88439
 731,96;20853,475;  181,972;55957,259;37,06212
 732,53;21078,238;  212,972;56028,336;37,38266
 733,10;21183,001;  208,972;56151,813;37,49189
 733,67;21326,335;  200,972;56541,291;37,49599
 734,24;21243,383;  206,972;55959,168;37,73199
 734,81;21445,718;  234,372;56280,646;37,84613
 735,38;21372,052;  216,372;56038,923;37,89809
 735,95;21416,386;  206,573;55793,401;38,15619
 736,52;21562,149;  239,973;56073,078;38,18913
 737,09;21465,340;  218,973;55695,556;38,29790
 737,66;21836,817;  269,173;55913,033;38,76015
 738,23;21870,580;  195,373;56021,110;38,82655
 738,80;22112,343;  237,773;56286,188;39,02799
 739,37;22137,534;  237,573;56592,065;38,86108
 739,94;22215,154;  213,573;56504,343;39,08559
 740,51;22367,346;  286,973;56571,020;39,23025
 741,07;22398,966;  199,373;56462,298;39,45688
 741,64;22539,014;  251,573;56792,775;39,41805
 742,21;22634,349;  215,973;56653,853;39,72221
 742,78;22658,968;  194,973;56474,130;39,91530
 743,35;22794,588;  214,173;56710,607;39,96786
 743,92;22987,923;  247,373;56925,485;40,12228
 744,49;23036,685;  237,973;56769,762;40,32901
 745,06;22999,877;  200,573;56655,440;40,38501
 745,63;23226,211;  189,373;56752,117;40,72794
 746,19;23260,117;  204,773;56975,195;40,61154
 746,76;23376,022;  210,973;56909,872;40,85626
 747,33;23466,071;  217,174;56688,150;41,16964
 747,90;23590,405;  227,974;57094,427;41,08298
 748,47;23621,882;  228,174;56888,104;41,28792
 749,04;23755,217;  228,574;56982,582;41,45371
 749,61;23899,694;  209,974;56797,859;41,86359
 750,17;24041,314;  212,374;56931,137;42,01245
 750,74;23991,219;  228,374;56910,214;41,92321
 751,31;24029,411;  194,174;56734,292;42,15633
 751,88;24057,888;  193,774;56596,569;42,31016
 752,45;24168,508;  213,974;56822,247;42,31631
 753,02;24205,128;  209,374;56688,524;42,48604
 753,58;24284,319;  193,974;56519,402;42,76993
 754,15;24396,939;  223,774;56777,479;42,74373
 754,72;24305,130;  193,574;56506,156;42,81735
 755,29;24405,179;  183,774;56333,834;43,13692
 755,86;24543,227;  222,374;56512,111;43,20655
 756,42;24649,990;  221,574;56376,989;43,50144
 756,99;24712,039;  191,974;56591,266;43,47584
 757,56;24709,516;  209,774;56331,544;43,65461
 758,13;24763,850;  176,174;56219,621;43,87253
 758,70;24959,470;  204,975;56289,899;44,13752
 759,26;25079,519;  198,175;56434,776;44,24404
 759,83;25346,567;  207,175;56603,453;44,57633
 760,40;25270,330;  204,575;56281,331;44,69901
 760,97;25362,950;  203,775;56472,208;44,71277
 761,53;25326,427;  192,375;56080,686;44,97193
 762,10;25337,904;  174,575;56038,363;45,04408
 762,67;25456,238;  221,575;56070,641;45,18368
 763,24;25298,430;  164,375;55565,118;45,36772
 763,80;25418,335;  199,575;55610,596;45,51217
 764,37;25515,098;  181,175;55604,673;45,70972
 764,94;25353,147;  178,175;55208,350;45,74758
 765,50;25523,767;  168,575;55191,628;46,08103
 766,07;25591,529;  210,375;55220,505;46,13906
 766,64;25573,435;  191,575;54901,983;46,39311
 767,21;25612,055;  189,975;54870,260;46,49222
 767,77;25614,246;  206,375;54707,338;46,61912
 768,34;25703,581;  210,775;54664,215;46,81579
 768,91;25712,058;  190,175;54295,093;47,17110
 769,47;25821,963;  192,376;54498,370;47,19477
 770,04;25939,583;  209,976;54468,247;47,42062
 770,61;25835,346;  187,176;54240,525;47,44973
 771,18;25926,823;  188,776;54080,402;47,75890
 771,74;26074,443;  210,576;54206,080;47,90004
 772,31;25981,349;  211,576;54057,757;47,85813
 772,88;25958,255;  178,176;53704,835;48,16306
 773,44;25955,017;  191,776;53520,312;48,31042
 774,01;26089,637;  189,776;53690,790;48,41004
 774,58;25927,257;  171,776;53432,467;48,35739
 775,14;26233,734;  184,376;53531,344;48,83006
 775,71;26252,640;  191,776;53402,422;48,97679
 776,27;26185,260;  233,976;53302,099;48,90183
 776,84;26452,166;  246,976;53488,977;49,21902
 777,41;26423,357;  207,976;53298,054;49,37906
 777,97;26419,977;  183,976;52923,332;49,74653
 778,54;26470,026;  206,176;53016,409;49,73250
 779,11;26570,074;  215,176;53045,287;49,88613
 779,67;26580,551;  192,776;52911,764;50,05364
 780,24;26523,171;  214,176;52651,841;50,17194
 780,80;26630,791;  222,577;52697,919;50,32500
 781,37;26693,411;  205,977;52485,196;50,66532
 781,94;26722,745;  194,577;52362,074;50,85191
 782,50;26800,937;  214,977;52273,751;51,06912
 783,07;26901,842;  247,977;52383,429;51,12426
 783,63;26851,891;  190,177;52079,106;51,38228
 784,20;26932,654;  232,777;52057,584;51,51949
 784,77;27053,702;  208,577;51928,461;51,90484
 785,33;27043,322;  187,177;51681,938;52,15316
 785,90;27107,228;  208,577;51654,016;52,28578
 786,46;27123,705;  222,377;51544,293;52,41684
 787,03;27186,611;  205,377;51364,371;52,73996
 787,59;27289,373;  209,177;51383,648;52,91739
 788,16;27446,422;  217,777;51273,726;53,33099
 788,73;27437,899;  223,577;50943,603;53,65597
 789,29;27209,376;  206,777;50617,081;53,56563
 789,86;27472,425;  211,977;50367,758;54,35156
 790,42;27518,045;  215,377;50497,636;54,29881
 790,99;27298,522;  224,977;50039,713;54,34847
 791,55;27357,856;  205,378;50188,990;54,32276
 792,12;27616,476;  231,378;50020,068;55,00265
 792,68;27654,382;  215,378;49785,745;55,35364
 793,25;27638,144;  217,578;49649,623;55,47124
 793,81;27577,050;  253,778;49135,900;55,89625
 794,38;27395,384;  193,378;49037,778;55,69115
 794,94;27513,576;  206,978;48908,855;56,06888
 795,51;27485,767;  218,978;48653,933;56,29568
 796,07;27445,530;  222,978;48389,010;56,51815
 796,64;27617,436;  246,778;48626,887;56,57420
 797,20;27514,627;  225,178;48034,365;57,07993
 797,77;27425,818;  201,978;47678,042;57,34224
 798,33;27539,438;  205,178;47540,320;57,74623
 798,90;27571,630;  246,378;47325,597;58,04100
 799,46;27460,821;  218,778;46887,675;58,37302
 800,03;27432,441;  210,378;46838,352;58,38140
 800,59;27533,775;  237,178;46681,230;58,77307
 801,15;27362,538;  239,978;46431,307;58,71786
 801,72;27392,587;  199,378;46248,184;59,05301
 802,28;27299,064;  240,778;45773,462;59,42607
 802,85;27310,541;  219,979;45820,939;59,40788
 803,41;27341,161;  207,179;45618,217;59,75195
 803,98;27178,781;  212,779;45104,294;60,06926
 804,54;27169,115;  228,979;44858,572;60,36384
 805,11;27116,449;  234,979;44625,249;60,55712
 805,67;27041,926;  240,379;44560,527;60,47260
 806,23;26788,689;  225,379;44110,804;60,52877
 806,80;26869,023;  243,379;44193,281;60,58181
 807,36;26948,786;  261,579;44025,959;60,97929
 807,93;26831,692;  239,779;43749,036;61,11783
 808,49;26806,740;  227,379;43464,914;61,47289
 809,05;26688,360;  210,779;43106,391;61,72562
 809,62;26741,266;  235,179;43062,269;61,89094
 810,18;26767,743;  228,779;43010,346;62,03364
 810,74;26696,792;  197,379;42687,824;62,36558
 811,31;26711,126;  216,579;42482,301;62,68566
 811,87;26678,746;  224,179;42432,978;62,67548
 812,44;26806,080;  258,979;42405,656;62,98741
 813,00;26728,271;  191,779;42067,533;63,36959
 813,56;26868,034;  243,779;42111,011;63,59211
 814,13;26860,083;  227,980;42001,088;63,75418
 814,69;26917,417;  229,380;41872,566;64,08741
 815,25;26660,323;  197,380;41443,443;64,15871
 815,82;26829,371;  234,380;41434,921;64,55010
 816,38;26848,705;  256,580;41108,398;65,09411
 816,94;26625,183;  230,780;40893,875;64,90997
 817,51;26650,088;  199,980;40628,753;65,42397
 818,07;26610,994;  213,380;40369,030;65,73823
 818,63;26505,042;  234,580;40002,908;66,05876
 819,20;26578,519;  236,180;40120,585;66,04671
 819,76;26418,997;  228,580;39577,863;66,55882
 820,32;26494,759;  245,380;39498,140;66,87270
 820,89;26304,808;  250,180;39362,218;66,61537
 821,45;26144,856;  210,580;39112,895;66,66512
 822,01;26181,905;  235,980;38901,573;67,10339
 822,57;26280,668;  232,780;38683,250;67,74400
 823,14;26117,716;  218,780;38618,327;67,44594
 823,70;26096,765;  216,780;38358,405;67,85234
 824,26;26044,956;  231,180;38082,482;68,19785
 824,82;25912,290;  225,781;37968,360;68,05711
 825,39;25845,482;  213,381;37732,437;68,31755
 825,95;25970,959;  237,781;37849,115;68,41868
 826,51;25817,865;  231,581;37278,792;69,06399
 827,08;25887,199;  271,781;37273,070;69,22845
 827,64;25942,533;  239,381;37244,347;69,45866
 828,20;25816,296;  216,581;36980,024;69,63362
 828,76;25890,773;  240,981;36879,502;70,00772
 829,32;25969,393;  245,581;36649,979;70,66127
 829,89;25806,013;  202,181;36605,657;70,33348
 830,45;25978,919;  208,181;36540,734;70,93016
 831,01;25958,110;  230,381;36315,412;71,29751
 831,57;25939,158;  233,181;36207,689;71,45609
 832,14;25932,350;  217,381;36185,367;71,49405
 832,70;26006,256;  208,181;35880,844;72,31889
 833,26;26004,733;  188,981;35790,321;72,51343
 833,82;26055,067;  222,181;35743,999;72,72400
 834,38;26145,973;  205,981;35722,676;73,03605
 834,95;26203,735;  211,581;35525,354;73,60345
 835,51;26082,641;  186,381;35588,031;73,14987
 836,07;26209,690;  222,182;35633,309;73,38797
 836,63;26341,309;  240,182;35589,986;73,83670
 837,19;26290,072;  231,582;35327,064;74,25027
 837,75;26194,692;  191,982;35086,541;74,51795
 838,32;26371,884;  236,782;35301,018;74,53492
 838,88;26544,218;  240,382;35185,096;75,27272
 839,44;26546,552;  203,782;34997,573;75,71112
 840,00;26617,743;  211,782;35115,651;75,65339
 840,56;26496,221;  215,182;34777,128;76,04039
 841,12;26626,698;  210,582;34765,406;76,44697
 841,68;26569,318;  193,182;34493,283;76,89813
 842,25;26665,509;  212,582;34672,761;76,76375
 842,81;26694,415;  203,782;34322,238;77,64312
 843,37;26744,892;  186,982;34411,115;77,59995
 843,93;26814,655;  219,182;34236,393;78,18240
 844,49;26855,989;  223,782;34377,670;77,97709
 845,05;26787,752;  191,582;34056,748;78,53548
 845,61;26834,514;  241,182;34182,225;78,35155
 846,17;27016,420;  207,782;34017,703;79,29222
 846,73;26957,612;  222,383;34085,180;78,95163
 847,29;26866,803;  202,783;33852,658;79,23958
 847,86;26975,280;  196,783;33641,935;80,06690
 848,42;26814,757;  190,383;33540,812;79,83218
 848,98;26898,806;  214,383;33519,890;80,12015
 849,54;26881,711;  204,183;33526,567;80,05888
 850,10;26951,474;  228,383;33345,045;80,69379
 850,66;26852,665;  184,783;33153,522;80,88839
 851,22;26906,714;  182,983;33056,000;81,29382
 851,78;27013,191;  239,983;33111,277;81,44860
 852,34;26888,525;  200,783;32939,555;81,51724
 852,90;26889,431;  212,183;32850,032;81,73715
 853,46;26777,194;  197,383;32641,709;81,92437
 854,02;26754,814;  213,983;32643,387;81,84187
 854,58;26706,719;  203,183;32336,464;82,48002
 855,14;26743,054;  186,583;32268,742;82,77645
 855,70;26541,674;  169,983;32086,819;82,62627
 856,26;26546,294;  216,383;31989,697;82,86800
 856,82;26588,342;  205,783;31857,374;83,35303
 857,38;26558,105;  224,383;31752,252;83,52522
 857,94;26475,296;  204,184;31631,129;83,59423
 858,50;26362,916;  220,984;31515,207;83,53597
 859,06;26307,679;  224,584;31482,284;83,44534
 859,62;26306,013;  213,384;31318,161;83,88624
 860,18;26231,633;  208,784;31074,239;84,31060
 860,74;26132,396;  168,984;30912,316;84,45217
 861,30;25912,016;  173,784;30831,794;83,95272
 861,86;26102,922;  221,584;30929,071;84,28348
 862,42;25956,827;  205,384;30590,949;84,74894
 862,98;26071,876;  225,784;30679,826;84,86917
 863,54;25865,210;  213,784;30401,504;84,97305
 864,10;25984,687;  199,384;30453,381;85,22941
 864,66;25825,021;  204,984;30147,458;85,56420
 865,22;25827,784;  204,984;30039,336;85,88355
 865,78;25869,261;  211,984;30028,813;86,04965
 866,34;25751,453;  201,784;29892,091;86,05391
 866,90;25732,644;  221,984;29758,968;86,36853
 867,45;25670,264;  222,184;29624,646;86,55085
 868,01;25642,027;  222,584;29528,523;86,73820
 868,57;25521,504;  194,184;29270,201;87,10726
 869,13;25416,838;  189,785;29094,678;87,27607
 869,69;25400,458;  202,185;29107,755;87,17445
 870,25;25399,507;  189,185;29104,833;87,18574
 870,81;25477,841;  215,785;28973,910;87,84319
 871,37;25487,890;  209,585;28797,588;88,42277
 871,93;25288,938;  224,185;28614,065;88,28763
 872,49;25363,987;  221,585;28385,943;89,27028
 873,04;25362,749;  200,185;28223,620;89,79115
 873,60;25213,369;  190,585;28096,698;89,66775
 874,16;25165,989;  210,585;28100,175;89,47928
 874,72;25165,418;  199,385;28028,775;89,71103
 875,28;25054,561;  209,785;27963,375;89,51914
 875,84;25048,989;  186,785;27807,375;90,01330
 876,40;25178,275;  206,985;27740,175;90,69523
 876,95;25162,704;  221,385;27739,775;90,63509
 877,51;25307,561;  255,785;27750,375;91,11529
 878,07;25414,132;  239,585;27763,975;91,46269
 878,63;25540,846;  218,585;27739,975;92,00938
 879,19;25488,418;  223,985;27668,175;92,05749
 879,75;25614,561;  217,185;27709,175;92,38100
 880,30;25739,275;  205,385;27794,575;92,55034
 880,86;25902,989;  255,185;27824,575;93,03000
 881,42;25977,846;  190,185;27869,775;93,16490
 881,98;26128,561;  224,585;28080,175;92,99381
 882,54;26342,418;  217,985;28017,575;93,97417
 883,09;26510,846;  226,985;28170,175;94,06178
 883,65;26732,989;  215,585;28300,375;94,41909
 884,21;27017,275;  239,585;28441,775;94,94897
 884,77;27055,132;  217,985;28552,975;94,71380
 885,32;27185,846;  211,185;28662,975;94,80831
 885,88;27418,275;  240,985;28801,975;95,15528
 886,44;27537,561;  212,785;28912,775;95,20831
 887,00;27737,275;  229,785;28898,775;95,94858
 887,56;27950,846;  221,785;29149,775;95,85547
 888,11;27970,561;  217,985;29168,175;95,86319
 888,67;28180,418;  240,185;29323,575;96,06938
 889,23;28258,561;  227,385;29229,775;96,65126
 889,79;28256,132;  208,785;29260,375;96,54324
 890,34;28249,132;  208,785;29149,575;96,88867
 890,90;28456,275;  250,985;29173,175;97,52128
 891,46;28382,989;  217,585;29233,975;97,06722
 892,01;28383,989;  240,585;29083,775;97,57383
 892,57;28433,418;  245,785;29088,775;97,72785
 893,13;28296,704;  226,185;28995,775;97,57010
 893,69;28316,561;  207,585;28903,575;97,95437
 894,24;28211,989;  218,185;28830,175;97,83942
 894,80;28225,275;  225,785;28553,575;98,84107
 895,36;28136,275;  207,385;28458,575;98,85916
 895,91;27970,275;  213,985;28280,375;98,89512
 896,47;27978,989;  230,185;28094,775;99,58447
 897,03;27814,132;  210,385;27903,775;99,67630
 897,58;27722,989;  217,785;27717,175;100,02114
 898,14;27569,132;  233,985;27673,575;99,61937
 898,70;27421,704;  197,385;27601,175;99,34509
 899,25;27523,275;  209,185;27406,375;100,42982
 899,81;27425,275;  238,185;27203,575;100,82217
 900,37;27258,561;  190,985;27044,375;100,79761
 900,92;27375,561;  220,185;26966,575;101,52912
 901,48;27249,561;  204,185;26834,575;101,55832
 902,03;27179,418;  199,385;26749,975;101,61745
 902,59;27199,704;  219,585;26734,975;101,75267
 903,15;27151,846;  242,585;26494,775;102,50292
 903,70;26853,275;  228,985;26272,975;102,22815
 904,26;26728,989;  195,185;26118,375;102,35548
 904,82;26845,561;  217,385;26110,975;102,83694
 905,37;26734,132;  215,585;26019,975;102,76758
 905,93;26557,561;  211,185;25899,975;102,55982
 906,48;26669,275;  230,185;25755,975;103,57795
 907,04;26590,418;  248,585;25767,175;103,22605
 907,60;26508,418;  205,985;25499,175;103,99018
 908,15;26317,561;  208,785;25448,375;103,44374
 908,71;26403,561;  251,385;25480,975;103,65676
 909,26;26299,704;  211,185;25169,375;104,52889
 909,82;26163,418;  237,185;25158,575;104,03205
 910,37;26119,132;  250,785;24900,975;104,94178
 910,93;25969,704;  206,785;24712,775;105,12907
 911,48;25972,132;  209,585;24621,375;105,53322
 912,04;25845,989;  203,585;24537,375;105,37777
 912,60;26011,275;  240,185;24691,775;105,39638
 913,15;25654,132;  233,585;24388,775;105,23845
 913,71;25626,418;  208,985;24185,975;106,00761
 914,26;25568,132;  207,785;24091,775;106,18137
 914,82;25536,561;  223,985;24053,375;106,22419
 915,37;25446,989;  209,785;23898,375;106,53738
 915,93;25462,561;  278,185;23892,775;106,64752
 916,48;25346,846;  215,785;23672,775;107,13677
 917,04;25307,846;  232,185;23553,975;107,52031
 917,59;25226,989;  251,985;23506,375;107,39909
 918,15;24979,561;  172,985;23242,175;107,53120
 918,70;24928,989;  194,585;23323,175;106,94298
 919,26;24882,989;  225,985;23132,575;107,64153
 919,81;24717,561;  191,385;23044,175;107,32246
 920,37;24666,704;  209,585;22783,375;108,34299
 920,92;24545,561;  215,385;22795,975;107,74818
 921,48;24409,132;  200,185;22586,375;108,14233
 922,03;24443,418;  214,985;22528,375;108,58248
 922,59;24313,704;  224,785;22401,375;108,62319
 923,14;24148,704;  210,185;22325,175;108,24567
 923,69;24183,704;  224,585;22390,575;108,08955
 924,25;24158,989;  234,585;22114,975;109,34176
 924,80;23904,275;  219,585;21933,575;109,07572
 925,36;23966,704;  216,585;21980,375;109,12676
 925,91;23800,275;  213,985;21765,175;109,44310
 926,47;23758,989;  192,985;21704,975;109,54823
 927,02;23785,989;  246,185;21669,975;109,87694
 927,57;23643,846;  217,385;21431,775;110,42722
 928,13;23621,704;  215,385;21399,175;110,49165
 928,68;23601,846;  214,385;21298,775;110,92311
 929,24;23398,989;  194,985;21056,975;111,22623
 929,79;23317,132;  195,185;20994,175;111,16861
 930,34;23120,275;  220,985;20909,175;110,68774
 930,90;23167,846;  200,585;20822,575;111,37267
 931,45;23106,132;  208,985;20760,775;111,41194
 932,01;23108,989;  226,985;20826,175;111,08206
 932,56;22887,846;  236,785;20657,975;110,91940
 933,11;22844,132;  224,785;20495,575;111,58592
 933,67;22723,704;  218,985;20367,175;111,69598
 934,22;22687,132;  224,385;20302,375;111,87747
 934,77;22565,132;  223,585;20152,375;112,10689
 935,33;22432,275;  228,985;20031,775;112,12203
 935,88;22445,846;  228,585;20037,175;112,15973
 936,43;22443,418;  224,785;19867,775;113,11227
 936,99;22402,275;  203,985;19779,775;113,39665
 937,54;22251,418;  199,385;19705,575;113,05146
 938,09;22174,846;  214,385;19494,375;113,90287
 938,65;22042,561;  212,785;19343,175;114,11046
 939,20;22012,846;  194,585;19422,175;113,47372
 939,75;21809,704;  197,185;19246,375;113,45637
 940,31;21759,989;  193,785;19051,175;114,36474
 940,86;21775,418;  203,585;19200,975;113,55156
 941,41;21672,989;  264,985;19011,775;114,19557
 941,96;21567,846;  207,185;18855,975;114,54181
 942,52;21477,132;  216,385;18838,175;114,17134
 943,07;21461,561;  193,785;18730,975;114,73031
 943,62;21319,704;  201,585;18591,975;114,83236
 944,18;21369,132;  190,585;18531,975;115,46860
 944,73;21274,132;  216,785;18403,975;115,78120
 945,28;21133,275;  181,185;18284,575;115,73573
 945,83;21195,704;  223,385;18173,575;116,83619
 946,39;21158,561;  203,785;18154,575;116,73456
 946,94;21146,275;  234,985;18027,775;117,52676
 947,49;21008,132;  214,585;17934,375;117,34646
 948,04;21079,132;  227,185;17990,975;117,38456
 948,59;21088,704;  229,785;17823,975;118,55572
 949,15;20937,275;  196,785;17696,575;118,51851
 949,70;20874,846;  213,385;17583,375;118,94918
 950,25;20819,846;  231,785;17544,775;118,91684
 950,80;20802,132;  187,385;17522,775;118,91712
 951,36;20732,989;  180,985;17437,175;119,09932
 951,91;20770,132;  211,785;17414,175;119,50867
 952,46;20515,561;  181,585;17155,375;119,79632
 953,01;20715,846;  215,185;17166,975;120,93508
 953,56;20473,418;  186,385;17089,975;120,01612
 954,11;20504,275;  231,985;17015,775;120,78494
 954,67;20452,989;  204,985;16958,175;120,86059
 955,22;20268,704;  188,985;16687,775;121,70419
 955,77;20410,846;  234,585;16719,375;122,39320
 956,32;20340,132;  251,185;16646,375;122,52952
 956,87;20107,275;  206,385;16472,775;122,34362
 957,42;20299,418;  206,985;16494,775;123,35886
 957,98;20157,846;  201,785;16257,375;124,29354
 958,53;20060,846;  224,385;16301,175;123,38571
 959,08;19989,704;  190,785;16218,575;123,52869
 959,63;19848,846;  190,585;16122,175;123,39171
 960,18;19792,704;  217,185;16053,375;123,61255
 960,73;19834,275;  208,985;15932,375;124,81590
 961,28;19691,561;  200,785;15844,375;124,59273
 961,83;19754,989;  216,385;15855,775;124,93201
 962,39;19605,846;  200,185;15688,175;125,29490
 962,94;19539,561;  215,585;15571,575;125,83999
 963,49;19451,704;  209,785;15532,375;125,57876
 964,04;19449,275;  214,985;15423,175;126,47324
 964,59;19386,418;  203,585;15309,575;126,98825
 965,14;19353,846;  214,785;15274,375;127,08886
 965,69;19335,132;  195,585;15175,975;127,76401
 966,24;19258,561;  189,785;15058,575;128,24699
 966,79;19082,704;  215,585;14974,175;127,83822
 967,34;19097,989;  191,185;14867,575;128,82462
 967,89;19065,846;  211,985;14773,375;129,47845
 968,44;18954,418;  219,585;14791,175;128,57096
 968,99;18994,704;  226,785;14619,175;130,40168
 969,55;18869,561;  220,985;14511,975;130,49184
 970,10;18766,132;  214,385;14446,775;130,34878
 970,65;18741,704;  227,385;14262,975;131,90980
 971,20;18686,989;  199,185;14271,175;131,38017
 971,75;18591,989;  188,185;14090,175;132,38252
 972,30;18521,132;  217,785;14004,775;132,75811
 972,85;18445,561;  203,585;14013,975;132,08878
 973,40;18218,275;  203,185;13823,575;132,26560
 973,95;18229,846;  220,985;13810,175;132,52344
 974,50;18156,275;  241,385;13734,375;132,77183
 975,05;18155,846;  215,785;13633,775;133,70156
 975,60;18081,704;  241,185;13571,975;133,82942
 976,15;17873,846;  211,385;13443,575;133,48101
 976,70;17884,132;  222,185;13370,975;134,32374
 977,25;17868,561;  211,985;13416,975;133,71139
 977,80;17775,418;  195,985;13126,975;135,94808
 978,35;17627,418;  211,985;13055,175;135,60052
 978,89;17644,704;  199,385;12930,375;137,03034
 979,44;17627,275;  217,785;12903,375;137,23832
 979,99;17354,846;  201,985;12765,375;136,53052
 980,54;17289,561;  228,185;12675,975;137,06349
 981,09;17150,275;  222,585;12618,175;136,56220
 981,64;17050,989;  221,585;12389,575;138,30883
 982,19;17000,989;  242,985;12345,775;138,46398
 982,74;16837,989;  231,185;12263,975;138,01292
 983,29;16674,704;  192,785;12115,775;138,23645
 983,84;16591,132;  227,985;12057,575;138,32387
 984,39;16609,846;  249,385;11963,175;139,66839
 984,94;16425,846;  200,585;11862,975;139,12467
 985,49;16370,132;  232,385;11793,175;139,59035
 986,03;16246,275;  233,785;11663,975;140,08945
 986,58;16141,704;  268,785;11628,175;139,73390
 987,13;15900,846;  207,985;11411,575;140,06994
 987,68;15921,704;  235,985;11312,375;141,61400
 988,23;15824,561;  226,985;11250,175;141,49784
 988,78;15580,704;  223,785;11109,775;141,07048
 989,33;15591,561;  220,985;10968,775;143,01150
 989,88;15488,561;  251,985;10965,975;142,21197
 990,42;15281,418;  223,185;10787,175;142,54304
 990,97;15154,275;  223,185;10681,175;142,77208
 991,52;15004,561;  235,185;10688,575;141,28790
 992,07;15008,704;  244,585;10498,775;143,98132
 992,62;14858,132;  228,185;10449,775;143,12790
 993,17;14696,561;  230,185;10255,775;144,29451
 993,71;14619,704;  236,585;10236,375;143,83421
 994,26;14392,418;  218,185;10051,175;144,14977
 994,81;14438,989;  239,985;10001,575;145,45790
 995,36;14218,418;  208,985; 9878,775;144,87836
 995,91;14237,132;  227,185; 9840,775;145,73065
 996,45;14023,418;  223,185; 9708,175;145,49549
 997,00;13910,989;  208,785; 9556,175;146,58856
 997,55;13916,846;  226,185; 9570,575;146,51209
 998,10;13737,704;  235,785; 9334,575;148,39246
 998,65;13614,846;  207,185; 9332,975;146,92056
 999,19;13515,989;  234,585; 9289,775;146,67174
 999,74;13359,846;  237,185; 9119,375;147,74128
1000,29;13359,275;  247,185; 9050,575;148,94365
1000,84;13145,132;  226,385; 8927,975;148,46421
1001,38;13096,275;  225,985; 8722,975;151,46881
1001,93;12958,989;  227,185; 8819,575;148,17535
1002,48;12759,704;  213,185; 8628,775;149,08662
1003,03;12784,275;  222,785; 8504,975;151,66870
1003,57;12572,132;  232,985; 8453,975;150,09320
1004,12;12499,418;  233,185; 8326,175;151,56614
1004,67;12370,846;  223,985; 8297,175;150,45925
1005,22;12165,561;  214,785; 8139,375;150,80623
1005,76;11978,846;  212,585; 7986,175;151,36200
1006,31;11973,846;  234,985; 7930,775;152,53615
1006,86;11799,132;  221,985; 7767,575;153,42932
1007,40;11590,846;  198,185; 7624,975;153,39954
1007,95;11462,561;  230,385; 7621,375;151,97119
1008,50;11330,275;  234,185; 7447,975;153,81776
1009,04;11293,561;  218,385; 7419,175;153,80501
1009,59;11040,989;  221,585; 7293,975;152,98088
1010,14;10888,704;  215,585; 7124,575;154,48160
1010,68;10739,989;  223,785; 7028,975;154,53212
1011,23;10636,704;  189,385; 6898,975;155,70726
1011,78;10518,846;  238,385; 6909,775;154,09774
1012,32;10408,846;  221,385; 6682,575;157,67160
1012,87;10352,704;  239,585; 6755,175;155,21416
1013,42;10141,418;  212,185; 6570,975;156,14972
1013,96;10171,275;  242,985; 6621,575;155,65023
1014,51;10045,275;  182,185; 6500,175;156,11120
1015,06;10088,132;  191,385; 6547,775;155,69761
1015,60;10073,275;  264,385; 6593,375;154,98350
1016,15;10088,989;  213,785; 6555,575;155,71636
1016,69;10190,704;  226,585; 6498,375;158,87201
1017,24;10188,989;  203,185; 6530,775;157,81371
1017,79;10266,132;  249,985; 6580,175;158,22822
1018,33;10283,989;  211,185; 6584,175;158,05461
1018,88;10453,989;  248,185; 6615,975;160,27231
1019,42;10463,846;  230,585; 6633,375;159,82504
1019,97;10434,561;  199,585; 6670,375;158,17197
1020,51;10548,418;  232,385; 6724,975;158,88933
1021,06;10583,132;  201,185; 6703,975;159,65374
1021,61;10570,846;  183,385; 6564,775;162,77741
1022,15;10589,132;  170,385; 6554,375;163,20118
1022,70;10562,846;  221,985; 6591,975;162,33717
1023,24;10513,846;  185,985; 6595,975;161,12133
1023,79;10542,275;  206,185; 6495,775;164,33647
1024,33;10448,704;  206,185; 6476,975;163,33697
1024,88;10422,418;  211,185; 6419,975;164,46414
1025,42;10210,418;  214,785; 6222,175;166,38895
1025,97;10102,561;  211,785; 6173,175;165,91392
1026,51; 9897,275;  175,985; 6033,175;165,97191
1027,06; 9833,418;  206,185; 6053,375;164,64717
1027,60; 9683,846;  205,585; 5935,175;165,42652
1028,15; 9577,275;  230,585; 5842,775;166,54265
1028,69; 9408,418;  196,985; 5694,375;167,56011
1029,24; 9386,132;  211,385; 5638,775;169,04529
1029,78; 9185,846;  208,385; 5525,175;168,85116
1030,33; 8985,132;  185,985; 5398,775;168,79919
1030,87; 8915,418;  212,385; 5365,775;168,87976
1031,42; 8824,132;  194,385; 5274,975;169,85718
1031,96; 8664,132;  216,985; 5209,175;169,20724
1032,51; 8587,132;  198,785; 5159,575;169,09297
1033,05; 8509,132;  216,785; 5094,375;170,00911
1033,60; 8288,704;  166,785; 4986,175;168,52586
1034,14; 8246,561;  200,185; 4900,775;171,17799
1034,69; 8129,275;  210,185; 4821,375;171,73636
1035,23; 8034,275;  205,985; 4730,975;173,00127
1035,77; 7869,275;  193,585; 4674,375;171,30216
1036,32; 7805,132;  169,185; 4629,175;171,20996
1036,86; 7772,989;  202,185; 4530,575;174,91040
1037,41; 7554,846;  219,585; 4518,575;170,62755
1037,95; 7465,418;  182,985; 4436,375;171,21479
1038,50; 7360,418;  194,985; 4351,775;172,37900
1039,04; 7292,846;  216,385; 4251,375;175,37742
1039,58; 7157,989;  195,985; 4206,575;173,59053
1040,13; 7129,846;  193,185; 4211,375;172,63149
1040,67; 7043,989;  232,985; 4143,575;174,16820
1041,21; 6939,561;  234,385; 4054,975;175,50105
1041,76; 6828,132;  189,585; 3998,975;174,26798
1042,30; 6731,989;  207,185; 3960,575;173,83763
1042,85; 6576,561;  205,185; 3900,775;172,40483
1043,39; 6519,561;  196,585; 3840,775;173,50840
1043,93; 6379,418;  213,185; 3768,575;173,43337
1044,48; 6363,846;  221,785; 3745,575;174,30271
1045,02; 6263,989;  194,985; 3677,575;174,26698
1045,56; 6209,275;  226,785; 3593,175;177,71233
1046,11; 6144,989;  209,985; 3566,175;176,83755
1046,65; 6094,846;  219,985; 3509,575;178,58947
1047,19; 6015,132;  187,785; 3480,975;176,95144
1047,74; 5886,846;  191,985; 3379,375;178,66849
1048,28; 5863,132;  214,785; 3427,975;175,78628
1048,82; 5785,132;  220,785; 3358,975;177,31072
1049,37; 5716,561;  215,385; 3284,775;179,22700
1049,91; 5657,275;  197,185; 3303,375;175,78094
1050,45; 5555,275;  224,985; 3245,375;176,47688
1050,99; 5465,275;  202,985; 3149,375;178,60127
1051,54; 5383,275;  207,185; 3100,375;178,90598
1052,08; 5344,989;  228,785; 3086,975;179,00155
1052,62; 5263,275;  223,985; 3023,975;179,97529
1053,16; 5245,418;  206,585; 2934,575;184,70863
1053,71; 5152,989;  218,585; 2966,975;179,53799
1054,25; 5054,418;  217,185; 2879,175;181,71491
1054,79; 5034,561;  222,585; 2843,975;183,56581
1055,33; 4901,846;  199,185; 2783,975;181,93592
1055,88; 4887,561;  232,185; 2776,975;182,93752
1056,42; 4828,561;  227,185; 2762,175;181,51455
1056,96; 4749,418;  234,585; 2692,975;183,64998
1057,50; 4642,561;  224,185; 2648,775;182,23187
1058,05; 4587,846;  222,785; 2621,975;181,93896
1058,59; 4582,989;  233,985; 2547,775;187,96020
1059,13; 4425,418;  201,585; 2473,175;185,94169
1059,67; 4419,418;  228,185; 2524,575;182,51398
1060,21; 4338,418;  215,385; 2451,775;184,36108
1060,76; 4270,132;  235,185; 2440,975;182,92526
1061,30; 4273,561;  244,385; 2377,175;188,91573
1061,84; 4124,846;  210,185; 2358,375;182,23069
1062,38; 4062,846;  199,585; 2303,775;183,59851
1062,92; 4069,418;  260,985; 2322,375;184,75072
1063,46; 3985,846;  242,585; 2245,575;186,88368
1064,01; 3935,275;  204,785; 2226,575;184,51422
1064,55; 3871,561;  229,585; 2221,575;182,83102
1065,09; 3765,132;  198,385; 2126,375;184,99822
1065,63; 3776,132;  230,785; 2131,775;186,50004
1066,17; 3720,989;  245,785; 2102,975;187,12163
1066,71; 3686,989;  231,785; 2098,775;185,06817
1067,25; 3600,704;  237,185; 2061,175;184,40444
1067,80; 3570,132;  238,385; 2045,975;184,31985
1068,34; 3582,132;  250,385; 2047,175;185,42774
1068,88; 3495,704;  217,585; 1981,175;185,87759
1069,42; 3487,132;  258,185; 1998,375;185,55141
1069,96; 3397,132;  225,385; 1939,175;185,07210
1070,50; 3370,561;  251,585; 1942,975;184,40311
1071,04; 3297,561;  203,185; 1908,175;181,48938
1071,58; 3240,846;  218,385; 1881,175;181,77048
1072,12; 3222,418;  218,785; 1812,975;188,41122
1072,66; 3201,132;  232,985; 1827,175;186,18528
1073,21; 3202,561;  235,985; 1839,175;185,04205
1073,75; 3131,989;  235,385; 1805,975;184,42778
1074,29; 3090,846;  240,585; 1778,575;185,32379
1074,83; 3063,132;  249,585; 1748,175;187,74629
1075,37; 3023,418;  243,785; 1726,975;187,40909
1075,91; 3020,846;  232,185; 1720,975;187,31060
1076,45; 2933,989;  228,385; 1687,775;185,39282
1076,99; 2888,846;  254,785; 1650,975;188,66067
1077,53; 2875,561;  222,185; 1646,575;186,28155
1078,07; 2834,704;  241,185; 1615,975;188,64834
1078,61; 2804,275;  218,785; 1609,375;185,92756
1079,15; 2748,989;  222,985; 1585,575;185,38256
1079,69; 2762,418;  223,985; 1549,175;191,55237
1080,23; 2732,989;  244,385; 1572,175;187,42454
1080,77; 2722,275;  246,985; 1569,375;187,18305
1081,31; 2621,989;  203,985; 1501,375;186,37451
1081,85; 2599,132;  245,185; 1514,175;185,49769
1082,39; 2580,132;  215,385; 1467,975;188,78860
1082,93; 2575,132;  210,785; 1449,975;190,79779
1083,47; 2501,275;  214,785; 1425,775;188,81163
1084,01; 2495,132;  250,185; 1426,975;190,76871
1084,55; 2446,561;  212,385; 1393,175;189,21025
1085,09; 2415,846;  242,585; 1387,375;189,83931
1085,63; 2400,846;  223,185; 1392,375;186,25385
1086,17; 2378,418;  220,585; 1358,775;189,58459
1086,71; 2312,989;  236,585; 1333,575;189,28197
1087,24; 2306,704;  248,585; 1347,175;187,34183
1087,78; 2285,275;  222,985; 1311,775;189,41118
1088,32; 2226,418;  213,785; 1278,575;189,01688
1088,86; 2220,704;  242,385; 1315,375;184,37437
1089,40; 2207,704;  219,785; 1272,175;188,89562
1089,94; 2135,989;  196,585; 1241,175;185,66177
1090,48; 2164,132;  226,985; 1241,775;190,89143
1091,02; 2126,418;  233,785; 1239,175;188,24863
1091,56; 2091,275;  234,985; 1212,175;189,96203
1092,10; 2064,846;  217,785; 1190,975;189,79453
1092,63; 2115,132;  248,985; 1209,575;194,27093
1093,17; 2033,132;  230,985; 1195,975;186,75293
1093,71; 1941,132;  227,385; 1151,775;185,39222
1094,25; 1970,275;  249,785; 1176,375;185,67975
1094,79; 1906,704;  247,785; 1129,175;188,21618
1095,33; 1900,275;  232,585; 1100,975;192,04390
1095,87; 1867,132;  230,985; 1142,375;179,52217
1096,40; 1848,989;  206,985; 1087,375;186,50874
1096,94; 1840,418;  238,785; 1072,575;192,09068
1097,48; 1818,132;  235,185; 1090,775;185,01235
1098,02; 1771,989;  210,785; 1066,575;182,42843
1098,56; 1723,275;  196,985;  999,175;190,26540
1099,10; 1709,418;  211,585;  999,375;190,13098
1099,63; 1700,989;  209,785; 1018,775;184,32914
1100,17; 1719,275;  244,185; 1028,775;188,00775
1100,71; 1691,561;  239,985; 1012,375;187,93300

