
Integration time [ms]: 130,000
Averaging Nr. [scans]: 7
Smoothing Nr. [pixels]: 0
Data measured with spectrometer [name]: 2009305U1
Wave   ;Sample   ;Dark     ;Reference;Reflectance
[nm]   ;[counts] ;[counts] ;[counts] ;[%]

 175,72;  221,996;  192,986;  201,498;340,83546
 176,32;  226,424;  222,384;  221,717; 0,00000
 176,92;  259,545;  241,385;  235,854; 0,00000
 177,52;  266,748;  259,786;  258,523; 0,00000
 178,12;  247,819;  246,984;  204,441; 0,00000
 178,72;  265,752;  250,783;  241,274; 0,00000
 179,32;  268,843;  247,384;  249,069;1273,36017
 179,92;  257,226;  231,385;  239,762;308,46936
 180,52;  252,775;  244,988;  241,098; 0,00000
 181,12;  267,281;  248,385;  229,716; 0,00000
 181,73;  291,671;  272,585;  262,308; 0,00000
 182,33;  355,283;  306,387;  321,281;328,29545
 182,93;  273,137;  256,186;  256,932; 0,00000
 183,53;  234,327;  246,183;  223,624; 0,00000
 184,13;  241,436;  236,383;  230,131; 0,00000
 184,73;  291,113;  249,982;  256,507;630,41211
 185,33;  272,481;  234,768;  346,100;33,87410
 185,93;  286,586;  232,166;  351,877;45,45983
 186,53;  277,674;  241,967;  348,122;33,63674
 187,13;  330,298;  257,569;  394,908;52,95568
 187,73;  284,873;  220,566;  335,660;55,87358
 188,33;  286,317;  254,365;  362,824;29,46017
 188,93;  292,250;  244,562;  398,475;30,98342
 189,53;  301,614;  258,559;  392,476;32,15010
 190,13;  333,809;  283,155;  430,284;34,42807
 190,73;  265,884;  220,558;  363,114;31,79535
 191,34;  300,201;  253,561;  378,621;37,29447
 191,94;  283,529;  240,364;  345,758;40,95610
 192,54;  289,777;  245,370;  399,729;28,76847
 193,14;  299,090;  248,969;  381,307;37,87385
 193,74;  297,419;  249,968;  364,047;41,59452
 194,34;  298,013;  227,969;  353,891;55,62498
 194,94;  271,479;  218,569;  355,716;38,57936
 195,54;  251,151;  215,168;  334,977;30,03366
 196,14;  258,488;  221,569;  355,380;27,59007
 196,74;  256,799;  216,167;  336,993;33,62865
 197,34;  225,547;  188,971;  344,465;23,52262
 197,94;  271,500;  220,769;  365,195;35,12622
 198,54;  283,621;  238,769;  365,333;35,43803
 199,14;  260,003;  213,971;  370,842;29,34377
 199,74;  248,471;  202,971;  374,033;26,59856
 200,34;  239,462;  199,372;  356,968;25,43891
 200,94;  282,639;  232,170;  410,644;28,27816
 201,54;  261,923;  216,571;  406,478;23,88116
 202,14;  292,332;  231,172;  444,781;28,63145
 202,74;  261,934;  223,371;  453,508;16,75637
 203,34;  254,537;  184,573;  446,416;26,71980
 203,94;  232,101;  173,772;  465,735;19,97804
 204,54;  314,240;  229,569;  530,605;28,12641
 205,14;  256,279;  190,571;  533,994;19,13314
 205,74;  318,315;  239,373;  624,034;20,52246
 206,34;  282,568;  210,772;  632,343;17,03052
 206,94;  291,680;  212,972;  703,417;16,04830
 207,54;  262,030;  188,772;  726,418;13,62577
 208,14;  297,440;  196,172;  794,506;16,92502
 208,74;  300,456;  217,771;  891,670;12,26959
 209,34;  301,570;  210,171;  960,509;12,18099
 209,94;  335,338;  204,571; 1037,280;15,70379
 210,54;  327,052;  213,973; 1112,879;12,57970
 211,14;  349,116;  204,571; 1236,499;14,00728
 211,73;  360,469;  197,971; 1326,867;14,39444
 212,33;  369,457;  206,770; 1438,453;13,20849
 212,93;  362,520;  203,171; 1522,488;12,07810
 213,53;  364,495;  174,371; 1562,260;13,69880
 214,13;  379,402;  205,174; 1652,697;12,03628
 214,73;  368,189;  195,372; 1657,381;11,82048
 215,33;  367,481;  168,771; 1707,080;12,91741
 215,93;  379,645;  206,573; 1816,158;10,75257
 216,53;  359,573;  162,571; 1892,659;11,38684
 217,13;  431,225;  227,173; 2126,822;10,74157
 217,73;  432,867;  196,373; 2281,539;11,34172
 218,33;  411,230;  148,574; 2495,337;11,19228
 218,93;  468,509;  192,576; 2756,037;10,76409
 219,53;  503,698;  185,774; 3043,728;11,12420
 220,13;  506,725;  168,574; 3315,721;10,74466
 220,73;  553,703;  196,771; 3663,262;10,29663
 221,32;  594,599;  176,771; 4002,670;10,92103
 221,92;  659,167;  167,774; 4489,701;11,36977
 222,52;  682,261;  177,173; 4825,264;10,86657
 223,12;  776,523;  176,973; 5207,436;11,91838
 223,72;  810,276;  185,573; 5646,427;11,43966
 224,32;  876,701;  194,973; 5979,694;11,78497
 224,92;  899,252;  176,373; 6339,999;11,72815
 225,52;  959,148;  191,372; 6688,408;11,81733
 226,12;  993,461;  188,373; 6945,384;11,91486
 226,72; 1033,884;  156,572; 7238,269;12,38844
 227,31; 1100,293;  154,172; 7537,973;12,81346
 227,91; 1203,798;  179,172; 7960,806;13,16723
 228,51; 1247,980;  181,371; 8348,198;13,06027
 229,11; 1326,490;  177,972; 8762,344;13,37917
 229,71; 1393,746;  176,971; 9024,802;13,75224
 230,31; 1470,136;  169,774; 9523,192;13,90253
 230,91; 1546,766;  158,770; 9767,098;14,44576
 231,51; 1623,132;  158,573;10040,244;14,82097
 232,10; 1748,536;  173,574;10533,432;15,20254
 232,70; 1821,442;  168,769;10665,091;15,74526
 233,30; 1932,240;  186,173;11029,985;16,10197
 233,90; 2028,363;  172,773;11194,690;16,83546
 234,50; 2103,837;  170,773;11401,596;17,21213
 235,10; 2171,824;  166,173;11490,599;17,71084
 235,70; 2317,748;  186,972;11624,368;18,62991
 236,29; 2394,795;  179,571;11659,240;19,29693
 236,89; 2409,486;  160,370;11714,814;19,46537
 237,49; 2505,166;  180,372;11688,736;20,20090
 238,09; 2484,568;  182,372;11480,943;20,37599
 238,69; 2574,813;  195,970;11405,171;21,22224
 239,29; 2581,656;  172,372;11141,789;21,96364
 239,89; 2603,363;  182,770;10898,509;22,58913
 240,48; 2545,119;  159,372;10599,047;22,85270
 241,08; 2565,517;  180,972;10337,522;23,47791
 241,68; 2576,514;  189,772;10061,372;24,17786
 242,28; 2530,846;  164,373; 9819,061;24,51113
 242,88; 2560,298;  198,374; 9482,888;25,43940
 243,48; 2534,840;  203,372; 9250,746;25,76955
 244,07; 2463,492;  177,372; 9107,911;25,59891
 244,67; 2479,377;  195,772; 9009,487;25,90967
 245,27; 2434,183;  195,971; 8880,267;25,77310
 245,87; 2428,101;  209,373; 8777,534;25,89502
 246,47; 2426,775;  188,171; 8790,362;26,02364
 247,06; 2416,932;  173,372; 8816,141;25,95880
 247,66; 2371,135;  172,972; 8941,810;25,06789
 248,26; 2418,105;  208,171; 9026,468;25,06078
 248,86; 2467,282;  197,971; 9181,944;25,25955
 249,46; 2408,236;  165,373; 9444,253;24,17170
 250,05; 2483,326;  195,972; 9783,266;23,85818
 250,65; 2515,414;  149,571;10138,313;23,68510
 251,25; 2580,305;  171,372;10609,388;23,07846
 251,85; 2641,476;  159,770;11118,766;22,64537
 252,44; 2667,007;  132,971;11710,174;21,88816
 253,04; 2786,846;  197,371;12463,062;21,11153
 253,64; 2795,921;  163,171;13112,912;20,33052
 254,24; 2938,429;  193,572;13970,475;19,92362
 254,84; 3037,093;  183,973;14890,853;19,39990
 255,43; 3097,096;  191,571;15757,603;18,66580
 256,03; 3189,039;  183,971;16591,684;18,31498
 256,63; 3265,466;  198,570;17660,118;17,56371
 257,23; 3355,269;  169,170;18345,547;17,52879
 257,82; 3436,881;  190,769;19251,922;17,02999
 258,42; 3366,949;  152,769;19951,490;16,23428
 259,02; 3491,796;  194,171;20729,623;16,05821
 259,62; 3459,652;  163,369;21428,059;15,50120
 260,21; 3449,732;  194,771;21896,222;14,99881
 260,81; 3415,668;  172,972;22326,403;14,63744
 261,41; 3389,846;  167,369;22570,864;14,38381
 262,01; 3360,532;  206,768;23108,504;13,77085
 262,60; 3307,698;  168,170;23373,147;13,52954
 263,20; 3332,134;  156,371;23500,628;13,60404
 263,80; 3247,768;  205,368;23599,066;13,00521
 264,40; 3111,444;  160,968;23819,858;12,47090
 264,99; 3112,078;  182,368;23843,294;12,38206
 265,59; 3109,428;  167,567;24059,513;12,31319
 266,19; 3031,379;  146,568;24172,257;12,00719
 266,78; 3044,332;  210,768;24316,185;11,75489
 267,38; 2985,582;  183,967;24330,944;11,60234
 267,98; 2912,554;  157,568;24150,966;11,48227
 268,58; 2936,705;  184,567;24217,448;11,45155
 269,17; 2942,647;  164,966;24285,346;11,51591
 269,77; 2918,844;  198,370;24085,497;11,38887
 270,37; 2842,600;  147,368;23944,855;11,32570
 270,96; 2881,300;  207,769;23900,074;11,28438
 271,56; 2821,446;  182,770;23601,023;11,26760
 272,16; 2810,309;  177,569;23375,339;11,34911
 272,75; 2766,541;  187,969;23411,568;11,10324
 273,35; 2820,000;  190,969;23294,694;11,37925
 273,95; 2826,295;  185,769;23354,159;11,39710
 274,54; 2825,705;  158,572;23331,028;11,50993
 275,14; 2938,641;  192,569;23707,828;11,67783
 275,74; 2924,053;  153,369;23879,482;11,67778
 276,33; 3056,957;  203,970;24142,154;11,91814
 276,93; 3131,145;  188,772;24583,858;12,06133
 277,53; 3196,692;  192,571;25175,231;12,02482
 278,12; 3303,294;  166,570;25657,758;12,30513
 278,72; 3481,421;  205,171;26178,411;12,61394
 279,32; 3527,721;  164,571;26753,991;12,64845
 279,91; 3725,281;  171,371;27521,361;12,99419
 280,51; 3887,476;  184,971;28009,765;13,30649
 281,11; 4052,833;  196,371;28752,665;13,50477
 281,70; 4179,103;  168,771;29039,102;13,89084
 282,30; 4339,875;  164,370;29898,623;14,04274
 282,90; 4502,131;  162,570;30314,080;14,39252
 283,49; 4751,897;  190,569;30828,085;14,88805
 284,09; 4921,576;  203,370;31190,426;15,22638
 284,69; 5092,366;  185,371;31498,658;15,67065
 285,28; 5248,393;  210,370;31942,235;15,87686
 285,88; 5514,851;  227,969;32156,996;16,55823
 286,47; 5642,948;  177,970;32188,289;17,07255
 287,07; 5875,395;  194,771;32347,001;17,66790
 287,67; 6011,269;  195,172;32354,546;18,08523
 288,26; 6284,336;  184,971;32405,315;18,93017
 288,86; 6555,177;  186,570;32495,769;19,71143
 289,46; 6848,789;  186,371;32680,542;20,50343
 290,05; 7131,551;  179,172;32626,997;21,42633
 290,65; 7482,362;  185,370;32941,526;22,27670
 291,24; 7855,105;  194,771;32878,468;23,43778
 291,84; 8141,323;  202,970;33219,118;24,04385
 292,44; 8563,570;  169,373;33300,709;25,33613
 293,03; 8959,238;  246,171;33547,421;26,16439
 293,63; 9286,397;  186,770;33615,584;27,22091
 294,22; 9636,414;  208,371;33698,513;28,15170
 294,82; 9931,656;  182,368;33743,792;29,04909
 295,41;10195,960;  156,771;33498,702;30,10980
 296,01;10405,550;  227,569;33383,433;30,69738
 296,61;10641,913;  194,371;33207,630;31,64650
 297,20;10678,392;  196,769;32826,653;32,12277
 297,80;10829,410;  204,972;32694,780;32,70083
 298,39;10962,047;  175,570;32287,366;33,59039
 298,99;11134,891;  191,569;32103,970;34,29175
 299,58;11238,051;  202,372;31960,897;34,74871
 300,18;11354,640;  209,372;31811,026;35,26799
 300,78;11347,973;  171,771;31484,299;35,69243
 301,37;11462,565;  207,968;31547,997;35,91125
 301,97;11635,626;  187,571;31411,847;36,66396
 302,56;11712,411;  182,570;31378,165;36,95984
 303,16;11818,676;  154,770;31499,886;37,21124
 303,75;11896,610;  174,571;31460,900;37,46697
 304,35;12126,187;  188,573;31471,397;38,16028
 304,94;12263,553;  194,771;31687,381;38,32258
 305,54;12276,599;  187,371;31750,070;38,30226
 306,13;12357,562;  151,573;31621,627;38,78604
 306,73;12319,112;  159,173;31458,566;38,85040
 307,33;12439,884;  198,772;31266,869;39,40091
 307,92;12431,829;  181,971;31330,916;39,32672
 308,52;12690,444;  169,770;31983,457;39,35625
 309,11;12985,697;  176,969;32351,365;39,81031
 309,71;13154,256;  152,968;32616,552;40,04884
 310,30;13314,026;  174,971;32954,887;40,08264
 310,90;13558,883;  185,971;33262,687;40,42999
 311,49;13607,775;  183,771;33381,562;40,43644
 312,09;13658,089;  151,372;33501,122;40,50020
 312,68;13837,638;  211,971;33895,860;40,45158
 313,28;13983,544;  158,371;34163,316;40,65636
 313,87;14059,804;  155,571;34084,705;40,98022
 314,47;14177,974;  180,169;34410,101;40,89346
 315,06;14281,307;  167,171;34623,354;40,96256
 315,66;14390,803;  175,372;34781,722;41,07752
 316,25;14245,785;  155,370;34635,211;40,86566
 316,85;14236,710;  151,972;34745,960;40,71441
 317,44;14356,939;  158,569;34808,042;40,97716
 318,04;14281,293;  154,570;34964,575;40,58236
 318,63;14242,550;  152,173;34926,013;40,52005
 319,22;14366,455;  179,570;35223,088;40,48362
 319,82;14313,334;  169,770;35286,149;40,27626
 320,41;14154,115;  180,770;35143,517;39,96638
 321,01;14166,655;  184,572;35123,206;40,01897
 321,60;14061,975;  168,770;35341,283;39,50018
 322,20;14003,899;  157,971;35299,850;39,40008
 322,79;13978,746;  208,771;35313,402;39,22552
 323,39;13976,886;  169,373;35372,034;39,22292
 323,98;13783,456;  144,771;35282,670;38,81474
 324,58;13666,025;  178,970;35129,905;38,58854
 325,17;13627,435;  196,170;35027,392;38,56099
 325,76;13539,602;  188,171;34881,219;38,48446
 326,36;13234,482;  149,972;34539,463;38,04799
 326,95;13080,349;  188,371;34192,512;37,91297
 327,55;12822,560;  153,970;33899,863;37,54113
 328,14;12649,967;  170,972;33373,200;37,58481
 328,74;12424,371;  209,170;33084,174;37,15650
 329,33;12176,709;  182,972;32760,777;36,81567
 329,92;11892,909;  158,569;31966,499;36,89124
 330,52;11587,780;  188,172;31457,277;36,45646
 331,11;11411,556;  179,770;31131,730;36,28780
 331,71;10994,853;  183,571;30498,361;35,66339
 332,30;10798,124;  180,371;29967,981;35,64486
 332,89;10591,885;  211,371;29360,253;35,61205
 333,49;10300,502;  177,171;28810,559;35,35499
 334,08;10032,979;  185,570;28460,415;34,82745
 334,68; 9813,437;  184,370;28111,558;34,47919
 335,27; 9544,160;  194,572;27666,421;34,03334
 335,86; 9414,270;  225,970;27437,330;33,76641
 336,46; 9267,086;  194,772;27302,755;33,46732
 337,05; 9106,965;  170,170;27101,835;33,18322
 337,65; 8951,304;  161,970;26927,606;32,83813
 338,24; 8875,569;  230,171;26958,727;32,34517
 338,83; 8770,200;  214,371;26752,013;32,24035
 339,43; 8671,854;  166,370;26752,745;31,99189
 340,02; 8587,124;  181,970;26565,382;31,85772
 340,61; 8515,583;  175,971;26737,307;31,39756
 341,21; 8441,943;  207,170;26763,374;31,00885
 341,80; 8368,674;  187,370;26798,720;30,74366
 342,40; 8295,696;  194,772;26864,163;30,37536
 342,99; 8239,314;  180,971;26944,253;30,10970
 343,58; 8231,137;  176,772;27133,577;29,87878
 344,18; 8167,694;  180,572;27216,597;29,54252
 344,77; 8215,666;  173,570;27606,039;29,31598
 345,36; 8221,778;  160,371;27912,912;29,04746
 345,96; 8225,728;  210,972;28078,872;28,75981
 346,55; 8159,098;  176,173;28447,768;28,23656
 347,14; 8160,155;  160,972;28783,106;27,94754
 347,74; 8226,517;  139,974;29189,920;27,83669
 348,33; 8317,024;  191,974;29817,918;27,42545
 348,92; 8457,790;  183,775;30549,105;27,24823
 349,52; 8509,804;  156,174;30955,103;27,12312
 350,11; 8482,966;  162,170;31210,819;26,79922
 350,70; 8437,411;  172,171;31120,364;26,70670
 351,29; 8249,312;  152,368;30924,689;26,31243
 351,89; 8207,687;  179,969;30993,518;26,05256
 352,48; 8094,238;  148,171;30885,421;25,85159
 353,07; 8041,648;  183,172;30877,907;25,60203
 353,67; 7890,072;  190,175;30820,573;25,13809
 354,26; 7797,879;  178,172;30601,753;25,04540
 354,85; 7629,168;  177,172;30468,703;24,60092
 355,45; 7450,954;  147,370;30439,404;24,11058
 356,04; 7416,919;  173,573;30375,327;23,98320
 356,63; 7316,704;  206,771;30066,646;23,81100
 357,22; 7182,571;  184,368;29905,512;23,54621
 357,82; 7054,025;  187,968;29668,706;23,28998
 358,41; 7042,952;  199,771;29572,438;23,29778
 359,00; 6879,578;  163,770;29435,592;22,94291
 359,60; 6726,702;  185,571;29456,479;22,34687
 360,19; 6695,087;  182,373;29120,338;22,50578
 360,78; 6593,427;  182,770;29146,310;22,13354
 361,37; 6457,181;  189,170;28916,701;21,81883
 361,97; 6412,690;  182,971;28635,265;21,89531
 362,56; 6239,774;  167,969;28360,780;21,53671
 363,15; 6233,053;  215,170;28158,481;21,53604
 363,74; 6092,309;  172,569;27752,539;21,46391
 364,34; 5902,529;  182,370;27352,554;21,05307
 364,93; 5757,625;  175,169;26963,065;20,83947
 365,52; 5673,842;  145,370;26728,130;20,79721
 366,11; 5523,731;  181,770;26167,240;20,55749
 366,71; 5435,312;  159,970;26022,688;20,39748
 367,30; 5306,758;  174,170;25559,416;20,21878
 367,89; 5244,690;  206,172;25401,865;19,99754
 368,48; 5135,959;  166,169;25075,721;19,95134
 369,07; 5012,125;  183,571;24633,164;19,74902
 369,67; 4937,852;  191,769;24284,979;19,69884
 370,26; 4813,776;  168,771;24087,545;19,41991
 370,85; 4756,403;  186,170;23838,483;19,32256
 371,44; 4652,916;  177,571;23618,579;19,09195
 372,03; 4590,396;  168,370;23337,002;19,08626
 372,63; 4478,970;  147,771;23093,550;18,87580
 373,22; 4424,159;  167,171;22783,439;18,82268
 373,81; 4355,108;  147,170;22461,635;18,85744
 374,40; 4324,834;  169,372;22139,047;18,91453
 374,99; 4222,003;  165,970;21953,443;18,61635
 375,59; 4153,705;  156,172;21667,828;18,58310
 376,18; 4121,378;  191,770;21468,872;18,46872
 376,77; 4105,321;  203,371;21364,952;18,43884
 377,36; 4080,231;  199,370;21278,940;18,41053
 377,95; 4037,105;  176,570;20936,669;18,59594
 378,55; 3958,083;  175,772;20880,606;18,26777
 379,14; 3975,792;  198,770;20761,892;18,36794
 379,73; 3932,756;  184,170;20648,651;18,31752
 380,32; 3945,843;  202,171;20712,913;18,25225
 380,91; 3909,497;  151,769;20583,445;18,39168
 381,50; 3920,242;  179,570;20550,771;18,36255
 382,10; 3917,414;  162,771;20394,913;18,55781
 382,69; 3896,334;  160,970;20364,549;18,48862
 383,28; 3952,563;  192,770;20401,829;18,60449
 383,87; 3890,257;  157,570;20188,334;18,63477
 384,46; 3894,400;  162,369;20195,735;18,62908
 385,05; 3966,375;  202,570;20207,523;18,81437
 385,64; 3953,302;  171,770;20158,440;18,92027
 386,24; 3966,464;  156,168;20099,553;19,10556
 386,83; 3958,276;  192,168;20144,447;18,87558
 387,42; 4005,667;  200,570;20295,621;18,93549
 388,01; 4094,434;  177,767;20546,811;19,22853
 388,60; 4094,731;  179,569;20726,841;19,05441
 389,19; 4211,941;  159,766;21010,611;19,43411
 389,78; 4271,297;  180,366;21128,927;19,52846
 390,37; 4438,698;  208,568;21641,549;19,73655
 390,96; 4399,109;  186,168;21815,620;19,47780
 391,56; 4523,723;  182,966;21914,379;19,97457
 392,15; 4638,146;  157,167;22239,463;20,29218
 392,74; 4611,297;  149,764;22406,546;20,04572
 393,33; 4769,229;  154,165;22663,977;20,50245
 393,92; 4855,992;  188,363;23131,835;20,34404
 394,51; 4925,731;  163,965;23327,444;20,55722
 395,10; 5055,341;  194,760;23569,872;20,79383
 395,69; 5094,367;  182,161;23573,066;21,00050
 396,28; 5177,662;  182,959;23658,331;21,27635
 396,87; 5193,697;  201,757;23993,409;20,98190
 397,46; 5327,212;  181,955;24041,473;21,56480
 398,06; 5425,702;  204,753;24189,344;21,76793
 398,65; 5444,540;  197,949;24189,052;21,86890
 399,24; 5486,275;  180,348;24500,131;21,81733
 399,83; 5547,606;  163,741;24445,460;22,17250
 400,42; 5625,092;  206,135;24512,385;22,29450
 401,01; 5694,358;  170,928;24724,112;22,49578
 401,60; 5819,387;  181,918;24816,096;22,88475
 402,19; 5842,346;  194,110;24662,362;23,08393
 402,78; 5901,484;  219,099;24613,473;23,29383
 403,37; 5837,733;  196,288;24505,274;23,20724
 403,96; 5918,560;  187,674;24293,776;23,77359
 404,55; 5930,371;  192,660;24133,732;23,96598
 405,14; 5952,888;  184,247;24038,022;24,18335
 405,73; 5986,680;  197,631;23981,267;24,34047
 406,32; 5976,026;  191,621;24101,578;24,19245
 406,91; 6006,123;  187,609;23737,316;24,70738
 407,50; 6045,590;  185,002;23539,545;25,09399
 408,09; 6033,799;  152,198;23115,950;25,61254
 408,68; 6032,441;  182,995;23193,869;25,42035
 409,27; 6022,817;  154,999;22857,262;25,84684
 409,86; 6061,102;  157,808;22774,037;26,10203
 410,45; 6109,032;  211,416;22694,697;26,23112
 411,04; 6107,179;  212,624;22573,806;26,36066
 411,63; 6122,666;  196,235;22229,067;26,89818
 412,22; 6117,751;  191,644;22057,939;27,10156
 412,81; 6049,947;  201,048;21784,907;27,09848
 413,40; 6041,260;  210,252;21438,664;27,46794
 413,99; 6062,329;  258,651;21227,216;27,67799
 414,58; 5891,165;  187,452;20694,737;27,81311
 415,17; 5868,558;  175,248;20501,298;28,00992
 415,76; 5904,641;  180,244;20395,432;28,31731
 416,35; 5899,205;  174,846;20161,732;28,64058
 416,94; 6032,570;  222,045;20313,714;28,92007
 417,53; 6061,455;  177,648;20493,672;28,96141
 418,12; 6152,434;  174,049;20614,393;29,24797
 418,71; 6318,970;  197,252;20941,732;29,51011
 419,30; 6355,677;  181,049;21012,852;29,64039
 419,89; 6416,823;  185,050;21163,001;29,70630
 420,48; 6617,305;  199,052;21489,970;30,14550
 421,07; 6692,422;  204,653;21596,176;30,32869
 421,66; 6673,686;  164,255;21538,096;30,45513
 422,25; 6719,052;  185,259;21534,257;30,60468
 422,84; 6797,656;  208,860;21487,749;30,96400
 423,43; 6738,378;  195,258;21191,232;31,16369
 424,02; 6752,352;  218,859;20971,837;31,48219
 424,60; 6601,903;  191,663;20564,538;31,46458
 425,19; 6568,834;  209,061;20305,406;31,64641
 425,78; 6634,539;  205,261;20207,342;32,14305
 426,37; 6620,388;  206,063;20111,059;32,22470
 426,96; 6645,285;  205,863;19945,049;32,62253
 427,55; 6549,030;  188,865;19762,574;32,49341
 428,14; 6474,734;  183,867;19519,125;32,53573
 428,73; 6514,331;  208,464;19341,737;32,95759
 429,32; 6520,244;  205,063;19425,276;32,85698
 429,91; 6595,327;  228,464;19418,805;33,17743
 430,50; 6551,534;  205,466;19183,005;33,43989
 431,08; 6568,865;  226,467;18999,311;33,78496
 431,67; 6592,249;  268,868;19016,987;33,72808
 432,26; 6562,259;  281,070;18905,633;33,72530
 432,85; 6509,558;  281,869;18476,831;34,22754
 433,44; 6368,668;  293,471;18078,520;34,15901
 434,03; 6304,757;  304,473;17738,947;34,41620
 434,62; 6168,960;  268,471;17308,235;34,62776
 435,21; 6140,509;  309,069;17213,975;34,49555
 435,79; 6099,340;  281,872;16934,179;34,93490
 436,38; 6146,645;  278,275;16896,072;35,31377
 436,97; 6071,868;  274,475;16729,837;35,23103
 437,56; 6064,478;  266,478;16623,825;35,44585
 438,15; 6041,898;  255,878;16496,161;35,62758
 438,74; 6084,294;  252,078;16499,268;35,89677
 439,33; 6111,055;  229,677;16456,341;36,24515
 439,91; 6153,234;  196,479;16520,581;36,49055
 440,50; 6123,698;  232,479;16621,240;35,94670
 441,09; 6311,465;  254,681;16749,826;36,71858
 441,68; 6302,320;  232,283;16730,041;36,79310
 442,27; 6298,504;  209,882;16687,816;36,95015
 442,86; 6286,960;  206,287;16651,772;36,97473
 443,44; 6360,400;  203,886;16753,004;37,20147
 444,03; 6463,916;  273,887;16791,849;37,47454
 444,62; 6424,478;  204,087;16619,601;37,89337
 445,21; 6331,313;  219,286;16471,340;37,60772
 445,80; 6369,565;  221,889;16363,863;38,08503
 446,39; 6287,957;  255,888;16196,422;37,84107
 446,97; 6196,840;  209,491;15841,813;38,30108
 447,56; 6140,380;  201,493;15706,886;38,30208
 448,15; 6099,219;  204,091;15505,975;38,52551
 448,74; 6071,506;  230,291;15290,758;38,78508
 449,33; 5977,108;  211,892;15142,083;38,61448
 449,91; 5925,462;  223,095;14894,015;38,86851
 450,50; 5837,071;  196,694;14714,040;38,85267
 451,09; 5814,816;  211,295;14708,166;38,65332
 451,68; 5833,323;  235,696;14536,163;39,14297
 452,26; 5807,623;  227,697;14402,943;39,36387
 452,85; 5715,778;  211,896;14299,357;39,06937
 453,44; 5764,135;  219,299;14312,838;39,34311
 454,03; 5736,946;  191,497;14305,367;39,29077
 454,61; 5781,954;  207,099;14368,230;39,36730
 455,20; 5835,131;  220,300;14521,704;39,26069
 455,79; 5902,177;  222,498;14447,995;39,92605
 456,38; 5943,468;  223,302;14552,908;39,91852
 456,97; 5987,599;  213,701;14622,094;40,07315
 457,55; 5989,235;  212,703;14558,695;40,26582
 458,14; 6027,991;  229,501;14553,453;40,48108
 458,73; 5933,911;  214,503;14483,287;40,08336
 459,31; 5991,475;  232,705;14529,387;40,28047
 459,90; 6086,737;  247,904;14600,360;40,68177
 460,49; 6227,503;  283,703;14696,165;41,24070
 461,08; 6169,533;  207,506;14867,089;40,66983
 461,66; 6206,519;  224,505;14888,910;40,79275
 462,25; 6342,492;  226,907;14940,115;41,56528
 462,84; 6293,209;  251,506;15011,281;40,93357
 463,43; 6271,856;  194,909;14974,511;41,11712
 464,01; 6276,884;  218,710;14995,271;40,99854
 464,60; 6339,331;  257,108;14803,201;41,81344
 465,19; 6203,936;  185,910;14720,475;41,40492
 465,77; 6221,664;  217,911;14554,854;41,87610
 466,36; 6213,437;  245,309;14525,559;41,79288
 466,95; 6089,714;  200,709;14226,494;41,98699
 467,53; 5997,398;  204,512;13914,149;42,25412
 468,12; 5889,724;  249,513;13740,122;41,80843
 468,71; 5754,917;  230,310;13415,162;41,90117
 469,29; 5687,164;  191,513;13187,353;42,28777
 469,88; 5588,542;  227,514;12883,731;42,35885
 470,47; 5645,510;  255,916;12949,820;42,45813
 471,06; 5634,761;  220,316;13005,744;42,34857
 471,64; 5664,616;  220,515;13189,379;41,97824
 472,23; 5708,153;  196,519;13015,701;42,99521
 472,81; 5735,703;  188,917;13223,040;42,55588
 473,40; 5755,947;  191,319;13326,682;42,36371
 473,99; 5951,966;  285,319;13423,177;43,13220
 474,57; 5965,552;  209,519;13701,757;42,66181
 475,16; 6101,690;  222,117;13824,843;43,22349
 475,75; 6115,760;  225,720;13942,558;42,94021
 476,33; 6214,485;  231,721;14015,988;43,40284
 476,92; 6208,303;  233,519;13987,799;43,43945
 477,51; 6215,915;  229,721;14118,754;43,10015
 478,09; 6293,098;  232,321;14143,545;43,56753
 478,68; 6239,149;  216,521;14012,349;43,65543
 479,27; 6266,287;  233,520;14178,435;43,26141
 479,85; 6234,622;  218,121;14165,872;43,13599
 480,44; 6325,822;  207,122;14306,392;43,39728
 481,02; 6896,901;  229,523;16077,972;42,06959
 481,61; 7833,440;  254,923;17850,264;43,07116
 482,20; 8437,950;  254,723;19118,411;43,38084
 482,78; 8809,239;  260,922;19733,161;43,90002
 483,37; 9000,914;  262,525;19948,568;44,38875
 483,95; 9185,329;  295,325;20382,571;44,25696
 484,54; 9300,193;  297,122;20576,671;44,39483
 485,13; 9249,927;  258,327;20626,963;44,14434
 485,71; 9212,446;  265,126;20428,959;44,37311
 486,30; 9166,915;  288,926;20149,750;44,70101
 486,88; 8961,522;  315,727;19817,991;44,33226
 487,47; 8760,273;  305,527;19173,432;44,81020
 488,05; 8411,482;  304,528;18210,999;45,27388
 488,64; 7808,513;  297,729;16839,124;45,40599
 489,23; 7061,051;  293,128;14766,050;46,76265
 489,81; 5998,392;  292,329;12721,186;45,90980
 490,40; 5582,728;  236,929;12197,408;44,69553
 490,98; 5503,135;  233,530;11871,146;45,28080
 491,57; 5479,982;  277,529;11845,499;44,97292
 492,15; 5409,555;  261,530;11813,481;44,56412
 492,74; 5385,059;  257,928;11767,515;44,54662
 493,32; 5378,282;  259,930;11624,078;45,03947
 493,91; 5334,927;  231,331;11482,743;45,35961
 494,50; 5369,612;  245,333;11400,981;45,93439
 495,08; 5276,331;  225,733;11356,514;45,37506
 495,67; 5309,251;  241,930;11337,151;45,67120
 496,25; 5250,435;  210,132;11263,524;45,59960
 496,84; 5283,694;  202,730;11298,531;45,79177
 497,42; 5230,141;  197,532;11106,042;46,13470
 498,01; 5265,489;  219,131;11139,496;46,21052
 498,59; 5195,960;  203,133;11065,034;45,96642
 499,18; 5200,391;  202,331;11012,202;46,23607
 499,76; 5216,341;  205,132;10907,562;46,82310
 500,35; 5137,049;  203,734;10683,262;47,07573
 500,93; 5086,461;  187,332;10677,317;46,70291
 501,52; 5083,196;  200,133;10557,596;47,14536
 502,10; 5059,196;  208,535;10546,594;46,92042
 502,69; 5040,042;  196,336;10400,362;47,46857
 503,27; 4902,721;  190,133;10262,506;46,78727
 503,86; 4871,902;  209,735;10065,112;47,30582
 504,44; 4875,851;  182,936;10030,290;47,65661
 505,03; 4732,719;  162,736; 9694,137;47,94659
 505,61; 4694,170;  192,536; 9702,182;47,33756
 506,19; 4661,630;  204,136; 9472,108;48,09567
 506,78; 4578,317;  172,338; 9340,713;48,05627
 507,36; 4480,703;  183,936; 9137,175;47,99121
 507,95; 4388,247;  181,139; 9036,995;47,50650
 508,53; 4405,686;  187,138; 8897,027;48,43401
 509,12; 4321,492;  199,738; 8754,622;48,18012
 509,70; 4282,986;  204,739; 8637,406;48,36248
 510,29; 4221,729;  205,340; 8415,965;48,91697
 510,87; 4087,238;  174,738; 8270,731;48,32637
 511,46; 4040,683;  177,338; 8086,477;48,84659
 512,04; 3976,924;  186,939; 7957,770;48,77193
 512,62; 3948,151;  196,138; 7778,868;49,48103
 513,21; 3801,981;  171,140; 7678,090;48,36639
 513,79; 3757,623;  197,143; 7549,188;48,42843
 514,38; 3705,373;  181,142; 7320,047;49,36655
 514,96; 3663,746;  209,742; 7281,093;48,84504
 515,54; 3592,877;  181,542; 7104,679;49,27441
 516,13; 3598,104;  186,942; 7021,976;49,90703
 516,71; 3509,439;  192,944; 6926,813;49,25097
 517,30; 3403,749;  181,145; 6826,840;48,49161
 517,88; 3374,231;  188,345; 6746,811;48,57671
 518,46; 3348,396;  170,545; 6594,672;49,46744
 519,05; 3312,040;  179,746; 6495,754;49,59294
 519,63; 3336,984;  191,345; 6542,018;49,53237
 520,22; 3286,533;  217,947; 6442,155;49,30083
 520,80; 3200,007;  187,147; 6364,261;48,77455
 521,38; 3272,932;  210,146; 6401,013;49,47266
 521,97; 3230,794;  200,348; 6282,943;49,82159
 522,55; 3207,335;  199,748; 6282,800;49,44207
 523,13; 3226,781;  179,949; 6301,529;49,77199
 523,72; 3225,593;  168,345; 6249,243;50,27626
 524,30; 3311,927;  211,950; 6385,078;50,21729
 524,89; 3324,839;  176,548; 6358,449;50,92754
 525,47; 3370,047;  200,750; 6540,633;49,98984
 526,05; 3424,427;  161,550; 6521,777;51,30127
 526,64; 3452,001;  201,551; 6660,943;50,32130
 527,22; 3503,141;  202,350; 6749,594;50,41496
 527,80; 3616,168;  216,751; 6871,971;51,07896
 528,39; 3658,919;  197,351; 6962,595;51,16694
 528,97; 3753,228;  197,551; 7113,440;51,41317
 529,55; 3868,373;  203,749; 7325,624;51,45588
 530,14; 3965,158;  207,752; 7528,922;51,32248
 530,72; 4017,839;  185,551; 7652,030;51,32658
 531,30; 4067,631;  177,752; 7705,828;51,67163
 531,89; 4118,326;  197,552; 7831,933;51,35680
 532,47; 4192,249;  228,752; 7901,317;51,65804
 533,05; 4228,557;  233,151; 8000,980;51,43530
 533,63; 4289,373;  227,153; 8024,404;52,09811
 534,22; 4280,117;  184,953; 8097,148;51,75763
 534,80; 4335,930;  208,154; 8130,623;52,10214
 535,38; 4444,420;  261,952; 8300,477;52,03030
 535,97; 4323,308;  217,952; 8189,603;51,49945
 536,55; 4434,271;  239,754; 8349,577;51,72143
 537,13; 4380,370;  259,552; 8289,256;51,31968
 537,71; 4411,753;  298,752; 8354,350;51,05768
 538,30; 4490,193;  324,553; 8330,979;52,02870
 538,88; 4523,890;  370,155; 8471,232;51,27387
 539,46; 4631,329;  409,954; 8696,680;50,94141
 540,05; 4685,273;  418,554; 8885,743;50,39120
 540,63; 4789,771;  489,755; 8987,277;50,60317
 541,21; 4803,050;  514,355; 9101,578;49,94274
 541,79; 4893,458;  550,155; 9207,482;50,16910
 542,38; 5038,942;  583,154; 9437,837;50,32126
 542,96; 5111,596;  595,756; 9546,966;50,44949
 543,54; 5219,443;  618,955; 9809,719;50,05555
 544,12; 5262,287;  575,756; 9945,922;50,01545
 544,70; 5336,429;  567,556; 9959,138;50,77816
 545,29; 5427,134;  575,354;10202,475;50,39700
 545,87; 5431,173;  539,155;10182,482;50,72956
 546,45; 5413,282;  494,954;10226,408;50,54052
 547,03; 5432,432;  481,555;10286,689;50,49270
 547,62; 5490,045;  445,155;10398,845;50,68361
 548,20; 5600,703;  442,556;10554,508;51,01040
 548,78; 5663,093;  423,559;10673,898;51,11572
 549,36; 5717,816;  378,158;10871,763;50,88488
 549,94; 5750,992;  338,556;10875,057;51,36844
 550,53; 5871,637;  337,358;11173,922;51,07042
 551,11; 5975,494;  320,159;11369,121;51,18431
 551,69; 6111,880;  321,158;11645,981;51,13300
 552,27; 6245,157;  263,357;11964,718;51,12055
 552,85; 6430,740;  262,159;12227,130;51,55534
 553,44; 6618,402;  260,958;12593,143;51,55164
 554,02; 6796,867;  280,559;12963,584;51,37818
 554,60; 6931,672;  217,759;13196,779;51,72897
 555,18; 7193,939;  271,558;13667,468;51,67533
 555,76; 7316,019;  251,559;13974,632;51,47871
 556,34; 7506,444;  240,560;14358,681;51,46495
 556,93; 7721,181;  228,358;14680,944;51,84416
 557,51; 7839,075;  209,960;14982,768;51,64296
 558,09; 8104,866;  232,158;15343,801;52,09696
 558,67; 8206,945;  236,761;15780,364;51,27630
 559,25; 8401,145;  255,961;15964,284;51,85267
 559,83; 8529,790;  221,562;16289,350;51,70736
 560,41; 8739,231;  221,760;16657,165;51,82392
 561,00; 8901,965;  218,961;17034,859;51,63568
 561,58; 8968,275;  214,160;17279,088;51,29887
 562,16; 9092,952;  211,959;17477,464;51,43778
 562,74; 9334,753;  185,759;17965,327;51,45791
 563,32; 9537,465;  200,362;18437,359;51,19869
 563,90; 9648,384;  224,961;18787,212;50,76660
 564,48; 9927,018;  225,160;19233,648;51,03961
 565,06;10199,492;  212,161;19645,953;51,39157
 565,65;10426,840;  215,363;20566,587;50,17623
 566,23;10879,566;  265,961;21284,202;50,49711
 566,81;11167,820;  220,561;21811,894;50,70210
 567,39;11636,117;  241,762;22814,523;50,47834
 567,97;11922,067;  243,961;23468,486;50,28351
 568,55;12292,100;  233,162;24299,977;50,10608
 569,13;12678,483;  208,961;24989,088;50,32065
 569,71;13097,913;  226,159;25929,073;50,07897
 570,29;13532,703;  262,958;26884,706;49,84550
 570,87;13901,503;  260,159;27621,986;49,85538
 571,45;14161,438;  260,561;28308,382;49,56134
 572,03;14426,270;  207,762;28687,954;49,92420
 572,61;14735,051;  205,562;29493,539;49,60906
 573,20;15063,440;  253,960;30196,149;49,46024
 573,78;15330,475;  237,562;30789,806;49,40034
 574,36;15520,395;  247,561;31220,242;49,31066
 574,94;15685,710;  271,162;31592,384;49,21439
 575,52;15730,643;  227,364;31876,615;48,98466
 576,10;16063,359;  291,163;32314,782;49,25176
 576,68;16274,098;  281,962;32978,611;48,91063
 577,26;16556,680;  282,765;33716,239;48,67551
 577,84;16793,952;  314,361;34175,662;48,66792
 578,42;16915,766;  332,563;34450,721;48,60521
 579,00;16914,485;  282,962;34449,854;48,67731
 579,58;16963,331;  314,963;34647,623;48,49134
 580,16;16901,890;  304,563;34683,208;48,27801
 580,74;17005,171;  320,163;35084,276;47,99492
 581,32;17082,834;  300,363;35042,672;48,30557
 581,90;17045,983;  308,963;35056,770;48,16713
 582,48;16989,329;  323,563;35155,656;47,84601
 583,06;16939,114;  327,563;35249,557;47,56759
 583,64;16881,547;  322,562;35423,889;47,17481
 584,22;16904,989;  320,164;35040,284;47,76719
 584,80;16651,540;  344,963;34743,607;47,40471
 585,38;16420,784;  333,160;34402,452;47,22031
 585,96;16532,609;  315,962;34409,142;47,56566
 586,54;16377,815;  351,964;34509,758;46,91711
 587,12;16428,744;  306,564;34596,659;47,01702
 587,70;16463,033;  333,362;34763,209;46,84793
 588,28;16404,847;  320,363;34823,468;46,61750
 588,86;16436,070;  312,964;35000,232;46,48134
 589,44;16460,368;  299,765;35002,445;46,56874
 590,02;16412,169;  311,965;35292,308;46,02643
 590,59;16501,480;  283,364;35307,920;46,30499
 591,17;16544,665;  275,567;35479,458;46,21392
 591,75;16544,232;  279,566;35627,726;46,01277
 592,33;16649,137;  292,366;35740,399;46,14296
 592,91;16651,772;  243,367;36020,216;45,86319
 593,49;16756,233;  253,767;36438,908;45,60564
 594,07;16863,470;  263,167;36604,270;45,67914
 594,65;16763,269;  294,964;36588,969;45,37472
 595,23;16847,100;  266,765;37001,975;45,13472
 595,81;16910,269;  254,965;37266,968;44,99974
 596,39;16755,102;  252,565;37293,740;44,55187
 596,97;16818,181;  251,967;37509,721;44,46380
 597,55;16779,581;  256,365;37318,563;44,58240
 598,12;16585,688;  237,968;37345,902;44,05452
 598,70;16599,527;  234,367;37422,990;44,00582
 599,28;16677,556;  257,567;37742,333;43,80443
 599,86;16565,714;  238,367;37792,313;43,47705
 600,44;16529,208;  205,967;37837,897;43,37604
 601,02;16429,679;  252,969;37871,236;43,00227
 601,60;16338,853;  247,766;38017,964;42,60260
 602,18;16220,570;  211,768;37952,129;42,41825
 602,75;16209,559;  231,365;37897,901;42,42013
 603,33;16096,291;  238,167;37944,028;42,05745
 603,91;16022,725;  235,169;37847,926;41,97394
 604,49;15960,665;  240,167;37988,858;41,64515
 605,07;15883,050;  267,166;37989,735;41,39666
 605,65;15781,559;  275,568;38103,299;40,99107
 606,23;15784,262;  313,964;38417,871;40,60029
 606,80;15628,825;  387,765;38345,005;40,15323
 607,38;15593,724;  416,568;38379,543;39,97884
 607,96;15627,633;  473,965;38471,967;39,88017
 608,54;15542,539;  556,368;38527,803;39,46696
 609,12;15523,283;  539,765;38612,748;39,35473
 609,70;15361,206;  566,567;38558,532;38,94150
 610,27;15361,597;  583,965;38723,908;38,74582
 610,85;15317,250;  613,567;38653,055;38,65374
 611,43;15194,088;  590,967;38701,742;38,31757
 612,01;14961,709;  553,366;38429,382;38,04081
 612,59;14978,053;  558,967;38572,284;37,93167
 613,16;14828,866;  545,364;38430,980;37,70165
 613,74;14715,892;  498,767;38313,171;37,59711
 614,32;14624,904;  441,568;38356,385;37,40843
 614,90;14385,519;  421,966;37970,909;37,18761
 615,48;14251,734;  377,365;37840,010;37,03521
 616,05;14140,362;  335,764;37790,131;36,85711
 616,63;13953,848;  347,564;37695,651;36,43101
 617,21;13836,445;  318,965;37566,661;36,29078
 617,79;13668,713;  321,566;37422,331;35,97540
 618,36;13560,887;  317,366;37454,440;35,66119
 618,94;13334,473;  270,365;37060,621;35,50970
 619,52;13154,342;  298,764;36965,252;35,06084
 620,10;13067,618;  269,565;36874,987;34,96218
 620,67;12941,878;  287,364;36807,394;34,65089
 621,25;12873,843;  299,566;36373,517;34,85695
 621,83;12763,626;  292,565;36417,269;34,52225
 622,41;12705,384;  318,765;36510,592;34,22491
 622,98;12462,084;  307,364;36334,213;33,73795
 623,56;12368,000;  305,963;36379,316;33,43753
 624,14;12381,062;  258,167;36056,749;33,86418
 624,72;12227,158;  273,565;36110,078;33,35590
 625,29;12214,172;  252,364;35955,259;33,50375
 625,87;12147,447;  300,966;36094,026;33,09715
 626,45;12015,132;  257,563;35941,085;32,94957
 627,02;11857,575;  266,766;35895,646;32,53206
 627,60;11722,730;  251,167;35822,259;32,24968
 628,18;11709,997;  244,365;35763,548;32,28011
 628,76;11680,509;  246,764;35870,280;32,09606
 629,33;11638,324;  269,364;35839,123;31,96243
 629,91;11526,618;  268,565;35889,587;31,60508
 630,49;11437,313;  276,764;35956,892;31,27945
 631,06;11466,371;  277,964;36097,795;31,23523
 631,64;11292,985;  279,563;36138,753;30,71297
 632,22;11195,415;  229,363;35886,519;30,75414
 632,79;11152,159;  236,363;36219,263;30,33607
 633,37;11195,340;  241,966;36164,868;30,49134
 633,95;11080,920;  254,963;36379,551;29,96839
 634,52;11039,680;  225,965;36519,239;29,79537
 635,10;10943,155;  237,565;36531,728;29,49672
 635,68;10914,140;  223,963;36626,567;29,36652
 636,25;10790,224;  227,562;36805,065;28,87748
 636,83;10749,366;  202,364;36852,080;28,77785
 637,41;10646,414;  232,762;36929,937;28,37726
 637,98;10547,153;  240,162;37154,764;27,92117
 638,56;10609,011;  226,961;37210,748;28,07189
 639,13;10416,995;  212,564;37252,383;27,54990
 639,71;10486,706;  266,964;37549,434;27,41166
 640,29;10231,570;  211,964;37153,267;27,12305
 640,86;10232,342;  230,164;37489,945;26,84444
 641,44;10151,971;  211,764;37365,822;26,75403
 642,02;10092,743;  241,964;37456,499;26,47025
 642,59; 9984,229;  209,564;37651,177;26,10642
 643,17; 9891,572;  215,764;37740,454;25,78518
 643,74; 9860,344;  227,564;37589,132;25,78259
 644,32; 9764,402;  243,964;37598,009;25,48703
 644,89; 9714,174;  239,564;37716,287;25,28132
 645,47; 9614,803;  269,364;37663,564;24,99168
 646,05; 9604,003;  235,364;37667,042;25,02864
 646,62; 9449,918;  229,765;37442,319;24,77700
 647,20; 9409,118;  230,965;37713,197;24,48668
 647,77; 9291,176;  203,765;37561,474;24,32540
 648,35; 9171,947;  205,965;37397,551;24,10756
 648,92; 9151,005;  236,965;37432,229;23,96552
 649,50; 9040,920;  176,965;37285,506;23,88656
 650,08; 8930,120;  196,965;37310,984;23,53061
 650,65; 8881,035;  230,365;37572,261;23,16612
 651,23; 8931,664;  196,765;38502,139;22,80332
 651,80; 9103,293;  199,965;39424,016;22,69864
 652,38; 9103,779;  218,965;39698,694;22,50475
 652,95; 9099,265;  196,765;40069,171;22,32747
 653,53; 9024,465;  228,165;40138,648;22,04007
 654,10; 9028,523;  242,565;40354,726;21,90348
 654,68; 8930,152;  202,165;40204,403;21,81875
 655,25; 8913,781;  199,965;40496,681;21,62413
 655,83; 8869,838;  194,965;40659,958;21,43797
 656,40; 8811,324;  233,765;40666,636;21,21432
 656,98; 8677,668;  210,165;40604,713;20,96199
 657,55; 8596,725;  205,566;40348,391;20,90326
 658,13; 8478,068;  202,366;39910,468;20,84135
 658,70; 8321,269;  218,366;39739,745;20,50258
 659,28; 8116,041;  193,166;38768,623;20,53864
 659,85; 7893,241;  213,366;37923,300;20,36566
 660,43; 7786,156;  231,366;38173,578;19,91131
 661,00; 7644,499;  213,166;38140,655;19,59353
 661,58; 7649,556;  198,966;38531,533;19,43671
 662,15; 7694,043;  183,366;38548,410;19,57687
 662,73; 7701,100;  245,966;39044,488;19,21500
 663,30; 7727,300;  215,566;39303,365;19,21759
 663,88; 7663,501;  199,966;39299,442;19,08858
 664,45; 7596,273;  196,766;39619,720;18,76954
 665,03; 7636,187;  215,166;40113,397;18,59988
 665,60; 7681,673;  260,566;40505,075;18,44005
 666,17; 7548,160;  214,766;40460,152;18,22170
 666,75; 7577,789;  216,166;40839,830;18,12151
 667,32; 7621,132;  225,566;41222,107;18,03949
 667,90; 7554,475;  198,766;41635,185;17,75180
 668,47; 7506,533;  224,966;41620,662;17,59015
 669,05; 7483,590;  212,167;42125,139;17,34886
 669,62; 7443,505;  187,567;42222,417;17,26172
 670,19; 7370,562;  195,967;42072,294;17,13282
 670,77; 7391,906;  204,767;42438,372;17,01758
 671,34; 7308,535;  229,567;42484,249;16,75310
 671,92; 7305,449;  188,167;42555,727;16,79890
 672,49; 7287,364;  215,167;42680,604;16,65401
 673,06; 7206,279;  169,967;42731,482;16,53210
 673,64; 7136,765;  192,567;42741,559;16,32048
 674,21; 7096,679;  189,767;42651,636;16,26615
 674,79; 7149,737;  192,567;42965,714;16,26527
 675,36; 7111,937;  223,767;42944,591;16,12368
 675,93; 6989,995;  207,967;42904,469;15,88427
 676,51; 6982,624;  215,567;43098,746;15,78021
 677,08; 6953,253;  210,967;43232,024;15,67206
 677,65; 6939,596;  210,167;43365,901;15,59336
 678,23; 6902,082;  209,567;43610,179;15,42032
 678,80; 6864,997;  194,967;43687,256;15,33612
 679,38; 6797,626;  185,567;43810,733;15,15652
 679,95; 6806,398;  198,368;44029,211;15,07621
 680,52; 6805,312;  200,968;44211,488;15,00629
 681,10; 6840,370;  216,968;44679,566;14,89657
 681,67; 6826,142;  212,368;45044,843;14,75219
 682,24; 6747,056;  185,368;45052,921;14,62457
 682,82; 6837,257;  196,768;45621,998;14,61850
 683,39; 6857,028;  218,368;46011,476;14,49707
 683,96; 6865,229;  206,168;46193,953;14,48006
 684,54; 6857,144;  177,968;46633,031;14,37771
 685,11; 6902,058;  224,968;46853,308;14,31981
 685,68; 6881,259;  212,968;47257,785;14,17434
 686,25; 6770,888;  195,768;47467,063;13,90933
 686,83; 6831,231;  179,168;47447,340;14,07303
 687,40; 6828,860;  184,368;47926,018;13,91760
 687,97; 6887,774;  218,968;48281,895;13,87516
 688,55; 6839,118;  181,568;48410,373;13,80409
 689,12; 6777,604;  182,368;48523,650;13,64307
 689,69; 6778,090;  186,168;48757,928;13,57151
 690,26; 6692,147;  185,168;48923,805;13,35076
 690,84; 6708,634;  188,968;49088,882;13,33267
 691,41; 6738,405;  214,969;49135,360;13,33480
 691,98; 6689,892;  204,769;49439,637;13,17181
 692,56; 6648,235;  184,969;49458,515;13,11711
 693,13; 6692,292;  246,969;49461,192;13,09647
 693,70; 6594,778;  210,369;49672,870;12,90758
 694,27; 6545,836;  192,969;49684,347;12,83631
 694,84; 6524,465;  193,369;49844,425;12,75118
 695,42; 6589,951;  228,769;49975,702;12,78708
 695,99; 6527,723;  186,569;50355,379;12,63963
 696,56; 6524,780;  186,569;50230,457;12,66531
 697,13; 6515,124;  202,169;50660,334;12,51126
 697,71; 6475,181;  171,569;50584,612;12,50393
 698,28; 6470,524;  200,969;50862,089;12,37548
 698,85; 6450,582;  175,969;51010,167;12,34329
 699,42; 6390,354;  166,369;51064,844;12,22823
 699,99; 6435,697;  192,769;51126,522;12,25696
 700,57; 6365,326;  195,769;51344,599;12,06197
 701,14; 6378,098;  183,769;51441,476;12,08468
 701,71; 6361,012;  224,169;51729,554;11,91495
 702,28; 6291,499;  189,369;51685,431;11,84970
 702,85; 6242,842;  216,570;51676,309;11,71065
 703,43; 6257,471;  194,770;51904,386;11,72451
 704,00; 6340,528;  223,770;52188,864;11,77090
 704,57; 6250,872;  222,170;51968,341;11,65053
 705,14; 6235,072;  238,970;52528,019;11,46722
 705,71; 6242,272;  238,970;52596,096;11,46607
 706,28; 6129,330;  219,770;52301,373;11,34673
 706,86; 6205,245;  235,370;52719,051;11,37473
 707,43; 6210,731;  258,170;52483,928;11,39775
 708,00; 6191,502;  238,970;52641,806;11,35918
 708,57; 6117,989;  204,170;52481,083;11,31249
 709,14; 6162,189;  241,770;52773,961;11,27008
 709,71; 6149,389;  210,770;52768,438;11,29924
 710,28; 6167,733;  213,970;53039,716;11,27057
 710,86; 6086,076;  222,570;53179,193;11,07228
 711,43; 6196,705;  231,170;53178,870;11,26684
 712,00; 6144,762;  219,770;53330,348;11,15595
 712,57; 6150,248;  233,170;53295,225;11,15124
 713,14; 6111,306;  208,370;53449,903;11,08709
 713,71; 6123,221;  228,371;53334,380;11,10016
 714,28; 6070,564;  208,371;53302,258;11,04118
 714,85; 6001,764;  200,171;53229,935;10,94026
 715,42; 6063,536;  204,171;53233,813;11,04923
 716,00; 6131,308;  274,371;53582,890;10,98687
 716,57; 6040,794;  210,171;53702,167;10,89999
 717,14; 6023,566;  188,971;53671,045;10,90944
 717,71; 6039,195;  183,971;53611,322;10,95923
 718,28; 6065,110;  216,971;53832,000;10,90765
 718,85; 6071,310;  186,571;53962,077;10,94316
 719,42; 6063,939;  223,771;53933,555;10,87356
 719,99; 6013,425;  191,771;53690,232;10,88191
 720,56; 6060,340;  211,371;54167,910;10,84015
 721,13; 5992,683;  210,571;54121,387;10,72533
 721,70; 6030,312;  202,171;54006,865;10,83203
 722,27; 6024,798;  217,171;54134,942;10,77127
 722,84; 6078,713;  252,771;54232,419;10,79285
 723,41; 6014,342;  188,571;54242,497;10,77770
 723,98; 6052,971;  198,571;54586,774;10,76410
 724,55; 6036,171;  230,371;54513,652;10,69537
 725,12; 6000,800;  168,372;54409,729;10,75273
 725,69; 6076,429;  190,572;54631,407;10,81148
 726,27; 6044,915;  208,772;54839,084;10,68298
 726,84; 6101,401;  204,172;55140,362;10,73469
 727,41; 6130,173;  217,172;54813,639;10,83037
 727,98; 6136,945;  222,372;55353,716;10,72815
 728,55; 6158,002;  250,572;55086,394;10,77294
 729,12; 6073,774;  200,972;55243,871;10,66950
 729,69; 6186,260;  219,772;55415,549;10,80968
 730,26; 6177,318;  217,372;55694,226;10,74312
 730,82; 6173,232;  209,772;55473,904;10,79083
 731,39; 6162,433;  220,972;55566,181;10,73528
 731,96; 6211,205;  181,972;55957,259;10,80986
 732,53; 6233,405;  212,972;56028,336;10,78634
 733,10; 6281,320;  208,972;56151,813;10,85456
 733,67; 6268,520;  200,972;56541,291;10,76946
 734,24; 6274,435;  206,972;55959,168;10,88291
 734,81; 6323,207;  234,372;56280,646;10,86394
 735,38; 6236,264;  216,372;56038,923;10,78398
 735,95; 6243,179;  206,573;55793,401;10,85978
 736,52; 6261,379;  239,973;56073,078;10,78465
 737,09; 6233,865;  218,973;55695,556;10,84222
 737,66; 6303,780;  269,173;55913,033;10,84506
 738,23; 6270,838;  195,373;56021,110;10,88291
 738,80; 6375,609;  237,773;56286,188;10,95095
 739,37; 6356,953;  237,573;56592,065;10,85873
 739,94; 6367,582;  213,573;56504,343;10,93254
 740,51; 6462,496;  286,973;56571,020;10,97207
 741,07; 6407,697;  199,373;56462,298;11,03448
 741,64; 6525,326;  251,573;56792,775;11,09590
 742,21; 6429,669;  215,973;56653,853;11,00980
 742,78; 6497,155;  194,973;56474,130;11,19807
 743,35; 6494,784;  214,173;56710,607;11,11683
 743,92; 6621,556;  247,373;56925,485;11,24629
 744,49; 6615,899;  237,973;56769,762;11,28202
 745,06; 6583,671;  200,573;56655,440;11,30655
 745,63; 6604,728;  189,373;56752,117;11,34202
 746,19; 6627,214;  204,773;56975,195;11,31301
 746,76; 6600,701;  210,973;56909,872;11,26958
 747,33; 6692,472;  217,174;56688,150;11,46660
 747,90; 6734,387;  227,974;57094,427;11,44157
 748,47; 6686,587;  228,174;56888,104;11,39856
 749,04; 6730,645;  228,574;56982,582;11,45659
 749,61; 6706,703;  209,974;56797,859;11,48078
 750,17; 6787,189;  212,374;56931,137;11,59196
 750,74; 6793,246;  228,374;56910,214;11,58197
 751,31; 6745,589;  194,174;56734,292;11,58720
 751,88; 6750,790;  193,774;56596,569;11,62534
 752,45; 6826,990;  213,974;56822,247;11,68207
 753,02; 6751,191;  209,374;56688,524;11,58271
 753,58; 6812,820;  193,974;56519,402;11,75108
 754,15; 6777,877;  223,774;56777,479;11,58917
 754,72; 6874,220;  193,574;56506,156;11,86351
 755,29; 6767,421;  183,774;56333,834;11,72509
 755,86; 6860,335;  222,374;56512,111;11,79249
 756,42; 6965,107;  221,574;56376,989;12,00870
 756,99; 6849,451;  191,974;56591,266;11,80418
 757,56; 6999,079;  209,774;56331,544;12,09745
 758,13; 6900,851;  176,174;56219,621;11,99904
 758,70; 7006,195;  204,975;56289,899;12,12665
 759,26; 6979,109;  198,175;56434,776;12,05787
 759,83; 7018,738;  207,175;56603,453;12,07804
 760,40; 7103,653;  204,575;56281,331;12,30292
 760,97; 7013,282;  203,775;56472,208;12,10182
 761,53; 7052,482;  192,375;56080,686;12,27467
 762,10; 7098,683;  174,575;56038,363;12,39463
 762,67; 7110,169;  221,575;56070,641;12,33430
 763,24; 7051,941;  164,375;55565,118;12,43226
 763,80; 7162,570;  199,575;55610,596;12,56608
 764,37; 7119,056;  181,175;55604,673;12,51794
 764,94; 7068,685;  178,175;55208,350;12,52133
 765,50; 7110,885;  168,575;55191,628;12,61709
 766,07; 7171,085;  210,375;55220,505;12,65351
 766,64; 7139,429;  191,575;54901,983;12,69933
 767,21; 7114,486;  189,975;54870,260;12,66363
 767,77; 7199,258;  206,375;54707,338;12,83075
 768,34; 7201,744;  210,775;54664,215;12,83843
 768,91; 7163,087;  190,175;54295,093;12,88776
 769,47; 7240,859;  192,376;54498,370;12,97920
 770,04; 7230,488;  209,976;54468,247;12,93906
 770,61; 7239,831;  187,176;54240,525;13,04758
 771,18; 7200,032;  188,776;54080,402;13,00992
 771,74; 7260,232;  210,576;54206,080;13,05601
 772,31; 7286,718;  211,576;54057,757;13,13954
 772,88; 7222,919;  178,176;53704,835;13,16119
 773,44; 7275,405;  191,776;53520,312;13,28300
 774,01; 7280,748;  189,776;53690,790;13,25390
 774,58; 7302,948;  171,776;53432,467;13,38918
 775,14; 7329,435;  184,376;53531,344;13,39356
 775,71; 7338,921;  191,776;53402,422;13,43179
 776,27; 7471,978;  233,976;53302,099;13,63908
 776,84; 7489,607;  246,976;53488,977;13,60323
 777,41; 7476,950;  207,976;53298,054;13,69178
 777,97; 7458,579;  183,976;52923,332;13,79350
 778,54; 7449,780;  206,176;53016,409;13,71629
 779,11; 7488,552;  215,176;53045,287;13,76748
 779,67; 7587,181;  192,776;52911,764;14,02607
 780,24; 7560,952;  214,176;52651,841;14,01049
 780,80; 7658,296;  222,577;52697,919;14,16993
 781,37; 7616,067;  205,977;52485,196;14,17407
 781,94; 7609,411;  194,577;52362,074;14,21351
 782,50; 7704,611;  214,977;52273,751;14,38688
 783,07; 7682,097;  247,977;52383,429;14,25924
 783,63; 7657,440;  190,177;52079,106;14,39086
 784,20; 7720,927;  232,777;52057,584;14,44897
 784,77; 7636,984;  208,577;51928,461;14,36277
 785,33; 7679,613;  187,177;51681,938;14,54990
 785,90; 7699,099;  208,577;51654,016;14,56013
 786,46; 7694,585;  222,377;51544,293;14,55949
 787,03; 7719,214;  205,377;51364,371;14,68723
 787,59; 7702,129;  209,177;51383,648;14,64197
 788,16; 7742,901;  217,777;51273,726;14,73897
 788,73; 7728,387;  223,577;50943,603;14,79654
 789,29; 7751,587;  206,777;50617,081;14,96680
 789,86; 7762,073;  211,977;50367,758;15,05329
 790,42; 7745,274;  215,377;50497,636;14,97525
 790,99; 7721,188;  224,977;50039,713;15,04818
 791,55; 7771,532;  205,378;50188,990;15,13727
 792,12; 7833,732;  231,378;50020,068;15,26924
 792,68; 7734,932;  215,378;49785,745;15,16946
 793,25; 7821,561;  217,578;49649,623;15,38270
 793,81; 7775,905;  253,778;49135,900;15,38830
 794,38; 7716,391;  193,378;49037,778;15,40200
 794,94; 7827,448;  206,978;48908,855;15,64718
 795,51; 7831,791;  218,978;48653,933;15,71760
 796,07; 7728,420;  222,978;48389,010;15,58244
 796,64; 7823,621;  246,778;48626,887;15,66107
 797,20; 7728,250;  225,178;48034,365;15,69379
 797,77; 7718,164;  201,978;47678,042;15,83153
 798,33; 7709,079;  205,178;47540,320;15,85271
 798,90; 7829,422;  246,378;47325,597;16,10699
 799,46; 7771,194;  218,778;46887,675;16,18298
 800,03; 7714,109;  210,378;46838,352;16,09277
 800,59; 7782,309;  237,178;46681,230;16,24563
 801,15; 7726,081;  239,978;46431,307;16,20673
 801,72; 7719,567;  199,378;46248,184;16,33091
 802,28; 7727,053;  240,778;45773,462;16,44154
 802,85; 7731,397;  219,979;45820,939;16,47206
 803,41; 7666,454;  207,179;45618,217;16,42613
 803,98; 7634,083;  212,779;45104,294;16,53164
 804,54; 7642,283;  228,979;44858,572;16,61074
 805,11; 7649,341;  234,979;44625,249;16,70267
 805,67; 7696,827;  240,379;44560,527;16,82406
 806,23; 7658,170;  225,379;44110,804;16,93681
 806,80; 7623,514;  243,379;44193,281;16,79215
 807,36; 7648,571;  261,579;44025,959;16,87901
 807,93; 7654,629;  239,779;43749,036;17,04200
 808,49; 7581,686;  227,379;43464,914;17,00908
 809,05; 7573,315;  210,779;43106,391;17,16384
 809,62; 7642,801;  235,179;43062,269;17,29658
 810,18; 7657,859;  228,779;43010,346;17,36514
 810,74; 7643,059;  197,379;42687,824;17,52319
 811,31; 7638,545;  216,579;42482,301;17,56025
 811,87; 7645,603;  224,179;42432,978;17,58265
 812,44; 7719,375;  258,979;42405,656;17,70103
 813,00; 7603,575;  191,779;42067,533;17,69949
 813,56; 7694,204;  243,779;42111,011;17,79536
 814,13; 7705,976;  227,980;42001,088;17,90146
 814,69; 7644,748;  229,380;41872,566;17,80692
 815,25; 7587,662;  197,380;41443,443;17,91755
 815,82; 7629,006;  234,380;41434,921;17,94789
 816,38; 7725,777;  256,580;41108,398;18,28364
 816,94; 7622,835;  230,780;40893,875;18,17878
 817,51; 7579,464;  199,980;40628,753;18,25305
 818,07; 7527,379;  213,380;40369,030;18,21412
 818,63; 7515,722;  234,580;40002,908;18,30890
 819,20; 7537,779;  236,180;40120,585;18,30690
 819,76; 7484,837;  228,580;39577,863;18,44063
 820,32; 7570,180;  245,380;39498,140;18,66060
 820,89; 7531,381;  250,180;39362,218;18,61626
 821,45; 7460,581;  210,580;39112,895;18,63643
 822,01; 7534,639;  235,980;38901,573;18,87636
 822,57; 7468,410;  232,780;38683,250;18,81805
 823,14; 7411,468;  218,780;38618,327;18,73118
 823,70; 7449,240;  216,780;38358,405;18,96212
 824,26; 7400,726;  231,180;38082,482;18,94134
 824,82; 7479,640;  225,781;37968,360;19,21930
 825,39; 7382,984;  213,381;37732,437;19,10923
 825,95; 7470,327;  237,781;37849,115;19,22970
 826,51; 7420,956;  231,581;37278,792;19,40598
 827,08; 7505,013;  271,781;37273,070;19,54860
 827,64; 7515,642;  239,381;37244,347;19,66293
 828,20; 7413,557;  216,581;36980,024;19,57645
 828,76; 7407,615;  240,981;36879,502;19,56038
 829,32; 7392,101;  245,581;36649,979;19,63092
 829,89; 7360,015;  202,181;36605,657;19,66250
 830,45; 7436,644;  208,181;36540,734;19,89528
 831,01; 7424,273;  230,381;36315,412;19,93595
 831,57; 7409,474;  233,181;36207,689;19,94827
 832,14; 7416,960;  217,381;36185,367;20,01663
 832,70; 7482,017;  208,181;35880,844;20,39051
 833,26; 7475,503;  188,981;35790,321;20,46699
 833,82; 7428,847;  222,181;35743,999;20,28800
 834,38; 7504,476;  205,981;35722,676;20,54947
 834,95; 7497,962;  211,581;35525,354;20,63325
 835,51; 7469,876;  186,381;35588,031;20,57389
 836,07; 7545,363;  222,182;35633,309;20,68045
 836,63; 7560,277;  240,182;35589,986;20,70760
 837,19; 7589,906;  231,582;35327,064;20,96659
 837,75; 7486,678;  191,982;35086,541;20,90497
 838,32; 7599,450;  236,782;35301,018;20,99766
 838,88; 7562,650;  240,382;35185,096;20,95387
 839,44; 7671,708;  203,782;34997,573;21,46339
 840,00; 7632,480;  211,782;35115,651;21,26039
 840,56; 7547,823;  215,182;34777,128;21,21594
 841,12; 7565,309;  210,582;34765,406;21,28423
 841,68; 7501,509;  193,182;34493,283;21,30701
 842,25; 7522,995;  212,582;34672,761;21,21409
 842,81; 7520,767;  203,782;34322,238;21,44583
 843,37; 7563,111;  186,982;34411,115;21,55242
 843,93; 7568,168;  219,182;34236,393;21,60373
 844,49; 7658,226;  223,782;34377,670;21,76749
 845,05; 7601,426;  191,582;34056,748;21,88043
 845,61; 7653,198;  241,182;34182,225;21,83791
 846,17; 7677,970;  207,782;34017,703;22,09466
 846,73; 7710,027;  222,383;34085,180;22,11171
 847,29; 7661,228;  202,783;33852,658;22,16485
 847,86; 7677,571;  196,783;33641,935;22,36733
 848,42; 7654,343;  190,383;33540,812;22,38040
 848,98; 7652,400;  214,383;33519,890;22,33270
 849,54; 7728,458;  204,183;33526,567;22,58024
 850,10; 7712,944;  228,383;33345,045;22,60059
 850,66; 7684,859;  184,783;33153,522;22,74905
 851,22; 7728,773;  182,983;33056,000;22,95436
 851,78; 7757,688;  239,983;33111,277;22,87012
 852,34; 7767,745;  200,783;32939,555;23,11315
 852,90; 7707,660;  212,183;32850,032;22,96560
 853,46; 7696,718;  197,383;32641,709;23,11447
 854,02; 7712,489;  213,983;32643,387;23,12255
 854,58; 7719,547;  203,183;32336,464;23,39121
 855,14; 7700,462;  186,583;32268,742;23,42074
 855,70; 7729,519;  169,983;32086,819;23,68510
 856,26; 7766,005;  216,383;31989,697;23,76089
 856,82; 7741,491;  205,783;31857,374;23,80831
 857,38; 7767,835;  224,383;31752,252;23,92630
 857,94; 7677,464;  204,184;31631,129;23,77985
 858,50; 7740,235;  220,984;31515,207;24,02760
 859,06; 7711,436;  224,584;31482,284;23,95203
 859,62; 7708,065;  213,384;31318,161;24,09495
 860,18; 7729,694;  208,784;31074,239;24,36676
 860,74; 7754,466;  168,984;30912,316;24,67358
 861,30; 7616,523;  173,784;30831,794;24,27665
 861,86; 7757,724;  221,584;30929,071;24,54170
 862,42; 7703,210;  205,384;30590,949;24,67562
 862,98; 7784,553;  225,784;30679,826;24,82025
 863,54; 7635,325;  213,784;30401,504;24,58464
 864,10; 7683,239;  199,384;30453,381;24,73675
 864,66; 7667,154;  204,984;30147,458;24,92169
 865,22; 7642,069;  204,984;30039,336;24,92792
 865,78; 7629,126;  211,984;30028,813;24,87569
 866,34; 7677,184;  201,784;29892,091;25,17791
 866,90; 7593,241;  221,984;29758,968;24,95602
 867,45; 7618,870;  222,184;29624,646;25,15669
 868,01; 7578,214;  222,584;29528,523;25,09945
 868,57; 7584,271;  194,184;29270,201;25,41643
 869,13; 7523,471;  189,785;29094,678;25,37178
 869,69; 7497,672;  202,185;29107,755;25,23904
 870,25; 7446,872;  189,185;29104,833;25,09952
 870,81; 7557,930;  215,785;28973,910;25,53068
 871,37; 7514,844;  209,585;28797,588;25,55359
 871,93; 7501,902;  224,185;28614,065;25,63490
 872,49; 7509,960;  221,585;28385,943;25,87801
 873,04; 7403,017;  200,185;28223,620;25,70289
 873,60; 7425,646;  190,585;28096,698;25,92644
 874,16; 7421,275;  210,585;28100,175;25,85441
 874,72; 7409,989;  199,385;28028,775;25,91003
 875,28; 7482,132;  209,785;27963,375;26,20327
 875,84; 7411,132;  186,785;27807,375;26,15566
 876,40; 7482,418;  206,985;27740,175;26,42423
 876,95; 7440,989;  221,385;27739,775;26,23556
 877,51; 7490,275;  255,785;27750,375;26,31241
 878,07; 7541,989;  239,585;27763,975;26,53067
 878,63; 7575,561;  218,585;27739,975;26,73185
 879,19; 7555,561;  223,985;27668,175;26,71449
 879,75; 7566,704;  217,185;27709,175;26,73331
 880,30; 7646,846;  205,385;27794,575;26,97238
 880,86; 7671,704;  255,185;27824,575;26,90128
 881,42; 7718,418;  190,185;27869,775;27,19778
 881,98; 7775,275;  224,585;28080,175;27,10655
 882,54; 7748,418;  217,985;28017,575;27,08829
 883,09; 7834,275;  226,985;28170,175;27,22413
 883,65; 7930,418;  215,585;28300,375;27,46979
 884,21; 8061,989;  239,585;28441,775;27,73687
 884,77; 8015,561;  217,985;28552,975;27,51925
 885,32; 8109,132;  211,185;28662,975;27,75905
 885,88; 8234,132;  240,985;28801,975;27,98624
 886,44; 8284,561;  212,785;28912,775;28,12466
 887,00; 8302,846;  229,785;28898,775;28,15956
 887,56; 8371,561;  221,785;29149,775;28,17263
 888,11; 8359,561;  217,985;29168,175;28,12270
 888,67; 8524,418;  240,185;29323,575;28,48441
 889,23; 8513,989;  227,385;29229,775;28,57214
 889,79; 8466,846;  208,785;29260,375;28,42551
 890,34; 8499,275;  208,785;29149,575;28,64638
 890,90; 8595,132;  250,985;29173,175;28,85033
 891,46; 8607,561;  217,585;29233,975;28,91461
 892,01; 8576,132;  240,585;29083,775;28,89953
 892,57; 8587,846;  245,785;29088,775;28,92232
 893,13; 8554,418;  226,185;28995,775;28,94804
 893,69; 8667,132;  207,585;28903,575;29,47989
 894,24; 8654,704;  218,185;28830,175;29,48596
 894,80; 8638,132;  225,785;28553,575;29,69645
 895,36; 8580,704;  207,385;28458,575;29,63882
 895,91; 8552,846;  213,985;28280,375;29,71120
 896,47; 8629,561;  230,185;28094,775;30,14355
 897,03; 8558,132;  210,385;27903,775;30,14346
 897,58; 8554,418;  217,785;27717,175;30,31570
 898,14; 8549,561;  233,985;27673,575;30,30503
 898,70; 8548,989;  197,385;27601,175;30,47609
 899,25; 8545,704;  209,185;27406,375;30,65213
 899,81; 8500,561;  238,185;27203,575;30,64067
 900,37; 8408,704;  190,985;27044,375;30,60216
 900,92; 8500,132;  220,185;26966,575;30,95725
 901,48; 8461,561;  204,185;26834,575;31,00734
 902,03; 8437,561;  199,385;26749,975;31,02822
 902,59; 8459,418;  219,585;26734,975;31,07566
 903,15; 8317,704;  242,585;26494,775;30,75979
 903,70; 8303,846;  228,985;26272,975;31,00470
 904,26; 8328,275;  195,185;26118,375;31,37380
 904,82; 8312,704;  217,385;26110,975;31,26379
 905,37; 8291,132;  215,585;26019,975;31,29525
 905,93; 8266,989;  211,185;25899,975;31,35922
 906,48; 8307,704;  230,185;25755,975;31,64454
 907,04; 8305,132;  248,585;25767,175;31,57129
 907,60; 8213,275;  205,985;25499,175;31,65789
 908,15; 8240,132;  208,785;25448,375;31,82043
 908,71; 8264,275;  251,385;25480,975;31,75989
 909,26; 8213,132;  211,185;25169,375;32,06141
 909,82; 8183,275;  237,185;25158,575;31,88462
 910,37; 8259,704;  250,785;24900,975;32,49029
 910,93; 8147,704;  206,785;24712,775;32,40399
 911,48; 8107,275;  209,585;24621,375;32,35195
 912,04; 8095,846;  203,585;24537,375;32,43334
 912,60; 8112,846;  240,185;24691,775;32,19693
 913,15; 8084,704;  233,585;24388,775;32,50282
 913,71; 8047,275;  208,985;24185,975;32,69088
 914,26; 8059,132;  207,785;24091,775;32,87285
 914,82; 8021,275;  223,985;24053,375;32,72132
 915,37; 7986,704;  209,785;23898,375;32,82981
 915,93; 8013,132;  278,185;23892,775;32,75495
 916,48; 7932,275;  215,785;23672,775;32,89633
 917,04; 7962,989;  232,185;23553,975;33,14842
 917,59; 7954,989;  251,985;23506,375;33,12495
 918,15; 7873,275;  172,985;23242,175;33,37911
 918,70; 7863,275;  194,585;23323,175;33,15676
 919,26; 7854,275;  225,985;23132,575;33,30173
 919,81; 7855,418;  191,385;23044,175;33,53653
 920,37; 7865,846;  209,585;22783,375;33,91660
 920,92; 7863,704;  215,385;22795,975;33,87121
 921,48; 7862,418;  200,185;22586,375;34,22750
 922,03; 7812,561;  214,985;22528,375;34,04940
 922,59; 7807,418;  224,785;22401,375;34,19206
 923,14; 7767,704;  210,185;22325,175;34,17374
 923,69; 7759,704;  224,585;22390,575;33,99405
 924,25; 7833,275;  234,585;22114,975;34,72831
 924,80; 7727,132;  219,585;21933,575;34,57470
 925,36; 7714,275;  216,585;21980,375;34,45030
 925,91; 7693,418;  213,985;21765,175;34,70543
 926,47; 7655,418;  192,985;21704,975;34,68964
 927,02; 7759,132;  246,185;21669,975;35,06824
 927,57; 7631,989;  217,385;21431,775;34,95082
 928,13; 7651,989;  215,385;21399,175;35,10516
 928,68; 7641,846;  214,385;21298,775;35,22730
 929,24; 7569,989;  194,985;21056,975;35,35139
 929,79; 7595,275;  195,185;20994,175;35,57908
 930,34; 7527,561;  220,985;20909,175;35,31762
 930,90; 7591,704;  200,585;20822,575;35,84096
 931,45; 7633,561;  208,985;20760,775;36,12618
 932,01; 7533,561;  226,985;20826,175;35,47021
 932,56; 7539,989;  236,785;20657,975;35,76287
 933,11; 7569,704;  224,785;20495,575;36,23400
 933,67; 7504,989;  218,985;20367,175;36,16208
 934,22; 7478,418;  224,385;20302,375;36,12928
 934,77; 7485,989;  223,585;20152,375;36,44177
 935,33; 7411,561;  228,985;20031,775;36,27052
 935,88; 7384,275;  228,585;20037,175;36,12418
 936,43; 7411,561;  224,785;19867,775;36,58697
 936,99; 7379,704;  203,985;19779,775;36,65609
 937,54; 7364,561;  199,385;19705,575;36,73283
 938,09; 7305,846;  214,385;19494,375;36,78146
 938,65; 7328,846;  212,785;19343,175;37,19768
 939,20; 7320,561;  194,585;19422,175;37,06120
 939,75; 7296,846;  197,185;19246,375;37,27015
 940,31; 7228,846;  193,785;19051,175;37,30665
 940,86; 7310,989;  203,585;19200,975;37,41253
 941,41; 7299,704;  264,985;19011,775;37,52492
 941,96; 7235,846;  207,185;18855,975;37,68964
 942,52; 7195,132;  216,385;18838,175;37,47624
 943,07; 7218,561;  193,785;18730,975;37,89558
 943,62; 7158,275;  201,585;18591,975;37,82785
 944,18; 7147,132;  190,585;18531,975;37,92813
 944,73; 7148,561;  216,785;18403,975;38,11351
 945,28; 7002,989;  181,185;18284,575;37,68247
 945,83; 7069,418;  223,385;18173,575;38,13906
 946,39; 7140,704;  203,785;18154,575;38,64409
 946,94; 7106,561;  234,985;18027,775;38,62000
 947,49; 7042,846;  214,585;17934,375;38,53466
 948,04; 7097,561;  227,185;17990,975;38,67629
 948,59; 7076,704;  229,785;17823,975;38,91579
 949,15; 7041,275;  196,785;17696,575;39,11184
 949,70; 7003,132;  213,385;17583,375;39,08895
 950,25; 7044,275;  231,785;17544,775;39,34901
 950,80; 6983,989;  187,385;17522,775;39,20653
 951,36; 6950,561;  180,985;17437,175;39,22984
 951,91; 7019,275;  211,785;17414,175;39,57293
 952,46; 6921,989;  181,585;17155,375;39,71066
 953,01; 6984,418;  215,185;17166,975;39,93226
 953,56; 6901,989;  186,385;17089,975;39,72886
 954,11; 6908,989;  231,985;17015,775;39,78246
 954,67; 6835,275;  204,985;16958,175;39,57628
 955,22; 6803,132;  188,985;16687,775;40,08868
 955,77; 6808,704;  234,585;16719,375;39,87990
 956,32; 6847,989;  251,185;16646,375;40,23622
 956,87; 6733,132;  206,385;16472,775;40,12413
 957,42; 6764,989;  206,985;16494,775;40,26332
 957,98; 6731,132;  201,785;16257,375;40,66713
 958,53; 6722,704;  224,385;16301,175;40,42050
 959,08; 6693,846;  190,785;16218,575;40,57366
 959,63; 6654,275;  190,585;16122,175;40,57153
 960,18; 6662,561;  217,185;16053,375;40,70029
 960,73; 6644,418;  208,985;15932,375;40,92904
 961,28; 6591,846;  200,785;15844,375;40,85419
 961,83; 6636,132;  216,385;15855,775;41,04858
 962,39; 6512,418;  200,185;15688,175;40,75566
 962,94; 6502,704;  215,585;15571,575;40,94245
 963,49; 6483,704;  209,785;15532,375;40,94555
 964,04; 6490,989;  214,985;15423,175;41,26727
 964,59; 6421,132;  203,585;15309,575;41,15948
 965,14; 6421,275;  214,785;15274,375;41,21287
 965,69; 6368,418;  195,585;15175,975;41,20609
 966,24; 6320,132;  189,785;15058,575;41,22963
 966,79; 6311,132;  215,585;14974,175;41,30169
 967,34; 6257,704;  191,185;14867,575;41,33522
 967,89; 6332,846;  211,985;14773,375;42,03487
 968,44; 6214,418;  219,585;14791,175;41,14055
 968,99; 6239,989;  226,785;14619,175;41,78044
 969,55; 6211,989;  220,985;14511,975;41,92155
 970,10; 6213,704;  214,385;14446,775;42,15257
 970,65; 6173,561;  227,385;14262,975;42,36499
 971,20; 6195,132;  199,185;14271,175;42,60909
 971,75; 6051,704;  188,185;14090,175;42,17755
 972,30; 6122,132;  217,785;14004,775;42,82550
 972,85; 6073,989;  203,585;14013,975;42,50716
 973,40; 6016,704;  203,185;13823,575;42,68247
 973,95; 6046,132;  220,985;13810,175;42,86604
 974,50; 6015,418;  241,385;13734,375;42,79283
 975,05; 6027,132;  215,785;13633,775;43,31012
 975,60; 6048,704;  241,185;13571,975;43,56470
 976,15; 6009,989;  211,385;13443,575;43,82195
 976,70; 5948,132;  222,185;13370,975;43,54733
 977,25; 5976,418;  211,985;13416,975;43,65344
 977,80; 5875,418;  195,985;13126,975;43,92110
 978,35; 5871,275;  211,985;13055,175;44,06452
 978,89; 5822,704;  199,385;12930,375;44,17032
 979,44; 5887,275;  217,785;12903,375;44,69236
 979,99; 5740,132;  201,985;12765,375;44,08163
 980,54; 5745,846;  228,185;12675,975;44,32643
 981,09; 5719,989;  222,585;12618,175;44,34968
 981,64; 5687,989;  221,585;12389,575;44,92446
 982,19; 5693,561;  242,985;12345,775;45,03570
 982,74; 5586,418;  231,185;12263,975;44,50533
 983,29; 5564,561;  192,785;12115,775;45,05393
 983,84; 5533,418;  227,985;12057,575;44,84883
 984,39; 5579,989;  249,385;11963,175;45,50708
 984,94; 5471,704;  200,585;11862,975;45,19758
 985,49; 5471,846;  232,385;11793,175;45,32096
 986,03; 5429,132;  233,785;11663,975;45,45285
 986,58; 5380,275;  268,785;11628,175;44,99793
 987,13; 5353,846;  207,985;11411,575;45,93047
 987,68; 5321,989;  235,985;11312,375;45,91753
 988,23; 5277,132;  226,985;11250,175;45,81384
 988,78; 5199,561;  223,785;11109,775;45,70807
 989,33; 5241,132;  220,985;10968,775;46,70865
 989,88; 5179,418;  251,985;10965,975;45,99064
 990,42; 5067,989;  223,185;10787,175;45,86150
 990,97; 5009,704;  223,185;10681,175;45,76901
 991,52; 5000,704;  235,185;10688,575;45,58826
 992,07; 4988,846;  244,585;10498,775;46,26656
 992,62; 4898,275;  228,185;10449,775;45,68849
 993,17; 4869,846;  230,185;10255,775;46,27819
 993,71; 4871,275;  236,585;10236,375;46,34787
 994,26; 4784,846;  218,185;10051,175;46,44225
 994,81; 4746,704;  239,985;10001,575;46,16787
 995,36; 4717,132;  208,985; 9878,775;46,62094
 995,91; 4669,846;  227,185; 9840,775;46,21230
 996,45; 4632,132;  223,185; 9708,175;46,48341
 997,00; 4545,132;  208,785; 9556,175;46,39099
 997,55; 4552,418;  226,185; 9570,575;46,29765
 998,10; 4582,275;  235,785; 9334,575;47,76998
 998,65; 4455,989;  207,185; 9332,975;46,55821
 999,19; 4411,704;  234,585; 9289,775;46,12955
 999,74; 4391,418;  237,185; 9119,375;46,77037
1000,29; 4333,418;  247,185; 9050,575;46,41658
1000,84; 4250,561;  226,385; 8927,975;46,24644
1001,38; 4259,704;  225,985; 8722,975;47,47232
1001,93; 4249,132;  227,185; 8819,575;46,80825
1002,48; 4191,846;  213,185; 8628,775;47,27727
1003,03; 4150,275;  222,785; 8504,975;47,42091
1003,57; 4175,846;  232,985; 8453,975;47,96091
1004,12; 4101,989;  233,185; 8326,175;47,80439
1004,67; 4048,275;  223,985; 8297,175;47,37025
1005,22; 3999,132;  214,785; 8139,375;47,75448
1005,76; 3964,704;  212,585; 7986,175;48,26751
1006,31; 3965,418;  234,985; 7930,775;48,47368
1006,86; 3853,132;  221,985; 7767,575;48,12277
1007,40; 3833,846;  198,185; 7624,975;48,95334
1007,95; 3788,418;  230,385; 7621,375;48,14014
1008,50; 3732,561;  234,185; 7447,975;48,49567
1009,04; 3643,989;  218,385; 7419,175;47,57262
1009,59; 3606,275;  221,585; 7293,975;47,85780
1010,14; 3573,846;  215,585; 7124,575;48,60713
1010,68; 3489,989;  223,785; 7028,975;47,99578
1011,23; 3503,561;  189,385; 6898,975;49,39461
1011,78; 3466,846;  238,385; 6909,775;48,39264
1012,32; 3429,132;  221,385; 6682,575;49,64638
1012,87; 3438,561;  239,585; 6755,175;49,09725
1013,42; 3338,561;  212,185; 6570,975;49,16620
1013,96; 3403,704;  242,985; 6621,575;49,55199
1014,51; 3317,275;  182,185; 6500,175;49,62164
1015,06; 3309,132;  191,385; 6547,775;49,04902
1015,60; 3364,418;  264,385; 6593,375;48,98148
1016,15; 3355,275;  213,785; 6555,575;49,53633
1016,69; 3404,275;  226,585; 6498,375;50,66640
1017,24; 3334,132;  203,185; 6530,775;49,48088
1017,79; 3432,704;  249,985; 6580,175;50,27841
1018,33; 3408,561;  211,185; 6584,175;50,17073
1018,88; 3433,989;  248,185; 6615,975;50,02998
1019,42; 3436,275;  230,585; 6633,375;50,06708
1019,97; 3448,418;  199,585; 6670,375;50,20767
1020,51; 3491,132;  232,385; 6724,975;50,19179
1021,06; 3457,275;  201,185; 6703,975;50,07220
1021,61; 3459,846;  183,385; 6564,775;51,34401
1022,15; 3436,418;  170,385; 6554,375;51,15974
1022,70; 3472,275;  221,985; 6591,975;51,02504
1023,24; 3450,132;  185,985; 6595,975;50,92281
1023,79; 3402,989;  206,185; 6495,775;50,82691
1024,33; 3394,561;  206,185; 6476,975;50,84488
1024,88; 3383,275;  211,185; 6419,975;51,09031
1025,42; 3346,561;  214,785; 6222,175;52,13205
1025,97; 3263,418;  211,785; 6173,175;51,18995
1026,51; 3242,704;  175,985; 6033,175;52,35819
1027,06; 3207,989;  206,185; 6053,375;51,33755
1027,60; 3130,132;  205,585; 5935,175;51,04287
1028,15; 3128,846;  230,585; 5842,775;51,64225
1028,69; 3051,704;  196,985; 5694,375;51,92862
1029,24; 3019,704;  211,385; 5638,775;51,74345
1029,78; 3007,704;  208,385; 5525,175;52,65054
1030,33; 2932,275;  185,985; 5398,775;52,68369
1030,87; 2915,846;  212,385; 5365,775;52,45986
1031,42; 2852,704;  194,385; 5274,975;52,32303
1031,96; 2862,132;  216,985; 5209,175;52,98571
1032,51; 2794,275;  198,785; 5159,575;52,32009
1033,05; 2783,561;  216,785; 5094,375;52,62385
1033,60; 2713,132;  166,785; 4986,175;52,83547
1034,14; 2693,846;  200,185; 4900,775;53,04997
1034,69; 2687,561;  210,185; 4821,375;53,72530
1035,23; 2621,989;  205,985; 4730,975;53,39248
1035,77; 2619,418;  193,585; 4674,375;54,13851
1036,32; 2569,704;  169,185; 4629,175;53,82341
1036,86; 2566,846;  202,185; 4530,575;54,63143
1037,41; 2523,275;  219,585; 4518,575;53,58677
1037,95; 2475,704;  182,985; 4436,375;53,90332
1038,50; 2440,275;  194,985; 4351,775;54,01500
1039,04; 2442,846;  216,385; 4251,375;55,17886
1039,58; 2367,846;  195,985; 4206,575;54,15317
1040,13; 2363,561;  193,185; 4211,375;54,01377
1040,67; 2369,989;  232,985; 4143,575;54,64660
1041,21; 2353,846;  234,385; 4054,975;55,47472
1041,76; 2281,132;  189,585; 3998,975;54,90504
1042,30; 2248,561;  207,185; 3960,575;54,38752
1042,85; 2227,275;  205,185; 3900,775;54,71630
1043,39; 2176,704;  196,585; 3840,775;54,33632
1043,93; 2204,704;  213,185; 3768,575;56,01407
1044,48; 2170,418;  221,785; 3745,575;55,29935
1045,02; 2138,275;  194,985; 3677,575;55,80014
1045,56; 2106,704;  226,785; 3593,175;55,84375
1046,11; 2068,132;  209,985; 3566,175;55,36478
1046,65; 2040,846;  219,985; 3509,575;55,35223
1047,19; 2009,704;  187,785; 3480,975;55,32382
1047,74; 1977,275;  191,985; 3379,375;56,01103
1048,28; 1967,846;  214,785; 3427,975;54,55829
1048,82; 1971,418;  220,785; 3358,975;55,78479
1049,37; 1916,989;  215,385; 3284,775;55,43787
1049,91; 1895,418;  197,185; 3303,375;54,67254
1050,45; 1878,846;  224,985; 3245,375;54,75655
1050,99; 1871,846;  202,985; 3149,375;56,64089
1051,54; 1812,704;  207,185; 3100,375;55,49302
1052,08; 1821,275;  228,785; 3086,975;55,71673
1052,62; 1787,132;  223,985; 3023,975;55,82688
1053,16; 1775,132;  206,585; 2934,575;57,49827
1053,71; 1782,132;  218,585; 2966,975;56,88957
1054,25; 1702,561;  217,185; 2879,175;55,79945
1054,79; 1734,275;  222,585; 2843,975;57,66750
1055,33; 1668,418;  199,185; 2783,975;56,84148
1055,88; 1672,704;  232,185; 2776,975;56,60658
1056,42; 1690,275;  227,185; 2762,175;57,71581
1056,96; 1662,418;  234,585; 2692,975;58,08000
1057,50; 1619,132;  224,185; 2648,775;57,53332
1058,05; 1601,704;  222,785; 2621,975;57,47434
1058,59; 1591,132;  233,985; 2547,775;58,65472
1059,13; 1547,275;  201,585; 2473,175;59,24000
1059,67; 1533,132;  228,185; 2524,575;56,82602
1060,21; 1522,989;  215,385; 2451,775;58,46942
1060,76; 1519,132;  235,185; 2440,975;58,20804
1061,30; 1519,132;  244,385; 2377,175;59,76899
1061,84; 1465,846;  210,185; 2358,375;58,45207
1062,38; 1431,418;  199,585; 2303,775;58,54190
1062,92; 1449,704;  260,985; 2322,375;57,66587
1063,46; 1393,561;  242,585; 2245,575;57,46288
1064,01; 1369,846;  204,785; 2226,575;57,62524
1064,55; 1362,989;  229,585; 2221,575;56,89809
1065,09; 1337,561;  198,385; 2126,375;59,08618
1065,63; 1364,561;  230,785; 2131,775;59,64133
1066,17; 1363,132;  245,785; 2102,975;60,16332
1066,71; 1330,275;  231,785; 2098,775;58,83749
1067,25; 1278,846;  237,185; 2061,175;57,10894
1067,80; 1304,418;  238,385; 2045,975;58,97537
1068,34; 1308,846;  250,385; 2047,175;58,90847
1068,88; 1248,846;  217,585; 1981,175;58,47512
1069,42; 1283,275;  258,185; 1998,375;58,90679
1069,96; 1233,132;  225,385; 1939,175;58,80225
1070,50; 1239,275;  251,585; 1942,975;58,39517
1071,04; 1195,846;  203,185; 1908,175;58,22095
1071,58; 1180,846;  218,385; 1881,175;57,88232
1072,12; 1195,275;  218,785; 1812,975;61,25305
1072,66; 1168,418;  232,985; 1827,175;58,67763
1073,21; 1177,418;  235,985; 1839,175;58,72248
1073,75; 1158,275;  235,385; 1805,975;58,76072
1074,29; 1123,704;  240,585; 1778,575;57,42031
1074,83; 1134,561;  249,585; 1748,175;59,05389
1075,37; 1127,704;  243,785; 1726,975;59,59577
1075,91; 1103,561;  232,185; 1720,975;58,52912
1076,45; 1109,846;  228,385; 1687,775;60,39931
1076,99; 1087,989;  254,785; 1650,975;59,67700
1077,53; 1060,418;  222,185; 1646,575;58,84855
1078,07; 1057,561;  241,185; 1615,975;59,38185
1078,61; 1064,704;  218,785; 1609,375;60,83163
1079,15; 1011,418;  222,985; 1585,575;57,86281
1079,69; 1035,846;  223,985; 1549,175;61,26378
1080,23; 1045,704;  244,385; 1572,175;60,34980
1080,77; 1073,132;  246,985; 1569,375;62,47379
1081,31;  995,989;  203,985; 1501,375;61,04597
1081,85;  995,989;  245,185; 1514,175;59,16550
1082,39;  986,418;  215,385; 1467,975;61,55509
1082,93;  977,418;  210,785; 1449,975;61,86564
1083,47;  937,418;  214,785; 1425,775;59,67290
1084,01;  942,275;  250,185; 1426,975;58,81168
1084,55;  929,989;  212,385; 1393,175;60,77324
1085,09;  957,989;  242,585; 1387,375;62,49219
1085,63;  928,704;  223,185; 1392,375;60,34251
1086,17;  899,846;  220,585; 1358,775;59,67909
1086,71;  917,704;  236,585; 1333,575;62,08977
1087,24;  936,846;  248,585; 1347,175;62,64953
1087,78;  918,418;  222,985; 1311,775;63,87208
1088,32;  872,989;  213,785; 1278,575;61,90932
1088,86;  887,704;  242,385; 1315,375;60,14209
1089,40;  882,561;  219,785; 1272,175;62,97815
1089,94;  843,132;  196,585; 1241,175;61,89482
1090,48;  868,132;  226,985; 1241,775;63,18028
1091,02;  882,132;  233,785; 1239,175;64,48713
1091,56;  842,561;  234,985; 1212,175;62,17580
1092,10;  817,846;  217,785; 1190,975;61,65923
1092,63;  855,132;  248,985; 1209,575;63,10155
1093,17;  808,418;  230,985; 1195,975;59,83822
1093,71;  803,704;  227,385; 1151,775;62,34582
1094,25;  800,989;  249,785; 1176,375;59,48740
1094,79;  768,561;  247,785; 1129,175;59,08573
1095,33;  783,132;  232,585; 1100,975;63,39860
1095,87;  783,561;  230,985; 1142,375;60,63000
1096,40;  741,132;  206,985; 1087,375;60,67165
1096,94;  763,704;  238,785; 1072,575;62,95573
1097,48;  766,989;  235,185; 1090,775;62,15644
1098,02;  749,275;  210,785; 1066,575;62,92315
1098,56;  722,561;  196,985;  999,175;65,51761
1099,10;  717,275;  211,585;  999,375;64,19096
1099,63;  708,275;  209,785; 1018,775;61,61881
1100,17;  733,846;  244,185; 1028,775;62,40985
1100,71;  729,704;  239,985; 1012,375;63,40302

