
Integration time [ms]: 130,000
Averaging Nr. [scans]: 7
Smoothing Nr. [pixels]: 0
Data measured with spectrometer [name]: 2009305U1
Wave   ;Sample   ;Dark     ;Reference;Reflectance
[nm]   ;[counts] ;[counts] ;[counts] ;[%]

 175,72;  212,843;  192,986;  201,498;233,29306
 176,32;  231,697;  222,384;  221,717; 0,00000
 176,92;  262,896;  241,385;  235,854; 0,00000
 177,52;  269,952;  259,786;  258,523; 0,00000
 178,12;  236,992;  246,984;  204,441; 0,00000
 178,72;  260,184;  250,783;  241,274; 0,00000
 179,32;  260,541;  247,384;  249,069;780,70899
 179,92;  268,078;  231,385;  239,762;438,00580
 180,52;  255,363;  244,988;  241,098; 0,00000
 181,12;  265,355;  248,385;  229,716; 0,00000
 181,73;  278,701;  272,585;  262,308; 0,00000
 182,33;  366,959;  306,387;  321,281;406,68746
 182,93;  278,040;  256,186;  256,932; 0,00000
 183,53;  258,731;  246,183;  223,624; 0,00000
 184,13;  254,285;  236,383;  230,131; 0,00000
 184,73;  299,947;  249,982;  256,507;765,80311
 185,33;  287,936;  234,768;  346,100;47,75639
 185,93;  284,083;  232,166;  351,877;43,36855
 186,53;  305,464;  241,967;  348,122;59,81479
 187,13;  330,538;  257,569;  394,908;53,13071
 187,73;  291,770;  220,566;  335,660;61,86619
 188,33;  295,763;  254,365;  362,824;38,16899
 188,93;  297,951;  244,562;  398,475;34,68796
 189,53;  295,774;  258,559;  392,476;27,78915
 190,13;  348,873;  283,155;  430,284;44,66656
 190,73;  290,037;  220,558;  363,114;48,73819
 191,34;  322,912;  253,561;  378,621;55,45412
 191,94;  292,202;  240,364;  345,758;49,18467
 192,54;  309,381;  245,370;  399,729;41,46903
 193,14;  308,390;  248,969;  381,307;44,90133
 193,74;  310,850;  249,968;  364,047;53,36815
 194,34;  307,797;  227,969;  353,891;63,39473
 194,94;  274,621;  218,569;  355,716;40,86984
 195,54;  237,217;  215,168;  334,977;18,40394
 196,14;  272,176;  221,569;  355,380;37,81967
 196,74;  279,811;  216,167;  336,993;52,67375
 197,34;  257,489;  188,971;  344,465;44,06440
 197,94;  279,336;  220,769;  365,195;40,55156
 198,54;  285,020;  238,769;  365,333;36,54311
 199,14;  261,670;  213,971;  370,842;30,40649
 199,74;  252,297;  202,971;  374,033;28,83507
 200,34;  251,113;  199,372;  356,968;32,83187
 200,94;  289,018;  232,170;  410,644;31,85186
 201,54;  287,158;  216,571;  406,478;37,16918
 202,14;  316,788;  231,172;  444,781;40,08049
 202,74;  296,573;  223,371;  453,508;31,80801
 203,34;  262,219;  184,573;  446,416;29,65354
 203,94;  247,922;  173,772;  465,735;25,39693
 204,54;  332,000;  229,569;  530,605;34,02606
 205,14;  289,513;  190,571;  533,994;28,81058
 205,74;  333,394;  239,373;  624,034;24,44244
 206,34;  303,861;  210,772;  632,343;22,08152
 206,94;  333,418;  212,972;  703,417;24,55857
 207,54;  299,138;  188,772;  726,418;20,52754
 208,14;  325,226;  196,172;  794,506;21,56883
 208,74;  344,790;  217,771;  891,670;18,84831
 209,34;  356,293;  210,171;  960,509;19,47405
 209,94;  372,739;  204,571; 1037,280;20,19530
 210,54;  384,254;  213,973; 1112,879;18,94320
 211,14;  404,771;  204,571; 1236,499;19,40060
 211,73;  423,494;  197,971; 1326,867;19,97729
 212,33;  437,962;  206,770; 1438,453;18,77040
 212,93;  454,536;  203,171; 1522,488;19,05265
 213,53;  437,845;  174,371; 1562,260;18,98378
 214,13;  482,801;  205,174; 1652,697;19,17949
 214,73;  447,073;  195,372; 1657,381;17,21612
 215,33;  433,597;  168,771; 1707,080;17,21534
 215,93;  477,398;  206,573; 1816,158;16,82578
 216,53;  446,554;  162,571; 1892,659;16,41438
 217,13;  530,867;  227,173; 2126,822;15,98688
 217,73;  506,366;  196,373; 2281,539;14,86658
 218,33;  490,447;  148,574; 2495,337;14,56786
 218,93;  584,439;  192,576; 2756,037;15,28648
 219,53;  598,502;  185,774; 3043,728;14,44140
 220,13;  608,140;  168,574; 3315,721;13,96710
 220,73;  671,707;  196,771; 3663,262;13,70077
 221,32;  738,504;  176,771; 4002,670;14,68237
 221,92;  796,817;  167,774; 4489,701;14,55468
 222,52;  858,661;  177,173; 4825,264;14,66168
 223,12;  935,399;  176,973; 5207,436;15,07666
 223,72; 1004,597;  185,573; 5646,427;14,99809
 224,32; 1064,934;  194,973; 5979,694;15,03894
 224,92; 1126,335;  176,373; 6339,999;15,41238
 225,52; 1234,902;  191,372; 6688,408;16,06164
 226,12; 1292,798;  188,373; 6945,384;16,34488
 226,72; 1362,876;  156,572; 7238,269;17,03410
 227,31; 1426,277;  154,172; 7537,973;17,22831
 227,91; 1525,325;  179,172; 7960,806;17,29911
 228,51; 1627,295;  181,371; 8348,198;17,70484
 229,11; 1728,866;  177,972; 8762,344;18,06648
 229,71; 1825,167;  176,971; 9024,802;18,62825
 230,31; 1951,115;  169,774; 9523,192;19,04481
 230,91; 2058,823;  158,770; 9767,098;19,77506
 231,51; 2221,481;  158,573;10040,244;20,87611
 232,10; 2347,475;  173,574;10533,432;20,98389
 232,70; 2497,083;  168,769;10665,091;22,18219
 233,30; 2659,517;  186,173;11029,985;22,80881
 233,90; 2793,061;  172,773;11194,690;23,77344
 234,50; 2906,610;  170,773;11401,596;24,36008
 235,10; 3030,763;  166,173;11490,599;25,29568
 235,70; 3160,542;  186,972;11624,368;25,99867
 236,29; 3265,808;  179,571;11659,240;26,88437
 236,89; 3357,888;  160,370;11714,814;27,67349
 237,49; 3481,213;  180,372;11688,736;28,68210
 238,09; 3577,718;  182,372;11480,943;30,05111
 238,69; 3685,517;  195,970;11405,171;31,13110
 239,29; 3660,299;  172,372;11141,789;31,79683
 239,89; 3718,344;  182,770;10898,509;32,99422
 240,48; 3702,119;  159,372;10599,047;33,93542
 241,08; 3688,962;  180,972;10337,522;34,53919
 241,68; 3717,843;  189,772;10061,372;35,73961
 242,28; 3662,222;  164,373; 9819,061;36,22954
 242,88; 3595,857;  198,374; 9482,888;36,59301
 243,48; 3596,014;  203,372; 9250,746;37,49864
 244,07; 3537,012;  177,372; 9107,911;37,61968
 244,67; 3516,908;  195,772; 9009,487;37,68145
 245,27; 3441,351;  195,971; 8880,267;37,37067
 245,87; 3426,865;  209,373; 8777,534;37,55172
 246,47; 3421,379;  188,171; 8790,362;37,58586
 247,06; 3390,713;  173,372; 8816,141;37,22582
 247,66; 3373,055;  172,972; 8941,810;36,49381
 248,26; 3461,785;  208,171; 9026,468;36,89616
 248,86; 3401,775;  197,971; 9181,944;35,66133
 249,46; 3365,997;  165,373; 9444,253;34,49365
 250,05; 3504,580;  195,972; 9783,266;34,51034
 250,65; 3498,360;  149,571;10138,313;33,52563
 251,25; 3545,436;  171,372;10609,388;32,32477
 251,85; 3614,160;  159,770;11118,766;31,52104
 252,44; 3692,191;  132,971;11710,174;30,74334
 253,04; 3820,565;  197,371;12463,062;29,53925
 253,64; 3825,069;  163,171;13112,912;28,27777
 254,24; 3980,239;  193,572;13970,475;27,48562
 254,84; 4044,426;  183,973;14890,853;26,24930
 255,43; 4123,887;  191,571;15757,603;25,26216
 256,03; 4197,521;  183,971;16591,684;24,46136
 256,63; 4272,146;  198,570;17660,118;23,32883
 257,23; 4299,985;  169,170;18345,547;22,72628
 257,82; 4316,070;  190,769;19251,922;21,64245
 258,42; 4299,221;  152,769;19951,490;20,94303
 259,02; 4318,352;  194,171;20729,623;20,08322
 259,62; 4289,377;  163,369;21428,059;19,40309
 260,21; 4206,776;  194,771;21896,222;18,48726
 260,81; 4123,116;  172,972;22326,403;17,83084
 261,41; 4016,249;  167,369;22570,864;17,17982
 262,01; 3989,523;  206,768;23108,504;16,51733
 262,60; 3847,128;  168,170;23373,147;15,85417
 263,20; 3747,139;  156,371;23500,628;15,38180
 263,80; 3598,739;  205,368;23599,066;14,50549
 264,40; 3507,800;  160,968;23819,858;14,14619
 264,99; 3415,573;  182,368;23843,294;13,66474
 265,59; 3288,376;  167,567;24059,513;13,06218
 266,19; 3254,509;  146,568;24172,257;12,93591
 266,78; 3181,585;  210,768;24316,185;12,32427
 267,38; 3135,506;  183,967;24330,944;12,22322
 267,98; 3073,125;  157,568;24150,966;12,15150
 268,58; 3024,192;  184,567;24217,448;11,81558
 269,17; 2981,425;  164,966;24285,346;11,67668
 269,77; 2940,246;  198,370;24085,497;11,47847
 270,37; 2853,647;  147,368;23944,855;11,37212
 270,96; 2908,342;  207,769;23900,074;11,39852
 271,56; 2874,832;  182,770;23601,023;11,49557
 272,16; 2822,097;  177,569;23375,339;11,39992
 272,75; 2829,650;  187,969;23411,568;11,37498
 273,35; 2892,093;  190,969;23294,694;11,69129
 273,95; 2832,420;  185,769;23354,159;11,42354
 274,54; 2907,654;  158,572;23331,028;11,86357
 275,14; 3012,333;  192,569;23707,828;11,99121
 275,74; 3021,281;  153,369;23879,482;12,08758
 276,33; 3151,633;  203,970;24142,154;12,31365
 276,93; 3279,355;  188,772;24583,858;12,66887
 277,53; 3401,006;  192,571;25175,231;12,84265
 278,12; 3510,363;  166,570;25657,758;13,11745
 278,72; 3739,683;  205,171;26178,411;13,60828
 279,32; 3850,503;  164,571;26753,991;13,86240
 279,91; 4060,231;  171,371;27521,361;14,21887
 280,51; 4268,675;  184,971;28009,765;14,67649
 281,11; 4432,060;  196,371;28752,665;14,83277
 281,70; 4638,410;  168,771;29039,102;15,48177
 282,30; 4860,975;  164,370;29898,623;15,79527
 282,90; 5078,934;  162,570;30314,080;16,30553
 283,49; 5328,291;  190,569;30828,085;16,76938
 284,09; 5584,986;  203,370;31190,426;17,36730
 284,69; 5741,549;  185,371;31498,658;17,74384
 285,28; 6065,787;  210,370;31942,235;18,45280
 285,88; 6375,769;  227,969;32156,996;19,25458
 286,47; 6516,307;  177,970;32188,289;19,80092
 287,07; 6766,162;  194,771;32347,001;20,43837
 287,67; 7067,443;  195,172;32354,546;21,36942
 288,26; 7358,650;  184,971;32405,315;22,26444
 288,86; 7637,456;  186,570;32495,769;23,06119
 289,46; 7956,056;  186,371;32680,542;23,91101
 290,05; 8434,809;  179,172;32626,997;25,44281
 290,65; 8832,514;  185,370;32941,526;26,39853
 291,24; 9173,213;  194,771;32878,468;27,47071
 291,84; 9705,717;  202,970;33219,118;28,78212
 292,44;10083,093;  169,373;33300,709;29,92249
 293,03;10533,199;  246,171;33547,421;30,89082
 293,63;10996,477;  186,770;33615,584;32,33650
 294,22;11408,502;  208,371;33698,513;33,44307
 294,82;11778,040;  182,368;33743,792;34,55059
 295,41;11992,124;  156,771;33498,702;35,49690
 296,01;12390,691;  227,569;33383,433;36,68468
 296,61;12530,858;  194,371;33207,630;37,36828
 297,20;12627,014;  196,769;32826,653;38,09466
 297,80;12884,640;  204,972;32694,780;39,02660
 298,39;13025,303;  175,570;32287,366;40,01561
 298,99;13195,655;  191,569;32103,970;40,74932
 299,58;13332,281;  202,372;31960,897;41,34294
 300,18;13524,363;  209,372;31811,026;42,13384
 300,78;13518,914;  171,771;31484,299;42,62557
 301,37;13629,112;  207,968;31547,997;42,82429
 301,97;13870,885;  187,571;31411,847;43,82268
 302,56;13963,726;  182,570;31378,165;44,17661
 303,16;14060,868;  154,770;31499,886;44,36448
 303,75;14221,777;  174,571;31460,900;44,89886
 304,35;14463,758;  188,573;31471,397;45,63266
 304,94;14558,125;  194,771;31687,381;45,60865
 305,54;14621,361;  187,371;31750,070;45,73117
 306,13;14708,597;  151,573;31621,627;46,25675
 306,73;14638,909;  159,173;31458,566;46,26204
 307,33;14825,876;  198,772;31266,869;47,08078
 307,92;14865,656;  181,971;31330,916;47,14023
 308,52;15101,029;  169,770;31983,457;46,93344
 309,11;15409,068;  176,969;32351,365;47,34230
 309,71;15700,965;  152,968;32616,552;47,89366
 310,30;15888,531;  174,971;32954,887;47,93655
 310,90;16200,959;  185,971;33262,687;48,41771
 311,49;16110,950;  183,771;33381,562;47,97662
 312,09;16251,533;  151,372;33501,122;48,27671
 312,68;16572,845;  211,971;33895,860;48,57181
 313,28;16623,513;  158,371;34163,316;48,41985
 313,87;16778,991;  155,571;34084,705;48,99453
 314,47;16810,742;  180,169;34410,101;48,58488
 315,06;17008,439;  167,171;34623,354;48,87735
 315,66;17079,248;  175,372;34781,722;48,84617
 316,25;16869,163;  155,370;34635,211;48,47410
 316,85;16985,174;  151,972;34745,960;48,65933
 317,44;17031,635;  158,569;34808,042;48,69646
 318,04;16947,819;  154,570;34964,575;48,24259
 318,63;16932,066;  152,173;34926,013;48,25436
 319,22;17003,016;  179,570;35223,088;48,00730
 319,82;16940,561;  169,770;35286,149;47,75775
 320,41;16792,855;  180,770;35143,517;47,51367
 321,01;16737,183;  184,572;35123,206;47,37624
 321,60;16794,373;  168,770;35341,283;47,26874
 322,20;16643,181;  157,971;35299,850;46,91044
 322,79;16669,453;  208,771;35313,402;46,89034
 323,39;16500,965;  169,373;35372,034;46,39306
 323,98;16446,075;  144,771;35282,670;46,39237
 324,58;16371,186;  178,970;35129,905;46,32842
 325,17;16094,274;  196,170;35027,392;45,64326
 325,76;16034,766;  188,171;34881,219;45,67657
 326,36;15737,998;  149,972;34539,463;45,32788
 326,95;15574,212;  188,371;34192,512;45,24696
 327,55;15259,907;  153,970;33899,863;44,76378
 328,14;15027,248;  170,972;33373,200;44,74482
 328,74;14824,956;  209,170;33084,174;44,45866
 329,33;14487,772;  182,972;32760,777;43,90965
 329,92;14125,737;  158,569;31966,499;43,91096
 330,52;13794,958;  188,172;31457,277;43,51511
 331,11;13522,529;  179,770;31131,730;43,10796
 331,71;13121,088;  183,571;30498,361;42,67724
 332,30;12748,268;  180,371;29967,981;42,19169
 332,89;12526,048;  211,371;29360,253;42,24751
 333,49;12190,654;  177,171;28810,559;41,95621
 334,08;11935,750;  185,570;28460,415;41,55701
 334,68;11631,363;  184,370;28111,558;40,98871
 335,27;11407,576;  194,572;27666,421;40,81634
 335,86;11171,244;  225,970;27437,330;40,22318
 336,46;10984,245;  194,772;27302,755;39,80183
 337,05;10799,644;  170,170;27101,835;39,46831
 337,65;10618,948;  161,970;26927,606;39,06867
 338,24;10493,748;  230,171;26958,727;38,39930
 338,83;10356,974;  214,371;26752,013;38,21968
 339,43;10204,403;  166,370;26752,745;37,75631
 340,02;10071,467;  181,970;26565,382;37,48377
 340,61;10025,139;  175,971;26737,307;37,08085
 341,21; 9913,813;  207,170;26763,374;36,55132
 341,80; 9805,294;  187,370;26798,720;36,14219
 342,40; 9745,327;  194,772;26864,163;35,81092
 342,99; 9655,048;  180,971;26944,253;35,39953
 343,58; 9730,058;  176,772;27133,577;35,43924
 344,18; 9559,238;  180,572;27216,597;34,68952
 344,77; 9593,568;  173,570;27606,039;34,33887
 345,36; 9551,640;  160,371;27912,912;33,83931
 345,96; 9595,514;  210,972;28078,872;33,67510
 346,55; 9554,776;  176,173;28447,768;33,17324
 347,14; 9580,369;  160,972;28783,106;32,90948
 347,74; 9569,849;  139,974;29189,920;32,46090
 348,33; 9709,558;  191,974;29817,918;32,12584
 348,92; 9812,689;  183,775;30549,105;31,71022
 349,52; 9864,965;  156,174;30955,103;31,52314
 350,11; 9785,531;  162,170;31210,819;30,99446
 350,70; 9738,669;  172,171;31120,364;30,91133
 351,29; 9497,843;  152,368;30924,689;30,36975
 351,89; 9368,340;  179,969;30993,518;29,81926
 352,48; 9290,771;  148,171;30885,421;29,74436
 353,07; 9196,231;  183,172;30877,907;29,36353
 353,67; 9053,740;  190,175;30820,573;28,93715
 354,26; 8796,240;  178,172;30601,753;28,32693
 354,85; 8755,787;  177,172;30468,703;28,32018
 355,45; 8596,086;  147,370;30439,404;27,89088
 356,04; 8402,697;  173,573;30375,327;27,24717
 356,63; 8297,594;  206,771;30066,646;27,09597
 357,22; 8053,320;  184,368;29905,512;26,47594
 357,82; 7926,957;  187,968;29668,706;26,25100
 358,41; 7803,655;  199,771;29572,438;25,88762
 359,00; 7590,417;  163,770;29435,592;25,37132
 359,60; 7531,877;  185,571;29456,479;25,09764
 360,19; 7383,075;  182,373;29120,338;24,88324
 360,78; 7270,921;  182,770;29146,310;24,47267
 361,37; 7090,976;  189,170;28916,701;24,02506
 361,97; 6966,631;  182,971;28635,265;23,84223
 362,56; 6771,319;  167,969;28360,780;23,42210
 363,15; 6706,939;  215,170;28158,481;23,23192
 363,74; 6497,097;  172,569;27752,539;22,93160
 364,34; 6333,776;  182,370;27352,554;22,64028
 364,93; 6124,111;  175,169;26963,065;22,20758
 365,52; 5947,386;  145,370;26728,130;21,82624
 366,11; 5861,288;  181,770;26167,240;21,85651
 366,71; 5678,445;  159,970;26022,688;21,33757
 367,30; 5590,898;  174,170;25559,416;21,33809
 367,89; 5452,146;  206,172;25401,865;20,82092
 368,48; 5353,493;  166,169;25075,721;20,82464
 369,07; 5167,098;  183,571;24633,164;20,38286
 369,67; 5061,885;  191,769;24284,979;20,21365
 370,26; 4865,494;  168,771;24087,545;19,63614
 370,85; 4805,373;  186,170;23838,483;19,52960
 371,44; 4729,548;  177,571;23618,579;19,41886
 372,03; 4603,647;  168,370;23337,002;19,14346
 372,63; 4486,852;  147,771;23093,550;18,91015
 373,22; 4420,517;  167,171;22783,439;18,80658
 373,81; 4257,502;  147,170;22461,635;18,42003
 374,40; 4209,119;  169,372;22139,047;18,38783
 374,99; 4114,441;  165,970;21953,443;18,12267
 375,59; 4005,654;  156,172;21667,828;17,89486
 376,18; 3998,280;  191,770;21468,872;17,89017
 376,77; 3969,857;  203,371;21364,952;17,79870
 377,36; 3898,045;  199,370;21278,940;17,54625
 377,95; 3793,555;  176,570;20936,669;17,42278
 378,55; 3757,611;  175,772;20880,606;17,29953
 379,14; 3659,460;  198,770;20761,892;16,82959
 379,73; 3695,523;  184,170;20648,651;17,15828
 380,32; 3642,217;  202,171;20712,913;16,77192
 380,91; 3618,217;  151,769;20583,445;16,96605
 381,50; 3602,803;  179,570;20550,771;16,80428
 382,10; 3576,360;  162,771;20394,913;16,87211
 382,69; 3512,847;  160,970;20364,549;16,59051
 383,28; 3523,481;  192,770;20401,829;16,48128
 383,87; 3466,168;  157,570;20188,334;16,51758
 384,46; 3477,796;  162,369;20195,735;16,54953
 385,05; 3528,361;  202,570;20207,523;16,62484
 385,64; 3475,574;  171,770;20158,440;16,53004
 386,24; 3477,970;  156,168;20099,553;16,65616
 386,83; 3481,564;  192,168;20144,447;16,48632
 387,42; 3512,542;  200,570;20295,621;16,48153
 388,01; 3583,128;  177,767;20546,811;16,71832
 388,60; 3606,202;  179,569;20726,841;16,67683
 389,19; 3622,466;  159,766;21010,611;16,60700
 389,78; 3691,536;  180,366;21128,927;16,76091
 390,37; 3830,955;  208,568;21641,549;16,90100
 390,96; 3828,445;  186,168;21815,620;16,83943
 391,56; 3856,331;  182,966;21914,379;16,90348
 392,15; 3954,495;  157,167;22239,463;17,19626
 392,74; 3997,104;  149,764;22406,546;17,28615
 393,33; 4047,325;  154,165;22663,977;17,29539
 393,92; 4207,820;  188,363;23131,835;17,51896
 394,51; 4189,943;  163,965;23327,444;17,38071
 395,10; 4289,278;  194,760;23569,872;17,51657
 395,69; 4368,915;  182,161;23573,066;17,89907
 396,28; 4423,441;  182,959;23658,331;18,06353
 396,87; 4459,545;  201,757;23993,409;17,89614
 397,46; 4512,637;  181,955;24041,473;18,15075
 398,06; 4622,806;  204,753;24189,344;18,42038
 398,65; 4640,148;  197,949;24189,052;18,51603
 399,24; 4738,777;  180,348;24500,131;18,74371
 399,83; 4789,263;  163,741;24445,460;19,04940
 400,42; 4825,255;  206,135;24512,385;19,00384
 401,01; 4916,736;  170,928;24724,112;19,32869
 401,60; 4994,284;  181,918;24816,096;19,53532
 402,19; 5035,220;  194,110;24662,362;19,78527
 402,78; 5082,177;  219,099;24613,473;19,93524
 403,37; 5061,374;  196,288;24505,274;20,01353
 403,96; 5100,009;  187,674;24293,776;20,37797
 404,55; 5163,077;  192,660;24133,732;20,76105
 405,14; 5162,476;  184,247;24038,022;20,86977
 405,73; 5167,117;  197,631;23981,267;20,89456
 406,32; 5256,165;  191,621;24101,578;21,18174
 406,91; 5197,521;  187,609;23737,316;21,27378
 407,50; 5264,771;  185,002;23539,545;21,75066
 408,09; 5258,288;  152,198;23115,950;22,23543
 408,68; 5269,099;  182,995;23193,869;22,10305
 409,27; 5278,714;  154,999;22857,262;22,56918
 409,86; 5321,235;  157,808;22774,037;22,83063
 410,45; 5433,170;  211,416;22694,697;23,22505
 411,04; 5430,839;  212,624;22573,806;23,33604
 411,63; 5393,672;  196,235;22229,067;23,58951
 412,22; 5434,368;  191,644;22057,939;23,97628
 412,81; 5475,217;  201,048;21784,907;24,43571
 413,40; 5372,345;  210,252;21438,664;24,31690
 413,99; 5422,954;  258,651;21227,216;24,62878
 414,58; 5327,610;  187,452;20694,737;25,06504
 415,17; 5339,415;  175,248;20501,298;25,40664
 415,76; 5348,100;  180,244;20395,432;25,56422
 416,35; 5320,092;  174,846;20161,732;25,74311
 416,94; 5389,259;  222,045;20313,714;25,71819
 417,53; 5524,872;  177,648;20493,672;26,32023
 418,12; 5628,815;  174,049;20614,393;26,68627
 418,71; 5778,681;  197,252;20941,732;26,90561
 419,30; 5836,355;  181,049;21012,852;27,14746
 419,89; 5925,417;  185,050;21163,001;27,36381
 420,48; 6163,036;  199,052;21489,970;28,01187
 421,07; 6211,343;  204,653;21596,176;28,07977
 421,66; 6222,943;  164,255;21538,096;28,34628
 422,25; 6325,143;  185,259;21534,257;28,75959
 422,84; 6336,246;  208,860;21487,749;28,79561
 423,43; 6371,085;  195,258;21191,232;29,41434
 424,02; 6381,534;  218,859;20971,837;29,69538
 424,60; 6237,994;  191,663;20564,538;29,67834
 425,19; 6247,868;  209,061;20305,406;30,04928
 425,78; 6304,398;  205,261;20207,342;30,49251
 426,37; 6323,703;  206,063;20111,059;30,73419
 426,96; 6368,044;  205,863;19945,049;31,21801
 427,55; 6351,517;  188,865;19762,574;31,48433
 428,14; 6308,304;  183,867;19519,125;31,67497
 428,73; 6323,081;  208,464;19341,737;31,95803
 429,32; 6380,158;  205,063;19425,276;32,12813
 429,91; 6455,132;  228,464;19418,805;32,44688
 430,50; 6447,223;  205,466;19183,005;32,89024
 431,08; 6494,573;  226,467;18999,311;33,38922
 431,67; 6498,655;  268,868;19016,987;33,22886
 432,26; 6474,183;  281,070;18905,633;33,25240
 432,85; 6446,030;  281,869;18476,831;33,87840
 433,44; 6323,072;  293,471;18078,520;33,90264
 434,03; 6313,941;  304,473;17738,947;34,46888
 434,62; 6128,137;  268,471;17308,235;34,38819
 435,21; 6138,505;  309,069;17213,975;34,48369
 435,79; 6100,556;  281,872;16934,179;34,94221
 436,38; 6102,899;  278,275;16896,072;35,05052
 436,97; 6127,554;  274,475;16729,837;35,56944
 437,56; 6131,583;  266,478;16623,825;35,85609
 438,15; 6153,456;  255,878;16496,161;36,31450
 438,74; 6158,581;  252,078;16499,268;36,35400
 439,33; 6207,561;  229,677;16456,341;36,83988
 439,91; 6293,013;  196,479;16520,581;37,34683
 440,50; 6368,548;  232,479;16621,240;37,44071
 441,09; 6433,051;  254,681;16749,826;37,45569
 441,68; 6417,822;  232,283;16730,041;37,49321
 442,27; 6411,622;  209,882;16687,816;37,63663
 442,86; 6488,464;  206,287;16651,772;38,20001
 443,44; 6519,222;  203,886;16753,004;38,16116
 444,03; 6713,174;  273,887;16791,849;38,98354
 444,62; 6630,874;  204,087;16619,601;39,15069
 445,21; 6617,472;  219,286;16471,340;39,36847
 445,80; 6592,939;  221,889;16363,863;39,46885
 446,39; 6579,574;  255,888;16196,422;39,67048
 446,97; 6475,241;  209,491;15841,813;40,08202
 447,56; 6464,256;  201,493;15706,886;40,39087
 448,15; 6416,886;  204,091;15505,975;40,60150
 448,74; 6385,145;  230,291;15290,758;40,86762
 449,33; 6316,960;  211,892;15142,083;40,89075
 449,91; 6244,658;  223,095;14894,015;41,04421
 450,50; 6182,339;  196,694;14714,040;41,23098
 451,09; 6193,068;  211,295;14708,166;41,26251
 451,68; 6251,292;  235,696;14536,163;42,06573
 452,26; 6132,626;  227,697;14402,943;41,65663
 452,85; 6131,643;  211,896;14299,357;42,02139
 453,44; 6196,975;  219,299;14312,838;42,41430
 454,03; 6176,679;  191,497;14305,367;42,40639
 454,61; 6159,607;  207,099;14368,230;42,03413
 455,20; 6327,112;  220,300;14521,704;42,70079
 455,79; 6363,319;  222,498;14447,995;43,16770
 456,38; 6502,928;  223,302;14552,908;43,82274
 456,97; 6523,111;  213,701;14622,094;43,78982
 457,55; 6518,631;  212,703;14558,695;43,95603
 458,14; 6546,889;  229,501;14553,453;44,10366
 458,73; 6523,263;  214,503;14483,287;44,21372
 459,31; 6660,969;  232,705;14529,387;44,96333
 459,90; 6676,763;  247,904;14600,360;44,79275
 460,49; 6825,121;  283,703;14696,165;45,38723
 461,08; 6820,022;  207,506;14867,089;45,10712
 461,66; 6847,688;  224,505;14888,910;45,16503
 462,25; 6921,509;  226,907;14940,115;45,50063
 462,84; 6972,083;  251,506;15011,281;45,53306
 463,43; 6951,248;  194,909;14974,511;45,71394
 464,01; 6987,402;  218,710;14995,271;45,80695
 464,60; 7040,112;  257,108;14803,201;46,63110
 465,19; 6926,275;  185,910;14720,475;46,37473
 465,77; 6946,181;  217,911;14554,854;46,92960
 466,36; 6902,833;  245,309;14525,559;46,62050
 466,95; 6756,935;  200,709;14226,494;46,74409
 467,53; 6718,581;  204,512;13914,149;47,51452
 468,12; 6623,038;  249,513;13740,122;47,24416
 468,71; 6553,792;  230,310;13415,162;47,96020
 469,29; 6382,025;  191,513;13187,353;47,63457
 469,88; 6281,926;  227,514;12883,731;47,83746
 470,47; 6400,396;  255,916;12949,820;48,40497
 471,06; 6348,120;  220,316;13005,744;47,92803
 471,64; 6431,317;  220,515;13189,379;47,89010
 472,23; 6480,728;  196,519;13015,701;49,02192
 472,81; 6559,382;  188,917;13223,040;48,87529
 473,40; 6601,553;  191,319;13326,682;48,80135
 473,99; 6766,867;  285,319;13423,177;49,33489
 474,57; 6804,258;  209,519;13701,757;48,87802
 475,16; 6938,964;  222,117;13824,843;49,37868
 475,75; 6970,349;  225,720;13942,558;49,17044
 476,33; 7051,280;  231,721;14015,988;49,47350
 476,92; 7119,766;  233,519;13987,799;50,06621
 477,51; 7179,854;  229,721;14118,754;50,04044
 478,09; 7156,909;  232,321;14143,545;49,77699
 478,68; 7212,210;  216,521;14012,349;50,70873
 479,27; 7188,345;  233,520;14178,435;49,87356
 479,85; 7160,643;  218,121;14165,872;49,77521
 480,44; 7248,295;  207,122;14306,392;49,93998
 481,02; 7953,064;  229,523;16077,972;48,73373
 481,61; 8975,933;  254,923;17850,264;49,56432
 482,20; 9637,704;  254,723;19118,411;49,74097
 482,78;10069,023;  260,922;19733,161;50,36966
 483,37;10350,940;  262,525;19948,568;51,24654
 483,95;10496,522;  295,325;20382,571;50,78445
 484,54;10663,444;  297,122;20576,671;51,11712
 485,13;10672,531;  258,327;20626,963;51,12863
 485,71;10600,516;  265,126;20428,959;51,25707
 486,30;10555,714;  288,926;20149,750;51,69367
 486,88;10435,793;  315,727;19817,991;51,89175
 487,47; 9985,016;  305,527;19173,432;51,30134
 488,05; 9638,539;  304,528;18210,999;52,12647
 488,64; 8944,211;  297,729;16839,124;52,27178
 489,23; 8087,134;  293,128;14766,050;53,85233
 489,81; 6931,527;  292,329;12721,186;53,41761
 490,40; 6468,427;  236,929;12197,408;52,10074
 490,98; 6327,396;  233,530;11871,146;52,36353
 491,57; 6312,153;  277,529;11845,499;52,16667
 492,15; 6244,213;  261,530;11813,481;51,78937
 492,74; 6285,032;  257,928;11767,515;52,36595
 493,32; 6217,488;  259,930;11624,078;52,42415
 493,91; 6207,334;  231,331;11482,743;53,11336
 494,50; 6160,867;  245,333;11400,981;53,02725
 495,08; 6161,816;  225,733;11356,514;53,33034
 495,67; 6192,560;  241,930;11337,151;53,63236
 496,25; 6104,246;  210,132;11263,524;53,32403
 496,84; 6037,094;  202,730;11298,531;52,58172
 497,42; 6059,464;  197,532;11106,042;53,73724
 498,01; 6066,892;  219,131;11139,496;53,54914
 498,59; 5998,667;  203,133;11065,034;53,35654
 499,18; 5989,584;  202,331;11012,202;53,53674
 499,76; 5989,744;  205,132;10907,562;54,04952
 500,35; 5849,307;  203,734;10683,262;53,87239
 500,93; 5856,454;  187,332;10677,317;54,04319
 501,52; 5826,312;  200,133;10557,596;54,32006
 502,10; 5859,342;  208,535;10546,594;54,66023
 502,69; 5780,870;  196,336;10400,362;54,72873
 503,27; 5654,020;  190,133;10262,506;54,24627
 503,86; 5655,274;  209,735;10065,112;55,25450
 504,44; 5558,604;  182,936;10030,290;54,58998
 505,03; 5426,618;  162,736; 9694,137;55,22674
 505,61; 5386,621;  192,536; 9702,182;54,61912
 506,19; 5316,350;  204,136; 9472,108;55,16001
 506,78; 5216,457;  172,338; 9340,713;55,01650
 507,36; 5123,539;  183,936; 9137,175;55,17113
 507,95; 5026,616;  181,139; 9036,995;54,71495
 508,53; 5016,803;  187,138; 8897,027;55,45036
 509,12; 4921,302;  199,738; 8754,622;55,19144
 509,70; 4815,852;  204,739; 8637,406;54,68155
 510,29; 4751,864;  205,340; 8415,965;55,37366
 510,87; 4666,061;  174,738; 8270,731;55,47587
 511,46; 4567,541;  177,338; 8086,477;55,50797
 512,04; 4492,221;  186,939; 7957,770;55,40311
 512,62; 4412,739;  196,138; 7778,868;55,60796
 513,21; 4325,159;  171,140; 7678,090;55,33564
 513,79; 4255,232;  197,143; 7549,188;55,19674
 514,38; 4158,395;  181,142; 7320,047;55,71237
 514,96; 4130,689;  209,742; 7281,093;55,44835
 515,54; 4017,101;  181,542; 7104,679;55,40204
 516,13; 3980,705;  186,942; 7021,976;55,50468
 516,71; 3918,861;  192,944; 6926,813;55,33100
 517,30; 3815,210;  181,145; 6826,840;54,68299
 517,88; 3784,085;  188,345; 6746,811;54,82593
 518,46; 3709,773;  170,545; 6594,672;55,09275
 519,05; 3666,361;  179,746; 6495,754;55,20282
 519,63; 3683,396;  191,345; 6542,018;54,98711
 520,22; 3628,309;  217,947; 6442,155;54,79191
 520,80; 3567,430;  187,147; 6364,261;54,72268
 521,38; 3592,324;  210,146; 6401,013;54,63174
 521,97; 3524,303;  200,348; 6282,943;54,64699
 522,55; 3518,833;  199,748; 6282,800;54,56282
 523,13; 3504,286;  179,949; 6301,529;54,30522
 523,72; 3479,363;  168,345; 6249,243;54,44949
 524,30; 3580,777;  211,950; 6385,078;54,57246
 524,89; 3597,709;  176,548; 6358,449;55,34156
 525,47; 3632,345;  200,750; 6540,633;54,12711
 526,05; 3656,535;  161,550; 6521,777;54,95062
 526,64; 3730,052;  201,551; 6660,943;54,62591
 527,22; 3784,419;  202,350; 6749,594;54,71109
 527,80; 3841,886;  216,751; 6871,971;54,47056
 528,39; 3870,224;  197,351; 6962,595;54,29033
 528,97; 3963,656;  197,551; 7113,440;54,45584
 529,55; 4060,743;  203,749; 7325,624;54,15700
 530,14; 4189,673;  207,752; 7528,922;54,38913
 530,72; 4204,712;  185,551; 7652,030;53,82940
 531,30; 4248,793;  177,752; 7705,828;54,07811
 531,89; 4377,051;  197,552; 7831,933;54,74575
 532,47; 4416,172;  228,752; 7901,317;54,57653
 533,05; 4414,402;  233,151; 8000,980;53,82780
 533,63; 4460,546;  227,153; 8024,404;54,29340
 534,22; 4445,873;  184,953; 8097,148;53,85258
 534,80; 4528,527;  208,154; 8130,623;54,53316
 535,38; 4612,669;  261,952; 8300,477;54,12333
 535,97; 4546,255;  217,952; 8189,603;54,29619
 536,55; 4607,375;  239,754; 8349,577;53,85594
 537,13; 4517,770;  259,552; 8289,256;53,03082
 537,71; 4557,078;  298,752; 8354,350;52,86170
 538,30; 4600,580;  324,553; 8330,979;53,40743
 538,88; 4639,558;  370,155; 8471,232;52,70167
 539,46; 4787,057;  409,954; 8696,680;52,82065
 540,05; 4808,750;  418,554; 8885,743;51,84951
 540,63; 4893,133;  489,755; 8987,277;51,81955
 541,21; 4978,895;  514,355; 9101,578;51,99050
 541,79; 5039,296;  550,155; 9207,482;51,85366
 542,38; 5133,915;  583,154; 9437,837;51,39384
 542,96; 5188,460;  595,756; 9546,966;51,30819
 543,54; 5254,074;  618,955; 9809,719;50,43236
 544,12; 5334,656;  575,756; 9945,922;50,78779
 544,70; 5381,626;  567,556; 9959,138;51,25942
 545,29; 5456,842;  575,354;10202,475;50,70558
 545,87; 5495,582;  539,155;10182,482;51,39747
 546,45; 5440,648;  494,954;10226,408;50,82174
 547,03; 5523,945;  481,555;10286,689;51,42602
 547,62; 5588,232;  445,155;10398,845;51,67005
 548,20; 5659,782;  442,556;10554,508;51,59465
 548,78; 5697,873;  423,559;10673,898;51,45502
 549,36; 5772,485;  378,158;10871,763;51,40585
 549,94; 5855,901;  338,556;10875,057;52,36411
 550,53; 5935,834;  337,358;11173,922;51,66283
 551,11; 6043,206;  320,159;11369,121;51,79715
 551,69; 6227,517;  321,158;11645,981;52,15409
 552,27; 6261,247;  263,357;11964,718;51,25805
 552,85; 6490,579;  262,159;12227,130;52,05545
 553,44; 6637,019;  260,958;12593,143;51,70261
 554,02; 6761,241;  280,559;12963,584;51,09729
 554,60; 6910,598;  217,759;13196,779;51,56660
 555,18; 7114,171;  271,558;13667,468;51,07987
 555,76; 7277,827;  251,559;13974,632;51,20040
 556,34; 7477,509;  240,560;14358,681;51,26000
 556,93; 7639,738;  228,358;14680,944;51,28065
 557,51; 7875,306;  209,960;14982,768;51,88821
 558,09; 7980,554;  232,158;15343,801;51,27434
 558,67; 8188,811;  236,761;15780,364;51,15963
 559,25; 8359,519;  255,961;15964,284;51,58767
 559,83; 8499,937;  221,562;16289,350;51,52156
 560,41; 8652,724;  221,760;16657,165;51,29758
 561,00; 8830,553;  218,961;17034,859;51,21101
 561,58; 8809,014;  214,160;17279,088;50,36561
 562,16; 9015,819;  211,959;17477,464;50,99104
 562,74; 9186,569;  185,759;17965,327;50,62446
 563,32; 9337,739;  200,362;18437,359;50,10352
 563,90; 9529,682;  224,961;18787,212;50,12711
 564,48; 9716,511;  225,160;19233,648;49,93217
 565,06; 9975,289;  212,161;19645,953;50,23790
 565,65;10209,521;  215,363;20566,587;49,10839
 566,23;10635,451;  265,961;21284,202;49,33567
 566,81;10912,749;  220,561;21811,894;49,52074
 567,39;11313,537;  241,762;22814,523;49,04927
 567,97;11521,524;  243,961;23468,486;48,55885
 568,55;12020,628;  233,162;24299,977;48,97809
 569,13;12297,677;  208,961;24989,088;48,78391
 569,71;12698,478;  226,159;25929,073;48,52492
 570,29;13154,669;  262,958;26884,706;48,42549
 570,87;13515,961;  260,159;27621,986;48,44633
 571,45;13772,985;  260,561;28308,382;48,17638
 572,03;13938,238;  207,762;28687,954;48,21062
 572,61;14190,844;  205,562;29493,539;47,75093
 573,20;14496,417;  253,960;30196,149;47,56652
 573,78;14827,324;  237,562;30789,806;47,75349
 574,36;14938,811;  247,561;31220,242;47,43293
 574,94;15135,796;  271,162;31592,384;47,45867
 575,52;15195,160;  227,364;31876,615;47,29273
 576,10;15428,877;  291,163;32314,782;47,27047
 576,68;15662,196;  281,962;32978,611;47,03918
 577,26;15853,927;  282,765;33716,239;46,57357
 577,84;16148,563;  314,361;34175,662;46,76194
 578,42;16280,046;  332,563;34450,721;46,74192
 579,00;16109,338;  282,962;34449,854;46,32079
 579,58;16168,151;  314,963;34647,623;46,17524
 580,16;16153,706;  304,563;34683,208;46,10171
 580,74;16111,614;  320,163;35084,276;45,42458
 581,32;16276,456;  300,363;35042,672;45,98455
 581,90;16121,923;  308,963;35056,770;45,50779
 582,48;16154,148;  323,563;35155,656;45,44827
 583,06;16178,962;  327,563;35249,557;45,39088
 583,64;16036,197;  322,562;35423,889;44,76650
 584,22;15930,074;  320,164;35040,284;44,95926
 584,80;15797,558;  344,963;34743,607;44,92211
 585,38;15630,812;  333,160;34402,452;44,90159
 585,96;15457,569;  315,962;34409,142;44,41242
 586,54;15409,773;  351,964;34509,758;44,08308
 587,12;15412,016;  306,564;34596,659;44,05194
 587,70;15426,763;  333,362;34763,209;43,83813
 588,28;15410,532;  320,363;34823,468;43,73568
 588,86;15412,902;  312,964;35000,232;43,53164
 589,44;15368,519;  299,765;35002,445;43,42245
 590,02;15359,841;  311,965;35292,308;43,01809
 590,59;15411,990;  283,364;35307,920;43,19434
 591,17;15413,280;  275,567;35479,458;43,00011
 591,75;15413,816;  279,566;35627,726;42,81482
 592,33;15398,368;  292,366;35740,399;42,61450
 592,91;15482,343;  243,367;36020,216;42,59452
 593,49;15571,447;  253,767;36438,908;42,33141
 594,07;15613,949;  263,167;36604,270;42,24083
 594,65;15528,580;  294,964;36588,969;41,97282
 595,23;15616,744;  266,765;37001,975;41,78547
 595,81;15677,095;  254,965;37266,968;41,66791
 596,39;15698,118;  252,565;37293,740;41,69833
 596,97;15521,316;  251,967;37509,721;40,98301
 597,55;15525,503;  256,365;37318,563;41,19869
 598,12;15433,227;  237,968;37345,902;40,94881
 598,70;15412,657;  234,367;37422,990;40,81434
 599,28;15473,128;  257,567;37742,333;40,59132
 599,86;15346,662;  238,367;37792,313;40,23091
 600,44;15353,926;  205,967;37837,897;40,25294
 601,02;15298,272;  252,969;37871,236;39,99467
 601,60;15179,171;  247,766;38017,964;39,53224
 602,18;15119,918;  211,768;37952,129;39,50187
 602,75;15088,758;  231,365;37897,901;39,44454
 603,33;15051,727;  238,167;37944,028;39,28715
 603,91;14983,280;  235,169;37847,926;39,21040
 604,49;14987,994;  240,167;37988,858;39,06845
 605,07;14849,618;  267,166;37989,735;38,65710
 605,65;14764,645;  275,568;38103,299;38,30279
 606,23;14748,257;  313,964;38417,871;37,88140
 606,80;14778,873;  387,765;38345,005;37,91400
 607,38;14643,735;  416,568;38379,543;37,47643
 607,96;14640,233;  473,965;38471,967;37,28161
 608,54;14614,760;  556,368;38527,803;37,02360
 609,12;14599,201;  539,765;38612,748;36,92759
 609,70;14552,837;  566,567;38558,532;36,81376
 610,27;14479,698;  583,965;38723,908;36,43354
 610,85;14385,270;  613,567;38653,055;36,20370
 611,43;14314,644;  590,967;38701,742;36,00996
 612,01;14108,198;  553,366;38429,382;35,78738
 612,59;14167,966;  558,967;38572,284;35,80061
 613,16;13902,673;  545,364;38430,980;35,25694
 613,74;13840,054;  498,767;38313,171;35,28097
 614,32;13768,157;  441,568;38356,385;35,14876
 614,90;13598,646;  421,966;37970,909;35,09201
 615,48;13436,374;  377,365;37840,010;34,85875
 616,05;13349,654;  335,764;37790,131;34,74599
 616,63;13309,362;  347,564;37695,651;34,70539
 617,21;13190,684;  318,965;37566,661;34,55709
 617,79;12947,460;  321,566;37422,331;34,03136
 618,36;12916,447;  317,366;37454,440;33,92589
 618,94;12635,752;  270,365;37060,621;33,61050
 619,52;12633,510;  298,764;36965,252;33,64038
 620,10;12555,270;  269,565;36874,987;33,56253
 620,67;12414,547;  287,364;36807,394;33,20694
 621,25;12339,586;  299,566;36373,517;33,37594
 621,83;12228,623;  292,565;36417,269;33,04126
 622,41;12167,342;  318,765;36510,592;32,73827
 622,98;11968,579;  307,364;36334,213;32,36812
 623,56;11991,974;  305,963;36379,316;32,39513
 624,14;11798,149;  258,167;36056,749;32,23587
 624,72;11689,425;  273,565;36110,078;31,85539
 625,29;11655,445;  252,364;35955,259;31,93881
 625,87;11595,344;  300,966;36094,026;31,55466
 626,45;11447,559;  257,563;35941,085;31,35900
 627,02;11392,667;  266,766;35895,646;31,22720
 627,60;11290,857;  251,167;35822,259;31,03556
 628,18;11219,772;  244,365;35763,548;30,89994
 628,76;11153,915;  246,764;35870,280;30,61784
 629,33;11147,143;  269,364;35839,123;30,58154
 629,91;11137,413;  268,565;35889,587;30,51245
 630,49;11119,870;  276,764;35956,892;30,38976
 631,06;11103,837;  277,964;36097,795;30,22313
 631,64;10994,896;  279,563;36138,753;29,88169
 632,22;10908,756;  229,363;35886,519;29,95021
 632,79;10917,369;  236,363;36219,263;29,68356
 633,37;10941,138;  241,966;36164,868;29,78371
 633,95;10878,605;  254,963;36379,551;29,40834
 634,52;10811,499;  225,965;36519,239;29,16665
 635,10;10789,878;  237,565;36531,728;29,07441
 635,68;10814,198;  223,963;36626,567;29,09197
 636,25;10715,573;  227,562;36805,065;28,67339
 636,83;10752,344;  202,364;36852,080;28,78598
 637,41;10657,782;  232,762;36929,937;28,40824
 637,98;10651,616;  240,162;37154,764;28,20416
 638,56;10594,789;  226,961;37210,748;28,03344
 639,13;10563,597;  212,564;37252,383;27,94569
 639,71;10619,764;  266,964;37549,434;27,76855
 640,29;10383,202;  211,964;37153,267;27,53351
 640,86;10422,997;  230,164;37489,945;27,35613
 641,44;10359,363;  211,764;37365,822;27,31222
 642,02;10265,587;  241,964;37456,499;26,93470
 642,59;10213,524;  209,564;37651,177;26,71883
 643,17;10136,891;  215,764;37740,454;26,43893
 643,74;10005,828;  227,564;37589,132;26,17199
 644,32;10006,195;  243,964;37598,009;26,13433
 644,89; 9959,990;  239,564;37716,287;25,93723
 645,47; 9905,785;  269,364;37663,564;25,76983
 646,05; 9822,008;  235,364;37667,042;25,61104
 646,62; 9760,231;  229,765;37442,319;25,61089
 647,20; 9733,883;  230,965;37713,197;25,35313
 647,77; 9569,821;  203,765;37561,474;25,07128
 648,35; 9565,045;  205,965;37397,551;25,16451
 648,92; 9505,554;  236,965;37432,229;24,91873
 649,50; 9411,777;  176,965;37285,506;24,88595
 650,08; 9361,001;  196,965;37310,984;24,69157
 650,65; 9367,081;  230,365;37572,261;24,46774
 651,23; 9510,448;  196,765;38502,139;24,31430
 651,80; 9680,385;  199,965;39424,016;24,16992
 652,38; 9668,609;  218,965;39698,694;23,93543
 652,95; 9695,261;  196,765;40069,171;23,82223
 653,53; 9677,056;  228,165;40138,648;23,67521
 654,10; 9705,565;  242,565;40354,726;23,59135
 654,68; 9533,788;  202,165;40204,403;23,32775
 655,25; 9517,726;  199,965;40496,681;23,12288
 655,83; 9384,806;  194,965;40659,958;22,71060
 656,40; 9489,316;  233,765;40666,636;22,89115
 656,98; 9322,111;  210,165;40604,713;22,55736
 657,55; 9248,334;  205,566;40348,391;22,52649
 658,13; 9170,986;  202,366;39910,468;22,58637
 658,70; 9036,638;  218,366;39739,745;22,31266
 659,28; 8762,004;  193,166;38768,623;22,21319
 659,85; 8498,513;  213,366;37923,300;21,97073
 660,43; 8496,594;  231,366;38173,578;21,78373
 661,00; 8397,389;  213,166;38140,655;21,57860
 661,58; 8426,327;  198,966;38531,533;21,46311
 662,15; 8406,693;  183,366;38548,410;21,43443
 662,73; 8446,774;  245,966;39044,488;21,13691
 663,30; 8420,711;  215,566;39303,365;20,99158
 663,88; 8384,220;  199,966;39299,442;20,93188
 664,45; 8382,730;  196,766;39619,720;20,76446
 665,03; 8384,096;  215,166;40113,397;20,47442
 665,60; 8544,891;  260,566;40505,075;20,58498
 666,17; 8431,971;  214,766;40460,152;20,41776
 666,75; 8450,623;  216,166;40839,830;20,27010
 667,32; 8563,990;  225,566;41222,107;20,33933
 667,90; 8446,213;  198,766;41635,185;19,90386
 668,47; 8506,008;  224,966;41620,662;20,00460
 669,05; 8487,803;  212,167;42125,139;19,74481
 669,62; 8492,741;  187,567;42222,417;19,75783
 670,19; 8417,964;  195,967;42072,294;19,63400
 670,77; 8414,759;  204,767;42438,372;19,43948
 671,34; 8383,982;  229,567;42484,249;19,29825
 671,92; 8441,491;  188,167;42555,727;19,48029
 672,49; 8398,572;  215,167;42680,604;19,27074
 673,06; 8306,224;  169,967;42731,482;19,11647
 673,64; 8229,162;  192,567;42741,559;18,88786
 674,21; 8193,957;  189,767;42651,636;18,85030
 674,79; 8192,609;  192,567;42965,714;18,70342
 675,36; 8188,832;  223,767;42944,591;18,64446
 675,93; 8073,341;  207,967;42904,469;18,42159
 676,51; 8111,993;  215,567;43098,746;18,41381
 677,08; 8059,360;  210,967;43232,024;18,24314
 677,65; 8002,583;  210,167;43365,901;18,05650
 678,23; 8017,378;  209,567;43610,179;17,99009
 678,80; 7993,744;  194,967;43687,256;17,93140
 679,38; 7946,253;  185,567;43810,733;17,78947
 679,95; 7929,477;  198,368;44029,211;17,63851
 680,52; 7893,557;  200,968;44211,488;17,47898
 681,10; 7963,924;  216,968;44679,566;17,42353
 681,67; 7970,433;  212,368;45044,843;17,30457
 682,24; 7913,799;  185,368;45052,921;17,22499
 682,82; 7931,880;  196,768;45621,998;17,02823
 683,39; 8014,103;  218,368;46011,476;17,02382
 683,96; 8001,041;  206,168;46193,953;16,94988
 684,54; 8031,407;  177,968;46633,031;16,90545
 685,11; 8084,059;  224,968;46853,308;16,85475
 685,68; 8066,854;  212,968;47257,785;16,69448
 686,25; 8018,078;  195,768;47467,063;16,54769
 686,83; 8056,730;  179,168;47447,340;16,66568
 687,40; 8074,667;  184,368;47926,018;16,52708
 687,97; 8164,319;  218,968;48281,895;16,53114
 688,55; 8037,257;  181,568;48410,373;16,28838
 689,12; 8003,909;  182,368;48523,650;16,17984
 689,69; 8063,704;  186,168;48757,928;16,21835
 690,26; 8098,499;  185,168;48923,805;16,23626
 690,84; 8069,008;  188,968;49088,882;16,11463
 691,41; 8054,374;  214,969;49135,360;16,02482
 691,98; 8057,169;  204,769;49439,637;15,94886
 692,56; 8118,821;  184,969;49458,515;16,10165
 693,13; 8140,902;  246,969;49461,192;16,03994
 693,70; 8134,268;  210,369;49672,870;16,02001
 694,27; 8073,063;  192,969;49684,347;15,92216
 694,84; 8047,286;  193,369;49844,425;15,81823
 695,42; 8111,938;  228,769;49975,702;15,84654
 695,99; 8014,019;  186,569;50355,379;15,60222
 696,56; 7975,671;  186,569;50230,457;15,56454
 697,13; 8103,752;  202,169;50660,334;15,65967
 697,71; 8028,832;  171,569;50584,612;15,58577
 698,28; 8011,627;  200,969;50862,089;15,41746
 698,85; 7983,422;  175,969;51010,167;15,35866
 699,42; 8003,788;  166,369;51064,844;15,39814
 699,99; 8028,154;  192,769;51126,522;15,38348
 700,57; 8071,806;  195,769;51344,599;15,39827
 701,14; 8009,316;  183,769;51441,476;15,26706
 701,71; 8029,539;  224,169;51729,554;15,15447
 702,28; 8046,334;  189,369;51685,431;15,25741
 702,85; 7985,700;  216,570;51676,309;15,09749
 703,43; 8089,924;  194,770;51904,386;15,26825
 704,00; 8068,147;  223,770;52188,864;15,09547
 704,57; 8005,371;  222,170;51968,341;15,04111
 705,14; 8049,737;  238,970;52528,019;14,93767
 705,71; 8085,960;  238,970;52596,096;14,98744
 706,28; 8067,470;  219,770;52301,373;15,06808
 706,86; 8043,264;  235,370;52719,051;14,87680
 707,43; 8073,774;  258,170;52483,928;14,96504
 708,00; 7985,711;  238,970;52641,806;14,78306
 708,57; 7979,363;  204,170;52481,083;14,87309
 709,14; 7992,587;  241,770;52773,961;14,75441
 709,71; 8034,667;  210,770;52768,438;14,88631
 710,28; 8028,605;  213,970;53039,716;14,79323
 710,86; 8040,400;  222,570;53179,193;14,76270
 711,43; 8056,195;  231,170;53178,870;14,77878
 712,00; 8071,275;  219,770;53330,348;14,78332
 712,57; 8028,356;  233,170;53295,225;14,69070
 713,14; 8070,579;  208,370;53449,903;14,76706
 713,71; 8030,946;  228,371;53334,380;14,69245
 714,28; 8050,598;  208,371;53302,258;14,77049
 714,85; 8004,393;  200,171;53229,935;14,71668
 715,42; 8041,473;  204,171;53233,813;14,77910
 716,00; 8110,982;  274,371;53582,890;14,70049
 716,57; 8086,491;  210,171;53702,167;14,72430
 717,14; 8074,429;  188,971;53671,045;14,74411
 717,71; 8058,367;  183,971;53611,322;14,73851
 718,28; 8143,305;  216,971;53832,000;14,78379
 718,85; 8102,814;  186,571;53962,077;14,72091
 719,42; 8220,894;  223,771;53933,555;14,88951
 719,99; 8097,832;  191,771;53690,232;14,77811
 720,56; 8201,484;  211,371;54167,910;14,80842
 721,13; 8209,708;  210,571;54121,387;14,83772
 721,70; 8191,645;  202,171;54006,865;14,84903
 722,27; 8176,154;  217,171;54134,942;14,76134
 722,84; 8228,235;  252,771;54232,419;14,77495
 723,41; 8223,173;  188,571;54242,497;14,86405
 723,98; 8212,111;  198,571;54586,774;14,73397
 724,55; 8317,620;  230,371;54513,652;14,89823
 725,12; 8244,986;  168,372;54409,729;14,89014
 725,69; 8305,495;  190,572;54631,407;14,90595
 726,27; 8359,719;  208,772;54839,084;14,92019
 726,84; 8408,371;  204,172;55140,362;14,93405
 727,41; 8496,594;  217,172;54813,639;15,16476
 727,98; 8479,103;  222,372;55353,716;14,97647
 728,55; 8495,327;  250,572;55086,394;15,03534
 729,12; 8473,979;  200,972;55243,871;15,03011
 729,69; 8550,059;  219,772;55415,549;15,09225
 730,26; 8663,140;  217,372;55694,226;15,22395
 730,82; 8566,649;  209,772;55473,904;15,12170
 731,39; 8677,158;  220,972;55566,181;15,27898
 731,96; 8702,524;  181,972;55957,259;15,27657
 732,53; 8756,605;  212,972;56028,336;15,30696
 733,10; 8748,828;  208,972;56151,813;15,26532
 733,67; 8828,195;  200,972;56541,291;15,31270
 734,24; 8762,418;  206,972;55959,168;15,34549
 734,81; 8805,356;  234,372;56280,646;15,29269
 735,38; 8776,722;  216,372;56038,923;15,33493
 735,95; 8722,374;  206,573;55793,401;15,31982
 736,52; 8815,741;  239,973;56073,078;15,35965
 737,09; 8810,393;  218,973;55695,556;15,48657
 737,66; 8816,616;  269,173;55913,033;15,36098
 738,23; 8888,554;  195,373;56021,110;15,57199
 738,80; 8926,491;  237,773;56286,188;15,50217
 739,37; 8928,143;  237,573;56592,065;15,42126
 739,94; 8905,367;  213,573;56504,343;15,44089
 740,51; 9023,448;  286,973;56571,020;15,52212
 741,07; 8920,814;  199,373;56462,298;15,50122
 741,64; 9031,894;  251,573;56792,775;15,52907
 742,21; 8958,404;  215,973;56653,853;15,49036
 742,78; 8975,341;  194,973;56474,130;15,60146
 743,35; 8993,422;  214,173;56710,607;15,53947
 743,92; 9145,074;  247,373;56925,485;15,69865
 744,49; 9121,726;  237,973;56769,762;15,71461
 745,06; 9117,807;  200,573;56655,440;15,79533
 745,63; 9142,744;  189,373;56752,117;15,82910
 746,19; 9211,682;  204,773;56975,195;15,86550
 746,76; 9152,477;  210,973;56909,872;15,77015
 747,33; 9256,415;  217,174;56688,150;16,00688
 747,90; 9321,924;  227,974;57094,427;15,99177
 748,47; 9250,290;  228,174;56888,104;15,92327
 749,04; 9300,513;  228,574;56982,582;15,98467
 749,61; 9358,737;  209,974;56797,859;16,16735
 750,17; 9417,960;  212,374;56931,137;16,23023
 750,74; 9360,898;  228,374;56910,214;16,11190
 751,31; 9376,264;  194,174;56734,292;16,23996
 751,88; 9434,631;  193,774;56596,569;16,38369
 752,45; 9451,426;  213,974;56822,247;16,31820
 753,02; 9460,792;  209,374;56688,524;16,38024
 753,58; 9479,158;  193,974;56519,402;16,48489
 754,15; 9513,096;  223,774;56777,479;16,42566
 754,72; 9505,034;  193,574;56506,156;16,53531
 755,29; 9481,257;  183,774;56333,834;16,55828
 755,86; 9527,766;  222,374;56512,111;16,53124
 756,42; 9622,418;  221,574;56376,989;16,74076
 756,99; 9608,499;  191,974;56591,266;16,69617
 757,56; 9535,722;  209,774;56331,544;16,61734
 758,13; 9567,660;  176,174;56219,621;16,75751
 758,70; 9672,026;  204,975;56289,899;16,87985
 759,26; 9642,535;  198,175;56434,776;16,79398
 759,83; 9657,045;  207,175;56603,453;16,75619
 760,40; 9640,554;  204,575;56281,331;16,82690
 760,97; 9652,491;  203,775;56472,208;16,79222
 761,53; 9689,715;  192,375;56080,686;16,99343
 762,10; 9613,367;  174,575;56038,363;16,89608
 762,67; 9659,448;  221,575;56070,641;16,89889
 763,24; 9633,100;  164,375;55565,118;17,09133
 763,80; 9756,609;  199,575;55610,596;17,24753
 764,37; 9705,832;  181,175;55604,673;17,18523
 764,94; 9657,484;  178,175;55208,350;17,22566
 765,50; 9628,993;  168,575;55191,628;17,19355
 766,07; 9726,502;  210,375;55220,505;17,29886
 766,64; 9689,440;  191,575;54901,983;17,36025
 767,21; 9683,807;  189,975;54870,260;17,36244
 767,77; 9710,887;  206,375;54707,338;17,43916
 768,34; 9740,111;  210,775;54664,215;17,49997
 768,91; 9730,048;  190,175;54295,093;17,63217
 769,47; 9715,415;  192,376;54498,370;17,53589
 770,04; 9709,067;  209,976;54468,247;17,50718
 770,61; 9656,147;  187,176;54240,525;17,51783
 771,18; 9699,371;  188,776;54080,402;17,64763
 771,74; 9763,880;  210,576;54206,080;17,69278
 772,31; 9710,246;  211,576;54057,757;17,64038
 772,88; 9627,470;  178,176;53704,835;17,65343
 773,44; 9671,836;  191,776;53520,312;17,77671
 774,01; 9716,059;  189,776;53690,790;17,80580
 774,58; 9691,140;  171,776;53432,467;17,87315
 775,14; 9809,935;  184,376;53531,344;18,04331
 775,71; 9857,015;  191,776;53402,422;18,16411
 776,27; 9824,096;  233,976;53302,099;18,07134
 776,84; 9913,319;  246,976;53488,977;18,15548
 777,41; 9859,686;  207,976;53298,054;18,17987
 777,97; 9800,909;  183,976;52923,332;18,23483
 778,54; 9856,418;  206,176;53016,409;18,27343
 779,11; 9984,070;  215,176;53045,287;18,49115
 779,67; 9966,151;  192,776;52911,764;18,53862
 780,24; 9964,374;  214,176;52651,841;18,59388
 780,80;10049,598;  222,577;52697,919;18,72693
 781,37; 9964,107;  205,977;52485,196;18,66541
 781,94;10057,616;  194,577;52362,074;18,90648
 782,50;10117,554;  214,977;52273,751;19,02192
 783,07;10148,777;  247,977;52383,429;18,99053
 783,63;10047,858;  190,177;52079,106;18,99766
 784,20;10061,938;  232,777;52057,584;18,96613
 784,77;10081,876;  208,577;51928,461;19,08995
 785,33;10057,100;  187,177;51681,938;19,16685
 785,90;10080,180;  208,577;51654,016;19,18849
 786,46;10118,689;  222,377;51544,293;19,28282
 787,03;10136,341;  205,377;51364,371;19,41196
 787,59;10129,422;  209,177;51383,648;19,38514
 788,16;10181,502;  217,777;51273,726;19,51531
 788,73;10119,297;  223,577;50943,603;19,51048
 789,29;10086,949;  206,777;50617,081;19,59951
 789,86;10155,173;  211,977;50367,758;19,82463
 790,42;10195,682;  215,377;50497,636;19,84856
 790,99;10105,763;  224,977;50039,713;19,83506
 791,55;10198,557;  205,378;50188,990;19,99291
 792,12;10191,781;  231,378;50020,068;20,00535
 792,68;10129,147;  215,378;49785,745;19,99939
 793,25;10192,799;  217,578;49649,623;20,17967
 793,81;10214,737;  253,778;49135,900;20,37751
 794,38;10162,103;  193,378;49037,778;20,40915
 794,94;10120,327;  206,978;48908,855;20,35517
 795,51;10136,836;  218,978;48653,933;20,47665
 796,07;10130,774;  222,978;48389,010;20,57009
 796,64;10173,854;  246,778;48626,887;20,51892
 797,20;10114,078;  225,178;48034,365;20,68410
 797,77;10037,730;  201,978;47678,042;20,71728
 798,33;10091,667;  205,178;47540,320;20,88615
 798,90;10078,605;  246,378;47325,597;20,88443
 799,46;10062,257;  218,778;46887,675;21,09216
 800,03;10084,909;  210,378;46838,352;21,17727
 800,59;10011,133;  237,178;46681,230;21,04458
 801,15;10060,213;  239,978;46431,307;21,25991
 801,72; 9965,722;  199,378;46248,184;21,20868
 802,28; 9988,803;  240,778;45773,462;21,40885
 802,85; 9984,169;  219,979;45820,939;21,41225
 803,41; 9923,535;  207,179;45618,217;21,39646
 803,98; 9898,473;  212,779;45104,294;21,57578
 804,54; 9877,839;  228,979;44858,572;21,61987
 805,11; 9857,777;  234,979;44625,249;21,67772
 805,67; 9792,143;  240,379;44560,527;21,55174
 806,23; 9777,224;  225,379;44110,804;21,76542
 806,80; 9848,448;  243,379;44193,281;21,85458
 807,36; 9857,957;  261,579;44025,959;21,92737
 807,93; 9816,037;  239,779;43749,036;22,00970
 808,49; 9768,404;  227,379;43464,914;22,06653
 809,05; 9760,484;  210,779;43106,391;22,26266
 809,62; 9766,565;  235,179;43062,269;22,25551
 810,18; 9768,645;  228,779;43010,346;22,29901
 810,74; 9725,583;  197,379;42687,824;22,42434
 811,31; 9753,807;  216,579;42482,301;22,56492
 811,87; 9819,601;  224,179;42432,978;22,73323
 812,44; 9845,539;  258,979;42405,656;22,74571
 813,00; 9765,763;  191,779;42067,533;22,86283
 813,56; 9884,129;  243,779;42111,011;23,02600
 814,13; 9850,495;  227,980;42001,088;23,03519
 814,69; 9795,433;  229,380;41872,566;22,97147
 815,25; 9802,085;  197,380;41443,443;23,28636
 815,82; 9887,165;  234,380;41434,921;23,42878
 816,38; 9921,675;  256,580;41108,398;23,65891
 816,94; 9869,470;  230,780;40893,875;23,70378
 817,51; 9839,550;  199,980;40628,753;23,84334
 818,07; 9827,345;  213,380;40369,030;23,94175
 818,63; 9857,711;  234,580;40002,908;24,19798
 819,20; 9837,935;  236,180;40120,585;24,07396
 819,76; 9842,015;  228,580;39577,863;24,43103
 820,32; 9896,810;  245,380;39498,140;24,58790
 820,89; 9885,748;  250,180;39362,218;24,63581
 821,45; 9834,971;  210,580;39112,895;24,73989
 822,01; 9829,052;  235,980;38901,573;24,81036
 822,57; 9887,418;  232,780;38683,250;25,10928
 823,14; 9837,785;  218,780;38618,327;25,04979
 823,70; 9792,865;  216,780;38358,405;25,10665
 824,26; 9854,660;  231,180;38082,482;25,42443
 824,82; 9809,455;  225,781;37968,360;25,39221
 825,39; 9817,535;  213,381;37732,437;25,59807
 825,95; 9855,616;  237,781;37849,115;25,57164
 826,51; 9852,125;  231,581;37278,792;25,96834
 827,08; 9918,920;  271,781;37273,070;26,07244
 827,64; 9802,429;  239,381;37244,347;25,84261
 828,20; 9780,938;  216,581;36980,024;26,01595
 828,76; 9808,019;  240,981;36879,502;26,11197
 829,32; 9834,671;  245,581;36649,979;26,34047
 829,89; 9844,609;  202,181;36605,657;26,48766
 830,45; 9852,261;  208,181;36540,734;26,54391
 831,01; 9920,341;  230,381;36315,412;26,85313
 831,57; 9868,850;  233,181;36207,689;26,78471
 832,14; 9834,645;  217,381;36185,367;26,73840
 832,70; 9848,869;  208,181;35880,844;27,02542
 833,26; 9887,949;  188,981;35790,321;27,24327
 833,82; 9914,601;  222,181;35743,999;27,28582
 834,38; 9911,682;  205,981;35722,676;27,32715
 834,95; 9896,048;  211,581;35525,354;27,42405
 835,51; 9911,272;  186,381;35588,031;27,47016
 836,07;10079,209;  222,182;35633,309;27,83596
 836,63;10145,004;  240,182;35589,986;28,01946
 837,19;10158,085;  231,582;35327,064;28,28428
 837,75;10091,451;  191,982;35086,541;28,36966
 838,32;10133,817;  236,782;35301,018;28,22544
 838,88;10193,327;  240,382;35185,096;28,48198
 839,44;10281,264;  203,782;34997,573;28,96345
 840,00;10280,774;  211,782;35115,651;28,84778
 840,56;10266,854;  215,182;34777,128;29,08306
 841,12;10300,078;  210,582;34765,406;29,19852
 841,68;10190,444;  193,182;34493,283;29,14645
 842,25;10321,667;  212,582;34672,761;29,33556
 842,81;10245,462;  203,782;34322,238;29,43181
 843,37;10302,971;  186,982;34411,115;29,55806
 843,93;10335,338;  219,182;34236,393;29,73834
 844,49;10424,704;  223,782;34377,670;29,86753
 845,05;10385,213;  191,582;34056,748;30,10064
 845,61;10430,151;  241,182;34182,225;30,01961
 846,17;10431,089;  207,782;34017,703;30,23759
 846,73;10488,598;  222,383;34085,180;30,31709
 847,29;10422,535;  202,783;33852,658;30,37085
 847,86;10445,759;  196,783;33641,935;30,64413
 848,42;10504,982;  190,383;33540,812;30,92794
 848,98;10560,777;  214,383;33519,890;31,06512
 849,54;10584,143;  204,183;33526,567;31,15011
 850,10;10593,367;  228,383;33345,045;31,29840
 850,66;10568,305;  184,783;33153,522;31,49505
 851,22;10587,671;  182,983;33056,000;31,65115
 851,78;10709,752;  239,983;33111,277;31,85080
 852,34;10677,832;  200,783;32939,555;32,00196
 852,90;10691,913;  212,183;32850,032;32,10913
 853,46;10688,136;  197,383;32641,709;32,33463
 854,02;10711,931;  213,983;32643,387;32,37170
 854,58;10654,012;  203,183;32336,464;32,52338
 855,14;10702,664;  186,583;32268,742;32,77859
 855,70;10719,316;  169,983;32086,819;33,05256
 856,26;10743,968;  216,383;31989,697;33,13342
 856,82;10693,334;  205,783;31857,374;33,13436
 857,38;10749,272;  224,383;31752,252;33,38281
 857,94;10743,638;  204,184;31631,129;33,53636
 858,50;10721,576;  220,984;31515,207;33,55441
 859,06;10725,513;  224,584;31482,284;33,59470
 859,62;10752,023;  213,384;31318,161;33,88109
 860,18;10700,675;  208,784;31074,239;33,99234
 860,74;10778,470;  168,984;30912,316;34,50988
 861,30;10746,693;  173,784;30831,794;34,48661
 861,86;10854,916;  221,584;30929,071;34,62782
 862,42;10780,711;  205,384;30590,949;34,80379
 862,98;10837,935;  225,784;30679,826;34,84644
 863,54;10834,301;  213,784;30401,504;35,18158
 864,10;10814,953;  199,384;30453,381;35,08815
 864,66;10789,319;  204,984;30147,458;35,34890
 865,22;10790,686;  204,984;30039,336;35,48159
 865,78;10746,052;  211,984;30028,813;35,32927
 866,34;10741,561;  201,784;29892,091;35,49905
 866,90;10803,642;  221,984;29758,968;35,82511
 867,45;10786,437;  222,184;29624,646;35,92982
 868,01;10695,374;  222,584;29528,523;35,73607
 868,57;10670,026;  194,184;29270,201;36,02915
 869,13;10679,678;  189,785;29094,678;36,29107
 869,69;10745,045;  202,185;29107,755;36,47345
 870,25;10628,554;  189,185;29104,833;36,10284
 870,81;10604,349;  215,785;28973,910;36,12393
 871,37;10754,143;  209,585;28797,588;36,88456
 871,93;10672,653;  224,185;28614,065;36,80349
 872,49;10644,305;  221,585;28385,943;37,00677
 873,04;10606,528;  200,185;28223,620;37,13443
 873,60;10634,323;  190,585;28096,698;37,42455
 874,16;10573,118;  210,585;28100,175;37,15556
 874,72;10587,975;  199,385;28028,775;37,32956
 875,28;10530,404;  209,785;27963,375;37,18661
 875,84;10644,546;  186,785;27807,375;37,86219
 876,40;10642,546;  206,985;27740,175;37,90175
 876,95;10677,975;  221,385;27739,775;37,99855
 877,51;10760,404;  255,785;27750,375;38,20613
 878,07;10815,118;  239,585;27763,975;38,42241
 878,63;10854,546;  218,585;27739,975;38,64616
 879,19;10945,546;  223,985;27668,175;39,06678
 879,75;10993,832;  217,185;27709,175;39,19923
 880,30;11012,689;  205,385;27794,575;39,17224
 880,86;11168,689;  255,185;27824,575;39,58558
 881,42;11105,261;  190,185;27869,775;39,43366
 881,98;11248,832;  224,585;28080,175;39,57643
 882,54;11312,546;  217,985;28017,575;39,90908
 883,09;11409,832;  226,985;28170,175;40,01994
 883,65;11503,118;  215,585;28300,375;40,19091
 884,21;11716,118;  239,585;28441,775;40,69376
 884,77;11733,975;  217,985;28552,975;40,64229
 885,32;11815,546;  211,185;28662,975;40,78605
 885,88;11903,689;  240,985;28801,975;40,83438
 886,44;11946,261;  212,785;28912,775;40,88320
 887,00;12057,832;  229,785;28898,775;41,25729
 887,56;12188,832;  221,785;29149,775;41,36840
 888,11;12197,689;  217,985;29168,175;41,38040
 888,67;12297,118;  240,185;29323,575;41,45642
 889,23;12381,261;  227,385;29229,775;41,90646
 889,79;12320,689;  208,785;29260,375;41,69102
 890,34;12404,261;  208,785;29149,575;42,13940
 890,90;12507,404;  250,985;29173,175;42,37721
 891,46;12492,261;  217,585;29233,975;42,30256
 892,01;12479,546;  240,585;29083,775;42,43276
 892,57;12479,546;  245,785;29088,775;42,41503
 893,13;12463,404;  226,185;28995,775;42,53526
 893,69;12447,118;  207,585;28903,575;42,65242
 894,24;12479,546;  218,185;28830,175;42,85393
 894,80;12405,832;  225,785;28553,575;42,99681
 895,36;12403,118;  207,385;28458,575;43,16892
 895,91;12352,261;  213,985;28280,375;43,24844
 896,47;12403,832;  230,185;28094,775;43,68859
 897,03;12280,975;  210,385;27903,775;43,58654
 897,58;12289,546;  217,785;27717,175;43,89829
 898,14;12226,689;  233,985;27673,575;43,70584
 898,70;12178,832;  197,385;27601,175;43,72186
 899,25;12255,404;  209,185;27406,375;44,29214
 899,81;12181,118;  238,185;27203,575;44,28986
 900,37;12043,118;  190,985;27044,375;44,13645
 900,92;12185,832;  220,185;26966,575;44,73743
 901,48;12077,546;  204,185;26834,575;44,58576
 902,03;12101,546;  199,385;26749,975;44,82824
 902,59;12170,546;  219,585;26734,975;45,07179
 903,15;12075,832;  242,585;26494,775;45,07528
 903,70;11960,404;  228,985;26272,975;45,04463
 904,26;11900,689;  195,185;26118,375;45,15457
 904,82;12034,689;  217,385;26110,975;45,63795
 905,37;11959,975;  215,585;26019,975;45,51315
 905,93;11881,832;  211,185;25899,975;45,43089
 906,48;11886,546;  230,185;25755,975;45,66504
 907,04;11886,975;  248,585;25767,175;45,60750
 907,60;11801,689;  205,985;25499,175;45,84516
 908,15;11814,975;  208,785;25448,375;45,98407
 908,71;11901,975;  251,385;25480,975;46,17828
 909,26;11802,118;  211,185;25169,375;46,44140
 909,82;11812,404;  237,185;25158,575;46,44692
 910,37;11787,689;  250,785;24900,975;46,80250
 910,93;11656,975;  206,785;24712,775;46,72405
 911,48;11629,832;  209,585;24621,375;46,78169
 912,04;11604,975;  203,585;24537,375;46,85415
 912,60;11680,261;  240,185;24691,775;46,78663
 913,15;11659,546;  233,585;24388,775;47,30230
 913,71;11546,689;  208,985;24185,975;47,28577
 914,26;11569,832;  207,785;24091,775;47,57181
 914,82;11538,689;  223,985;24053,375;47,48214
 915,37;11481,118;  209,785;23898,375;47,58127
 915,93;11564,832;  278,185;23892,775;47,79523
 916,48;11418,118;  215,785;23672,775;47,75691
 917,04;11480,261;  232,185;23553,975;48,22990
 917,59;11456,689;  251,985;23506,375;48,18318
 918,15;11328,261;  172,985;23242,175;48,35573
 918,70;11354,118;  194,585;23323,175;48,24995
 919,26;11349,261;  225,985;23132,575;48,55928
 919,81;11303,261;  191,385;23044,175;48,62372
 920,37;11334,975;  209,585;22783,375;49,28455
 920,92;11253,832;  215,385;22795,975;48,88467
 921,48;11119,546;  200,185;22586,375;48,77722
 922,03;11196,261;  214,985;22528,375;49,21384
 922,59;11186,261;  224,785;22401,375;49,42814
 923,14;11131,118;  210,185;22325,175;49,38249
 923,69;11159,975;  224,585;22390,575;49,33409
 924,25;11179,546;  234,585;22114,975;50,02178
 924,80;10980,975;  219,585;21933,575;49,55971
 925,36;11053,689;  216,585;21980,375;49,79420
 925,91;10955,404;  213,985;21765,175;49,84142
 926,47;11004,689;  192,985;21704,975;50,25897
 927,02;11007,118;  246,185;21669,975;50,22889
 927,57;10906,975;  217,385;21431,775;50,38839
 928,13;10850,975;  215,385;21399,175;50,20627
 928,68;10857,404;  214,385;21298,775;50,47819
 929,24;10782,261;  194,985;21056,975;50,74912
 929,79;10721,261;  195,185;20994,175;50,60859
 930,34;10741,261;  220,985;20909,175;50,85160
 930,90;10739,832;  200,585;20822,575;51,10684
 931,45;10716,832;  208,985;20760,775;51,12862
 932,01;10715,546;  226,985;20826,175;50,91735
 932,56;10592,261;  236,785;20657,975;50,70946
 933,11;10702,261;  224,785;20495,575;51,68755
 933,67;10547,975;  218,985;20367,175;51,26510
 934,22;10562,689;  224,385;20302,375;51,49073
 934,77;10526,404;  223,585;20152,375;51,69816
 935,33;10584,118;  228,985;20031,775;52,29128
 935,88;10499,689;  228,585;20037,175;51,85177
 936,43;10466,689;  224,785;19867,775;52,14025
 936,99;10458,689;  203,985;19779,775;52,38463
 937,54;10363,118;  199,385;19705,575;52,10517
 938,09;10451,261;  214,385;19494,375;53,09586
 938,65;10269,975;  212,785;19343,175;52,57180
 939,20;10257,118;  194,585;19422,175;52,33382
 939,75;10237,261;  197,185;19246,375;52,70605
 940,31;10156,261;  193,785;19051,175;52,83062
 940,86;10237,118;  203,585;19200,975;52,81532
 941,41;10239,261;  264,985;19011,775;53,20525
 941,96;10067,118;  207,185;18855,975;52,87170
 942,52;10109,261;  216,385;18838,175;53,12527
 943,07;10079,261;  193,785;18730,975;53,32780
 943,62;10014,975;  201,585;18591,975;53,36151
 944,18; 9965,404;  190,585;18531,975;53,29377
 944,73; 9905,261;  216,785;18403,975;53,27088
 945,28; 9864,832;  181,185;18284,575;53,49079
 945,83; 9920,975;  223,385;18173,575;54,02500
 946,39; 9920,118;  203,785;18154,575;54,12761
 946,94; 9900,975;  234,985;18027,775;54,32532
 947,49; 9830,689;  214,585;17934,375;54,26760
 948,04; 9884,118;  227,185;17990,975;54,36302
 948,59; 9841,975;  229,785;17823,975;54,63275
 949,15; 9794,261;  196,785;17696,575;54,84338
 949,70; 9745,404;  213,385;17583,375;54,87636
 950,25; 9749,404;  231,785;17544,775;54,97386
 950,80; 9625,261;  187,385;17522,775;54,44282
 951,36; 9613,689;  180,985;17437,175;54,66273
 951,91; 9742,546;  211,785;17414,175;55,40371
 952,46; 9561,689;  181,585;17155,375;55,26229
 953,01; 9662,261;  215,185;17166,975;55,72907
 953,56; 9584,832;  186,385;17089,975;55,60030
 954,11; 9577,975;  231,985;17015,775;55,68462
 954,67; 9599,832;  204,985;16958,175;56,07796
 955,22; 9445,118;  188,985;16687,775;56,10189
 955,77; 9509,546;  234,585;16719,375;56,26375
 956,32; 9485,261;  251,185;16646,375;56,32186
 956,87; 9443,689;  206,385;16472,775;56,78767
 957,42; 9398,689;  206,985;16494,775;56,43310
 957,98; 9379,832;  201,785;16257,375;57,16418
 958,53; 9441,404;  224,385;16301,175;57,33121
 959,08; 9342,689;  190,785;16218,575;57,10023
 959,63; 9283,689;  190,585;16122,175;57,07594
 960,18; 9342,546;  217,185;16053,375;57,62347
 960,73; 9297,546;  208,985;15932,375;57,80281
 961,28; 9284,404;  200,785;15844,375;58,06607
 961,83; 9298,689;  216,385;15855,775;58,07326
 962,39; 9126,832;  200,185;15688,175;57,63593
 962,94; 9237,832;  215,585;15571,575;58,75393
 963,49; 9155,689;  209,785;15532,375;58,38376
 964,04; 9141,404;  214,985;15423,175;58,69481
 964,59; 9096,689;  203,585;15309,575;58,87138
 965,14; 9106,832;  214,785;15274,375;59,04575
 965,69; 8946,832;  195,585;15175,975;58,41802
 966,24; 8972,832;  189,785;15058,575;59,07036
 966,79; 8994,404;  215,585;14974,175;59,48277
 967,34; 8843,689;  191,185;14867,575;58,95526
 967,89; 8863,832;  211,985;14773,375;59,41635
 968,44; 8899,404;  219,585;14791,175;59,56672
 968,99; 8908,546;  226,785;14619,175;60,32189
 969,55; 8828,832;  220,985;14511,975;60,23269
 970,10; 8761,689;  214,385;14446,775;60,05530
 970,65; 8715,689;  227,385;14262,975;60,47700
 971,20; 8724,832;  199,185;14271,175;60,58594
 971,75; 8611,546;  188,185;14090,175;60,59105
 972,30; 8610,832;  217,785;14004,775;60,87657
 972,85; 8583,404;  203,585;14013,975;60,67764
 973,40; 8526,975;  203,185;13823,575;61,11271
 973,95; 8452,404;  220,985;13810,175;60,57328
 974,50; 8523,546;  241,385;13734,375;61,38122
 975,05; 8401,404;  215,785;13633,775;61,00480
 975,60; 8458,689;  241,185;13571,975;61,64304
 976,15; 8384,546;  211,385;13443,575;61,76726
 976,70; 8353,975;  222,185;13370,975;61,84440
 977,25; 8343,689;  211,985;13416,975;61,58054
 977,80; 8220,832;  195,985;13126,975;62,05903
 978,35; 8190,118;  211,985;13055,175;62,11956
 978,89; 8159,832;  199,385;12930,375;62,52811
 979,44; 8145,975;  217,785;12903,375;62,49761
 979,99; 8072,689;  201,985;12765,375;62,64793
 980,54; 8034,118;  228,185;12675,975;62,70939
 981,09; 8031,689;  222,585;12618,175;62,99905
 981,64; 7896,404;  221,585;12389,575;63,07384
 982,19; 7997,975;  242,985;12345,775;64,07605
 982,74; 7900,261;  231,185;12263,975;63,73481
 983,29; 7797,975;  192,785;12115,775;63,78593
 983,84; 7773,832;  227,985;12057,575;63,78790
 984,39; 7831,118;  249,385;11963,175;64,72485
 984,94; 7659,118;  200,585;11862,975;63,95373
 985,49; 7692,546;  232,385;11793,175;64,52986
 986,03; 7694,404;  233,785;11663,975;65,27117
 986,58; 7598,975;  268,785;11628,175;64,52979
 987,13; 7575,261;  207,985;11411,575;65,75817
 987,68; 7475,975;  235,985;11312,375;65,36417
 988,23; 7459,261;  226,985;11250,175;65,60964
 988,78; 7373,689;  223,785;11109,775;65,67987
 989,33; 7296,404;  220,985;10968,775;65,83138
 989,88; 7313,118;  251,985;10965,975;65,90573
 990,42; 7204,118;  223,185;10787,175;66,08235
 990,97; 7136,689;  223,185;10681,175;66,10739
 991,52; 7078,832;  235,185;10688,575;65,46821
 992,07; 7022,261;  244,585;10498,775;66,09665
 992,62; 6945,404;  228,185;10449,775;65,71599
 993,17; 6942,261;  230,185;10255,775;66,94943
 993,71; 6891,404;  236,585;10236,375;66,54958
 994,26; 6835,546;  218,185;10051,175;67,29755
 994,81; 6806,546;  239,985;10001,575;67,26938
 995,36; 6779,832;  208,985; 9878,775;67,95233
 995,91; 6686,975;  227,185; 9840,775;67,19436
 996,45; 6657,404;  223,185; 9708,175;67,83580
 997,00; 6610,546;  208,785; 9556,175;68,48715
 997,55; 6607,261;  226,185; 9570,575;68,28777
 998,10; 6501,832;  235,785; 9334,575;68,86682
 998,65; 6454,118;  207,185; 9332,975;68,45361
 999,19; 6459,261;  234,585; 9289,775;68,74153
 999,74; 6337,546;  237,185; 9119,375;68,68083
1000,29; 6341,404;  247,185; 9050,575;69,22582
1000,84; 6218,118;  226,385; 8927,975;68,85791
1001,38; 6192,975;  225,985; 8722,975;70,22475
1001,93; 6232,404;  227,185; 8819,575;69,88997
1002,48; 6124,118;  213,185; 8628,775;70,23789
1003,03; 6096,261;  222,785; 8504,975;70,91694
1003,57; 6056,832;  232,985; 8453,975;70,84119
1004,12; 5980,118;  233,185; 8326,175;71,01124
1004,67; 5935,832;  223,985; 8297,175;70,75081
1005,22; 5853,118;  214,785; 8139,375;71,14984
1005,76; 5714,546;  212,585; 7986,175;70,77761
1006,31; 5728,118;  234,985; 7930,775;71,37841
1006,86; 5675,689;  221,985; 7767,575;72,27671
1007,40; 5563,546;  198,185; 7624,975;72,24334
1007,95; 5590,546;  230,385; 7621,375;72,52292
1008,50; 5492,546;  234,185; 7447,975;72,89319
1009,04; 5421,832;  218,385; 7419,175;72,26217
1009,59; 5285,975;  221,585; 7293,975;71,60790
1010,14; 5237,546;  215,585; 7124,575;72,68735
1010,68; 5204,689;  223,785; 7028,975;73,19273
1011,23; 5139,404;  189,385; 6898,975;73,77528
1011,78; 5076,546;  238,385; 6909,775;72,52104
1012,32; 5052,975;  221,385; 6682,575;74,77864
1012,87; 5002,261;  239,585; 6755,175;73,09661
1013,42; 4899,404;  212,185; 6570,975;73,71243
1013,96; 4942,118;  242,985; 6621,575;73,67040
1014,51; 4828,261;  182,185; 6500,175;73,53724
1015,06; 4858,689;  191,385; 6547,775;73,42697
1015,60; 4936,404;  264,385; 6593,375;73,81934
1016,15; 4899,975;  213,785; 6555,575;73,89381
1016,69; 4926,118;  226,585; 6498,375;74,93129
1017,24; 4888,832;  203,185; 6530,775;74,05105
1017,79; 4980,404;  249,985; 6580,175;74,72791
1018,33; 4988,261;  211,185; 6584,175;74,95815
1018,88; 5020,261;  248,185; 6615,975;74,94085
1019,42; 5111,832;  230,585; 6633,375;76,23625
1019,97; 5087,832;  199,585; 6670,375;75,54328
1020,51; 5133,118;  232,385; 6724,975;75,48194
1021,06; 5095,975;  201,185; 6703,975;75,27215
1021,61; 5063,404;  183,385; 6564,775;76,47266
1022,15; 5073,261;  170,385; 6554,375;76,79955
1022,70; 5117,689;  221,985; 6591,975;76,85576
1023,24; 5088,832;  185,985; 6595,975;76,48759
1023,79; 5091,832;  206,185; 6495,775;77,67831
1024,33; 5077,689;  206,185; 6476,975;77,68566
1024,88; 5050,546;  211,185; 6419,975;77,94371
1025,42; 4953,975;  214,785; 6222,175;78,88933
1025,97; 4921,404;  211,785; 6173,175;79,00202
1026,51; 4817,975;  175,985; 6033,175;79,25285
1027,06; 4787,261;  206,185; 6053,375;78,34662
1027,60; 4751,689;  205,585; 5935,175;79,34432
1028,15; 4731,404;  230,585; 5842,775;80,19719
1028,69; 4591,689;  196,985; 5694,375;79,94165
1029,24; 4510,689;  211,385; 5638,775;79,21495
1029,78; 4450,689;  208,385; 5525,175;79,79071
1030,33; 4406,118;  185,985; 5398,775;80,95728
1030,87; 4351,975;  212,385; 5365,775;80,32751
1031,42; 4321,689;  194,385; 5274,975;81,23671
1031,96; 4270,975;  216,985; 5209,175;81,20664
1032,51; 4214,832;  198,785; 5159,575;80,95580
1033,05; 4159,546;  216,785; 5094,375;80,83421
1033,60; 4053,832;  166,785; 4986,175;80,65434
1034,14; 4016,404;  200,185; 4900,775;81,18595
1034,69; 3973,404;  210,185; 4821,375;81,61057
1035,23; 3930,832;  205,985; 4730,975;82,31725
1035,77; 3904,261;  193,585; 4674,375;82,81298
1036,32; 3853,118;  169,185; 4629,175;82,59958
1036,86; 3775,689;  202,185; 4530,575;82,55967
1037,41; 3766,404;  219,585; 4518,575;82,50353
1037,95; 3703,118;  182,985; 4436,375;82,76064
1038,50; 3675,975;  194,985; 4351,775;83,74226
1039,04; 3689,546;  216,385; 4251,375;86,07609
1039,58; 3596,261;  195,985; 4206,575;84,78243
1040,13; 3528,832;  193,185; 4211,375;83,01367
1040,67; 3524,118;  232,985; 4143,575;84,15950
1041,21; 3492,689;  234,385; 4054,975;85,28275
1041,76; 3400,689;  189,585; 3998,975;84,29445
1042,30; 3364,975;  207,185; 3960,575;84,13168
1042,85; 3326,404;  205,185; 3900,775;84,45792
1043,39; 3298,689;  196,585; 3840,775;85,12466
1043,93; 3268,261;  213,185; 3768,575;85,92801
1044,48; 3183,118;  221,785; 3745,575;84,03829
1045,02; 3166,404;  194,985; 3677,575;85,32209
1045,56; 3201,689;  226,785; 3593,175;88,37076
1046,11; 3103,832;  209,985; 3566,175;86,22418
1046,65; 3073,261;  219,985; 3509,575;86,73651
1047,19; 3037,832;  187,785; 3480,975;86,54366
1047,74; 2976,689;  191,985; 3379,375;87,36629
1048,28; 2927,975;  214,785; 3427,975;84,43914
1048,82; 2923,118;  220,785; 3358,975;86,11119
1049,37; 2892,975;  215,385; 3284,775;87,23525
1049,91; 2861,975;  197,185; 3303,375;85,78967
1050,45; 2841,118;  224,985; 3245,375;86,61573
1050,99; 2801,689;  202,985; 3149,375;88,19960
1051,54; 2719,404;  207,185; 3100,375;86,83213
1052,08; 2715,118;  228,785; 3086,975;86,98977
1052,62; 2692,832;  223,985; 3023,975;88,17343
1053,16; 2652,975;  206,585; 2934,575;89,67738
1053,71; 2666,404;  218,585; 2966,975;89,06373
1054,25; 2611,975;  217,185; 2879,175;89,96240
1054,79; 2535,689;  222,585; 2843,975;88,23961
1055,33; 2458,832;  199,185; 2783,975;87,42092
1055,88; 2480,118;  232,185; 2776,975;88,33471
1056,42; 2463,546;  227,185; 2762,175;88,21973
1056,96; 2434,832;  234,585; 2692,975;89,49952
1057,50; 2427,689;  224,185; 2648,775;90,88152
1058,05; 2375,832;  222,785; 2621,975;89,74059
1058,59; 2375,975;  233,985; 2547,775;92,57495
1059,13; 2311,261;  201,585; 2473,175;92,87220
1059,67; 2299,404;  228,185; 2524,575;90,19455
1060,21; 2262,404;  215,385; 2451,775;91,53227
1060,76; 2234,404;  235,185; 2440,975;90,63504
1061,30; 2214,261;  244,385; 2377,175;92,36145
1061,84; 2189,689;  210,185; 2358,375;92,14754
1062,38; 2129,975;  199,585; 2303,775;91,74029
1062,92; 2181,546;  260,985; 2322,375;93,16827
1063,46; 2130,832;  242,585; 2245,575;94,27142
1064,01; 2071,118;  204,785; 2226,575;92,31092
1064,55; 2061,404;  229,585; 2221,575;91,95923
1065,09; 2022,118;  198,385; 2126,375;94,59244
1065,63; 2051,546;  230,785; 2131,775;95,77964
1066,17; 2040,546;  245,785; 2102,975;96,63855
1066,71; 2006,118;  231,785; 2098,775;95,03708
1067,25; 1943,832;  237,185; 2061,175;93,56669
1067,80; 1950,404;  238,385; 2045,975;94,71277
1068,34; 1948,118;  250,385; 2047,175;94,48699
1068,88; 1873,975;  217,585; 1981,175;93,92149
1069,42; 1891,546;  258,185; 1998,375;93,86110
1069,96; 1863,975;  225,385; 1939,175;95,61206
1070,50; 1859,975;  251,585; 1942,975;95,09279
1071,04; 1778,975;  203,185; 1908,175;92,42224
1071,58; 1772,118;  218,385; 1881,175;93,44132
1072,12; 1762,689;  218,785; 1812,975;96,84569
1072,66; 1761,975;  232,985; 1827,175;95,91015
1073,21; 1748,832;  235,985; 1839,175;94,36481
1073,75; 1733,261;  235,385; 1805,975;95,37026
1074,29; 1662,404;  240,585; 1778,575;92,44654
1074,83; 1680,404;  249,585; 1748,175;95,47765
1075,37; 1691,975;  243,785; 1726,975;97,64022
1075,91; 1656,832;  232,185; 1720,975;95,69161
1076,45; 1637,546;  228,385; 1687,775;96,55825
1076,99; 1607,261;  254,785; 1650,975;96,86903
1077,53; 1576,689;  222,185; 1646,575;95,09364
1078,07; 1588,546;  241,185; 1615,975;98,00489
1078,61; 1549,975;  218,785; 1609,375;95,72843
1079,15; 1527,689;  222,985; 1585,575;95,75179
1079,69; 1521,832;  223,985; 1549,175;97,93668
1080,23; 1529,689;  244,385; 1572,175;96,80027
1080,77; 1546,118;  246,985; 1569,375;98,24128
1081,31; 1459,404;  203,985; 1501,375;96,76493
1081,85; 1465,832;  245,185; 1514,175;96,19045
1082,39; 1444,832;  215,385; 1467,975;98,15240
1082,93; 1441,404;  210,785; 1449,975;99,30830
1083,47; 1381,546;  214,785; 1425,775;96,34773
1084,01; 1409,832;  250,185; 1426,975;98,54325
1084,55; 1361,546;  212,385; 1393,175;97,32141
1085,09; 1390,689;  242,585; 1387,375;100,28951
1085,63; 1333,975;  223,185; 1392,375;95,00509
1086,17; 1332,975;  220,585; 1358,775;97,73324
1086,71; 1291,546;  236,585; 1333,575;96,16874
1087,24; 1334,689;  248,585; 1347,175;98,86348
1087,78; 1314,975;  222,985; 1311,775;100,29390
1088,32; 1271,689;  213,785; 1278,575;99,35333
1088,86; 1286,404;  242,385; 1315,375;97,29993
1089,40; 1254,404;  219,785; 1272,175;98,31133
1089,94; 1210,975;  196,585; 1241,175;97,10891
1090,48; 1207,261;  226,985; 1241,775;96,59887
1091,02; 1224,975;  233,785; 1239,175;98,58761
1091,56; 1218,404;  234,985; 1212,175;100,63740
1092,10; 1169,118;  217,785; 1190,975;97,75407
1092,63; 1188,404;  248,985; 1209,575;97,79600
1093,17; 1164,975;  230,985; 1195,975;96,78753
1093,71; 1134,118;  227,385; 1151,775;98,08986
1094,25; 1164,975;  249,785; 1176,375;98,76968
1094,79; 1103,689;  247,785; 1129,175;97,10846
1095,33; 1110,546;  232,585; 1100,975;101,10220
1095,87; 1096,975;  230,985; 1142,375;95,01860
1096,40; 1073,832;  206,985; 1087,375;98,46172
1096,94; 1092,261;  238,785; 1072,575;102,36099
1097,48; 1081,832;  235,185; 1090,775;98,95477
1098,02; 1045,975;  210,785; 1066,575;97,59287
1098,56; 1023,975;  196,985;  999,175;103,09154
1099,10;  997,546;  211,585;  999,375;99,76789
1099,63; 1015,975;  209,785; 1018,775;99,65389
1100,17; 1020,975;  244,185; 1028,775;99,00585
1100,71; 1043,975;  239,985; 1012,375;104,09120

