
Integration time [ms]: 130,000
Averaging Nr. [scans]: 7
Smoothing Nr. [pixels]: 0
Data measured with spectrometer [name]: 2009305U1
Wave   ;Sample   ;Dark     ;Reference;Reflectance
[nm]   ;[counts] ;[counts] ;[counts] ;[%]

 175,72;  208,409;  192,986;  201,498;181,19919
 176,32;  224,839;  222,384;  221,717; 0,00000
 176,92;  268,793;  241,385;  235,854; 0,00000
 177,52;  261,627;  259,786;  258,523; 0,00000
 178,12;  253,914;  246,984;  204,441; 0,00000
 178,72;  265,638;  250,783;  241,274; 0,00000
 179,32;  253,105;  247,384;  249,069;339,50007
 179,92;  265,728;  231,385;  239,762;409,95247
 180,52;  264,108;  244,988;  241,098; 0,00000
 181,12;  265,266;  248,385;  229,716; 0,00000
 181,73;  277,189;  272,585;  262,308; 0,00000
 182,33;  375,125;  306,387;  321,281;461,51602
 182,93;  280,691;  256,186;  256,932; 0,00000
 183,53;  247,788;  246,183;  223,624; 0,00000
 184,13;  241,721;  236,383;  230,131; 0,00000
 184,73;  292,791;  249,982;  256,507;656,11801
 185,33;  287,685;  234,768;  346,100;47,53129
 185,93;  293,899;  232,166;  351,877;51,56857
 186,53;  315,216;  241,967;  348,122;69,00212
 187,13;  344,462;  257,569;  394,908;63,26867
 187,73;  309,187;  220,566;  335,660;76,99862
 188,33;  309,648;  254,365;  362,824;50,97100
 188,93;  300,659;  244,562;  398,475;36,44715
 189,53;  317,962;  258,559;  392,476;44,35767
 190,13;  358,214;  283,155;  430,284;51,01566
 190,73;  290,933;  220,558;  363,114;49,36644
 191,34;  329,849;  253,561;  378,621;61,00157
 191,94;  299,502;  240,364;  345,758;56,11105
 192,54;  327,418;  245,370;  399,729;53,15388
 193,14;  316,904;  248,969;  381,307;51,33443
 193,74;  329,847;  249,968;  364,047;70,02065
 194,34;  319,035;  227,969;  353,891;72,31918
 194,94;  280,968;  218,569;  355,716;45,49766
 195,54;  254,597;  215,168;  334,977;32,91033
 196,14;  297,555;  221,569;  355,380;56,78600
 196,74;  285,466;  216,167;  336,993;57,35455
 197,34;  249,672;  188,971;  344,465;39,03762
 197,94;  286,866;  220,769;  365,195;45,76556
 198,54;  279,393;  238,769;  365,333;32,09717
 199,14;  287,869;  213,971;  370,842;47,10739
 199,74;  270,805;  202,971;  374,033;39,65468
 200,34;  269,216;  199,372;  356,968;44,31844
 200,94;  296,286;  232,170;  410,644;35,92427
 201,54;  298,138;  216,571;  406,478;42,95091
 202,14;  312,668;  231,172;  444,781;38,15175
 202,74;  300,588;  223,371;  453,508;33,55242
 203,34;  282,077;  184,573;  446,416;37,23779
 203,94;  284,349;  173,772;  465,735;37,87351
 204,54;  326,631;  229,569;  530,605;32,24253
 205,14;  297,849;  190,571;  533,994;31,23783
 205,74;  373,634;  239,373;  624,034;34,90360
 206,34;  340,712;  210,772;  632,343;30,82275
 206,94;  355,936;  212,972;  703,417;29,14996
 207,54;  319,494;  188,772;  726,418;24,31382
 208,14;  361,028;  196,172;  794,506;27,55249
 208,74;  395,346;  217,771;  891,670;26,35038
 209,34;  406,146;  210,171;  960,509;26,11813
 209,94;  450,825;  204,571; 1037,280;29,57258
 210,54;  446,966;  213,973; 1112,879;25,91965
 211,14;  498,667;  204,571; 1236,499;28,49963
 211,73;  498,944;  197,971; 1326,867;26,66087
 212,33;  548,207;  206,770; 1438,453;27,72112
 212,93;  550,188;  203,171; 1522,488;26,30276
 213,53;  552,568;  174,371; 1562,260;27,24978
 214,13;  602,806;  205,174; 1652,697;27,46986
 214,73;  600,811;  195,372; 1657,381;27,73160
 215,33;  596,396;  168,771; 1707,080;27,79838
 215,93;  671,007;  206,573; 1816,158;28,85431
 216,53;  656,439;  162,571; 1892,659;28,54580
 217,13;  760,597;  227,173; 2126,822;28,08013
 217,73;  837,737;  196,373; 2281,539;30,75842
 218,33;  850,749;  148,574; 2495,337;29,92100
 218,93; 1005,876;  192,576; 2756,037;31,72663
 219,53; 1107,971;  185,774; 3043,728;32,26773
 220,13; 1181,880;  168,574; 3315,721;32,19760
 220,73; 1309,269;  196,771; 3663,262;32,09290
 221,32; 1451,203;  176,771; 4002,670;33,31066
 221,92; 1606,480;  167,774; 4489,701;33,28853
 222,52; 1730,097;  177,173; 4825,264;33,40994
 223,12; 1892,477;  176,973; 5207,436;34,10231
 223,72; 2041,271;  185,573; 5646,427;33,98182
 224,32; 2135,690;  194,973; 5979,694;33,54902
 224,92; 2250,079;  176,373; 6339,999;33,64426
 225,52; 2428,158;  191,372; 6688,408;34,42780
 226,12; 2483,641;  188,373; 6945,384;33,96869
 226,72; 2583,916;  156,572; 7238,269;34,27630
 227,31; 2730,162;  154,172; 7537,973;34,88704
 227,91; 2870,886;  179,172; 7960,806;34,59060
 228,51; 2990,681;  181,371; 8348,198;34,39904
 229,11; 3159,270;  177,972; 8762,344;34,72936
 229,71; 3207,784;  176,971; 9024,802;34,25486
 230,31; 3341,274;  169,774; 9523,192;33,90740
 230,91; 3471,253;  158,770; 9767,098;34,47513
 231,51; 3491,269;  158,573;10040,244;33,72604
 232,10; 3596,931;  173,574;10533,432;33,04444
 232,70; 3710,606;  168,769;10665,091;33,74360
 233,30; 3826,627;  186,173;11029,985;33,57172
 233,90; 3825,159;  172,773;11194,690;33,13749
 234,50; 3870,821;  170,773;11401,596;32,94547
 235,10; 3849,365;  166,173;11490,599;32,52431
 235,70; 3933,787;  186,972;11624,368;32,75934
 236,29; 3898,168;  179,571;11659,240;32,39289
 236,89; 3825,836;  160,370;11714,814;31,72343
 237,49; 3790,478;  180,372;11688,736;31,36941
 238,09; 3705,283;  182,372;11480,943;31,18015
 238,69; 3654,777;  195,970;11405,171;30,85686
 239,29; 3479,745;  172,372;11141,789;30,15086
 239,89; 3356,161;  182,770;10898,509;29,61430
 240,48; 3148,529;  159,372;10599,047;28,63267
 241,08; 3051,611;  180,972;10337,522;28,26392
 241,68; 2903,318;  189,772;10061,372;27,48841
 242,28; 2731,267;  164,373; 9819,061;26,58703
 242,88; 2681,600;  198,374; 9482,888;26,74589
 243,48; 2551,685;  203,372; 9250,746;25,95574
 244,07; 2352,418;  177,372; 9107,911;24,35515
 244,67; 2329,758;  195,772; 9009,487;24,21210
 245,27; 2242,944;  195,971; 8880,267;23,57098
 245,87; 2176,490;  209,373; 8777,534;22,95845
 246,47; 2083,841;  188,171; 8790,362;22,03706
 247,06; 2104,154;  173,372; 8816,141;22,33985
 247,66; 2081,703;  172,972; 8941,810;21,76720
 248,26; 2114,074;  208,171; 9026,468;21,61305
 248,86; 2122,142;  197,971; 9181,944;21,41782
 249,46; 2163,618;  165,373; 9444,253;21,53542
 250,05; 2311,228;  195,972; 9783,266;22,06312
 250,65; 2364,692;  149,571;10138,313;22,17618
 251,25; 2453,901;  171,372;10609,388;21,86747
 251,85; 2632,387;  159,770;11118,766;22,56244
 252,44; 2790,592;  132,971;11710,174;22,95564
 253,04; 3010,412;  197,371;12463,062;22,93422
 253,64; 3215,277;  163,171;13112,912;23,56886
 254,24; 3519,864;  193,572;13970,475;24,14397
 254,84; 3807,333;  183,973;14890,853;24,63718
 255,43; 4143,484;  191,571;15757,603;25,38806
 256,03; 4437,657;  183,971;16591,684;25,92492
 256,63; 4822,082;  198,570;17660,118;26,47825
 257,23; 5108,117;  169,170;18345,547;27,17234
 257,82; 5520,342;  190,769;19251,922;27,96039
 258,42; 5840,763;  152,769;19951,490;28,72910
 259,02; 6217,027;  194,171;20729,623;29,32906
 259,62; 6535,170;  163,369;21428,059;29,96423
 260,21; 6809,469;  194,771;21896,222;30,48044
 260,81; 7131,911;  172,972;22326,403;31,41247
 261,41; 7342,987;  167,369;22570,864;32,02901
 262,01; 7644,359;  206,768;23108,504;32,47610
 262,60; 7888,260;  168,170;23373,147;33,26911
 263,20; 8144,131;  156,371;23500,628;34,21724
 263,80; 8324,975;  205,368;23599,066;34,70852
 264,40; 8544,469;  160,968;23819,858;35,43489
 264,99; 8722,166;  182,368;23843,294;36,09241
 265,59; 8880,438;  167,567;24059,513;36,46782
 266,19; 9103,911;  146,568;24172,257;37,28236
 266,78; 9299,246;  210,768;24316,185;37,70305
 267,38; 9323,888;  183,967;24330,944;37,85120
 267,98; 9425,833;  157,568;24150,966;38,62840
 268,58; 9643,849;  184,567;24217,448;39,35975
 269,17; 9650,162;  164,966;24285,346;39,32441
 269,77; 9673,410;  198,370;24085,497;39,66588
 270,37; 9664,067;  147,368;23944,855;39,99035
 270,96; 9685,608;  207,769;23900,074;40,00387
 271,56; 9670,328;  182,770;23601,023;40,51352
 272,16; 9645,912;  177,569;23375,339;40,81575
 272,75; 9665,518;  187,969;23411,568;40,80999
 273,35; 9714,294;  190,969;23294,694;41,21987
 273,95; 9782,312;  185,769;23354,159;41,42084
 274,54; 9721,415;  158,572;23331,028;41,26815
 275,14;10010,861;  192,569;23707,828;41,75285
 275,74;10029,257;  153,369;23879,482;41,62455
 276,33;10270,779;  203,970;24142,154;42,05335
 276,93;10487,008;  188,772;24583,858;42,21439
 277,53;10676,104;  192,571;25175,231;41,96324
 278,12;10954,453;  166,570;25657,758;42,32005
 278,72;11254,705;  205,171;26178,411;42,54199
 279,32;11517,305;  164,571;26753,991;42,69643
 279,91;11858,283;  171,371;27521,361;42,73096
 280,51;12050,100;  184,971;28009,765;42,64229
 281,11;12506,672;  196,371;28752,665;43,10889
 281,70;12781,784;  168,771;29039,102;43,68850
 282,30;13231,899;  164,370;29898,623;43,94773
 282,90;13438,126;  162,570;30314,080;44,02949
 283,49;13779,087;  190,569;30828,085;44,35254
 284,09;14232,730;  203,370;31190,426;45,27490
 284,69;14356,452;  185,371;31498,658;45,25581
 285,28;14715,508;  210,370;31942,235;45,71158
 285,88;14967,424;  227,969;32156,996;46,16318
 286,47;15080,475;  177,970;32188,289;46,55532
 287,07;15365,226;  194,771;32347,001;47,18321
 287,67;15631,542;  195,172;32354,546;47,99960
 288,26;15779,678;  184,971;32405,315;48,40019
 288,86;16101,789;  186,570;32495,769;49,25909
 289,46;16471,584;  186,371;32680,542;50,11734
 290,05;16681,679;  179,172;32626,997;50,85859
 290,65;17124,302;  185,370;32941,526;51,71221
 291,24;17401,788;  194,771;32878,468;52,64709
 291,84;17782,939;  202,970;33219,118;53,24658
 292,44;18086,858;  169,373;33300,709;54,08018
 293,03;18473,768;  246,171;33547,421;54,73548
 293,63;18547,229;  186,770;33615,584;54,92405
 294,22;19023,120;  208,371;33698,513;56,17996
 294,82;19241,179;  182,368;33743,792;56,78785
 295,41;19093,213;  156,771;33498,702;56,79468
 296,01;19269,965;  227,569;33383,433;57,43297
 296,61;19211,832;  194,371;33207,630;57,60553
 297,20;18966,222;  196,769;32826,653;57,52228
 297,80;18954,967;  204,972;32694,780;57,71039
 298,39;18592,387;  175,570;32287,366;57,35219
 298,99;18667,362;  191,569;32103,970;57,89534
 299,58;18505,536;  202,372;31960,897;57,63229
 300,18;18256,429;  209,372;31811,026;57,10795
 300,78;17922,095;  171,771;31484,299;56,68761
 301,37;17854,140;  207,968;31547,997;56,30554
 301,97;17767,687;  187,571;31411,847;56,30272
 302,56;17630,686;  182,570;31378,165;55,93135
 303,16;17427,788;  154,770;31499,886;55,10593
 303,75;17425,939;  174,571;31460,900;55,14027
 304,35;17383,378;  188,573;31471,397;54,96564
 304,94;17303,969;  194,771;31687,381;54,32766
 305,54;17140,775;  187,371;31750,070;53,71342
 306,13;16935,985;  151,573;31621,627;53,33455
 306,73;16767,799;  159,173;31458,566;53,06373
 307,33;16585,201;  198,772;31266,869;52,74359
 307,92;16398,522;  181,971;31330,916;52,06132
 308,52;16468,896;  169,770;31983,457;51,23306
 309,11;16585,974;  176,969;32351,365;51,00020
 309,71;16662,093;  152,968;32616,552;50,85429
 310,30;16569,059;  174,971;32954,887;50,01260
 310,90;16637,059;  185,971;33262,687;49,73616
 311,49;16389,841;  183,771;33381,562;48,81671
 312,09;16433,183;  151,372;33501,122;48,82139
 312,68;16346,282;  211,971;33895,860;47,89919
 313,28;16141,665;  158,371;34163,316;47,00285
 313,87;16074,472;  155,571;34084,705;46,91809
 314,47;15989,527;  180,169;34410,101;46,18577
 315,06;15819,907;  167,171;34623,354;45,42794
 315,66;15644,468;  175,372;34781,722;44,70017
 316,25;15394,720;  155,370;34635,211;44,19785
 316,85;15310,853;  151,972;34745,960;43,81941
 317,44;15098,172;  158,569;34808,042;43,11639
 318,04;14854,165;  154,570;34964,575;42,22808
 318,63;14625,390;  152,173;34926,013;41,62099
 319,22;14444,775;  179,570;35223,088;40,70711
 319,82;14297,103;  169,770;35286,149;40,23004
 320,41;14021,810;  180,770;35143,517;39,58796
 321,01;13793,029;  184,572;35123,206;38,94960
 321,60;13572,956;  168,770;35341,283;38,10983
 322,20;13320,375;  157,971;35299,850;37,45504
 322,79;13175,355;  208,771;35313,402;36,93696
 323,39;13009,919;  169,373;35372,034;36,47607
 323,98;12713,632;  144,771;35282,670;35,77010
 324,58;12436,773;  178,970;35129,905;35,07146
 325,17;12274,592;  196,170;35027,392;34,67700
 325,76;12038,067;  188,171;34881,219;34,15640
 326,36;11669,827;  149,972;34539,463;33,49818
 326,95;11408,563;  188,371;34192,512;32,99655
 327,55;11043,128;  153,970;33899,863;32,26810
 328,14;10799,224;  170,972;33373,200;32,01066
 328,74;10474,179;  209,170;33084,174;31,22436
 329,33;10199,280;  182,972;32760,777;30,74580
 329,92; 9828,255;  158,569;31966,499;30,40024
 330,52; 9517,279;  188,172;31457,277;29,83490
 331,11; 9201,547;  179,770;31131,730;29,14768
 331,71; 8901,997;  183,571;30498,361;28,75965
 332,30; 8640,969;  180,371;29967,981;28,40308
 332,89; 8424,634;  211,371;29360,253;28,17694
 333,49; 8094,868;  177,171;28810,559;27,65197
 334,08; 7832,394;  185,570;28460,415;27,04462
 334,68; 7574,024;  184,370;28111,558;26,46043
 335,27; 7467,039;  194,572;27666,421;26,47243
 335,86; 7250,404;  225,970;27437,330;25,81434
 336,46; 7105,320;  194,772;27302,755;25,49267
 337,05; 6941,508;  170,170;27101,835;25,14266
 337,65; 6729,187;  161,970;26927,606;24,53600
 338,24; 6723,001;  230,171;26958,727;24,29173
 338,83; 6554,262;  214,371;26752,013;23,89018
 339,43; 6468,430;  166,370;26752,745;23,70410
 340,02; 6368,113;  181,970;26565,382;23,44709
 340,61; 6343,744;  175,971;26737,307;23,22087
 341,21; 6276,322;  207,170;26763,374;22,85399
 341,80; 6210,925;  187,370;26798,720;22,63529
 342,40; 6146,397;  194,772;26864,163;22,31631
 342,99; 6078,634;  180,971;26944,253;22,03639
 343,58; 6059,137;  176,772;27133,577;21,82145
 344,18; 5978,251;  180,572;27216,597;21,44427
 344,77; 6028,340;  173,570;27606,039;21,34248
 345,36; 6057,705;  160,371;27912,912;21,24971
 345,96; 6101,319;  210,972;28078,872;21,13667
 346,55; 6106,629;  176,173;28447,768;20,97673
 347,14; 6174,599;  160,972;28783,106;21,01041
 347,74; 6141,893;  139,974;29189,920;20,66069
 348,33; 6337,764;  191,974;29817,918;20,74462
 348,92; 6371,011;  183,775;30549,105;20,37599
 349,52; 6488,752;  156,174;30955,103;20,56103
 350,11; 6505,940;  162,170;31210,819;20,43171
 350,70; 6556,113;  172,171;31120,364;20,62784
 351,29; 6495,635;  152,368;30924,689;20,61355
 351,89; 6519,668;  179,969;30993,518;20,57439
 352,48; 6498,340;  148,171;30885,421;20,65952
 353,07; 6544,443;  183,172;30877,907;20,72431
 353,67; 6573,145;  190,175;30820,573;20,83868
 354,26; 6460,334;  178,172;30601,753;20,64899
 354,85; 6437,198;  177,172;30468,703;20,66593
 355,45; 6453,200;  147,370;30439,404;20,81679
 356,04; 6451,414;  173,573;30375,327;20,78635
 356,63; 6445,272;  206,771;30066,646;20,89259
 357,22; 6415,294;  184,368;29905,512;20,96462
 357,82; 6439,060;  187,968;29668,706;21,20399
 358,41; 6498,052;  199,771;29572,438;21,44266
 359,00; 6499,021;  163,770;29435,592;21,64283
 359,60; 6479,981;  185,571;29456,479;21,50398
 360,19; 6528,608;  182,373;29120,338;21,93048
 360,78; 6517,576;  182,770;29146,310;21,87166
 361,37; 6511,655;  189,170;28916,701;22,00845
 361,97; 6608,244;  182,971;28635,265;22,58262
 362,56; 6585,555;  167,969;28360,780;22,76320
 363,15; 6649,541;  215,170;28158,481;23,02652
 363,74; 6600,769;  172,569;27752,539;23,30749
 364,34; 6576,065;  182,370;27352,554;23,53203
 364,93; 6560,973;  175,169;26963,065;23,83839
 365,52; 6514,262;  145,370;26728,130;23,95873
 366,11; 6531,612;  181,770;26167,240;24,43613
 366,71; 6512,203;  159,970;26022,688;24,56135
 367,30; 6553,094;  174,170;25559,416;25,12847
 367,89; 6569,385;  206,172;25401,865;25,25516
 368,48; 6553,927;  166,169;25075,721;25,64381
 369,07; 6476,970;  183,571;24633,164;25,74030
 369,67; 6591,283;  191,769;24284,979;26,56148
 370,26; 6530,986;  168,771;24087,545;26,59925
 370,85; 6540,813;  186,170;23838,483;26,86690
 371,44; 6569,554;  177,571;23618,579;27,26838
 372,03; 6611,370;  168,370;23337,002;27,80915
 372,63; 6577,519;  147,771;23093,550;28,02148
 373,22; 6629,467;  167,171;22783,439;28,57366
 373,81; 6565,365;  147,170;22461,635;28,76248
 374,40; 6602,958;  169,372;22139,047;29,28394
 374,99; 6610,728;  165,970;21953,443;29,58011
 375,59; 6618,415;  156,172;21667,828;30,04066
 376,18; 6709,763;  191,770;21468,872;30,63384
 376,77; 6723,076;  203,371;21364,952;30,80916
 377,36; 6807,754;  199,370;21278,940;31,34971
 377,95; 6790,218;  176,570;20936,669;31,85750
 378,55; 6831,743;  175,772;20880,606;32,14694
 379,14; 6897,020;  198,770;20761,892;32,57409
 379,73; 6978,234;  184,170;20648,651;33,19930
 380,32; 7048,120;  202,171;20712,913;33,37739
 380,91; 7082,859;  151,769;20583,445;33,92326
 381,50; 7145,206;  179,570;20550,771;34,19355
 382,10; 7223,692;  162,771;20394,913;34,89952
 382,69; 7236,532;  160,970;20364,549;35,02133
 383,28; 7371,990;  192,770;20401,829;35,52476
 383,87; 7381,236;  157,570;20188,334;36,06286
 384,46; 7484,381;  162,369;20195,735;36,54909
 385,05; 7596,186;  202,570;20207,523;36,95893
 385,64; 7647,612;  171,770;20158,440;37,40414
 386,24; 7739,223;  156,168;20099,553;38,02291
 386,83; 7810,561;  192,168;20144,447;38,18307
 387,42; 7995,627;  200,570;20295,621;38,79093
 388,01; 8104,451;  177,767;20546,811;38,91534
 388,60; 8359,899;  179,569;20726,841;39,81225
 389,19; 8454,752;  159,766;21010,611;39,78249
 389,78; 8698,035;  180,366;21128,927;40,65992
 390,37; 8983,692;  208,568;21641,549;40,94215
 390,96; 9094,370;  186,168;21815,620;41,18552
 391,56; 9284,315;  182,966;21914,379;41,88108
 392,15; 9475,874;  157,167;22239,463;42,19990
 392,74; 9587,322;  149,764;22406,546;42,40307
 393,33; 9887,043;  154,165;22663,977;43,23838
 393,92;10154,143;  188,363;23131,835;43,43624
 394,51;10310,333;  163,965;23327,444;43,80330
 395,10;10572,273;  194,760;23569,872;44,39556
 395,69;10637,039;  182,161;23573,066;44,69634
 396,28;10886,344;  182,959;23658,331;45,59410
 396,87;11008,702;  201,757;23993,409;45,42326
 397,46;11072,449;  181,955;24041,473;45,64423
 398,06;11335,145;  204,753;24189,344;46,40643
 398,65;11369,112;  197,949;24189,052;46,56377
 399,24;11623,012;  180,348;24500,131;47,05085
 399,83;11618,682;  163,741;24445,460;47,17517
 400,42;11819,806;  206,135;24512,385;47,78060
 401,01;11956,346;  170,928;24724,112;47,99955
 401,60;12048,701;  181,918;24816,096;48,17203
 402,19;12175,056;  194,110;24662,362;48,96527
 402,78;12198,346;  219,099;24613,473;49,10660
 403,37;12135,143;  196,288;24505,274;49,11293
 403,96;12245,671;  187,674;24293,776;50,02052
 404,55;12234,310;  192,660;24133,732;50,29704
 405,14;12226,359;  184,247;24038,022;50,48305
 405,73;12264,391;  197,631;23981,267;50,73556
 406,32;12406,524;  191,621;24101,578;51,08710
 406,91;12327,876;  187,609;23737,316;51,55167
 407,50;12292,674;  185,002;23539,545;51,84290
 408,09;12242,239;  152,198;23115,950;52,64837
 408,68;12246,385;  182,995;23193,869;52,42473
 409,27;12174,275;  154,999;22857,262;52,94308
 409,86;12147,549;  157,808;22774,037;53,01388
 410,45;12217,970;  211,416;22694,697;53,40214
 411,04;12268,112;  212,624;22573,806;53,91257
 411,63;12077,645;  196,235;22229,067;53,92593
 412,22;12131,802;  191,644;22057,939;54,60531
 412,81;11969,476;  201,048;21784,907;54,52421
 413,40;11852,527;  210,252;21438,664;54,84289
 413,99;11747,379;  258,651;21227,216;54,79025
 414,58;11519,765;  187,452;20694,737;55,25994
 415,17;11449,126;  175,248;20501,298;55,46517
 415,76;11365,154;  180,244;20395,432;55,32924
 416,35;11399,995;  174,846;20161,732;56,16257
 416,94;11520,298;  222,045;20313,714;56,23352
 417,53;11692,064;  177,648;20493,672;56,67653
 418,12;11748,450;  174,049;20614,393;56,62528
 418,71;11928,232;  197,252;20941,732;56,54989
 419,30;12021,792;  181,049;21012,852;56,83974
 419,89;12158,226;  185,050;21163,001;57,07505
 420,48;12441,474;  199,052;21489,970;57,50067
 421,07;12458,277;  204,653;21596,176;57,28262
 421,66;12607,375;  164,255;21538,096;58,21658
 422,25;12617,101;  185,259;21534,257;58,23150
 422,84;12690,166;  208,860;21487,749;58,65582
 423,43;12524,469;  195,258;21191,232;58,72179
 424,02;12379,130;  218,859;20971,837;58,59531
 424,60;12294,369;  191,663;20564,538;59,40598
 425,19;12107,377;  209,061;20305,406;59,20637
 425,78;12143,359;  205,261;20207,342;59,68428
 426,37;12031,770;  206,063;20111,059;59,41075
 426,96;12089,992;  205,863;19945,049;60,20577
 427,55;12014,621;  188,865;19762,574;60,41653
 428,14;11810,456;  183,867;19519,125;60,13155
 428,73;11761,367;  208,464;19341,737;60,38122
 429,32;11798,768;  205,063;19425,276;60,32038
 429,91;11935,930;  228,464;19418,805;61,00707
 430,50;11855,057;  205,466;19183,005;61,38621
 431,08;11753,003;  226,467;18999,311;61,40005
 431,67;11668,913;  268,868;19016,987;60,80634
 432,26;11703,074;  281,070;18905,633;61,32763
 432,85;11511,672;  281,869;18476,831;61,71930
 433,44;11240,034;  293,471;18078,520;61,54925
 434,03;11074,923;  304,473;17738,947;61,77674
 434,62;10787,474;  268,471;17308,235;61,73209
 435,21;10698,147;  309,069;17213,975;61,45599
 435,79;10617,661;  281,872;16934,179;62,06821
 436,38;10601,697;  278,275;16896,072;62,12269
 436,97;10493,285;  274,475;16729,837;62,10019
 437,56;10388,788;  266,478;16623,825;61,88234
 438,15;10299,343;  255,878;16496,161;61,84292
 438,74;10449,991;  252,078;16499,268;62,76724
 439,33;10423,515;  229,677;16456,341;62,82152
 439,91;10466,870;  196,479;16520,581;62,91551
 440,50;10553,226;  232,479;16621,240;62,97454
 441,09;10573,329;  254,681;16749,826;62,55567
 441,68;10578,609;  232,283;16730,041;62,71353
 442,27;10621,406;  209,882;16687,816;63,18465
 442,86;10621,742;  206,287;16651,772;63,33322
 443,44;10711,623;  203,886;16753,004;63,49424
 444,03;10728,369;  273,887;16791,849;63,29160
 444,62;10661,635;  204,087;16619,601;63,70527
 445,21;10571,020;  219,286;16471,340;63,69493
 445,80;10599,377;  221,889;16363,863;64,28884
 446,39;10450,591;  255,888;16196,422;63,95459
 446,97;10270,925;  209,491;15841,813;64,36302
 447,56;10151,289;  201,493;15706,886;64,16991
 448,15;10023,255;  204,091;15505,975;64,16964
 448,74; 9925,257;  230,291;15290,758;64,37361
 449,33; 9862,602;  211,892;15142,083;64,63889
 449,91; 9709,165;  223,095;14894,015;64,65900
 450,50; 9557,669;  196,694;14714,040;64,48131
 451,09; 9541,445;  211,295;14708,166;64,35975
 451,68; 9425,742;  235,696;14536,163;64,26396
 452,26; 9436,055;  227,697;14402,943;64,96084
 452,85; 9335,080;  211,896;14299,357;64,76102
 453,44; 9319,935;  219,299;14312,838;64,57311
 454,03; 9295,843;  191,497;14305,367;64,50638
 454,61; 9269,857;  207,099;14368,230;63,99742
 455,20; 9419,781;  220,300;14521,704;64,32572
 455,79; 9400,733;  222,498;14447,995;64,51961
 456,38; 9530,453;  223,302;14552,908;64,95050
 456,97; 9495,144;  213,701;14622,094;64,41692
 457,55; 9492,272;  212,703;14558,695;64,68405
 458,14; 9477,644;  229,501;14553,453;64,56418
 458,73; 9437,623;  214,503;14483,287;64,63845
 459,31; 9476,750;  232,705;14529,387;64,65867
 459,90; 9610,417;  247,904;14600,360;65,23283
 460,49; 9711,379;  283,703;14696,165;65,41336
 461,08; 9656,436;  207,506;14867,089;64,45566
 461,66; 9645,552;  224,505;14888,910;64,24432
 462,25; 9709,497;  226,907;14940,115;64,44951
 462,84; 9814,788;  251,506;15011,281;64,79287
 463,43; 9698,507;  194,909;14974,511;64,30212
 464,01; 9789,848;  218,710;14995,271;64,77244
 464,60; 9767,600;  257,108;14803,201;65,38176
 465,19; 9522,951;  185,910;14720,475;64,24025
 465,77; 9554,835;  217,911;14554,854;65,12493
 466,36; 9544,098;  245,309;14525,559;65,11643
 466,95; 9305,508;  200,709;14226,494;64,91472
 467,53; 9125,587;  204,512;13914,149;65,07156
 468,12; 8979,668;  249,513;13740,122;64,71283
 468,71; 8867,770;  230,310;13415,162;65,51048
 469,29; 8587,118;  191,513;13187,353;64,60225
 469,88; 8382,444;  227,514;12883,731;64,43419
 470,47; 8521,949;  255,916;12949,820;65,11813
 471,06; 8485,738;  220,316;13005,744;64,64720
 471,64; 8465,163;  220,515;13189,379;63,57263
 472,23; 8505,804;  196,519;13015,701;64,81915
 472,81; 8533,334;  188,917;13223,040;64,01978
 473,40; 8638,819;  191,319;13326,682;64,31113
 473,99; 8843,573;  285,319;13423,177;65,14193
 474,57; 8803,316;  209,519;13701,757;63,69438
 475,16; 8899,307;  222,117;13824,843;63,79008
 475,75; 8953,444;  225,720;13942,558;63,62781
 476,33; 9036,178;  231,721;14015,988;63,87323
 476,92; 9087,959;  233,519;13987,799;64,37589
 477,51; 9145,326;  229,721;14118,754;64,19169
 478,09; 9153,691;  232,321;14143,545;64,13073
 478,68; 9080,079;  216,521;14012,349;64,24810
 479,27; 9184,927;  233,520;14178,435;64,19119
 479,85; 9102,310;  218,121;14165,872;63,69621
 480,44; 9152,137;  207,122;14306,392;63,44311
 481,02;10019,151;  229,523;16077,972;61,77026
 481,61;11339,088;  254,923;17850,264;62,99489
 482,20;12035,107;  254,723;19118,411;62,45006
 482,78;12539,401;  260,922;19733,161;63,05633
 483,37;12836,889;  262,525;19948,568;63,87451
 483,95;12977,576;  295,325;20382,571;63,13584
 484,54;13144,165;  297,122;20576,671;63,34975
 485,13;13129,912;  258,327;20626,963;63,19316
 485,71;13078,667;  265,126;20428,959;63,54715
 486,30;12918,032;  288,926;20149,750;63,58802
 486,88;12752,961;  315,727;19817,991;63,77328
 487,47;12258,890;  305,527;19173,432;63,35289
 488,05;11701,165;  304,528;18210,999;63,64536
 488,64;10909,653;  297,729;16839,124;64,15374
 489,23; 9754,301;  293,128;14766,050;65,37155
 489,81; 8252,841;  292,329;12721,186;64,04863
 490,40; 7767,942;  236,929;12197,408;62,96581
 490,98; 7579,754;  233,530;11871,146;63,12482
 491,57; 7495,879;  277,529;11845,499;62,39945
 492,15; 7455,736;  261,530;11813,481;62,27698
 492,74; 7358,033;  257,928;11767,515;61,68862
 493,32; 7337,906;  259,930;11624,078;62,28339
 493,91; 7287,194;  231,331;11482,743;62,71091
 494,50; 7192,705;  245,333;11400,981;62,27672
 495,08; 7169,142;  225,733;11356,514;62,38026
 495,67; 7105,272;  241,930;11337,151;61,85854
 496,25; 7039,208;  210,132;11263,524;61,78263
 496,84; 6985,158;  202,730;11298,531;61,12607
 497,42; 6987,192;  197,532;11106,042;62,24186
 498,01; 6908,032;  219,131;11139,496;61,25163
 498,59; 6855,115;  203,133;11065,034;61,24141
 499,18; 6788,693;  202,331;11012,202;60,92915
 499,76; 6779,735;  205,132;10907,562;61,43094
 500,35; 6618,148;  203,734;10683,262;61,20899
 500,93; 6584,403;  187,332;10677,317;60,98265
 501,52; 6536,587;  200,133;10557,596;61,17767
 502,10; 6500,298;  208,535;10546,594;60,86020
 502,69; 6419,989;  196,336;10400,362;60,99213
 503,27; 6243,637;  190,133;10262,506;60,10007
 503,86; 6181,425;  209,735;10065,112;60,59321
 504,44; 6120,465;  182,936;10030,290;60,29568
 505,03; 5947,056;  162,736; 9694,137;60,68699
 505,61; 5852,817;  192,536; 9702,182;59,52147
 506,19; 5829,307;  204,136; 9472,108;60,69473
 506,78; 5646,251;  172,338; 9340,713;59,70429
 507,36; 5546,169;  183,936; 9137,175;59,89154
 507,95; 5437,681;  181,139; 9036,995;59,35668
 508,53; 5352,276;  187,138; 8897,027;59,30199
 509,12; 5272,172;  199,738; 8754,622;59,29284
 509,70; 5181,017;  204,739; 8637,406;59,01191
 510,29; 5102,216;  205,340; 8415,965;59,64072
 510,87; 4929,522;  174,738; 8270,731;58,73009
 511,46; 4817,697;  177,338; 8086,477;58,67085
 512,04; 4763,463;  186,939; 7957,770;58,89362
 512,62; 4647,205;  196,138; 7778,868;58,70005
 513,21; 4545,147;  171,140; 7678,090;58,26611
 513,79; 4427,714;  197,143; 7549,188;57,54279
 514,38; 4310,215;  181,142; 7320,047;57,83902
 514,96; 4283,962;  209,742; 7281,093;57,61587
 515,54; 4213,080;  181,542; 7104,679;58,23282
 516,13; 4133,392;  186,942; 7021,976;57,73856
 516,71; 4007,203;  192,944; 6926,813;56,64291
 517,30; 3943,250;  181,145; 6826,840;56,60966
 517,88; 3910,215;  188,345; 6746,811;56,74910
 518,46; 3800,258;  170,545; 6594,672;56,50127
 519,05; 3733,116;  179,746; 6495,754;56,25975
 519,63; 3723,433;  191,345; 6542,018;55,61754
 520,22; 3679,101;  217,947; 6442,155;55,60794
 520,80; 3568,334;  187,147; 6364,261;54,73732
 521,38; 3583,758;  210,146; 6401,013;54,49337
 521,97; 3550,049;  200,348; 6282,943;55,07026
 522,55; 3491,418;  199,748; 6282,800;54,11215
 523,13; 3483,167;  179,949; 6301,529;53,96022
 523,72; 3484,509;  168,345; 6249,243;54,53412
 524,30; 3539,172;  211,950; 6385,078;53,89849
 524,89; 3515,139;  176,548; 6358,449;54,00589
 525,47; 3551,697;  200,750; 6540,633;52,85503
 526,05; 3586,600;  161,550; 6521,777;53,85106
 526,64; 3652,604;  201,551; 6660,943;53,42690
 527,22; 3693,455;  202,350; 6749,594;53,32175
 527,80; 3732,509;  216,751; 6871,971;52,82708
 528,39; 3782,440;  197,351; 6962,595;52,99275
 528,97; 3810,201;  197,551; 7113,440;52,23696
 529,55; 3866,921;  203,749; 7325,624;51,43549
 530,14; 3990,488;  207,752; 7528,922;51,66846
 530,72; 3959,423;  185,551; 7652,030;50,54420
 531,30; 4048,149;  177,752; 7705,828;51,41283
 531,89; 4107,395;  197,552; 7831,933;51,21363
 532,47; 4189,669;  228,752; 7901,317;51,62442
 533,05; 4149,430;  233,151; 8000,980;50,41665
 533,63; 4177,774;  227,153; 8024,404;50,66685
 534,22; 4183,834;  184,953; 8097,148;50,54073
 534,80; 4213,458;  208,154; 8130,623;50,55626
 535,38; 4275,298;  261,952; 8300,477;49,92640
 535,97; 4161,788;  217,952; 8189,603;49,47326
 536,55; 4229,996;  239,754; 8349,577;49,20258
 537,13; 4176,483;  259,552; 8289,256;48,78052
 537,71; 4190,536;  298,752; 8354,350;48,31155
 538,30; 4208,127;  324,553; 8330,979;48,50572
 538,88; 4203,092;  370,155; 8471,232;47,31392
 539,46; 4280,685;  409,954; 8696,680;46,71001
 540,05; 4273,000;  418,554; 8885,743;45,52214
 540,63; 4331,710;  489,755; 8987,277;45,21265
 541,21; 4396,981;  514,355; 9101,578;45,21399
 541,79; 4412,656;  550,155; 9207,482;44,61540
 542,38; 4491,339;  583,154; 9437,837;44,13692
 542,96; 4531,643;  595,756; 9546,966;43,97045
 543,54; 4608,625;  618,955; 9809,719;43,40956
 544,12; 4626,741;  575,756; 9945,922;43,23280
 544,70; 4668,309;  567,556; 9959,138;43,66413
 545,29; 4738,580;  575,354;10202,475;43,24477
 545,87; 4696,085;  539,155;10182,482;43,10680
 546,45; 4661,161;  494,954;10226,408;42,81176
 547,03; 4705,604;  481,555;10286,689;43,07997
 547,62; 4743,401;  445,155;10398,845;43,18243
 548,20; 4776,002;  442,556;10554,508;42,85469
 548,78; 4772,635;  423,559;10673,898;42,42861
 549,36; 4872,082;  378,158;10871,763;42,82536
 549,94; 4898,438;  338,556;10875,057;43,27700
 550,53; 4960,582;  337,358;11173,922;42,66319
 551,11; 5022,437;  320,159;11369,121;42,55855
 551,69; 5111,924;  321,158;11645,981;42,30323
 552,27; 5157,050;  263,357;11964,718;41,82157
 552,85; 5296,501;  262,159;12227,130;42,07567
 553,44; 5389,396;  260,958;12593,143;41,58580
 554,02; 5511,183;  280,559;12963,584;41,24114
 554,60; 5604,936;  217,759;13196,779;41,50680
 555,18; 5800,328;  271,558;13667,468;41,27208
 555,76; 5917,631;  251,559;13974,632;41,28865
 556,34; 6052,908;  240,560;14358,681;41,16941
 556,93; 6121,383;  228,358;14680,944;40,77488
 557,51; 6212,598;  209,960;14982,768;40,63302
 558,09; 6286,609;  232,158;15343,801;40,06481
 558,67; 6476,909;  236,761;15780,364;40,14608
 559,25; 6554,309;  255,961;15964,284;40,09561
 559,83; 6671,741;  221,562;16289,350;40,14354
 560,41; 6709,768;  221,760;16657,165;39,47580
 561,00; 6790,520;  218,961;17034,859;39,07944
 561,58; 6825,713;  214,160;17279,088;38,74352
 562,16; 6867,068;  211,959;17477,464;38,54569
 562,74; 6978,528;  185,759;17965,327;38,20548
 563,32; 7116,376;  200,362;18437,359;37,92299
 563,90; 7248,929;  224,961;18787,212;37,84006
 564,48; 7345,485;  225,160;19233,648;37,45866
 565,06; 7481,858;  212,161;19645,953;37,40751
 565,65; 7607,552;  215,363;20566,587;36,32307
 566,23; 7858,722;  265,961;21284,202;36,12462
 566,81; 8074,373;  220,561;21811,894;36,37484
 567,39; 8323,679;  241,762;22814,523;35,80385
 567,97; 8502,867;  243,961;23468,486;35,56114
 568,55; 8716,932;  233,162;24299,977;35,25091
 569,13; 8867,126;  208,961;24989,088;34,93995
 569,71; 9177,560;  226,159;25929,073;34,82641
 570,29; 9557,713;  262,958;26884,706;34,91414
 570,87; 9643,312;  260,159;27621,986;34,29286
 571,45; 9859,179;  260,561;28308,382;34,22233
 572,03; 9876,986;  207,762;28687,954;33,95070
 572,61;10059,405;  205,562;29493,539;33,64467
 573,20;10254,327;  253,960;30196,149;33,39892
 573,78;10410,396;  237,562;30789,806;33,29652
 574,36;10552,950;  247,561;31220,242;33,27251
 574,94;10605,293;  271,162;31592,384;32,99402
 575,52;10589,728;  227,364;31876,615;32,74126
 576,10;10727,305;  291,163;32314,782;32,58889
 576,68;10836,641;  281,962;32978,611;32,28061
 577,26;10940,373;  282,765;33716,239;31,87706
 577,84;11054,207;  314,361;34175,662;31,71717
 578,42;11117,548;  332,563;34450,721;31,61069
 579,00;10999,701;  282,962;34449,854;31,36586
 579,58;10970,249;  314,963;34647,623;31,03542
 580,16;10898,224;  304,563;34683,208;30,81466
 580,74;10855,501;  320,163;35084,276;30,30521
 581,32;10778,541;  300,363;35042,672;30,15971
 581,90;10752,697;  308,963;35056,770;30,05581
 582,48;10686,815;  323,563;35155,656;29,75202
 583,06;10682,388;  327,563;35249,557;29,65130
 583,64;10668,111;  322,562;35423,889;29,47338
 584,22;10416,849;  320,164;35040,284;29,08021
 584,80;10322,666;  344,963;34743,607;29,00609
 585,38;10075,730;  333,160;34402,452;28,59634
 585,96; 9972,664;  315,962;34409,142;28,32444
 586,54; 9950,073;  351,964;34509,758;28,09932
 587,12; 9902,931;  306,564;34596,659;27,98583
 587,70; 9898,226;  333,362;34763,209;27,78073
 588,28; 9802,995;  320,363;34823,468;27,48342
 588,86; 9756,012;  312,964;35000,232;27,22338
 589,44; 9690,748;  299,765;35002,445;27,06126
 590,02; 9740,065;  311,965;35292,308;26,95257
 590,59; 9552,117;  283,364;35307,920;26,46359
 591,17; 9530,056;  275,567;35479,458;26,28825
 591,75; 9637,905;  279,566;35627,726;26,47476
 592,33; 9530,429;  292,366;35740,399;26,06086
 592,91; 9525,127;  243,367;36020,216;25,94348
 593,49; 9557,477;  253,767;36438,908;25,71141
 594,07; 9513,950;  263,167;36604,270;25,45543
 594,65; 9522,552;  294,964;36588,969;25,42455
 595,23; 9515,784;  266,765;37001,975;25,17753
 595,81; 9453,265;  254,965;37266,968;24,85221
 596,39; 9411,931;  252,565;37293,740;24,72752
 596,97; 9397,658;  251,967;37509,721;24,54708
 597,55; 9242,033;  256,365;37318,563;24,24483
 598,12; 9186,529;  237,968;37345,902;24,11495
 598,70; 9145,065;  234,367;37422,990;23,96082
 599,28; 9046,552;  257,567;37742,333;23,44682
 599,86; 9057,581;  238,367;37792,313;23,48412
 600,44; 8966,284;  205,967;37837,897;23,27895
 601,02; 8929,652;  252,969;37871,236;23,06508
 601,60; 8898,433;  247,766;38017,964;22,90342
 602,18; 8760,720;  211,768;37952,129;22,65202
 602,75; 8759,274;  231,365;37897,901;22,64054
 603,33; 8654,163;  238,167;37944,028;22,32013
 603,91; 8645,031;  235,169;37847,926;22,35907
 604,49; 8590,770;  240,167;37988,858;22,12157
 605,07; 8540,541;  267,166;37989,735;21,93216
 605,65; 8436,556;  275,568;38103,299;21,57409
 606,23; 8456,397;  313,964;38417,871;21,36902
 606,80; 8398,806;  387,765;38345,005;21,10543
 607,38; 8309,315;  416,568;38379,543;20,79064
 607,96; 8325,850;  473,965;38471,967;20,66394
 608,54; 8231,088;  556,368;38527,803;20,21183
 609,12; 8201,436;  539,765;38612,748;20,12364
 609,70; 8158,994;  566,567;38558,532;19,98430
 610,27; 8060,494;  583,965;38723,908;19,60288
 610,85; 8069,940;  613,567;38653,055;19,60166
 611,43; 7927,188;  590,967;38701,742;19,24973
 612,01; 7842,574;  553,366;38429,382;19,24492
 612,59; 7800,260;  558,967;38572,284;19,04936
 613,16; 7651,031;  545,364;38430,980;18,75558
 613,74; 7619,223;  498,767;38313,171;18,83001
 614,32; 7593,532;  441,568;38356,385;18,86324
 614,90; 7511,907;  421,966;37970,909;18,88187
 615,48; 7365,338;  377,365;37840,010;18,65318
 616,05; 7333,596;  335,764;37790,131;18,68362
 616,63; 7219,426;  347,564;37695,651;18,39950
 617,21; 7130,760;  318,965;37566,661;18,28783
 617,79; 7072,867;  321,566;37422,331;18,19720
 618,36; 7016,787;  317,366;37454,440;18,03971
 618,94; 6795,674;  270,365;37060,621;17,73652
 619,52; 6826,555;  298,764;36965,252;17,80315
 620,10; 6729,678;  269,565;36874,987;17,64797
 620,67; 6735,913;  287,364;36807,394;17,65757
 621,25; 6587,127;  299,566;36373,517;17,42964
 621,83; 6537,694;  292,565;36417,269;17,28770
 622,41; 6556,497;  318,765;36510,592;17,23519
 622,98; 6416,898;  307,364;36334,213;16,95828
 623,56; 6367,158;  305,963;36379,316;16,80241
 624,14; 6337,136;  258,167;36056,749;16,98103
 624,72; 6255,329;  273,565;36110,078;16,69182
 625,29; 6147,074;  252,364;35955,259;16,51046
 625,87; 6225,478;  300,966;36094,026;16,55213
 626,45; 6075,136;  257,563;35941,085;16,30325
 627,02; 6112,735;  266,766;35895,646;16,40795
 627,60; 6059,328;  251,167;35822,259;16,32832
 628,18; 6018,151;  244,365;35763,548;16,25540
 628,76; 5936,746;  246,764;35870,280;15,97255
 629,33; 5929,519;  269,364;35839,123;15,91283
 629,91; 5880,964;  268,565;35889,587;15,75586
 630,49; 5918,926;  276,764;35956,892;15,81318
 631,06; 5902,614;  277,964;36097,795;15,70262
 631,64; 5852,842;  279,563;36138,753;15,54212
 632,22; 5774,704;  229,363;35886,519;15,55183
 632,79; 5784,049;  236,363;36219,263;15,41756
 633,37; 5768,978;  241,966;36164,868;15,38576
 633,95; 5757,426;  254,963;36379,551;15,23191
 634,52; 5690,802;  225,965;36519,239;15,05744
 635,10; 5657,037;  237,565;36531,728;14,93207
 635,68; 5708,438;  223,963;36626,567;15,06616
 636,25; 5646,894;  227,562;36805,065;14,81603
 636,83; 5656,889;  202,364;36852,080;14,88286
 637,41; 5627,131;  232,762;36929,937;14,69968
 637,98; 5639,608;  240,162;37154,764;14,62686
 638,56; 5650,469;  226,961;37210,748;14,66455
 639,13; 5643,863;  212,564;37252,383;14,66341
 639,71; 5676,284;  266,964;37549,434;14,50902
 640,29; 5521,584;  211,964;37153,267;14,37313
 640,86; 5607,128;  230,164;37489,945;14,43101
 641,44; 5550,385;  211,764;37365,822;14,36888
 642,02; 5549,643;  241,964;37456,499;14,26238
 642,59; 5494,615;  209,564;37651,177;14,11545
 643,17; 5489,445;  215,764;37740,454;14,05389
 643,74; 5518,274;  227,564;37589,132;14,16083
 644,32; 5496,818;  243,964;37598,009;14,06234
 644,89; 5473,076;  239,564;37716,287;13,96470
 645,47; 5462,333;  269,364;37663,564;13,88710
 646,05; 5416,020;  235,364;37667,042;13,84030
 646,62; 5417,849;  229,765;37442,319;13,94176
 647,20; 5363,107;  230,965;37713,197;13,69220
 647,77; 5317,365;  203,765;37561,474;13,68821
 648,35; 5306,480;  205,965;37397,551;13,71416
 648,92; 5343,023;  236,965;37432,229;13,72771
 649,50; 5262,424;  176,965;37285,506;13,70428
 650,08; 5131,539;  196,965;37310,984;13,29572
 650,65; 5214,940;  230,365;37572,261;13,34848
 651,23; 5303,055;  196,765;38502,139;13,33048
 651,80; 5374,170;  199,965;39424,016;13,19141
 652,38; 5469,713;  218,965;39698,694;13,29986
 652,95; 5487,400;  196,765;40069,171;13,26891
 653,53; 5487,229;  228,165;40138,648;13,17715
 654,10; 5562,630;  242,565;40354,726;13,26297
 654,68; 5501,174;  202,165;40204,403;13,24678
 655,25; 5465,289;  199,965;40496,681;13,06638
 655,83; 5533,546;  194,965;40659,958;13,19309
 656,40; 5535,233;  233,765;40666,636;13,11178
 656,98; 5451,491;  210,165;40604,713;12,97533
 657,55; 5450,463;  205,566;40348,391;13,06559
 658,13; 5429,006;  202,366;39910,468;13,16266
 658,70; 5400,550;  218,366;39739,745;13,11236
 659,28; 5314,236;  193,166;38768,623;13,27546
 659,85; 5136,637;  213,366;37923,300;13,05564
 660,43; 5190,466;  231,366;38173,578;13,07014
 661,00; 5117,867;  213,166;38140,655;12,93178
 661,58; 5188,125;  198,966;38531,533;13,01546
 662,15; 5192,526;  183,366;38548,410;13,05657
 662,73; 5242,355;  245,966;39044,488;12,87778
 663,30; 5235,042;  215,566;39303,365;12,84154
 663,88; 5250,157;  199,966;39299,442;12,91626
 664,45; 5275,986;  196,766;39619,720;12,88391
 665,03; 5378,529;  215,166;40113,397;12,94133
 665,60; 5501,644;  260,566;40505,075;13,02309
 666,17; 5434,188;  214,766;40460,152;12,96899
 666,75; 5508,160;  216,166;40839,830;13,02687
 667,32; 5551,418;  225,566;41222,107;12,99098
 667,90; 5575,247;  198,766;41635,185;12,97525
 668,47; 5583,648;  224,966;41620,662;12,94502
 669,05; 5670,620;  212,167;42125,139;13,02330
 669,62; 5652,592;  187,567;42222,417;13,00118
 670,19; 5682,564;  195,967;42072,294;13,10191
 670,77; 5725,251;  204,767;42438,372;13,07131
 671,34; 5745,795;  229,567;42484,249;13,05471
 671,92; 5761,767;  188,167;42555,727;13,15535
 672,49; 5832,310;  215,167;42680,604;13,22757
 673,06; 5737,854;  169,967;42731,482;13,08198
 673,64; 5812,540;  192,567;42741,559;13,20824
 674,21; 5777,084;  189,767;42651,636;13,15843
 674,79; 5880,342;  192,567;42965,714;13,29754
 675,36; 5875,742;  223,767;42944,591;13,23002
 675,93; 5887,143;  207,967;42904,469;13,30127
 676,51; 5943,401;  215,567;43098,746;13,35683
 677,08; 5933,230;  210,967;43232,024;13,30108
 677,65; 5975,202;  210,167;43365,901;13,35868
 678,23; 6039,889;  209,567;43610,179;13,43373
 678,80; 6036,718;  194,967;43687,256;13,43169
 679,38; 6017,690;  185,567;43810,733;13,36871
 679,95; 6117,663;  198,368;44029,211;13,50486
 680,52; 6162,206;  200,968;44211,488;13,54503
 681,10; 6225,035;  216,968;44679,566;13,51263
 681,67; 6263,722;  212,368;45044,843;13,49770
 682,24; 6262,265;  185,368;45052,921;13,54408
 682,82; 6383,380;  196,768;45621,998;13,61933
 683,39; 6448,924;  218,368;46011,476;13,60588
 683,96; 6535,039;  206,168;46193,953;13,76207
 684,54; 6544,868;  177,968;46633,031;13,70550
 685,11; 6703,698;  224,968;46853,308;13,89440
 685,68; 6746,527;  212,968;47257,785;13,88795
 686,25; 6702,213;  195,768;47467,063;13,76405
 686,83; 6883,185;  179,168;47447,340;14,18294
 687,40; 6875,586;  184,368;47926,018;14,01547
 687,97; 6972,130;  218,968;48281,895;14,05067
 688,55; 6974,531;  181,568;48410,373;14,08487
 689,12; 7066,503;  182,368;48523,650;14,24069
 689,69; 7109,618;  186,168;48757,928;14,25406
 690,26; 7204,304;  185,168;48923,805;14,40158
 690,84; 7196,562;  188,968;49088,882;14,33048
 691,41; 7263,677;  214,969;49135,360;14,40853
 691,98; 7322,221;  204,769;49439,637;14,45612
 692,56; 7333,907;  184,969;49458,515;14,50867
 693,13; 7518,879;  246,969;49461,192;14,77603
 693,70; 7494,280;  210,369;49672,870;14,72613
 694,27; 7524,823;  192,969;49684,347;14,81441
 694,84; 7600,653;  193,369;49844,425;14,91868
 695,42; 7653,053;  228,769;49975,702;14,92411
 695,99; 7753,168;  186,569;50355,379;15,08228
 696,56; 7716,569;  186,569;50230,457;15,04679
 697,13; 7850,827;  202,169;50660,334;15,15841
 697,71; 7845,371;  171,569;50584,612;15,22186
 698,28; 7921,343;  200,969;50862,089;15,23925
 698,85; 7899,886;  175,969;51010,167;15,19433
 699,42; 8055,573;  166,369;51064,844;15,49988
 699,99; 8120,688;  192,769;51126,522;15,56516
 700,57; 8158,517;  195,769;51344,599;15,56780
 701,14; 8178,061;  183,769;51441,476;15,59627
 701,71; 8260,890;  224,169;51729,554;15,60365
 702,28; 8256,719;  189,369;51685,431;15,66595
 702,85; 8345,977;  216,570;51676,309;15,79761
 703,43; 8380,949;  194,770;51904,386;15,83106
 704,00; 8477,636;  223,770;52188,864;15,88348
 704,57; 8510,751;  222,170;51968,341;16,01777
 705,14; 8614,866;  238,970;52528,019;16,01845
 705,71; 8657,981;  238,970;52596,096;16,07997
 706,28; 8648,096;  219,770;52301,373;16,18292
 706,86; 8746,497;  235,370;52719,051;16,21671
 707,43; 8872,040;  258,170;52483,928;16,49353
 708,00; 8827,441;  238,970;52641,806;16,38932
 708,57; 8885,127;  204,170;52481,083;16,60572
 709,14; 8943,671;  241,770;52773,961;16,56489
 709,71; 8955,072;  210,770;52768,438;16,63754
 710,28; 9057,044;  213,970;53039,716;16,74008
 710,86; 9100,873;  222,570;53179,193;16,76524
 711,43; 9181,274;  231,170;53178,870;16,90367
 712,00; 9324,246;  219,770;53330,348;17,14249
 712,57; 9350,647;  233,170;53295,225;17,18267
 713,14; 9380,904;  208,370;53449,903;17,22816
 713,71; 9399,162;  228,371;53334,380;17,26884
 714,28; 9518,992;  208,371;53302,258;17,53615
 714,85; 9483,964;  200,171;53229,935;17,50676
 715,42; 9539,222;  204,171;53233,813;17,60346
 716,00; 9709,480;  274,371;53582,890;17,69906
 716,57; 9726,166;  210,171;53702,167;17,78957
 717,14; 9734,710;  188,971;53671,045;17,84848
 717,71; 9808,253;  183,971;53611,322;18,01377
 718,28; 9882,225;  216,971;53832,000;18,02714
 718,85; 9916,197;  186,571;53962,077;18,09304
 719,42;10049,455;  223,771;53933,555;18,29403
 719,99;10008,570;  191,771;53690,232;18,34969
 720,56;10203,685;  211,371;54167,910;18,51919
 721,13;10214,800;  210,571;54121,387;18,55700
 721,70;10249,344;  202,171;54006,865;18,67341
 722,27;10363,173;  217,171;54134,942;18,81755
 722,84;10460,717;  252,771;54232,419;18,91073
 723,41;10445,832;  188,571;54242,497;18,97598
 723,98;10542,947;  198,571;54586,774;19,01952
 724,55;10609,490;  230,371;54513,652;19,12029
 725,12;10615,034;  168,372;54409,729;19,25959
 725,69;10736,149;  190,572;54631,407;19,37071
 726,27;10862,121;  208,772;54839,084;19,50080
 726,84;10965,379;  204,172;55140,362;19,58856
 727,41;10989,065;  217,172;54813,639;19,73002
 727,98;11113,895;  222,372;55353,716;19,75559
 728,55;11168,438;  250,572;55086,394;19,91010
 729,12;11258,553;  200,972;55243,871;20,08902
 729,69;11293,383;  219,772;55415,549;20,06242
 730,26;11344,783;  217,372;55694,226;20,05775
 730,82;11425,041;  209,772;55473,904;20,29394
 731,39;11502,299;  220,972;55566,181;20,38357
 731,96;11658,700;  181,972;55957,259;20,57673
 732,53;11661,386;  212,972;56028,336;20,51122
 733,10;11764,930;  208,972;56151,813;20,65672
 733,67;11895,188;  200,972;56541,291;20,75639
 734,24;11896,446;  206,972;55959,168;20,96684
 734,81;12018,989;  234,372;56280,646;21,02658
 735,38;11998,104;  216,372;56038,923;21,10568
 735,95;12044,505;  206,573;55793,401;21,29629
 736,52;12096,763;  239,973;56073,078;21,23613
 737,09;12142,449;  218,973;55695,556;21,49281
 737,66;12315,278;  269,173;55913,033;21,64858
 738,23;12299,108;  195,373;56021,110;21,68128
 738,80;12520,651;  237,773;56286,188;21,91477
 739,37;12517,909;  237,573;56592,065;21,79123
 739,94;12603,738;  213,573;56504,343;22,01101
 740,51;12715,568;  286,973;56571,020;22,08191
 741,07;12709,826;  199,373;56462,298;22,23570
 741,64;12877,798;  251,573;56792,775;22,33102
 742,21;12949,627;  215,973;56653,853;22,56225
 742,78;13009,171;  194,973;56474,130;22,76899
 743,35;13045,143;  214,173;56710,607;22,71111
 743,92;13197,686;  247,373;56925,485;22,84888
 744,49;13263,373;  237,973;56769,762;23,04084
 745,06;13323,059;  200,573;56655,440;23,24421
 745,63;13267,746;  189,373;56752,117;23,12188
 746,19;13403,718;  204,773;56975,195;23,24969
 746,76;13529,261;  210,973;56909,872;23,48950
 747,33;13549,519;  217,174;56688,150;23,60920
 747,90;13673,634;  227,974;57094,427;23,64428
 748,47;13732,321;  228,174;56888,104;23,83368
 749,04;13832,436;  228,574;56982,582;23,96987
 749,61;13887,408;  209,974;56797,859;24,17025
 750,17;14038,809;  212,374;56931,137;24,37718
 750,74;14011,067;  228,374;56910,214;24,31589
 751,31;14010,753;  194,174;56734,292;24,43677
 751,88;14126,154;  193,774;56596,569;24,70158
 752,45;14224,269;  213,974;56822,247;24,74955
 753,02;14242,955;  209,374;56688,524;24,84737
 753,58;14274,070;  193,974;56519,402;24,99776
 754,15;14382,328;  223,774;56777,479;25,03559
 754,72;14339,586;  193,574;56506,156;25,12052
 755,29;14322,701;  183,774;56333,834;25,18061
 755,86;14464,816;  222,374;56512,111;25,30202
 756,42;14575,074;  221,574;56376,989;25,56031
 756,99;14566,760;  191,974;56591,266;25,48753
 757,56;14632,018;  209,774;56331,544;25,69813
 758,13;14659,133;  176,174;56219,621;25,84238
 758,70;14790,677;  204,975;56289,899;26,00646
 759,26;14918,077;  198,175;56434,776;26,17495
 759,83;14954,050;  207,175;56603,453;26,14867
 760,40;15075,450;  204,575;56281,331;26,51879
 760,97;15130,708;  203,775;56472,208;26,52808
 761,53;15105,252;  192,375;56080,686;26,68336
 762,10;15141,652;  174,575;56038,363;26,79209
 762,67;15210,482;  221,575;56070,641;26,83824
 763,24;15165,311;  164,375;55565,118;27,07714
 763,80;15260,140;  199,575;55610,596;27,17973
 764,37;15343,112;  181,175;55604,673;27,35651
 764,94;15267,370;  178,175;55208,350;27,41986
 765,50;15246,200;  168,575;55191,628;27,40238
 766,07;15444,029;  210,375;55220,505;27,69245
 766,64;15326,573;  191,575;54901,983;27,66384
 767,21;15399,830;  189,975;54870,260;27,81598
 767,77;15465,945;  206,375;54707,338;27,99872
 768,34;15493,346;  210,775;54664,215;28,06539
 768,91;15534,175;  190,175;54295,093;28,35971
 769,47;15596,290;  192,376;54498,370;28,36504
 770,04;15613,834;  209,976;54468,247;28,38988
 770,61;15645,092;  187,176;54240,525;28,59752
 771,18;15587,350;  188,776;54080,402;28,57322
 771,74;15784,750;  210,576;54206,080;28,84347
 772,31;15769,723;  211,576;54057,757;28,89369
 772,88;15779,695;  178,176;53704,835;29,14719
 773,44;15736,810;  191,776;53520,312;29,14956
 774,01;15905,496;  189,776;53690,790;29,37462
 774,58;15888,325;  171,776;53432,467;29,50872
 775,14;16035,441;  184,376;53531,344;29,71315
 775,71;15967,556;  191,776;53402,422;29,64779
 776,27;16114,671;  233,976;53302,099;29,92511
 776,84;16210,071;  246,976;53488,977;29,98215
 777,41;16205,901;  207,976;53298,054;30,13355
 777,97;16252,016;  183,976;52923,332;30,46689
 778,54;16255,845;  206,176;53016,409;30,39121
 779,11;16329,674;  215,176;53045,287;30,50249
 779,67;16335,932;  192,776;52911,764;30,62114
 780,24;16383,761;  214,176;52651,841;30,83582
 780,80;16407,591;  222,577;52697,919;30,84308
 781,37;16482,991;  205,977;52485,196;31,13477
 781,94;16429,392;  194,577;52362,074;31,12056
 782,50;16555,936;  214,977;52273,751;31,38944
 783,07;16595,908;  247,977;52383,429;31,35665
 783,63;16596,451;  190,177;52079,106;31,61806
 784,20;16692,995;  232,777;52057,584;31,76127
 784,77;16575,110;  208,577;51928,461;31,64457
 785,33;16713,796;  187,177;51681,938;32,09379
 785,90;16764,483;  208,577;51654,016;32,18148
 786,46;16807,455;  222,377;51544,293;32,31578
 787,03;16790,713;  205,377;51364,371;32,41920
 787,59;16887,971;  209,177;51383,648;32,59202
 788,16;16915,800;  217,777;51273,726;32,70534
 788,73;16879,915;  223,577;50943,603;32,83977
 789,29;16866,030;  206,777;50617,081;33,04732
 789,86;17004,716;  211,977;50367,758;33,48116
 790,42;16980,974;  215,377;50497,636;33,34297
 790,99;16918,661;  224,977;50039,713;33,51154
 791,55;17041,919;  205,378;50188,990;33,68412
 792,12;16982,748;  231,378;50020,068;33,64493
 792,68;17015,434;  215,378;49785,745;33,89133
 793,25;16909,264;  217,578;49649,623;33,76693
 793,81;17055,379;  253,778;49135,900;34,37167
 794,38;16946,922;  193,378;49037,778;34,29983
 794,94;17003,752;  206,978;48908,855;34,48897
 795,51;17021,295;  218,978;48653,933;34,69048
 796,07;16925,839;  222,978;48389,010;34,67768
 796,64;17058,239;  246,778;48626,887;34,74870
 797,20;16955,354;  225,178;48034,365;34,99364
 797,77;16970,184;  201,978;47678,042;35,31928
 798,33;16991,013;  205,178;47540,320;35,46168
 798,90;16999,128;  246,378;47325,597;35,58417
 799,46;16936,386;  218,778;46887,675;35,82173
 800,03;16944,787;  210,378;46838,352;35,88920
 800,59;17000,616;  237,178;46681,230;36,09383
 801,15;16988,445;  239,978;46431,307;36,25890
 801,72;16909,417;  199,378;46248,184;36,28767
 802,28;16901,532;  240,778;45773,462;36,59076
 802,85;16864,647;  219,979;45820,939;36,50070
 803,41;16838,905;  207,179;45618,217;36,62485
 803,98;16708,735;  212,779;45104,294;36,74627
 804,54;16713,992;  228,979;44858,572;36,93741
 805,11;16631,107;  234,979;44625,249;36,93631
 805,67;16708,937;  240,379;44560,527;37,15817
 806,23;16564,909;  225,379;44110,804;37,23225
 806,80;16583,595;  243,379;44193,281;37,17919
 807,36;16604,425;  261,579;44025,959;37,34280
 807,93;16620,825;  239,779;43749,036;37,64957
 808,49;16530,797;  227,379;43464,914;37,70663
 809,05;16462,770;  210,779;43106,391;37,88730
 809,62;16466,456;  235,179;43062,269;37,89956
 810,18;16491,714;  228,779;43010,346;38,01388
 810,74;16359,115;  197,379;42687,824;38,03616
 811,31;16380,230;  216,579;42482,301;38,24293
 811,87;16384,773;  224,179;42432,978;38,28726
 812,44;16407,031;  258,979;42405,656;38,31394
 813,00;16356,003;  191,779;42067,533;38,60044
 813,56;16396,690;  243,779;42111,011;38,58127
 814,13;16436,519;  227,980;42001,088;38,80137
 814,69;16385,777;  229,380;41872,566;38,79722
 815,25;16277,178;  197,380;41443,443;38,98505
 815,82;16308,007;  234,380;41434,921;39,01315
 816,38;16373,836;  256,580;41108,398;39,45297
 816,94;16258,951;  230,780;40893,875;39,41700
 817,51;16223,352;  199,980;40628,753;39,63358
 818,07;16236,038;  213,380;40369,030;39,90138
 818,63;16134,011;  234,580;40002,908;39,98013
 819,20;16163,983;  236,180;40120,585;39,93491
 819,76;16190,812;  228,580;39577,863;40,56550
 820,32;16181,641;  245,380;39498,140;40,59908
 820,89;16077,328;  250,180;39362,218;40,46618
 821,45;15993,728;  210,580;39112,895;40,57123
 822,01;15971,129;  235,980;38901,573;40,69548
 822,57;16009,673;  232,780;38683,250;41,03173
 823,14;16070,931;  218,780;38618,327;41,28213
 823,70;15994,188;  216,780;38358,405;41,36533
 824,26;15911,589;  231,180;38082,482;41,42634
 824,82;15939,418;  225,781;37968,360;41,63372
 825,39;15913,391;  213,381;37732,437;41,84543
 825,95;15976,791;  237,781;37849,115;41,84646
 826,51;15848,763;  231,581;37278,792;42,15481
 827,08;15949,736;  271,781;37273,070;42,37138
 827,64;15882,279;  239,381;37244,347;42,27243
 828,20;15786,537;  216,581;36980,024;42,35174
 828,76;15848,938;  240,981;36879,502;42,59986
 829,32;15852,196;  245,581;36649,979;42,87014
 829,89;15815,882;  202,181;36605,657;42,89069
 830,45;15867,140;  208,181;36540,734;43,09898
 831,01;15762,398;  230,381;36315,412;43,04283
 831,57;15817,799;  233,181;36207,689;43,32128
 832,14;15904,342;  217,381;36185,367;43,61368
 832,70;15829,029;  208,181;35880,844;43,78941
 833,26;15881,144;  188,981;35790,321;44,07745
 833,82;15934,830;  222,181;35743,999;44,23380
 834,38;15951,231;  205,981;35722,676;44,33197
 834,95;15909,346;  211,581;35525,354;44,45224
 835,51;15921,461;  186,381;35588,031;44,44731
 836,07;15980,862;  222,182;35633,309;44,50206
 836,63;16102,405;  240,182;35589,986;44,87217
 837,19;16063,663;  231,582;35327,064;45,11145
 837,75;15957,349;  191,982;35086,541;45,18002
 838,32;16062,893;  236,782;35301,018;45,13462
 838,88;16166,865;  240,382;35185,096;45,57623
 839,44;16198,266;  203,782;34997,573;45,96936
 840,00;16188,095;  211,782;35115,651;45,77233
 840,56;16118,210;  215,182;34777,128;46,01312
 841,12;16192,611;  210,582;34765,406;46,25122
 841,68;16101,726;  193,182;34493,283;46,38046
 842,25;16173,841;  212,582;34672,761;46,31798
 842,81;16141,670;  203,782;34322,238;46,71339
 843,37;16244,928;  186,982;34411,115;46,91995
 843,93;16151,614;  219,182;34236,393;46,83639
 844,49;16293,015;  223,782;34377,670;47,04950
 845,05;16094,559;  191,582;34056,748;46,95969
 845,61;16293,102;  241,182;34182,225;47,29354
 846,17;16212,932;  207,782;34017,703;47,33862
 846,73;16213,047;  222,383;34085,180;47,22192
 847,29;16190,876;  202,783;33852,658;47,51308
 847,86;16281,705;  196,783;33641,935;48,09344
 848,42;16238,249;  190,383;33540,812;48,11892
 848,98;16269,792;  214,383;33519,890;48,20647
 849,54;16316,193;  204,183;33526,567;48,35191
 850,10;16186,594;  228,383;33345,045;48,18786
 850,66;16279,280;  184,783;33153,522;48,81745
 851,22;16294,395;  182,983;33056,000;49,01106
 851,78;16351,082;  239,983;33111,277;49,01267
 852,34;16225,768;  200,783;32939,555;48,94803
 852,90;16273,740;  212,183;32850,032;49,21145
 853,46;16218,284;  197,383;32641,709;49,37967
 854,02;16202,542;  213,983;32643,387;49,30266
 854,58;16135,514;  203,183;32336,464;49,58202
 855,14;16188,200;  186,583;32268,742;49,87700
 855,70;16219,030;  169,983;32086,819;50,28395
 856,26;16261,716;  216,383;31989,697;50,49940
 856,82;16197,403;  205,783;31857,374;50,52390
 857,38;16100,375;  224,383;31752,252;50,35542
 857,94;16128,061;  204,184;31631,129;50,66950
 858,50;16086,890;  220,984;31515,207;50,69916
 859,06;16118,720;  224,584;31482,284;50,84871
 859,62;16060,406;  213,384;31318,161;50,94723
 860,18;16021,807;  208,784;31074,239;51,23211
 860,74;15866,636;  168,984;30912,316;51,06035
 861,30;15943,894;  173,784;30831,794;51,43879
 861,86;15949,295;  221,584;30929,071;51,21784
 862,42;15856,696;  205,384;30590,949;51,50904
 862,98;15949,096;  225,784;30679,826;51,62964
 863,54;15820,497;  213,784;30401,504;51,69888
 864,10;16008,898;  199,384;30453,381;52,25595
 864,66;15820,441;  204,984;30147,458;52,15153
 865,22;15807,128;  204,984;30039,336;52,29590
 865,78;15775,100;  211,984;30028,813;52,19574
 866,34;15724,786;  201,784;29892,091;52,28306
 866,90;15763,616;  221,984;29758,968;52,61753
 867,45;15741,016;  222,184;29624,646;52,78072
 868,01;15681,131;  222,584;29528,523;52,74885
 868,57;15700,675;  194,184;29270,201;53,33086
 869,13;15619,790;  189,785;29094,678;53,38198
 869,69;15654,333;  202,185;29107,755;53,45734
 870,25;15529,163;  189,185;29104,833;53,05078
 870,81;15639,849;  215,785;28973,910;53,63376
 871,37;15489,679;  209,585;28797,588;53,44932
 871,93;15494,651;  224,185;28614,065;53,78841
 872,49;15381,051;  221,585;28385,943;53,82500
 873,04;15348,166;  200,185;28223,620;54,05469
 873,60;15344,996;  190,585;28096,698;54,30499
 874,16;15332,825;  210,585;28100,175;54,22181
 874,72;15247,111;  199,385;28028,775;54,07135
 875,28;15351,396;  209,785;27963,375;54,55731
 875,84;15339,968;  186,785;27807,375;54,86191
 876,40;15346,968;  206,985;27740,175;54,98812
 876,95;15419,825;  221,385;27739,775;55,23012
 877,51;15484,254;  255,785;27750,375;55,38715
 878,07;15460,396;  239,585;27763,975;55,29936
 878,63;15471,396;  218,585;27739,975;55,42166
 879,19;15556,968;  223,985;27668,175;55,86969
 879,75;15579,539;  217,185;27709,175;55,87938
 880,30;15661,111;  205,385;27794,575;56,02095
 880,86;15831,539;  255,185;27824,575;56,49873
 881,42;15821,254;  190,185;27869,775;56,47146
 881,98;15895,111;  224,585;28080,175;56,25631
 882,54;16057,254;  217,985;28017,575;56,97663
 883,09;16138,825;  226,985;28170,175;56,94353
 883,65;16204,682;  215,585;28300,375;56,93152
 884,21;16389,682;  239,585;28441,775;57,26540
 884,77;16415,682;  217,985;28552,975;57,16500
 885,32;16559,254;  211,185;28662,975;57,45884
 885,88;16665,682;  240,985;28801,975;57,50745
 886,44;16873,396;  212,785;28912,775;58,05093
 887,00;16868,111;  229,785;28898,775;58,03597
 887,56;16954,254;  221,785;29149,775;57,84179
 888,11;17042,539;  217,985;29168,175;58,11552
 888,67;17174,968;  240,185;29323,575;58,22837
 889,23;17253,825;  227,385;29229,775;58,70702
 889,79;17100,254;  208,785;29260,375;58,14301
 890,34;17261,111;  208,785;29149,575;58,92142
 890,90;17402,968;  250,985;29173,175;59,30389
 891,46;17344,682;  217,585;29233,975;59,02560
 892,01;17414,825;  240,585;29083,775;59,54348
 892,57;17416,539;  245,785;29088,775;59,53181
 893,13;17334,254;  226,185;28995,775;59,46581
 893,69;17337,968;  207,585;28903,575;59,69609
 894,24;17289,968;  218,185;28830,175;59,66653
 894,80;17291,396;  225,785;28553,575;60,24336
 895,36;17248,396;  207,385;28458,575;60,31962
 895,91;17271,539;  213,985;28280,375;60,77573
 896,47;17221,539;  230,185;28094,775;60,97830
 897,03;17098,539;  210,385;27903,775;60,98262
 897,58;17098,539;  217,785;27717,175;61,38592
 898,14;17005,396;  233,985;27673,575;61,12122
 898,70;16951,396;  197,385;27601,175;61,13757
 899,25;17032,825;  209,185;27406,375;61,85801
 899,81;16997,111;  238,185;27203,575;62,14976
 900,37;16832,825;  190,985;27044,375;61,97296
 900,92;16861,968;  220,185;26966,575;62,22067
 901,48;16791,539;  204,185;26834,575;62,28731
 902,03;16688,825;  199,385;26749,975;62,10574
 902,59;16697,825;  219,585;26734,975;62,14595
 903,15;16711,968;  242,585;26494,775;62,73527
 903,70;16607,825;  228,985;26272,975;62,88913
 904,26;16528,254;  195,185;26118,375;63,00563
 904,82;16588,396;  217,385;26110,975;63,22419
 905,37;16492,682;  215,585;26019,975;63,07879
 905,93;16375,396;  211,185;25899,975;62,92321
 906,48;16491,682;  230,185;25755,975;63,70615
 907,04;16506,825;  248,585;25767,175;63,71136
 907,60;16444,396;  205,985;25499,175;64,20073
 908,15;16385,254;  208,785;25448,375;64,09165
 908,71;16358,682;  251,385;25480,975;63,84288
 909,26;16307,254;  211,185;25169,375;64,49213
 909,82;16272,682;  237,185;25158,575;64,34431
 910,37;16246,682;  250,785;24900,975;64,89158
 910,93;16191,396;  206,785;24712,775;65,22736
 911,48;16132,825;  209,585;24621,375;65,22766
 912,04;16092,539;  203,585;24537,375;65,29585
 912,60;16127,111;  240,185;24691,775;64,97298
 913,15;16073,111;  233,585;24388,775;65,57401
 913,71;15964,111;  208,985;24185,975;65,70936
 914,26;15984,539;  207,785;24091,775;66,05577
 914,82;15945,825;  223,985;24053,375;65,97668
 915,37;15876,968;  209,785;23898,375;66,13810
 915,93;15929,254;  278,185;23892,775;66,27711
 916,48;15913,825;  215,785;23672,775;66,92265
 917,04;15872,682;  232,185;23553,975;67,06388
 917,59;15856,254;  251,985;23506,375;67,10246
 918,15;15616,539;  172,985;23242,175;66,94450
 918,70;15655,254;  194,585;23323,175;66,84657
 919,26;15622,111;  225,985;23132,575;67,21265
 919,81;15510,111;  191,385;23044,175;67,03219
 920,37;15522,396;  209,585;22783,375;67,83447
 920,92;15480,396;  215,385;22795,975;67,60236
 921,48;15372,254;  200,185;22586,375;67,77423
 922,03;15373,111;  214,985;22528,375;67,93287
 922,59;15190,254;  224,785;22401,375;67,48318
 923,14;15218,111;  210,185;22325,175;67,86314
 923,69;15202,396;  224,585;22390,575;67,57114
 924,25;15205,254;  234,585;22114,975;68,42048
 924,80;15088,254;  219,585;21933,575;68,47506
 925,36;15000,539;  216,585;21980,375;67,92913
 925,91;15009,539;  213,985;21765,175;68,65307
 926,47;14972,539;  192,985;21704,975;68,70380
 927,02;14961,539;  246,185;21669,975;68,68698
 927,57;14869,682;  217,385;21431,775;69,06773
 928,13;14824,111;  215,385;21399,175;68,96181
 928,68;14772,825;  214,385;21298,775;69,04843
 929,24;14745,111;  194,985;21056,975;69,74467
 929,79;14756,968;  195,185;20994,175;70,01197
 930,34;14605,539;  220,985;20909,175;69,53027
 930,90;14611,396;  200,585;20822,575;69,88080
 931,45;14608,968;  208,985;20760,775;70,06681
 932,01;14503,254;  226,985;20826,175;69,30500
 932,56;14465,682;  236,785;20657,975;69,67712
 933,11;14526,539;  224,785;20495,575;70,55351
 933,67;14330,111;  218,985;20367,175;70,03669
 934,22;14351,539;  224,385;20302,375;70,36140
 934,77;14273,825;  223,585;20152,375;70,50222
 935,33;14243,825;  228,985;20031,775;70,77205
 935,88;14211,825;  228,585;20037,175;70,59180
 936,43;14153,825;  224,785;19867,775;70,91100
 936,99;14095,254;  203,985;19779,775;70,96147
 937,54;13997,539;  199,385;19705,575;70,73731
 938,09;13993,968;  214,385;19494,375;71,47090
 938,65;13919,968;  212,785;19343,175;71,65135
 939,20;13906,111;  194,585;19422,175;71,31172
 939,75;13808,682;  197,185;19246,375;71,45447
 940,31;13815,825;  193,785;19051,175;72,23714
 940,86;13849,825;  203,585;19200,975;71,83218
 941,41;13773,682;  264,985;19011,775;72,05872
 941,96;13679,682;  207,185;18855,975;72,24328
 942,52;13629,539;  216,385;18838,175;72,02935
 943,07;13703,682;  193,785;18730,975;72,87996
 943,62;13575,682;  201,585;18591,975;72,72329
 944,18;13581,682;  190,585;18531,975;73,01026
 944,73;13455,682;  216,785;18403,975;72,79243
 945,28;13410,682;  181,185;18284,575;73,07746
 945,83;13446,254;  223,385;18173,575;73,66423
 946,39;13392,111;  203,785;18154,575;73,46933
 946,94;13362,682;  234,985;18027,775;73,78099
 947,49;13340,539;  214,585;17934,375;74,07511
 948,04;13439,682;  227,185;17990,975;74,37882
 948,59;13375,396;  229,785;17823,975;74,71564
 949,15;13260,825;  196,785;17696,575;74,65255
 949,70;13223,682;  213,385;17583,375;74,90101
 950,25;13247,254;  231,785;17544,775;75,17747
 950,80;13180,111;  187,385;17522,775;74,94914
 951,36;13179,396;  180,985;17437,175;75,32608
 951,91;13161,825;  211,785;17414,175;75,28047
 952,46;13058,682;  181,585;17155,375;75,86460
 953,01;13019,682;  215,185;17166,975;75,53478
 953,56;12963,539;  186,385;17089,975;75,58841
 954,11;12983,825;  231,985;17015,775;75,97712
 954,67;12821,682;  204,985;16958,175;75,30922
 955,22;12745,682;  188,985;16687,775;76,10678
 955,77;12825,968;  234,585;16719,375;76,38182
 956,32;12766,111;  251,185;16646,375;76,33291
 956,87;12700,825;  206,385;16472,775;76,81139
 957,42;12640,396;  206,985;16494,775;76,33578
 957,98;12636,539;  201,785;16257,375;77,44813
 958,53;12571,539;  224,385;16301,175;76,80112
 959,08;12539,111;  190,785;16218,575;77,04322
 959,63;12419,968;  190,585;16122,175;76,76185
 960,18;12456,968;  217,185;16053,375;77,28995
 960,73;12449,539;  208,985;15932,375;77,84933
 961,28;12352,825;  200,785;15844,375;77,68063
 961,83;12342,539;  216,385;15855,775;77,53598
 962,39;12292,682;  200,185;15688,175;78,07661
 962,94;12328,682;  215,585;15571,575;78,88190
 963,49;12099,111;  209,785;15532,375;77,59345
 964,04;12191,682;  214,985;15423,175;78,75163
 964,59;12055,111;  203,585;15309,575;78,45580
 965,14;12134,254;  214,785;15274,375;79,14869
 965,69;12042,539;  195,585;15175,975;79,08308
 966,24;11936,539;  189,785;15058,575;79,00276
 966,79;11843,968;  215,585;14974,175;78,79061
 967,34;11742,396;  191,185;14867,575;78,70608
 967,89;11769,539;  211,985;14773,375;79,37123
 968,44;11690,111;  219,585;14791,175;78,71842
 968,99;11686,254;  226,785;14619,175;79,62172
 969,55;11626,682;  220,985;14511,975;79,81041
 970,10;11517,825;  214,385;14446,775;79,42053
 970,65;11477,254;  227,385;14262,975;80,15245
 971,20;11418,968;  199,185;14271,175;79,73132
 971,75;11287,682;  188,185;14090,175;79,84107
 972,30;11271,111;  217,785;14004,775;80,17215
 972,85;11218,396;  203,585;14013,975;79,75742
 973,40;11132,539;  203,185;13823,575;80,24259
 973,95;11131,254;  220,985;13810,175;80,28638
 974,50;11157,968;  241,385;13734,375;80,90559
 975,05;11044,111;  215,785;13633,775;80,70006
 975,60;11073,968;  241,185;13571,975;81,26137
 976,15;10950,682;  211,385;13443,575;81,16039
 976,70;10929,254;  222,185;13370,975;81,43007
 977,25;10849,968;  211,985;13416,975;80,56032
 977,80;10803,396;  195,985;13126,975;82,03093
 978,35;10695,111;  211,985;13055,175;81,62400
 978,89;10648,254;  199,385;12930,375;82,07428
 979,44;10697,539;  217,785;12903,375;82,61149
 979,99;10541,254;  201,985;12765,375;82,29681
 980,54;10564,968;  228,185;12675,975;83,04111
 981,09;10505,254;  222,585;12618,175;82,95425
 981,64;10308,254;  221,585;12389,575;82,89511
 982,19;10347,111;  242,985;12345,775;83,48592
 982,74;10248,968;  231,185;12263,975;83,25403
 983,29;10132,539;  192,785;12115,775;83,36629
 983,84;10022,111;  227,985;12057,575;82,79345
 984,39;10063,254;  249,385;11963,175;83,78047
 984,94; 9947,968;  200,585;11862,975;83,57963
 985,49; 9852,825;  232,385;11793,175;83,21611
 986,03; 9876,682;  233,785;11663,975;84,36340
 986,58; 9754,682;  268,785;11628,175;83,50710
 987,13; 9592,968;  207,985;11411,575;83,76764
 987,68; 9600,396;  235,985;11312,375;84,54389
 988,23; 9564,682;  226,985;11250,175;84,70957
 988,78; 9513,396;  223,785;11109,775;85,33548
 989,33; 9465,111;  220,985;10968,775;86,00955
 989,88; 9463,825;  251,985;10965,975;85,97955
 990,42; 9326,396;  223,185;10787,175;86,17209
 990,97; 9248,539;  223,185;10681,175;86,30104
 991,52; 9187,254;  235,185;10688,575;85,63795
 992,07; 9127,254;  244,585;10498,775;86,62477
 992,62; 8998,111;  228,185;10449,775;85,79806
 993,17; 8938,539;  230,185;10255,775;86,86126
 993,71; 8920,682;  236,585;10236,375;86,84280
 994,26; 8728,111;  218,185;10051,175;86,54464
 994,81; 8793,682;  239,985;10001,575;87,62606
 995,36; 8595,111;  208,985; 9878,775;86,72500
 995,91; 8546,968;  227,185; 9840,775;86,54189
 996,45; 8480,825;  223,185; 9708,175;87,06008
 997,00; 8349,111;  208,785; 9556,175;87,08662
 997,55; 8332,111;  226,185; 9570,575;86,74644
 998,10; 8206,825;  235,785; 9334,575;87,60549
 998,65; 8118,968;  207,185; 9332,975;86,69696
 999,19; 8029,254;  234,585; 9289,775;86,07957
 999,74; 7993,111;  237,185; 9119,375;87,31997
1000,29; 7962,254;  247,185; 9050,575;87,63747
1000,84; 7821,539;  226,385; 8927,975;87,28467
1001,38; 7753,825;  225,985; 8722,975;88,59420
1001,93; 7729,111;  227,185; 8819,575;87,30895
1002,48; 7566,968;  213,185; 8628,775;87,38286
1003,03; 7611,396;  222,785; 8504,975;89,21084
1003,57; 7496,539;  232,985; 8453,975;88,35377
1004,12; 7523,111;  233,185; 8326,175;90,07704
1004,67; 7344,111;  223,985; 8297,175;88,19470
1005,22; 7304,111;  214,785; 8139,375;89,45984
1005,76; 7203,111;  212,585; 7986,175;89,92661
1006,31; 7192,254;  234,985; 7930,775;90,40357
1006,86; 7073,396;  221,985; 7767,575;90,80021
1007,40; 7004,111;  198,185; 7624,975;91,64021
1007,95; 6911,396;  230,385; 7621,375;90,39400
1008,50; 6877,111;  234,185; 7447,975;92,08649
1009,04; 6838,539;  218,385; 7419,175;91,93650
1009,59; 6645,682;  221,585; 7293,975;90,83347
1010,14; 6575,968;  215,585; 7124,575;92,05952
1010,68; 6551,254;  223,785; 7028,975;92,98004
1011,23; 6407,396;  189,385; 6898,975;92,67349
1011,78; 6373,682;  238,385; 6909,775;91,96430
1012,32; 6331,825;  221,385; 6682,575;94,57143
1012,87; 6239,111;  239,585; 6755,175;92,07955
1013,42; 6166,682;  212,185; 6570,975;93,64198
1013,96; 6162,825;  242,985; 6621,575;92,80797
1014,51; 6093,396;  182,185; 6500,175;93,56158
1015,06; 6137,539;  191,385; 6547,775;93,54609
1015,60; 6206,254;  264,385; 6593,375;93,88336
1016,15; 6130,682;  213,785; 6555,575;93,30011
1016,69; 6124,396;  226,585; 6498,375;94,03713
1017,24; 6168,682;  203,185; 6530,775;94,27756
1017,79; 6194,539;  249,985; 6580,175;93,90799
1018,33; 6247,825;  211,185; 6584,175;94,72226
1018,88; 6312,111;  248,185; 6615,975;95,22810
1019,42; 6270,682;  230,585; 6633,375;94,33539
1019,97; 6289,682;  199,585; 6670,375;94,11675
1020,51; 6349,682;  232,385; 6724,975;94,21967
1021,06; 6388,396;  201,185; 6703,975;95,14703
1021,61; 6372,539;  183,385; 6564,775;96,98756
1022,15; 6344,539;  170,385; 6554,375;96,71309
1022,70; 6275,539;  221,985; 6591,975;95,03240
1023,24; 6265,682;  185,985; 6595,975;94,84722
1023,79; 6247,682;  206,185; 6495,775;96,05550
1024,33; 6221,682;  206,185; 6476,975;95,92886
1024,88; 6133,111;  211,185; 6419,975;95,37971
1025,42; 6091,254;  214,785; 6222,175;97,82066
1025,97; 6041,539;  211,785; 6173,175;97,79186
1026,51; 5834,825;  175,985; 6033,175;96,61356
1027,06; 5847,968;  206,185; 6053,375;96,48708
1027,60; 5766,539;  205,585; 5935,175;97,05676
1028,15; 5661,825;  230,585; 5842,775;96,77577
1028,69; 5517,111;  196,985; 5694,375;96,77548
1029,24; 5512,968;  211,385; 5638,775;97,68200
1029,78; 5404,968;  208,385; 5525,175;97,73910
1030,33; 5283,968;  185,985; 5398,775;97,79759
1030,87; 5240,825;  212,385; 5365,775;97,57538
1031,42; 5140,396;  194,385; 5274,975;97,35112
1031,96; 5112,396;  216,985; 5209,175;98,06140
1032,51; 5016,111;  198,785; 5159,575;97,10804
1033,05; 4959,111;  216,785; 5094,375;97,22682
1033,60; 4819,396;  166,785; 4986,175;96,53943
1034,14; 4785,968;  200,185; 4900,775;97,55760
1034,69; 4777,682;  210,185; 4821,375;99,05246
1035,23; 4690,825;  205,985; 4730,975;99,11271
1035,77; 4623,682;  193,585; 4674,375;98,86866
1036,32; 4551,539;  169,185; 4629,175;98,25929
1036,86; 4507,968;  202,185; 4530,575;99,47770
1037,41; 4444,682;  219,585; 4518,575;98,28116
1037,95; 4364,396;  182,985; 4436,375;98,30774
1038,50; 4352,254;  194,985; 4351,775;100,01151
1039,04; 4307,254;  216,385; 4251,375;101,38485
1039,58; 4214,396;  195,985; 4206,575;100,19502
1040,13; 4158,968;  193,185; 4211,375;98,69575
1040,67; 4129,396;  232,985; 4143,575;99,63743
1041,21; 4070,682;  234,385; 4054,975;100,41112
1041,76; 3957,968;  189,585; 3998,975;98,92352
1042,30; 3931,111;  207,185; 3960,575;99,21500
1042,85; 3921,825;  205,185; 3900,775;100,56960
1043,39; 3878,254;  196,585; 3840,775;101,02845
1043,93; 3796,682;  213,185; 3768,575;100,79055
1044,48; 3748,396;  221,785; 3745,575;100,08007
1045,02; 3680,682;  194,985; 3677,575;100,08922
1045,56; 3654,968;  226,785; 3593,175;101,83558
1046,11; 3615,254;  209,985; 3566,175;101,46233
1046,65; 3558,539;  219,985; 3509,575;101,48846
1047,19; 3527,682;  187,785; 3480,975;101,41829
1047,74; 3438,539;  191,985; 3379,375;101,85620
1048,28; 3440,968;  214,785; 3427,975;100,40436
1048,82; 3421,968;  220,785; 3358,975;102,00730
1049,37; 3386,396;  215,385; 3284,775;103,31080
1049,91; 3334,539;  197,185; 3303,375;101,00330
1050,45; 3277,682;  224,985; 3245,375;101,06963
1050,99; 3230,825;  202,985; 3149,375;102,76440
1051,54; 3168,825;  207,185; 3100,375;102,36590
1052,08; 3168,396;  228,785; 3086,975;102,84871
1052,62; 3108,111;  223,985; 3023,975;103,00486
1053,16; 3039,682;  206,585; 2934,575;103,85292
1053,71; 3029,254;  218,585; 2966,975;102,26600
1054,25; 3002,825;  217,185; 2879,175;104,64502
1054,79; 2959,968;  222,585; 2843,975;104,42486
1055,33; 2889,396;  199,185; 2783,975;104,07853
1055,88; 2920,396;  232,185; 2776,975;105,63588
1056,42; 2885,682;  227,185; 2762,175;104,87210
1056,96; 2825,254;  234,585; 2692,975;105,38070
1057,50; 2757,111;  224,185; 2648,775;104,46821
1058,05; 2741,968;  222,785; 2621,975;105,00139
1058,59; 2719,825;  233,985; 2547,775;107,43585
1059,13; 2656,968;  201,585; 2473,175;108,09093
1059,67; 2647,825;  228,185; 2524,575;105,36712
1060,21; 2576,111;  215,385; 2451,775;105,55966
1060,76; 2569,682;  235,185; 2440,975;105,83497
1061,30; 2556,396;  244,385; 2377,175;108,40314
1061,84; 2512,111;  210,185; 2358,375;107,15652
1062,38; 2456,825;  199,585; 2303,775;107,27358
1062,92; 2451,825;  260,985; 2322,375;106,27974
1063,46; 2393,111;  242,585; 2245,575;107,36577
1064,01; 2375,825;  204,785; 2226,575;107,38207
1064,55; 2355,254;  229,585; 2221,575;106,71081
1065,09; 2287,682;  198,385; 2126,375;108,36660
1065,63; 2305,396;  230,785; 2131,775;109,13321
1066,17; 2254,682;  245,785; 2102,975;108,16864
1066,71; 2243,396;  231,785; 2098,775;107,74623
1067,25; 2195,825;  237,185; 2061,175;107,38217
1067,80; 2151,254;  238,385; 2045,975;105,82425
1068,34; 2148,254;  250,385; 2047,175;105,62551
1068,88; 2097,539;  217,585; 1981,175;106,59815
1069,42; 2133,539;  258,185; 1998,375;107,76721
1069,96; 2051,968;  225,385; 1939,175;106,58149
1070,50; 2067,968;  251,585; 1942,975;107,38995
1071,04; 1994,682;  203,185; 1908,175;105,07376
1071,58; 1965,825;  218,385; 1881,175;105,09084
1072,12; 1975,111;  218,785; 1812,975;110,17041
1072,66; 1938,111;  232,985; 1827,175;106,95875
1073,21; 1926,539;  235,985; 1839,175;105,44940
1073,75; 1897,682;  235,385; 1805,975;105,83903
1074,29; 1850,825;  240,585; 1778,575;104,69769
1074,83; 1868,254;  249,585; 1748,175;108,01277
1075,37; 1856,396;  243,785; 1726,975;108,72588
1075,91; 1843,825;  232,185; 1720,975;108,25167
1076,45; 1804,254;  228,385; 1687,775;107,98132
1076,99; 1782,254;  254,785; 1650,975;109,40263
1077,53; 1732,111;  222,185; 1646,575;106,00508
1078,07; 1715,968;  241,185; 1615,975;107,27332
1078,61; 1740,254;  218,785; 1609,375;109,41173
1079,15; 1676,111;  222,985; 1585,575;106,64438
1079,69; 1681,682;  223,985; 1549,175;109,99911
1080,23; 1689,396;  244,385; 1572,175;108,82831
1080,77; 1694,539;  246,985; 1569,375;109,46501
1081,31; 1649,968;  203,985; 1501,375;111,45321
1081,85; 1650,539;  245,185; 1514,175;110,74589
1082,39; 1617,825;  215,385; 1467,975;111,96321
1082,93; 1597,968;  210,785; 1449,975;111,94271
1083,47; 1580,682;  214,785; 1425,775;112,79178
1084,01; 1555,111;  250,185; 1426,975;110,88858
1084,55; 1509,968;  212,385; 1393,175;109,89108
1085,09; 1535,539;  242,585; 1387,375;112,94249
1085,63; 1551,682;  223,185; 1392,375;113,62543
1086,17; 1513,254;  220,585; 1358,775;113,57230
1086,71; 1471,111;  236,585; 1333,575;112,53755
1087,24; 1482,682;  248,585; 1347,175;112,33464
1087,78; 1474,396;  222,985; 1311,775;114,93598
1088,32; 1395,682;  213,785; 1278,575;110,99814
1088,86; 1428,396;  242,385; 1315,375;110,53332
1089,40; 1399,968;  219,785; 1272,175;112,14311
1089,94; 1362,254;  196,585; 1241,175;111,59101
1090,48; 1391,111;  226,985; 1241,775;114,71592
1091,02; 1358,825;  233,785; 1239,175;111,90085
1091,56; 1325,111;  234,985; 1212,175;111,55719
1092,10; 1308,825;  217,785; 1190,975;112,10966
1092,63; 1304,968;  248,985; 1209,575;109,93065
1093,17; 1288,539;  230,985; 1195,975;109,59225
1093,71; 1265,111;  227,385; 1151,775;112,26060
1094,25; 1253,825;  249,785; 1176,375;108,35861
1094,79; 1222,825;  247,785; 1129,175;110,62526
1095,33; 1216,968;  232,585; 1100,975;113,35723
1095,87; 1208,968;  230,985; 1142,375;107,30674
1096,40; 1181,111;  206,985; 1087,375;110,64707
1096,94; 1180,254;  238,785; 1072,575;112,91435
1097,48; 1143,111;  235,185; 1090,775;106,11692
1098,02; 1145,539;  210,785; 1066,575;109,22706
1098,56; 1117,254;  196,985;  999,175;114,71953
1099,10; 1099,254;  211,585;  999,375;112,67832
1099,63; 1067,111;  209,785; 1018,775;105,97482
1100,17; 1112,539;  244,185; 1028,775;110,67619
1100,71; 1112,825;  239,985; 1012,375;113,00509

